Data from Al_FLMS009871__1228__16-44-32-675.txt Node

Date: Fri Mar 08 16:44:32 CST 2024
User: pe5414po
Spectrometer: FLMS00987
Trigger mode: 0
Integration Time (sec): 1.000000E-1
Scans to average: 1
Electric dark correction enabled: true
Nonlinearity correction enabled: false
Boxcar width: 0
XAxis mode: Wavelengths
Number of Pixels in Spectrum: 2048
>>>>>Begin Spectral Data<<<<<
188.938	-69.05
189.409	-69.05
189.879	-69.05
190.349	-122.88
190.819	-101.81
191.29	-122.88
191.76	-104.15
192.23	-73.73
192.7	-47.98
193.17	-83.09
193.64	-62.02
194.109	-5.85
194.579	-87.77
195.049	12.87
195.519	47.98
195.988	52.66
196.458	24.58
196.927	129.9
197.397	66.71
197.866	146.28
198.336	106.49
198.805	195.43
199.274	157.99
199.744	155.65
200.213	223.52
200.682	183.73
201.151	228.2
201.62	218.84
202.089	204.8
202.558	204.8
203.027	289.06
203.495	338.21
203.964	314.8
204.433	284.38
204.902	387.36
205.37	279.69
205.839	239.9
206.307	335.87
206.776	253.95
207.244	291.4
207.712	284.38
208.181	289.06
208.649	293.74
209.117	300.76
209.585	258.63
210.053	385.02
210.521	289.06
210.989	296.08
211.457	282.03
211.925	321.82
212.393	324.16
212.861	265.65
213.328	284.38
213.796	291.4
214.264	305.44
214.731	265.65
215.199	249.27
215.666	239.9
216.133	216.5
216.601	265.65
217.068	225.86
217.535	293.74
218.003	284.38
218.47	225.86
218.937	258.63
219.404	258.63
219.871	258.63
220.338	239.9
220.805	253.95
221.271	232.88
221.738	298.42
222.205	275.01
222.671	317.14
223.138	183.73
223.605	289.06
224.071	256.29
224.538	216.5
225.004	289.06
225.47	312.46
225.937	279.69
226.403	277.35
226.869	291.4
227.335	265.65
227.801	286.72
228.267	317.14
228.733	279.69
229.199	319.48
229.665	263.31
230.131	246.93
230.597	242.25
231.062	218.84
231.528	277.35
231.994	296.08
232.459	324.16
232.925	260.97
233.39	249.27
233.856	265.65
234.321	275.01
234.786	293.74
235.252	270.33
235.717	307.78
236.182	310.12
236.647	286.72
237.112	267.99
237.577	256.29
238.042	289.06
238.507	263.31
238.972	246.93
239.436	265.65
239.901	235.22
240.366	284.38
240.83	328.85
241.295	286.72
241.76	328.85
242.224	342.89
242.688	319.48
243.153	305.44
243.617	307.78
244.081	338.21
244.545	321.82
245.01	244.59
245.474	256.29
245.938	293.74
246.402	258.63
246.866	342.89
247.33	277.35
247.793	352.25
248.257	249.27
248.721	265.65
249.185	270.33
249.648	340.55
250.112	307.78
250.575	307.78
251.039	389.7
251.502	303.1
251.965	305.44
252.429	321.82
252.892	321.82
253.355	200.12
253.818	277.35
254.281	345.23
254.744	263.31
255.207	310.12
255.67	286.72
256.133	242.25
256.596	284.38
257.059	253.95
257.522	300.76
257.984	345.23
258.447	270.33
258.909	319.48
259.372	342.89
259.834	310.12
260.297	265.65
260.759	260.97
261.221	282.03
261.684	246.93
262.146	267.99
262.608	272.67
263.07	317.14
263.532	291.4
263.994	300.76
264.456	265.65
264.918	333.53
265.38	265.65
265.842	230.54
266.303	282.03
266.765	258.63
267.227	265.65
267.688	272.67
268.15	246.93
268.611	328.85
269.072	289.06
269.534	239.9
269.995	291.4
270.456	296.08
270.918	277.35
271.379	317.14
271.84	251.61
272.301	333.53
272.762	279.69
273.223	284.38
273.684	321.82
274.144	307.78
274.605	284.38
275.066	237.56
275.527	221.18
275.987	338.21
276.448	293.74
276.908	253.95
277.369	300.76
277.829	354.59
278.289	282.03
278.75	239.9
279.21	347.57
279.67	291.4
280.13	270.33
280.59	286.72
281.05	307.78
281.51	253.95
281.97	277.35
282.43	345.23
282.89	373.32
283.35	275.01
283.809	291.4
284.269	335.87
284.729	298.42
285.188	289.06
285.648	305.44
286.107	305.44
286.567	298.42
287.026	275.01
287.485	307.78
287.944	256.29
288.404	317.14
288.863	331.19
289.322	282.03
289.781	373.32
290.24	342.89
290.699	349.91
291.158	300.76
291.616	282.03
292.075	251.61
292.534	345.23
292.992	282.03
293.451	328.85
293.91	338.21
294.368	279.69
294.827	321.82
295.285	338.21
295.743	305.44
296.202	333.53
296.66	251.61
297.118	282.03
297.576	333.53
298.034	275.01
298.492	303.1
298.95	303.1
299.408	333.53
299.866	298.42
300.324	263.31
300.781	296.08
301.239	310.12
301.697	284.38
302.154	340.55
302.612	253.95
303.069	345.23
303.527	319.48
303.984	300.76
304.441	300.76
304.899	314.8
305.356	345.23
305.813	277.35
306.27	300.76
306.727	347.57
307.184	303.1
307.641	298.42
308.098	331.19
308.555	286.72
309.012	263.31
309.468	356.93
309.925	359.27
310.382	239.9
310.838	289.06
311.295	310.12
311.751	380.34
312.208	291.4
312.664	326.5
313.12	303.1
313.577	342.89
314.033	289.06
314.489	310.12
314.945	331.19
315.401	338.21
315.857	275.01
316.313	349.91
316.769	338.21
317.225	338.21
317.681	319.48
318.136	286.72
318.592	291.4
319.048	291.4
319.503	333.53
319.959	356.93
320.414	331.19
320.869	291.4
321.325	324.16
321.78	279.69
322.235	338.21
322.691	300.76
323.146	328.85
323.601	275.01
324.056	373.32
324.511	277.35
324.966	366.29
325.421	338.21
325.875	314.8
326.33	326.5
326.785	307.78
327.24	342.89
327.694	380.34
328.149	265.65
328.603	289.06
329.058	298.42
329.512	214.16
329.966	317.14
330.421	305.44
330.875	340.55
331.329	265.65
331.783	368.63
332.237	335.87
332.691	303.1
333.145	319.48
333.599	258.63
334.053	235.22
334.507	246.93
334.96	286.72
335.414	235.22
335.868	298.42
336.321	207.14
336.775	328.85
337.228	279.69
337.682	277.35
338.135	265.65
338.588	296.08
339.042	286.72
339.495	284.38
339.948	345.23
340.401	286.72
340.854	359.27
341.307	349.91
341.76	347.57
342.213	275.01
342.666	335.87
343.119	352.25
343.571	267.99
344.024	333.53
344.477	324.16
344.929	242.25
345.382	335.87
345.834	293.74
346.287	312.46
346.739	317.14
347.191	298.42
347.644	331.19
348.096	352.25
348.548	314.8
349	260.97
349.452	279.69
349.904	352.25
350.356	307.78
350.808	429.49
351.26	284.38
351.711	284.38
352.163	298.42
352.615	312.46
353.066	312.46
353.518	338.21
353.969	296.08
354.421	335.87
354.872	230.54
355.324	296.08
355.775	347.57
356.226	331.19
356.677	260.97
357.128	331.19
357.579	345.23
358.03	267.99
358.481	267.99
358.932	312.46
359.383	324.16
359.834	363.95
360.285	279.69
360.735	260.97
361.186	328.85
361.637	312.46
362.087	260.97
362.538	307.78
362.988	335.87
363.438	338.21
363.889	328.85
364.339	303.1
364.789	275.01
365.239	326.5
365.689	319.48
366.139	310.12
366.589	314.8
367.039	342.89
367.489	321.82
367.939	342.89
368.389	347.57
368.839	321.82
369.288	260.97
369.738	314.8
370.187	331.19
370.637	333.53
371.086	253.95
371.536	340.55
371.985	279.69
372.434	272.67
372.884	331.19
373.333	328.85
373.782	263.31
374.231	312.46
374.68	305.44
375.129	282.03
375.578	352.25
376.027	286.72
376.475	314.8
376.924	349.91
377.373	305.44
377.822	335.87
378.27	321.82
378.719	307.78
379.167	352.25
379.616	331.19
380.064	335.87
380.512	333.53
380.961	284.38
381.409	373.32
381.857	305.44
382.305	317.14
382.753	335.87
383.201	385.02
383.649	317.14
384.097	307.78
384.545	218.84
384.992	307.78
385.44	263.31
385.888	307.78
386.335	340.55
386.783	244.59
387.231	335.87
387.678	352.25
388.125	289.06
388.573	342.89
389.02	305.44
389.467	317.14
389.914	317.14
390.362	317.14
390.809	354.59
391.256	279.69
391.703	363.95
392.15	368.63
392.596	326.5
393.043	293.74
393.49	326.5
393.937	335.87
394.383	314.8
394.83	307.78
395.276	347.57
395.723	349.91
396.169	340.55
396.616	279.69
397.062	335.87
397.508	328.85
397.954	328.85
398.401	305.44
398.847	279.69
399.293	317.14
399.739	305.44
400.185	305.44
400.631	307.78
401.076	289.06
401.522	326.5
401.968	321.82
402.414	317.14
402.859	340.55
403.305	312.46
403.75	363.95
404.196	310.12
404.641	307.78
405.086	356.93
405.532	328.85
405.977	359.27
406.422	263.31
406.867	303.1
407.312	380.34
407.757	338.21
408.202	314.8
408.647	375.66
409.092	263.31
409.537	354.59
409.982	314.8
410.426	317.14
410.871	399.06
411.316	333.53
411.76	340.55
412.205	345.23
412.649	321.82
413.093	279.69
413.538	307.78
413.982	361.61
414.426	303.1
414.87	328.85
415.314	317.14
415.758	349.91
416.202	345.23
416.646	296.08
417.09	319.48
417.534	354.59
417.978	375.66
418.421	387.36
418.865	307.78
419.309	380.34
419.752	256.29
420.196	319.48
420.639	296.08
421.083	317.14
421.526	303.1
421.969	352.25
422.412	319.48
422.856	368.63
423.299	335.87
423.742	385.02
424.185	284.38
424.628	310.12
425.071	305.44
425.513	307.78
425.956	310.12
426.399	296.08
426.842	370.97
427.284	363.95
427.727	378
428.169	352.25
428.612	317.14
429.054	349.91
429.497	260.97
429.939	300.76
430.381	326.5
430.823	312.46
431.265	296.08
431.707	326.5
432.149	310.12
432.591	373.32
433.033	314.8
433.475	298.42
433.917	289.06
434.359	328.85
434.8	321.82
435.242	359.27
435.684	335.87
436.125	373.32
436.567	333.53
437.008	310.12
437.449	310.12
437.891	260.97
438.332	373.32
438.773	298.42
439.214	305.44
439.656	282.03
440.097	275.01
440.538	312.46
440.978	303.1
441.419	289.06
441.86	296.08
442.301	305.44
442.742	286.72
443.182	403.74
443.623	373.32
444.063	349.91
444.504	293.74
444.944	275.01
445.385	253.95
445.825	256.29
446.265	319.48
446.706	244.59
447.146	291.4
447.586	399.06
448.026	310.12
448.466	282.03
448.906	324.16
449.346	300.76
449.786	321.82
450.225	272.67
450.665	305.44
451.105	312.46
451.544	328.85
451.984	338.21
452.424	305.44
452.863	293.74
453.302	361.61
453.742	291.4
454.181	324.16
454.62	303.1
455.059	342.89
455.499	335.87
455.938	342.89
456.377	307.78
456.816	380.34
457.254	312.46
457.693	373.32
458.132	317.14
458.571	307.78
459.01	251.61
459.448	342.89
459.887	321.82
460.325	387.36
460.764	307.78
461.202	289.06
461.641	275.01
462.079	338.21
462.517	324.16
462.955	246.93
463.393	359.27
463.832	319.48
464.27	385.02
464.708	312.46
465.145	361.61
465.583	366.29
466.021	370.97
466.459	314.8
466.897	319.48
467.334	335.87
467.772	352.25
468.209	293.74
468.647	298.42
469.084	324.16
469.522	284.38
469.959	349.91
470.396	380.34
470.833	340.55
471.271	260.97
471.708	291.4
472.145	296.08
472.582	401.4
473.019	342.89
473.456	368.63
473.892	342.89
474.329	326.5
474.766	284.38
475.202	307.78
475.639	328.85
476.076	335.87
476.512	307.78
476.949	342.89
477.385	298.42
477.821	277.35
478.258	260.97
478.694	317.14
479.13	317.14
479.566	387.36
480.002	289.06
480.438	317.14
480.874	284.38
481.31	312.46
481.746	356.93
482.181	317.14
482.617	303.1
483.053	366.29
483.488	333.53
483.924	333.53
484.36	298.42
484.795	277.35
485.23	328.85
485.666	340.55
486.101	335.87
486.536	275.01
486.971	363.95
487.407	333.53
487.842	314.8
488.277	270.33
488.712	314.8
489.146	284.38
489.581	326.5
490.016	307.78
490.451	401.4
490.885	293.74
491.32	328.85
491.755	256.29
492.189	317.14
492.624	326.5
493.058	314.8
493.492	244.59
493.927	375.66
494.361	298.42
494.795	312.46
495.229	340.55
495.663	361.61
496.097	324.16
496.531	312.46
496.965	361.61
497.399	356.93
497.833	317.14
498.266	307.78
498.7	319.48
499.134	373.32
499.567	305.44
500.001	359.27
500.434	265.65
500.868	282.03
501.301	284.38
501.734	284.38
502.168	319.48
502.601	310.12
503.034	347.57
503.467	300.76
503.9	267.99
504.333	314.8
504.766	333.53
505.199	380.34
505.632	300.76
506.064	326.5
506.497	363.95
506.93	396.72
507.362	368.63
507.795	305.44
508.227	289.06
508.66	401.4
509.092	324.16
509.524	352.25
509.956	359.27
510.389	321.82
510.821	363.95
511.253	354.59
511.685	307.78
512.117	314.8
512.549	296.08
512.981	354.59
513.412	321.82
513.844	293.74
514.276	349.91
514.707	307.78
515.139	340.55
515.571	342.89
516.002	352.25
516.433	296.08
516.865	312.46
517.296	324.16
517.727	321.82
518.159	331.19
518.59	354.59
519.021	333.53
519.452	312.46
519.883	338.21
520.314	370.97
520.744	293.74
521.175	349.91
521.606	352.25
522.037	305.44
522.467	289.06
522.898	338.21
523.328	310.12
523.759	265.65
524.189	293.74
524.62	335.87
525.05	310.12
525.48	324.16
525.91	366.29
526.341	310.12
526.771	298.42
527.201	328.85
527.631	289.06
528.061	305.44
528.49	282.03
528.92	279.69
529.35	300.76
529.78	307.78
530.209	354.59
530.639	380.34
531.068	298.42
531.498	310.12
531.927	303.1
532.357	321.82
532.786	331.19
533.215	246.93
533.644	296.08
534.074	310.12
534.503	352.25
534.932	291.4
535.361	375.66
535.79	298.42
536.218	333.53
536.647	392.04
537.076	291.4
537.505	361.61
537.933	335.87
538.362	363.95
538.79	359.27
539.219	375.66
539.647	317.14
540.076	368.63
540.504	317.14
540.932	366.29
541.36	310.12
541.788	303.1
542.217	361.61
542.645	392.04
543.073	394.38
543.5	314.8
543.928	328.85
544.356	340.55
544.784	317.14
545.211	342.89
545.639	340.55
546.067	310.12
546.494	291.4
546.922	335.87
547.349	345.23
547.776	300.76
548.204	300.76
548.631	338.21
549.058	279.69
549.485	270.33
549.912	347.57
550.339	310.12
550.766	370.97
551.193	321.82
551.62	284.38
552.047	282.03
552.474	267.99
552.9	326.5
553.327	328.85
553.754	342.89
554.18	333.53
554.607	331.19
555.033	354.59
555.459	385.02
555.886	303.1
556.312	303.1
556.738	291.4
557.164	307.78
557.59	319.48
558.016	263.31
558.442	291.4
558.868	310.12
559.294	298.42
559.72	356.93
560.145	342.89
560.571	277.35
560.997	296.08
561.422	406.08
561.848	366.29
562.273	284.38
562.699	429.49
563.124	345.23
563.549	286.72
563.974	314.8
564.4	324.16
564.825	368.63
565.25	298.42
565.675	303.1
566.1	317.14
566.525	321.82
566.95	333.53
567.374	363.95
567.799	244.59
568.224	251.61
568.648	310.12
569.073	317.14
569.497	331.19
569.922	286.72
570.346	340.55
570.771	356.93
571.195	293.74
571.619	347.57
572.043	349.91
572.467	310.12
572.891	319.48
573.315	352.25
573.739	305.44
574.163	328.85
574.587	352.25
575.011	272.67
575.435	321.82
575.858	340.55
576.282	291.4
576.705	335.87
577.129	249.27
577.552	305.44
577.976	319.48
578.399	375.66
578.822	293.74
579.245	331.19
579.669	303.1
580.092	249.27
580.515	300.76
580.938	305.44
581.361	314.8
581.784	267.99
582.206	279.69
582.629	272.67
583.052	275.01
583.474	317.14
583.897	326.5
584.32	359.27
584.742	267.99
585.165	291.4
585.587	345.23
586.009	303.1
586.431	253.95
586.854	303.1
587.276	338.21
587.698	321.82
588.12	291.4
588.542	258.63
588.964	305.44
589.386	319.48
589.807	324.16
590.229	272.67
590.651	289.06
591.073	378
591.494	314.8
591.916	303.1
592.337	319.48
592.759	289.06
593.18	300.76
593.601	326.5
594.022	342.89
594.444	291.4
594.865	321.82
595.286	300.76
595.707	317.14
596.128	284.38
596.549	277.35
596.97	342.89
597.39	370.97
597.811	265.65
598.232	328.85
598.652	317.14
599.073	335.87
599.494	349.91
599.914	347.57
600.334	310.12
600.755	359.27
601.175	312.46
601.595	258.63
602.015	305.44
602.436	361.61
602.856	394.38
603.276	314.8
603.696	317.14
604.115	340.55
604.535	340.55
604.955	347.57
605.375	373.32
605.794	368.63
606.214	305.44
606.634	319.48
607.053	328.85
607.473	331.19
607.892	361.61
608.311	303.1
608.731	342.89
609.15	347.57
609.569	319.48
609.988	345.23
610.407	286.72
610.826	349.91
611.245	366.29
611.664	385.02
612.083	368.63
612.501	307.78
612.92	370.97
613.339	342.89
613.757	338.21
614.176	319.48
614.594	340.55
615.013	242.25
615.431	340.55
615.85	291.4
616.268	314.8
616.686	347.57
617.104	321.82
617.522	370.97
617.94	310.12
618.358	321.82
618.776	342.89
619.194	296.08
619.612	359.27
620.03	305.44
620.447	272.67
620.865	275.01
621.282	345.23
621.7	385.02
622.117	312.46
622.535	282.03
622.952	282.03
623.369	349.91
623.787	282.03
624.204	328.85
624.621	286.72
625.038	361.61
625.455	361.61
625.872	296.08
626.289	305.44
626.706	326.5
627.123	251.61
627.539	335.87
627.956	279.69
628.373	303.1
628.789	335.87
629.206	326.5
629.622	275.01
630.038	326.5
630.455	370.97
630.871	326.5
631.287	326.5
631.703	375.66
632.12	345.23
632.536	335.87
632.952	326.5
633.368	345.23
633.783	291.4
634.199	228.2
634.615	312.46
635.031	326.5
635.446	279.69
635.862	314.8
636.277	361.61
636.693	342.89
637.108	279.69
637.524	312.46
637.939	335.87
638.354	307.78
638.77	363.95
639.185	326.5
639.6	342.89
640.015	387.36
640.43	335.87
640.845	340.55
641.259	335.87
641.674	317.14
642.089	338.21
642.504	307.78
642.918	347.57
643.333	349.91
643.747	312.46
644.162	375.66
644.576	331.19
644.991	375.66
645.405	370.97
645.819	361.61
646.233	342.89
646.647	310.12
647.061	314.8
647.475	279.69
647.889	275.01
648.303	335.87
648.717	352.25
649.131	349.91
649.545	345.23
649.958	310.12
650.372	284.38
650.785	270.33
651.199	296.08
651.612	270.33
652.026	366.29
652.439	314.8
652.852	331.19
653.266	373.32
653.679	279.69
654.092	389.7
654.505	265.65
654.918	300.76
655.331	331.19
655.744	349.91
656.156	307.78
656.569	286.72
656.982	277.35
657.394	370.97
657.807	305.44
658.22	279.69
658.632	335.87
659.044	331.19
659.457	326.5
659.869	279.69
660.281	321.82
660.693	303.1
661.106	338.21
661.518	307.78
661.93	321.82
662.342	328.85
662.754	324.16
663.165	338.21
663.577	321.82
663.989	310.12
664.401	328.85
664.812	279.69
665.224	356.93
665.635	328.85
666.047	300.76
666.458	342.89
666.869	335.87
667.281	267.99
667.692	380.34
668.103	338.21
668.514	317.14
668.925	373.32
669.336	279.69
669.747	284.38
670.158	291.4
670.569	303.1
670.979	298.42
671.39	363.95
671.801	352.25
672.211	296.08
672.622	380.34
673.032	349.91
673.443	317.14
673.853	284.38
674.263	335.87
674.674	335.87
675.084	253.95
675.494	349.91
675.904	347.57
676.314	368.63
676.724	373.32
677.134	328.85
677.544	296.08
677.953	324.16
678.363	338.21
678.773	321.82
679.182	347.57
679.592	312.46
680.001	349.91
680.411	291.4
680.82	300.76
681.23	333.53
681.639	305.44
682.048	310.12
682.457	221.18
682.866	282.03
683.275	331.19
683.684	279.69
684.093	258.63
684.502	378
684.911	291.4
685.32	333.53
685.728	321.82
686.137	289.06
686.546	291.4
686.954	286.72
687.363	354.59
687.771	328.85
688.179	321.82
688.588	324.16
688.996	289.06
689.404	298.42
689.812	342.89
690.22	338.21
690.628	275.01
691.036	420.13
691.444	279.69
691.852	340.55
692.26	370.97
692.667	361.61
693.075	321.82
693.483	326.5
693.89	300.76
694.298	317.14
694.705	298.42
695.112	356.93
695.52	293.74
695.927	319.48
696.334	298.42
696.741	270.33
697.148	263.31
697.555	361.61
697.962	319.48
698.369	331.19
698.776	373.32
699.183	291.4
699.59	303.1
699.996	267.99
700.403	356.93
700.81	307.78
701.216	352.25
701.623	361.61
702.029	279.69
702.435	324.16
702.842	312.46
703.248	321.82
703.654	289.06
704.06	317.14
704.466	293.74
704.872	338.21
705.278	356.93
705.684	293.74
706.09	401.4
706.496	258.63
706.901	300.76
707.307	352.25
707.712	314.8
708.118	289.06
708.523	279.69
708.929	361.61
709.334	401.4
709.74	312.46
710.145	345.23
710.55	293.74
710.955	326.5
711.36	317.14
711.765	375.66
712.17	321.82
712.575	342.89
712.98	864.83
713.385	335.87
713.789	328.85
714.194	338.21
714.599	279.69
715.003	282.03
715.408	321.82
715.812	352.25
716.217	286.72
716.621	232.88
717.025	431.83
717.429	267.99
717.833	307.78
718.238	298.42
718.642	275.01
719.046	296.08
719.449	256.29
719.853	321.82
720.257	354.59
720.661	389.7
721.065	368.63
721.468	342.89
721.872	333.53
722.275	284.38
722.679	256.29
723.082	324.16
723.485	298.42
723.889	326.5
724.292	305.44
724.695	324.16
725.098	275.01
725.501	312.46
725.904	284.38
726.307	307.78
726.71	326.5
727.113	319.48
727.516	263.31
727.918	314.8
728.321	312.46
728.724	326.5
729.126	342.89
729.529	328.85
729.931	345.23
730.333	342.89
730.736	326.5
731.138	326.5
731.54	328.85
731.942	279.69
732.344	237.56
732.746	349.91
733.148	345.23
733.55	296.08
733.952	349.91
734.354	263.31
734.756	375.66
735.157	349.91
735.559	349.91
735.96	324.16
736.362	310.12
736.763	267.99
737.165	305.44
737.566	263.31
737.967	317.14
738.368	296.08
738.77	326.5
739.171	326.5
739.572	319.48
739.973	410.76
740.374	359.27
740.774	251.61
741.175	331.19
741.576	324.16
741.977	298.42
742.377	375.66
742.778	289.06
743.178	338.21
743.579	331.19
743.979	326.5
744.379	352.25
744.78	349.91
745.18	361.61
745.58	282.03
745.98	307.78
746.38	363.95
746.78	305.44
747.18	335.87
747.58	328.85
747.98	335.87
748.38	284.38
748.779	298.42
749.179	284.38
749.578	291.4
749.978	312.46
750.377	347.57
750.777	317.14
751.176	333.53
751.575	324.16
751.975	366.29
752.374	277.35
752.773	260.97
753.172	312.46
753.571	307.78
753.97	305.44
754.369	321.82
754.768	349.91
755.166	305.44
755.565	321.82
755.964	307.78
756.362	347.57
756.761	286.72
757.159	321.82
757.558	328.85
757.956	312.46
758.354	342.89
758.753	378
759.151	333.53
759.549	338.21
759.947	282.03
760.345	331.19
760.743	385.02
761.141	382.68
761.539	286.72
761.936	342.89
762.334	352.25
762.732	314.8
763.129	307.78
763.527	312.46
763.924	307.78
764.322	335.87
764.719	303.1
765.117	387.36
765.514	300.76
765.911	340.55
766.308	335.87
766.705	263.31
767.102	347.57
767.499	305.44
767.896	338.21
768.293	331.19
768.69	342.89
769.086	310.12
769.483	317.14
769.88	366.29
770.276	319.48
770.673	284.38
771.069	352.25
771.466	307.78
771.862	296.08
772.258	338.21
772.654	258.63
773.05	279.69
773.447	345.23
773.843	349.91
774.239	366.29
774.634	317.14
775.03	331.19
775.426	307.78
775.822	305.44
776.218	333.53
776.613	307.78
777.009	314.8
777.404	279.69
777.8	335.87
778.195	312.46
778.59	368.63
778.986	363.95
779.381	378
779.776	275.01
780.171	291.4
780.566	347.57
780.961	359.27
781.356	361.61
781.751	239.9
782.146	394.38
782.54	291.4
782.935	272.67
783.33	270.33
783.724	326.5
784.119	366.29
784.513	296.08
784.908	263.31
785.302	335.87
785.696	335.87
786.09	361.61
786.485	326.5
786.879	319.48
787.273	349.91
787.667	326.5
788.061	382.68
788.454	345.23
788.848	310.12
789.242	342.89
789.636	345.23
790.029	293.74
790.423	275.01
790.816	305.44
791.21	340.55
791.603	303.1
791.997	356.93
792.39	366.29
792.783	354.59
793.176	258.63
793.569	338.21
793.962	319.48
794.355	286.72
794.748	321.82
795.141	345.23
795.534	319.48
795.927	356.93
796.319	317.14
796.712	338.21
797.105	303.1
797.497	310.12
797.89	324.16
798.282	326.5
798.674	333.53
799.067	282.03
799.459	286.72
799.851	345.23
800.243	307.78
800.635	303.1
801.027	305.44
801.419	321.82
801.811	275.01
802.203	354.59
802.594	338.21
802.986	270.33
803.378	314.8
803.769	291.4
804.161	359.27
804.552	296.08
804.944	335.87
805.335	307.78
805.726	333.53
806.118	394.38
806.509	312.46
806.9	275.01
807.291	312.46
807.682	321.82
808.073	399.06
808.464	277.35
808.855	328.85
809.245	347.57
809.636	286.72
810.027	340.55
810.417	354.59
810.808	230.54
811.198	239.9
811.589	312.46
811.979	399.06
812.369	345.23
812.759	340.55
813.15	326.5
813.54	356.93
813.93	265.65
814.32	345.23
814.71	291.4
815.1	284.38
815.489	244.59
815.879	324.16
816.269	326.5
816.658	328.85
817.048	291.4
817.438	352.25
817.827	293.74
818.216	317.14
818.606	352.25
818.995	310.12
819.384	317.14
819.773	356.93
820.163	312.46
820.552	326.5
820.941	249.27
821.33	335.87
821.718	333.53
822.107	291.4
822.496	317.14
822.885	363.95
823.273	270.33
823.662	298.42
824.05	253.95
824.439	349.91
824.827	293.74
825.216	335.87
825.604	321.82
825.992	239.9
826.38	324.16
826.768	347.57
827.156	214.16
827.544	267.99
827.932	298.42
828.32	331.19
828.708	333.53
829.096	345.23
829.483	284.38
829.871	312.46
830.259	333.53
830.646	284.38
831.034	317.14
831.421	380.34
831.808	347.57
832.196	279.69
832.583	366.29
832.97	303.1
833.357	331.19
833.744	338.21
834.131	260.97
834.518	328.85
834.905	370.97
835.292	342.89
835.678	314.8
836.065	335.87
836.452	300.76
836.838	321.82
837.225	326.5
837.611	279.69
837.998	289.06
838.384	235.22
838.77	296.08
839.157	307.78
839.543	284.38
839.929	270.33
840.315	286.72
840.701	307.78
841.087	331.19
841.473	361.61
841.858	359.27
842.244	307.78
842.63	387.36
843.015	314.8
843.401	424.81
843.787	286.72
844.172	303.1
844.557	296.08
844.943	275.01
845.328	300.76
845.713	307.78
846.098	319.48
846.483	312.46
846.868	263.31
847.253	314.8
847.638	326.5
848.023	239.9
848.408	314.8
848.793	324.16
849.177	293.74
849.562	312.46
849.947	345.23
850.331	293.74
850.715	312.46
851.1	319.48
851.484	291.4
851.868	293.74
852.253	282.03
852.637	253.95
853.021	385.02
853.405	282.03
853.789	277.35
854.173	324.16
854.557	296.08
854.94	305.44
855.324	300.76
855.708	303.1
856.091	321.82
856.475	303.1
856.858	345.23
857.242	342.89
857.625	310.12
858.009	319.48
858.392	333.53
858.775	363.95
859.158	354.59
859.541	263.31
859.924	342.89
860.307	298.42
860.69	363.95
861.073	326.5
861.456	324.16
861.838	354.59
862.221	303.1
862.604	321.82
862.986	340.55
863.369	298.42
863.751	331.19
864.133	310.12
864.516	272.67
864.898	324.16
865.28	293.74
865.662	347.57
866.044	314.8
866.426	319.48
866.808	335.87
867.19	310.12
867.572	413.1
867.954	331.19
868.336	361.61
868.717	317.14
869.099	310.12
869.48	342.89
869.862	342.89
870.243	298.42
870.625	284.38
871.006	356.93
871.387	237.56
871.768	284.38
872.149	326.5
872.53	324.16
872.911	319.48
873.292	328.85
873.673	249.27
874.054	345.23
874.435	326.5
874.815	314.8
875.196	328.85
875.577	340.55
875.957	289.06
876.338	275.01
876.718	303.1
877.098	207.14
877.479	277.35
877.859	382.68
878.239	249.27
878.619	300.76
878.999	300.76
879.379	387.36
879.759	331.19
880.139	345.23
880.519	328.85
880.898	328.85
881.278	399.06
881.658	310.12
882.037	354.59
882.417	291.4
882.796	319.48
883.176	326.5
883.555	300.76
883.934	312.46
884.313	342.89
884.693	314.8
885.072	298.42
885.451	300.76
885.83	272.67
886.209	293.74
886.587	284.38
886.966	340.55
887.345	328.85
887.724	310.12
888.102	342.89
888.481	282.03
888.859	324.16
889.238	277.35
889.616	286.72
889.994	345.23
890.373	263.31
890.751	331.19
891.129	317.14
891.507	298.42
891.885	307.78
892.263	277.35
892.641	324.16
893.019	349.91
893.396	303.1
893.774	331.19
894.152	312.46
894.529	331.19
894.907	333.53
895.284	342.89
895.662	333.53
896.039	305.44
896.416	347.57
896.794	260.97
897.171	293.74
897.548	345.23
897.925	312.46
898.302	286.72
898.679	340.55
899.056	338.21
899.433	307.78
899.809	263.31
900.186	331.19
900.563	314.8
900.939	342.89
901.316	246.93
901.692	319.48
902.069	328.85
902.445	298.42
902.821	326.5
903.197	356.93
903.574	347.57
903.95	291.4
904.326	298.42
904.702	331.19
905.078	324.16
905.454	319.48
905.829	375.66
906.205	246.93
906.581	263.31
906.956	293.74
907.332	333.53
907.707	305.44
908.083	352.25
908.458	324.16
908.833	296.08
909.209	331.19
909.584	307.78
909.959	265.65
910.334	387.36
910.709	265.65
911.084	300.76
911.459	298.42
911.834	272.67
912.209	319.48
912.583	366.29
912.958	267.99
913.333	321.82
913.707	300.76
914.082	296.08
914.456	310.12
914.83	345.23
915.205	352.25
915.579	328.85
915.953	275.01
916.327	366.29
916.701	289.06
917.075	270.33
917.449	310.12
917.823	305.44
918.197	291.4
918.571	382.68
918.944	237.56
919.318	333.53
919.692	275.01
920.065	286.72
920.438	401.4
920.812	328.85
921.185	359.27
921.558	314.8
921.932	307.78
922.305	279.69
922.678	258.63
923.051	282.03
923.424	270.33
923.797	317.14
924.17	331.19
924.542	331.19
924.915	328.85
925.288	312.46
925.661	363.95
926.033	305.44
926.406	319.48
926.778	347.57
927.15	235.22
927.523	293.74
927.895	331.19
928.267	319.48
928.639	305.44
929.011	389.7
929.383	356.93
929.755	286.72
930.127	328.85
930.499	303.1
930.871	326.5
931.242	319.48
931.614	298.42
931.986	305.44
932.357	324.16
932.729	340.55
933.1	263.31
933.471	326.5
933.843	340.55
934.214	321.82
934.585	277.35
934.956	282.03
935.327	331.19
935.698	333.53
936.069	352.25
936.44	289.06
936.811	328.85
937.182	263.31
937.552	298.42
937.923	317.14
938.293	340.55
938.664	305.44
939.034	342.89
939.405	289.06
939.775	284.38
940.145	286.72
940.516	303.1
940.886	303.1
941.256	368.63
941.626	324.16
941.996	307.78
942.366	305.44
942.735	342.89
943.105	324.16
943.475	345.23
943.845	345.23
944.214	246.93
944.584	331.19
944.953	284.38
945.323	275.01
945.692	345.23
946.061	338.21
946.43	286.72
946.8	286.72
947.169	286.72
947.538	312.46
947.907	300.76
948.276	298.42
948.645	349.91
949.013	335.87
949.382	263.31
949.751	347.57
950.119	303.1
950.488	272.67
950.857	279.69
951.225	305.44
951.593	277.35
951.962	305.44
952.33	347.57
952.698	284.38
953.066	340.55
953.434	298.42
953.802	359.27
954.17	324.16
954.538	328.85
954.906	380.34
955.274	312.46
955.642	319.48
956.009	312.46
956.377	286.72
956.744	260.97
957.112	403.74
957.479	356.93
957.847	324.16
958.214	312.46
958.581	307.78
958.948	328.85
959.315	347.57
959.683	321.82
960.05	277.35
960.416	228.2
960.783	300.76
961.15	375.66
961.517	253.95
961.884	307.78
962.25	272.67
962.617	291.4
962.983	338.21
963.35	291.4
963.716	270.33
964.082	291.4
964.449	319.48
964.815	319.48
965.181	314.8
965.547	331.19
965.913	352.25
966.279	305.44
966.645	310.12
967.011	368.63
967.377	314.8
967.742	359.27
968.108	293.74
968.474	305.44
968.839	277.35
969.205	312.46
969.57	267.99
969.935	253.95
970.301	260.97
970.666	335.87
971.031	282.03
971.396	354.59
971.761	300.76
972.126	326.5
972.491	307.78
972.856	235.22
973.221	340.55
973.586	286.72
973.95	359.27
974.315	317.14
974.679	277.35
975.044	310.12
975.408	345.23
975.773	361.61
976.137	354.59
976.501	289.06
976.866	310.12
977.23	279.69
977.594	335.87
977.958	331.19
978.322	246.93
978.686	314.8
979.049	307.78
979.413	326.5
979.777	300.76
980.141	319.48
980.504	326.5
980.868	363.95
981.231	331.19
981.595	333.53
981.958	239.9
982.321	321.82
982.684	326.5
983.048	352.25
983.411	298.42
983.774	289.06
984.137	319.48
984.5	232.88
984.862	256.29
985.225	354.59
985.588	382.68
985.951	324.16
986.313	321.82
986.676	267.99
987.038	303.1
987.401	368.63
987.763	303.1
988.125	310.12
988.488	251.61
988.85	310.12
989.212	314.8
989.574	342.89
989.936	286.72
990.298	298.42
990.66	342.89
991.022	345.23
991.383	303.1
991.745	270.33
992.107	275.01
992.468	270.33
992.83	293.74
993.191	347.57
993.553	270.33
993.914	310.12
994.275	340.55
994.637	314.8
994.998	282.03
995.359	232.88
995.72	310.12
996.081	333.53
996.442	293.74
996.803	305.44
997.163	293.74
997.524	277.35
997.885	312.46
998.245	342.89
998.606	298.42
998.966	277.35
999.327	331.19
999.687	333.53
1000.047	340.55
1000.408	340.55
1000.768	312.46
1001.128	267.99
1001.488	307.78
1001.848	286.72
1002.208	305.44
1002.568	305.44
1002.927	260.97
1003.287	321.82
1003.647	321.82
1004.007	340.55
1004.366	321.82
1004.726	303.1
1005.085	347.57
1005.444	235.22
1005.804	319.48
1006.163	263.31
1006.522	249.27
1006.881	244.59
1007.24	300.76
1007.599	230.54
1007.958	328.85
1008.317	354.59
1008.676	282.03
1009.035	328.85
1009.393	275.01
1009.752	310.12
1010.111	307.78
1010.469	277.35
1010.828	277.35
1011.186	319.48
1011.544	310.12
1011.903	275.01
1012.261	317.14
1012.619	307.78
1012.977	305.44
1013.335	258.63
1013.693	408.42
1014.051	279.69
1014.409	303.1
1014.767	298.42
1015.124	298.42
1015.482	307.78
1015.84	317.14
1016.197	310.12
1016.555	359.27
1016.912	326.5
1017.269	378
1017.627	335.87
1017.984	338.21
1018.341	347.57
1018.698	331.19
1019.055	300.76
1019.412	321.82
1019.769	300.76
1020.126	328.85
1020.483	319.48
1020.84	319.48
1021.196	249.27
1021.553	249.27
1021.909	305.44
1022.266	319.48
1022.622	333.53
1022.979	345.23
1023.335	312.46
1023.691	317.14
1024.047	347.57
1024.404	303.1
1024.76	354.59
1025.116	342.89
1025.472	368.63
1025.827	310.12
1026.183	258.63
1026.539	331.19
1026.895	354.59
1027.25	370.97
1027.606	361.61
1027.961	298.42
1028.317	296.08
1028.672	345.23
1029.028	284.38
1029.383	256.29
1029.738	265.65
1030.093	275.01
1030.448	298.42
1030.803	286.72
1031.158	277.35
1031.513	296.08
1031.868	291.4
1032.223	363.95
1032.577	232.88
1032.932	303.1
1033.287	317.14
1033.641	328.85
1033.996	289.06
1034.35	307.78
1034.704	282.03
1035.059	326.5
1035.413	347.57
1035.767	347.57
1036.121	347.57
