Data from Al_FLMS009871__1233__16-44-33-175.txt Node

Date: Fri Mar 08 16:44:33 CST 2024
User: pe5414po
Spectrometer: FLMS00987
Trigger mode: 0
Integration Time (sec): 1.000000E-1
Scans to average: 1
Electric dark correction enabled: true
Nonlinearity correction enabled: false
Boxcar width: 0
XAxis mode: Wavelengths
Number of Pixels in Spectrum: 2048
>>>>>Begin Spectral Data<<<<<
188.938	-104.15
189.409	-104.15
189.879	-104.15
190.349	-150.96
190.819	-99.47
191.29	-59.68
191.76	-153.31
192.23	-108.83
192.7	-97.13
193.17	12.87
193.64	-83.09
194.109	-40.96
194.579	3.51
195.049	15.21
195.519	26.92
195.988	55
196.458	76.07
196.927	97.13
197.397	38.62
197.866	94.79
198.336	122.88
198.805	134.58
199.274	153.31
199.744	167.35
200.213	125.22
200.682	153.31
201.151	251.61
201.62	176.71
202.089	207.14
202.558	284.38
203.027	246.93
203.495	230.54
203.964	272.67
204.433	265.65
204.902	321.82
205.37	279.69
205.839	282.03
206.307	298.42
206.776	242.25
207.244	298.42
207.712	286.72
208.181	378
208.649	328.85
209.117	366.29
209.585	319.48
210.053	267.99
210.521	293.74
210.989	275.01
211.457	284.38
211.925	298.42
212.393	253.95
212.861	298.42
213.328	307.78
213.796	317.14
214.264	272.67
214.731	284.38
215.199	221.18
215.666	239.9
216.133	291.4
216.601	279.69
217.068	265.65
217.535	267.99
218.003	328.85
218.47	204.8
218.937	267.99
219.404	326.5
219.871	310.12
220.338	279.69
220.805	300.76
221.271	291.4
221.738	239.9
222.205	242.25
222.671	263.31
223.138	260.97
223.605	284.38
224.071	267.99
224.538	314.8
225.004	214.16
225.47	300.76
225.937	214.16
226.403	272.67
226.869	263.31
227.335	324.16
227.801	270.33
228.267	239.9
228.733	279.69
229.199	275.01
229.665	258.63
230.131	267.99
230.597	253.95
231.062	230.54
231.528	284.38
231.994	197.78
232.459	230.54
232.925	340.55
233.39	244.59
233.856	251.61
234.321	317.14
234.786	310.12
235.252	326.5
235.717	279.69
236.182	263.31
236.647	305.44
237.112	256.29
237.577	253.95
238.042	258.63
238.507	176.71
238.972	319.48
239.436	298.42
239.901	256.29
240.366	263.31
240.83	216.5
241.295	275.01
241.76	314.8
242.224	368.63
242.688	340.55
243.153	228.2
243.617	312.46
244.081	310.12
244.545	298.42
245.01	293.74
245.474	265.65
245.938	237.56
246.402	237.56
246.866	282.03
247.33	298.42
247.793	246.93
248.257	321.82
248.721	270.33
249.185	293.74
249.648	282.03
250.112	251.61
250.575	246.93
251.039	239.9
251.502	303.1
251.965	307.78
252.429	282.03
252.892	312.46
253.355	314.8
253.818	275.01
254.281	272.67
254.744	260.97
255.207	321.82
255.67	263.31
256.133	251.61
256.596	303.1
257.059	300.76
257.522	242.25
257.984	265.65
258.447	272.67
258.909	265.65
259.372	275.01
259.834	291.4
260.297	312.46
260.759	284.38
261.221	326.5
261.684	251.61
262.146	279.69
262.608	279.69
263.07	303.1
263.532	282.03
263.994	282.03
264.456	375.66
264.918	225.86
265.38	293.74
265.842	228.2
266.303	312.46
266.765	312.46
267.227	359.27
267.688	209.48
268.15	246.93
268.611	218.84
269.072	251.61
269.534	256.29
269.995	265.65
270.456	256.29
270.918	312.46
271.379	352.25
271.84	289.06
272.301	307.78
272.762	368.63
273.223	251.61
273.684	249.27
274.144	342.89
274.605	207.14
275.066	275.01
275.527	244.59
275.987	310.12
276.448	310.12
276.908	228.2
277.369	275.01
277.829	293.74
278.289	265.65
278.75	256.29
279.21	354.59
279.67	246.93
280.13	368.63
280.59	289.06
281.05	303.1
281.51	324.16
281.97	345.23
282.43	298.42
282.89	333.53
283.35	284.38
283.809	328.85
284.269	314.8
284.729	239.9
285.188	333.53
285.648	335.87
286.107	321.82
286.567	253.95
287.026	291.4
287.485	244.59
287.944	300.76
288.404	275.01
288.863	265.65
289.322	298.42
289.781	312.46
290.24	340.55
290.699	293.74
291.158	246.93
291.616	286.72
292.075	284.38
292.534	279.69
292.992	321.82
293.451	317.14
293.91	296.08
294.368	349.91
294.827	286.72
295.285	335.87
295.743	319.48
296.202	277.35
296.66	298.42
297.118	314.8
297.576	253.95
298.034	303.1
298.492	272.67
298.95	328.85
299.408	277.35
299.866	312.46
300.324	293.74
300.781	270.33
301.239	237.56
301.697	296.08
302.154	275.01
302.612	251.61
303.069	314.8
303.527	373.32
303.984	310.12
304.441	284.38
304.899	310.12
305.356	356.93
305.813	328.85
306.27	368.63
306.727	321.82
307.184	289.06
307.641	298.42
308.098	326.5
308.555	260.97
309.012	312.46
309.468	324.16
309.925	338.21
310.382	328.85
310.838	225.86
311.295	340.55
311.751	324.16
312.208	298.42
312.664	317.14
313.12	303.1
313.577	354.59
314.033	305.44
314.489	305.44
314.945	314.8
315.401	256.29
315.857	366.29
316.313	272.67
316.769	291.4
317.225	324.16
317.681	354.59
318.136	345.23
318.592	349.91
319.048	307.78
319.503	300.76
319.959	342.89
320.414	366.29
320.869	335.87
321.325	338.21
321.78	289.06
322.235	352.25
322.691	260.97
323.146	249.27
323.601	265.65
324.056	375.66
324.511	342.89
324.966	319.48
325.421	305.44
325.875	335.87
326.33	335.87
326.785	291.4
327.24	298.42
327.694	305.44
328.149	258.63
328.603	286.72
329.058	378
329.512	333.53
329.966	370.97
330.421	277.35
330.875	333.53
331.329	335.87
331.783	267.99
332.237	300.76
332.691	296.08
333.145	347.57
333.599	324.16
334.053	305.44
334.507	331.19
334.96	319.48
335.414	326.5
335.868	319.48
336.321	324.16
336.775	251.61
337.228	349.91
337.682	310.12
338.135	223.52
338.588	319.48
339.042	230.54
339.495	331.19
339.948	312.46
340.401	267.99
340.854	275.01
341.307	272.67
341.76	312.46
342.213	345.23
342.666	253.95
343.119	326.5
343.571	335.87
344.024	340.55
344.477	263.31
344.929	260.97
345.382	338.21
345.834	328.85
346.287	214.16
346.739	256.29
347.191	235.22
347.644	335.87
348.096	349.91
348.548	310.12
349	289.06
349.452	317.14
349.904	244.59
350.356	321.82
350.808	321.82
351.26	225.86
351.711	296.08
352.163	251.61
352.615	340.55
353.066	317.14
353.518	293.74
353.969	356.93
354.421	342.89
354.872	349.91
355.324	366.29
355.775	312.46
356.226	321.82
356.677	310.12
357.128	340.55
357.579	331.19
358.03	303.1
358.481	368.63
358.932	340.55
359.383	354.59
359.834	275.01
360.285	307.78
360.735	345.23
361.186	349.91
361.637	286.72
362.087	392.04
362.538	272.67
362.988	300.76
363.438	298.42
363.889	272.67
364.339	235.22
364.789	275.01
365.239	265.65
365.689	352.25
366.139	237.56
366.589	303.1
367.039	312.46
367.489	303.1
367.939	300.76
368.389	303.1
368.839	312.46
369.288	260.97
369.738	284.38
370.187	307.78
370.637	284.38
371.086	293.74
371.536	366.29
371.985	368.63
372.434	366.29
372.884	373.32
373.333	359.27
373.782	246.93
374.231	303.1
374.68	373.32
375.129	300.76
375.578	289.06
376.027	293.74
376.475	312.46
376.924	352.25
377.373	265.65
377.822	328.85
378.27	321.82
378.719	293.74
379.167	314.8
379.616	340.55
380.064	279.69
380.512	270.33
380.961	265.65
381.409	314.8
381.857	256.29
382.305	253.95
382.753	342.89
383.201	340.55
383.649	338.21
384.097	251.61
384.545	298.42
384.992	282.03
385.44	326.5
385.888	317.14
386.335	385.02
386.783	338.21
387.231	321.82
387.678	291.4
388.125	380.34
388.573	303.1
389.02	289.06
389.467	321.82
389.914	307.78
390.362	356.93
390.809	359.27
391.256	300.76
391.703	317.14
392.15	272.67
392.596	340.55
393.043	331.19
393.49	284.38
393.937	319.48
394.383	335.87
394.83	321.82
395.276	340.55
395.723	303.1
396.169	275.01
396.616	361.61
397.062	373.32
397.508	321.82
397.954	326.5
398.401	340.55
398.847	370.97
399.293	314.8
399.739	335.87
400.185	324.16
400.631	340.55
401.076	286.72
401.522	370.97
401.968	272.67
402.414	356.93
402.859	298.42
403.305	310.12
403.75	375.66
404.196	260.97
404.641	265.65
405.086	338.21
405.532	279.69
405.977	209.48
406.422	239.9
406.867	307.78
407.312	349.91
407.757	347.57
408.202	317.14
408.647	277.35
409.092	319.48
409.537	345.23
409.982	321.82
410.426	342.89
410.871	385.02
411.316	359.27
411.76	347.57
412.205	354.59
412.649	347.57
413.093	340.55
413.538	331.19
413.982	396.72
414.426	310.12
414.87	387.36
415.314	340.55
415.758	321.82
416.202	289.06
416.646	321.82
417.09	284.38
417.534	373.32
417.978	368.63
418.421	277.35
418.865	284.38
419.309	265.65
419.752	352.25
420.196	373.32
420.639	296.08
421.083	275.01
421.526	307.78
421.969	399.06
422.412	244.59
422.856	319.48
423.299	279.69
423.742	310.12
424.185	328.85
424.628	387.36
425.071	340.55
425.513	291.4
425.956	345.23
426.399	340.55
426.842	340.55
427.284	349.91
427.727	331.19
428.169	267.99
428.612	345.23
429.054	340.55
429.497	228.2
429.939	289.06
430.381	267.99
430.823	324.16
431.265	284.38
431.707	368.63
432.149	310.12
432.591	286.72
433.033	310.12
433.475	312.46
433.917	331.19
434.359	298.42
434.8	375.66
435.242	321.82
435.684	382.68
436.125	331.19
436.567	310.12
437.008	326.5
437.449	303.1
437.891	314.8
438.332	260.97
438.773	340.55
439.214	305.44
439.656	349.91
440.097	296.08
440.538	258.63
440.978	289.06
441.419	324.16
441.86	270.33
442.301	314.8
442.742	253.95
443.182	310.12
443.623	277.35
444.063	277.35
444.504	347.57
444.944	359.27
445.385	265.65
445.825	263.31
446.265	310.12
446.706	340.55
447.146	349.91
447.586	279.69
448.026	331.19
448.466	331.19
448.906	303.1
449.346	289.06
449.786	314.8
450.225	284.38
450.665	317.14
451.105	378
451.544	375.66
451.984	366.29
452.424	354.59
452.863	258.63
453.302	321.82
453.742	392.04
454.181	303.1
454.62	333.53
455.059	342.89
455.499	331.19
455.938	272.67
456.377	303.1
456.816	310.12
457.254	352.25
457.693	368.63
458.132	331.19
458.571	335.87
459.01	317.14
459.448	352.25
459.887	349.91
460.325	293.74
460.764	314.8
461.202	319.48
461.641	314.8
462.079	354.59
462.517	307.78
462.955	338.21
463.393	293.74
463.832	333.53
464.27	342.89
464.708	263.31
465.145	387.36
465.583	298.42
466.021	342.89
466.459	291.4
466.897	373.32
467.334	321.82
467.772	272.67
468.209	338.21
468.647	289.06
469.084	361.61
469.522	289.06
469.959	326.5
470.396	331.19
470.833	347.57
471.271	361.61
471.708	272.67
472.145	352.25
472.582	382.68
473.019	354.59
473.456	338.21
473.892	354.59
474.329	319.48
474.766	305.44
475.202	319.48
475.639	317.14
476.076	291.4
476.512	349.91
476.949	333.53
477.385	284.38
477.821	296.08
478.258	392.04
478.694	335.87
479.13	267.99
479.566	359.27
480.002	333.53
480.438	324.16
480.874	263.31
481.31	319.48
481.746	326.5
482.181	291.4
482.617	380.34
483.053	354.59
483.488	275.01
483.924	286.72
484.36	204.8
484.795	286.72
485.23	296.08
485.666	317.14
486.101	319.48
486.536	347.57
486.971	310.12
487.407	333.53
487.842	328.85
488.277	279.69
488.712	293.74
489.146	298.42
489.581	310.12
490.016	331.19
490.451	319.48
490.885	326.5
491.32	310.12
491.755	265.65
492.189	307.78
492.624	312.46
493.058	282.03
493.492	284.38
493.927	312.46
494.361	324.16
494.795	275.01
495.229	321.82
495.663	242.25
496.097	214.16
496.531	333.53
496.965	326.5
497.399	293.74
497.833	267.99
498.266	333.53
498.7	296.08
499.134	314.8
499.567	340.55
500.001	305.44
500.434	342.89
500.868	385.02
501.301	272.67
501.734	284.38
502.168	253.95
502.601	328.85
503.034	317.14
503.467	303.1
503.9	317.14
504.333	293.74
504.766	284.38
505.199	338.21
505.632	307.78
506.064	314.8
506.497	293.74
506.93	373.32
507.362	303.1
507.795	394.38
508.227	324.16
508.66	331.19
509.092	314.8
509.524	331.19
509.956	378
510.389	347.57
510.821	326.5
511.253	342.89
511.685	331.19
512.117	312.46
512.549	279.69
512.981	319.48
513.412	352.25
513.844	307.78
514.276	331.19
514.707	258.63
515.139	270.33
515.571	380.34
516.002	347.57
516.433	303.1
516.865	305.44
517.296	272.67
517.727	347.57
518.159	303.1
518.59	326.5
519.021	305.44
519.452	303.1
519.883	354.59
520.314	307.78
520.744	333.53
521.175	300.76
521.606	354.59
522.037	366.29
522.467	319.48
522.898	286.72
523.328	368.63
523.759	272.67
524.189	190.75
524.62	349.91
525.05	370.97
525.48	345.23
525.91	317.14
526.341	293.74
526.771	368.63
527.201	328.85
527.631	333.53
528.061	342.89
528.49	298.42
528.92	265.65
529.35	331.19
529.78	300.76
530.209	324.16
530.639	286.72
531.068	321.82
531.498	326.5
531.927	331.19
532.357	328.85
532.786	291.4
533.215	340.55
533.644	296.08
534.074	284.38
534.503	317.14
534.932	345.23
535.361	345.23
535.79	239.9
536.218	335.87
536.647	314.8
537.076	258.63
537.505	324.16
537.933	296.08
538.362	417.79
538.79	296.08
539.219	286.72
539.647	249.27
540.076	324.16
540.504	347.57
540.932	282.03
541.36	296.08
541.788	310.12
542.217	305.44
542.645	349.91
543.073	335.87
543.5	319.48
543.928	279.69
544.356	394.38
544.784	298.42
545.211	328.85
545.639	321.82
546.067	319.48
546.494	284.38
546.922	300.76
547.349	368.63
547.776	303.1
548.204	340.55
548.631	331.19
549.058	284.38
549.485	368.63
549.912	289.06
550.339	298.42
550.766	284.38
551.193	349.91
551.62	317.14
552.047	267.99
552.474	361.61
552.9	298.42
553.327	363.95
553.754	324.16
554.18	239.9
554.607	286.72
555.033	319.48
555.459	324.16
555.886	282.03
556.312	356.93
556.738	356.93
557.164	321.82
557.59	300.76
558.016	340.55
558.442	331.19
558.868	331.19
559.294	335.87
559.72	279.69
560.145	331.19
560.571	326.5
560.997	368.63
561.422	333.53
561.848	370.97
562.273	303.1
562.699	319.48
563.124	321.82
563.549	366.29
563.974	319.48
564.4	289.06
564.825	303.1
565.25	260.97
565.675	293.74
566.1	298.42
566.525	300.76
566.95	265.65
567.374	282.03
567.799	340.55
568.224	319.48
568.648	260.97
569.073	260.97
569.497	368.63
569.922	340.55
570.346	307.78
570.771	361.61
571.195	235.22
571.619	331.19
572.043	307.78
572.467	221.18
572.891	385.02
573.315	284.38
573.739	251.61
574.163	300.76
574.587	333.53
575.011	298.42
575.435	373.32
575.858	277.35
576.282	331.19
576.705	258.63
577.129	356.93
577.552	347.57
577.976	314.8
578.399	363.95
578.822	291.4
579.245	354.59
579.669	293.74
580.092	296.08
580.515	328.85
580.938	279.69
581.361	300.76
581.784	298.42
582.206	272.67
582.629	298.42
583.052	347.57
583.474	321.82
583.897	324.16
584.32	349.91
584.742	342.89
585.165	331.19
585.587	363.95
586.009	328.85
586.431	279.69
586.854	338.21
587.276	331.19
587.698	380.34
588.12	359.27
588.542	319.48
588.964	307.78
589.386	354.59
589.807	342.89
590.229	354.59
590.651	307.78
591.073	324.16
591.494	399.06
591.916	352.25
592.337	305.44
592.759	272.67
593.18	291.4
593.601	328.85
594.022	333.53
594.444	258.63
594.865	335.87
595.286	335.87
595.707	326.5
596.128	314.8
596.549	300.76
596.97	291.4
597.39	244.59
597.811	356.93
598.232	291.4
598.652	326.5
599.073	242.25
599.494	321.82
599.914	293.74
600.334	331.19
600.755	300.76
601.175	282.03
601.595	303.1
602.015	289.06
602.436	373.32
602.856	392.04
603.276	298.42
603.696	363.95
604.115	342.89
604.535	328.85
604.955	282.03
605.375	356.93
605.794	342.89
606.214	333.53
606.634	354.59
607.053	293.74
607.473	293.74
607.892	314.8
608.311	286.72
608.731	310.12
609.15	326.5
609.569	307.78
609.988	319.48
610.407	347.57
610.826	303.1
611.245	342.89
611.664	314.8
612.083	298.42
612.501	349.91
612.92	387.36
613.339	291.4
613.757	277.35
614.176	342.89
614.594	354.59
615.013	345.23
615.431	242.25
615.85	267.99
616.268	277.35
616.686	389.7
617.104	347.57
617.522	352.25
617.94	328.85
618.358	300.76
618.776	328.85
619.194	378
619.612	333.53
620.03	326.5
620.447	289.06
620.865	223.52
621.282	363.95
621.7	296.08
622.117	324.16
622.535	296.08
622.952	221.18
623.369	221.18
623.787	324.16
624.204	253.95
624.621	338.21
625.038	310.12
625.455	356.93
625.872	338.21
626.289	363.95
626.706	396.72
627.123	279.69
627.539	387.36
627.956	251.61
628.373	338.21
628.789	260.97
629.206	305.44
629.622	279.69
630.038	328.85
630.455	303.1
630.871	394.38
631.287	282.03
631.703	338.21
632.12	293.74
632.536	312.46
632.952	312.46
633.368	289.06
633.783	279.69
634.199	289.06
634.615	321.82
635.031	349.91
635.446	352.25
635.862	300.76
636.277	277.35
636.693	298.42
637.108	307.78
637.524	380.34
637.939	335.87
638.354	347.57
638.77	305.44
639.185	352.25
639.6	296.08
640.015	324.16
640.43	293.74
640.845	291.4
641.259	356.93
641.674	282.03
642.089	319.48
642.504	260.97
642.918	354.59
643.333	326.5
643.747	260.97
644.162	251.61
644.576	282.03
644.991	347.57
645.405	305.44
645.819	300.76
646.233	249.27
646.647	321.82
647.061	265.65
647.475	314.8
647.889	246.93
648.303	366.29
648.717	326.5
649.131	312.46
649.545	286.72
649.958	298.42
650.372	326.5
650.785	328.85
651.199	284.38
651.612	314.8
652.026	286.72
652.439	370.97
652.852	321.82
653.266	340.55
653.679	305.44
654.092	380.34
654.505	300.76
654.918	331.19
655.331	307.78
655.744	342.89
656.156	328.85
656.569	312.46
656.982	237.56
657.394	319.48
657.807	338.21
658.22	368.63
658.632	298.42
659.044	303.1
659.457	270.33
659.869	317.14
660.281	363.95
660.693	347.57
661.106	289.06
661.518	286.72
661.93	324.16
662.342	286.72
662.754	284.38
663.165	296.08
663.577	310.12
663.989	324.16
664.401	272.67
664.812	307.78
665.224	328.85
665.635	373.32
666.047	296.08
666.458	331.19
666.869	413.1
667.281	331.19
667.692	286.72
668.103	291.4
668.514	298.42
668.925	359.27
669.336	335.87
669.747	258.63
670.158	396.72
670.569	310.12
670.979	307.78
671.39	338.21
671.801	296.08
672.211	256.29
672.622	289.06
673.032	352.25
673.443	298.42
673.853	239.9
674.263	354.59
674.674	296.08
675.084	272.67
675.494	282.03
675.904	305.44
676.314	408.42
676.724	314.8
677.134	303.1
677.544	289.06
677.953	314.8
678.363	370.97
678.773	253.95
679.182	331.19
679.592	324.16
680.001	291.4
680.411	310.12
680.82	270.33
681.23	270.33
681.639	361.61
682.048	256.29
682.457	326.5
682.866	291.4
683.275	272.67
683.684	253.95
684.093	363.95
684.502	324.16
684.911	293.74
685.32	317.14
685.728	279.69
686.137	333.53
686.546	338.21
686.954	312.46
687.363	370.97
687.771	305.44
688.179	342.89
688.588	275.01
688.996	321.82
689.404	291.4
689.812	347.57
690.22	305.44
690.628	289.06
691.036	345.23
691.444	378
691.852	345.23
692.26	310.12
692.667	296.08
693.075	267.99
693.483	326.5
693.89	338.21
694.298	303.1
694.705	338.21
695.112	286.72
695.52	249.27
695.927	298.42
696.334	312.46
696.741	326.5
697.148	296.08
697.555	324.16
697.962	296.08
698.369	307.78
698.776	282.03
699.183	277.35
699.59	258.63
699.996	314.8
700.403	305.44
700.81	359.27
701.216	324.16
701.623	314.8
702.029	244.59
702.435	333.53
702.842	289.06
703.248	296.08
703.654	314.8
704.06	326.5
704.466	267.99
704.872	258.63
705.278	305.44
705.684	338.21
706.09	385.02
706.496	324.16
706.901	338.21
707.307	338.21
707.712	289.06
708.118	368.63
708.523	366.29
708.929	251.61
709.334	303.1
709.74	267.99
710.145	321.82
710.55	237.56
710.955	328.85
711.36	368.63
711.765	282.03
712.17	363.95
712.575	293.74
712.98	808.66
713.385	312.46
713.789	340.55
714.194	310.12
714.599	298.42
715.003	354.59
715.408	321.82
715.812	303.1
716.217	246.93
716.621	328.85
717.025	385.02
717.429	275.01
717.833	275.01
718.238	331.19
718.642	270.33
719.046	373.32
719.449	312.46
719.853	335.87
720.257	312.46
720.661	328.85
721.065	333.53
721.468	256.29
721.872	291.4
722.275	298.42
722.679	359.27
723.082	319.48
723.485	345.23
723.889	307.78
724.292	310.12
724.695	307.78
725.098	335.87
725.501	291.4
725.904	282.03
726.307	256.29
726.71	300.76
727.113	310.12
727.516	270.33
727.918	335.87
728.321	293.74
728.724	349.91
729.126	382.68
729.529	291.4
729.931	300.76
730.333	340.55
730.736	237.56
731.138	319.48
731.54	275.01
731.942	275.01
732.344	246.93
732.746	345.23
733.148	293.74
733.55	368.63
733.952	331.19
734.354	349.91
734.756	249.27
735.157	298.42
735.559	340.55
735.96	312.46
736.362	382.68
736.763	286.72
737.165	300.76
737.566	289.06
737.967	293.74
738.368	347.57
738.77	291.4
739.171	298.42
739.572	300.76
739.973	349.91
740.374	368.63
740.774	284.38
741.175	319.48
741.576	326.5
741.977	321.82
742.377	312.46
742.778	363.95
743.178	312.46
743.579	296.08
743.979	298.42
744.379	275.01
744.78	314.8
745.18	331.19
745.58	296.08
745.98	328.85
746.38	331.19
746.78	370.97
747.18	359.27
747.58	305.44
747.98	289.06
748.38	312.46
748.779	282.03
749.179	289.06
749.578	338.21
749.978	328.85
750.377	373.32
750.777	312.46
751.176	300.76
751.575	293.74
751.975	284.38
752.374	324.16
752.773	340.55
753.172	303.1
753.571	312.46
753.97	317.14
754.369	342.89
754.768	382.68
755.166	331.19
755.565	349.91
755.964	310.12
756.362	389.7
756.761	282.03
757.159	331.19
757.558	260.97
757.956	321.82
758.354	375.66
758.753	265.65
759.151	321.82
759.549	328.85
759.947	312.46
760.345	307.78
760.743	321.82
761.141	260.97
761.539	284.38
761.936	303.1
762.334	296.08
762.732	326.5
763.129	305.44
763.527	317.14
763.924	317.14
764.322	296.08
764.719	361.61
765.117	342.89
765.514	338.21
765.911	310.12
766.308	291.4
766.705	253.95
767.102	356.93
767.499	307.78
767.896	265.65
768.293	284.38
768.69	284.38
769.086	260.97
769.483	282.03
769.88	317.14
770.276	335.87
770.673	340.55
771.069	347.57
771.466	307.78
771.862	296.08
772.258	291.4
772.654	303.1
773.05	331.19
773.447	225.86
773.843	328.85
774.239	307.78
774.634	298.42
775.03	345.23
775.426	237.56
775.822	349.91
776.218	389.7
776.613	319.48
777.009	263.31
777.404	326.5
777.8	326.5
778.195	319.48
778.59	232.88
778.986	312.46
779.381	319.48
779.776	286.72
780.171	265.65
780.566	277.35
780.961	331.19
781.356	345.23
781.751	277.35
782.146	246.93
782.54	310.12
782.935	326.5
783.33	305.44
783.724	305.44
784.119	289.06
784.513	335.87
784.908	319.48
785.302	319.48
785.696	300.76
786.09	291.4
786.485	314.8
786.879	340.55
787.273	312.46
787.667	307.78
788.061	293.74
788.454	338.21
788.848	303.1
789.242	307.78
789.636	342.89
790.029	260.97
790.423	265.65
790.816	265.65
791.21	333.53
791.603	338.21
791.997	267.99
792.39	307.78
792.783	246.93
793.176	356.93
793.569	363.95
793.962	296.08
794.355	211.82
794.748	312.46
795.141	289.06
795.534	300.76
795.927	310.12
796.319	328.85
796.712	284.38
797.105	291.4
797.497	289.06
797.89	345.23
798.282	345.23
798.674	326.5
799.067	298.42
799.459	258.63
799.851	291.4
800.243	310.12
800.635	286.72
801.027	291.4
801.419	263.31
801.811	270.33
802.203	303.1
802.594	361.61
802.986	326.5
803.378	363.95
803.769	347.57
804.161	335.87
804.552	225.86
804.944	277.35
805.335	347.57
805.726	434.17
806.118	314.8
806.509	307.78
806.9	333.53
807.291	312.46
807.682	321.82
808.073	291.4
808.464	427.15
808.855	324.16
809.245	293.74
809.636	340.55
810.027	284.38
810.417	272.67
810.808	263.31
811.198	317.14
811.589	275.01
811.979	307.78
812.369	326.5
812.759	284.38
813.15	249.27
813.54	260.97
813.93	333.53
814.32	319.48
814.71	312.46
815.1	286.72
815.489	258.63
815.879	296.08
816.269	317.14
816.658	335.87
817.048	230.54
817.438	249.27
817.827	310.12
818.216	286.72
818.606	258.63
818.995	338.21
819.384	263.31
819.773	289.06
820.163	375.66
820.552	352.25
820.941	312.46
821.33	340.55
821.718	263.31
822.107	275.01
822.496	361.61
822.885	363.95
823.273	354.59
823.662	265.65
824.05	354.59
824.439	277.35
824.827	263.31
825.216	291.4
825.604	321.82
825.992	282.03
826.38	305.44
826.768	312.46
827.156	293.74
827.544	359.27
827.932	260.97
828.32	291.4
828.708	321.82
829.096	345.23
829.483	260.97
829.871	272.67
830.259	335.87
830.646	359.27
831.034	342.89
831.421	296.08
831.808	326.5
832.196	211.82
832.583	331.19
832.97	356.93
833.357	338.21
833.744	277.35
834.131	249.27
834.518	331.19
834.905	307.78
835.292	246.93
835.678	338.21
836.065	324.16
836.452	279.69
836.838	253.95
837.225	349.91
837.611	303.1
837.998	286.72
838.384	338.21
838.77	246.93
839.157	279.69
839.543	298.42
839.929	347.57
840.315	354.59
840.701	359.27
841.087	324.16
841.473	389.7
841.858	270.33
842.244	352.25
842.63	298.42
843.015	347.57
843.401	347.57
843.787	342.89
844.172	272.67
844.557	272.67
844.943	335.87
845.328	265.65
845.713	296.08
846.098	270.33
846.483	298.42
846.868	272.67
847.253	293.74
847.638	385.02
848.023	296.08
848.408	291.4
848.793	312.46
849.177	270.33
849.562	326.5
849.947	328.85
850.331	279.69
850.715	265.65
851.1	300.76
851.484	286.72
851.868	317.14
852.253	347.57
852.637	275.01
853.021	359.27
853.405	282.03
853.789	282.03
854.173	289.06
854.557	331.19
854.94	317.14
855.324	307.78
855.708	317.14
856.091	296.08
856.475	298.42
856.858	253.95
857.242	347.57
857.625	253.95
858.009	296.08
858.392	328.85
858.775	331.19
859.158	335.87
859.541	312.46
859.924	375.66
860.307	345.23
860.69	349.91
861.073	333.53
861.456	326.5
861.838	331.19
862.221	347.57
862.604	289.06
862.986	282.03
863.369	258.63
863.751	331.19
864.133	363.95
864.516	338.21
864.898	303.1
865.28	239.9
865.662	335.87
866.044	305.44
866.426	345.23
866.808	349.91
867.19	319.48
867.572	328.85
867.954	300.76
868.336	291.4
868.717	340.55
869.099	331.19
869.48	373.32
869.862	321.82
870.243	396.72
870.625	335.87
871.006	284.38
871.387	328.85
871.768	335.87
872.149	326.5
872.53	361.61
872.911	335.87
873.292	312.46
873.673	328.85
874.054	342.89
874.435	314.8
874.815	272.67
875.196	335.87
875.577	307.78
875.957	314.8
876.338	300.76
876.718	340.55
877.098	338.21
877.479	310.12
877.859	324.16
878.239	359.27
878.619	284.38
878.999	293.74
879.379	303.1
879.759	291.4
880.139	340.55
880.519	260.97
880.898	363.95
881.278	228.2
881.658	345.23
882.037	345.23
882.417	291.4
882.796	296.08
883.176	321.82
883.555	319.48
883.934	310.12
884.313	289.06
884.693	324.16
885.072	307.78
885.451	307.78
885.83	321.82
886.209	258.63
886.587	310.12
886.966	310.12
887.345	277.35
887.724	265.65
888.102	291.4
888.481	321.82
888.859	335.87
889.238	324.16
889.616	293.74
889.994	284.38
890.373	368.63
890.751	310.12
891.129	272.67
891.507	289.06
891.885	293.74
892.263	307.78
892.641	270.33
893.019	289.06
893.396	249.27
893.774	359.27
894.152	342.89
894.529	328.85
894.907	277.35
895.284	272.67
895.662	340.55
896.039	328.85
896.416	275.01
896.794	296.08
897.171	326.5
897.548	335.87
897.925	312.46
898.302	289.06
898.679	333.53
899.056	319.48
899.433	356.93
899.809	335.87
900.186	403.74
900.563	361.61
900.939	331.19
901.316	345.23
901.692	338.21
902.069	307.78
902.445	291.4
902.821	251.61
903.197	361.61
903.574	345.23
903.95	310.12
904.326	307.78
904.702	375.66
905.078	361.61
905.454	389.7
905.829	289.06
906.205	333.53
906.581	275.01
906.956	282.03
907.332	310.12
907.707	333.53
908.083	338.21
908.458	340.55
908.833	307.78
909.209	345.23
909.584	305.44
909.959	326.5
910.334	363.95
910.709	352.25
911.084	296.08
911.459	328.85
911.834	267.99
912.209	296.08
912.583	291.4
912.958	286.72
913.333	335.87
913.707	300.76
914.082	286.72
914.456	303.1
914.83	361.61
915.205	286.72
915.579	279.69
915.953	305.44
916.327	293.74
916.701	291.4
917.075	300.76
917.449	352.25
917.823	324.16
918.197	284.38
918.571	331.19
918.944	265.65
919.318	282.03
919.692	296.08
920.065	275.01
920.438	340.55
920.812	265.65
921.185	321.82
921.558	319.48
921.932	359.27
922.305	303.1
922.678	345.23
923.051	317.14
923.424	284.38
923.797	317.14
924.17	368.63
924.542	258.63
924.915	324.16
925.288	279.69
925.661	267.99
926.033	326.5
926.406	272.67
926.778	352.25
927.15	370.97
927.523	319.48
927.895	352.25
928.267	331.19
928.639	282.03
929.011	342.89
929.383	349.91
929.755	216.5
930.127	340.55
930.499	284.38
930.871	342.89
931.242	335.87
931.614	256.29
931.986	275.01
932.357	298.42
932.729	370.97
933.1	356.93
933.471	279.69
933.843	293.74
934.214	319.48
934.585	342.89
934.956	303.1
935.327	272.67
935.698	312.46
936.069	303.1
936.44	352.25
936.811	303.1
937.182	246.93
937.552	312.46
937.923	256.29
938.293	314.8
938.664	378
939.034	335.87
939.405	251.61
939.775	340.55
940.145	314.8
940.516	284.38
940.886	286.72
941.256	328.85
941.626	312.46
941.996	370.97
942.366	340.55
942.735	225.86
943.105	321.82
943.475	293.74
943.845	314.8
944.214	312.46
944.584	345.23
944.953	340.55
945.323	340.55
945.692	370.97
946.061	340.55
946.43	267.99
946.8	256.29
947.169	270.33
947.538	338.21
947.907	321.82
948.276	385.02
948.645	326.5
949.013	305.44
949.382	326.5
949.751	321.82
950.119	359.27
950.488	310.12
950.857	347.57
951.225	267.99
951.593	321.82
951.962	289.06
952.33	340.55
952.698	317.14
953.066	296.08
953.434	415.45
953.802	282.03
954.17	303.1
954.538	314.8
954.906	314.8
955.274	326.5
955.642	289.06
956.009	256.29
956.377	296.08
956.744	314.8
957.112	286.72
957.479	267.99
957.847	326.5
958.214	333.53
958.581	296.08
958.948	253.95
959.315	277.35
959.683	347.57
960.05	324.16
960.416	352.25
960.783	289.06
961.15	328.85
961.517	321.82
961.884	286.72
962.25	305.44
962.617	314.8
962.983	298.42
963.35	345.23
963.716	310.12
964.082	267.99
964.449	282.03
964.815	310.12
965.181	380.34
965.547	293.74
965.913	291.4
966.279	284.38
966.645	293.74
967.011	277.35
967.377	303.1
967.742	317.14
968.108	354.59
968.474	284.38
968.839	314.8
969.205	289.06
969.57	333.53
969.935	300.76
970.301	354.59
970.666	305.44
971.031	310.12
971.396	338.21
971.761	326.5
972.126	300.76
972.491	296.08
972.856	275.01
973.221	265.65
973.586	263.31
973.95	293.74
974.315	277.35
974.679	256.29
975.044	317.14
975.408	349.91
975.773	317.14
976.137	328.85
976.501	368.63
976.866	328.85
977.23	312.46
977.594	211.82
977.958	307.78
978.322	284.38
978.686	331.19
979.049	359.27
979.413	267.99
979.777	263.31
980.141	246.93
980.504	289.06
980.868	289.06
981.231	291.4
981.595	326.5
981.958	312.46
982.321	305.44
982.684	375.66
983.048	270.33
983.411	296.08
983.774	232.88
984.137	258.63
984.5	246.93
984.862	277.35
985.225	375.66
985.588	286.72
985.951	249.27
986.313	312.46
986.676	258.63
987.038	260.97
987.401	249.27
987.763	366.29
988.125	321.82
988.488	291.4
988.85	296.08
989.212	263.31
989.574	284.38
989.936	335.87
990.298	279.69
990.66	258.63
991.022	298.42
991.383	284.38
991.745	342.89
992.107	282.03
992.468	277.35
992.83	347.57
993.191	298.42
993.553	314.8
993.914	284.38
994.275	291.4
994.637	312.46
994.998	282.03
995.359	324.16
995.72	345.23
996.081	317.14
996.442	307.78
996.803	289.06
997.163	282.03
997.524	282.03
997.885	319.48
998.245	333.53
998.606	267.99
998.966	284.38
999.327	317.14
999.687	265.65
1000.047	324.16
1000.408	296.08
1000.768	317.14
1001.128	258.63
1001.488	321.82
1001.848	375.66
1002.208	305.44
1002.568	324.16
1002.927	291.4
1003.287	335.87
1003.647	289.06
1004.007	258.63
1004.366	244.59
1004.726	312.46
1005.085	296.08
1005.444	239.9
1005.804	352.25
1006.163	279.69
1006.522	307.78
1006.881	366.29
1007.24	291.4
1007.599	277.35
1007.958	277.35
1008.317	291.4
1008.676	345.23
1009.035	275.01
1009.393	305.44
1009.752	314.8
1010.111	368.63
1010.469	352.25
1010.828	284.38
1011.186	403.74
1011.544	319.48
1011.903	289.06
1012.261	314.8
1012.619	345.23
1012.977	312.46
1013.335	345.23
1013.693	314.8
1014.051	394.38
1014.409	263.31
1014.767	326.5
1015.124	361.61
1015.482	338.21
1015.84	289.06
1016.197	321.82
1016.555	300.76
1016.912	324.16
1017.269	354.59
1017.627	300.76
1017.984	340.55
1018.341	275.01
1018.698	314.8
1019.055	338.21
1019.412	260.97
1019.769	279.69
1020.126	317.14
1020.483	342.89
1020.84	345.23
1021.196	207.14
1021.553	375.66
1021.909	272.67
1022.266	277.35
1022.622	272.67
1022.979	326.5
1023.335	368.63
1023.691	293.74
1024.047	305.44
1024.404	293.74
1024.76	263.31
1025.116	289.06
1025.472	312.46
1025.827	352.25
1026.183	326.5
1026.539	289.06
1026.895	282.03
1027.25	317.14
1027.606	272.67
1027.961	370.97
1028.317	253.95
1028.672	256.29
1029.028	249.27
1029.383	307.78
1029.738	324.16
1030.093	298.42
1030.448	349.91
1030.803	277.35
1031.158	324.16
1031.513	263.31
1031.868	272.67
1032.223	265.65
1032.577	310.12
1032.932	319.48
1033.287	256.29
1033.641	326.5
1033.996	293.74
1034.35	335.87
1034.704	279.69
1035.059	284.38
1035.413	314.8
1035.767	314.8
1036.121	314.8
