Data from Al_FLMS009871__1224__16-44-32-275.txt Node

Date: Fri Mar 08 16:44:32 CST 2024
User: pe5414po
Spectrometer: FLMS00987
Trigger mode: 0
Integration Time (sec): 1.000000E-1
Scans to average: 1
Electric dark correction enabled: true
Nonlinearity correction enabled: false
Boxcar width: 0
XAxis mode: Wavelengths
Number of Pixels in Spectrum: 2048
>>>>>Begin Spectral Data<<<<<
188.938	-74.17
189.409	-74.17
189.879	-74.17
190.349	-120.98
190.819	-41.4
191.29	-123.32
191.76	-97.57
192.23	-85.87
192.7	-76.51
193.17	-116.3
193.64	-25.01
194.109	-36.72
194.579	-34.38
195.049	26.48
195.519	66.27
195.988	33.5
196.458	12.43
196.927	178.61
197.397	26.48
197.866	87.33
198.336	164.57
198.805	131.8
199.274	157.55
199.744	190.31
200.213	159.89
200.682	192.66
201.151	265.21
201.62	218.4
202.089	225.42
202.558	279.26
203.027	258.19
203.495	305
203.964	244.15
204.433	218.4
204.902	274.57
205.37	272.23
205.839	323.73
206.307	293.3
206.776	393.94
207.244	314.36
207.712	297.98
208.181	305
208.649	253.51
209.117	283.94
209.585	319.04
210.053	321.38
210.521	258.19
210.989	279.26
211.457	295.64
211.925	344.79
212.393	290.96
212.861	272.23
213.328	255.85
213.796	290.96
214.264	321.38
214.731	330.75
215.199	312.02
215.666	276.91
216.133	330.75
216.601	295.64
217.068	286.28
217.535	370.54
218.003	281.6
218.47	244.15
218.937	234.78
219.404	319.04
219.871	262.87
220.338	288.62
220.805	255.85
221.271	255.85
221.738	293.3
222.205	288.62
222.671	246.49
223.138	216.06
223.605	178.61
224.071	239.47
224.538	269.89
225.004	295.64
225.47	213.72
225.937	227.76
226.403	286.28
226.869	283.94
227.335	258.19
227.801	302.66
228.267	272.23
228.733	347.13
229.199	328.41
229.665	323.73
230.131	305
230.597	358.83
231.062	260.53
231.528	251.17
231.994	216.06
232.459	300.32
232.925	314.36
233.39	269.89
233.856	293.3
234.321	237.13
234.786	283.94
235.252	253.51
235.717	251.17
236.182	309.68
236.647	323.73
237.112	253.51
237.577	293.3
238.042	274.57
238.507	297.98
238.972	309.68
239.436	232.44
239.901	234.78
240.366	234.78
240.83	288.62
241.295	232.44
241.76	307.34
242.224	307.34
242.688	312.02
243.153	251.17
243.617	293.3
244.081	269.89
244.545	293.3
245.01	309.68
245.474	307.34
245.938	234.78
246.402	204.36
246.866	328.41
247.33	274.57
247.793	251.17
248.257	274.57
248.721	265.21
249.185	269.89
249.648	300.32
250.112	237.13
250.575	314.36
251.039	323.73
251.502	283.94
251.965	293.3
252.429	305
252.892	244.15
253.355	276.91
253.818	234.78
254.281	262.87
254.744	290.96
255.207	241.81
255.67	258.19
256.133	223.08
256.596	302.66
257.059	255.85
257.522	260.53
257.984	230.1
258.447	260.53
258.909	267.55
259.372	220.74
259.834	279.26
260.297	295.64
260.759	279.26
261.221	300.32
261.684	276.91
262.146	302.66
262.608	258.19
263.07	288.62
263.532	255.85
263.994	319.04
264.456	258.19
264.918	281.6
265.38	265.21
265.842	234.78
266.303	255.85
266.765	319.04
267.227	246.49
267.688	267.55
268.15	321.38
268.611	281.6
269.072	297.98
269.534	295.64
269.995	286.28
270.456	305
270.918	232.44
271.379	312.02
271.84	258.19
272.301	328.41
272.762	300.32
273.223	232.44
273.684	286.28
274.144	309.68
274.605	269.89
275.066	316.7
275.527	307.34
275.987	300.32
276.448	288.62
276.908	326.07
277.369	307.34
277.829	255.85
278.289	251.17
278.75	260.53
279.21	260.53
279.67	312.02
280.13	253.51
280.59	260.53
281.05	297.98
281.51	274.57
281.97	276.91
282.43	293.3
282.89	241.81
283.35	288.62
283.809	262.87
284.269	230.1
284.729	220.74
285.188	335.43
285.648	340.11
286.107	293.3
286.567	267.55
287.026	276.91
287.485	302.66
287.944	244.15
288.404	305
288.863	267.55
289.322	356.49
289.781	300.32
290.24	340.11
290.699	323.73
291.158	262.87
291.616	297.98
292.075	326.07
292.534	309.68
292.992	328.41
293.451	335.43
293.91	316.7
294.368	288.62
294.827	269.89
295.285	330.75
295.743	330.75
296.202	293.3
296.66	260.53
297.118	312.02
297.576	267.55
298.034	309.68
298.492	323.73
298.95	274.57
299.408	342.45
299.866	328.41
300.324	218.4
300.781	253.51
301.239	267.55
301.697	290.96
302.154	288.62
302.612	239.47
303.069	330.75
303.527	333.09
303.984	302.66
304.441	293.3
304.899	258.19
305.356	375.22
305.813	244.15
306.27	300.32
306.727	290.96
307.184	267.55
307.641	302.66
308.098	302.66
308.555	283.94
309.012	293.3
309.468	262.87
309.925	272.23
310.382	267.55
310.838	281.6
311.295	319.04
311.751	297.98
312.208	312.02
312.664	323.73
313.12	297.98
313.577	269.89
314.033	302.66
314.489	276.91
314.945	276.91
315.401	307.34
315.857	316.7
316.313	290.96
316.769	286.28
317.225	309.68
317.681	316.7
318.136	307.34
318.592	283.94
319.048	267.55
319.503	260.53
319.959	335.43
320.414	340.11
320.869	295.64
321.325	333.09
321.78	260.53
322.235	354.15
322.691	319.04
323.146	267.55
323.601	319.04
324.056	349.47
324.511	335.43
324.966	344.79
325.421	272.23
325.875	335.43
326.33	300.32
326.785	326.07
327.24	255.85
327.694	349.47
328.149	354.15
328.603	316.7
329.058	363.51
329.512	286.28
329.966	300.32
330.421	302.66
330.875	363.51
331.329	335.43
331.783	244.15
332.237	326.07
332.691	290.96
333.145	269.89
333.599	368.2
334.053	307.34
334.507	307.34
334.96	330.75
335.414	279.26
335.868	370.54
336.321	321.38
336.775	293.3
337.228	262.87
337.682	354.15
338.135	333.09
338.588	319.04
339.042	262.87
339.495	316.7
339.948	321.38
340.401	281.6
340.854	326.07
341.307	312.02
341.76	307.34
342.213	361.17
342.666	302.66
343.119	283.94
343.571	328.41
344.024	283.94
344.477	333.09
344.929	351.81
345.382	305
345.834	335.43
346.287	295.64
346.739	319.04
347.191	262.87
347.644	337.77
348.096	283.94
348.548	276.91
349	293.3
349.452	326.07
349.904	260.53
350.356	333.09
350.808	295.64
351.26	286.28
351.711	321.38
352.163	326.07
352.615	314.36
353.066	337.77
353.518	290.96
353.969	333.09
354.421	321.38
354.872	281.6
355.324	358.83
355.775	335.43
356.226	295.64
356.677	272.23
357.128	340.11
357.579	347.13
358.03	307.34
358.481	300.32
358.932	344.79
359.383	290.96
359.834	297.98
360.285	330.75
360.735	279.26
361.186	297.98
361.637	340.11
362.087	279.26
362.538	314.36
362.988	363.51
363.438	377.56
363.889	323.73
364.339	326.07
364.789	267.55
365.239	330.75
365.689	347.13
366.139	272.23
366.589	307.34
367.039	281.6
367.489	337.77
367.939	312.02
368.389	297.98
368.839	321.38
369.288	255.85
369.738	274.57
370.187	244.15
370.637	312.02
371.086	333.09
371.536	305
371.985	286.28
372.434	241.81
372.884	300.32
373.333	300.32
373.782	295.64
374.231	305
374.68	293.3
375.129	265.21
375.578	349.47
376.027	319.04
376.475	309.68
376.924	295.64
377.373	342.45
377.822	384.58
378.27	293.3
378.719	297.98
379.167	333.09
379.616	300.32
380.064	307.34
380.512	361.17
380.961	293.3
381.409	365.85
381.857	302.66
382.305	316.7
382.753	300.32
383.201	244.15
383.649	344.79
384.097	356.49
384.545	260.53
384.992	274.57
385.44	330.75
385.888	335.43
386.335	382.24
386.783	424.37
387.231	300.32
387.678	286.28
388.125	312.02
388.573	363.51
389.02	328.41
389.467	344.79
389.914	295.64
390.362	323.73
390.809	316.7
391.256	330.75
391.703	302.66
392.15	309.68
392.596	323.73
393.043	307.34
393.49	323.73
393.937	333.09
394.383	302.66
394.83	309.68
395.276	279.26
395.723	314.36
396.169	347.13
396.616	333.09
397.062	274.57
397.508	307.34
397.954	305
398.401	340.11
398.847	262.87
399.293	300.32
399.739	326.07
400.185	337.77
400.631	323.73
401.076	302.66
401.522	293.3
401.968	321.38
402.414	293.3
402.859	328.41
403.305	281.6
403.75	323.73
404.196	290.96
404.641	347.13
405.086	316.7
405.532	340.11
405.977	286.28
406.422	344.79
406.867	265.21
407.312	349.47
407.757	295.64
408.202	361.17
408.647	368.2
409.092	319.04
409.537	319.04
409.982	295.64
410.426	272.23
410.871	337.77
411.316	316.7
411.76	312.02
412.205	267.55
412.649	297.98
413.093	335.43
413.538	340.11
413.982	314.36
414.426	295.64
414.87	400.96
415.314	279.26
415.758	234.78
416.202	248.83
416.646	323.73
417.09	265.21
417.534	326.07
417.978	330.75
418.421	305
418.865	290.96
419.309	328.41
419.752	312.02
420.196	286.28
420.639	342.45
421.083	269.89
421.526	326.07
421.969	347.13
422.412	305
422.856	309.68
423.299	321.38
423.742	279.26
424.185	316.7
424.628	337.77
425.071	279.26
425.513	300.32
425.956	316.7
426.399	335.43
426.842	297.98
427.284	297.98
427.727	274.57
428.169	302.66
428.612	321.38
429.054	307.34
429.497	302.66
429.939	365.85
430.381	347.13
430.823	309.68
431.265	307.34
431.707	328.41
432.149	288.62
432.591	274.57
433.033	279.26
433.475	251.17
433.917	293.3
434.359	363.51
434.8	351.81
435.242	340.11
435.684	349.47
436.125	351.81
436.567	312.02
437.008	295.64
437.449	384.58
437.891	375.22
438.332	290.96
438.773	319.04
439.214	276.91
439.656	279.26
440.097	321.38
440.538	269.89
440.978	349.47
441.419	314.36
441.86	405.64
442.301	375.22
442.742	246.49
443.182	361.17
443.623	314.36
444.063	333.09
444.504	335.43
444.944	305
445.385	319.04
445.825	276.91
446.265	323.73
446.706	302.66
447.146	300.32
447.586	316.7
448.026	309.68
448.466	267.55
448.906	347.13
449.346	265.21
449.786	326.07
450.225	344.79
450.665	290.96
451.105	265.21
451.544	337.77
451.984	316.7
452.424	293.3
452.863	330.75
453.302	328.41
453.742	321.38
454.181	307.34
454.62	351.81
455.059	337.77
455.499	316.7
455.938	248.83
456.377	279.26
456.816	309.68
457.254	288.62
457.693	344.79
458.132	375.22
458.571	349.47
459.01	316.7
459.448	279.26
459.887	321.38
460.325	354.15
460.764	253.51
461.202	340.11
461.641	349.47
462.079	323.73
462.517	335.43
462.955	349.47
463.393	370.54
463.832	290.96
464.27	290.96
464.708	363.51
465.145	286.28
465.583	323.73
466.021	321.38
466.459	293.3
466.897	354.15
467.334	323.73
467.772	305
468.209	281.6
468.647	351.81
469.084	274.57
469.522	267.55
469.959	239.47
470.396	349.47
470.833	295.64
471.271	290.96
471.708	337.77
472.145	337.77
472.582	342.45
473.019	305
473.456	283.94
473.892	354.15
474.329	335.43
474.766	272.23
475.202	384.58
475.639	337.77
476.076	321.38
476.512	326.07
476.949	312.02
477.385	330.75
477.821	340.11
478.258	342.45
478.694	368.2
479.13	319.04
479.566	295.64
480.002	351.81
480.438	342.45
480.874	393.94
481.31	316.7
481.746	262.87
482.181	319.04
482.617	328.41
483.053	316.7
483.488	326.07
483.924	326.07
484.36	335.43
484.795	312.02
485.23	283.94
485.666	297.98
486.101	321.38
486.536	335.43
486.971	323.73
487.407	384.58
487.842	293.3
488.277	323.73
488.712	335.43
489.146	314.36
489.581	349.47
490.016	309.68
490.451	300.32
490.885	335.43
491.32	309.68
491.755	248.83
492.189	274.57
492.624	349.47
493.058	321.38
493.492	321.38
493.927	333.09
494.361	328.41
494.795	328.41
495.229	248.83
495.663	389.26
496.097	290.96
496.531	260.53
496.965	316.7
497.399	290.96
497.833	323.73
498.266	321.38
498.7	321.38
499.134	255.85
499.567	302.66
500.001	234.78
500.434	281.6
500.868	333.09
501.301	347.13
501.734	290.96
502.168	344.79
502.601	340.11
503.034	295.64
503.467	302.66
503.9	288.62
504.333	382.24
504.766	305
505.199	328.41
505.632	276.91
506.064	279.26
506.497	232.44
506.93	258.19
507.362	326.07
507.795	375.22
508.227	297.98
508.66	340.11
509.092	379.9
509.524	279.26
509.956	307.34
510.389	312.02
510.821	323.73
511.253	389.26
511.685	326.07
512.117	316.7
512.549	328.41
512.981	300.32
513.412	356.49
513.844	297.98
514.276	312.02
514.707	312.02
515.139	326.07
515.571	316.7
516.002	293.3
516.433	333.09
516.865	323.73
517.296	283.94
517.727	316.7
518.159	384.58
518.59	384.58
519.021	286.28
519.452	309.68
519.883	283.94
520.314	335.43
520.744	363.51
521.175	375.22
521.606	316.7
522.037	309.68
522.467	368.2
522.898	293.3
523.328	358.83
523.759	326.07
524.189	269.89
524.62	342.45
525.05	309.68
525.48	286.28
525.91	307.34
526.341	316.7
526.771	276.91
527.201	279.26
527.631	347.13
528.061	316.7
528.49	335.43
528.92	370.54
529.35	344.79
529.78	326.07
530.209	293.3
530.639	307.34
531.068	323.73
531.498	302.66
531.927	260.53
532.357	328.41
532.786	344.79
533.215	356.49
533.644	319.04
534.074	368.2
534.503	302.66
534.932	316.7
535.361	354.15
535.79	246.49
536.218	295.64
536.647	295.64
537.076	312.02
537.505	260.53
537.933	295.64
538.362	253.51
538.79	342.45
539.219	417.35
539.647	349.47
540.076	267.55
540.504	307.34
540.932	286.28
541.36	351.81
541.788	328.41
542.217	319.04
542.645	312.02
543.073	323.73
543.5	356.49
543.928	363.51
544.356	312.02
544.784	309.68
545.211	323.73
545.639	307.34
546.067	288.62
546.494	314.36
546.922	326.07
547.349	342.45
547.776	354.15
548.204	326.07
548.631	323.73
549.058	279.26
549.485	286.28
549.912	363.51
550.339	312.02
550.766	286.28
551.193	396.28
551.62	347.13
552.047	377.56
552.474	337.77
552.9	276.91
553.327	337.77
553.754	265.21
554.18	333.09
554.607	372.88
555.033	244.15
555.459	340.11
555.886	314.36
556.312	305
556.738	344.79
557.164	344.79
557.59	305
558.016	333.09
558.442	323.73
558.868	288.62
559.294	326.07
559.72	225.42
560.145	323.73
560.571	365.85
560.997	335.43
561.422	312.02
561.848	372.88
562.273	300.32
562.699	297.98
563.124	335.43
563.549	314.36
563.974	274.57
564.4	344.79
564.825	386.92
565.25	344.79
565.675	319.04
566.1	244.15
566.525	344.79
566.95	342.45
567.374	344.79
567.799	344.79
568.224	335.43
568.648	297.98
569.073	328.41
569.497	344.79
569.922	255.85
570.346	321.38
570.771	340.11
571.195	312.02
571.619	340.11
572.043	300.32
572.467	323.73
572.891	281.6
573.315	253.51
573.739	342.45
574.163	358.83
574.587	337.77
575.011	321.38
575.435	279.26
575.858	333.09
576.282	347.13
576.705	283.94
577.129	295.64
577.552	326.07
577.976	305
578.399	265.21
578.822	276.91
579.245	319.04
579.669	316.7
580.092	356.49
580.515	286.28
580.938	314.36
581.361	260.53
581.784	293.3
582.206	354.15
582.629	351.81
583.052	333.09
583.474	354.15
583.897	333.09
584.32	246.49
584.742	319.04
585.165	272.23
585.587	297.98
586.009	290.96
586.431	295.64
586.854	330.75
587.276	283.94
587.698	312.02
588.12	326.07
588.542	300.32
588.964	319.04
589.386	290.96
589.807	272.23
590.229	335.43
590.651	330.75
591.073	368.2
591.494	316.7
591.916	326.07
592.337	340.11
592.759	351.81
593.18	267.55
593.601	302.66
594.022	349.47
594.444	337.77
594.865	309.68
595.286	351.81
595.707	365.85
596.128	365.85
596.549	279.26
596.97	377.56
597.39	300.32
597.811	279.26
598.232	307.34
598.652	302.66
599.073	314.36
599.494	321.38
599.914	307.34
600.334	297.98
600.755	295.64
601.175	356.49
601.595	295.64
602.015	297.98
602.436	260.53
602.856	426.71
603.276	274.57
603.696	347.13
604.115	316.7
604.535	349.47
604.955	361.17
605.375	342.45
605.794	297.98
606.214	288.62
606.634	276.91
607.053	333.09
607.473	337.77
607.892	354.15
608.311	335.43
608.731	328.41
609.15	272.23
609.569	326.07
609.988	312.02
610.407	321.38
610.826	316.7
611.245	307.34
611.664	312.02
612.083	248.83
612.501	347.13
612.92	312.02
613.339	372.88
613.757	305
614.176	319.04
614.594	297.98
615.013	309.68
615.431	269.89
615.85	323.73
616.268	344.79
616.686	283.94
617.104	316.7
617.522	297.98
617.94	389.26
618.358	302.66
618.776	389.26
619.194	326.07
619.612	354.15
620.03	295.64
620.447	347.13
620.865	248.83
621.282	335.43
621.7	255.85
622.117	286.28
622.535	363.51
622.952	281.6
623.369	316.7
623.787	305
624.204	337.77
624.621	312.02
625.038	363.51
625.455	330.75
625.872	337.77
626.289	335.43
626.706	323.73
627.123	274.57
627.539	319.04
627.956	335.43
628.373	326.07
628.789	216.06
629.206	286.28
629.622	340.11
630.038	232.44
630.455	288.62
630.871	232.44
631.287	286.28
631.703	351.81
632.12	326.07
632.536	391.6
632.952	297.98
633.368	342.45
633.783	347.13
634.199	335.43
634.615	335.43
635.031	326.07
635.446	305
635.862	255.85
636.277	344.79
636.693	274.57
637.108	260.53
637.524	290.96
637.939	323.73
638.354	326.07
638.77	403.3
639.185	340.11
639.6	316.7
640.015	328.41
640.43	326.07
640.845	326.07
641.259	379.9
641.674	307.34
642.089	307.34
642.504	372.88
642.918	274.57
643.333	248.83
643.747	316.7
644.162	312.02
644.576	382.24
644.991	290.96
645.405	295.64
645.819	293.3
646.233	384.58
646.647	340.11
647.061	265.21
647.475	342.45
647.889	351.81
648.303	377.56
648.717	333.09
649.131	314.36
649.545	356.49
649.958	305
650.372	319.04
650.785	286.28
651.199	248.83
651.612	307.34
652.026	300.32
652.439	382.24
652.852	276.91
653.266	314.36
653.679	260.53
654.092	340.11
654.505	312.02
654.918	300.32
655.331	314.36
655.744	274.57
656.156	314.36
656.569	384.58
656.982	302.66
657.394	305
657.807	370.54
658.22	342.45
658.632	326.07
659.044	305
659.457	328.41
659.869	309.68
660.281	295.64
660.693	265.21
661.106	281.6
661.518	316.7
661.93	297.98
662.342	244.15
662.754	286.28
663.165	312.02
663.577	265.21
663.989	265.21
664.401	199.68
664.812	323.73
665.224	319.04
665.635	328.41
666.047	333.09
666.458	305
666.869	309.68
667.281	302.66
667.692	335.43
668.103	305
668.514	347.13
668.925	293.3
669.336	305
669.747	288.62
670.158	398.62
670.569	335.43
670.979	281.6
671.39	333.09
671.801	288.62
672.211	356.49
672.622	297.98
673.032	340.11
673.443	323.73
673.853	283.94
674.263	344.79
674.674	297.98
675.084	305
675.494	272.23
675.904	267.55
676.314	321.38
676.724	307.34
677.134	290.96
677.544	400.96
677.953	300.32
678.363	305
678.773	302.66
679.182	274.57
679.592	316.7
680.001	330.75
680.411	258.19
680.82	351.81
681.23	295.64
681.639	335.43
682.048	272.23
682.457	347.13
682.866	347.13
683.275	262.87
683.684	326.07
684.093	330.75
684.502	330.75
684.911	391.6
685.32	302.66
685.728	312.02
686.137	356.49
686.546	319.04
686.954	274.57
687.363	309.68
687.771	319.04
688.179	335.43
688.588	316.7
688.996	276.91
689.404	368.2
689.812	307.34
690.22	302.66
690.628	241.81
691.036	347.13
691.444	375.22
691.852	321.38
692.26	333.09
692.667	218.4
693.075	260.53
693.483	297.98
693.89	314.36
694.298	370.54
694.705	286.28
695.112	349.47
695.52	316.7
695.927	333.09
696.334	305
696.741	295.64
697.148	365.85
697.555	349.47
697.962	319.04
698.369	319.04
698.776	314.36
699.183	302.66
699.59	300.32
699.996	302.66
700.403	363.51
700.81	300.32
701.216	328.41
701.623	297.98
702.029	337.77
702.435	251.17
702.842	265.21
703.248	316.7
703.654	241.81
704.06	330.75
704.466	269.89
704.872	295.64
705.278	293.3
705.684	363.51
706.09	319.04
706.496	340.11
706.901	328.41
707.307	295.64
707.712	321.38
708.118	326.07
708.523	248.83
708.929	302.66
709.334	393.94
709.74	305
710.145	344.79
710.55	267.55
710.955	230.1
711.36	265.21
711.765	300.32
712.17	349.47
712.575	361.17
712.98	801.19
713.385	351.81
713.789	316.7
714.194	314.36
714.599	314.36
715.003	319.04
715.408	361.17
715.812	330.75
716.217	337.77
716.621	295.64
717.025	386.92
717.429	267.55
717.833	239.47
718.238	302.66
718.642	323.73
719.046	262.87
719.449	365.85
719.853	314.36
720.257	393.94
720.661	328.41
721.065	283.94
721.468	377.56
721.872	290.96
722.275	302.66
722.679	335.43
723.082	323.73
723.485	295.64
723.889	274.57
724.292	333.09
724.695	312.02
725.098	361.17
725.501	248.83
725.904	276.91
726.307	290.96
726.71	276.91
727.113	314.36
727.516	351.81
727.918	309.68
728.321	279.26
728.724	305
729.126	323.73
729.529	276.91
729.931	321.38
730.333	326.07
730.736	333.09
731.138	351.81
731.54	281.6
731.942	262.87
732.344	321.38
732.746	281.6
733.148	314.36
733.55	302.66
733.952	246.49
734.354	295.64
734.756	255.85
735.157	365.85
735.559	248.83
735.96	286.28
736.362	319.04
736.763	347.13
737.165	297.98
737.566	370.54
737.967	253.51
738.368	382.24
738.77	330.75
739.171	316.7
739.572	267.55
739.973	312.02
740.374	321.38
740.774	290.96
741.175	312.02
741.576	305
741.977	337.77
742.377	351.81
742.778	307.34
743.178	295.64
743.579	305
743.979	335.43
744.379	267.55
744.78	321.38
745.18	286.28
745.58	328.41
745.98	326.07
746.38	347.13
746.78	361.17
747.18	295.64
747.58	368.2
747.98	368.2
748.38	269.89
748.779	248.83
749.179	290.96
749.578	281.6
749.978	342.45
750.377	293.3
750.777	305
751.176	293.3
751.575	297.98
751.975	347.13
752.374	314.36
752.773	267.55
753.172	295.64
753.571	340.11
753.97	288.62
754.369	290.96
754.768	253.51
755.166	225.42
755.565	290.96
755.964	326.07
756.362	288.62
756.761	302.66
757.159	269.89
757.558	302.66
757.956	363.51
758.354	293.3
758.753	295.64
759.151	269.89
759.549	281.6
759.947	358.83
760.345	281.6
760.743	290.96
761.141	321.38
761.539	316.7
761.936	328.41
762.334	293.3
762.732	279.26
763.129	300.32
763.527	335.43
763.924	340.11
764.322	351.81
764.719	349.47
765.117	312.02
765.514	316.7
765.911	295.64
766.308	234.78
766.705	300.32
767.102	309.68
767.499	302.66
767.896	276.91
768.293	297.98
768.69	302.66
769.086	312.02
769.483	323.73
769.88	314.36
770.276	330.75
770.673	295.64
771.069	370.54
771.466	323.73
771.862	323.73
772.258	290.96
772.654	300.32
773.05	300.32
773.447	272.23
773.843	361.17
774.239	297.98
774.634	283.94
775.03	297.98
775.426	330.75
775.822	328.41
776.218	307.34
776.613	319.04
777.009	246.49
777.404	323.73
777.8	330.75
778.195	260.53
778.59	302.66
778.986	342.45
779.381	211.38
779.776	267.55
780.171	293.3
780.566	342.45
780.961	319.04
781.356	290.96
781.751	281.6
782.146	286.28
782.54	300.32
782.935	349.47
783.33	344.79
783.724	307.34
784.119	328.41
784.513	326.07
784.908	305
785.302	288.62
785.696	326.07
786.09	297.98
786.485	251.17
786.879	290.96
787.273	312.02
787.667	330.75
788.061	316.7
788.454	321.38
788.848	340.11
789.242	333.09
789.636	319.04
790.029	354.15
790.423	375.22
790.816	300.32
791.21	370.54
791.603	297.98
791.997	288.62
792.39	349.47
792.783	241.81
793.176	323.73
793.569	279.26
793.962	340.11
794.355	286.28
794.748	344.79
795.141	314.36
795.534	377.56
795.927	319.04
796.319	272.23
796.712	283.94
797.105	295.64
797.497	305
797.89	372.88
798.282	316.7
798.674	262.87
799.067	337.77
799.459	323.73
799.851	307.34
800.243	312.02
800.635	274.57
801.027	293.3
801.419	267.55
801.811	372.88
802.203	375.22
802.594	290.96
802.986	379.9
803.378	314.36
803.769	340.11
804.161	237.13
804.552	283.94
804.944	319.04
805.335	276.91
805.726	300.32
806.118	328.41
806.509	272.23
806.9	297.98
807.291	365.85
807.682	293.3
808.073	363.51
808.464	377.56
808.855	260.53
809.245	265.21
809.636	290.96
810.027	274.57
810.417	300.32
810.808	363.51
811.198	393.94
811.589	344.79
811.979	281.6
812.369	307.34
812.759	283.94
813.15	293.3
813.54	344.79
813.93	274.57
814.32	335.43
814.71	305
815.1	347.13
815.489	349.47
815.879	286.28
816.269	297.98
816.658	276.91
817.048	326.07
817.438	365.85
817.827	393.94
818.216	316.7
818.606	300.32
818.995	269.89
819.384	255.85
819.773	316.7
820.163	340.11
820.552	330.75
820.941	274.57
821.33	347.13
821.718	335.43
822.107	305
822.496	305
822.885	272.23
823.273	307.34
823.662	232.44
824.05	319.04
824.439	361.17
824.827	302.66
825.216	255.85
825.604	307.34
825.992	312.02
826.38	244.15
826.768	220.74
827.156	323.73
827.544	312.02
827.932	290.96
828.32	274.57
828.708	262.87
829.096	276.91
829.483	309.68
829.871	344.79
830.259	290.96
830.646	302.66
831.034	347.13
831.421	349.47
831.808	335.43
832.196	288.62
832.583	305
832.97	307.34
833.357	262.87
833.744	326.07
834.131	354.15
834.518	342.45
834.905	316.7
835.292	326.07
835.678	293.3
836.065	335.43
836.452	262.87
836.838	386.92
837.225	269.89
837.611	347.13
837.998	288.62
838.384	330.75
838.77	244.15
839.157	260.53
839.543	227.76
839.929	326.07
840.315	356.49
840.701	246.49
841.087	302.66
841.473	314.36
841.858	330.75
842.244	297.98
842.63	305
843.015	319.04
843.401	361.17
843.787	333.09
844.172	302.66
844.557	333.09
844.943	265.21
845.328	370.54
845.713	323.73
846.098	305
846.483	347.13
846.868	319.04
847.253	305
847.638	267.55
848.023	333.09
848.408	255.85
848.793	340.11
849.177	351.81
849.562	319.04
849.947	253.51
850.331	305
850.715	309.68
851.1	398.62
851.484	297.98
851.868	279.26
852.253	323.73
852.637	326.07
853.021	305
853.405	274.57
853.789	293.3
854.173	295.64
854.557	321.38
854.94	356.49
855.324	375.22
855.708	314.36
856.091	309.68
856.475	281.6
856.858	283.94
857.242	312.02
857.625	305
858.009	297.98
858.392	363.51
858.775	276.91
859.158	276.91
859.541	347.13
859.924	316.7
860.307	358.83
860.69	361.17
861.073	314.36
861.456	297.98
861.838	340.11
862.221	337.77
862.604	286.28
862.986	342.45
863.369	279.26
863.751	356.49
864.133	283.94
864.516	323.73
864.898	314.36
865.28	312.02
865.662	326.07
866.044	365.85
866.426	337.77
866.808	272.23
867.19	361.17
867.572	391.6
867.954	293.3
868.336	288.62
868.717	274.57
869.099	272.23
869.48	382.24
869.862	319.04
870.243	246.49
870.625	281.6
871.006	326.07
871.387	302.66
871.768	312.02
872.149	309.68
872.53	293.3
872.911	354.15
873.292	356.49
873.673	361.17
874.054	260.53
874.435	319.04
874.815	363.51
875.196	349.47
875.577	281.6
875.957	358.83
876.338	326.07
876.718	297.98
877.098	347.13
877.479	251.17
877.859	314.36
878.239	344.79
878.619	326.07
878.999	349.47
879.379	377.56
879.759	389.26
880.139	316.7
880.519	302.66
880.898	351.81
881.278	309.68
881.658	417.35
882.037	330.75
882.417	342.45
882.796	276.91
883.176	344.79
883.555	356.49
883.934	248.83
884.313	272.23
884.693	337.77
885.072	293.3
885.451	335.43
885.83	258.19
886.209	335.43
886.587	283.94
886.966	276.91
887.345	312.02
887.724	347.13
888.102	251.17
888.481	347.13
888.859	305
889.238	305
889.616	246.49
889.994	321.38
890.373	330.75
890.751	290.96
891.129	267.55
891.507	328.41
891.885	328.41
892.263	323.73
892.641	302.66
893.019	314.36
893.396	321.38
893.774	349.47
894.152	365.85
894.529	262.87
894.907	356.49
895.284	314.36
895.662	234.78
896.039	335.43
896.416	251.17
896.794	297.98
897.171	300.32
897.548	269.89
897.925	344.79
898.302	283.94
898.679	293.3
899.056	269.89
899.433	312.02
899.809	307.34
900.186	370.54
900.563	314.36
900.939	269.89
901.316	290.96
901.692	255.85
902.069	323.73
902.445	337.77
902.821	279.26
903.197	204.36
903.574	300.32
903.95	276.91
904.326	358.83
904.702	241.81
905.078	293.3
905.454	274.57
905.829	333.09
906.205	305
906.581	297.98
906.956	319.04
907.332	295.64
907.707	286.28
908.083	365.85
908.458	316.7
908.833	340.11
909.209	305
909.584	328.41
909.959	358.83
910.334	335.43
910.709	305
911.084	300.32
911.459	316.7
911.834	333.09
912.209	326.07
912.583	422.03
912.958	321.38
913.333	340.11
913.707	342.45
914.082	316.7
914.456	358.83
914.83	272.23
915.205	272.23
915.579	333.09
915.953	269.89
916.327	230.1
916.701	326.07
917.075	368.2
917.449	281.6
917.823	321.38
918.197	295.64
918.571	307.34
918.944	328.41
919.318	316.7
919.692	314.36
920.065	314.36
920.438	265.21
920.812	349.47
921.185	265.21
921.558	328.41
921.932	319.04
922.305	309.68
922.678	239.47
923.051	290.96
923.424	330.75
923.797	368.2
924.17	302.66
924.542	309.68
924.915	326.07
925.288	365.85
925.661	347.13
926.033	328.41
926.406	312.02
926.778	358.83
927.15	251.17
927.523	326.07
927.895	269.89
928.267	281.6
928.639	319.04
929.011	312.02
929.383	368.2
929.755	354.15
930.127	382.24
930.499	297.98
930.871	347.13
931.242	323.73
931.614	297.98
931.986	405.64
932.357	391.6
932.729	326.07
933.1	356.49
933.471	297.98
933.843	314.36
934.214	340.11
934.585	260.53
934.956	307.34
935.327	274.57
935.698	281.6
936.069	319.04
936.44	321.38
936.811	368.2
937.182	309.68
937.552	279.26
937.923	302.66
938.293	300.32
938.664	300.32
939.034	312.02
939.405	363.51
939.775	333.09
940.145	326.07
940.516	335.43
940.886	389.26
941.256	335.43
941.626	342.45
941.996	279.26
942.366	335.43
942.735	295.64
943.105	354.15
943.475	267.55
943.845	302.66
944.214	340.11
944.584	342.45
944.953	279.26
945.323	314.36
945.692	281.6
946.061	351.81
946.43	314.36
946.8	255.85
947.169	305
947.538	312.02
947.907	319.04
948.276	347.13
948.645	305
949.013	258.19
949.382	333.09
949.751	316.7
950.119	288.62
950.488	333.09
950.857	248.83
951.225	351.81
951.593	344.79
951.962	283.94
952.33	319.04
952.698	314.36
953.066	272.23
953.434	358.83
953.802	272.23
954.17	288.62
954.538	426.71
954.906	279.26
955.274	305
955.642	340.11
956.009	279.26
956.377	319.04
956.744	340.11
957.112	262.87
957.479	272.23
957.847	297.98
958.214	335.43
958.581	351.81
958.948	326.07
959.315	391.6
959.683	288.62
960.05	265.21
960.416	337.77
960.783	279.26
961.15	297.98
961.517	316.7
961.884	281.6
962.25	265.21
962.617	293.3
962.983	340.11
963.35	316.7
963.716	302.66
964.082	361.17
964.449	365.85
964.815	323.73
965.181	368.2
965.547	276.91
965.913	234.78
966.279	330.75
966.645	290.96
967.011	286.28
967.377	267.55
967.742	269.89
968.108	319.04
968.474	265.21
968.839	295.64
969.205	337.77
969.57	368.2
969.935	330.75
970.301	272.23
970.666	244.15
971.031	260.53
971.396	281.6
971.761	370.54
972.126	283.94
972.491	274.57
972.856	293.3
973.221	349.47
973.586	272.23
973.95	337.77
974.315	295.64
974.679	300.32
975.044	272.23
975.408	209.04
975.773	274.57
976.137	290.96
976.501	358.83
976.866	344.79
977.23	314.36
977.594	305
977.958	321.38
978.322	267.55
978.686	326.07
979.049	253.51
979.413	258.19
979.777	319.04
980.141	337.77
980.504	344.79
980.868	302.66
981.231	389.26
981.595	288.62
981.958	297.98
982.321	312.02
982.684	286.28
983.048	323.73
983.411	293.3
983.774	307.34
984.137	351.81
984.5	295.64
984.862	319.04
985.225	319.04
985.588	293.3
985.951	319.04
986.313	323.73
986.676	316.7
987.038	354.15
987.401	323.73
987.763	283.94
988.125	314.36
988.488	316.7
988.85	307.34
989.212	328.41
989.574	295.64
989.936	337.77
990.298	340.11
990.66	326.07
991.022	297.98
991.383	314.36
991.745	288.62
992.107	286.28
992.468	274.57
992.83	302.66
993.191	300.32
993.553	312.02
993.914	333.09
994.275	281.6
994.637	281.6
994.998	302.66
995.359	342.45
995.72	262.87
996.081	288.62
996.442	279.26
996.803	309.68
997.163	328.41
997.524	297.98
997.885	302.66
998.245	335.43
998.606	288.62
998.966	340.11
999.327	330.75
999.687	295.64
1000.047	288.62
1000.408	321.38
1000.768	365.85
1001.128	290.96
1001.488	323.73
1001.848	302.66
1002.208	295.64
1002.568	307.34
1002.927	368.2
1003.287	262.87
1003.647	305
1004.007	319.04
1004.366	335.43
1004.726	314.36
1005.085	330.75
1005.444	305
1005.804	279.26
1006.163	265.21
1006.522	276.91
1006.881	295.64
1007.24	347.13
1007.599	344.79
1007.958	309.68
1008.317	351.81
1008.676	328.41
1009.035	340.11
1009.393	283.94
1009.752	335.43
1010.111	281.6
1010.469	279.26
1010.828	314.36
1011.186	272.23
1011.544	279.26
1011.903	326.07
1012.261	293.3
1012.619	295.64
1012.977	326.07
1013.335	307.34
1013.693	316.7
1014.051	305
1014.409	333.09
1014.767	354.15
1015.124	335.43
1015.482	344.79
1015.84	300.32
1016.197	347.13
1016.555	377.56
1016.912	326.07
1017.269	293.3
1017.627	302.66
1017.984	326.07
1018.341	300.32
1018.698	316.7
1019.055	230.1
1019.412	286.28
1019.769	260.53
1020.126	241.81
1020.483	297.98
1020.84	305
1021.196	384.58
1021.553	372.88
1021.909	297.98
1022.266	251.17
1022.622	323.73
1022.979	232.44
1023.335	288.62
1023.691	293.3
1024.047	312.02
1024.404	328.41
1024.76	349.47
1025.116	335.43
1025.472	342.45
1025.827	305
1026.183	297.98
1026.539	281.6
1026.895	288.62
1027.25	328.41
1027.606	305
1027.961	297.98
1028.317	335.43
1028.672	269.89
1029.028	293.3
1029.383	248.83
1029.738	316.7
1030.093	330.75
1030.448	391.6
1030.803	267.55
1031.158	314.36
1031.513	302.66
1031.868	300.32
1032.223	340.11
1032.577	379.9
1032.932	319.04
1033.287	309.68
1033.641	312.02
1033.996	286.28
1034.35	253.51
1034.704	260.53
1035.059	293.3
1035.413	300.32
1035.767	300.32
1036.121	300.32
