Data from Al_FLMS009871__1238__16-44-33-674.txt Node

Date: Fri Mar 08 16:44:33 CST 2024
User: pe5414po
Spectrometer: FLMS00987
Trigger mode: 0
Integration Time (sec): 1.000000E-1
Scans to average: 1
Electric dark correction enabled: true
Nonlinearity correction enabled: false
Boxcar width: 0
XAxis mode: Wavelengths
Number of Pixels in Spectrum: 2048
>>>>>Begin Spectral Data<<<<<
188.938	-87.62
189.409	-87.62
189.879	-87.62
190.349	-54.86
190.819	-99.33
191.29	-96.99
191.76	-71.24
192.23	-57.2
192.7	-61.88
193.17	-87.62
193.64	-73.58
194.109	-40.81
194.579	-38.47
195.049	-78.26
195.519	48.13
195.988	41.11
196.458	76.21
196.927	111.32
197.397	99.62
197.866	92.6
198.336	137.07
198.805	130.05
199.274	181.54
199.744	151.11
200.213	190.9
200.682	216.65
201.151	214.31
201.62	226.01
202.089	214.31
202.558	272.82
203.027	247.07
203.495	275.16
203.964	265.8
204.433	218.99
204.902	270.48
205.37	216.65
205.839	272.82
206.307	338.35
206.776	366.44
207.244	275.16
207.712	293.88
208.181	293.88
208.649	289.2
209.117	317.29
209.585	254.09
210.053	300.91
210.521	310.27
210.989	307.93
211.457	265.8
211.925	270.48
212.393	303.25
212.861	256.43
213.328	251.75
213.796	291.54
214.264	233.03
214.731	277.5
215.199	254.09
215.666	307.93
216.133	336.01
216.601	265.8
217.068	268.14
217.535	279.84
218.003	261.12
218.47	298.56
218.937	244.73
219.404	244.73
219.871	298.56
220.338	312.61
220.805	237.71
221.271	265.8
221.738	279.84
222.205	237.71
222.671	244.73
223.138	258.78
223.605	296.22
224.071	251.75
224.538	272.82
225.004	251.75
225.47	249.41
225.937	249.41
226.403	242.39
226.869	289.2
227.335	289.2
227.801	277.5
228.267	263.46
228.733	326.65
229.199	200.26
229.665	284.52
230.131	249.41
230.597	289.2
231.062	279.84
231.528	263.46
231.994	300.91
232.459	240.05
232.925	307.93
233.39	233.03
233.856	303.25
234.321	218.99
234.786	226.01
235.252	317.29
235.717	251.75
236.182	300.91
236.647	305.59
237.112	326.65
237.577	270.48
238.042	261.12
238.507	237.71
238.972	371.12
239.436	237.71
239.901	345.38
240.366	289.2
240.83	328.99
241.295	254.09
241.76	282.18
242.224	293.88
242.688	270.48
243.153	237.71
243.617	293.88
244.081	247.07
244.545	357.08
245.01	312.61
245.474	272.82
245.938	310.27
246.402	333.67
246.866	279.84
247.33	268.14
247.793	265.8
248.257	317.29
248.721	291.54
249.185	279.84
249.648	244.73
250.112	282.18
250.575	242.39
251.039	261.12
251.502	275.16
251.965	200.26
252.429	289.2
252.892	256.43
253.355	270.48
253.818	268.14
254.281	319.63
254.744	251.75
255.207	230.69
255.67	279.84
256.133	333.67
256.596	265.8
257.059	237.71
257.522	272.82
257.984	303.25
258.447	296.22
258.909	319.63
259.372	272.82
259.834	275.16
260.297	296.22
260.759	286.86
261.221	284.52
261.684	214.31
262.146	263.46
262.608	249.41
263.07	286.86
263.532	282.18
263.994	354.74
264.456	289.2
264.918	296.22
265.38	305.59
265.842	321.97
266.303	214.31
266.765	312.61
267.227	300.91
267.688	291.54
268.15	333.67
268.611	321.97
269.072	305.59
269.534	270.48
269.995	247.07
270.456	338.35
270.918	310.27
271.379	286.86
271.84	307.93
272.301	282.18
272.762	284.52
273.223	317.29
273.684	258.78
274.144	289.2
274.605	242.39
275.066	319.63
275.527	326.65
275.987	300.91
276.448	279.84
276.908	256.43
277.369	251.75
277.829	284.52
278.289	331.33
278.75	251.75
279.21	319.63
279.67	354.74
280.13	286.86
280.59	254.09
281.05	293.88
281.51	247.07
281.97	378.14
282.43	314.95
282.89	321.97
283.35	258.78
283.809	338.35
284.269	300.91
284.729	277.5
285.188	328.99
285.648	314.95
286.107	265.8
286.567	303.25
287.026	300.91
287.485	265.8
287.944	282.18
288.404	305.59
288.863	296.22
289.322	336.01
289.781	357.08
290.24	270.48
290.699	333.67
291.158	338.35
291.616	303.25
292.075	251.75
292.534	303.25
292.992	314.95
293.451	331.33
293.91	254.09
294.368	270.48
294.827	314.95
295.285	305.59
295.743	319.63
296.202	340.69
296.66	317.29
297.118	291.54
297.576	258.78
298.034	336.01
298.492	328.99
298.95	321.97
299.408	275.16
299.866	300.91
300.324	373.46
300.781	307.93
301.239	277.5
301.697	291.54
302.154	307.93
302.612	336.01
303.069	293.88
303.527	263.46
303.984	289.2
304.441	326.65
304.899	256.43
305.356	291.54
305.813	293.88
306.27	312.61
306.727	336.01
307.184	305.59
307.641	303.25
308.098	249.41
308.555	277.5
309.012	321.97
309.468	347.72
309.925	277.5
310.382	338.35
310.838	291.54
311.295	272.82
311.751	284.52
312.208	343.03
312.664	289.2
313.12	279.84
313.577	284.52
314.033	343.03
314.489	291.54
314.945	289.2
315.401	350.06
315.857	347.72
316.313	268.14
316.769	340.69
317.225	340.69
317.681	277.5
318.136	289.2
318.592	314.95
319.048	296.22
319.503	328.99
319.959	314.95
320.414	317.29
320.869	286.86
321.325	347.72
321.78	336.01
322.235	310.27
322.691	293.88
323.146	263.46
323.601	303.25
324.056	289.2
324.511	303.25
324.966	300.91
325.421	340.69
325.875	305.59
326.33	261.12
326.785	286.86
327.24	279.84
327.694	305.59
328.149	375.8
328.603	303.25
329.058	361.76
329.512	350.06
329.966	314.95
330.421	317.29
330.875	310.27
331.329	385.16
331.783	296.22
332.237	300.91
332.691	317.29
333.145	293.88
333.599	242.39
334.053	282.18
334.507	317.29
334.96	326.65
335.414	338.35
335.868	331.33
336.321	303.25
336.775	265.8
337.228	317.29
337.682	251.75
338.135	328.99
338.588	338.35
339.042	380.48
339.495	345.38
339.948	368.78
340.401	279.84
340.854	317.29
341.307	235.37
341.76	289.2
342.213	361.76
342.666	303.25
343.119	368.78
343.571	331.33
344.024	312.61
344.477	291.54
344.929	324.31
345.382	305.59
345.834	300.91
346.287	291.54
346.739	326.65
347.191	347.72
347.644	291.54
348.096	307.93
348.548	321.97
349	279.84
349.452	265.8
349.904	251.75
350.356	261.12
350.808	258.78
351.26	336.01
351.711	371.12
352.163	326.65
352.615	336.01
353.066	291.54
353.518	321.97
353.969	352.4
354.421	298.56
354.872	228.35
355.324	312.61
355.775	343.03
356.226	347.72
356.677	298.56
357.128	305.59
357.579	314.95
358.03	314.95
358.481	298.56
358.932	303.25
359.383	310.27
359.834	272.82
360.285	305.59
360.735	350.06
361.186	324.31
361.637	364.1
362.087	326.65
362.538	296.22
362.988	338.35
363.438	366.44
363.889	289.2
364.339	284.52
364.789	258.78
365.239	293.88
365.689	326.65
366.139	317.29
366.589	263.46
367.039	389.85
367.489	291.54
367.939	289.2
368.389	242.39
368.839	293.88
369.288	310.27
369.738	331.33
370.187	331.33
370.637	233.03
371.086	282.18
371.536	364.1
371.985	347.72
372.434	277.5
372.884	284.52
373.333	265.8
373.782	345.38
374.231	279.84
374.68	328.99
375.129	254.09
375.578	291.54
376.027	270.48
376.475	307.93
376.924	364.1
377.373	340.69
377.822	396.87
378.27	307.93
378.719	307.93
379.167	275.16
379.616	319.63
380.064	296.22
380.512	284.52
380.961	326.65
381.409	291.54
381.857	387.5
382.305	338.35
382.753	319.63
383.201	279.84
383.649	345.38
384.097	300.91
384.545	298.56
384.992	293.88
385.44	350.06
385.888	312.61
386.335	312.61
386.783	303.25
387.231	300.91
387.678	254.09
388.125	286.86
388.573	347.72
389.02	268.14
389.467	303.25
389.914	307.93
390.362	277.5
390.809	293.88
391.256	375.8
391.703	371.12
392.15	359.42
392.596	333.67
393.043	310.27
393.49	293.88
393.937	380.48
394.383	314.95
394.83	319.63
395.276	354.74
395.723	300.91
396.169	343.03
396.616	361.76
397.062	326.65
397.508	326.65
397.954	359.42
398.401	343.03
398.847	310.27
399.293	293.88
399.739	340.69
400.185	371.12
400.631	361.76
401.076	359.42
401.522	296.22
401.968	296.22
402.414	319.63
402.859	328.99
403.305	277.5
403.75	314.95
404.196	338.35
404.641	326.65
405.086	307.93
405.532	338.35
405.977	282.18
406.422	392.19
406.867	293.88
407.312	326.65
407.757	284.52
408.202	336.01
408.647	359.42
409.092	324.31
409.537	387.5
409.982	300.91
410.426	321.97
410.871	343.03
411.316	371.12
411.76	305.59
412.205	364.1
412.649	282.18
413.093	324.31
413.538	291.54
413.982	305.59
414.426	261.12
414.87	364.1
415.314	314.95
415.758	378.14
416.202	296.22
416.646	298.56
417.09	331.33
417.534	357.08
417.978	254.09
418.421	300.91
418.865	293.88
419.309	291.54
419.752	317.29
420.196	303.25
420.639	340.69
421.083	328.99
421.526	303.25
421.969	298.56
422.412	282.18
422.856	333.67
423.299	275.16
423.742	310.27
424.185	364.1
424.628	340.69
425.071	314.95
425.513	300.91
425.956	326.65
426.399	289.2
426.842	371.12
427.284	300.91
427.727	340.69
428.169	373.46
428.612	382.82
429.054	324.31
429.497	265.8
429.939	371.12
430.381	279.84
430.823	293.88
431.265	333.67
431.707	357.08
432.149	296.22
432.591	331.33
433.033	375.8
433.475	343.03
433.917	364.1
434.359	296.22
434.8	300.91
435.242	340.69
435.684	403.89
436.125	354.74
436.567	310.27
437.008	293.88
437.449	272.82
437.891	336.01
438.332	331.33
438.773	387.5
439.214	291.54
439.656	382.82
440.097	364.1
440.538	305.59
440.978	305.59
441.419	275.16
441.86	350.06
442.301	275.16
442.742	305.59
443.182	352.4
443.623	347.72
444.063	291.54
444.504	291.54
444.944	300.91
445.385	319.63
445.825	331.33
446.265	345.38
446.706	289.2
447.146	331.33
447.586	303.25
448.026	352.4
448.466	345.38
448.906	312.61
449.346	338.35
449.786	357.08
450.225	357.08
450.665	317.29
451.105	319.63
451.544	359.42
451.984	293.88
452.424	275.16
452.863	312.61
453.302	270.48
453.742	366.44
454.181	375.8
454.62	343.03
455.059	361.76
455.499	336.01
455.938	275.16
456.377	293.88
456.816	352.4
457.254	254.09
457.693	364.1
458.132	300.91
458.571	268.14
459.01	300.91
459.448	256.43
459.887	382.82
460.325	359.42
460.764	324.31
461.202	326.65
461.641	357.08
462.079	279.84
462.517	333.67
462.955	319.63
463.393	354.74
463.832	345.38
464.27	326.65
464.708	282.18
465.145	293.88
465.583	265.8
466.021	312.61
466.459	336.01
466.897	317.29
467.334	310.27
467.772	328.99
468.209	328.99
468.647	303.25
469.084	336.01
469.522	354.74
469.959	251.75
470.396	321.97
470.833	324.31
471.271	336.01
471.708	326.65
472.145	345.38
472.582	333.67
473.019	352.4
473.456	345.38
473.892	312.61
474.329	284.52
474.766	272.82
475.202	375.8
475.639	298.56
476.076	319.63
476.512	347.72
476.949	317.29
477.385	350.06
477.821	312.61
478.258	345.38
478.694	368.78
479.13	350.06
479.566	319.63
480.002	319.63
480.438	298.56
480.874	305.59
481.31	385.16
481.746	317.29
482.181	345.38
482.617	345.38
483.053	324.31
483.488	331.33
483.924	340.69
484.36	312.61
484.795	336.01
485.23	300.91
485.666	361.76
486.101	268.14
486.536	314.95
486.971	261.12
487.407	279.84
487.842	296.22
488.277	333.67
488.712	352.4
489.146	303.25
489.581	298.56
490.016	319.63
490.451	300.91
490.885	324.31
491.32	286.86
491.755	317.29
492.189	340.69
492.624	326.65
493.058	328.99
493.492	244.73
493.927	368.78
494.361	366.44
494.795	382.82
495.229	256.43
495.663	345.38
496.097	272.82
496.531	326.65
496.965	298.56
497.399	352.4
497.833	326.65
498.266	279.84
498.7	387.5
499.134	392.19
499.567	338.35
500.001	289.2
500.434	279.84
500.868	347.72
501.301	293.88
501.734	293.88
502.168	298.56
502.601	275.16
503.034	270.48
503.467	347.72
503.9	399.21
504.333	312.61
504.766	296.22
505.199	331.33
505.632	303.25
506.064	300.91
506.497	268.14
506.93	328.99
507.362	305.59
507.795	193.24
508.227	293.88
508.66	380.48
509.092	293.88
509.524	338.35
509.956	408.57
510.389	277.5
510.821	385.16
511.253	254.09
511.685	350.06
512.117	371.12
512.549	338.35
512.981	303.25
513.412	312.61
513.844	366.44
514.276	328.99
514.707	331.33
515.139	324.31
515.571	282.18
516.002	303.25
516.433	364.1
516.865	291.54
517.296	380.48
517.727	336.01
518.159	324.31
518.59	293.88
519.021	317.29
519.452	324.31
519.883	312.61
520.314	324.31
520.744	291.54
521.175	321.97
521.606	291.54
522.037	268.14
522.467	324.31
522.898	340.69
523.328	324.31
523.759	307.93
524.189	343.03
524.62	347.72
525.05	352.4
525.48	389.85
525.91	382.82
526.341	296.22
526.771	293.88
527.201	371.12
527.631	272.82
528.061	303.25
528.49	343.03
528.92	361.76
529.35	296.22
529.78	307.93
530.209	282.18
530.639	333.67
531.068	300.91
531.498	347.72
531.927	350.06
532.357	336.01
532.786	352.4
533.215	317.29
533.644	321.97
534.074	272.82
534.503	279.84
534.932	296.22
535.361	303.25
535.79	305.59
536.218	303.25
536.647	345.38
537.076	319.63
537.505	296.22
537.933	352.4
538.362	300.91
538.79	331.33
539.219	289.2
539.647	357.08
540.076	296.22
540.504	331.33
540.932	314.95
541.36	303.25
541.788	293.88
542.217	338.35
542.645	328.99
543.073	338.35
543.5	300.91
543.928	268.14
544.356	359.42
544.784	317.29
545.211	317.29
545.639	312.61
546.067	319.63
546.494	385.16
546.922	340.69
547.349	317.29
547.776	305.59
548.204	350.06
548.631	317.29
549.058	305.59
549.485	331.33
549.912	328.99
550.339	328.99
550.766	331.33
551.193	305.59
551.62	328.99
552.047	307.93
552.474	345.38
552.9	305.59
553.327	403.89
553.754	354.74
554.18	293.88
554.607	298.56
555.033	324.31
555.459	284.52
555.886	321.97
556.312	352.4
556.738	321.97
557.164	347.72
557.59	324.31
558.016	333.67
558.442	324.31
558.868	286.86
559.294	321.97
559.72	375.8
560.145	361.76
560.571	291.54
560.997	314.95
561.422	338.35
561.848	392.19
562.273	338.35
562.699	284.52
563.124	277.5
563.549	321.97
563.974	321.97
564.4	364.1
564.825	343.03
565.25	300.91
565.675	305.59
566.1	333.67
566.525	382.82
566.95	314.95
567.374	368.78
567.799	272.82
568.224	324.31
568.648	275.16
569.073	244.73
569.497	343.03
569.922	307.93
570.346	319.63
570.771	300.91
571.195	368.78
571.619	272.82
572.043	317.29
572.467	326.65
572.891	373.46
573.315	324.31
573.739	345.38
574.163	275.16
574.587	326.65
575.011	242.39
575.435	333.67
575.858	303.25
576.282	221.33
576.705	256.43
577.129	331.33
577.552	371.12
577.976	343.03
578.399	240.05
578.822	286.86
579.245	375.8
579.669	277.5
580.092	291.54
580.515	300.91
580.938	371.12
581.361	256.43
581.784	300.91
582.206	228.35
582.629	373.46
583.052	296.22
583.474	310.27
583.897	261.12
584.32	343.03
584.742	359.42
585.165	328.99
585.587	307.93
586.009	340.69
586.431	314.95
586.854	333.67
587.276	359.42
587.698	340.69
588.12	268.14
588.542	291.54
588.964	389.85
589.386	300.91
589.807	305.59
590.229	324.31
590.651	336.01
591.073	343.03
591.494	303.25
591.916	357.08
592.337	291.54
592.759	364.1
593.18	314.95
593.601	343.03
594.022	336.01
594.444	331.33
594.865	307.93
595.286	408.57
595.707	282.18
596.128	317.29
596.549	361.76
596.97	331.33
597.39	333.67
597.811	289.2
598.232	265.8
598.652	357.08
599.073	235.37
599.494	286.86
599.914	331.33
600.334	361.76
600.755	321.97
601.175	331.33
601.595	385.16
602.015	282.18
602.436	338.35
602.856	422.61
603.276	324.31
603.696	321.97
604.115	261.12
604.535	289.2
604.955	326.65
605.375	314.95
605.794	296.22
606.214	289.2
606.634	373.46
607.053	336.01
607.473	296.22
607.892	385.16
608.311	378.14
608.731	265.8
609.15	354.74
609.569	357.08
609.988	293.88
610.407	324.31
610.826	282.18
611.245	354.74
611.664	270.48
612.083	314.95
612.501	282.18
612.92	298.56
613.339	340.69
613.757	326.65
614.176	272.82
614.594	251.75
615.013	336.01
615.431	296.22
615.85	382.82
616.268	326.65
616.686	307.93
617.104	237.71
617.522	254.09
617.94	312.61
618.358	247.07
618.776	298.56
619.194	352.4
619.612	326.65
620.03	258.78
620.447	310.27
620.865	289.2
621.282	319.63
621.7	368.78
622.117	361.76
622.535	340.69
622.952	350.06
623.369	350.06
623.787	328.99
624.204	277.5
624.621	319.63
625.038	305.59
625.455	277.5
625.872	326.65
626.289	338.35
626.706	293.88
627.123	272.82
627.539	389.85
627.956	331.33
628.373	340.69
628.789	310.27
629.206	392.19
629.622	244.73
630.038	286.86
630.455	300.91
630.871	317.29
631.287	326.65
631.703	336.01
632.12	324.31
632.536	303.25
632.952	326.65
633.368	275.16
633.783	345.38
634.199	254.09
634.615	333.67
635.031	312.61
635.446	291.54
635.862	293.88
636.277	350.06
636.693	254.09
637.108	324.31
637.524	345.38
637.939	300.91
638.354	319.63
638.77	270.48
639.185	291.54
639.6	275.16
640.015	321.97
640.43	382.82
640.845	265.8
641.259	270.48
641.674	282.18
642.089	296.22
642.504	293.88
642.918	310.27
643.333	256.43
643.747	265.8
644.162	319.63
644.576	352.4
644.991	331.33
645.405	343.03
645.819	343.03
646.233	312.61
646.647	319.63
647.061	286.86
647.475	310.27
647.889	258.78
648.303	249.41
648.717	298.56
649.131	300.91
649.545	275.16
649.958	268.14
650.372	338.35
650.785	312.61
651.199	378.14
651.612	272.82
652.026	333.67
652.439	378.14
652.852	324.31
653.266	249.41
653.679	340.69
654.092	324.31
654.505	394.53
654.918	305.59
655.331	324.31
655.744	310.27
656.156	296.22
656.569	354.74
656.982	338.35
657.394	305.59
657.807	350.06
658.22	300.91
658.632	350.06
659.044	317.29
659.457	296.22
659.869	249.41
660.281	293.88
660.693	324.31
661.106	396.87
661.518	286.86
661.93	319.63
662.342	296.22
662.754	286.86
663.165	314.95
663.577	291.54
663.989	359.42
664.401	343.03
664.812	343.03
665.224	361.76
665.635	354.74
666.047	324.31
666.458	324.31
666.869	291.54
667.281	305.59
667.692	284.52
668.103	310.27
668.514	328.99
668.925	350.06
669.336	357.08
669.747	333.67
670.158	312.61
670.569	293.88
670.979	319.63
671.39	340.69
671.801	361.76
672.211	300.91
672.622	319.63
673.032	321.97
673.443	324.31
673.853	310.27
674.263	312.61
674.674	354.74
675.084	305.59
675.494	361.76
675.904	368.78
676.314	268.14
676.724	237.71
677.134	324.31
677.544	263.46
677.953	314.95
678.363	343.03
678.773	338.35
679.182	371.12
679.592	354.74
680.001	366.44
680.411	352.4
680.82	321.97
681.23	286.86
681.639	298.56
682.048	312.61
682.457	347.72
682.866	380.48
683.275	296.22
683.684	251.75
684.093	319.63
684.502	359.42
684.911	310.27
685.32	343.03
685.728	340.69
686.137	387.5
686.546	310.27
686.954	350.06
687.363	314.95
687.771	249.41
688.179	277.5
688.588	326.65
688.996	371.12
689.404	268.14
689.812	254.09
690.22	328.99
690.628	261.12
691.036	324.31
691.444	226.01
691.852	270.48
692.26	256.43
692.667	340.69
693.075	357.08
693.483	359.42
693.89	284.52
694.298	375.8
694.705	333.67
695.112	298.56
695.52	300.91
695.927	268.14
696.334	312.61
696.741	403.89
697.148	293.88
697.555	317.29
697.962	324.31
698.369	296.22
698.776	237.71
699.183	338.35
699.59	317.29
699.996	347.72
700.403	296.22
700.81	249.41
701.216	378.14
701.623	307.93
702.029	350.06
702.435	361.76
702.842	314.95
703.248	343.03
703.654	368.78
704.06	338.35
704.466	305.59
704.872	361.76
705.278	263.46
705.684	380.48
706.09	350.06
706.496	282.18
706.901	375.8
707.307	312.61
707.712	375.8
708.118	282.18
708.523	354.74
708.929	307.93
709.334	291.54
709.74	289.2
710.145	307.93
710.55	289.2
710.955	312.61
711.36	359.42
711.765	289.2
712.17	331.33
712.575	265.8
712.98	881.36
713.385	371.12
713.789	378.14
714.194	352.4
714.599	333.67
715.003	350.06
715.408	314.95
715.812	291.54
716.217	333.67
716.621	314.95
717.025	314.95
717.429	291.54
717.833	265.8
718.238	296.22
718.642	352.4
719.046	324.31
719.449	321.97
719.853	394.53
720.257	394.53
720.661	314.95
721.065	240.05
721.468	333.67
721.872	359.42
722.275	303.25
722.679	305.59
723.082	319.63
723.485	268.14
723.889	305.59
724.292	314.95
724.695	347.72
725.098	359.42
725.501	277.5
725.904	347.72
726.307	282.18
726.71	331.33
727.113	389.85
727.516	319.63
727.918	340.69
728.321	359.42
728.724	291.54
729.126	366.44
729.529	293.88
729.931	338.35
730.333	300.91
730.736	331.33
731.138	293.88
731.54	305.59
731.942	251.75
732.344	378.14
732.746	333.67
733.148	328.99
733.55	375.8
733.952	340.69
734.354	324.31
734.756	314.95
735.157	364.1
735.559	378.14
735.96	282.18
736.362	314.95
736.763	314.95
737.165	340.69
737.566	314.95
737.967	298.56
738.368	277.5
738.77	286.86
739.171	324.31
739.572	343.03
739.973	289.2
740.374	310.27
740.774	328.99
741.175	361.76
741.576	324.31
741.977	247.07
742.377	336.01
742.778	359.42
743.178	338.35
743.579	319.63
743.979	263.46
744.379	331.33
744.78	300.91
745.18	307.93
745.58	275.16
745.98	289.2
746.38	305.59
746.78	345.38
747.18	321.97
747.58	277.5
747.98	317.29
748.38	296.22
748.779	298.56
749.179	244.73
749.578	319.63
749.978	317.29
750.377	272.82
750.777	298.56
751.176	307.93
751.575	275.16
751.975	345.38
752.374	350.06
752.773	336.01
753.172	326.65
753.571	343.03
753.97	312.61
754.369	286.86
754.768	359.42
755.166	307.93
755.565	282.18
755.964	272.82
756.362	352.4
756.761	371.12
757.159	350.06
757.558	317.29
757.956	350.06
758.354	310.27
758.753	305.59
759.151	352.4
759.549	284.52
759.947	277.5
760.345	289.2
760.743	314.95
761.141	310.27
761.539	310.27
761.936	380.48
762.334	284.52
762.732	310.27
763.129	298.56
763.527	321.97
763.924	328.99
764.322	263.46
764.719	298.56
765.117	289.2
765.514	272.82
765.911	345.38
766.308	345.38
766.705	265.8
767.102	336.01
767.499	317.29
767.896	368.78
768.293	345.38
768.69	296.22
769.086	336.01
769.483	406.23
769.88	291.54
770.276	293.88
770.673	352.4
771.069	307.93
771.466	343.03
771.862	317.29
772.258	314.95
772.654	371.12
773.05	303.25
773.447	328.99
773.843	350.06
774.239	296.22
774.634	314.95
775.03	343.03
775.426	317.29
775.822	268.14
776.218	286.86
776.613	286.86
777.009	296.22
777.404	364.1
777.8	347.72
778.195	357.08
778.59	328.99
778.986	338.35
779.381	350.06
779.776	368.78
780.171	284.52
780.566	307.93
780.961	364.1
781.356	277.5
781.751	291.54
782.146	366.44
782.54	331.33
782.935	331.33
783.33	338.35
783.724	265.8
784.119	251.75
784.513	314.95
784.908	314.95
785.302	261.12
785.696	305.59
786.09	354.74
786.485	254.09
786.879	263.46
787.273	321.97
787.667	343.03
788.061	298.56
788.454	354.74
788.848	307.93
789.242	357.08
789.636	366.44
790.029	303.25
790.423	312.61
790.816	275.16
791.21	312.61
791.603	364.1
791.997	324.31
792.39	352.4
792.783	310.27
793.176	338.35
793.569	303.25
793.962	343.03
794.355	268.14
794.748	364.1
795.141	293.88
795.534	319.63
795.927	347.72
796.319	328.99
796.712	340.69
797.105	300.91
797.497	261.12
797.89	321.97
798.282	293.88
798.674	319.63
799.067	392.19
799.459	270.48
799.851	371.12
800.243	319.63
800.635	321.97
801.027	340.69
801.419	303.25
801.811	357.08
802.203	359.42
802.594	328.99
802.986	291.54
803.378	291.54
803.769	303.25
804.161	310.27
804.552	350.06
804.944	317.29
805.335	326.65
805.726	324.31
806.118	331.33
806.509	343.03
806.9	279.84
807.291	312.61
807.682	291.54
808.073	338.35
808.464	338.35
808.855	340.69
809.245	366.44
809.636	331.33
810.027	364.1
810.417	326.65
810.808	296.22
811.198	279.84
811.589	305.59
811.979	345.38
812.369	336.01
812.759	286.86
813.15	317.29
813.54	300.91
813.93	312.61
814.32	340.69
814.71	338.35
815.1	270.48
815.489	307.93
815.879	371.12
816.269	394.53
816.658	331.33
817.048	307.93
817.438	298.56
817.827	277.5
818.216	289.2
818.606	319.63
818.995	284.52
819.384	256.43
819.773	343.03
820.163	336.01
820.552	307.93
820.941	371.12
821.33	371.12
821.718	361.76
822.107	284.52
822.496	331.33
822.885	291.54
823.273	258.78
823.662	319.63
824.05	310.27
824.439	347.72
824.827	312.61
825.216	263.46
825.604	336.01
825.992	284.52
826.38	331.33
826.768	268.14
827.156	275.16
827.544	275.16
827.932	282.18
828.32	347.72
828.708	347.72
829.096	291.54
829.483	268.14
829.871	317.29
830.259	298.56
830.646	331.33
831.034	312.61
831.421	310.27
831.808	303.25
832.196	279.84
832.583	296.22
832.97	347.72
833.357	289.2
833.744	249.41
834.131	331.33
834.518	324.31
834.905	233.03
835.292	317.29
835.678	305.59
836.065	305.59
836.452	366.44
836.838	317.29
837.225	279.84
837.611	305.59
837.998	272.82
838.384	331.33
838.77	331.33
839.157	340.69
839.543	385.16
839.929	312.61
840.315	277.5
840.701	310.27
841.087	300.91
841.473	354.74
841.858	361.76
842.244	361.76
842.63	270.48
843.015	373.46
843.401	392.19
843.787	347.72
844.172	324.31
844.557	307.93
844.943	293.88
845.328	298.56
845.713	261.12
846.098	291.54
846.483	312.61
846.868	291.54
847.253	368.78
847.638	289.2
848.023	373.46
848.408	314.95
848.793	350.06
849.177	324.31
849.562	317.29
849.947	317.29
850.331	282.18
850.715	300.91
851.1	296.22
851.484	270.48
851.868	336.01
852.253	303.25
852.637	307.93
853.021	286.86
853.405	270.48
853.789	326.65
854.173	314.95
854.557	289.2
854.94	263.46
855.324	340.69
855.708	382.82
856.091	291.54
856.475	293.88
856.858	312.61
857.242	291.54
857.625	345.38
858.009	289.2
858.392	310.27
858.775	319.63
859.158	331.33
859.541	298.56
859.924	340.69
860.307	284.52
860.69	293.88
861.073	314.95
861.456	307.93
861.838	366.44
862.221	333.67
862.604	361.76
862.986	286.86
863.369	284.52
863.751	303.25
864.133	296.22
864.516	249.41
864.898	305.59
865.28	319.63
865.662	277.5
866.044	357.08
866.426	357.08
866.808	268.14
867.19	293.88
867.572	347.72
867.954	312.61
868.336	317.29
868.717	333.67
869.099	300.91
869.48	340.69
869.862	357.08
870.243	373.46
870.625	249.41
871.006	307.93
871.387	328.99
871.768	275.16
872.149	303.25
872.53	352.4
872.911	312.61
873.292	303.25
873.673	366.44
874.054	296.22
874.435	300.91
874.815	286.86
875.196	277.5
875.577	326.65
875.957	268.14
876.338	321.97
876.718	244.73
877.098	291.54
877.479	298.56
877.859	328.99
878.239	347.72
878.619	350.06
878.999	247.07
879.379	321.97
879.759	331.33
880.139	293.88
880.519	282.18
880.898	254.09
881.278	305.59
881.658	286.86
882.037	272.82
882.417	256.43
882.796	317.29
883.176	291.54
883.555	277.5
883.934	368.78
884.313	333.67
884.693	387.5
885.072	265.8
885.451	310.27
885.83	235.37
886.209	277.5
886.587	268.14
886.966	300.91
887.345	270.48
887.724	336.01
888.102	258.78
888.481	343.03
888.859	214.31
889.238	289.2
889.616	284.52
889.994	328.99
890.373	324.31
890.751	321.97
891.129	298.56
891.507	305.59
891.885	350.06
892.263	310.27
892.641	347.72
893.019	312.61
893.396	268.14
893.774	347.72
894.152	354.74
894.529	293.88
894.907	272.82
895.284	324.31
895.662	317.29
896.039	242.39
896.416	291.54
896.794	345.38
897.171	268.14
897.548	364.1
897.925	275.16
898.302	340.69
898.679	410.91
899.056	305.59
899.433	340.69
899.809	352.4
900.186	361.76
900.563	321.97
900.939	291.54
901.316	333.67
901.692	338.35
902.069	296.22
902.445	263.46
902.821	359.42
903.197	314.95
903.574	270.48
903.95	319.63
904.326	303.25
904.702	375.8
905.078	305.59
905.454	345.38
905.829	275.16
906.205	300.91
906.581	284.52
906.956	286.86
907.332	256.43
907.707	333.67
908.083	298.56
908.458	277.5
908.833	268.14
909.209	282.18
909.584	277.5
909.959	307.93
910.334	254.09
910.709	319.63
911.084	307.93
911.459	296.22
911.834	265.8
912.209	326.65
912.583	284.52
912.958	265.8
913.333	263.46
913.707	272.82
914.082	345.38
914.456	319.63
914.83	291.54
915.205	378.14
915.579	270.48
915.953	237.71
916.327	298.56
916.701	321.97
917.075	324.31
917.449	321.97
917.823	314.95
918.197	345.38
918.571	343.03
918.944	328.99
919.318	333.67
919.692	310.27
920.065	307.93
920.438	286.86
920.812	293.88
921.185	305.59
921.558	331.33
921.932	364.1
922.305	272.82
922.678	296.22
923.051	286.86
923.424	328.99
923.797	350.06
924.17	373.46
924.542	328.99
924.915	319.63
925.288	312.61
925.661	291.54
926.033	293.88
926.406	261.12
926.778	303.25
927.15	338.35
927.523	317.29
927.895	282.18
928.267	312.61
928.639	361.76
929.011	307.93
929.383	270.48
929.755	218.99
930.127	282.18
930.499	263.46
930.871	321.97
931.242	298.56
931.614	277.5
931.986	293.88
932.357	373.46
932.729	286.86
933.1	270.48
933.471	300.91
933.843	268.14
934.214	345.38
934.585	263.46
934.956	289.2
935.327	317.29
935.698	324.31
936.069	364.1
936.44	289.2
936.811	326.65
937.182	303.25
937.552	328.99
937.923	303.25
938.293	312.61
938.664	312.61
939.034	277.5
939.405	303.25
939.775	291.54
940.145	314.95
940.516	333.67
940.886	296.22
941.256	319.63
941.626	284.52
941.996	277.5
942.366	286.86
942.735	305.59
943.105	373.46
943.475	268.14
943.845	310.27
944.214	296.22
944.584	286.86
944.953	289.2
945.323	272.82
945.692	284.52
946.061	319.63
946.43	314.95
946.8	298.56
947.169	331.33
947.538	286.86
947.907	298.56
948.276	268.14
948.645	293.88
949.013	366.44
949.382	300.91
949.751	340.69
950.119	221.33
950.488	357.08
950.857	331.33
951.225	279.84
951.593	286.86
951.962	300.91
952.33	326.65
952.698	286.86
953.066	293.88
953.434	235.37
953.802	312.61
954.17	247.07
954.538	328.99
954.906	300.91
955.274	392.19
955.642	305.59
956.009	296.22
956.377	359.42
956.744	256.43
957.112	312.61
957.479	328.99
957.847	296.22
958.214	347.72
958.581	305.59
958.948	305.59
959.315	261.12
959.683	300.91
960.05	298.56
960.416	286.86
960.783	371.12
961.15	345.38
961.517	303.25
961.884	312.61
962.25	296.22
962.617	333.67
962.983	270.48
963.35	310.27
963.716	338.35
964.082	310.27
964.449	328.99
964.815	303.25
965.181	331.33
965.547	279.84
965.913	284.52
966.279	279.84
966.645	319.63
967.011	352.4
967.377	340.69
967.742	263.46
968.108	289.2
968.474	336.01
968.839	310.27
969.205	352.4
969.57	340.69
969.935	284.52
970.301	354.74
970.666	284.52
971.031	310.27
971.396	310.27
971.761	310.27
972.126	321.97
972.491	333.67
972.856	289.2
973.221	326.65
973.586	237.71
973.95	324.31
974.315	319.63
974.679	321.97
975.044	321.97
975.408	244.73
975.773	296.22
976.137	364.1
976.501	291.54
976.866	324.31
977.23	279.84
977.594	282.18
977.958	307.93
978.322	279.84
978.686	333.67
979.049	326.65
979.413	312.61
979.777	336.01
980.141	326.65
980.504	263.46
980.868	303.25
981.231	282.18
981.595	321.97
981.958	345.38
982.321	293.88
982.684	286.86
983.048	321.97
983.411	296.22
983.774	312.61
984.137	310.27
984.5	277.5
984.862	268.14
985.225	343.03
985.588	314.95
985.951	242.39
986.313	268.14
986.676	310.27
987.038	286.86
987.401	357.08
987.763	392.19
988.125	277.5
988.488	317.29
988.85	357.08
989.212	321.97
989.574	289.2
989.936	244.73
990.298	307.93
990.66	275.16
991.022	300.91
991.383	331.33
991.745	275.16
992.107	336.01
992.468	286.86
992.83	331.33
993.191	310.27
993.553	305.59
993.914	317.29
994.275	324.31
994.637	272.82
994.998	279.84
995.359	347.72
995.72	293.88
996.081	314.95
996.442	293.88
996.803	275.16
997.163	256.43
997.524	314.95
997.885	324.31
998.245	310.27
998.606	357.08
998.966	249.41
999.327	310.27
999.687	277.5
1000.047	275.16
1000.408	275.16
1000.768	324.31
1001.128	321.97
1001.488	230.69
1001.848	347.72
1002.208	338.35
1002.568	282.18
1002.927	305.59
1003.287	310.27
1003.647	261.12
1004.007	261.12
1004.366	345.38
1004.726	314.95
1005.085	350.06
1005.444	340.69
1005.804	312.61
1006.163	279.84
1006.522	319.63
1006.881	389.85
1007.24	324.31
1007.599	282.18
1007.958	303.25
1008.317	251.75
1008.676	258.78
1009.035	333.67
1009.393	303.25
1009.752	272.82
1010.111	307.93
1010.469	263.46
1010.828	282.18
1011.186	277.5
1011.544	359.42
1011.903	307.93
1012.261	284.52
1012.619	270.48
1012.977	310.27
1013.335	328.99
1013.693	368.78
1014.051	272.82
1014.409	270.48
1014.767	293.88
1015.124	298.56
1015.482	286.86
1015.84	293.88
1016.197	298.56
1016.555	357.08
1016.912	321.97
1017.269	338.35
1017.627	300.91
1017.984	345.38
1018.341	307.93
1018.698	286.86
1019.055	307.93
1019.412	289.2
1019.769	312.61
1020.126	350.06
1020.483	300.91
1020.84	293.88
1021.196	317.29
1021.553	319.63
1021.909	305.59
1022.266	312.61
1022.622	333.67
1022.979	275.16
1023.335	326.65
1023.691	324.31
1024.047	240.05
1024.404	366.44
1024.76	305.59
1025.116	331.33
1025.472	352.4
1025.827	300.91
1026.183	265.8
1026.539	310.27
1026.895	333.67
1027.25	343.03
1027.606	275.16
1027.961	272.82
1028.317	275.16
1028.672	268.14
1029.028	319.63
1029.383	324.31
1029.738	331.33
1030.093	319.63
1030.448	347.72
1030.803	368.78
1031.158	328.99
1031.513	314.95
1031.868	396.87
1032.223	218.99
1032.577	286.86
1032.932	293.88
1033.287	310.27
1033.641	263.46
1033.996	249.41
1034.35	347.72
1034.704	328.99
1035.059	284.52
1035.413	270.48
1035.767	270.48
1036.121	270.48
