Data from Al_FLMS009871__1231__16-44-32-978.txt Node

Date: Fri Mar 08 16:44:32 CST 2024
User: pe5414po
Spectrometer: FLMS00987
Trigger mode: 0
Integration Time (sec): 1.000000E-1
Scans to average: 1
Electric dark correction enabled: true
Nonlinearity correction enabled: false
Boxcar width: 0
XAxis mode: Wavelengths
Number of Pixels in Spectrum: 2048
>>>>>Begin Spectral Data<<<<<
188.938	-116.88
189.409	-116.88
189.879	-116.88
190.349	-105.18
190.819	-126.24
191.29	-98.16
191.76	-126.24
192.23	-37.3
192.7	-53.69
193.17	-130.92
193.64	-79.43
194.109	-41.98
194.579	16.53
195.049	56.32
195.519	-44.32
195.988	42.28
196.458	61
196.927	86.75
197.397	142.92
197.866	84.41
198.336	121.85
198.805	70.36
199.274	206.11
199.744	140.58
200.213	208.45
200.682	269.31
201.151	257.61
201.62	236.54
202.089	241.22
202.558	309.1
203.027	273.99
203.495	281.01
203.964	290.37
204.433	302.08
204.902	320.8
205.37	262.29
205.839	330.16
206.307	241.22
206.776	299.73
207.244	304.42
207.712	236.54
208.181	299.73
208.649	288.03
209.117	283.35
209.585	323.14
210.053	295.05
210.521	311.44
210.989	199.09
211.457	290.37
211.925	229.52
212.393	210.79
212.861	346.55
213.328	266.97
213.796	330.16
214.264	295.05
214.731	248.24
215.199	250.58
215.666	285.69
216.133	295.05
216.601	309.1
217.068	304.42
217.535	264.63
218.003	271.65
218.47	266.97
218.937	203.77
219.404	229.52
219.871	224.84
220.338	259.95
220.805	304.42
221.271	264.63
221.738	243.56
222.205	236.54
222.671	273.99
223.138	238.88
223.605	266.97
224.071	217.82
224.538	224.84
225.004	266.97
225.47	271.65
225.937	248.24
226.403	266.97
226.869	217.82
227.335	295.05
227.801	255.26
228.267	210.79
228.733	248.24
229.199	215.48
229.665	262.29
230.131	262.29
230.597	295.05
231.062	295.05
231.528	288.03
231.994	302.08
232.459	245.9
232.925	304.42
233.39	299.73
233.856	255.26
234.321	276.33
234.786	243.56
235.252	229.52
235.717	297.39
236.182	318.46
236.647	257.61
237.112	213.14
237.577	276.33
238.042	292.71
238.507	245.9
238.972	285.69
239.436	297.39
239.901	281.01
240.366	234.2
240.83	262.29
241.295	271.65
241.76	311.44
242.224	320.8
242.688	236.54
243.153	231.86
243.617	297.39
244.081	313.78
244.545	285.69
245.01	229.52
245.474	283.35
245.938	278.67
246.402	238.88
246.866	266.97
247.33	285.69
247.793	318.46
248.257	311.44
248.721	262.29
249.185	304.42
249.648	271.65
250.112	278.67
250.575	290.37
251.039	292.71
251.502	266.97
251.965	259.95
252.429	297.39
252.892	316.12
253.355	309.1
253.818	262.29
254.281	292.71
254.744	288.03
255.207	334.84
255.67	255.26
256.133	316.12
256.596	351.23
257.059	227.18
257.522	288.03
257.984	262.29
258.447	273.99
258.909	309.1
259.372	318.46
259.834	269.31
260.297	245.9
260.759	281.01
261.221	325.48
261.684	241.22
262.146	311.44
262.608	309.1
263.07	259.95
263.532	273.99
263.994	320.8
264.456	327.82
264.918	283.35
265.38	339.52
265.842	313.78
266.303	220.16
266.765	297.39
267.227	238.88
267.688	266.97
268.15	262.29
268.611	248.24
269.072	283.35
269.534	323.14
269.995	318.46
270.456	306.76
270.918	313.78
271.379	276.33
271.84	262.29
272.301	250.58
272.762	292.71
273.223	266.97
273.684	295.05
274.144	278.67
274.605	358.25
275.066	248.24
275.527	341.86
275.987	337.18
276.448	273.99
276.908	290.37
277.369	238.88
277.829	285.69
278.289	311.44
278.75	285.69
279.21	320.8
279.67	346.55
280.13	318.46
280.59	337.18
281.05	351.23
281.51	318.46
281.97	283.35
282.43	325.48
282.89	311.44
283.35	299.73
283.809	297.39
284.269	281.01
284.729	311.44
285.188	295.05
285.648	259.95
286.107	278.67
286.567	273.99
287.026	234.2
287.485	299.73
287.944	311.44
288.404	278.67
288.863	295.05
289.322	302.08
289.781	306.76
290.24	299.73
290.699	297.39
291.158	281.01
291.616	379.31
292.075	306.76
292.534	306.76
292.992	269.31
293.451	297.39
293.91	295.05
294.368	344.21
294.827	325.48
295.285	241.22
295.743	302.08
296.202	365.27
296.66	302.08
297.118	339.52
297.576	367.61
298.034	276.33
298.492	302.08
298.95	318.46
299.408	276.33
299.866	323.14
300.324	318.46
300.781	290.37
301.239	367.61
301.697	271.65
302.154	295.05
302.612	348.89
303.069	362.93
303.527	210.79
303.984	325.48
304.441	323.14
304.899	276.33
305.356	297.39
305.813	290.37
306.27	330.16
306.727	290.37
307.184	295.05
307.641	269.31
308.098	348.89
308.555	323.14
309.012	288.03
309.468	360.59
309.925	311.44
310.382	323.14
310.838	290.37
311.295	358.25
311.751	379.31
312.208	327.82
312.664	341.86
313.12	339.52
313.577	285.69
314.033	262.29
314.489	334.84
314.945	285.69
315.401	295.05
315.857	299.73
316.313	302.08
316.769	292.71
317.225	309.1
317.681	337.18
318.136	278.67
318.592	323.14
319.048	229.52
319.503	292.71
319.959	311.44
320.414	362.93
320.869	196.75
321.325	304.42
321.78	332.5
322.235	276.33
322.691	348.89
323.146	367.61
323.601	262.29
324.056	187.39
324.511	243.56
324.966	341.86
325.421	318.46
325.875	320.8
326.33	320.8
326.785	292.71
327.24	295.05
327.694	269.31
328.149	290.37
328.603	318.46
329.058	337.18
329.512	252.92
329.966	348.89
330.421	269.31
330.875	344.21
331.329	292.71
331.783	306.76
332.237	234.2
332.691	273.99
333.145	330.16
333.599	327.82
334.053	259.95
334.507	297.39
334.96	327.82
335.414	341.86
335.868	334.84
336.321	245.9
336.775	278.67
337.228	292.71
337.682	346.55
338.135	325.48
338.588	252.92
339.042	292.71
339.495	304.42
339.948	297.39
340.401	245.9
340.854	339.52
341.307	313.78
341.76	323.14
342.213	273.99
342.666	332.5
343.119	355.91
343.571	248.24
344.024	355.91
344.477	290.37
344.929	304.42
345.382	250.58
345.834	332.5
346.287	381.65
346.739	325.48
347.191	262.29
347.644	353.57
348.096	304.42
348.548	334.84
349	344.21
349.452	353.57
349.904	348.89
350.356	248.24
350.808	320.8
351.26	344.21
351.711	320.8
352.163	266.97
352.615	257.61
353.066	290.37
353.518	320.8
353.969	281.01
354.421	379.31
354.872	295.05
355.324	255.26
355.775	309.1
356.226	288.03
356.677	323.14
357.128	299.73
357.579	323.14
358.03	297.39
358.481	320.8
358.932	285.69
359.383	391.02
359.834	281.01
360.285	288.03
360.735	290.37
361.186	290.37
361.637	358.25
362.087	339.52
362.538	297.39
362.988	344.21
363.438	311.44
363.889	383.99
364.339	365.27
364.789	302.08
365.239	334.84
365.689	327.82
366.139	334.84
366.589	386.33
367.039	304.42
367.489	362.93
367.939	353.57
368.389	306.76
368.839	332.5
369.288	304.42
369.738	344.21
370.187	334.84
370.637	330.16
371.086	304.42
371.536	299.73
371.985	269.31
372.434	264.63
372.884	365.27
373.333	332.5
373.782	292.71
374.231	264.63
374.68	398.04
375.129	311.44
375.578	313.78
376.027	327.82
376.475	290.37
376.924	309.1
377.373	304.42
377.822	290.37
378.27	362.93
378.719	306.76
379.167	306.76
379.616	257.61
380.064	316.12
380.512	330.16
380.961	297.39
381.409	320.8
381.857	318.46
382.305	283.35
382.753	238.88
383.201	288.03
383.649	285.69
384.097	297.39
384.545	266.97
384.992	304.42
385.44	376.97
385.888	346.55
386.335	362.93
386.783	346.55
387.231	309.1
387.678	351.23
388.125	348.89
388.573	325.48
389.02	386.33
389.467	316.12
389.914	323.14
390.362	402.72
390.809	334.84
391.256	318.46
391.703	306.76
392.15	346.55
392.596	339.52
393.043	348.89
393.49	348.89
393.937	334.84
394.383	306.76
394.83	276.33
395.276	346.55
395.723	290.37
396.169	362.93
396.616	353.57
397.062	341.86
397.508	269.31
397.954	306.76
398.401	311.44
398.847	292.71
399.293	374.63
399.739	362.93
400.185	409.74
400.631	313.78
401.076	309.1
401.522	311.44
401.968	330.16
402.414	269.31
402.859	309.1
403.305	325.48
403.75	309.1
404.196	299.73
404.641	348.89
405.086	311.44
405.532	245.9
405.977	325.48
406.422	302.08
406.867	309.1
407.312	304.42
407.757	304.42
408.202	320.8
408.647	402.72
409.092	367.61
409.537	299.73
409.982	299.73
410.426	337.18
410.871	320.8
411.316	327.82
411.76	302.08
412.205	320.8
412.649	306.76
413.093	309.1
413.538	348.89
413.982	351.23
414.426	252.92
414.87	316.12
415.314	269.31
415.758	337.18
416.202	304.42
416.646	334.84
417.09	306.76
417.534	292.71
417.978	316.12
418.421	412.08
418.865	302.08
419.309	316.12
419.752	360.59
420.196	362.93
420.639	259.95
421.083	360.59
421.526	269.31
421.969	266.97
422.412	330.16
422.856	316.12
423.299	295.05
423.742	344.21
424.185	238.88
424.628	327.82
425.071	325.48
425.513	238.88
425.956	353.57
426.399	248.24
426.842	273.99
427.284	348.89
427.727	341.86
428.169	348.89
428.612	323.14
429.054	295.05
429.497	299.73
429.939	252.92
430.381	295.05
430.823	295.05
431.265	276.33
431.707	297.39
432.149	302.08
432.591	369.95
433.033	360.59
433.475	365.27
433.917	325.48
434.359	346.55
434.8	304.42
435.242	341.86
435.684	348.89
436.125	334.84
436.567	236.54
437.008	309.1
437.449	276.33
437.891	313.78
438.332	330.16
438.773	332.5
439.214	297.39
439.656	309.1
440.097	332.5
440.538	318.46
440.978	383.99
441.419	325.48
441.86	339.52
442.301	332.5
442.742	362.93
443.182	344.21
443.623	297.39
444.063	290.37
444.504	309.1
444.944	269.31
445.385	278.67
445.825	391.02
446.265	339.52
446.706	344.21
447.146	316.12
447.586	339.52
448.026	297.39
448.466	341.86
448.906	306.76
449.346	362.93
449.786	360.59
450.225	358.25
450.665	351.23
451.105	259.95
451.544	325.48
451.984	309.1
452.424	295.05
452.863	318.46
453.302	259.95
453.742	311.44
454.181	386.33
454.62	304.42
455.059	376.97
455.499	302.08
455.938	393.36
456.377	360.59
456.816	323.14
457.254	388.68
457.693	332.5
458.132	316.12
458.571	271.65
459.01	304.42
459.448	323.14
459.887	309.1
460.325	325.48
460.764	306.76
461.202	309.1
461.641	402.72
462.079	316.12
462.517	292.71
462.955	302.08
463.393	311.44
463.832	334.84
464.27	325.48
464.708	332.5
465.145	332.5
465.583	281.01
466.021	283.35
466.459	311.44
466.897	355.91
467.334	351.23
467.772	231.86
468.209	365.27
468.647	332.5
469.084	297.39
469.522	304.42
469.959	297.39
470.396	362.93
470.833	351.23
471.271	320.8
471.708	285.69
472.145	344.21
472.582	325.48
473.019	271.65
473.456	337.18
473.892	299.73
474.329	292.71
474.766	297.39
475.202	386.33
475.639	292.71
476.076	330.16
476.512	304.42
476.949	367.61
477.385	281.01
477.821	379.31
478.258	323.14
478.694	313.78
479.13	318.46
479.566	269.31
480.002	295.05
480.438	285.69
480.874	337.18
481.31	288.03
481.746	334.84
482.181	299.73
482.617	318.46
483.053	367.61
483.488	273.99
483.924	288.03
484.36	292.71
484.795	259.95
485.23	304.42
485.666	271.65
486.101	339.52
486.536	304.42
486.971	334.84
487.407	266.97
487.842	311.44
488.277	299.73
488.712	271.65
489.146	362.93
489.581	360.59
490.016	290.37
490.451	348.89
490.885	278.67
491.32	325.48
491.755	323.14
492.189	264.63
492.624	281.01
493.058	297.39
493.492	339.52
493.927	304.42
494.361	262.29
494.795	241.22
495.229	316.12
495.663	346.55
496.097	313.78
496.531	320.8
496.965	302.08
497.399	320.8
497.833	339.52
498.266	299.73
498.7	290.37
499.134	327.82
499.567	341.86
500.001	309.1
500.434	344.21
500.868	283.35
501.301	367.61
501.734	337.18
502.168	292.71
502.601	334.84
503.034	295.05
503.467	309.1
503.9	311.44
504.333	337.18
504.766	334.84
505.199	398.04
505.632	381.65
506.064	365.27
506.497	353.57
506.93	302.08
507.362	351.23
507.795	288.03
508.227	381.65
508.66	381.65
509.092	271.65
509.524	295.05
509.956	311.44
510.389	273.99
510.821	325.48
511.253	358.25
511.685	304.42
512.117	299.73
512.549	281.01
512.981	297.39
513.412	327.82
513.844	281.01
514.276	376.97
514.707	292.71
515.139	236.54
515.571	311.44
516.002	334.84
516.433	374.63
516.865	299.73
517.296	341.86
517.727	327.82
518.159	316.12
518.59	320.8
519.021	353.57
519.452	281.01
519.883	409.74
520.314	288.03
520.744	248.24
521.175	273.99
521.606	292.71
522.037	297.39
522.467	288.03
522.898	332.5
523.328	351.23
523.759	252.92
524.189	259.95
524.62	306.76
525.05	313.78
525.48	309.1
525.91	269.31
526.341	250.58
526.771	325.48
527.201	304.42
527.631	348.89
528.061	386.33
528.49	320.8
528.92	339.52
529.35	299.73
529.78	323.14
530.209	271.65
530.639	318.46
531.068	309.1
531.498	334.84
531.927	365.27
532.357	320.8
532.786	334.84
533.215	367.61
533.644	297.39
534.074	344.21
534.503	355.91
534.932	330.16
535.361	332.5
535.79	306.76
536.218	348.89
536.647	288.03
537.076	327.82
537.505	318.46
537.933	302.08
538.362	285.69
538.79	306.76
539.219	302.08
539.647	381.65
540.076	323.14
540.504	346.55
540.932	273.99
541.36	332.5
541.788	334.84
542.217	285.69
542.645	344.21
543.073	299.73
543.5	285.69
543.928	316.12
544.356	402.72
544.784	344.21
545.211	283.35
545.639	285.69
546.067	334.84
546.494	292.71
546.922	353.57
547.349	309.1
547.776	252.92
548.204	311.44
548.631	332.5
549.058	334.84
549.485	344.21
549.912	362.93
550.339	281.01
550.766	323.14
551.193	358.25
551.62	320.8
552.047	288.03
552.474	358.25
552.9	332.5
553.327	323.14
553.754	266.97
554.18	325.48
554.607	365.27
555.033	290.37
555.459	332.5
555.886	323.14
556.312	372.29
556.738	358.25
557.164	381.65
557.59	374.63
558.016	346.55
558.442	330.16
558.868	318.46
559.294	325.48
559.72	320.8
560.145	288.03
560.571	271.65
560.997	297.39
561.422	409.74
561.848	323.14
562.273	264.63
562.699	269.31
563.124	320.8
563.549	241.22
563.974	327.82
564.4	346.55
564.825	325.48
565.25	327.82
565.675	386.33
566.1	330.16
566.525	288.03
566.95	339.52
567.374	325.48
567.799	309.1
568.224	323.14
568.648	348.89
569.073	313.78
569.497	264.63
569.922	330.16
570.346	327.82
570.771	313.78
571.195	374.63
571.619	355.91
572.043	360.59
572.467	339.52
572.891	412.08
573.315	320.8
573.739	316.12
574.163	276.33
574.587	332.5
575.011	278.67
575.435	327.82
575.858	311.44
576.282	341.86
576.705	318.46
577.129	273.99
577.552	302.08
577.976	327.82
578.399	281.01
578.822	330.16
579.245	313.78
579.669	327.82
580.092	330.16
580.515	231.86
580.938	276.33
581.361	332.5
581.784	325.48
582.206	379.31
582.629	358.25
583.052	318.46
583.474	290.37
583.897	376.97
584.32	341.86
584.742	262.29
585.165	302.08
585.587	334.84
586.009	360.59
586.431	332.5
586.854	367.61
587.276	266.97
587.698	325.48
588.12	332.5
588.542	337.18
588.964	276.33
589.386	313.78
589.807	316.12
590.229	327.82
590.651	330.16
591.073	351.23
591.494	351.23
591.916	311.44
592.337	367.61
592.759	234.2
593.18	285.69
593.601	365.27
594.022	295.05
594.444	257.61
594.865	288.03
595.286	355.91
595.707	302.08
596.128	327.82
596.549	323.14
596.97	316.12
597.39	283.35
597.811	383.99
598.232	297.39
598.652	332.5
599.073	292.71
599.494	309.1
599.914	330.16
600.334	278.67
600.755	252.92
601.175	248.24
601.595	292.71
602.015	299.73
602.436	320.8
602.856	428.46
603.276	374.63
603.696	304.42
604.115	339.52
604.535	327.82
604.955	311.44
605.375	348.89
605.794	346.55
606.214	299.73
606.634	306.76
607.053	374.63
607.473	341.86
607.892	311.44
608.311	362.93
608.731	255.26
609.15	330.16
609.569	318.46
609.988	360.59
610.407	292.71
610.826	299.73
611.245	304.42
611.664	395.7
612.083	327.82
612.501	332.5
612.92	292.71
613.339	365.27
613.757	313.78
614.176	348.89
614.594	238.88
615.013	285.69
615.431	325.48
615.85	337.18
616.268	341.86
616.686	309.1
617.104	318.46
617.522	320.8
617.94	320.8
618.358	295.05
618.776	311.44
619.194	358.25
619.612	332.5
620.03	379.31
620.447	341.86
620.865	323.14
621.282	304.42
621.7	351.23
622.117	229.52
622.535	351.23
622.952	323.14
623.369	257.61
623.787	290.37
624.204	332.5
624.621	318.46
625.038	281.01
625.455	295.05
625.872	358.25
626.289	341.86
626.706	311.44
627.123	344.21
627.539	252.92
627.956	323.14
628.373	266.97
628.789	351.23
629.206	273.99
629.622	339.52
630.038	295.05
630.455	276.33
630.871	257.61
631.287	276.33
631.703	341.86
632.12	351.23
632.536	407.4
632.952	299.73
633.368	313.78
633.783	365.27
634.199	332.5
634.615	323.14
635.031	353.57
635.446	234.2
635.862	255.26
636.277	337.18
636.693	337.18
637.108	320.8
637.524	381.65
637.939	262.29
638.354	302.08
638.77	358.25
639.185	313.78
639.6	320.8
640.015	292.71
640.43	313.78
640.845	323.14
641.259	341.86
641.674	332.5
642.089	337.18
642.504	285.69
642.918	271.65
643.333	281.01
643.747	285.69
644.162	358.25
644.576	355.91
644.991	273.99
645.405	330.16
645.819	341.86
646.233	341.86
646.647	320.8
647.061	323.14
647.475	332.5
647.889	327.82
648.303	309.1
648.717	360.59
649.131	341.86
649.545	332.5
649.958	311.44
650.372	367.61
650.785	351.23
651.199	346.55
651.612	332.5
652.026	299.73
652.439	266.97
652.852	323.14
653.266	288.03
653.679	295.05
654.092	292.71
654.505	351.23
654.918	365.27
655.331	302.08
655.744	285.69
656.156	323.14
656.569	295.05
656.982	334.84
657.394	337.18
657.807	304.42
658.22	365.27
658.632	393.36
659.044	292.71
659.457	311.44
659.869	313.78
660.281	316.12
660.693	292.71
661.106	243.56
661.518	337.18
661.93	285.69
662.342	367.61
662.754	323.14
663.165	292.71
663.577	353.57
663.989	337.18
664.401	360.59
664.812	332.5
665.224	374.63
665.635	348.89
666.047	334.84
666.458	290.37
666.869	360.59
667.281	348.89
667.692	313.78
668.103	273.99
668.514	269.31
668.925	327.82
669.336	290.37
669.747	351.23
670.158	374.63
670.569	320.8
670.979	283.35
671.39	306.76
671.801	346.55
672.211	264.63
672.622	346.55
673.032	337.18
673.443	264.63
673.853	353.57
674.263	304.42
674.674	320.8
675.084	269.31
675.494	360.59
675.904	302.08
676.314	327.82
676.724	299.73
677.134	273.99
677.544	309.1
677.953	281.01
678.363	288.03
678.773	353.57
679.182	332.5
679.592	344.21
680.001	339.52
680.411	348.89
680.82	288.03
681.23	313.78
681.639	320.8
682.048	285.69
682.457	332.5
682.866	358.25
683.275	281.01
683.684	323.14
684.093	341.86
684.502	323.14
684.911	351.23
685.32	330.16
685.728	374.63
686.137	323.14
686.546	276.33
686.954	379.31
687.363	327.82
687.771	245.9
688.179	309.1
688.588	304.42
688.996	318.46
689.404	320.8
689.812	285.69
690.22	320.8
690.628	248.24
691.036	297.39
691.444	304.42
691.852	341.86
692.26	346.55
692.667	304.42
693.075	283.35
693.483	327.82
693.89	323.14
694.298	358.25
694.705	318.46
695.112	295.05
695.52	339.52
695.927	374.63
696.334	234.2
696.741	311.44
697.148	281.01
697.555	299.73
697.962	297.39
698.369	334.84
698.776	360.59
699.183	306.76
699.59	320.8
699.996	306.76
700.403	367.61
700.81	266.97
701.216	320.8
701.623	313.78
702.029	367.61
702.435	323.14
702.842	341.86
703.248	332.5
703.654	341.86
704.06	388.68
704.466	313.78
704.872	295.05
705.278	290.37
705.684	285.69
706.09	351.23
706.496	295.05
706.901	299.73
707.307	311.44
707.712	299.73
708.118	332.5
708.523	281.01
708.929	409.74
709.334	252.92
709.74	348.89
710.145	327.82
710.55	264.63
710.955	302.08
711.36	255.26
711.765	304.42
712.17	264.63
712.575	313.78
712.98	847.42
713.385	295.05
713.789	388.68
714.194	383.99
714.599	295.05
715.003	332.5
715.408	299.73
715.812	290.37
716.217	302.08
716.621	383.99
717.025	365.27
717.429	334.84
717.833	292.71
718.238	318.46
718.642	306.76
719.046	367.61
719.449	297.39
719.853	266.97
720.257	269.31
720.661	311.44
721.065	360.59
721.468	264.63
721.872	304.42
722.275	320.8
722.679	332.5
723.082	318.46
723.485	341.86
723.889	313.78
724.292	276.33
724.695	337.18
725.098	283.35
725.501	304.42
725.904	295.05
726.307	290.37
726.71	306.76
727.113	285.69
727.516	323.14
727.918	313.78
728.321	348.89
728.724	362.93
729.126	365.27
729.529	309.1
729.931	323.14
730.333	299.73
730.736	339.52
731.138	302.08
731.54	348.89
731.942	290.37
732.344	339.52
732.746	285.69
733.148	346.55
733.55	337.18
733.952	348.89
734.354	360.59
734.756	234.2
735.157	306.76
735.559	269.31
735.96	276.33
736.362	299.73
736.763	306.76
737.165	283.35
737.566	334.84
737.967	337.18
738.368	297.39
738.77	278.67
739.171	360.59
739.572	344.21
739.973	302.08
740.374	353.57
740.774	316.12
741.175	295.05
741.576	283.35
741.977	398.04
742.377	297.39
742.778	302.08
743.178	309.1
743.579	360.59
743.979	299.73
744.379	325.48
744.78	252.92
745.18	302.08
745.58	285.69
745.98	358.25
746.38	358.25
746.78	292.71
747.18	299.73
747.58	323.14
747.98	346.55
748.38	323.14
748.779	271.65
749.179	325.48
749.578	313.78
749.978	302.08
750.377	281.01
750.777	325.48
751.176	381.65
751.575	351.23
751.975	318.46
752.374	278.67
752.773	297.39
753.172	339.52
753.571	281.01
753.97	372.29
754.369	353.57
754.768	269.31
755.166	341.86
755.565	311.44
755.964	250.58
756.362	330.16
756.761	297.39
757.159	271.65
757.558	290.37
757.956	320.8
758.354	295.05
758.753	306.76
759.151	320.8
759.549	306.76
759.947	299.73
760.345	383.99
760.743	302.08
761.141	323.14
761.539	316.12
761.936	259.95
762.334	302.08
762.732	295.05
763.129	365.27
763.527	311.44
763.924	362.93
764.322	337.18
764.719	285.69
765.117	283.35
765.514	318.46
765.911	302.08
766.308	334.84
766.705	309.1
767.102	281.01
767.499	330.16
767.896	304.42
768.293	344.21
768.69	292.71
769.086	278.67
769.483	318.46
769.88	355.91
770.276	273.99
770.673	290.37
771.069	358.25
771.466	334.84
771.862	339.52
772.258	257.61
772.654	316.12
773.05	313.78
773.447	330.16
773.843	318.46
774.239	295.05
774.634	273.99
775.03	337.18
775.426	238.88
775.822	288.03
776.218	337.18
776.613	299.73
777.009	358.25
777.404	379.31
777.8	297.39
778.195	358.25
778.59	297.39
778.986	309.1
779.381	295.05
779.776	297.39
780.171	290.37
780.566	325.48
780.961	330.16
781.356	369.95
781.751	376.97
782.146	330.16
782.54	273.99
782.935	295.05
783.33	276.33
783.724	257.61
784.119	266.97
784.513	383.99
784.908	313.78
785.302	383.99
785.696	355.91
786.09	290.37
786.485	283.35
786.879	257.61
787.273	334.84
787.667	339.52
788.061	320.8
788.454	295.05
788.848	332.5
789.242	259.95
789.636	299.73
790.029	309.1
790.423	337.18
790.816	285.69
791.21	283.35
791.603	283.35
791.997	339.52
792.39	302.08
792.783	313.78
793.176	318.46
793.569	295.05
793.962	309.1
794.355	369.95
794.748	337.18
795.141	316.12
795.534	262.29
795.927	311.44
796.319	323.14
796.712	320.8
797.105	297.39
797.497	292.71
797.89	281.01
798.282	355.91
798.674	327.82
799.067	255.26
799.459	299.73
799.851	306.76
800.243	344.21
800.635	283.35
801.027	257.61
801.419	273.99
801.811	353.57
802.203	273.99
802.594	346.55
802.986	271.65
803.378	346.55
803.769	330.16
804.161	318.46
804.552	334.84
804.944	288.03
805.335	297.39
805.726	290.37
806.118	358.25
806.509	362.93
806.9	302.08
807.291	353.57
807.682	325.48
808.073	332.5
808.464	283.35
808.855	346.55
809.245	372.29
809.636	334.84
810.027	281.01
810.417	355.91
810.808	311.44
811.198	325.48
811.589	283.35
811.979	325.48
812.369	241.22
812.759	323.14
813.15	236.54
813.54	290.37
813.93	273.99
814.32	292.71
814.71	337.18
815.1	295.05
815.489	353.57
815.879	337.18
816.269	295.05
816.658	330.16
817.048	365.27
817.438	311.44
817.827	316.12
818.216	290.37
818.606	323.14
818.995	245.9
819.384	271.65
819.773	283.35
820.163	250.58
820.552	318.46
820.941	276.33
821.33	283.35
821.718	281.01
822.107	255.26
822.496	330.16
822.885	341.86
823.273	360.59
823.662	292.71
824.05	318.46
824.439	276.33
824.827	295.05
825.216	337.18
825.604	323.14
825.992	311.44
826.38	346.55
826.768	323.14
827.156	339.52
827.544	309.1
827.932	351.23
828.32	320.8
828.708	318.46
829.096	285.69
829.483	311.44
829.871	374.63
830.259	304.42
830.646	283.35
831.034	257.61
831.421	346.55
831.808	339.52
832.196	304.42
832.583	337.18
832.97	313.78
833.357	311.44
833.744	295.05
834.131	248.24
834.518	348.89
834.905	379.31
835.292	323.14
835.678	313.78
836.065	295.05
836.452	341.86
836.838	266.97
837.225	313.78
837.611	332.5
837.998	313.78
838.384	332.5
838.77	369.95
839.157	323.14
839.543	374.63
839.929	309.1
840.315	341.86
840.701	360.59
841.087	313.78
841.473	302.08
841.858	348.89
842.244	299.73
842.63	341.86
843.015	351.23
843.401	398.04
843.787	285.69
844.172	292.71
844.557	304.42
844.943	285.69
845.328	276.33
845.713	323.14
846.098	229.52
846.483	313.78
846.868	313.78
847.253	285.69
847.638	313.78
848.023	309.1
848.408	346.55
848.793	323.14
849.177	365.27
849.562	327.82
849.947	330.16
850.331	330.16
850.715	318.46
851.1	311.44
851.484	348.89
851.868	337.18
852.253	266.97
852.637	358.25
853.021	313.78
853.405	379.31
853.789	311.44
854.173	435.49
854.557	341.86
854.94	257.61
855.324	313.78
855.708	285.69
856.091	360.59
856.475	327.82
856.858	281.01
857.242	276.33
857.625	323.14
858.009	369.95
858.392	292.71
858.775	288.03
859.158	295.05
859.541	369.95
859.924	351.23
860.307	313.78
860.69	311.44
861.073	304.42
861.456	290.37
861.838	304.42
862.221	295.05
862.604	313.78
862.986	266.97
863.369	302.08
863.751	313.78
864.133	295.05
864.516	276.33
864.898	309.1
865.28	271.65
865.662	304.42
866.044	234.2
866.426	337.18
866.808	339.52
867.19	306.76
867.572	369.95
867.954	311.44
868.336	306.76
868.717	266.97
869.099	292.71
869.48	360.59
869.862	281.01
870.243	292.71
870.625	313.78
871.006	337.18
871.387	266.97
871.768	283.35
872.149	323.14
872.53	266.97
872.911	302.08
873.292	365.27
873.673	337.18
874.054	369.95
874.435	285.69
874.815	276.33
875.196	367.61
875.577	320.8
875.957	290.37
876.338	369.95
876.718	285.69
877.098	276.33
877.479	351.23
877.859	344.21
878.239	365.27
878.619	360.59
878.999	360.59
879.379	351.23
879.759	320.8
880.139	339.52
880.519	393.36
880.898	379.31
881.278	313.78
881.658	318.46
882.037	299.73
882.417	330.16
882.796	318.46
883.176	271.65
883.555	245.9
883.934	311.44
884.313	252.92
884.693	330.16
885.072	339.52
885.451	318.46
885.83	304.42
886.209	297.39
886.587	309.1
886.966	388.68
887.345	325.48
887.724	309.1
888.102	311.44
888.481	395.7
888.859	337.18
889.238	245.9
889.616	339.52
889.994	295.05
890.373	271.65
890.751	292.71
891.129	332.5
891.507	304.42
891.885	266.97
892.263	288.03
892.641	351.23
893.019	332.5
893.396	304.42
893.774	360.59
894.152	292.71
894.529	252.92
894.907	323.14
895.284	285.69
895.662	360.59
896.039	369.95
896.416	273.99
896.794	318.46
897.171	379.31
897.548	295.05
897.925	295.05
898.302	318.46
898.679	297.39
899.056	257.61
899.433	313.78
899.809	271.65
900.186	358.25
900.563	325.48
900.939	248.24
901.316	248.24
901.692	306.76
902.069	351.23
902.445	339.52
902.821	337.18
903.197	295.05
903.574	339.52
903.95	327.82
904.326	295.05
904.702	273.99
905.078	327.82
905.454	332.5
905.829	273.99
906.205	281.01
906.581	346.55
906.956	325.48
907.332	276.33
907.707	365.27
908.083	311.44
908.458	330.16
908.833	325.48
909.209	327.82
909.584	283.35
909.959	304.42
910.334	285.69
910.709	320.8
911.084	283.35
911.459	351.23
911.834	313.78
912.209	323.14
912.583	313.78
912.958	285.69
913.333	341.86
913.707	313.78
914.082	323.14
914.456	304.42
914.83	271.65
915.205	327.82
915.579	299.73
915.953	313.78
916.327	299.73
916.701	302.08
917.075	320.8
917.449	259.95
917.823	313.78
918.197	353.57
918.571	290.37
918.944	304.42
919.318	292.71
919.692	248.24
920.065	348.89
920.438	283.35
920.812	313.78
921.185	295.05
921.558	304.42
921.932	285.69
922.305	266.97
922.678	332.5
923.051	299.73
923.424	281.01
923.797	318.46
924.17	346.55
924.542	332.5
924.915	241.22
925.288	339.52
925.661	292.71
926.033	283.35
926.406	243.56
926.778	292.71
927.15	360.59
927.523	281.01
927.895	355.91
928.267	292.71
928.639	248.24
929.011	360.59
929.383	367.61
929.755	292.71
930.127	266.97
930.499	332.5
930.871	266.97
931.242	318.46
931.614	271.65
931.986	290.37
932.357	304.42
932.729	309.1
933.1	330.16
933.471	400.38
933.843	386.33
934.214	281.01
934.585	334.84
934.956	238.88
935.327	330.16
935.698	323.14
936.069	353.57
936.44	320.8
936.811	337.18
937.182	337.18
937.552	285.69
937.923	358.25
938.293	276.33
938.664	264.63
939.034	273.99
939.405	365.27
939.775	281.01
940.145	290.37
940.516	290.37
940.886	341.86
941.256	316.12
941.626	353.57
941.996	353.57
942.366	288.03
942.735	332.5
943.105	292.71
943.475	325.48
943.845	306.76
944.214	316.12
944.584	388.68
944.953	252.92
945.323	302.08
945.692	339.52
946.061	353.57
946.43	337.18
946.8	292.71
947.169	248.24
947.538	346.55
947.907	325.48
948.276	334.84
948.645	210.79
949.013	337.18
949.382	283.35
949.751	273.99
950.119	316.12
950.488	313.78
950.857	344.21
951.225	318.46
951.593	285.69
951.962	316.12
952.33	215.48
952.698	269.31
953.066	376.97
953.434	346.55
953.802	311.44
954.17	302.08
954.538	306.76
954.906	304.42
955.274	344.21
955.642	313.78
956.009	355.91
956.377	241.22
956.744	281.01
957.112	283.35
957.479	355.91
957.847	320.8
958.214	255.26
958.581	367.61
958.948	318.46
959.315	292.71
959.683	276.33
960.05	313.78
960.416	295.05
960.783	241.22
961.15	252.92
961.517	332.5
961.884	309.1
962.25	304.42
962.617	302.08
962.983	245.9
963.35	393.36
963.716	306.76
964.082	309.1
964.449	257.61
964.815	281.01
965.181	316.12
965.547	273.99
965.913	372.29
966.279	398.04
966.645	278.67
967.011	316.12
967.377	266.97
967.742	255.26
968.108	337.18
968.474	330.16
968.839	316.12
969.205	262.29
969.57	332.5
969.935	264.63
970.301	355.91
970.666	283.35
971.031	344.21
971.396	281.01
971.761	290.37
972.126	306.76
972.491	346.55
972.856	264.63
973.221	405.06
973.586	273.99
973.95	283.35
974.315	306.76
974.679	290.37
975.044	304.42
975.408	266.97
975.773	271.65
976.137	320.8
976.501	292.71
976.866	337.18
977.23	266.97
977.594	273.99
977.958	337.18
978.322	276.33
978.686	339.52
979.049	309.1
979.413	276.33
979.777	278.67
980.141	257.61
980.504	351.23
980.868	269.31
981.231	365.27
981.595	278.67
981.958	257.61
982.321	281.01
982.684	297.39
983.048	311.44
983.411	278.67
983.774	257.61
984.137	292.71
984.5	283.35
984.862	369.95
985.225	292.71
985.588	304.42
985.951	332.5
986.313	285.69
986.676	360.59
987.038	295.05
987.401	379.31
987.763	243.56
988.125	262.29
988.488	285.69
988.85	323.14
989.212	337.18
989.574	381.65
989.936	344.21
990.298	248.24
990.66	379.31
991.022	302.08
991.383	339.52
991.745	325.48
992.107	276.33
992.468	318.46
992.83	379.31
993.191	313.78
993.553	339.52
993.914	323.14
994.275	311.44
994.637	332.5
994.998	304.42
995.359	351.23
995.72	383.99
996.081	309.1
996.442	341.86
996.803	281.01
997.163	295.05
997.524	306.76
997.885	306.76
998.245	290.37
998.606	269.31
998.966	234.2
999.327	255.26
999.687	259.95
1000.047	311.44
1000.408	269.31
1000.768	278.67
1001.128	304.42
1001.488	278.67
1001.848	285.69
1002.208	330.16
1002.568	283.35
1002.927	323.14
1003.287	330.16
1003.647	365.27
1004.007	327.82
1004.366	276.33
1004.726	341.86
1005.085	252.92
1005.444	288.03
1005.804	348.89
1006.163	337.18
1006.522	295.05
1006.881	311.44
1007.24	250.58
1007.599	341.86
1007.958	325.48
1008.317	318.46
1008.676	323.14
1009.035	330.16
1009.393	295.05
1009.752	288.03
1010.111	339.52
1010.469	271.65
1010.828	276.33
1011.186	276.33
1011.544	353.57
1011.903	262.29
1012.261	255.26
1012.619	299.73
1012.977	285.69
1013.335	325.48
1013.693	283.35
1014.051	295.05
1014.409	278.67
1014.767	332.5
1015.124	320.8
1015.482	276.33
1015.84	215.48
1016.197	283.35
1016.555	369.95
1016.912	337.18
1017.269	327.82
1017.627	344.21
1017.984	341.86
1018.341	243.56
1018.698	325.48
1019.055	292.71
1019.412	255.26
1019.769	299.73
1020.126	292.71
1020.483	292.71
1020.84	355.91
1021.196	355.91
1021.553	334.84
1021.909	323.14
1022.266	304.42
1022.622	339.52
1022.979	320.8
1023.335	278.67
1023.691	281.01
1024.047	295.05
1024.404	313.78
1024.76	323.14
1025.116	222.5
1025.472	288.03
1025.827	309.1
1026.183	341.86
1026.539	313.78
1026.895	255.26
1027.25	362.93
1027.606	236.54
1027.961	341.86
1028.317	229.52
1028.672	323.14
1029.028	334.84
1029.383	271.65
1029.738	318.46
1030.093	327.82
1030.448	318.46
1030.803	367.61
1031.158	250.58
1031.513	316.12
1031.868	273.99
1032.223	316.12
1032.577	355.91
1032.932	316.12
1033.287	316.12
1033.641	374.63
1033.996	334.84
1034.35	334.84
1034.704	259.95
1035.059	325.48
1035.413	339.52
1035.767	339.52
1036.121	339.52
