Data from Al_FLMS009871__1239__16-44-33-775.txt Node

Date: Fri Mar 08 16:44:33 CST 2024
User: pe5414po
Spectrometer: FLMS00987
Trigger mode: 0
Integration Time (sec): 1.000000E-1
Scans to average: 1
Electric dark correction enabled: true
Nonlinearity correction enabled: false
Boxcar width: 0
XAxis mode: Wavelengths
Number of Pixels in Spectrum: 2048
>>>>>Begin Spectral Data<<<<<
188.938	-57.34
189.409	-57.34
189.879	-57.34
190.349	-94.79
190.819	-115.86
191.29	-62.02
191.76	-66.71
192.23	-78.41
192.7	-127.56
193.17	-64.36
193.64	1.17
194.109	-80.75
194.579	-26.92
195.049	-8.19
195.519	3.51
195.988	50.32
196.458	71.39
196.927	45.64
197.397	167.35
197.866	76.07
198.336	99.47
198.805	174.37
199.274	148.62
199.744	97.13
200.213	209.48
200.682	202.46
201.151	216.5
201.62	275.01
202.089	230.54
202.558	296.08
203.027	277.35
203.495	237.56
203.964	263.31
204.433	305.44
204.902	267.99
205.37	314.8
205.839	324.16
206.307	242.25
206.776	263.31
207.244	263.31
207.712	282.03
208.181	263.31
208.649	335.87
209.117	317.14
209.585	312.46
210.053	275.01
210.521	340.55
210.989	298.42
211.457	223.52
211.925	239.9
212.393	314.8
212.861	272.67
213.328	275.01
213.796	303.1
214.264	282.03
214.731	286.72
215.199	293.74
215.666	272.67
216.133	277.35
216.601	204.8
217.068	291.4
217.535	225.86
218.003	321.82
218.47	314.8
218.937	340.55
219.404	340.55
219.871	223.52
220.338	216.5
220.805	310.12
221.271	291.4
221.738	207.14
222.205	256.29
222.671	251.61
223.138	349.91
223.605	246.93
224.071	284.38
224.538	314.8
225.004	275.01
225.47	258.63
225.937	296.08
226.403	267.99
226.869	235.22
227.335	183.73
227.801	263.31
228.267	356.93
228.733	272.67
229.199	251.61
229.665	305.44
230.131	223.52
230.597	251.61
231.062	260.97
231.528	209.48
231.994	333.53
232.459	307.78
232.925	312.46
233.39	270.33
233.856	277.35
234.321	244.59
234.786	237.56
235.252	296.08
235.717	293.74
236.182	249.27
236.647	303.1
237.112	253.95
237.577	296.08
238.042	253.95
238.507	267.99
238.972	282.03
239.436	303.1
239.901	272.67
240.366	265.65
240.83	352.25
241.295	298.42
241.76	244.59
242.224	289.06
242.688	286.72
243.153	286.72
243.617	279.69
244.081	279.69
244.545	298.42
245.01	291.4
245.474	258.63
245.938	270.33
246.402	293.74
246.866	293.74
247.33	326.5
247.793	296.08
248.257	289.06
248.721	272.67
249.185	272.67
249.648	289.06
250.112	263.31
250.575	298.42
251.039	228.2
251.502	256.29
251.965	289.06
252.429	279.69
252.892	307.78
253.355	272.67
253.818	352.25
254.281	289.06
254.744	279.69
255.207	256.29
255.67	317.14
256.133	221.18
256.596	279.69
257.059	284.38
257.522	277.35
257.984	284.38
258.447	235.22
258.909	359.27
259.372	263.31
259.834	305.44
260.297	277.35
260.759	246.93
261.221	216.5
261.684	326.5
262.146	305.44
262.608	347.57
263.07	272.67
263.532	256.29
263.994	251.61
264.456	296.08
264.918	378
265.38	246.93
265.842	296.08
266.303	289.06
266.765	291.4
267.227	272.67
267.688	249.27
268.15	263.31
268.611	260.97
269.072	284.38
269.534	298.42
269.995	300.76
270.456	246.93
270.918	354.59
271.379	310.12
271.84	317.14
272.301	293.74
272.762	314.8
273.223	359.27
273.684	246.93
274.144	340.55
274.605	356.93
275.066	324.16
275.527	272.67
275.987	267.99
276.448	272.67
276.908	260.97
277.369	216.5
277.829	317.14
278.289	258.63
278.75	312.46
279.21	321.82
279.67	321.82
280.13	321.82
280.59	267.99
281.05	305.44
281.51	277.35
281.97	385.02
282.43	300.76
282.89	282.03
283.35	291.4
283.809	277.35
284.269	246.93
284.729	260.97
285.188	275.01
285.648	260.97
286.107	328.85
286.567	300.76
287.026	331.19
287.485	300.76
287.944	275.01
288.404	363.95
288.863	270.33
289.322	253.95
289.781	331.19
290.24	296.08
290.699	349.91
291.158	340.55
291.616	237.56
292.075	300.76
292.534	282.03
292.992	291.4
293.451	352.25
293.91	310.12
294.368	317.14
294.827	331.19
295.285	218.84
295.743	319.48
296.202	331.19
296.66	373.32
297.118	282.03
297.576	314.8
298.034	307.78
298.492	310.12
298.95	293.74
299.408	307.78
299.866	272.67
300.324	251.61
300.781	279.69
301.239	305.44
301.697	265.65
302.154	298.42
302.612	289.06
303.069	298.42
303.527	310.12
303.984	324.16
304.441	293.74
304.899	284.38
305.356	345.23
305.813	293.74
306.27	267.99
306.727	319.48
307.184	296.08
307.641	284.38
308.098	305.44
308.555	333.53
309.012	312.46
309.468	324.16
309.925	324.16
310.382	263.31
310.838	314.8
311.295	319.48
311.751	253.95
312.208	314.8
312.664	289.06
313.12	282.03
313.577	331.19
314.033	298.42
314.489	263.31
314.945	270.33
315.401	354.59
315.857	258.63
316.313	359.27
316.769	246.93
317.225	312.46
317.681	321.82
318.136	291.4
318.592	258.63
319.048	352.25
319.503	249.27
319.959	370.97
320.414	307.78
320.869	324.16
321.325	272.67
321.78	296.08
322.235	277.35
322.691	321.82
323.146	342.89
323.601	303.1
324.056	361.61
324.511	324.16
324.966	319.48
325.421	333.53
325.875	310.12
326.33	347.57
326.785	310.12
327.24	265.65
327.694	342.89
328.149	335.87
328.603	284.38
329.058	321.82
329.512	347.57
329.966	286.72
330.421	345.23
330.875	305.44
331.329	300.76
331.783	363.95
332.237	286.72
332.691	335.87
333.145	324.16
333.599	331.19
334.053	293.74
334.507	342.89
334.96	354.59
335.414	324.16
335.868	319.48
336.321	277.35
336.775	328.85
337.228	326.5
337.682	291.4
338.135	349.91
338.588	286.72
339.042	349.91
339.495	293.74
339.948	303.1
340.401	356.93
340.854	310.12
341.307	291.4
341.76	286.72
342.213	361.61
342.666	331.19
343.119	279.69
343.571	256.29
344.024	328.85
344.477	239.9
344.929	272.67
345.382	331.19
345.834	263.31
346.287	345.23
346.739	272.67
347.191	340.55
347.644	356.93
348.096	251.61
348.548	298.42
349	260.97
349.452	333.53
349.904	303.1
350.356	345.23
350.808	289.06
351.26	307.78
351.711	225.86
352.163	328.85
352.615	317.14
353.066	326.5
353.518	303.1
353.969	298.42
354.421	354.59
354.872	326.5
355.324	335.87
355.775	310.12
356.226	312.46
356.677	298.42
357.128	326.5
357.579	321.82
358.03	340.55
358.481	244.59
358.932	312.46
359.383	326.5
359.834	338.21
360.285	370.97
360.735	335.87
361.186	282.03
361.637	265.65
362.087	331.19
362.538	305.44
362.988	321.82
363.438	373.32
363.889	324.16
364.339	286.72
364.789	300.76
365.239	314.8
365.689	284.38
366.139	347.57
366.589	352.25
367.039	246.93
367.489	314.8
367.939	300.76
368.389	349.91
368.839	342.89
369.288	300.76
369.738	267.99
370.187	368.63
370.637	352.25
371.086	314.8
371.536	246.93
371.985	300.76
372.434	338.21
372.884	399.06
373.333	310.12
373.782	267.99
374.231	321.82
374.68	237.56
375.129	333.53
375.578	284.38
376.027	286.72
376.475	296.08
376.924	361.61
377.373	319.48
377.822	328.85
378.27	296.08
378.719	333.53
379.167	333.53
379.616	303.1
380.064	275.01
380.512	282.03
380.961	333.53
381.409	324.16
381.857	319.48
382.305	347.57
382.753	331.19
383.201	221.18
383.649	338.21
384.097	378
384.545	317.14
384.992	314.8
385.44	305.44
385.888	321.82
386.335	305.44
386.783	265.65
387.231	319.48
387.678	263.31
388.125	333.53
388.573	328.85
389.02	338.21
389.467	312.46
389.914	265.65
390.362	310.12
390.809	340.55
391.256	349.91
391.703	314.8
392.15	319.48
392.596	293.74
393.043	272.67
393.49	296.08
393.937	286.72
394.383	345.23
394.83	310.12
395.276	368.63
395.723	272.67
396.169	333.53
396.616	303.1
397.062	307.78
397.508	216.5
397.954	340.55
398.401	333.53
398.847	305.44
399.293	415.45
399.739	326.5
400.185	333.53
400.631	277.35
401.076	314.8
401.522	328.85
401.968	345.23
402.414	258.63
402.859	319.48
403.305	347.57
403.75	303.1
404.196	303.1
404.641	291.4
405.086	378
405.532	312.46
405.977	263.31
406.422	342.89
406.867	303.1
407.312	375.66
407.757	333.53
408.202	317.14
408.647	300.76
409.092	296.08
409.537	298.42
409.982	342.89
410.426	331.19
410.871	326.5
411.316	366.29
411.76	289.06
412.205	380.34
412.649	324.16
413.093	265.65
413.538	321.82
413.982	317.14
414.426	296.08
414.87	342.89
415.314	286.72
415.758	277.35
416.202	368.63
416.646	296.08
417.09	314.8
417.534	305.44
417.978	310.12
418.421	258.63
418.865	324.16
419.309	286.72
419.752	328.85
420.196	265.65
420.639	296.08
421.083	300.76
421.526	328.85
421.969	326.5
422.412	282.03
422.856	310.12
423.299	340.55
423.742	326.5
424.185	359.27
424.628	256.29
425.071	270.33
425.513	239.9
425.956	340.55
426.399	277.35
426.842	342.89
427.284	406.08
427.727	291.4
428.169	324.16
428.612	305.44
429.054	310.12
429.497	272.67
429.939	321.82
430.381	286.72
430.823	286.72
431.265	326.5
431.707	354.59
432.149	361.61
432.591	296.08
433.033	319.48
433.475	378
433.917	335.87
434.359	361.61
434.8	277.35
435.242	387.36
435.684	361.61
436.125	354.59
436.567	389.7
437.008	342.89
437.449	366.29
437.891	314.8
438.332	321.82
438.773	342.89
439.214	328.85
439.656	284.38
440.097	338.21
440.538	338.21
440.978	328.85
441.419	317.14
441.86	314.8
442.301	270.33
442.742	312.46
443.182	293.74
443.623	289.06
444.063	263.31
444.504	368.63
444.944	300.76
445.385	296.08
445.825	326.5
446.265	359.27
446.706	333.53
447.146	321.82
447.586	333.53
448.026	321.82
448.466	319.48
448.906	385.02
449.346	380.34
449.786	300.76
450.225	314.8
450.665	326.5
451.105	321.82
451.544	300.76
451.984	303.1
452.424	338.21
452.863	387.36
453.302	361.61
453.742	326.5
454.181	352.25
454.62	378
455.059	291.4
455.499	319.48
455.938	363.95
456.377	370.97
456.816	300.76
457.254	303.1
457.693	275.01
458.132	373.32
458.571	310.12
459.01	321.82
459.448	314.8
459.887	328.85
460.325	326.5
460.764	298.42
461.202	291.4
461.641	356.93
462.079	279.69
462.517	298.42
462.955	331.19
463.393	303.1
463.832	378
464.27	340.55
464.708	321.82
465.145	356.93
465.583	338.21
466.021	413.1
466.459	370.97
466.897	300.76
467.334	368.63
467.772	312.46
468.209	392.04
468.647	361.61
469.084	270.33
469.522	352.25
469.959	291.4
470.396	326.5
470.833	333.53
471.271	340.55
471.708	296.08
472.145	340.55
472.582	279.69
473.019	319.48
473.456	338.21
473.892	324.16
474.329	333.53
474.766	317.14
475.202	326.5
475.639	307.78
476.076	366.29
476.512	352.25
476.949	326.5
477.385	265.65
477.821	331.19
478.258	331.19
478.694	328.85
479.13	335.87
479.566	291.4
480.002	314.8
480.438	342.89
480.874	335.87
481.31	298.42
481.746	331.19
482.181	356.93
482.617	282.03
483.053	298.42
483.488	289.06
483.924	319.48
484.36	331.19
484.795	410.76
485.23	401.4
485.666	312.46
486.101	270.33
486.536	305.44
486.971	298.42
487.407	303.1
487.842	356.93
488.277	354.59
488.712	328.85
489.146	298.42
489.581	300.76
490.016	279.69
490.451	331.19
490.885	345.23
491.32	321.82
491.755	321.82
492.189	275.01
492.624	328.85
493.058	265.65
493.492	333.53
493.927	347.57
494.361	342.89
494.795	387.36
495.229	324.16
495.663	342.89
496.097	335.87
496.531	338.21
496.965	366.29
497.399	310.12
497.833	370.97
498.266	335.87
498.7	265.65
499.134	275.01
499.567	340.55
500.001	272.67
500.434	406.08
500.868	356.93
501.301	342.89
501.734	366.29
502.168	279.69
502.601	342.89
503.034	312.46
503.467	314.8
503.9	303.1
504.333	349.91
504.766	300.76
505.199	352.25
505.632	328.85
506.064	328.85
506.497	403.74
506.93	349.91
507.362	328.85
507.795	265.65
508.227	326.5
508.66	368.63
509.092	338.21
509.524	298.42
509.956	333.53
510.389	326.5
510.821	356.93
511.253	363.95
511.685	378
512.117	305.44
512.549	270.33
512.981	260.97
513.412	321.82
513.844	361.61
514.276	338.21
514.707	331.19
515.139	307.78
515.571	324.16
516.002	310.12
516.433	354.59
516.865	352.25
517.296	317.14
517.727	375.66
518.159	335.87
518.59	345.23
519.021	333.53
519.452	378
519.883	284.38
520.314	293.74
520.744	326.5
521.175	282.03
521.606	347.57
522.037	352.25
522.467	319.48
522.898	340.55
523.328	317.14
523.759	331.19
524.189	342.89
524.62	289.06
525.05	282.03
525.48	354.59
525.91	314.8
526.341	324.16
526.771	378
527.201	303.1
527.631	326.5
528.061	305.44
528.49	347.57
528.92	282.03
529.35	319.48
529.78	321.82
530.209	291.4
530.639	363.95
531.068	298.42
531.498	260.97
531.927	352.25
532.357	279.69
532.786	373.32
533.215	270.33
533.644	293.74
534.074	333.53
534.503	289.06
534.932	251.61
535.361	251.61
535.79	366.29
536.218	272.67
536.647	293.74
537.076	251.61
537.505	284.38
537.933	307.78
538.362	331.19
538.79	300.76
539.219	420.13
539.647	333.53
540.076	340.55
540.504	347.57
540.932	293.74
541.36	335.87
541.788	286.72
542.217	389.7
542.645	270.33
543.073	282.03
543.5	326.5
543.928	333.53
544.356	385.02
544.784	326.5
545.211	321.82
545.639	312.46
546.067	282.03
546.494	303.1
546.922	382.68
547.349	375.66
547.776	291.4
548.204	307.78
548.631	352.25
549.058	321.82
549.485	279.69
549.912	293.74
550.339	293.74
550.766	347.57
551.193	310.12
551.62	293.74
552.047	333.53
552.474	310.12
552.9	326.5
553.327	317.14
553.754	296.08
554.18	286.72
554.607	293.74
555.033	317.14
555.459	293.74
555.886	286.72
556.312	319.48
556.738	277.35
557.164	326.5
557.59	267.99
558.016	310.12
558.442	270.33
558.868	258.63
559.294	378
559.72	352.25
560.145	359.27
560.571	307.78
560.997	296.08
561.422	291.4
561.848	324.16
562.273	300.76
562.699	326.5
563.124	291.4
563.549	363.95
563.974	263.31
564.4	345.23
564.825	368.63
565.25	237.56
565.675	303.1
566.1	321.82
566.525	307.78
566.95	310.12
567.374	356.93
567.799	333.53
568.224	305.44
568.648	289.06
569.073	298.42
569.497	275.01
569.922	338.21
570.346	361.61
570.771	335.87
571.195	251.61
571.619	347.57
572.043	312.46
572.467	272.67
572.891	378
573.315	284.38
573.739	331.19
574.163	235.22
574.587	317.14
575.011	282.03
575.435	305.44
575.858	394.38
576.282	307.78
576.705	279.69
577.129	317.14
577.552	300.76
577.976	359.27
578.399	335.87
578.822	387.36
579.245	349.91
579.669	335.87
580.092	366.29
580.515	312.46
580.938	310.12
581.361	310.12
581.784	331.19
582.206	326.5
582.629	352.25
583.052	326.5
583.474	317.14
583.897	347.57
584.32	345.23
584.742	338.21
585.165	303.1
585.587	359.27
586.009	335.87
586.431	340.55
586.854	321.82
587.276	328.85
587.698	286.72
588.12	307.78
588.542	342.89
588.964	314.8
589.386	298.42
589.807	305.44
590.229	275.01
590.651	305.44
591.073	296.08
591.494	265.65
591.916	328.85
592.337	263.31
592.759	286.72
593.18	366.29
593.601	314.8
594.022	312.46
594.444	223.52
594.865	282.03
595.286	312.46
595.707	296.08
596.128	324.16
596.549	265.65
596.97	349.91
597.39	300.76
597.811	375.66
598.232	324.16
598.652	286.72
599.073	342.89
599.494	378
599.914	345.23
600.334	342.89
600.755	286.72
601.175	282.03
601.595	394.38
602.015	321.82
602.436	296.08
602.856	403.74
603.276	331.19
603.696	349.91
604.115	319.48
604.535	324.16
604.955	307.78
605.375	319.48
605.794	296.08
606.214	303.1
606.634	338.21
607.053	298.42
607.473	349.91
607.892	347.57
608.311	328.85
608.731	284.38
609.15	335.87
609.569	361.61
609.988	275.01
610.407	396.72
610.826	338.21
611.245	312.46
611.664	300.76
612.083	314.8
612.501	277.35
612.92	349.91
613.339	314.8
613.757	246.93
614.176	338.21
614.594	352.25
615.013	296.08
615.431	338.21
615.85	333.53
616.268	298.42
616.686	324.16
617.104	314.8
617.522	359.27
617.94	333.53
618.358	312.46
618.776	366.29
619.194	352.25
619.612	328.85
620.03	300.76
620.447	314.8
620.865	289.06
621.282	338.21
621.7	378
622.117	392.04
622.535	417.79
622.952	349.91
623.369	326.5
623.787	305.44
624.204	312.46
624.621	305.44
625.038	286.72
625.455	298.42
625.872	328.85
626.289	370.97
626.706	282.03
627.123	267.99
627.539	340.55
627.956	279.69
628.373	352.25
628.789	251.61
629.206	342.89
629.622	370.97
630.038	368.63
630.455	324.16
630.871	293.74
631.287	314.8
631.703	272.67
632.12	305.44
632.536	333.53
632.952	305.44
633.368	296.08
633.783	373.32
634.199	286.72
634.615	328.85
635.031	319.48
635.446	324.16
635.862	331.19
636.277	319.48
636.693	359.27
637.108	359.27
637.524	333.53
637.939	375.66
638.354	260.97
638.77	305.44
639.185	300.76
639.6	277.35
640.015	293.74
640.43	284.38
640.845	366.29
641.259	312.46
641.674	258.63
642.089	338.21
642.504	333.53
642.918	363.95
643.333	296.08
643.747	282.03
644.162	284.38
644.576	277.35
644.991	354.59
645.405	389.7
645.819	340.55
646.233	258.63
646.647	375.66
647.061	335.87
647.475	328.85
647.889	277.35
648.303	314.8
648.717	307.78
649.131	284.38
649.545	326.5
649.958	366.29
650.372	296.08
650.785	284.38
651.199	342.89
651.612	331.19
652.026	317.14
652.439	347.57
652.852	235.22
653.266	300.76
653.679	211.82
654.092	331.19
654.505	359.27
654.918	303.1
655.331	260.97
655.744	403.74
656.156	347.57
656.569	328.85
656.982	263.31
657.394	317.14
657.807	349.91
658.22	340.55
658.632	307.78
659.044	321.82
659.457	284.38
659.869	347.57
660.281	328.85
660.693	284.38
661.106	356.93
661.518	300.76
661.93	326.5
662.342	284.38
662.754	310.12
663.165	345.23
663.577	354.59
663.989	368.63
664.401	356.93
664.812	289.06
665.224	382.68
665.635	246.93
666.047	342.89
666.458	321.82
666.869	298.42
667.281	270.33
667.692	314.8
668.103	230.54
668.514	352.25
668.925	303.1
669.336	251.61
669.747	296.08
670.158	342.89
670.569	286.72
670.979	356.93
671.39	354.59
671.801	258.63
672.211	314.8
672.622	338.21
673.032	242.25
673.443	293.74
673.853	305.44
674.263	272.67
674.674	289.06
675.084	270.33
675.494	282.03
675.904	366.29
676.314	420.13
676.724	349.91
677.134	345.23
677.544	354.59
677.953	387.36
678.363	363.95
678.773	417.79
679.182	396.72
679.592	335.87
680.001	319.48
680.411	363.95
680.82	352.25
681.23	366.29
681.639	303.1
682.048	298.42
682.457	331.19
682.866	328.85
683.275	237.56
683.684	300.76
684.093	345.23
684.502	352.25
684.911	293.74
685.32	296.08
685.728	326.5
686.137	368.63
686.546	314.8
686.954	305.44
687.363	342.89
687.771	335.87
688.179	296.08
688.588	314.8
688.996	300.76
689.404	328.85
689.812	307.78
690.22	296.08
690.628	300.76
691.036	354.59
691.444	345.23
691.852	326.5
692.26	328.85
692.667	317.14
693.075	293.74
693.483	349.91
693.89	307.78
694.298	335.87
694.705	307.78
695.112	342.89
695.52	324.16
695.927	326.5
696.334	396.72
696.741	279.69
697.148	324.16
697.555	333.53
697.962	312.46
698.369	282.03
698.776	373.32
699.183	375.66
699.59	361.61
699.996	342.89
700.403	373.32
700.81	368.63
701.216	284.38
701.623	286.72
702.029	272.67
702.435	326.5
702.842	314.8
703.248	375.66
703.654	347.57
704.06	354.59
704.466	260.97
704.872	286.72
705.278	387.36
705.684	354.59
706.09	307.78
706.496	293.74
706.901	300.76
707.307	272.67
707.712	335.87
708.118	317.14
708.523	291.4
708.929	317.14
709.334	303.1
709.74	265.65
710.145	284.38
710.55	317.14
710.955	289.06
711.36	300.76
711.765	305.44
712.17	296.08
712.575	321.82
712.98	832.06
713.385	378
713.789	282.03
714.194	310.12
714.599	286.72
715.003	326.5
715.408	333.53
715.812	293.74
716.217	349.91
716.621	356.93
717.025	303.1
717.429	314.8
717.833	333.53
718.238	310.12
718.642	354.59
719.046	300.76
719.449	328.85
719.853	291.4
720.257	373.32
720.661	317.14
721.065	260.97
721.468	335.87
721.872	298.42
722.275	321.82
722.679	401.4
723.082	331.19
723.485	349.91
723.889	321.82
724.292	310.12
724.695	349.91
725.098	347.57
725.501	291.4
725.904	305.44
726.307	293.74
726.71	366.29
727.113	279.69
727.516	317.14
727.918	319.48
728.321	342.89
728.724	359.27
729.126	293.74
729.529	378
729.931	349.91
730.333	277.35
730.736	314.8
731.138	272.67
731.54	399.06
731.942	375.66
732.344	286.72
732.746	272.67
733.148	420.13
733.55	286.72
733.952	354.59
734.354	314.8
734.756	303.1
735.157	345.23
735.559	361.61
735.96	326.5
736.362	366.29
736.763	267.99
737.165	307.78
737.566	263.31
737.967	251.61
738.368	340.55
738.77	286.72
739.171	359.27
739.572	303.1
739.973	298.42
740.374	249.27
740.774	356.93
741.175	319.48
741.576	319.48
741.977	331.19
742.377	352.25
742.778	378
743.178	289.06
743.579	359.27
743.979	342.89
744.379	314.8
744.78	356.93
745.18	378
745.58	324.16
745.98	296.08
746.38	352.25
746.78	289.06
747.18	338.21
747.58	300.76
747.98	328.85
748.38	352.25
748.779	363.95
749.179	265.65
749.578	345.23
749.978	349.91
750.377	310.12
750.777	401.4
751.176	300.76
751.575	401.4
751.975	291.4
752.374	293.74
752.773	284.38
753.172	298.42
753.571	354.59
753.97	303.1
754.369	249.27
754.768	300.76
755.166	312.46
755.565	363.95
755.964	300.76
756.362	319.48
756.761	368.63
757.159	403.74
757.558	331.19
757.956	289.06
758.354	354.59
758.753	263.31
759.151	326.5
759.549	324.16
759.947	279.69
760.345	284.38
760.743	256.29
761.141	260.97
761.539	310.12
761.936	349.91
762.334	338.21
762.732	333.53
763.129	326.5
763.527	331.19
763.924	314.8
764.322	354.59
764.719	342.89
765.117	289.06
765.514	300.76
765.911	249.27
766.308	335.87
766.705	338.21
767.102	368.63
767.499	317.14
767.896	277.35
768.293	307.78
768.69	293.74
769.086	310.12
769.483	321.82
769.88	296.08
770.276	317.14
770.673	324.16
771.069	349.91
771.466	385.02
771.862	328.85
772.258	326.5
772.654	314.8
773.05	305.44
773.447	331.19
773.843	363.95
774.239	312.46
774.634	314.8
775.03	258.63
775.426	277.35
775.822	349.91
776.218	324.16
776.613	319.48
777.009	347.57
777.404	272.67
777.8	310.12
778.195	272.67
778.59	293.74
778.986	275.01
779.381	284.38
779.776	349.91
780.171	275.01
780.566	300.76
780.961	300.76
781.356	310.12
781.751	356.93
782.146	300.76
782.54	279.69
782.935	265.65
783.33	312.46
783.724	335.87
784.119	303.1
784.513	246.93
784.908	314.8
785.302	319.48
785.696	289.06
786.09	300.76
786.485	324.16
786.879	277.35
787.273	345.23
787.667	373.32
788.061	307.78
788.454	305.44
788.848	277.35
789.242	307.78
789.636	270.33
790.029	298.42
790.423	324.16
790.816	314.8
791.21	284.38
791.603	354.59
791.997	317.14
792.39	342.89
792.783	361.61
793.176	314.8
793.569	317.14
793.962	373.32
794.355	413.1
794.748	291.4
795.141	272.67
795.534	251.61
795.927	378
796.319	298.42
796.712	317.14
797.105	326.5
797.497	382.68
797.89	296.08
798.282	317.14
798.674	401.4
799.067	317.14
799.459	354.59
799.851	300.76
800.243	326.5
800.635	335.87
801.027	349.91
801.419	307.78
801.811	335.87
802.203	335.87
802.594	345.23
802.986	347.57
803.378	368.63
803.769	359.27
804.161	349.91
804.552	204.8
804.944	265.65
805.335	333.53
805.726	328.85
806.118	211.82
806.509	279.69
806.9	286.72
807.291	324.16
807.682	307.78
808.073	324.16
808.464	321.82
808.855	267.99
809.245	361.61
809.636	279.69
810.027	314.8
810.417	333.53
810.808	338.21
811.198	333.53
811.589	340.55
811.979	319.48
812.369	253.95
812.759	335.87
813.15	347.57
813.54	249.27
813.93	321.82
814.32	284.38
814.71	265.65
815.1	354.59
815.489	300.76
815.879	342.89
816.269	352.25
816.658	342.89
817.048	303.1
817.438	289.06
817.827	333.53
818.216	300.76
818.606	277.35
818.995	314.8
819.384	340.55
819.773	324.16
820.163	387.36
820.552	342.89
820.941	319.48
821.33	366.29
821.718	249.27
822.107	272.67
822.496	385.02
822.885	317.14
823.273	321.82
823.662	375.66
824.05	345.23
824.439	312.46
824.827	279.69
825.216	310.12
825.604	340.55
825.992	298.42
826.38	277.35
826.768	298.42
827.156	298.42
827.544	324.16
827.932	307.78
828.32	333.53
828.708	312.46
829.096	293.74
829.483	282.03
829.871	289.06
830.259	361.61
830.646	305.44
831.034	342.89
831.421	298.42
831.808	345.23
832.196	314.8
832.583	342.89
832.97	333.53
833.357	331.19
833.744	265.65
834.131	305.44
834.518	314.8
834.905	328.85
835.292	263.31
835.678	314.8
836.065	296.08
836.452	296.08
836.838	289.06
837.225	284.38
837.611	291.4
837.998	282.03
838.384	375.66
838.77	256.29
839.157	338.21
839.543	289.06
839.929	307.78
840.315	335.87
840.701	296.08
841.087	279.69
841.473	345.23
841.858	284.38
842.244	321.82
842.63	314.8
843.015	284.38
843.401	392.04
843.787	319.48
844.172	296.08
844.557	328.85
844.943	385.02
845.328	363.95
845.713	284.38
846.098	385.02
846.483	340.55
846.868	298.42
847.253	326.5
847.638	333.53
848.023	293.74
848.408	338.21
848.793	331.19
849.177	298.42
849.562	314.8
849.947	333.53
850.331	340.55
850.715	347.57
851.1	335.87
851.484	361.61
851.868	310.12
852.253	347.57
852.637	293.74
853.021	284.38
853.405	324.16
853.789	317.14
854.173	242.25
854.557	305.44
854.94	319.48
855.324	272.67
855.708	321.82
856.091	303.1
856.475	263.31
856.858	331.19
857.242	331.19
857.625	347.57
858.009	310.12
858.392	321.82
858.775	310.12
859.158	272.67
859.541	335.87
859.924	303.1
860.307	324.16
860.69	321.82
861.073	340.55
861.456	298.42
861.838	319.48
862.221	244.59
862.604	347.57
862.986	314.8
863.369	303.1
863.751	312.46
864.133	359.27
864.516	307.78
864.898	324.16
865.28	277.35
865.662	333.53
866.044	324.16
866.426	363.95
866.808	370.97
867.19	408.42
867.572	314.8
867.954	347.57
868.336	307.78
868.717	291.4
869.099	300.76
869.48	305.44
869.862	345.23
870.243	326.5
870.625	307.78
871.006	340.55
871.387	319.48
871.768	289.06
872.149	317.14
872.53	275.01
872.911	347.57
873.292	359.27
873.673	303.1
874.054	335.87
874.435	314.8
874.815	298.42
875.196	211.82
875.577	230.54
875.957	251.61
876.338	291.4
876.718	307.78
877.098	338.21
877.479	296.08
877.859	298.42
878.239	275.01
878.619	303.1
878.999	260.97
879.379	310.12
879.759	275.01
880.139	342.89
880.519	272.67
880.898	232.88
881.278	293.74
881.658	282.03
882.037	258.63
882.417	246.93
882.796	331.19
883.176	282.03
883.555	307.78
883.934	267.99
884.313	370.97
884.693	291.4
885.072	326.5
885.451	275.01
885.83	291.4
886.209	380.34
886.587	363.95
886.966	349.91
887.345	399.06
887.724	363.95
888.102	342.89
888.481	354.59
888.859	333.53
889.238	272.67
889.616	293.74
889.994	389.7
890.373	279.69
890.751	324.16
891.129	307.78
891.507	300.76
891.885	338.21
892.263	275.01
892.641	319.48
893.019	293.74
893.396	251.61
893.774	265.65
894.152	286.72
894.529	298.42
894.907	300.76
895.284	279.69
895.662	286.72
896.039	296.08
896.416	303.1
896.794	232.88
897.171	392.04
897.548	347.57
897.925	328.85
898.302	333.53
898.679	331.19
899.056	275.01
899.433	335.87
899.809	303.1
900.186	282.03
900.563	328.85
900.939	314.8
901.316	345.23
901.692	291.4
902.069	260.97
902.445	321.82
902.821	277.35
903.197	251.61
903.574	345.23
903.95	307.78
904.326	291.4
904.702	328.85
905.078	335.87
905.454	242.25
905.829	307.78
906.205	303.1
906.581	289.06
906.956	279.69
907.332	326.5
907.707	354.59
908.083	305.44
908.458	326.5
908.833	256.29
909.209	359.27
909.584	312.46
909.959	342.89
910.334	326.5
910.709	300.76
911.084	328.85
911.459	324.16
911.834	356.93
912.209	307.78
912.583	378
912.958	293.74
913.333	324.16
913.707	321.82
914.082	331.19
914.456	356.93
914.83	314.8
915.205	286.72
915.579	338.21
915.953	333.53
916.327	326.5
916.701	286.72
917.075	328.85
917.449	331.19
917.823	310.12
918.197	293.74
918.571	235.22
918.944	354.59
919.318	225.86
919.692	345.23
920.065	286.72
920.438	303.1
920.812	303.1
921.185	335.87
921.558	242.25
921.932	314.8
922.305	277.35
922.678	319.48
923.051	415.45
923.424	321.82
923.797	352.25
924.17	286.72
924.542	317.14
924.915	356.93
925.288	282.03
925.661	282.03
926.033	328.85
926.406	251.61
926.778	289.06
927.15	303.1
927.523	317.14
927.895	331.19
928.267	270.33
928.639	270.33
929.011	347.57
929.383	232.88
929.755	282.03
930.127	349.91
930.499	298.42
930.871	284.38
931.242	284.38
931.614	303.1
931.986	244.59
932.357	321.82
932.729	338.21
933.1	310.12
933.471	272.67
933.843	265.65
934.214	277.35
934.585	321.82
934.956	303.1
935.327	326.5
935.698	380.34
936.069	338.21
936.44	431.83
936.811	324.16
937.182	298.42
937.552	361.61
937.923	303.1
938.293	326.5
938.664	314.8
939.034	307.78
939.405	352.25
939.775	338.21
940.145	298.42
940.516	361.61
940.886	335.87
941.256	361.61
941.626	279.69
941.996	335.87
942.366	282.03
942.735	298.42
943.105	342.89
943.475	289.06
943.845	331.19
944.214	317.14
944.584	340.55
944.953	324.16
945.323	349.91
945.692	319.48
946.061	303.1
946.43	305.44
946.8	342.89
947.169	272.67
947.538	317.14
947.907	356.93
948.276	324.16
948.645	324.16
949.013	256.29
949.382	289.06
949.751	363.95
950.119	333.53
950.488	291.4
950.857	267.99
951.225	279.69
951.593	321.82
951.962	328.85
952.33	307.78
952.698	253.95
953.066	275.01
953.434	253.95
953.802	326.5
954.17	321.82
954.538	303.1
954.906	310.12
955.274	354.59
955.642	298.42
956.009	300.76
956.377	319.48
956.744	242.25
957.112	345.23
957.479	326.5
957.847	382.68
958.214	340.55
958.581	331.19
958.948	223.52
959.315	307.78
959.683	298.42
960.05	338.21
960.416	314.8
960.783	260.97
961.15	260.97
961.517	321.82
961.884	359.27
962.25	342.89
962.617	335.87
962.983	312.46
963.35	310.12
963.716	319.48
964.082	399.06
964.449	312.46
964.815	296.08
965.181	321.82
965.547	312.46
965.913	314.8
966.279	356.93
966.645	263.31
967.011	267.99
967.377	263.31
967.742	291.4
968.108	321.82
968.474	373.32
968.839	324.16
969.205	312.46
969.57	312.46
969.935	282.03
970.301	307.78
970.666	338.21
971.031	342.89
971.396	263.31
971.761	340.55
972.126	303.1
972.491	279.69
972.856	253.95
973.221	265.65
973.586	296.08
973.95	277.35
974.315	298.42
974.679	279.69
975.044	277.35
975.408	305.44
975.773	296.08
976.137	349.91
976.501	284.38
976.866	282.03
977.23	305.44
977.594	300.76
977.958	338.21
978.322	319.48
978.686	307.78
979.049	319.48
979.413	349.91
979.777	363.95
980.141	284.38
980.504	368.63
980.868	289.06
981.231	324.16
981.595	307.78
981.958	328.85
982.321	375.66
982.684	289.06
983.048	314.8
983.411	354.59
983.774	298.42
984.137	368.63
984.5	359.27
984.862	319.48
985.225	312.46
985.588	326.5
985.951	267.99
986.313	263.31
986.676	321.82
987.038	286.72
987.401	345.23
987.763	296.08
988.125	251.61
988.488	296.08
988.85	296.08
989.212	293.74
989.574	310.12
989.936	321.82
990.298	310.12
990.66	370.97
991.022	310.12
991.383	340.55
991.745	296.08
992.107	293.74
992.468	272.67
992.83	359.27
993.191	370.97
993.553	347.57
993.914	356.93
994.275	298.42
994.637	319.48
994.998	370.97
995.359	293.74
995.72	340.55
996.081	326.5
996.442	260.97
996.803	211.82
997.163	310.12
997.524	235.22
997.885	359.27
998.245	345.23
998.606	282.03
998.966	326.5
999.327	317.14
999.687	324.16
1000.047	289.06
1000.408	279.69
1000.768	303.1
1001.128	312.46
1001.488	296.08
1001.848	335.87
1002.208	298.42
1002.568	296.08
1002.927	282.03
1003.287	253.95
1003.647	345.23
1004.007	307.78
1004.366	310.12
1004.726	312.46
1005.085	284.38
1005.444	331.19
1005.804	246.93
1006.163	303.1
1006.522	286.72
1006.881	328.85
1007.24	296.08
1007.599	282.03
1007.958	305.44
1008.317	324.16
1008.676	340.55
1009.035	366.29
1009.393	382.68
1009.752	310.12
1010.111	310.12
1010.469	296.08
1010.828	228.2
1011.186	293.74
1011.544	298.42
1011.903	321.82
1012.261	277.35
1012.619	272.67
1012.977	310.12
1013.335	373.32
1013.693	267.99
1014.051	286.72
1014.409	293.74
1014.767	251.61
1015.124	368.63
1015.482	310.12
1015.84	366.29
1016.197	314.8
1016.555	317.14
1016.912	253.95
1017.269	307.78
1017.627	326.5
1017.984	286.72
1018.341	298.42
1018.698	317.14
1019.055	298.42
1019.412	279.69
1019.769	314.8
1020.126	303.1
1020.483	293.74
1020.84	298.42
1021.196	307.78
1021.553	328.85
1021.909	310.12
1022.266	272.67
1022.622	298.42
1022.979	359.27
1023.335	298.42
1023.691	275.01
1024.047	312.46
1024.404	340.55
1024.76	258.63
1025.116	251.61
1025.472	342.89
1025.827	319.48
1026.183	314.8
1026.539	352.25
1026.895	345.23
1027.25	314.8
1027.606	307.78
1027.961	347.57
1028.317	272.67
1028.672	251.61
1029.028	319.48
1029.383	279.69
1029.738	293.74
1030.093	265.65
1030.448	349.91
1030.803	363.95
1031.158	246.93
1031.513	328.85
1031.868	267.99
1032.223	282.03
1032.577	387.36
1032.932	282.03
1033.287	284.38
1033.641	319.48
1033.996	260.97
1034.35	277.35
1034.704	303.1
1035.059	305.44
1035.413	298.42
1035.767	298.42
1036.121	298.42
