Data from Al_FLMS009871__1230__16-44-32-875.txt Node

Date: Fri Mar 08 16:44:32 CST 2024
User: pe5414po
Spectrometer: FLMS00987
Trigger mode: 0
Integration Time (sec): 1.000000E-1
Scans to average: 1
Electric dark correction enabled: true
Nonlinearity correction enabled: false
Boxcar width: 0
XAxis mode: Wavelengths
Number of Pixels in Spectrum: 2048
>>>>>Begin Spectral Data<<<<<
188.938	-75.77
189.409	-75.77
189.879	-75.77
190.349	-129.61
190.819	-153.01
191.29	-143.65
191.76	-150.67
192.23	-40.67
192.7	-19.6
193.17	-82.8
193.64	-40.67
194.109	-12.58
194.579	-7.9
195.049	6.14
195.519	-0.88
195.988	62.32
196.458	29.55
196.927	59.98
197.397	99.77
197.866	104.45
198.336	137.21
198.805	233.18
199.274	186.37
199.744	165.3
200.213	200.41
200.682	258.92
201.151	268.28
201.62	301.05
202.089	221.47
202.558	322.12
203.027	319.78
203.495	296.37
203.964	275.31
204.433	272.96
204.902	322.12
205.37	247.22
205.839	254.24
206.307	289.35
206.776	298.71
207.244	308.07
207.712	303.39
208.181	331.48
208.649	296.37
209.117	357.22
209.585	324.46
210.053	322.12
210.521	289.35
210.989	301.05
211.457	340.84
211.925	263.6
212.393	256.58
212.861	315.09
213.328	275.31
213.796	237.86
214.264	331.48
214.731	303.39
215.199	193.39
215.666	237.86
216.133	303.39
216.601	289.35
217.068	289.35
217.535	333.82
218.003	261.26
218.47	251.9
218.937	226.15
219.404	301.05
219.871	249.56
220.338	333.82
220.805	287.01
221.271	279.99
221.738	265.94
222.205	315.09
222.671	235.52
223.138	287.01
223.605	291.69
224.071	284.67
224.538	221.47
225.004	284.67
225.47	315.09
225.937	209.77
226.403	209.77
226.869	310.41
227.335	251.9
227.801	343.18
228.267	312.75
228.733	312.75
229.199	289.35
229.665	277.65
230.131	310.41
230.597	270.62
231.062	261.26
231.528	291.69
231.994	315.09
232.459	265.94
232.925	296.37
233.39	287.01
233.856	251.9
234.321	282.33
234.786	322.12
235.252	244.88
235.717	324.46
236.182	352.54
236.647	256.58
237.112	345.52
237.577	298.71
238.042	296.37
238.507	272.96
238.972	279.99
239.436	319.78
239.901	287.01
240.366	282.33
240.83	256.58
241.295	244.88
241.76	265.94
242.224	301.05
242.688	326.8
243.153	270.62
243.617	359.56
244.081	373.61
244.545	326.8
245.01	315.09
245.474	202.75
245.938	308.07
246.402	315.09
246.866	329.14
247.33	272.96
247.793	282.33
248.257	296.37
248.721	230.84
249.185	265.94
249.648	298.71
250.112	308.07
250.575	296.37
251.039	254.24
251.502	308.07
251.965	319.78
252.429	310.41
252.892	305.73
253.355	270.62
253.818	291.69
254.281	303.39
254.744	303.39
255.207	268.28
255.67	347.86
256.133	265.94
256.596	312.75
257.059	336.16
257.522	305.73
257.984	251.9
258.447	279.99
258.909	279.99
259.372	366.59
259.834	291.69
260.297	272.96
260.759	315.09
261.221	296.37
261.684	322.12
262.146	317.44
262.608	303.39
263.07	310.41
263.532	333.82
263.994	350.2
264.456	352.54
264.918	242.54
265.38	289.35
265.842	310.41
266.303	247.22
266.765	296.37
267.227	277.65
267.688	333.82
268.15	317.44
268.611	359.56
269.072	375.95
269.534	305.73
269.995	399.35
270.456	315.09
270.918	279.99
271.379	336.16
271.84	272.96
272.301	198.07
272.762	343.18
273.223	272.96
273.684	244.88
274.144	294.03
274.605	345.52
275.066	291.69
275.527	308.07
275.987	336.16
276.448	279.99
276.908	254.24
277.369	289.35
277.829	268.28
278.289	310.41
278.75	296.37
279.21	289.35
279.67	235.52
280.13	287.01
280.59	298.71
281.05	272.96
281.51	301.05
281.97	261.26
282.43	361.91
282.89	254.24
283.35	265.94
283.809	275.31
284.269	333.82
284.729	296.37
285.188	359.56
285.648	270.62
286.107	294.03
286.567	333.82
287.026	371.27
287.485	322.12
287.944	301.05
288.404	294.03
288.863	319.78
289.322	301.05
289.781	303.39
290.24	340.84
290.699	294.03
291.158	387.65
291.616	289.35
292.075	340.84
292.534	308.07
292.992	368.93
293.451	345.52
293.91	343.18
294.368	354.88
294.827	305.73
295.285	322.12
295.743	329.14
296.202	277.65
296.66	324.46
297.118	301.05
297.576	359.56
298.034	298.71
298.492	343.18
298.95	319.78
299.408	284.67
299.866	359.56
300.324	291.69
300.781	329.14
301.239	322.12
301.697	289.35
302.154	331.48
302.612	251.9
303.069	308.07
303.527	308.07
303.984	319.78
304.441	317.44
304.899	319.78
305.356	258.92
305.813	315.09
306.27	322.12
306.727	287.01
307.184	312.75
307.641	315.09
308.098	282.33
308.555	317.44
309.012	319.78
309.468	298.71
309.925	343.18
310.382	368.93
310.838	301.05
311.295	359.56
311.751	352.54
312.208	329.14
312.664	289.35
313.12	256.58
313.577	336.16
314.033	343.18
314.489	284.67
314.945	305.73
315.401	317.44
315.857	338.5
316.313	329.14
316.769	322.12
317.225	315.09
317.681	268.28
318.136	345.52
318.592	298.71
319.048	289.35
319.503	361.91
319.959	291.69
320.414	282.33
320.869	361.91
321.325	315.09
321.78	324.46
322.235	340.84
322.691	242.54
323.146	352.54
323.601	333.82
324.056	291.69
324.511	359.56
324.966	338.5
325.421	357.22
325.875	310.41
326.33	298.71
326.785	251.9
327.24	401.69
327.694	270.62
328.149	345.52
328.603	357.22
329.058	357.22
329.512	375.95
329.966	315.09
330.421	343.18
330.875	284.67
331.329	289.35
331.783	270.62
332.237	277.65
332.691	282.33
333.145	247.22
333.599	315.09
334.053	296.37
334.507	268.28
334.96	289.35
335.414	331.48
335.868	301.05
336.321	287.01
336.775	333.82
337.228	371.27
337.682	378.29
338.135	265.94
338.588	277.65
339.042	324.46
339.495	333.82
339.948	382.97
340.401	289.35
340.854	310.41
341.307	301.05
341.76	347.86
342.213	305.73
342.666	324.46
343.119	354.88
343.571	312.75
344.024	317.44
344.477	315.09
344.929	319.78
345.382	380.63
345.834	289.35
346.287	338.5
346.739	361.91
347.191	298.71
347.644	352.54
348.096	352.54
348.548	247.22
349	343.18
349.452	268.28
349.904	319.78
350.356	319.78
350.808	354.88
351.26	333.82
351.711	380.63
352.163	345.52
352.615	382.97
353.066	343.18
353.518	296.37
353.969	338.5
354.421	301.05
354.872	282.33
355.324	301.05
355.775	254.24
356.226	275.31
356.677	331.48
357.128	303.39
357.579	298.71
358.03	331.48
358.481	354.88
358.932	303.39
359.383	359.56
359.834	338.5
360.285	326.8
360.735	357.22
361.186	336.16
361.637	298.71
362.087	359.56
362.538	338.5
362.988	340.84
363.438	310.41
363.889	333.82
364.339	326.8
364.789	382.97
365.239	284.67
365.689	368.93
366.139	282.33
366.589	310.41
367.039	347.86
367.489	345.52
367.939	322.12
368.389	354.88
368.839	354.88
369.288	322.12
369.738	268.28
370.187	345.52
370.637	357.22
371.086	371.27
371.536	350.2
371.985	338.5
372.434	315.09
372.884	382.97
373.333	347.86
373.782	326.8
374.231	336.16
374.68	305.73
375.129	249.56
375.578	298.71
376.027	399.35
376.475	329.14
376.924	329.14
377.373	371.27
377.822	338.5
378.27	352.54
378.719	340.84
379.167	359.56
379.616	394.67
380.064	303.39
380.512	319.78
380.961	350.2
381.409	279.99
381.857	294.03
382.305	303.39
382.753	317.44
383.201	350.2
383.649	319.78
384.097	340.84
384.545	317.44
384.992	375.95
385.44	378.29
385.888	322.12
386.335	336.16
386.783	333.82
387.231	303.39
387.678	378.29
388.125	364.25
388.573	296.37
389.02	338.5
389.467	392.33
389.914	359.56
390.362	301.05
390.809	357.22
391.256	364.25
391.703	319.78
392.15	378.29
392.596	275.31
393.043	265.94
393.49	385.31
393.937	308.07
394.383	261.26
394.83	340.84
395.276	312.75
395.723	317.44
396.169	343.18
396.616	324.46
397.062	303.39
397.508	308.07
397.954	282.33
398.401	408.72
398.847	291.69
399.293	331.48
399.739	361.91
400.185	387.65
400.631	324.46
401.076	289.35
401.522	350.2
401.968	366.59
402.414	326.8
402.859	347.86
403.305	338.5
403.75	354.88
404.196	308.07
404.641	301.05
405.086	317.44
405.532	284.67
405.977	324.46
406.422	287.01
406.867	364.25
407.312	282.33
407.757	336.16
408.202	324.46
408.647	352.54
409.092	347.86
409.537	294.03
409.982	338.5
410.426	333.82
410.871	329.14
411.316	294.03
411.76	298.71
412.205	340.84
412.649	357.22
413.093	350.2
413.538	303.39
413.982	343.18
414.426	322.12
414.87	303.39
415.314	336.16
415.758	345.52
416.202	357.22
416.646	308.07
417.09	298.71
417.534	291.69
417.978	282.33
418.421	373.61
418.865	296.37
419.309	315.09
419.752	298.71
420.196	279.99
420.639	338.5
421.083	329.14
421.526	347.86
421.969	347.86
422.412	347.86
422.856	373.61
423.299	359.56
423.742	317.44
424.185	331.48
424.628	331.48
425.071	282.33
425.513	345.52
425.956	310.41
426.399	294.03
426.842	331.48
427.284	368.93
427.727	315.09
428.169	368.93
428.612	308.07
429.054	364.25
429.497	359.56
429.939	338.5
430.381	354.88
430.823	315.09
431.265	352.54
431.707	340.84
432.149	312.75
432.591	343.18
433.033	310.41
433.475	371.27
433.917	354.88
434.359	340.84
434.8	305.73
435.242	354.88
435.684	338.5
436.125	291.69
436.567	345.52
437.008	385.31
437.449	343.18
437.891	340.84
438.332	308.07
438.773	366.59
439.214	322.12
439.656	324.46
440.097	312.75
440.538	343.18
440.978	382.97
441.419	289.35
441.86	371.27
442.301	331.48
442.742	319.78
443.182	305.73
443.623	366.59
444.063	385.31
444.504	331.48
444.944	284.67
445.385	329.14
445.825	298.71
446.265	331.48
446.706	340.84
447.146	279.99
447.586	345.52
448.026	324.46
448.466	289.35
448.906	331.48
449.346	282.33
449.786	347.86
450.225	315.09
450.665	338.5
451.105	289.35
451.544	331.48
451.984	336.16
452.424	324.46
452.863	397.01
453.302	338.5
453.742	331.48
454.181	249.56
454.62	385.31
455.059	340.84
455.499	317.44
455.938	350.2
456.377	338.5
456.816	294.03
457.254	298.71
457.693	333.82
458.132	378.29
458.571	298.71
459.01	364.25
459.448	352.54
459.887	343.18
460.325	322.12
460.764	315.09
461.202	315.09
461.641	343.18
462.079	338.5
462.517	340.84
462.955	315.09
463.393	352.54
463.832	287.01
464.27	359.56
464.708	397.01
465.145	394.67
465.583	347.86
466.021	357.22
466.459	298.71
466.897	382.97
467.334	289.35
467.772	340.84
468.209	378.29
468.647	329.14
469.084	399.35
469.522	357.22
469.959	345.52
470.396	340.84
470.833	350.2
471.271	315.09
471.708	345.52
472.145	361.91
472.582	322.12
473.019	345.52
473.456	352.54
473.892	296.37
474.329	315.09
474.766	354.88
475.202	366.59
475.639	357.22
476.076	315.09
476.512	249.56
476.949	343.18
477.385	279.99
477.821	345.52
478.258	333.82
478.694	315.09
479.13	226.15
479.566	324.46
480.002	333.82
480.438	357.22
480.874	375.95
481.31	354.88
481.746	343.18
482.181	324.46
482.617	284.67
483.053	275.31
483.488	343.18
483.924	291.69
484.36	329.14
484.795	308.07
485.23	364.25
485.666	319.78
486.101	270.62
486.536	317.44
486.971	375.95
487.407	301.05
487.842	378.29
488.277	301.05
488.712	305.73
489.146	312.75
489.581	294.03
490.016	331.48
490.451	373.61
490.885	282.33
491.32	373.61
491.755	382.97
492.189	373.61
492.624	343.18
493.058	303.39
493.492	357.22
493.927	329.14
494.361	375.95
494.795	389.99
495.229	387.65
495.663	368.93
496.097	322.12
496.531	312.75
496.965	343.18
497.399	373.61
497.833	350.2
498.266	298.71
498.7	359.56
499.134	329.14
499.567	343.18
500.001	336.16
500.434	357.22
500.868	364.25
501.301	368.93
501.734	277.65
502.168	282.33
502.601	279.99
503.034	361.91
503.467	364.25
503.9	422.76
504.333	317.44
504.766	282.33
505.199	394.67
505.632	343.18
506.064	378.29
506.497	352.54
506.93	364.25
507.362	331.48
507.795	329.14
508.227	373.61
508.66	347.86
509.092	338.5
509.524	317.44
509.956	322.12
510.389	347.86
510.821	317.44
511.253	317.44
511.685	296.37
512.117	401.69
512.549	340.84
512.981	324.46
513.412	333.82
513.844	404.03
514.276	371.27
514.707	378.29
515.139	375.95
515.571	291.69
516.002	336.16
516.433	310.41
516.865	378.29
517.296	401.69
517.727	284.67
518.159	357.22
518.59	368.93
519.021	359.56
519.452	319.78
519.883	331.48
520.314	284.67
520.744	326.8
521.175	289.35
521.606	275.31
522.037	345.52
522.467	312.75
522.898	301.05
523.328	338.5
523.759	368.93
524.189	380.63
524.62	331.48
525.05	326.8
525.48	382.97
525.91	303.39
526.341	329.14
526.771	350.2
527.201	319.78
527.631	301.05
528.061	401.69
528.49	284.67
528.92	312.75
529.35	322.12
529.78	331.48
530.209	305.73
530.639	392.33
531.068	322.12
531.498	331.48
531.927	308.07
532.357	338.5
532.786	324.46
533.215	331.48
533.644	298.71
534.074	291.69
534.503	298.71
534.932	329.14
535.361	359.56
535.79	361.91
536.218	298.71
536.647	338.5
537.076	322.12
537.505	326.8
537.933	347.86
538.362	319.78
538.79	373.61
539.219	322.12
539.647	324.46
540.076	373.61
540.504	350.2
540.932	418.08
541.36	322.12
541.788	385.31
542.217	324.46
542.645	317.44
543.073	296.37
543.5	382.97
543.928	382.97
544.356	371.27
544.784	319.78
545.211	347.86
545.639	361.91
546.067	347.86
546.494	324.46
546.922	397.01
547.349	312.75
547.776	329.14
548.204	322.12
548.631	282.33
549.058	336.16
549.485	303.39
549.912	322.12
550.339	294.03
550.766	336.16
551.193	413.4
551.62	331.48
552.047	382.97
552.474	298.71
552.9	366.59
553.327	387.65
553.754	265.94
554.18	380.63
554.607	361.91
555.033	350.2
555.459	312.75
555.886	317.44
556.312	305.73
556.738	310.41
557.164	354.88
557.59	350.2
558.016	347.86
558.442	258.92
558.868	331.48
559.294	329.14
559.72	373.61
560.145	279.99
560.571	301.05
560.997	359.56
561.422	322.12
561.848	352.54
562.273	347.86
562.699	392.33
563.124	401.69
563.549	289.35
563.974	333.82
564.4	303.39
564.825	287.01
565.25	338.5
565.675	324.46
566.1	338.5
566.525	368.93
566.95	333.82
567.374	322.12
567.799	291.69
568.224	294.03
568.648	350.2
569.073	301.05
569.497	289.35
569.922	359.56
570.346	354.88
570.771	279.99
571.195	336.16
571.619	338.5
572.043	364.25
572.467	338.5
572.891	333.82
573.315	310.41
573.739	326.8
574.163	291.69
574.587	326.8
575.011	361.91
575.435	364.25
575.858	301.05
576.282	350.2
576.705	329.14
577.129	385.31
577.552	305.73
577.976	368.93
578.399	368.93
578.822	354.88
579.245	322.12
579.669	324.46
580.092	387.65
580.515	373.61
580.938	333.82
581.361	350.2
581.784	324.46
582.206	308.07
582.629	296.37
583.052	277.65
583.474	345.52
583.897	371.27
584.32	301.05
584.742	352.54
585.165	343.18
585.587	352.54
586.009	333.82
586.431	219.13
586.854	343.18
587.276	301.05
587.698	291.69
588.12	338.5
588.542	397.01
588.964	352.54
589.386	326.8
589.807	308.07
590.229	331.48
590.651	312.75
591.073	347.86
591.494	385.31
591.916	352.54
592.337	350.2
592.759	368.93
593.18	359.56
593.601	345.52
594.022	357.22
594.444	275.31
594.865	289.35
595.286	331.48
595.707	305.73
596.128	331.48
596.549	317.44
596.97	338.5
597.39	336.16
597.811	310.41
598.232	336.16
598.652	324.46
599.073	308.07
599.494	305.73
599.914	354.88
600.334	361.91
600.755	338.5
601.175	343.18
601.595	282.33
602.015	394.67
602.436	315.09
602.856	457.87
603.276	319.78
603.696	378.29
604.115	322.12
604.535	254.24
604.955	343.18
605.375	326.8
605.794	392.33
606.214	354.88
606.634	345.52
607.053	287.01
607.473	343.18
607.892	385.31
608.311	361.91
608.731	319.78
609.15	329.14
609.569	319.78
609.988	336.16
610.407	366.59
610.826	326.8
611.245	350.2
611.664	378.29
612.083	380.63
612.501	340.84
612.92	296.37
613.339	336.16
613.757	322.12
614.176	371.27
614.594	326.8
615.013	371.27
615.431	385.31
615.85	340.84
616.268	338.5
616.686	366.59
617.104	352.54
617.522	322.12
617.94	279.99
618.358	294.03
618.776	317.44
619.194	315.09
619.612	359.56
620.03	305.73
620.447	298.71
620.865	329.14
621.282	329.14
621.7	359.56
622.117	343.18
622.535	385.31
622.952	331.48
623.369	303.39
623.787	359.56
624.204	287.01
624.621	279.99
625.038	298.71
625.455	373.61
625.872	284.67
626.289	315.09
626.706	385.31
627.123	296.37
627.539	315.09
627.956	336.16
628.373	301.05
628.789	378.29
629.206	357.22
629.622	282.33
630.038	347.86
630.455	308.07
630.871	261.26
631.287	242.54
631.703	331.48
632.12	303.39
632.536	287.01
632.952	413.4
633.368	361.91
633.783	317.44
634.199	326.8
634.615	301.05
635.031	326.8
635.446	394.67
635.862	305.73
636.277	408.72
636.693	368.93
637.108	333.82
637.524	279.99
637.939	352.54
638.354	296.37
638.77	331.48
639.185	291.69
639.6	287.01
640.015	305.73
640.43	343.18
640.845	326.8
641.259	308.07
641.674	347.86
642.089	347.86
642.504	361.91
642.918	310.41
643.333	361.91
643.747	298.71
644.162	340.84
644.576	343.18
644.991	336.16
645.405	319.78
645.819	357.22
646.233	368.93
646.647	347.86
647.061	343.18
647.475	340.84
647.889	308.07
648.303	289.35
648.717	359.56
649.131	258.92
649.545	326.8
649.958	291.69
650.372	366.59
650.785	308.07
651.199	333.82
651.612	385.31
652.026	312.75
652.439	308.07
652.852	263.6
653.266	310.41
653.679	256.58
654.092	331.48
654.505	282.33
654.918	317.44
655.331	326.8
655.744	275.31
656.156	345.52
656.569	359.56
656.982	333.82
657.394	301.05
657.807	294.03
658.22	366.59
658.632	256.58
659.044	347.86
659.457	317.44
659.869	340.84
660.281	317.44
660.693	322.12
661.106	289.35
661.518	338.5
661.93	340.84
662.342	319.78
662.754	345.52
663.165	282.33
663.577	350.2
663.989	289.35
664.401	308.07
664.812	338.5
665.224	331.48
665.635	373.61
666.047	352.54
666.458	333.82
666.869	331.48
667.281	298.71
667.692	338.5
668.103	319.78
668.514	361.91
668.925	303.39
669.336	324.46
669.747	308.07
670.158	336.16
670.569	343.18
670.979	331.48
671.39	324.46
671.801	333.82
672.211	254.24
672.622	385.31
673.032	322.12
673.443	305.73
673.853	291.69
674.263	401.69
674.674	303.39
675.084	289.35
675.494	287.01
675.904	317.44
676.314	329.14
676.724	279.99
677.134	394.67
677.544	347.86
677.953	366.59
678.363	317.44
678.773	357.22
679.182	354.88
679.592	340.84
680.001	289.35
680.411	291.69
680.82	359.56
681.23	319.78
681.639	270.62
682.048	361.91
682.457	326.8
682.866	368.93
683.275	308.07
683.684	333.82
684.093	371.27
684.502	385.31
684.911	373.61
685.32	408.72
685.728	301.05
686.137	343.18
686.546	368.93
686.954	287.01
687.363	389.99
687.771	322.12
688.179	380.63
688.588	373.61
688.996	343.18
689.404	343.18
689.812	387.65
690.22	389.99
690.628	324.46
691.036	352.54
691.444	352.54
691.852	336.16
692.26	291.69
692.667	329.14
693.075	343.18
693.483	324.46
693.89	319.78
694.298	340.84
694.705	322.12
695.112	366.59
695.52	352.54
695.927	336.16
696.334	350.2
696.741	359.56
697.148	406.38
697.555	347.86
697.962	371.27
698.369	350.2
698.776	354.88
699.183	312.75
699.59	331.48
699.996	352.54
700.403	340.84
700.81	282.33
701.216	317.44
701.623	326.8
702.029	347.86
702.435	336.16
702.842	294.03
703.248	343.18
703.654	343.18
704.06	331.48
704.466	258.92
704.872	354.88
705.278	329.14
705.684	361.91
706.09	289.35
706.496	347.86
706.901	343.18
707.307	312.75
707.712	296.37
708.118	277.65
708.523	340.84
708.929	282.33
709.334	275.31
709.74	357.22
710.145	394.67
710.55	336.16
710.955	331.48
711.36	322.12
711.765	345.52
712.17	336.16
712.575	272.96
712.98	902.57
713.385	312.75
713.789	347.86
714.194	319.78
714.599	378.29
715.003	284.67
715.408	331.48
715.812	275.31
716.217	233.18
716.621	364.25
717.025	340.84
717.429	284.67
717.833	317.44
718.238	277.65
718.642	329.14
719.046	303.39
719.449	326.8
719.853	375.95
720.257	338.5
720.661	284.67
721.065	336.16
721.468	319.78
721.872	279.99
722.275	308.07
722.679	322.12
723.082	338.5
723.485	322.12
723.889	319.78
724.292	404.03
724.695	312.75
725.098	317.44
725.501	401.69
725.904	312.75
726.307	364.25
726.71	303.39
727.113	333.82
727.516	347.86
727.918	364.25
728.321	385.31
728.724	340.84
729.126	329.14
729.529	345.52
729.931	333.82
730.333	303.39
730.736	317.44
731.138	350.2
731.54	347.86
731.942	305.73
732.344	317.44
732.746	338.5
733.148	303.39
733.55	340.84
733.952	380.63
734.354	324.46
734.756	340.84
735.157	322.12
735.559	308.07
735.96	305.73
736.362	371.27
736.763	336.16
737.165	326.8
737.566	347.86
737.967	343.18
738.368	343.18
738.77	343.18
739.171	366.59
739.572	331.48
739.973	277.65
740.374	319.78
740.774	338.5
741.175	336.16
741.576	406.38
741.977	418.08
742.377	345.52
742.778	345.52
743.178	361.91
743.579	294.03
743.979	324.46
744.379	366.59
744.78	352.54
745.18	315.09
745.58	350.2
745.98	338.5
746.38	298.71
746.78	347.86
747.18	319.78
747.58	251.9
747.98	336.16
748.38	305.73
748.779	303.39
749.179	256.58
749.578	254.24
749.978	329.14
750.377	319.78
750.777	317.44
751.176	359.56
751.575	279.99
751.975	312.75
752.374	317.44
752.773	338.5
753.172	308.07
753.571	315.09
753.97	284.67
754.369	366.59
754.768	289.35
755.166	310.41
755.565	357.22
755.964	303.39
756.362	340.84
756.761	333.82
757.159	279.99
757.558	336.16
757.956	382.97
758.354	326.8
758.753	329.14
759.151	244.88
759.549	352.54
759.947	291.69
760.345	287.01
760.743	354.88
761.141	326.8
761.539	343.18
761.936	251.9
762.334	366.59
762.732	347.86
763.129	296.37
763.527	329.14
763.924	301.05
764.322	265.94
764.719	336.16
765.117	441.48
765.514	298.71
765.911	298.71
766.308	279.99
766.705	366.59
767.102	322.12
767.499	333.82
767.896	315.09
768.293	357.22
768.69	312.75
769.086	354.88
769.483	347.86
769.88	352.54
770.276	312.75
770.673	350.2
771.069	352.54
771.466	345.52
771.862	375.95
772.258	350.2
772.654	331.48
773.05	287.01
773.447	333.82
773.843	387.65
774.239	364.25
774.634	294.03
775.03	315.09
775.426	361.91
775.822	345.52
776.218	404.03
776.613	354.88
777.009	413.4
777.404	287.01
777.8	319.78
778.195	275.31
778.59	361.91
778.986	345.52
779.381	394.67
779.776	303.39
780.171	373.61
780.566	338.5
780.961	343.18
781.356	345.52
781.751	354.88
782.146	343.18
782.54	322.12
782.935	366.59
783.33	333.82
783.724	315.09
784.119	319.78
784.513	345.52
784.908	354.88
785.302	413.4
785.696	296.37
786.09	336.16
786.485	361.91
786.879	301.05
787.273	284.67
787.667	296.37
788.061	319.78
788.454	305.73
788.848	312.75
789.242	303.39
789.636	315.09
790.029	340.84
790.423	333.82
790.816	340.84
791.21	345.52
791.603	315.09
791.997	331.48
792.39	305.73
792.783	331.48
793.176	347.86
793.569	347.86
793.962	312.75
794.355	291.69
794.748	350.2
795.141	336.16
795.534	326.8
795.927	345.52
796.319	359.56
796.712	368.93
797.105	296.37
797.497	296.37
797.89	366.59
798.282	312.75
798.674	331.48
799.067	287.01
799.459	324.46
799.851	354.88
800.243	331.48
800.635	359.56
801.027	319.78
801.419	352.54
801.811	338.5
802.203	392.33
802.594	312.75
802.986	256.58
803.378	347.86
803.769	317.44
804.161	371.27
804.552	336.16
804.944	382.97
805.335	279.99
805.726	347.86
806.118	315.09
806.509	338.5
806.9	333.82
807.291	352.54
807.682	279.99
808.073	305.73
808.464	308.07
808.855	287.01
809.245	343.18
809.636	371.27
810.027	296.37
810.417	272.96
810.808	296.37
811.198	343.18
811.589	319.78
811.979	333.82
812.369	308.07
812.759	315.09
813.15	305.73
813.54	368.93
813.93	310.41
814.32	268.28
814.71	338.5
815.1	315.09
815.489	317.44
815.879	368.93
816.269	277.65
816.658	312.75
817.048	291.69
817.438	301.05
817.827	312.75
818.216	375.95
818.606	275.31
818.995	373.61
819.384	265.94
819.773	359.56
820.163	312.75
820.552	322.12
820.941	291.69
821.33	289.35
821.718	331.48
822.107	364.25
822.496	326.8
822.885	322.12
823.273	291.69
823.662	308.07
824.05	310.41
824.439	319.78
824.827	322.12
825.216	317.44
825.604	319.78
825.992	289.35
826.38	312.75
826.768	322.12
827.156	291.69
827.544	289.35
827.932	357.22
828.32	331.48
828.708	326.8
829.096	303.39
829.483	291.69
829.871	336.16
830.259	397.01
830.646	287.01
831.034	322.12
831.421	331.48
831.808	361.91
832.196	340.84
832.583	366.59
832.97	312.75
833.357	261.26
833.744	296.37
834.131	284.67
834.518	336.16
834.905	326.8
835.292	319.78
835.678	389.99
836.065	308.07
836.452	347.86
836.838	347.86
837.225	368.93
837.611	310.41
837.998	282.33
838.384	378.29
838.77	340.84
839.157	354.88
839.543	345.52
839.929	359.56
840.315	359.56
840.701	331.48
841.087	347.86
841.473	277.65
841.858	326.8
842.244	336.16
842.63	350.2
843.015	340.84
843.401	319.78
843.787	347.86
844.172	347.86
844.557	284.67
844.943	303.39
845.328	354.88
845.713	345.52
846.098	340.84
846.483	350.2
846.868	350.2
847.253	301.05
847.638	333.82
848.023	317.44
848.408	397.01
848.793	336.16
849.177	270.62
849.562	319.78
849.947	361.91
850.331	270.62
850.715	324.46
851.1	343.18
851.484	279.99
851.868	315.09
852.253	319.78
852.637	244.88
853.021	357.22
853.405	301.05
853.789	315.09
854.173	298.71
854.557	284.67
854.94	298.71
855.324	326.8
855.708	338.5
856.091	305.73
856.475	354.88
856.858	347.86
857.242	357.22
857.625	303.39
858.009	319.78
858.392	338.5
858.775	237.86
859.158	345.52
859.541	331.48
859.924	359.56
860.307	294.03
860.69	317.44
861.073	352.54
861.456	345.52
861.838	303.39
862.221	326.8
862.604	352.54
862.986	272.96
863.369	329.14
863.751	359.56
864.133	338.5
864.516	329.14
864.898	340.84
865.28	350.2
865.662	326.8
866.044	289.35
866.426	331.48
866.808	322.12
867.19	284.67
867.572	361.91
867.954	329.14
868.336	340.84
868.717	317.44
869.099	345.52
869.48	361.91
869.862	354.88
870.243	336.16
870.625	291.69
871.006	282.33
871.387	319.78
871.768	315.09
872.149	333.82
872.53	322.12
872.911	397.01
873.292	368.93
873.673	347.86
874.054	287.01
874.435	317.44
874.815	331.48
875.196	289.35
875.577	364.25
875.957	333.82
876.338	319.78
876.718	322.12
877.098	291.69
877.479	268.28
877.859	296.37
878.239	340.84
878.619	368.93
878.999	336.16
879.379	324.46
879.759	315.09
880.139	354.88
880.519	279.99
880.898	310.41
881.278	324.46
881.658	324.46
882.037	338.5
882.417	258.92
882.796	326.8
883.176	329.14
883.555	329.14
883.934	359.56
884.313	315.09
884.693	408.72
885.072	289.35
885.451	326.8
885.83	317.44
886.209	315.09
886.587	329.14
886.966	258.92
887.345	366.59
887.724	315.09
888.102	333.82
888.481	294.03
888.859	291.69
889.238	317.44
889.616	338.5
889.994	319.78
890.373	322.12
890.751	359.56
891.129	282.33
891.507	265.94
891.885	326.8
892.263	336.16
892.641	326.8
893.019	345.52
893.396	382.97
893.774	310.41
894.152	291.69
894.529	263.6
894.907	361.91
895.284	319.78
895.662	308.07
896.039	317.44
896.416	294.03
896.794	301.05
897.171	289.35
897.548	291.69
897.925	319.78
898.302	340.84
898.679	336.16
899.056	310.41
899.433	331.48
899.809	378.29
900.186	298.71
900.563	287.01
900.939	354.88
901.316	322.12
901.692	312.75
902.069	315.09
902.445	408.72
902.821	324.46
903.197	308.07
903.574	322.12
903.95	361.91
904.326	282.33
904.702	329.14
905.078	333.82
905.454	350.2
905.829	338.5
906.205	322.12
906.581	317.44
906.956	296.37
907.332	284.67
907.707	340.84
908.083	326.8
908.458	324.46
908.833	333.82
909.209	345.52
909.584	317.44
909.959	287.01
910.334	329.14
910.709	315.09
911.084	315.09
911.459	263.6
911.834	296.37
912.209	312.75
912.583	324.46
912.958	291.69
913.333	359.56
913.707	338.5
914.082	387.65
914.456	268.28
914.83	298.71
915.205	336.16
915.579	340.84
915.953	251.9
916.327	291.69
916.701	315.09
917.075	371.27
917.449	284.67
917.823	338.5
918.197	322.12
918.571	333.82
918.944	347.86
919.318	322.12
919.692	331.48
920.065	303.39
920.438	343.18
920.812	326.8
921.185	364.25
921.558	350.2
921.932	289.35
922.305	366.59
922.678	343.18
923.051	361.91
923.424	326.8
923.797	352.54
924.17	368.93
924.542	361.91
924.915	333.82
925.288	347.86
925.661	357.22
926.033	317.44
926.406	315.09
926.778	315.09
927.15	312.75
927.523	322.12
927.895	315.09
928.267	347.86
928.639	249.56
929.011	336.16
929.383	270.62
929.755	343.18
930.127	368.93
930.499	268.28
930.871	258.92
931.242	366.59
931.614	343.18
931.986	350.2
932.357	333.82
932.729	263.6
933.1	303.39
933.471	357.22
933.843	373.61
934.214	301.05
934.585	354.88
934.956	401.69
935.327	317.44
935.698	324.46
936.069	284.67
936.44	319.78
936.811	324.46
937.182	282.33
937.552	296.37
937.923	284.67
938.293	392.33
938.664	282.33
939.034	340.84
939.405	357.22
939.775	359.56
940.145	324.46
940.516	354.88
940.886	345.52
941.256	294.03
941.626	298.71
941.996	399.35
942.366	329.14
942.735	333.82
943.105	340.84
943.475	277.65
943.845	310.41
944.214	345.52
944.584	324.46
944.953	312.75
945.323	301.05
945.692	279.99
946.061	287.01
946.43	296.37
946.8	373.61
947.169	350.2
947.538	371.27
947.907	338.5
948.276	324.46
948.645	305.73
949.013	336.16
949.382	361.91
949.751	331.48
950.119	347.86
950.488	375.95
950.857	329.14
951.225	324.46
951.593	364.25
951.962	326.8
952.33	279.99
952.698	303.39
953.066	375.95
953.434	287.01
953.802	310.41
954.17	324.46
954.538	345.52
954.906	340.84
955.274	333.82
955.642	331.48
956.009	352.54
956.377	333.82
956.744	303.39
957.112	268.28
957.479	340.84
957.847	333.82
958.214	333.82
958.581	345.52
958.948	357.22
959.315	354.88
959.683	333.82
960.05	277.65
960.416	394.67
960.783	289.35
961.15	343.18
961.517	282.33
961.884	357.22
962.25	308.07
962.617	282.33
962.983	347.86
963.35	322.12
963.716	308.07
964.082	324.46
964.449	378.29
964.815	312.75
965.181	322.12
965.547	296.37
965.913	258.92
966.279	275.31
966.645	242.54
967.011	373.61
967.377	319.78
967.742	282.33
968.108	289.35
968.474	343.18
968.839	404.03
969.205	265.94
969.57	284.67
969.935	333.82
970.301	329.14
970.666	340.84
971.031	303.39
971.396	308.07
971.761	333.82
972.126	279.99
972.491	256.58
972.856	345.52
973.221	352.54
973.586	352.54
973.95	287.01
974.315	284.67
974.679	291.69
975.044	338.5
975.408	263.6
975.773	324.46
976.137	331.48
976.501	279.99
976.866	406.38
977.23	317.44
977.594	315.09
977.958	448.51
978.322	310.41
978.686	275.31
979.049	305.73
979.413	371.27
979.777	389.99
980.141	336.16
980.504	317.44
980.868	347.86
981.231	413.4
981.595	305.73
981.958	319.78
982.321	333.82
982.684	289.35
983.048	336.16
983.411	329.14
983.774	336.16
984.137	301.05
984.5	380.63
984.862	315.09
985.225	345.52
985.588	319.78
985.951	364.25
986.313	361.91
986.676	268.28
987.038	301.05
987.401	317.44
987.763	324.46
988.125	291.69
988.488	301.05
988.85	279.99
989.212	287.01
989.574	366.59
989.936	322.12
990.298	308.07
990.66	338.5
991.022	371.27
991.383	345.52
991.745	284.67
992.107	305.73
992.468	308.07
992.83	310.41
993.191	371.27
993.553	270.62
993.914	319.78
994.275	366.59
994.637	279.99
994.998	361.91
995.359	366.59
995.72	275.31
996.081	340.84
996.442	371.27
996.803	319.78
997.163	289.35
997.524	275.31
997.885	336.16
998.245	329.14
998.606	303.39
998.966	333.82
999.327	312.75
999.687	310.41
1000.047	340.84
1000.408	340.84
1000.768	375.95
1001.128	303.39
1001.488	312.75
1001.848	265.94
1002.208	289.35
1002.568	312.75
1002.927	317.44
1003.287	331.48
1003.647	345.52
1004.007	315.09
1004.366	308.07
1004.726	319.78
1005.085	298.71
1005.444	305.73
1005.804	287.01
1006.163	389.99
1006.522	303.39
1006.881	301.05
1007.24	319.78
1007.599	347.86
1007.958	296.37
1008.317	312.75
1008.676	322.12
1009.035	387.65
1009.393	294.03
1009.752	291.69
1010.111	298.71
1010.469	340.84
1010.828	326.8
1011.186	345.52
1011.544	373.61
1011.903	282.33
1012.261	308.07
1012.619	352.54
1012.977	291.69
1013.335	366.59
1013.693	354.88
1014.051	291.69
1014.409	333.82
1014.767	298.71
1015.124	289.35
1015.482	329.14
1015.84	298.71
1016.197	254.24
1016.555	338.5
1016.912	352.54
1017.269	340.84
1017.627	347.86
1017.984	308.07
1018.341	322.12
1018.698	352.54
1019.055	294.03
1019.412	373.61
1019.769	371.27
1020.126	368.93
1020.483	329.14
1020.84	284.67
1021.196	343.18
1021.553	432.12
1021.909	350.2
1022.266	354.88
1022.622	340.84
1022.979	389.99
1023.335	354.88
1023.691	265.94
1024.047	333.82
1024.404	340.84
1024.76	291.69
1025.116	310.41
1025.472	284.67
1025.827	301.05
1026.183	322.12
1026.539	336.16
1026.895	354.88
1027.25	364.25
1027.606	331.48
1027.961	294.03
1028.317	268.28
1028.672	352.54
1029.028	333.82
1029.383	340.84
1029.738	312.75
1030.093	319.78
1030.448	310.41
1030.803	361.91
1031.158	275.31
1031.513	350.2
1031.868	275.31
1032.223	298.71
1032.577	347.86
1032.932	317.44
1033.287	359.56
1033.641	415.74
1033.996	319.78
1034.35	345.52
1034.704	333.82
1035.059	317.44
1035.413	364.25
1035.767	364.25
1036.121	364.25
