Data from Al_FLMS009871__1229__16-44-32-775.txt Node

Date: Fri Mar 08 16:44:32 CST 2024
User: pe5414po
Spectrometer: FLMS00987
Trigger mode: 0
Integration Time (sec): 1.000000E-1
Scans to average: 1
Electric dark correction enabled: true
Nonlinearity correction enabled: false
Boxcar width: 0
XAxis mode: Wavelengths
Number of Pixels in Spectrum: 2048
>>>>>Begin Spectral Data<<<<<
188.938	-74.75
189.409	-74.75
189.879	-74.75
190.349	-126.24
190.819	-105.18
191.29	-128.58
191.76	-93.48
192.23	-84.11
192.7	-65.39
193.17	-41.98
193.64	-6.88
194.109	7.17
194.579	-39.64
195.049	-2.19
195.519	-32.62
195.988	58.66
196.458	84.41
196.927	28.23
197.397	135.9
197.866	93.77
198.336	86.75
198.805	147.6
199.274	105.47
199.744	206.11
200.213	241.22
200.682	231.86
201.151	234.2
201.62	278.67
202.089	269.31
202.558	220.16
203.027	262.29
203.495	250.58
203.964	224.84
204.433	266.97
204.902	318.46
205.37	288.03
205.839	271.65
206.307	278.67
206.776	285.69
207.244	297.39
207.712	295.05
208.181	264.63
208.649	224.84
209.117	252.92
209.585	262.29
210.053	290.37
210.521	302.08
210.989	297.39
211.457	236.54
211.925	283.35
212.393	302.08
212.861	250.58
213.328	266.97
213.796	264.63
214.264	259.95
214.731	231.86
215.199	285.69
215.666	201.43
216.133	213.14
216.601	229.52
217.068	262.29
217.535	220.16
218.003	290.37
218.47	238.88
218.937	276.33
219.404	213.14
219.871	262.29
220.338	255.26
220.805	234.2
221.271	266.97
221.738	262.29
222.205	227.18
222.671	278.67
223.138	288.03
223.605	304.42
224.071	302.08
224.538	311.44
225.004	243.56
225.47	201.43
225.937	252.92
226.403	283.35
226.869	199.09
227.335	241.22
227.801	262.29
228.267	250.58
228.733	278.67
229.199	245.9
229.665	229.52
230.131	269.31
230.597	313.78
231.062	220.16
231.528	213.14
231.994	262.29
232.459	281.01
232.925	215.48
233.39	257.61
233.856	332.5
234.321	222.5
234.786	259.95
235.252	288.03
235.717	304.42
236.182	215.48
236.647	271.65
237.112	201.43
237.577	248.24
238.042	243.56
238.507	334.84
238.972	208.45
239.436	224.84
239.901	234.2
240.366	245.9
240.83	210.79
241.295	302.08
241.76	208.45
242.224	259.95
242.688	278.67
243.153	182.71
243.617	288.03
244.081	231.86
244.545	238.88
245.01	262.29
245.474	309.1
245.938	337.18
246.402	313.78
246.866	257.61
247.33	264.63
247.793	259.95
248.257	236.54
248.721	281.01
249.185	266.97
249.648	330.16
250.112	238.88
250.575	264.63
251.039	325.48
251.502	234.2
251.965	273.99
252.429	243.56
252.892	231.86
253.355	257.61
253.818	273.99
254.281	236.54
254.744	330.16
255.207	285.69
255.67	266.97
256.133	325.48
256.596	297.39
257.059	297.39
257.522	299.73
257.984	252.92
258.447	323.14
258.909	271.65
259.372	215.48
259.834	273.99
260.297	278.67
260.759	238.88
261.221	278.67
261.684	278.67
262.146	283.35
262.608	163.98
263.07	248.24
263.532	285.69
263.994	318.46
264.456	325.48
264.918	257.61
265.38	229.52
265.842	285.69
266.303	278.67
266.765	346.55
267.227	281.01
267.688	266.97
268.15	220.16
268.611	318.46
269.072	245.9
269.534	236.54
269.995	238.88
270.456	360.59
270.918	288.03
271.379	288.03
271.84	330.16
272.301	248.24
272.762	252.92
273.223	271.65
273.684	276.33
274.144	278.67
274.605	262.29
275.066	264.63
275.527	297.39
275.987	262.29
276.448	243.56
276.908	297.39
277.369	297.39
277.829	309.1
278.289	306.76
278.75	283.35
279.21	257.61
279.67	285.69
280.13	222.5
280.59	341.86
281.05	334.84
281.51	299.73
281.97	285.69
282.43	290.37
282.89	248.24
283.35	271.65
283.809	311.44
284.269	304.42
284.729	292.71
285.188	276.33
285.648	264.63
286.107	264.63
286.567	290.37
287.026	273.99
287.485	295.05
287.944	367.61
288.404	330.16
288.863	362.93
289.322	194.41
289.781	318.46
290.24	362.93
290.699	292.71
291.158	281.01
291.616	341.86
292.075	302.08
292.534	266.97
292.992	353.57
293.451	316.12
293.91	262.29
294.368	283.35
294.827	234.2
295.285	266.97
295.743	341.86
296.202	330.16
296.66	297.39
297.118	199.09
297.576	285.69
298.034	271.65
298.492	339.52
298.95	318.46
299.408	278.67
299.866	290.37
300.324	283.35
300.781	381.65
301.239	255.26
301.697	271.65
302.154	348.89
302.612	334.84
303.069	243.56
303.527	297.39
303.984	325.48
304.441	297.39
304.899	304.42
305.356	231.86
305.813	257.61
306.27	281.01
306.727	355.91
307.184	304.42
307.641	341.86
308.098	323.14
308.555	245.9
309.012	325.48
309.468	248.24
309.925	318.46
310.382	252.92
310.838	255.26
311.295	271.65
311.751	309.1
312.208	297.39
312.664	278.67
313.12	273.99
313.577	297.39
314.033	330.16
314.489	276.33
314.945	281.01
315.401	264.63
315.857	346.55
316.313	241.22
316.769	313.78
317.225	302.08
317.681	344.21
318.136	278.67
318.592	295.05
319.048	337.18
319.503	320.8
319.959	327.82
320.414	220.16
320.869	351.23
321.325	255.26
321.78	330.16
322.235	344.21
322.691	313.78
323.146	327.82
323.601	255.26
324.056	250.58
324.511	276.33
324.966	276.33
325.421	330.16
325.875	250.58
326.33	276.33
326.785	229.52
327.24	281.01
327.694	255.26
328.149	318.46
328.603	304.42
329.058	276.33
329.512	259.95
329.966	278.67
330.421	316.12
330.875	304.42
331.329	327.82
331.783	313.78
332.237	299.73
332.691	285.69
333.145	346.55
333.599	325.48
334.053	290.37
334.507	306.76
334.96	295.05
335.414	297.39
335.868	337.18
336.321	320.8
336.775	332.5
337.228	238.88
337.682	351.23
338.135	250.58
338.588	297.39
339.042	238.88
339.495	276.33
339.948	337.18
340.401	309.1
340.854	309.1
341.307	276.33
341.76	299.73
342.213	353.57
342.666	334.84
343.119	334.84
343.571	360.59
344.024	269.31
344.477	295.05
344.929	262.29
345.382	304.42
345.834	304.42
346.287	304.42
346.739	309.1
347.191	288.03
347.644	257.61
348.096	327.82
348.548	281.01
349	320.8
349.452	299.73
349.904	313.78
350.356	334.84
350.808	250.58
351.26	306.76
351.711	302.08
352.163	285.69
352.615	290.37
353.066	332.5
353.518	318.46
353.969	339.52
354.421	309.1
354.872	306.76
355.324	252.92
355.775	311.44
356.226	241.22
356.677	306.76
357.128	299.73
357.579	320.8
358.03	330.16
358.481	304.42
358.932	248.24
359.383	302.08
359.834	334.84
360.285	250.58
360.735	332.5
361.186	252.92
361.637	306.76
362.087	355.91
362.538	295.05
362.988	285.69
363.438	316.12
363.889	281.01
364.339	278.67
364.789	266.97
365.239	299.73
365.689	337.18
366.139	330.16
366.589	210.79
367.039	271.65
367.489	297.39
367.939	325.48
368.389	353.57
368.839	304.42
369.288	264.63
369.738	337.18
370.187	252.92
370.637	360.59
371.086	257.61
371.536	245.9
371.985	288.03
372.434	306.76
372.884	327.82
373.333	341.86
373.782	372.29
374.231	290.37
374.68	402.72
375.129	302.08
375.578	360.59
376.027	257.61
376.475	259.95
376.924	320.8
377.373	372.29
377.822	299.73
378.27	323.14
378.719	309.1
379.167	278.67
379.616	332.5
380.064	372.29
380.512	304.42
380.961	297.39
381.409	271.65
381.857	271.65
382.305	318.46
382.753	309.1
383.201	327.82
383.649	320.8
384.097	320.8
384.545	372.29
384.992	316.12
385.44	288.03
385.888	334.84
386.335	325.48
386.783	332.5
387.231	290.37
387.678	285.69
388.125	295.05
388.573	304.42
389.02	351.23
389.467	348.89
389.914	351.23
390.362	299.73
390.809	327.82
391.256	323.14
391.703	362.93
392.15	266.97
392.596	311.44
393.043	320.8
393.49	327.82
393.937	346.55
394.383	332.5
394.83	278.67
395.276	250.58
395.723	264.63
396.169	320.8
396.616	290.37
397.062	360.59
397.508	327.82
397.954	348.89
398.401	250.58
398.847	302.08
399.293	360.59
399.739	273.99
400.185	306.76
400.631	271.65
401.076	283.35
401.522	266.97
401.968	316.12
402.414	276.33
402.859	344.21
403.305	306.76
403.75	337.18
404.196	304.42
404.641	285.69
405.086	304.42
405.532	369.95
405.977	306.76
406.422	295.05
406.867	332.5
407.312	299.73
407.757	318.46
408.202	337.18
408.647	318.46
409.092	360.59
409.537	269.31
409.982	269.31
410.426	297.39
410.871	302.08
411.316	271.65
411.76	285.69
412.205	304.42
412.649	318.46
413.093	320.8
413.538	334.84
413.982	346.55
414.426	318.46
414.87	297.39
415.314	376.97
415.758	299.73
416.202	292.71
416.646	255.26
417.09	238.88
417.534	372.29
417.978	259.95
418.421	273.99
418.865	316.12
419.309	276.33
419.752	295.05
420.196	271.65
420.639	344.21
421.083	398.04
421.526	318.46
421.969	285.69
422.412	283.35
422.856	248.24
423.299	290.37
423.742	302.08
424.185	318.46
424.628	358.25
425.071	281.01
425.513	320.8
425.956	250.58
426.399	330.16
426.842	316.12
427.284	344.21
427.727	316.12
428.169	304.42
428.612	292.71
429.054	299.73
429.497	304.42
429.939	304.42
430.381	271.65
430.823	302.08
431.265	292.71
431.707	299.73
432.149	351.23
432.591	250.58
433.033	288.03
433.475	283.35
433.917	288.03
434.359	262.29
434.8	290.37
435.242	299.73
435.684	269.31
436.125	318.46
436.567	325.48
437.008	320.8
437.449	278.67
437.891	327.82
438.332	269.31
438.773	313.78
439.214	292.71
439.656	332.5
440.097	283.35
440.538	285.69
440.978	276.33
441.419	311.44
441.86	304.42
442.301	278.67
442.742	341.86
443.182	323.14
443.623	255.26
444.063	304.42
444.504	327.82
444.944	323.14
445.385	276.33
445.825	320.8
446.265	360.59
446.706	334.84
447.146	323.14
447.586	341.86
448.026	297.39
448.466	346.55
448.906	309.1
449.346	309.1
449.786	295.05
450.225	295.05
450.665	236.54
451.105	283.35
451.544	311.44
451.984	355.91
452.424	323.14
452.863	311.44
453.302	203.77
453.742	320.8
454.181	269.31
454.62	313.78
455.059	320.8
455.499	309.1
455.938	292.71
456.377	299.73
456.816	323.14
457.254	255.26
457.693	358.25
458.132	325.48
458.571	288.03
459.01	332.5
459.448	278.67
459.887	297.39
460.325	383.99
460.764	351.23
461.202	276.33
461.641	346.55
462.079	351.23
462.517	273.99
462.955	323.14
463.393	332.5
463.832	391.02
464.27	365.27
464.708	339.52
465.145	304.42
465.583	313.78
466.021	299.73
466.459	316.12
466.897	405.06
467.334	327.82
467.772	271.65
468.209	325.48
468.647	295.05
469.084	311.44
469.522	245.9
469.959	297.39
470.396	290.37
470.833	299.73
471.271	330.16
471.708	273.99
472.145	332.5
472.582	250.58
473.019	283.35
473.456	288.03
473.892	362.93
474.329	313.78
474.766	337.18
475.202	259.95
475.639	299.73
476.076	337.18
476.512	295.05
476.949	358.25
477.385	313.78
477.821	278.67
478.258	325.48
478.694	327.82
479.13	316.12
479.566	337.18
480.002	327.82
480.438	290.37
480.874	306.76
481.31	243.56
481.746	306.76
482.181	334.84
482.617	311.44
483.053	355.91
483.488	255.26
483.924	369.95
484.36	379.31
484.795	330.16
485.23	325.48
485.666	348.89
486.101	318.46
486.536	281.01
486.971	288.03
487.407	290.37
487.842	297.39
488.277	250.58
488.712	320.8
489.146	323.14
489.581	292.71
490.016	304.42
490.451	351.23
490.885	330.16
491.32	285.69
491.755	358.25
492.189	327.82
492.624	295.05
493.058	306.76
493.492	323.14
493.927	278.67
494.361	283.35
494.795	309.1
495.229	304.42
495.663	346.55
496.097	323.14
496.531	344.21
496.965	283.35
497.399	266.97
497.833	320.8
498.266	318.46
498.7	281.01
499.134	259.95
499.567	332.5
500.001	311.44
500.434	330.16
500.868	236.54
501.301	379.31
501.734	290.37
502.168	283.35
502.601	278.67
503.034	306.76
503.467	318.46
503.9	259.95
504.333	297.39
504.766	281.01
505.199	346.55
505.632	362.93
506.064	337.18
506.497	365.27
506.93	292.71
507.362	278.67
507.795	355.91
508.227	269.31
508.66	288.03
509.092	259.95
509.524	309.1
509.956	288.03
510.389	360.59
510.821	266.97
511.253	243.56
511.685	283.35
512.117	309.1
512.549	257.61
512.981	337.18
513.412	273.99
513.844	320.8
514.276	292.71
514.707	369.95
515.139	311.44
515.571	264.63
516.002	255.26
516.433	334.84
516.865	323.14
517.296	283.35
517.727	325.48
518.159	330.16
518.59	332.5
519.021	229.52
519.452	255.26
519.883	262.29
520.314	250.58
520.744	351.23
521.175	304.42
521.606	306.76
522.037	278.67
522.467	309.1
522.898	309.1
523.328	332.5
523.759	365.27
524.189	313.78
524.62	358.25
525.05	367.61
525.48	332.5
525.91	288.03
526.341	304.42
526.771	339.52
527.201	264.63
527.631	332.5
528.061	341.86
528.49	271.65
528.92	245.9
529.35	306.76
529.78	243.56
530.209	285.69
530.639	334.84
531.068	273.99
531.498	281.01
531.927	288.03
532.357	360.59
532.786	318.46
533.215	264.63
533.644	297.39
534.074	351.23
534.503	299.73
534.932	339.52
535.361	297.39
535.79	295.05
536.218	313.78
536.647	288.03
537.076	292.71
537.505	323.14
537.933	327.82
538.362	351.23
538.79	318.46
539.219	302.08
539.647	295.05
540.076	330.16
540.504	299.73
540.932	316.12
541.36	330.16
541.788	360.59
542.217	320.8
542.645	334.84
543.073	309.1
543.5	250.58
543.928	346.55
544.356	278.67
544.784	337.18
545.211	325.48
545.639	304.42
546.067	217.82
546.494	351.23
546.922	283.35
547.349	210.79
547.776	295.05
548.204	334.84
548.631	318.46
549.058	348.89
549.485	355.91
549.912	318.46
550.339	355.91
550.766	311.44
551.193	288.03
551.62	316.12
552.047	306.76
552.474	334.84
552.9	269.31
553.327	332.5
553.754	238.88
554.18	332.5
554.607	285.69
555.033	327.82
555.459	337.18
555.886	346.55
556.312	285.69
556.738	341.86
557.164	367.61
557.59	288.03
558.016	278.67
558.442	351.23
558.868	360.59
559.294	311.44
559.72	299.73
560.145	327.82
560.571	304.42
560.997	360.59
561.422	325.48
561.848	302.08
562.273	302.08
562.699	337.18
563.124	299.73
563.549	346.55
563.974	283.35
564.4	316.12
564.825	259.95
565.25	325.48
565.675	288.03
566.1	269.31
566.525	318.46
566.95	290.37
567.374	299.73
567.799	248.24
568.224	271.65
568.648	334.84
569.073	278.67
569.497	288.03
569.922	229.52
570.346	278.67
570.771	285.69
571.195	304.42
571.619	266.97
572.043	304.42
572.467	309.1
572.891	346.55
573.315	402.72
573.739	285.69
574.163	379.31
574.587	278.67
575.011	348.89
575.435	348.89
575.858	323.14
576.282	323.14
576.705	313.78
577.129	306.76
577.552	320.8
577.976	295.05
578.399	309.1
578.822	304.42
579.245	337.18
579.669	273.99
580.092	271.65
580.515	292.71
580.938	262.29
581.361	236.54
581.784	288.03
582.206	306.76
582.629	288.03
583.052	353.57
583.474	288.03
583.897	285.69
584.32	323.14
584.742	360.59
585.165	299.73
585.587	238.88
586.009	238.88
586.431	299.73
586.854	341.86
587.276	330.16
587.698	341.86
588.12	295.05
588.542	288.03
588.964	299.73
589.386	334.84
589.807	290.37
590.229	309.1
590.651	262.29
591.073	353.57
591.494	313.78
591.916	297.39
592.337	302.08
592.759	320.8
593.18	271.65
593.601	327.82
594.022	290.37
594.444	325.48
594.865	348.89
595.286	339.52
595.707	273.99
596.128	330.16
596.549	304.42
596.97	259.95
597.39	339.52
597.811	297.39
598.232	325.48
598.652	262.29
599.073	341.86
599.494	330.16
599.914	332.5
600.334	341.86
600.755	372.29
601.175	313.78
601.595	316.12
602.015	351.23
602.436	341.86
602.856	458.89
603.276	299.73
603.696	295.05
604.115	327.82
604.535	262.29
604.955	297.39
605.375	283.35
605.794	313.78
606.214	288.03
606.634	273.99
607.053	281.01
607.473	330.16
607.892	327.82
608.311	318.46
608.731	306.76
609.15	325.48
609.569	302.08
609.988	306.76
610.407	302.08
610.826	243.56
611.245	327.82
611.664	348.89
612.083	304.42
612.501	334.84
612.92	367.61
613.339	292.71
613.757	320.8
614.176	383.99
614.594	281.01
615.013	325.48
615.431	348.89
615.85	255.26
616.268	316.12
616.686	325.48
617.104	309.1
617.522	320.8
617.94	288.03
618.358	266.97
618.776	309.1
619.194	283.35
619.612	259.95
620.03	337.18
620.447	323.14
620.865	320.8
621.282	306.76
621.7	341.86
622.117	330.16
622.535	313.78
622.952	316.12
623.369	327.82
623.787	309.1
624.204	288.03
624.621	281.01
625.038	290.37
625.455	283.35
625.872	325.48
626.289	281.01
626.706	334.84
627.123	348.89
627.539	259.95
627.956	299.73
628.373	288.03
628.789	271.65
629.206	245.9
629.622	313.78
630.038	250.58
630.455	341.86
630.871	302.08
631.287	302.08
631.703	309.1
632.12	309.1
632.536	299.73
632.952	306.76
633.368	264.63
633.783	292.71
634.199	339.52
634.615	325.48
635.031	313.78
635.446	302.08
635.862	288.03
636.277	250.58
636.693	266.97
637.108	313.78
637.524	325.48
637.939	295.05
638.354	290.37
638.77	290.37
639.185	266.97
639.6	313.78
640.015	341.86
640.43	288.03
640.845	316.12
641.259	252.92
641.674	262.29
642.089	229.52
642.504	281.01
642.918	290.37
643.333	372.29
643.747	288.03
644.162	332.5
644.576	302.08
644.991	283.35
645.405	318.46
645.819	323.14
646.233	327.82
646.647	339.52
647.061	264.63
647.475	344.21
647.889	295.05
648.303	292.71
648.717	325.48
649.131	269.31
649.545	262.29
649.958	318.46
650.372	325.48
650.785	285.69
651.199	327.82
651.612	348.89
652.026	320.8
652.439	346.55
652.852	323.14
653.266	353.57
653.679	269.31
654.092	306.76
654.505	269.31
654.918	295.05
655.331	374.63
655.744	355.91
656.156	295.05
656.569	351.23
656.982	323.14
657.394	330.16
657.807	283.35
658.22	309.1
658.632	299.73
659.044	351.23
659.457	292.71
659.869	325.48
660.281	311.44
660.693	334.84
661.106	295.05
661.518	255.26
661.93	304.42
662.342	334.84
662.754	332.5
663.165	337.18
663.577	320.8
663.989	262.29
664.401	323.14
664.812	285.69
665.224	320.8
665.635	259.95
666.047	316.12
666.458	304.42
666.869	266.97
667.281	288.03
667.692	252.92
668.103	304.42
668.514	299.73
668.925	266.97
669.336	276.33
669.747	316.12
670.158	252.92
670.569	348.89
670.979	281.01
671.39	327.82
671.801	285.69
672.211	259.95
672.622	278.67
673.032	250.58
673.443	306.76
673.853	323.14
674.263	252.92
674.674	327.82
675.084	262.29
675.494	332.5
675.904	290.37
676.314	339.52
676.724	316.12
677.134	330.16
677.544	398.04
677.953	344.21
678.363	339.52
678.773	341.86
679.182	372.29
679.592	323.14
680.001	332.5
680.411	292.71
680.82	332.5
681.23	285.69
681.639	351.23
682.048	309.1
682.457	292.71
682.866	243.56
683.275	238.88
683.684	323.14
684.093	316.12
684.502	269.31
684.911	339.52
685.32	355.91
685.728	337.18
686.137	252.92
686.546	304.42
686.954	302.08
687.363	283.35
687.771	255.26
688.179	302.08
688.588	295.05
688.996	302.08
689.404	344.21
689.812	302.08
690.22	311.44
690.628	323.14
691.036	316.12
691.444	369.95
691.852	297.39
692.26	288.03
692.667	285.69
693.075	276.33
693.483	327.82
693.89	295.05
694.298	323.14
694.705	238.88
695.112	281.01
695.52	344.21
695.927	346.55
696.334	299.73
696.741	304.42
697.148	264.63
697.555	351.23
697.962	292.71
698.369	278.67
698.776	285.69
699.183	255.26
699.59	327.82
699.996	259.95
700.403	313.78
700.81	271.65
701.216	236.54
701.623	320.8
702.029	327.82
702.435	257.61
702.842	311.44
703.248	273.99
703.654	213.14
704.06	288.03
704.466	346.55
704.872	325.48
705.278	283.35
705.684	365.27
706.09	346.55
706.496	278.67
706.901	332.5
707.307	316.12
707.712	283.35
708.118	320.8
708.523	248.24
708.929	299.73
709.334	257.61
709.74	245.9
710.145	316.12
710.55	276.33
710.955	320.8
711.36	341.86
711.765	330.16
712.17	281.01
712.575	290.37
712.98	793.59
713.385	337.18
713.789	273.99
714.194	306.76
714.599	283.35
715.003	304.42
715.408	344.21
715.812	241.22
716.217	276.33
716.621	269.31
717.025	332.5
717.429	281.01
717.833	262.29
718.238	295.05
718.642	295.05
719.046	266.97
719.449	302.08
719.853	283.35
720.257	318.46
720.661	285.69
721.065	281.01
721.468	353.57
721.872	325.48
722.275	311.44
722.679	309.1
723.082	236.54
723.485	318.46
723.889	257.61
724.292	320.8
724.695	316.12
725.098	348.89
725.501	320.8
725.904	271.65
726.307	297.39
726.71	341.86
727.113	273.99
727.516	325.48
727.918	297.39
728.321	266.97
728.724	313.78
729.126	316.12
729.529	323.14
729.931	281.01
730.333	313.78
730.736	290.37
731.138	290.37
731.54	248.24
731.942	306.76
732.344	337.18
732.746	259.95
733.148	320.8
733.55	304.42
733.952	304.42
734.354	320.8
734.756	388.68
735.157	278.67
735.559	304.42
735.96	337.18
736.362	264.63
736.763	271.65
737.165	285.69
737.566	309.1
737.967	273.99
738.368	302.08
738.77	297.39
739.171	309.1
739.572	259.95
739.973	358.25
740.374	283.35
740.774	295.05
741.175	283.35
741.576	243.56
741.977	353.57
742.377	297.39
742.778	262.29
743.178	283.35
743.579	311.44
743.979	374.63
744.379	351.23
744.78	325.48
745.18	306.76
745.58	306.76
745.98	316.12
746.38	318.46
746.78	318.46
747.18	323.14
747.58	313.78
747.98	281.01
748.38	278.67
748.779	297.39
749.179	337.18
749.578	281.01
749.978	292.71
750.377	290.37
750.777	309.1
751.176	306.76
751.575	339.52
751.975	288.03
752.374	288.03
752.773	339.52
753.172	323.14
753.571	316.12
753.97	295.05
754.369	290.37
754.768	283.35
755.166	295.05
755.565	285.69
755.964	262.29
756.362	278.67
756.761	320.8
757.159	290.37
757.558	271.65
757.956	339.52
758.354	313.78
758.753	297.39
759.151	376.97
759.549	292.71
759.947	288.03
760.345	365.27
760.743	323.14
761.141	311.44
761.539	339.52
761.936	252.92
762.334	311.44
762.732	285.69
763.129	288.03
763.527	278.67
763.924	264.63
764.322	372.29
764.719	327.82
765.117	346.55
765.514	266.97
765.911	292.71
766.308	285.69
766.705	283.35
767.102	316.12
767.499	313.78
767.896	339.52
768.293	332.5
768.69	292.71
769.086	327.82
769.483	332.5
769.88	344.21
770.276	318.46
770.673	381.65
771.069	320.8
771.466	248.24
771.862	304.42
772.258	306.76
772.654	295.05
773.05	358.25
773.447	313.78
773.843	337.18
774.239	346.55
774.634	290.37
775.03	269.31
775.426	369.95
775.822	288.03
776.218	330.16
776.613	283.35
777.009	327.82
777.404	304.42
777.8	383.99
778.195	273.99
778.59	278.67
778.986	320.8
779.381	290.37
779.776	316.12
780.171	288.03
780.566	262.29
780.961	288.03
781.356	339.52
781.751	285.69
782.146	234.2
782.54	344.21
782.935	243.56
783.33	297.39
783.724	360.59
784.119	278.67
784.513	304.42
784.908	259.95
785.302	360.59
785.696	266.97
786.09	313.78
786.485	290.37
786.879	327.82
787.273	271.65
787.667	327.82
788.061	299.73
788.454	273.99
788.848	259.95
789.242	264.63
789.636	348.89
790.029	334.84
790.423	344.21
790.816	238.88
791.21	269.31
791.603	297.39
791.997	266.97
792.39	346.55
792.783	313.78
793.176	374.63
793.569	271.65
793.962	318.46
794.355	302.08
794.748	262.29
795.141	297.39
795.534	316.12
795.927	325.48
796.319	358.25
796.712	283.35
797.105	327.82
797.497	266.97
797.89	327.82
798.282	255.26
798.674	330.16
799.067	278.67
799.459	304.42
799.851	273.99
800.243	255.26
800.635	227.18
801.027	323.14
801.419	327.82
801.811	306.76
802.203	302.08
802.594	325.48
802.986	271.65
803.378	273.99
803.769	304.42
804.161	344.21
804.552	266.97
804.944	231.86
805.335	288.03
805.726	313.78
806.118	257.61
806.509	281.01
806.9	327.82
807.291	276.33
807.682	313.78
808.073	360.59
808.464	227.18
808.855	316.12
809.245	360.59
809.636	351.23
810.027	393.36
810.417	269.31
810.808	285.69
811.198	295.05
811.589	323.14
811.979	292.71
812.369	327.82
812.759	332.5
813.15	332.5
813.54	346.55
813.93	264.63
814.32	339.52
814.71	290.37
815.1	313.78
815.489	325.48
815.879	302.08
816.269	344.21
816.658	325.48
817.048	323.14
817.438	318.46
817.827	264.63
818.216	285.69
818.606	276.33
818.995	299.73
819.384	292.71
819.773	288.03
820.163	327.82
820.552	360.59
820.941	306.76
821.33	339.52
821.718	332.5
822.107	320.8
822.496	313.78
822.885	360.59
823.273	255.26
823.662	369.95
824.05	325.48
824.439	290.37
824.827	309.1
825.216	414.42
825.604	276.33
825.992	238.88
826.38	222.5
826.768	358.25
827.156	259.95
827.544	337.18
827.932	304.42
828.32	271.65
828.708	311.44
829.096	304.42
829.483	292.71
829.871	299.73
830.259	302.08
830.646	269.31
831.034	341.86
831.421	245.9
831.808	339.52
832.196	264.63
832.583	262.29
832.97	318.46
833.357	241.22
833.744	278.67
834.131	325.48
834.518	325.48
834.905	241.22
835.292	304.42
835.678	346.55
836.065	341.86
836.452	341.86
836.838	295.05
837.225	271.65
837.611	311.44
837.998	252.92
838.384	234.2
838.77	276.33
839.157	269.31
839.543	372.29
839.929	320.8
840.315	316.12
840.701	248.24
841.087	309.1
841.473	281.01
841.858	316.12
842.244	295.05
842.63	220.16
843.015	330.16
843.401	358.25
843.787	309.1
844.172	304.42
844.557	262.29
844.943	283.35
845.328	316.12
845.713	278.67
846.098	257.61
846.483	325.48
846.868	339.52
847.253	295.05
847.638	257.61
848.023	341.86
848.408	285.69
848.793	292.71
849.177	243.56
849.562	309.1
849.947	341.86
850.331	271.65
850.715	362.93
851.1	306.76
851.484	306.76
851.868	285.69
852.253	241.22
852.637	332.5
853.021	299.73
853.405	327.82
853.789	327.82
854.173	285.69
854.557	332.5
854.94	320.8
855.324	297.39
855.708	330.16
856.091	262.29
856.475	323.14
856.858	264.63
857.242	266.97
857.625	316.12
858.009	325.48
858.392	266.97
858.775	302.08
859.158	285.69
859.541	309.1
859.924	304.42
860.307	327.82
860.69	245.9
861.073	281.01
861.456	288.03
861.838	285.69
862.221	306.76
862.604	297.39
862.986	278.67
863.369	318.46
863.751	327.82
864.133	276.33
864.516	252.92
864.898	262.29
865.28	311.44
865.662	306.76
866.044	309.1
866.426	316.12
866.808	292.71
867.19	297.39
867.572	290.37
867.954	353.57
868.336	332.5
868.717	316.12
869.099	243.56
869.48	278.67
869.862	238.88
870.243	313.78
870.625	276.33
871.006	311.44
871.387	309.1
871.768	323.14
872.149	248.24
872.53	318.46
872.911	273.99
873.292	339.52
873.673	238.88
874.054	257.61
874.435	311.44
874.815	297.39
875.196	334.84
875.577	295.05
875.957	332.5
876.338	269.31
876.718	290.37
877.098	341.86
877.479	266.97
877.859	281.01
878.239	355.91
878.619	325.48
878.999	309.1
879.379	341.86
879.759	278.67
880.139	311.44
880.519	332.5
880.898	302.08
881.278	323.14
881.658	266.97
882.037	325.48
882.417	323.14
882.796	227.18
883.176	281.01
883.555	281.01
883.934	266.97
884.313	206.11
884.693	292.71
885.072	297.39
885.451	348.89
885.83	374.63
886.209	302.08
886.587	316.12
886.966	374.63
887.345	330.16
887.724	325.48
888.102	273.99
888.481	365.27
888.859	320.8
889.238	259.95
889.616	332.5
889.994	311.44
890.373	269.31
890.751	264.63
891.129	295.05
891.507	295.05
891.885	278.67
892.263	285.69
892.641	330.16
893.019	355.91
893.396	243.56
893.774	243.56
894.152	281.01
894.529	259.95
894.907	288.03
895.284	255.26
895.662	273.99
896.039	339.52
896.416	337.18
896.794	281.01
897.171	288.03
897.548	316.12
897.925	297.39
898.302	292.71
898.679	283.35
899.056	266.97
899.433	257.61
899.809	337.18
900.186	381.65
900.563	292.71
900.939	276.33
901.316	276.33
901.692	259.95
902.069	318.46
902.445	330.16
902.821	229.52
903.197	285.69
903.574	327.82
903.95	297.39
904.326	325.48
904.702	318.46
905.078	299.73
905.454	278.67
905.829	332.5
906.205	313.78
906.581	325.48
906.956	353.57
907.332	309.1
907.707	313.78
908.083	281.01
908.458	337.18
908.833	285.69
909.209	316.12
909.584	309.1
909.959	297.39
910.334	325.48
910.709	332.5
911.084	337.18
911.459	269.31
911.834	318.46
912.209	337.18
912.583	262.29
912.958	292.71
913.333	295.05
913.707	273.99
914.082	372.29
914.456	278.67
914.83	320.8
915.205	327.82
915.579	344.21
915.953	299.73
916.327	248.24
916.701	245.9
917.075	302.08
917.449	313.78
917.823	236.54
918.197	318.46
918.571	292.71
918.944	288.03
919.318	304.42
919.692	273.99
920.065	334.84
920.438	330.16
920.812	266.97
921.185	327.82
921.558	231.86
921.932	299.73
922.305	325.48
922.678	318.46
923.051	283.35
923.424	295.05
923.797	264.63
924.17	299.73
924.542	353.57
924.915	306.76
925.288	262.29
925.661	292.71
926.033	245.9
926.406	271.65
926.778	285.69
927.15	316.12
927.523	325.48
927.895	302.08
928.267	283.35
928.639	285.69
929.011	257.61
929.383	220.16
929.755	278.67
930.127	278.67
930.499	276.33
930.871	210.79
931.242	318.46
931.614	309.1
931.986	290.37
932.357	318.46
932.729	290.37
933.1	297.39
933.471	283.35
933.843	269.31
934.214	353.57
934.585	292.71
934.956	285.69
935.327	316.12
935.698	332.5
936.069	285.69
936.44	325.48
936.811	243.56
937.182	304.42
937.552	285.69
937.923	252.92
938.293	299.73
938.664	292.71
939.034	252.92
939.405	304.42
939.775	325.48
940.145	278.67
940.516	292.71
940.886	273.99
941.256	229.52
941.626	309.1
941.996	351.23
942.366	245.9
942.735	283.35
943.105	271.65
943.475	283.35
943.845	351.23
944.214	273.99
944.584	330.16
944.953	316.12
945.323	302.08
945.692	290.37
946.061	330.16
946.43	259.95
946.8	285.69
947.169	311.44
947.538	259.95
947.907	297.39
948.276	313.78
948.645	341.86
949.013	222.5
949.382	318.46
949.751	290.37
950.119	332.5
950.488	276.33
950.857	299.73
951.225	288.03
951.593	339.52
951.962	295.05
952.33	281.01
952.698	358.25
953.066	309.1
953.434	330.16
953.802	290.37
954.17	250.58
954.538	278.67
954.906	362.93
955.274	302.08
955.642	348.89
956.009	346.55
956.377	304.42
956.744	346.55
957.112	273.99
957.479	250.58
957.847	325.48
958.214	318.46
958.581	334.84
958.948	320.8
959.315	318.46
959.683	341.86
960.05	306.76
960.416	248.24
960.783	227.18
961.15	288.03
961.517	290.37
961.884	290.37
962.25	276.33
962.617	269.31
962.983	238.88
963.35	288.03
963.716	334.84
964.082	285.69
964.449	295.05
964.815	290.37
965.181	187.39
965.547	318.46
965.913	257.61
966.279	337.18
966.645	217.82
967.011	316.12
967.377	311.44
967.742	262.29
968.108	269.31
968.474	269.31
968.839	313.78
969.205	283.35
969.57	278.67
969.935	262.29
970.301	299.73
970.666	304.42
971.031	250.58
971.396	299.73
971.761	292.71
972.126	311.44
972.491	290.37
972.856	285.69
973.221	278.67
973.586	297.39
973.95	306.76
974.315	283.35
974.679	224.84
975.044	327.82
975.408	262.29
975.773	309.1
976.137	311.44
976.501	259.95
976.866	316.12
977.23	306.76
977.594	386.33
977.958	325.48
978.322	290.37
978.686	281.01
979.049	257.61
979.413	273.99
979.777	276.33
980.141	362.93
980.504	264.63
980.868	323.14
981.231	278.67
981.595	266.97
981.958	327.82
982.321	297.39
982.684	276.33
983.048	304.42
983.411	318.46
983.774	330.16
984.137	271.65
984.5	388.68
984.862	266.97
985.225	306.76
985.588	278.67
985.951	255.26
986.313	304.42
986.676	299.73
987.038	290.37
987.401	299.73
987.763	362.93
988.125	290.37
988.488	302.08
988.85	283.35
989.212	245.9
989.574	285.69
989.936	325.48
990.298	264.63
990.66	330.16
991.022	288.03
991.383	295.05
991.745	276.33
992.107	288.03
992.468	297.39
992.83	285.69
993.191	295.05
993.553	290.37
993.914	341.86
994.275	309.1
994.637	266.97
994.998	290.37
995.359	250.58
995.72	295.05
996.081	348.89
996.442	262.29
996.803	362.93
997.163	355.91
997.524	276.33
997.885	288.03
998.245	283.35
998.606	266.97
998.966	292.71
999.327	369.95
999.687	304.42
1000.047	302.08
1000.408	281.01
1000.768	283.35
1001.128	318.46
1001.488	323.14
1001.848	348.89
1002.208	316.12
1002.568	288.03
1002.927	241.22
1003.287	323.14
1003.647	367.61
1004.007	327.82
1004.366	295.05
1004.726	299.73
1005.085	271.65
1005.444	325.48
1005.804	358.25
1006.163	281.01
1006.522	283.35
1006.881	334.84
1007.24	257.61
1007.599	330.16
1007.958	302.08
1008.317	278.67
1008.676	276.33
1009.035	309.1
1009.393	297.39
1009.752	283.35
1010.111	341.86
1010.469	252.92
1010.828	278.67
1011.186	243.56
1011.544	259.95
1011.903	295.05
1012.261	283.35
1012.619	281.01
1012.977	320.8
1013.335	271.65
1013.693	337.18
1014.051	320.8
1014.409	325.48
1014.767	297.39
1015.124	325.48
1015.482	302.08
1015.84	241.22
1016.197	262.29
1016.555	332.5
1016.912	290.37
1017.269	320.8
1017.627	304.42
1017.984	306.76
1018.341	313.78
1018.698	353.57
1019.055	306.76
1019.412	285.69
1019.769	309.1
1020.126	327.82
1020.483	276.33
1020.84	266.97
1021.196	262.29
1021.553	255.26
1021.909	264.63
1022.266	304.42
1022.622	313.78
1022.979	316.12
1023.335	306.76
1023.691	302.08
1024.047	313.78
1024.404	266.97
1024.76	304.42
1025.116	271.65
1025.472	302.08
1025.827	248.24
1026.183	276.33
1026.539	290.37
1026.895	348.89
1027.25	330.16
1027.606	295.05
1027.961	295.05
1028.317	348.89
1028.672	269.31
1029.028	339.52
1029.383	323.14
1029.738	276.33
1030.093	250.58
1030.448	285.69
1030.803	306.76
1031.158	271.65
1031.513	257.61
1031.868	290.37
1032.223	327.82
1032.577	295.05
1032.932	297.39
1033.287	332.5
1033.641	339.52
1033.996	269.31
1034.35	281.01
1034.704	313.78
1035.059	257.61
1035.413	269.31
1035.767	269.31
1036.121	269.31
