Data from Al_FLMS009871__1236__16-44-33-475.txt Node

Date: Fri Mar 08 16:44:33 CST 2024
User: pe5414po
Spectrometer: FLMS00987
Trigger mode: 0
Integration Time (sec): 1.000000E-1
Scans to average: 1
Electric dark correction enabled: true
Nonlinearity correction enabled: false
Boxcar width: 0
XAxis mode: Wavelengths
Number of Pixels in Spectrum: 2048
>>>>>Begin Spectral Data<<<<<
188.938	-82.21
189.409	-82.21
189.879	-82.21
190.349	-203.92
190.819	-103.28
191.29	-49.44
191.76	-140.72
192.23	-44.76
192.7	-124.34
193.17	-44.76
193.64	-42.42
194.109	-12
194.579	-7.31
195.049	-9.65
195.519	67.58
195.988	32.47
196.458	32.47
196.927	62.9
197.397	90.99
197.866	76.95
198.336	112.05
198.805	144.82
199.274	158.86
199.744	126.1
200.213	222.06
200.682	217.38
201.151	238.44
201.62	250.14
202.089	243.12
202.558	205.67
203.027	273.55
203.495	205.67
203.964	247.8
204.433	245.46
204.902	245.46
205.37	240.78
205.839	240.78
206.307	247.8
206.776	315.68
207.244	278.23
207.712	252.49
208.181	294.61
208.649	285.25
209.117	327.38
209.585	299.3
210.053	306.32
210.521	289.93
210.989	308.66
211.457	226.74
211.925	273.55
212.393	318.02
212.861	259.51
213.328	268.87
213.796	292.27
214.264	287.59
214.731	282.91
215.199	308.66
215.666	243.12
216.133	240.78
216.601	247.8
217.068	264.19
217.535	273.55
218.003	231.42
218.47	243.12
218.937	308.66
219.404	254.83
219.871	222.06
220.338	252.49
220.805	264.19
221.271	301.64
221.738	315.68
222.205	233.76
222.671	226.74
223.138	231.42
223.605	250.14
224.071	299.3
224.538	236.1
225.004	278.23
225.47	280.57
225.937	285.25
226.403	315.68
226.869	278.23
227.335	233.76
227.801	296.96
228.267	233.76
228.733	327.38
229.199	215.04
229.665	250.14
230.131	285.25
230.597	198.65
231.062	311
231.528	231.42
231.994	313.34
232.459	252.49
232.925	254.83
233.39	236.1
233.856	247.8
234.321	261.85
234.786	259.51
235.252	292.27
235.717	329.72
236.182	257.17
236.647	301.64
237.112	191.63
237.577	268.87
238.042	273.55
238.507	238.44
238.972	254.83
239.436	257.17
239.901	238.44
240.366	231.42
240.83	308.66
241.295	325.04
241.76	299.3
242.224	285.25
242.688	261.85
243.153	165.89
243.617	285.25
244.081	250.14
244.545	233.76
245.01	212.7
245.474	219.72
245.938	261.85
246.402	224.4
246.866	329.72
247.33	257.17
247.793	299.3
248.257	273.55
248.721	292.27
249.185	278.23
249.648	285.25
250.112	226.74
250.575	287.59
251.039	306.32
251.502	280.57
251.965	303.98
252.429	306.32
252.892	322.7
253.355	294.61
253.818	348.45
254.281	257.17
254.744	247.8
255.207	271.21
255.67	299.3
256.133	254.83
256.596	285.25
257.059	285.25
257.522	259.51
257.984	254.83
258.447	245.46
258.909	294.61
259.372	257.17
259.834	257.17
260.297	254.83
260.759	367.17
261.221	318.02
261.684	280.57
262.146	327.38
262.608	282.91
263.07	268.87
263.532	329.72
263.994	296.96
264.456	339.09
264.918	282.91
265.38	299.3
265.842	278.23
266.303	257.17
266.765	325.04
267.227	203.33
267.688	240.78
268.15	275.89
268.611	285.25
269.072	318.02
269.534	332.06
269.995	322.7
270.456	285.25
270.918	247.8
271.379	325.04
271.84	327.38
272.301	318.02
272.762	252.49
273.223	257.17
273.684	243.12
274.144	193.97
274.605	278.23
275.066	254.83
275.527	275.89
275.987	259.51
276.448	257.17
276.908	294.61
277.369	311
277.829	280.57
278.289	280.57
278.75	261.85
279.21	257.17
279.67	311
280.13	292.27
280.59	259.51
281.05	254.83
281.51	280.57
281.97	296.96
282.43	315.68
282.89	257.17
283.35	268.87
283.809	264.19
284.269	247.8
284.729	318.02
285.188	224.4
285.648	289.93
286.107	273.55
286.567	294.61
287.026	292.27
287.485	278.23
287.944	306.32
288.404	343.77
288.863	252.49
289.322	353.13
289.781	308.66
290.24	271.21
290.699	280.57
291.158	226.74
291.616	318.02
292.075	320.36
292.534	268.87
292.992	306.32
293.451	292.27
293.91	240.78
294.368	282.91
294.827	238.44
295.285	299.3
295.743	296.96
296.202	261.85
296.66	278.23
297.118	243.12
297.576	334.4
298.034	280.57
298.492	259.51
298.95	303.98
299.408	292.27
299.866	219.72
300.324	339.09
300.781	229.08
301.239	346.11
301.697	292.27
302.154	308.66
302.612	296.96
303.069	229.08
303.527	311
303.984	292.27
304.441	268.87
304.899	285.25
305.356	303.98
305.813	250.14
306.27	296.96
306.727	266.53
307.184	313.34
307.641	285.25
308.098	303.98
308.555	313.34
309.012	355.47
309.468	243.12
309.925	261.85
310.382	285.25
310.838	266.53
311.295	306.32
311.751	320.36
312.208	212.7
312.664	303.98
313.12	238.44
313.577	280.57
314.033	306.32
314.489	308.66
314.945	285.25
315.401	322.7
315.857	282.91
316.313	318.02
316.769	320.36
317.225	289.93
317.681	280.57
318.136	282.91
318.592	282.91
319.048	325.04
319.503	268.87
319.959	343.77
320.414	296.96
320.869	278.23
321.325	341.43
321.78	332.06
322.235	308.66
322.691	271.21
323.146	257.17
323.601	341.43
324.056	289.93
324.511	268.87
324.966	259.51
325.421	233.76
325.875	346.11
326.33	334.4
326.785	229.08
327.24	289.93
327.694	273.55
328.149	273.55
328.603	280.57
329.058	275.89
329.512	296.96
329.966	315.68
330.421	301.64
330.875	245.46
331.329	346.11
331.783	336.74
332.237	285.25
332.691	353.13
333.145	254.83
333.599	296.96
334.053	236.1
334.507	336.74
334.96	374.19
335.414	311
335.868	257.17
336.321	329.72
336.775	296.96
337.228	320.36
337.682	371.85
338.135	294.61
338.588	376.53
339.042	369.51
339.495	334.4
339.948	257.17
340.401	247.8
340.854	296.96
341.307	369.51
341.76	336.74
342.213	341.43
342.666	247.8
343.119	346.11
343.571	327.38
344.024	334.4
344.477	224.4
344.929	266.53
345.382	320.36
345.834	278.23
346.287	327.38
346.739	268.87
347.191	275.89
347.644	343.77
348.096	299.3
348.548	320.36
349	299.3
349.452	280.57
349.904	332.06
350.356	320.36
350.808	301.64
351.26	292.27
351.711	334.4
352.163	308.66
352.615	329.72
353.066	292.27
353.518	278.23
353.969	280.57
354.421	292.27
354.872	268.87
355.324	259.51
355.775	303.98
356.226	240.78
356.677	343.77
357.128	280.57
357.579	266.53
358.03	322.7
358.481	294.61
358.932	313.34
359.383	320.36
359.834	294.61
360.285	271.21
360.735	289.93
361.186	247.8
361.637	278.23
362.087	346.11
362.538	273.55
362.988	315.68
363.438	332.06
363.889	299.3
364.339	282.91
364.789	329.72
365.239	322.7
365.689	313.34
366.139	311
366.589	264.19
367.039	287.59
367.489	327.38
367.939	289.93
368.389	268.87
368.839	282.91
369.288	360.15
369.738	282.91
370.187	325.04
370.637	318.02
371.086	301.64
371.536	266.53
371.985	311
372.434	285.25
372.884	301.64
373.333	334.4
373.782	299.3
374.231	287.59
374.68	332.06
375.129	315.68
375.578	294.61
376.027	264.19
376.475	285.25
376.924	318.02
377.373	289.93
377.822	308.66
378.27	320.36
378.719	336.74
379.167	287.59
379.616	306.32
380.064	296.96
380.512	306.32
380.961	320.36
381.409	355.47
381.857	308.66
382.305	294.61
382.753	341.43
383.201	315.68
383.649	259.51
384.097	287.59
384.545	346.11
384.992	285.25
385.44	383.56
385.888	266.53
386.335	205.67
386.783	287.59
387.231	280.57
387.678	306.32
388.125	261.85
388.573	320.36
389.02	313.34
389.467	296.96
389.914	360.15
390.362	264.19
390.809	259.51
391.256	303.98
391.703	341.43
392.15	322.7
392.596	334.4
393.043	285.25
393.49	355.47
393.937	364.83
394.383	275.89
394.83	261.85
395.276	341.43
395.723	259.51
396.169	268.87
396.616	247.8
397.062	278.23
397.508	247.8
397.954	341.43
398.401	327.38
398.847	280.57
399.293	303.98
399.739	322.7
400.185	303.98
400.631	329.72
401.076	264.19
401.522	285.25
401.968	289.93
402.414	318.02
402.859	264.19
403.305	306.32
403.75	322.7
404.196	301.64
404.641	348.45
405.086	287.59
405.532	318.02
405.977	360.15
406.422	282.91
406.867	320.36
407.312	308.66
407.757	301.64
408.202	313.34
408.647	325.04
409.092	357.81
409.537	334.4
409.982	306.32
410.426	303.98
410.871	332.06
411.316	301.64
411.76	318.02
412.205	243.12
412.649	275.89
413.093	332.06
413.538	306.32
413.982	367.17
414.426	325.04
414.87	318.02
415.314	289.93
415.758	238.44
416.202	362.49
416.646	280.57
417.09	362.49
417.534	320.36
417.978	285.25
418.421	294.61
418.865	311
419.309	280.57
419.752	301.64
420.196	247.8
420.639	355.47
421.083	306.32
421.526	315.68
421.969	306.32
422.412	275.89
422.856	240.78
423.299	322.7
423.742	350.79
424.185	224.4
424.628	313.34
425.071	308.66
425.513	327.38
425.956	313.34
426.399	329.72
426.842	308.66
427.284	325.04
427.727	343.77
428.169	308.66
428.612	282.91
429.054	315.68
429.497	294.61
429.939	369.51
430.381	329.72
430.823	268.87
431.265	308.66
431.707	350.79
432.149	327.38
432.591	282.91
433.033	346.11
433.475	301.64
433.917	341.43
434.359	282.91
434.8	315.68
435.242	273.55
435.684	311
436.125	261.85
436.567	385.9
437.008	318.02
437.449	268.87
437.891	282.91
438.332	325.04
438.773	311
439.214	306.32
439.656	238.44
440.097	343.77
440.538	271.21
440.978	343.77
441.419	313.34
441.86	266.53
442.301	308.66
442.742	287.59
443.182	318.02
443.623	332.06
444.063	271.21
444.504	353.13
444.944	332.06
445.385	292.27
445.825	275.89
446.265	329.72
446.706	289.93
447.146	313.34
447.586	301.64
448.026	294.61
448.466	343.77
448.906	325.04
449.346	243.12
449.786	334.4
450.225	313.34
450.665	318.02
451.105	289.93
451.544	250.14
451.984	294.61
452.424	318.02
452.863	362.49
453.302	315.68
453.742	332.06
454.181	313.34
454.62	292.27
455.059	299.3
455.499	355.47
455.938	360.15
456.377	280.57
456.816	292.27
457.254	329.72
457.693	306.32
458.132	346.11
458.571	353.13
459.01	296.96
459.448	264.19
459.887	327.38
460.325	282.91
460.764	350.79
461.202	327.38
461.641	296.96
462.079	292.27
462.517	395.26
462.955	392.92
463.393	325.04
463.832	299.3
464.27	212.7
464.708	231.42
465.145	306.32
465.583	332.06
466.021	264.19
466.459	336.74
466.897	238.44
467.334	313.34
467.772	327.38
468.209	334.4
468.647	376.53
469.084	280.57
469.522	285.25
469.959	315.68
470.396	275.89
470.833	311
471.271	287.59
471.708	285.25
472.145	299.3
472.582	285.25
473.019	250.14
473.456	318.02
473.892	285.25
474.329	348.45
474.766	285.25
475.202	336.74
475.639	390.58
476.076	341.43
476.512	348.45
476.949	341.43
477.385	264.19
477.821	355.47
478.258	294.61
478.694	301.64
479.13	289.93
479.566	343.77
480.002	334.4
480.438	303.98
480.874	292.27
481.31	273.55
481.746	299.3
482.181	252.49
482.617	327.38
483.053	301.64
483.488	282.91
483.924	343.77
484.36	259.51
484.795	296.96
485.23	306.32
485.666	292.27
486.101	289.93
486.536	252.49
486.971	313.34
487.407	355.47
487.842	282.91
488.277	301.64
488.712	311
489.146	299.3
489.581	334.4
490.016	381.21
490.451	343.77
490.885	287.59
491.32	259.51
491.755	299.3
492.189	308.66
492.624	252.49
493.058	346.11
493.492	313.34
493.927	334.4
494.361	306.32
494.795	320.36
495.229	334.4
495.663	350.79
496.097	285.25
496.531	332.06
496.965	292.27
497.399	299.3
497.833	322.7
498.266	252.49
498.7	271.21
499.134	296.96
499.567	343.77
500.001	285.25
500.434	292.27
500.868	292.27
501.301	266.53
501.734	229.08
502.168	350.79
502.601	367.17
503.034	296.96
503.467	332.06
503.9	266.53
504.333	266.53
504.766	348.45
505.199	280.57
505.632	257.17
506.064	271.21
506.497	350.79
506.93	334.4
507.362	245.46
507.795	327.38
508.227	273.55
508.66	327.38
509.092	313.34
509.524	343.77
509.956	278.23
510.389	315.68
510.821	301.64
511.253	322.7
511.685	266.53
512.117	332.06
512.549	271.21
512.981	292.27
513.412	275.89
513.844	327.38
514.276	350.79
514.707	334.4
515.139	236.1
515.571	327.38
516.002	362.49
516.433	336.74
516.865	252.49
517.296	278.23
517.727	287.59
518.159	308.66
518.59	287.59
519.021	334.4
519.452	285.25
519.883	318.02
520.314	353.13
520.744	280.57
521.175	299.3
521.606	341.43
522.037	240.78
522.467	313.34
522.898	301.64
523.328	273.55
523.759	341.43
524.189	299.3
524.62	327.38
525.05	268.87
525.48	282.91
525.91	308.66
526.341	245.46
526.771	339.09
527.201	341.43
527.631	367.17
528.061	329.72
528.49	311
528.92	240.78
529.35	322.7
529.78	329.72
530.209	287.59
530.639	357.81
531.068	364.83
531.498	303.98
531.927	296.96
532.357	285.25
532.786	287.59
533.215	320.36
533.644	346.11
534.074	299.3
534.503	261.85
534.932	336.74
535.361	348.45
535.79	259.51
536.218	329.72
536.647	296.96
537.076	301.64
537.505	329.72
537.933	322.7
538.362	315.68
538.79	294.61
539.219	301.64
539.647	301.64
540.076	275.89
540.504	355.47
540.932	289.93
541.36	250.14
541.788	343.77
542.217	355.47
542.645	315.68
543.073	287.59
543.5	285.25
543.928	308.66
544.356	348.45
544.784	346.11
545.211	313.34
545.639	327.38
546.067	315.68
546.494	334.4
546.922	329.72
547.349	252.49
547.776	325.04
548.204	294.61
548.631	285.25
549.058	334.4
549.485	339.09
549.912	289.93
550.339	261.85
550.766	289.93
551.193	294.61
551.62	282.91
552.047	385.9
552.474	367.17
552.9	325.04
553.327	294.61
553.754	296.96
554.18	343.77
554.607	325.04
555.033	336.74
555.459	275.89
555.886	299.3
556.312	289.93
556.738	303.98
557.164	254.83
557.59	322.7
558.016	231.42
558.442	282.91
558.868	332.06
559.294	287.59
559.72	247.8
560.145	289.93
560.571	315.68
560.997	271.21
561.422	289.93
561.848	332.06
562.273	278.23
562.699	294.61
563.124	296.96
563.549	348.45
563.974	215.04
564.4	332.06
564.825	280.57
565.25	275.89
565.675	339.09
566.1	311
566.525	383.56
566.95	268.87
567.374	308.66
567.799	320.36
568.224	282.91
568.648	301.64
569.073	332.06
569.497	278.23
569.922	357.81
570.346	315.68
570.771	282.91
571.195	336.74
571.619	332.06
572.043	306.32
572.467	308.66
572.891	278.23
573.315	306.32
573.739	224.4
574.163	252.49
574.587	325.04
575.011	341.43
575.435	336.74
575.858	306.32
576.282	287.59
576.705	289.93
577.129	308.66
577.552	334.4
577.976	327.38
578.399	416.32
578.822	306.32
579.245	311
579.669	308.66
580.092	371.85
580.515	280.57
580.938	299.3
581.361	362.49
581.784	292.27
582.206	280.57
582.629	236.1
583.052	273.55
583.474	294.61
583.897	367.17
584.32	231.42
584.742	339.09
585.165	339.09
585.587	261.85
586.009	282.91
586.431	266.53
586.854	311
587.276	301.64
587.698	278.23
588.12	320.36
588.542	233.76
588.964	353.13
589.386	273.55
589.807	318.02
590.229	273.55
590.651	236.1
591.073	336.74
591.494	348.45
591.916	287.59
592.337	320.36
592.759	259.51
593.18	273.55
593.601	296.96
594.022	332.06
594.444	348.45
594.865	322.7
595.286	311
595.707	247.8
596.128	346.11
596.549	320.36
596.97	280.57
597.39	264.19
597.811	318.02
598.232	282.91
598.652	292.27
599.073	320.36
599.494	325.04
599.914	301.64
600.334	311
600.755	254.83
601.175	268.87
601.595	318.02
602.015	371.85
602.436	334.4
602.856	465.47
603.276	355.47
603.696	320.36
604.115	308.66
604.535	294.61
604.955	303.98
605.375	278.23
605.794	189.29
606.214	334.4
606.634	318.02
607.053	355.47
607.473	318.02
607.892	311
608.311	271.21
608.731	362.49
609.15	301.64
609.569	348.45
609.988	287.59
610.407	315.68
610.826	280.57
611.245	287.59
611.664	320.36
612.083	341.43
612.501	369.51
612.92	325.04
613.339	360.15
613.757	306.32
614.176	294.61
614.594	322.7
615.013	313.34
615.431	336.74
615.85	275.89
616.268	336.74
616.686	322.7
617.104	346.11
617.522	311
617.94	294.61
618.358	292.27
618.776	299.3
619.194	245.46
619.612	334.4
620.03	336.74
620.447	301.64
620.865	287.59
621.282	287.59
621.7	233.76
622.117	287.59
622.535	282.91
622.952	346.11
623.369	261.85
623.787	301.64
624.204	346.11
624.621	315.68
625.038	320.36
625.455	259.51
625.872	287.59
626.289	325.04
626.706	346.11
627.123	245.46
627.539	346.11
627.956	318.02
628.373	360.15
628.789	296.96
629.206	292.27
629.622	301.64
630.038	254.83
630.455	322.7
630.871	299.3
631.287	292.27
631.703	268.87
632.12	264.19
632.536	303.98
632.952	311
633.368	264.19
633.783	294.61
634.199	292.27
634.615	285.25
635.031	254.83
635.446	306.32
635.862	238.44
636.277	296.96
636.693	285.25
637.108	311
637.524	397.6
637.939	294.61
638.354	261.85
638.77	285.25
639.185	296.96
639.6	285.25
640.015	318.02
640.43	273.55
640.845	224.4
641.259	308.66
641.674	210.36
642.089	222.06
642.504	282.91
642.918	301.64
643.333	301.64
643.747	322.7
644.162	322.7
644.576	343.77
644.991	320.36
645.405	240.78
645.819	252.49
646.233	303.98
646.647	327.38
647.061	282.91
647.475	271.21
647.889	282.91
648.303	252.49
648.717	287.59
649.131	296.96
649.545	259.51
649.958	325.04
650.372	395.26
650.785	369.51
651.199	257.17
651.612	280.57
652.026	313.34
652.439	362.49
652.852	275.89
653.266	257.17
653.679	353.13
654.092	332.06
654.505	289.93
654.918	350.79
655.331	247.8
655.744	397.6
656.156	374.19
656.569	296.96
656.982	308.66
657.394	318.02
657.807	322.7
658.22	325.04
658.632	285.25
659.044	367.17
659.457	306.32
659.869	364.83
660.281	327.38
660.693	336.74
661.106	301.64
661.518	308.66
661.93	268.87
662.342	236.1
662.754	329.72
663.165	292.27
663.577	325.04
663.989	346.11
664.401	282.91
664.812	296.96
665.224	325.04
665.635	364.83
666.047	306.32
666.458	301.64
666.869	252.49
667.281	285.25
667.692	296.96
668.103	219.72
668.514	311
668.925	334.4
669.336	299.3
669.747	257.17
670.158	289.93
670.569	282.91
670.979	303.98
671.39	264.19
671.801	280.57
672.211	315.68
672.622	250.14
673.032	318.02
673.443	329.72
673.853	282.91
674.263	322.7
674.674	299.3
675.084	282.91
675.494	325.04
675.904	329.72
676.314	336.74
676.724	296.96
677.134	287.59
677.544	266.53
677.953	311
678.363	381.21
678.773	322.7
679.182	350.79
679.592	271.21
680.001	311
680.411	271.21
680.82	318.02
681.23	318.02
681.639	399.94
682.048	311
682.457	296.96
682.866	325.04
683.275	287.59
683.684	252.49
684.093	339.09
684.502	346.11
684.911	308.66
685.32	346.11
685.728	339.09
686.137	259.51
686.546	296.96
686.954	287.59
687.363	301.64
687.771	236.1
688.179	303.98
688.588	322.7
688.996	303.98
689.404	296.96
689.812	292.27
690.22	346.11
690.628	360.15
691.036	280.57
691.444	266.53
691.852	339.09
692.26	315.68
692.667	322.7
693.075	278.23
693.483	388.24
693.89	301.64
694.298	280.57
694.705	336.74
695.112	285.25
695.52	294.61
695.927	278.23
696.334	287.59
696.741	315.68
697.148	289.93
697.555	257.17
697.962	266.53
698.369	355.47
698.776	303.98
699.183	287.59
699.59	336.74
699.996	280.57
700.403	287.59
700.81	247.8
701.216	322.7
701.623	301.64
702.029	203.33
702.435	233.76
702.842	322.7
703.248	285.25
703.654	296.96
704.06	313.34
704.466	353.13
704.872	238.44
705.278	336.74
705.684	271.21
706.09	341.43
706.496	252.49
706.901	299.3
707.307	282.91
707.712	245.46
708.118	308.66
708.523	367.17
708.929	278.23
709.334	376.53
709.74	306.32
710.145	334.4
710.55	306.32
710.955	336.74
711.36	315.68
711.765	247.8
712.17	280.57
712.575	266.53
712.98	863.37
713.385	346.11
713.789	271.21
714.194	306.32
714.599	285.25
715.003	311
715.408	264.19
715.812	301.64
716.217	332.06
716.621	327.38
717.025	311
717.429	245.46
717.833	362.49
718.238	374.19
718.642	278.23
719.046	292.27
719.449	296.96
719.853	350.79
720.257	292.27
720.661	336.74
721.065	339.09
721.468	308.66
721.872	247.8
722.275	273.55
722.679	362.49
723.082	315.68
723.485	296.96
723.889	346.11
724.292	222.06
724.695	257.17
725.098	303.98
725.501	327.38
725.904	348.45
726.307	313.34
726.71	275.89
727.113	280.57
727.516	268.87
727.918	325.04
728.321	322.7
728.724	346.11
729.126	282.91
729.529	350.79
729.931	285.25
730.333	271.21
730.736	287.59
731.138	245.46
731.54	257.17
731.942	289.93
732.344	343.77
732.746	313.34
733.148	264.19
733.55	280.57
733.952	231.42
734.354	285.25
734.756	275.89
735.157	320.36
735.559	278.23
735.96	280.57
736.362	299.3
736.763	261.85
737.165	296.96
737.566	332.06
737.967	259.51
738.368	357.81
738.77	343.77
739.171	346.11
739.572	289.93
739.973	360.15
740.374	268.87
740.774	332.06
741.175	250.14
741.576	301.64
741.977	318.02
742.377	350.79
742.778	308.66
743.178	285.25
743.579	381.21
743.979	268.87
744.379	308.66
744.78	268.87
745.18	261.85
745.58	266.53
745.98	294.61
746.38	259.51
746.78	332.06
747.18	287.59
747.58	271.21
747.98	294.61
748.38	271.21
748.779	374.19
749.179	266.53
749.578	315.68
749.978	318.02
750.377	343.77
750.777	334.4
751.176	261.85
751.575	318.02
751.975	353.13
752.374	299.3
752.773	238.44
753.172	315.68
753.571	264.19
753.97	303.98
754.369	287.59
754.768	289.93
755.166	294.61
755.565	311
755.964	336.74
756.362	303.98
756.761	273.55
757.159	303.98
757.558	376.53
757.956	301.64
758.354	313.34
758.753	264.19
759.151	261.85
759.549	329.72
759.947	329.72
760.345	294.61
760.743	292.27
761.141	301.64
761.539	306.32
761.936	376.53
762.334	299.3
762.732	348.45
763.129	245.46
763.527	289.93
763.924	208.02
764.322	278.23
764.719	292.27
765.117	273.55
765.514	226.74
765.911	268.87
766.308	238.44
766.705	357.81
767.102	292.27
767.499	301.64
767.896	364.83
768.293	294.61
768.69	311
769.086	278.23
769.483	282.91
769.88	264.19
770.276	205.67
770.673	367.17
771.069	327.38
771.466	325.04
771.862	292.27
772.258	301.64
772.654	292.27
773.05	268.87
773.447	336.74
773.843	348.45
774.239	325.04
774.634	268.87
775.03	313.34
775.426	311
775.822	278.23
776.218	360.15
776.613	327.38
777.009	285.25
777.404	348.45
777.8	303.98
778.195	285.25
778.59	301.64
778.986	313.34
779.381	264.19
779.776	308.66
780.171	275.89
780.566	273.55
780.961	280.57
781.356	325.04
781.751	306.32
782.146	318.02
782.54	292.27
782.935	301.64
783.33	341.43
783.724	332.06
784.119	306.32
784.513	301.64
784.908	329.72
785.302	346.11
785.696	327.38
786.09	332.06
786.485	325.04
786.879	320.36
787.273	301.64
787.667	264.19
788.061	285.25
788.454	243.12
788.848	282.91
789.242	292.27
789.636	273.55
790.029	327.38
790.423	278.23
790.816	329.72
791.21	306.32
791.603	268.87
791.997	240.78
792.39	332.06
792.783	231.42
793.176	341.43
793.569	266.53
793.962	313.34
794.355	271.21
794.748	294.61
795.141	322.7
795.534	271.21
795.927	266.53
796.319	325.04
796.712	341.43
797.105	280.57
797.497	282.91
797.89	275.89
798.282	327.38
798.674	261.85
799.067	287.59
799.459	348.45
799.851	247.8
800.243	264.19
800.635	371.85
801.027	280.57
801.419	264.19
801.811	318.02
802.203	301.64
802.594	252.49
802.986	268.87
803.378	311
803.769	245.46
804.161	273.55
804.552	282.91
804.944	289.93
805.335	268.87
805.726	306.32
806.118	268.87
806.509	301.64
806.9	301.64
807.291	308.66
807.682	215.04
808.073	243.12
808.464	334.4
808.855	362.49
809.245	250.14
809.636	362.49
810.027	301.64
810.417	275.89
810.808	318.02
811.198	346.11
811.589	275.89
811.979	254.83
812.369	336.74
812.759	287.59
813.15	264.19
813.54	336.74
813.93	325.04
814.32	222.06
814.71	332.06
815.1	306.32
815.489	268.87
815.879	266.53
816.269	261.85
816.658	271.21
817.048	303.98
817.438	322.7
817.827	350.79
818.216	329.72
818.606	315.68
818.995	346.11
819.384	322.7
819.773	280.57
820.163	273.55
820.552	224.4
820.941	348.45
821.33	318.02
821.718	329.72
822.107	311
822.496	320.36
822.885	353.13
823.273	240.78
823.662	264.19
824.05	282.91
824.439	311
824.827	350.79
825.216	303.98
825.604	254.83
825.992	306.32
826.38	287.59
826.768	275.89
827.156	261.85
827.544	259.51
827.932	275.89
828.32	285.25
828.708	355.47
829.096	325.04
829.483	299.3
829.871	271.21
830.259	299.3
830.646	264.19
831.034	280.57
831.421	325.04
831.808	250.14
832.196	329.72
832.583	296.96
832.97	343.77
833.357	313.34
833.744	303.98
834.131	264.19
834.518	271.21
834.905	308.66
835.292	275.89
835.678	266.53
836.065	311
836.452	301.64
836.838	278.23
837.225	238.44
837.611	308.66
837.998	240.78
838.384	264.19
838.77	238.44
839.157	243.12
839.543	226.74
839.929	285.25
840.315	231.42
840.701	355.47
841.087	357.81
841.473	311
841.858	369.51
842.244	271.21
842.63	315.68
843.015	315.68
843.401	371.85
843.787	313.34
844.172	296.96
844.557	271.21
844.943	332.06
845.328	327.38
845.713	369.51
846.098	355.47
846.483	311
846.868	322.7
847.253	296.96
847.638	266.53
848.023	329.72
848.408	292.27
848.793	360.15
849.177	280.57
849.562	341.43
849.947	278.23
850.331	287.59
850.715	318.02
851.1	334.4
851.484	271.21
851.868	341.43
852.253	280.57
852.637	292.27
853.021	257.17
853.405	385.9
853.789	257.17
854.173	315.68
854.557	353.13
854.94	346.11
855.324	339.09
855.708	313.34
856.091	303.98
856.475	303.98
856.858	278.23
857.242	329.72
857.625	280.57
858.009	313.34
858.392	336.74
858.775	285.25
859.158	296.96
859.541	329.72
859.924	275.89
860.307	334.4
860.69	341.43
861.073	346.11
861.456	404.62
861.838	299.3
862.221	332.06
862.604	355.47
862.986	259.51
863.369	306.32
863.751	278.23
864.133	299.3
864.516	268.87
864.898	341.43
865.28	215.04
865.662	313.34
866.044	250.14
866.426	271.21
866.808	280.57
867.19	296.96
867.572	327.38
867.954	299.3
868.336	301.64
868.717	292.27
869.099	303.98
869.48	278.23
869.862	296.96
870.243	287.59
870.625	287.59
871.006	289.93
871.387	303.98
871.768	299.3
872.149	322.7
872.53	191.63
872.911	320.36
873.292	299.3
873.673	311
874.054	299.3
874.435	289.93
874.815	301.64
875.196	296.96
875.577	339.09
875.957	292.27
876.338	292.27
876.718	259.51
877.098	289.93
877.479	240.78
877.859	278.23
878.239	212.7
878.619	280.57
878.999	282.91
879.379	303.98
879.759	252.49
880.139	247.8
880.519	278.23
880.898	273.55
881.278	289.93
881.658	325.04
882.037	229.08
882.417	336.74
882.796	273.55
883.176	292.27
883.555	266.53
883.934	327.38
884.313	367.17
884.693	343.77
885.072	268.87
885.451	289.93
885.83	315.68
886.209	273.55
886.587	313.34
886.966	247.8
887.345	268.87
887.724	327.38
888.102	264.19
888.481	294.61
888.859	271.21
889.238	327.38
889.616	334.4
889.994	329.72
890.373	191.63
890.751	320.36
891.129	268.87
891.507	294.61
891.885	325.04
892.263	327.38
892.641	264.19
893.019	243.12
893.396	313.34
893.774	271.21
894.152	273.55
894.529	306.32
894.907	231.42
895.284	271.21
895.662	306.32
896.039	287.59
896.416	275.89
896.794	289.93
897.171	273.55
897.548	289.93
897.925	299.3
898.302	299.3
898.679	306.32
899.056	353.13
899.433	315.68
899.809	329.72
900.186	343.77
900.563	294.61
900.939	294.61
901.316	332.06
901.692	353.13
902.069	327.38
902.445	327.38
902.821	252.49
903.197	219.72
903.574	271.21
903.95	339.09
904.326	320.36
904.702	287.59
905.078	285.25
905.454	315.68
905.829	268.87
906.205	301.64
906.581	205.67
906.956	294.61
907.332	322.7
907.707	285.25
908.083	296.96
908.458	282.91
908.833	289.93
909.209	360.15
909.584	308.66
909.959	271.21
910.334	296.96
910.709	334.4
911.084	266.53
911.459	287.59
911.834	245.46
912.209	205.67
912.583	275.89
912.958	332.06
913.333	266.53
913.707	315.68
914.082	301.64
914.456	247.8
914.83	200.99
915.205	308.66
915.579	294.61
915.953	259.51
916.327	233.76
916.701	275.89
917.075	296.96
917.449	308.66
917.823	308.66
918.197	301.64
918.571	289.93
918.944	294.61
919.318	315.68
919.692	254.83
920.065	334.4
920.438	315.68
920.812	308.66
921.185	238.44
921.558	296.96
921.932	261.85
922.305	322.7
922.678	301.64
923.051	308.66
923.424	243.12
923.797	301.64
924.17	327.38
924.542	245.46
924.915	292.27
925.288	367.17
925.661	311
926.033	334.4
926.406	231.42
926.778	329.72
927.15	287.59
927.523	278.23
927.895	205.67
928.267	308.66
928.639	292.27
929.011	280.57
929.383	299.3
929.755	245.46
930.127	311
930.499	292.27
930.871	287.59
931.242	301.64
931.614	296.96
931.986	311
932.357	367.17
932.729	271.21
933.1	273.55
933.471	308.66
933.843	254.83
934.214	306.32
934.585	315.68
934.956	320.36
935.327	301.64
935.698	282.91
936.069	327.38
936.44	266.53
936.811	278.23
937.182	339.09
937.552	245.46
937.923	254.83
938.293	261.85
938.664	299.3
939.034	278.23
939.405	273.55
939.775	334.4
940.145	287.59
940.516	273.55
940.886	275.89
941.256	301.64
941.626	346.11
941.996	318.02
942.366	268.87
942.735	341.43
943.105	329.72
943.475	334.4
943.845	296.96
944.214	308.66
944.584	275.89
944.953	296.96
945.323	336.74
945.692	247.8
946.061	296.96
946.43	289.93
946.8	252.49
947.169	240.78
947.538	271.21
947.907	275.89
948.276	320.36
948.645	282.91
949.013	308.66
949.382	296.96
949.751	308.66
950.119	296.96
950.488	268.87
950.857	278.23
951.225	299.3
951.593	301.64
951.962	233.76
952.33	289.93
952.698	252.49
953.066	301.64
953.434	282.91
953.802	264.19
954.17	254.83
954.538	367.17
954.906	343.77
955.274	329.72
955.642	301.64
956.009	268.87
956.377	343.77
956.744	364.83
957.112	278.23
957.479	306.32
957.847	252.49
958.214	275.89
958.581	376.53
958.948	341.43
959.315	350.79
959.683	278.23
960.05	285.25
960.416	301.64
960.783	327.38
961.15	318.02
961.517	252.49
961.884	308.66
962.25	348.45
962.617	301.64
962.983	353.13
963.35	264.19
963.716	282.91
964.082	282.91
964.449	259.51
964.815	224.4
965.181	301.64
965.547	376.53
965.913	339.09
966.279	299.3
966.645	240.78
967.011	306.32
967.377	292.27
967.742	306.32
968.108	282.91
968.474	257.17
968.839	266.53
969.205	278.23
969.57	327.38
969.935	311
970.301	299.3
970.666	261.85
971.031	229.08
971.396	245.46
971.761	320.36
972.126	184.61
972.491	268.87
972.856	289.93
973.221	292.27
973.586	325.04
973.95	299.3
974.315	355.47
974.679	268.87
975.044	296.96
975.408	308.66
975.773	292.27
976.137	268.87
976.501	257.17
976.866	318.02
977.23	240.78
977.594	203.33
977.958	285.25
978.322	275.89
978.686	292.27
979.049	257.17
979.413	318.02
979.777	346.11
980.141	280.57
980.504	278.23
980.868	261.85
981.231	193.97
981.595	254.83
981.958	254.83
982.321	289.93
982.684	273.55
983.048	313.34
983.411	292.27
983.774	325.04
984.137	348.45
984.5	287.59
984.862	318.02
985.225	339.09
985.588	308.66
985.951	268.87
986.313	336.74
986.676	250.14
987.038	282.91
987.401	353.13
987.763	289.93
988.125	306.32
988.488	303.98
988.85	282.91
989.212	332.06
989.574	306.32
989.936	308.66
990.298	303.98
990.66	282.91
991.022	247.8
991.383	336.74
991.745	250.14
992.107	303.98
992.468	315.68
992.83	294.61
993.191	311
993.553	285.25
993.914	303.98
994.275	261.85
994.637	313.34
994.998	306.32
995.359	332.06
995.72	294.61
996.081	250.14
996.442	318.02
996.803	308.66
997.163	271.21
997.524	280.57
997.885	336.74
998.245	292.27
998.606	259.51
998.966	259.51
999.327	325.04
999.687	296.96
1000.047	320.36
1000.408	322.7
1000.768	308.66
1001.128	322.7
1001.488	252.49
1001.848	311
1002.208	383.56
1002.568	301.64
1002.927	243.12
1003.287	296.96
1003.647	292.27
1004.007	292.27
1004.366	268.87
1004.726	315.68
1005.085	257.17
1005.444	320.36
1005.804	282.91
1006.163	289.93
1006.522	257.17
1006.881	303.98
1007.24	259.51
1007.599	282.91
1007.958	278.23
1008.317	336.74
1008.676	322.7
1009.035	313.34
1009.393	296.96
1009.752	318.02
1010.111	315.68
1010.469	364.83
1010.828	271.21
1011.186	303.98
1011.544	292.27
1011.903	252.49
1012.261	339.09
1012.619	315.68
1012.977	247.8
1013.335	259.51
1013.693	315.68
1014.051	296.96
1014.409	341.43
1014.767	313.34
1015.124	238.44
1015.482	285.25
1015.84	261.85
1016.197	238.44
1016.555	275.89
1016.912	289.93
1017.269	294.61
1017.627	334.4
1017.984	271.21
1018.341	313.34
1018.698	273.55
1019.055	271.21
1019.412	289.93
1019.769	301.64
1020.126	313.34
1020.483	315.68
1020.84	287.59
1021.196	353.13
1021.553	282.91
1021.909	308.66
1022.266	252.49
1022.622	308.66
1022.979	261.85
1023.335	273.55
1023.691	334.4
1024.047	329.72
1024.404	292.27
1024.76	245.46
1025.116	320.36
1025.472	308.66
1025.827	282.91
1026.183	264.19
1026.539	203.33
1026.895	273.55
1027.25	240.78
1027.606	198.65
1027.961	287.59
1028.317	294.61
1028.672	259.51
1029.028	289.93
1029.383	325.04
1029.738	285.25
1030.093	350.79
1030.448	280.57
1030.803	348.45
1031.158	261.85
1031.513	313.34
1031.868	327.38
1032.223	339.09
1032.577	343.77
1032.932	282.91
1033.287	318.02
1033.641	301.64
1033.996	329.72
1034.35	313.34
1034.704	264.19
1035.059	278.23
1035.413	353.13
1035.767	353.13
1036.121	353.13
