Data from Al_FLMS009871__1221__16-44-31-975.txt Node

Date: Fri Mar 08 16:44:31 CST 2024
User: pe5414po
Spectrometer: FLMS00987
Trigger mode: 0
Integration Time (sec): 1.000000E-1
Scans to average: 1
Electric dark correction enabled: true
Nonlinearity correction enabled: false
Boxcar width: 0
XAxis mode: Wavelengths
Number of Pixels in Spectrum: 2048
>>>>>Begin Spectral Data<<<<<
188.938	-40.23
189.409	-40.23
189.879	-40.23
190.349	-56.61
190.819	-129.17
191.29	-63.63
191.76	-108.1
192.23	-103.42
192.7	-84.7
193.17	-37.89
193.64	8.92
194.109	-40.23
194.579	-23.84
195.049	65.1
195.519	13.6
195.988	-47.25
196.458	81.48
196.927	58.07
197.397	121.27
197.866	67.44
198.336	93.18
198.805	165.74
199.274	168.08
199.744	172.76
200.213	186.8
200.682	158.72
201.151	203.19
201.62	247.66
202.089	226.59
202.558	247.66
203.027	257.02
203.495	273.4
203.964	324.9
204.433	299.15
204.902	301.49
205.37	278.08
205.839	275.74
206.307	264.04
206.776	345.96
207.244	261.7
207.712	315.53
208.181	320.21
208.649	341.28
209.117	299.15
209.585	322.56
210.053	282.77
210.521	299.15
210.989	296.81
211.457	294.47
211.925	310.85
212.393	266.38
212.861	303.83
213.328	324.9
213.796	268.72
214.264	303.83
214.731	348.3
215.199	268.72
215.666	287.45
216.133	273.4
216.601	306.17
217.068	345.96
217.535	273.4
218.003	329.58
218.47	313.19
218.937	329.58
219.404	280.43
219.871	355.32
220.338	308.51
220.805	296.81
221.271	247.66
221.738	289.79
222.205	247.66
222.671	266.38
223.138	278.08
223.605	273.4
224.071	303.83
224.538	268.72
225.004	273.4
225.47	240.64
225.937	303.83
226.403	315.53
226.869	315.53
227.335	327.24
227.801	268.72
228.267	254.68
228.733	292.13
229.199	250
229.665	257.02
230.131	301.49
230.597	247.66
231.062	299.15
231.528	264.04
231.994	250
232.459	303.83
232.925	278.08
233.39	327.24
233.856	317.87
234.321	268.72
234.786	259.36
235.252	296.81
235.717	275.74
236.182	266.38
236.647	320.21
237.112	287.45
237.577	245.32
238.042	362.34
238.507	320.21
238.972	266.38
239.436	343.62
239.901	233.61
240.366	296.81
240.83	294.47
241.295	310.85
241.76	240.64
242.224	294.47
242.688	310.85
243.153	320.21
243.617	242.98
244.081	254.68
244.545	315.53
245.01	271.06
245.474	242.98
245.938	285.11
246.402	369.37
246.866	301.49
247.33	313.19
247.793	355.32
248.257	264.04
248.721	348.3
249.185	261.7
249.648	315.53
250.112	257.02
250.575	313.19
251.039	294.47
251.502	275.74
251.965	268.72
252.429	296.81
252.892	278.08
253.355	273.4
253.818	235.96
254.281	315.53
254.744	273.4
255.207	287.45
255.67	322.56
256.133	238.3
256.596	301.49
257.059	322.56
257.522	259.36
257.984	320.21
258.447	324.9
258.909	242.98
259.372	306.17
259.834	348.3
260.297	289.79
260.759	273.4
261.221	303.83
261.684	362.34
262.146	322.56
262.608	313.19
263.07	331.92
263.532	301.49
263.994	329.58
264.456	334.26
264.918	287.45
265.38	348.3
265.842	378.73
266.303	355.32
266.765	338.94
267.227	268.72
267.688	313.19
268.15	296.81
268.611	350.64
269.072	271.06
269.534	245.32
269.995	338.94
270.456	259.36
270.918	301.49
271.379	280.43
271.84	308.51
272.301	299.15
272.762	296.81
273.223	257.02
273.684	317.87
274.144	289.79
274.605	285.11
275.066	338.94
275.527	296.81
275.987	341.28
276.448	355.32
276.908	334.26
277.369	360
277.829	292.13
278.289	273.4
278.75	322.56
279.21	329.58
279.67	310.85
280.13	280.43
280.59	299.15
281.05	315.53
281.51	257.02
281.97	299.15
282.43	331.92
282.89	355.32
283.35	348.3
283.809	324.9
284.269	289.79
284.729	278.08
285.188	294.47
285.648	308.51
286.107	296.81
286.567	303.83
287.026	371.71
287.485	287.45
287.944	322.56
288.404	338.94
288.863	315.53
289.322	306.17
289.781	296.81
290.24	348.3
290.699	294.47
291.158	310.85
291.616	320.21
292.075	296.81
292.534	350.64
292.992	235.96
293.451	294.47
293.91	238.3
294.368	306.17
294.827	301.49
295.285	313.19
295.743	287.45
296.202	296.81
296.66	287.45
297.118	355.32
297.576	296.81
298.034	352.98
298.492	292.13
298.95	315.53
299.408	238.3
299.866	329.58
300.324	348.3
300.781	322.56
301.239	301.49
301.697	296.81
302.154	350.64
302.612	224.25
303.069	315.53
303.527	313.19
303.984	334.26
304.441	329.58
304.899	364.68
305.356	287.45
305.813	324.9
306.27	357.66
306.727	378.73
307.184	336.6
307.641	381.07
308.098	296.81
308.555	266.38
309.012	334.26
309.468	294.47
309.925	268.72
310.382	301.49
310.838	324.9
311.295	324.9
311.751	292.13
312.208	315.53
312.664	313.19
313.12	343.62
313.577	315.53
314.033	308.51
314.489	310.85
314.945	273.4
315.401	259.36
315.857	329.58
316.313	331.92
316.769	266.38
317.225	327.24
317.681	404.47
318.136	275.74
318.592	273.4
319.048	334.26
319.503	350.64
319.959	350.64
320.414	292.13
320.869	294.47
321.325	212.55
321.78	324.9
322.235	278.08
322.691	294.47
323.146	301.49
323.601	324.9
324.056	264.04
324.511	329.58
324.966	348.3
325.421	261.7
325.875	343.62
326.33	271.06
326.785	257.02
327.24	322.56
327.694	327.24
328.149	278.08
328.603	322.56
329.058	320.21
329.512	296.81
329.966	280.43
330.421	282.77
330.875	287.45
331.329	257.02
331.783	320.21
332.237	350.64
332.691	331.92
333.145	320.21
333.599	287.45
334.053	374.05
334.507	324.9
334.96	301.49
335.414	369.37
335.868	264.04
336.321	303.83
336.775	310.85
337.228	350.64
337.682	334.26
338.135	322.56
338.588	371.71
339.042	341.28
339.495	324.9
339.948	310.85
340.401	315.53
340.854	362.34
341.307	348.3
341.76	324.9
342.213	360
342.666	315.53
343.119	250
343.571	331.92
344.024	292.13
344.477	282.77
344.929	348.3
345.382	310.85
345.834	273.4
346.287	308.51
346.739	336.6
347.191	271.06
347.644	388.09
348.096	308.51
348.548	360
349	360
349.452	285.11
349.904	338.94
350.356	322.56
350.808	315.53
351.26	315.53
351.711	315.53
352.163	378.73
352.615	338.94
353.066	315.53
353.518	362.34
353.969	329.58
354.421	357.66
354.872	345.96
355.324	324.9
355.775	343.62
356.226	350.64
356.677	341.28
357.128	266.38
357.579	320.21
358.03	306.17
358.481	338.94
358.932	381.07
359.383	301.49
359.834	345.96
360.285	334.26
360.735	322.56
361.186	235.96
361.637	360
362.087	322.56
362.538	282.77
362.988	296.81
363.438	275.74
363.889	250
364.339	404.47
364.789	355.32
365.239	310.85
365.689	329.58
366.139	376.39
366.589	331.92
367.039	313.19
367.489	327.24
367.939	360
368.389	364.68
368.839	310.85
369.288	338.94
369.738	331.92
370.187	334.26
370.637	252.34
371.086	341.28
371.536	313.19
371.985	390.43
372.434	362.34
372.884	331.92
373.333	287.45
373.782	329.58
374.231	338.94
374.68	273.4
375.129	329.58
375.578	324.9
376.027	285.11
376.475	364.68
376.924	299.15
377.373	350.64
377.822	371.71
378.27	301.49
378.719	341.28
379.167	336.6
379.616	338.94
380.064	329.58
380.512	294.47
380.961	315.53
381.409	341.28
381.857	317.87
382.305	331.92
382.753	315.53
383.201	278.08
383.649	320.21
384.097	289.79
384.545	320.21
384.992	278.08
385.44	329.58
385.888	430.22
386.335	331.92
386.783	355.32
387.231	362.34
387.678	289.79
388.125	331.92
388.573	362.34
389.02	317.87
389.467	287.45
389.914	327.24
390.362	348.3
390.809	310.85
391.256	327.24
391.703	301.49
392.15	350.64
392.596	303.83
393.043	345.96
393.49	355.32
393.937	336.6
394.383	301.49
394.83	320.21
395.276	331.92
395.723	257.02
396.169	350.64
396.616	322.56
397.062	374.05
397.508	310.85
397.954	301.49
398.401	315.53
398.847	315.53
399.293	322.56
399.739	336.6
400.185	406.81
400.631	338.94
401.076	306.17
401.522	390.43
401.968	299.15
402.414	329.58
402.859	350.64
403.305	310.85
403.75	273.4
404.196	341.28
404.641	378.73
405.086	376.39
405.532	336.6
405.977	317.87
406.422	324.9
406.867	329.58
407.312	308.51
407.757	383.41
408.202	355.32
408.647	282.77
409.092	261.7
409.537	374.05
409.982	285.11
410.426	299.15
410.871	374.05
411.316	341.28
411.76	294.47
412.205	301.49
412.649	313.19
413.093	322.56
413.538	371.71
413.982	362.34
414.426	327.24
414.87	343.62
415.314	292.13
415.758	338.94
416.202	254.68
416.646	247.66
417.09	343.62
417.534	336.6
417.978	369.37
418.421	294.47
418.865	371.71
419.309	371.71
419.752	289.79
420.196	306.17
420.639	296.81
421.083	324.9
421.526	329.58
421.969	285.11
422.412	306.17
422.856	315.53
423.299	320.21
423.742	266.38
424.185	404.47
424.628	287.45
425.071	357.66
425.513	331.92
425.956	357.66
426.399	364.68
426.842	338.94
427.284	322.56
427.727	287.45
428.169	369.37
428.612	336.6
429.054	322.56
429.497	348.3
429.939	409.15
430.381	343.62
430.823	355.32
431.265	367.03
431.707	294.47
432.149	315.53
432.591	329.58
433.033	327.24
433.475	378.73
433.917	301.49
434.359	329.58
434.8	289.79
435.242	383.41
435.684	329.58
436.125	322.56
436.567	327.24
437.008	289.79
437.449	233.61
437.891	261.7
438.332	376.39
438.773	294.47
439.214	308.51
439.656	308.51
440.097	303.83
440.538	313.19
440.978	282.77
441.419	360
441.86	345.96
442.301	362.34
442.742	292.13
443.182	341.28
443.623	343.62
444.063	341.28
444.504	282.77
444.944	360
445.385	268.72
445.825	310.85
446.265	352.98
446.706	303.83
447.146	357.66
447.586	343.62
448.026	285.11
448.466	320.21
448.906	371.71
449.346	360
449.786	287.45
450.225	320.21
450.665	388.09
451.105	334.26
451.544	348.3
451.984	395.11
452.424	374.05
452.863	338.94
453.302	268.72
453.742	327.24
454.181	345.96
454.62	397.45
455.059	350.64
455.499	268.72
455.938	331.92
456.377	303.83
456.816	315.53
457.254	315.53
457.693	343.62
458.132	287.45
458.571	324.9
459.01	324.9
459.448	348.3
459.887	385.75
460.325	296.81
460.764	343.62
461.202	334.26
461.641	345.96
462.079	345.96
462.517	315.53
462.955	338.94
463.393	315.53
463.832	388.09
464.27	369.37
464.708	338.94
465.145	345.96
465.583	334.26
466.021	371.71
466.459	324.9
466.897	369.37
467.334	331.92
467.772	287.45
468.209	334.26
468.647	334.26
469.084	282.77
469.522	357.66
469.959	334.26
470.396	338.94
470.833	282.77
471.271	252.34
471.708	345.96
472.145	296.81
472.582	294.47
473.019	364.68
473.456	331.92
473.892	280.43
474.329	338.94
474.766	320.21
475.202	341.28
475.639	329.58
476.076	392.77
476.512	322.56
476.949	369.37
477.385	296.81
477.821	331.92
478.258	331.92
478.694	348.3
479.13	348.3
479.566	343.62
480.002	343.62
480.438	352.98
480.874	271.06
481.31	388.09
481.746	310.85
482.181	348.3
482.617	334.26
483.053	322.56
483.488	404.47
483.924	303.83
484.36	289.79
484.795	301.49
485.23	362.34
485.666	322.56
486.101	334.26
486.536	336.6
486.971	364.68
487.407	343.62
487.842	268.72
488.277	404.47
488.712	289.79
489.146	275.74
489.581	273.4
490.016	282.77
490.451	299.15
490.885	369.37
491.32	376.39
491.755	341.28
492.189	341.28
492.624	383.41
493.058	343.62
493.492	341.28
493.927	367.03
494.361	343.62
494.795	313.19
495.229	310.85
495.663	357.66
496.097	364.68
496.531	329.58
496.965	296.81
497.399	299.15
497.833	388.09
498.266	317.87
498.7	228.93
499.134	306.17
499.567	285.11
500.001	301.49
500.434	364.68
500.868	296.81
501.301	301.49
501.734	343.62
502.168	275.74
502.601	360
503.034	352.98
503.467	360
503.9	306.17
504.333	371.71
504.766	399.79
505.199	282.77
505.632	273.4
506.064	362.34
506.497	301.49
506.93	324.9
507.362	317.87
507.795	289.79
508.227	310.85
508.66	341.28
509.092	310.85
509.524	345.96
509.956	308.51
510.389	341.28
510.821	362.34
511.253	355.32
511.685	303.83
512.117	336.6
512.549	324.9
512.981	362.34
513.412	388.09
513.844	268.72
514.276	406.81
514.707	338.94
515.139	310.85
515.571	381.07
516.002	362.34
516.433	320.21
516.865	364.68
517.296	341.28
517.727	292.13
518.159	357.66
518.59	313.19
519.021	285.11
519.452	338.94
519.883	252.34
520.314	327.24
520.744	306.17
521.175	324.9
521.606	374.05
522.037	392.77
522.467	322.56
522.898	320.21
523.328	315.53
523.759	397.45
524.189	355.32
524.62	320.21
525.05	331.92
525.48	348.3
525.91	371.71
526.341	336.6
526.771	275.74
527.201	343.62
527.631	322.56
528.061	352.98
528.49	317.87
528.92	315.53
529.35	310.85
529.78	320.21
530.209	264.04
530.639	336.6
531.068	315.53
531.498	345.96
531.927	369.37
532.357	285.11
532.786	299.15
533.215	362.34
533.644	294.47
534.074	338.94
534.503	381.07
534.932	313.19
535.361	292.13
535.79	310.85
536.218	364.68
536.647	306.17
537.076	310.85
537.505	341.28
537.933	345.96
538.362	350.64
538.79	310.85
539.219	322.56
539.647	357.66
540.076	341.28
540.504	282.77
540.932	294.47
541.36	367.03
541.788	360
542.217	306.17
542.645	397.45
543.073	371.71
543.5	322.56
543.928	371.71
544.356	352.98
544.784	371.71
545.211	367.03
545.639	301.49
546.067	357.66
546.494	315.53
546.922	310.85
547.349	317.87
547.776	355.32
548.204	327.24
548.631	385.75
549.058	374.05
549.485	345.96
549.912	289.79
550.339	317.87
550.766	355.32
551.193	345.96
551.62	360
552.047	336.6
552.474	322.56
552.9	369.37
553.327	341.28
553.754	306.17
554.18	341.28
554.607	310.85
555.033	348.3
555.459	310.85
555.886	357.66
556.312	315.53
556.738	294.47
557.164	327.24
557.59	294.47
558.016	331.92
558.442	371.71
558.868	324.9
559.294	369.37
559.72	343.62
560.145	287.45
560.571	306.17
560.997	338.94
561.422	334.26
561.848	292.13
562.273	343.62
562.699	357.66
563.124	303.83
563.549	334.26
563.974	327.24
564.4	338.94
564.825	327.24
565.25	306.17
565.675	301.49
566.1	374.05
566.525	350.64
566.95	397.45
567.374	296.81
567.799	271.06
568.224	397.45
568.648	240.64
569.073	324.9
569.497	362.34
569.922	331.92
570.346	329.58
570.771	324.9
571.195	376.39
571.619	310.85
572.043	329.58
572.467	345.96
572.891	324.9
573.315	294.47
573.739	355.32
574.163	289.79
574.587	355.32
575.011	334.26
575.435	352.98
575.858	369.37
576.282	345.96
576.705	355.32
577.129	376.39
577.552	352.98
577.976	334.26
578.399	271.06
578.822	322.56
579.245	360
579.669	357.66
580.092	315.53
580.515	374.05
580.938	306.17
581.361	310.85
581.784	313.19
582.206	310.85
582.629	308.51
583.052	362.34
583.474	345.96
583.897	338.94
584.32	336.6
584.742	336.6
585.165	338.94
585.587	364.68
586.009	383.41
586.431	299.15
586.854	299.15
587.276	383.41
587.698	331.92
588.12	313.19
588.542	369.37
588.964	303.83
589.386	378.73
589.807	320.21
590.229	310.85
590.651	357.66
591.073	338.94
591.494	367.03
591.916	350.64
592.337	462.99
592.759	313.19
593.18	369.37
593.601	327.24
594.022	334.26
594.444	334.26
594.865	334.26
595.286	334.26
595.707	331.92
596.128	381.07
596.549	399.79
596.97	282.77
597.39	292.13
597.811	413.84
598.232	343.62
598.652	306.17
599.073	355.32
599.494	252.34
599.914	364.68
600.334	334.26
600.755	334.26
601.175	336.6
601.595	299.15
602.015	374.05
602.436	259.36
602.856	423.2
603.276	313.19
603.696	322.56
604.115	308.51
604.535	315.53
604.955	313.19
605.375	315.53
605.794	343.62
606.214	317.87
606.634	320.21
607.053	310.85
607.473	367.03
607.892	376.39
608.311	322.56
608.731	327.24
609.15	308.51
609.569	336.6
609.988	336.6
610.407	334.26
610.826	280.43
611.245	355.32
611.664	317.87
612.083	322.56
612.501	348.3
612.92	322.56
613.339	322.56
613.757	322.56
614.176	306.17
614.594	261.7
615.013	334.26
615.431	329.58
615.85	320.21
616.268	282.77
616.686	303.83
617.104	278.08
617.522	317.87
617.94	369.37
618.358	275.74
618.776	329.58
619.194	334.26
619.612	345.96
620.03	268.72
620.447	371.71
620.865	271.06
621.282	320.21
621.7	350.64
622.117	310.85
622.535	268.72
622.952	317.87
623.369	322.56
623.787	357.66
624.204	238.3
624.621	329.58
625.038	397.45
625.455	320.21
625.872	355.32
626.289	357.66
626.706	378.73
627.123	324.9
627.539	350.64
627.956	303.83
628.373	350.64
628.789	338.94
629.206	367.03
629.622	306.17
630.038	315.53
630.455	338.94
630.871	285.11
631.287	378.73
631.703	376.39
632.12	357.66
632.536	327.24
632.952	320.21
633.368	357.66
633.783	271.06
634.199	299.15
634.615	317.87
635.031	350.64
635.446	308.51
635.862	336.6
636.277	205.53
636.693	336.6
637.108	306.17
637.524	388.09
637.939	317.87
638.354	271.06
638.77	350.64
639.185	367.03
639.6	306.17
640.015	322.56
640.43	313.19
640.845	315.53
641.259	280.43
641.674	310.85
642.089	352.98
642.504	334.26
642.918	362.34
643.333	303.83
643.747	378.73
644.162	338.94
644.576	343.62
644.991	352.98
645.405	310.85
645.819	334.26
646.233	345.96
646.647	367.03
647.061	362.34
647.475	327.24
647.889	296.81
648.303	341.28
648.717	355.32
649.131	296.81
649.545	327.24
649.958	334.26
650.372	320.21
650.785	327.24
651.199	287.45
651.612	271.06
652.026	338.94
652.439	331.92
652.852	285.11
653.266	357.66
653.679	331.92
654.092	313.19
654.505	334.26
654.918	362.34
655.331	355.32
655.744	343.62
656.156	259.36
656.569	334.26
656.982	338.94
657.394	294.47
657.807	278.08
658.22	343.62
658.632	310.85
659.044	383.41
659.457	292.13
659.869	278.08
660.281	268.72
660.693	360
661.106	341.28
661.518	257.02
661.93	367.03
662.342	278.08
662.754	334.26
663.165	324.9
663.577	320.21
663.989	360
664.401	367.03
664.812	259.36
665.224	306.17
665.635	308.51
666.047	282.77
666.458	313.19
666.869	287.45
667.281	367.03
667.692	383.41
668.103	355.32
668.514	320.21
668.925	301.49
669.336	299.15
669.747	317.87
670.158	322.56
670.569	322.56
670.979	289.79
671.39	350.64
671.801	313.19
672.211	357.66
672.622	301.49
673.032	313.19
673.443	348.3
673.853	292.13
674.263	350.64
674.674	303.83
675.084	320.21
675.494	331.92
675.904	317.87
676.314	343.62
676.724	301.49
677.134	364.68
677.544	315.53
677.953	350.64
678.363	296.81
678.773	285.11
679.182	374.05
679.592	320.21
680.001	343.62
680.411	278.08
680.82	315.53
681.23	341.28
681.639	345.96
682.048	343.62
682.457	287.45
682.866	390.43
683.275	334.26
683.684	271.06
684.093	259.36
684.502	334.26
684.911	301.49
685.32	310.85
685.728	336.6
686.137	315.53
686.546	352.98
686.954	308.51
687.363	271.06
687.771	303.83
688.179	338.94
688.588	329.58
688.996	303.83
689.404	383.41
689.812	329.58
690.22	313.19
690.628	280.43
691.036	334.26
691.444	341.28
691.852	327.24
692.26	306.17
692.667	336.6
693.075	362.34
693.483	399.79
693.89	322.56
694.298	301.49
694.705	308.51
695.112	301.49
695.52	282.77
695.927	324.9
696.334	299.15
696.741	331.92
697.148	285.11
697.555	210.21
697.962	287.45
698.369	331.92
698.776	278.08
699.183	296.81
699.59	352.98
699.996	329.58
700.403	324.9
700.81	315.53
701.216	362.34
701.623	329.58
702.029	355.32
702.435	315.53
702.842	395.11
703.248	301.49
703.654	299.15
704.06	374.05
704.466	362.34
704.872	242.98
705.278	210.21
705.684	299.15
706.09	397.45
706.496	292.13
706.901	360
707.307	306.17
707.712	406.81
708.118	296.81
708.523	285.11
708.929	338.94
709.334	315.53
709.74	343.62
710.145	301.49
710.55	320.21
710.955	261.7
711.36	268.72
711.765	306.17
712.17	313.19
712.575	308.51
712.98	874.92
713.385	357.66
713.789	315.53
714.194	292.13
714.599	261.7
715.003	385.75
715.408	402.13
715.812	310.85
716.217	360
716.621	392.77
717.025	397.45
717.429	313.19
717.833	327.24
718.238	315.53
718.642	322.56
719.046	362.34
719.449	338.94
719.853	345.96
720.257	282.77
720.661	292.13
721.065	338.94
721.468	317.87
721.872	350.64
722.275	327.24
722.679	364.68
723.082	317.87
723.485	360
723.889	292.13
724.292	285.11
724.695	266.38
725.098	336.6
725.501	324.9
725.904	317.87
726.307	306.17
726.71	287.45
727.113	331.92
727.516	371.71
727.918	308.51
728.321	292.13
728.724	301.49
729.126	338.94
729.529	306.17
729.931	369.37
730.333	266.38
730.736	317.87
731.138	313.19
731.54	287.45
731.942	329.58
732.344	301.49
732.746	350.64
733.148	348.3
733.55	362.34
733.952	360
734.354	285.11
734.756	385.75
735.157	308.51
735.559	334.26
735.96	357.66
736.362	287.45
736.763	289.79
737.165	336.6
737.566	357.66
737.967	322.56
738.368	348.3
738.77	355.32
739.171	336.6
739.572	261.7
739.973	371.71
740.374	388.09
740.774	331.92
741.175	355.32
741.576	331.92
741.977	324.9
742.377	301.49
742.778	343.62
743.178	374.05
743.579	301.49
743.979	338.94
744.379	303.83
744.78	324.9
745.18	261.7
745.58	327.24
745.98	331.92
746.38	282.77
746.78	245.32
747.18	369.37
747.58	294.47
747.98	338.94
748.38	331.92
748.779	308.51
749.179	329.58
749.578	329.58
749.978	280.43
750.377	362.34
750.777	294.47
751.176	285.11
751.575	322.56
751.975	289.79
752.374	324.9
752.773	273.4
753.172	320.21
753.571	310.85
753.97	247.66
754.369	273.4
754.768	294.47
755.166	322.56
755.565	378.73
755.964	324.9
756.362	355.32
756.761	315.53
757.159	343.62
757.558	292.13
757.956	352.98
758.354	383.41
758.753	287.45
759.151	348.3
759.549	345.96
759.947	310.85
760.345	388.09
760.743	329.58
761.141	303.83
761.539	317.87
761.936	313.19
762.334	245.32
762.732	317.87
763.129	343.62
763.527	289.79
763.924	315.53
764.322	327.24
764.719	313.19
765.117	273.4
765.514	285.11
765.911	324.9
766.308	294.47
766.705	343.62
767.102	355.32
767.499	235.96
767.896	292.13
768.293	324.9
768.69	292.13
769.086	327.24
769.483	285.11
769.88	289.79
770.276	376.39
770.673	308.51
771.069	261.7
771.466	371.71
771.862	303.83
772.258	341.28
772.654	299.15
773.05	336.6
773.447	348.3
773.843	348.3
774.239	320.21
774.634	350.64
775.03	364.68
775.426	322.56
775.822	317.87
776.218	327.24
776.613	292.13
777.009	289.79
777.404	362.34
777.8	313.19
778.195	341.28
778.59	360
778.986	341.28
779.381	329.58
779.776	306.17
780.171	348.3
780.566	310.85
780.961	357.66
781.356	336.6
781.751	310.85
782.146	345.96
782.54	350.64
782.935	331.92
783.33	317.87
783.724	294.47
784.119	355.32
784.513	310.85
784.908	287.45
785.302	364.68
785.696	324.9
786.09	289.79
786.485	289.79
786.879	320.21
787.273	257.02
787.667	287.45
788.061	327.24
788.454	322.56
788.848	280.43
789.242	315.53
789.636	348.3
790.029	322.56
790.423	315.53
790.816	341.28
791.21	329.58
791.603	345.96
791.997	306.17
792.39	362.34
792.783	310.85
793.176	350.64
793.569	238.3
793.962	352.98
794.355	338.94
794.748	327.24
795.141	278.08
795.534	338.94
795.927	338.94
796.319	317.87
796.712	322.56
797.105	306.17
797.497	261.7
797.89	327.24
798.282	299.15
798.674	348.3
799.067	306.17
799.459	364.68
799.851	336.6
800.243	374.05
800.635	285.11
801.027	301.49
801.419	388.09
801.811	294.47
802.203	238.3
802.594	329.58
802.986	345.96
803.378	338.94
803.769	324.9
804.161	343.62
804.552	285.11
804.944	317.87
805.335	345.96
805.726	329.58
806.118	334.26
806.509	320.21
806.9	364.68
807.291	285.11
807.682	336.6
808.073	296.81
808.464	313.19
808.855	317.87
809.245	338.94
809.636	331.92
810.027	329.58
810.417	362.34
810.808	299.15
811.198	299.15
811.589	357.66
811.979	345.96
812.369	357.66
812.759	336.6
813.15	317.87
813.54	392.77
813.93	289.79
814.32	280.43
814.71	336.6
815.1	341.28
815.489	294.47
815.879	350.64
816.269	369.37
816.658	336.6
817.048	315.53
817.438	287.45
817.827	301.49
818.216	306.17
818.606	303.83
818.995	338.94
819.384	282.77
819.773	285.11
820.163	273.4
820.552	371.71
820.941	378.73
821.33	303.83
821.718	287.45
822.107	322.56
822.496	287.45
822.885	324.9
823.273	259.36
823.662	357.66
824.05	338.94
824.439	348.3
824.827	334.26
825.216	301.49
825.604	313.19
825.992	313.19
826.38	331.92
826.768	278.08
827.156	266.38
827.544	315.53
827.932	264.04
828.32	306.17
828.708	381.07
829.096	320.21
829.483	324.9
829.871	355.32
830.259	278.08
830.646	278.08
831.034	341.28
831.421	334.26
831.808	331.92
832.196	329.58
832.583	367.03
832.97	367.03
833.357	367.03
833.744	268.72
834.131	355.32
834.518	331.92
834.905	327.24
835.292	360
835.678	296.81
836.065	275.74
836.452	273.4
836.838	360
837.225	324.9
837.611	315.53
837.998	278.08
838.384	327.24
838.77	329.58
839.157	399.79
839.543	310.85
839.929	371.71
840.315	294.47
840.701	411.5
841.087	329.58
841.473	308.51
841.858	362.34
842.244	348.3
842.63	303.83
843.015	308.51
843.401	345.96
843.787	301.49
844.172	313.19
844.557	376.39
844.943	327.24
845.328	313.19
845.713	303.83
846.098	329.58
846.483	322.56
846.868	327.24
847.253	310.85
847.638	343.62
848.023	285.11
848.408	367.03
848.793	322.56
849.177	369.37
849.562	320.21
849.947	310.85
850.331	364.68
850.715	362.34
851.1	301.49
851.484	336.6
851.868	322.56
852.253	317.87
852.637	310.85
853.021	313.19
853.405	247.66
853.789	352.98
854.173	289.79
854.557	322.56
854.94	278.08
855.324	329.58
855.708	352.98
856.091	266.38
856.475	320.21
856.858	306.17
857.242	378.73
857.625	324.9
858.009	315.53
858.392	336.6
858.775	301.49
859.158	264.04
859.541	343.62
859.924	334.26
860.307	313.19
860.69	341.28
861.073	294.47
861.456	362.34
861.838	338.94
862.221	301.49
862.604	357.66
862.986	334.26
863.369	250
863.751	388.09
864.133	322.56
864.516	294.47
864.898	352.98
865.28	371.71
865.662	231.27
866.044	254.68
866.426	315.53
866.808	301.49
867.19	245.32
867.572	254.68
867.954	327.24
868.336	301.49
868.717	327.24
869.099	369.37
869.48	294.47
869.862	378.73
870.243	402.13
870.625	317.87
871.006	320.21
871.387	264.04
871.768	329.58
872.149	299.15
872.53	294.47
872.911	313.19
873.292	331.92
873.673	322.56
874.054	341.28
874.435	329.58
874.815	287.45
875.196	329.58
875.577	287.45
875.957	376.39
876.338	360
876.718	287.45
877.098	397.45
877.479	376.39
877.859	355.32
878.239	329.58
878.619	320.21
878.999	348.3
879.379	289.79
879.759	303.83
880.139	294.47
880.519	360
880.898	374.05
881.278	336.6
881.658	329.58
882.037	231.27
882.417	296.81
882.796	308.51
883.176	331.92
883.555	336.6
883.934	338.94
884.313	320.21
884.693	355.32
885.072	296.81
885.451	392.77
885.83	308.51
886.209	317.87
886.587	327.24
886.966	390.43
887.345	303.83
887.724	313.19
888.102	289.79
888.481	374.05
888.859	376.39
889.238	301.49
889.616	320.21
889.994	364.68
890.373	261.7
890.751	364.68
891.129	341.28
891.507	369.37
891.885	336.6
892.263	294.47
892.641	299.15
893.019	296.81
893.396	348.3
893.774	285.11
894.152	343.62
894.529	327.24
894.907	324.9
895.284	336.6
895.662	385.75
896.039	338.94
896.416	355.32
896.794	320.21
897.171	280.43
897.548	322.56
897.925	313.19
898.302	266.38
898.679	388.09
899.056	303.83
899.433	357.66
899.809	348.3
900.186	296.81
900.563	352.98
900.939	367.03
901.316	336.6
901.692	289.79
902.069	357.66
902.445	287.45
902.821	285.11
903.197	285.11
903.574	327.24
903.95	369.37
904.326	292.13
904.702	231.27
905.078	362.34
905.454	360
905.829	357.66
906.205	317.87
906.581	348.3
906.956	306.17
907.332	315.53
907.707	336.6
908.083	345.96
908.458	322.56
908.833	273.4
909.209	362.34
909.584	364.68
909.959	280.43
910.334	315.53
910.709	308.51
911.084	320.21
911.459	308.51
911.834	317.87
912.209	334.26
912.583	308.51
912.958	317.87
913.333	275.74
913.707	327.24
914.082	338.94
914.456	280.43
914.83	308.51
915.205	264.04
915.579	327.24
915.953	322.56
916.327	336.6
916.701	313.19
917.075	266.38
917.449	317.87
917.823	338.94
918.197	341.28
918.571	287.45
918.944	268.72
919.318	331.92
919.692	299.15
920.065	296.81
920.438	273.4
920.812	278.08
921.185	324.9
921.558	322.56
921.932	381.07
922.305	360
922.678	310.85
923.051	296.81
923.424	371.71
923.797	352.98
924.17	329.58
924.542	341.28
924.915	282.77
925.288	352.98
925.661	371.71
926.033	252.34
926.406	259.36
926.778	308.51
927.15	376.39
927.523	296.81
927.895	317.87
928.267	334.26
928.639	252.34
929.011	261.7
929.383	296.81
929.755	317.87
930.127	315.53
930.499	322.56
930.871	299.15
931.242	371.71
931.614	257.02
931.986	348.3
932.357	348.3
932.729	378.73
933.1	301.49
933.471	235.96
933.843	257.02
934.214	285.11
934.585	334.26
934.956	355.32
935.327	369.37
935.698	343.62
936.069	278.08
936.44	348.3
936.811	224.25
937.182	268.72
937.552	324.9
937.923	371.71
938.293	383.41
938.664	341.28
939.034	343.62
939.405	352.98
939.775	352.98
940.145	341.28
940.516	273.4
940.886	352.98
941.256	296.81
941.626	390.43
941.996	362.34
942.366	280.43
942.735	292.13
943.105	357.66
943.475	324.9
943.845	296.81
944.214	327.24
944.584	280.43
944.953	336.6
945.323	306.17
945.692	301.49
946.061	289.79
946.43	308.51
946.8	266.38
947.169	334.26
947.538	345.96
947.907	257.02
948.276	322.56
948.645	282.77
949.013	334.26
949.382	360
949.751	301.49
950.119	343.62
950.488	392.77
950.857	226.59
951.225	235.96
951.593	355.32
951.962	301.49
952.33	247.66
952.698	280.43
953.066	364.68
953.434	308.51
953.802	275.74
954.17	315.53
954.538	317.87
954.906	280.43
955.274	271.06
955.642	296.81
956.009	240.64
956.377	360
956.744	200.85
957.112	322.56
957.479	324.9
957.847	306.17
958.214	324.9
958.581	395.11
958.948	362.34
959.315	320.21
959.683	334.26
960.05	362.34
960.416	308.51
960.783	381.07
961.15	350.64
961.517	310.85
961.884	292.13
962.25	289.79
962.617	306.17
962.983	329.58
963.35	242.98
963.716	364.68
964.082	271.06
964.449	338.94
964.815	350.64
965.181	303.83
965.547	322.56
965.913	257.02
966.279	275.74
966.645	357.66
967.011	324.9
967.377	329.58
967.742	338.94
968.108	315.53
968.474	388.09
968.839	287.45
969.205	275.74
969.57	397.45
969.935	310.85
970.301	301.49
970.666	320.21
971.031	334.26
971.396	334.26
971.761	308.51
972.126	322.56
972.491	275.74
972.856	282.77
973.221	329.58
973.586	289.79
973.95	315.53
974.315	352.98
974.679	364.68
975.044	303.83
975.408	280.43
975.773	268.72
976.137	287.45
976.501	280.43
976.866	338.94
977.23	266.38
977.594	343.62
977.958	338.94
978.322	252.34
978.686	308.51
979.049	301.49
979.413	329.58
979.777	360
980.141	322.56
980.504	303.83
980.868	285.11
981.231	383.41
981.595	310.85
981.958	282.77
982.321	282.77
982.684	306.17
983.048	350.64
983.411	308.51
983.774	345.96
984.137	322.56
984.5	268.72
984.862	264.04
985.225	322.56
985.588	317.87
985.951	268.72
986.313	320.21
986.676	308.51
987.038	278.08
987.401	360
987.763	367.03
988.125	308.51
988.488	261.7
988.85	343.62
989.212	301.49
989.574	336.6
989.936	327.24
990.298	313.19
990.66	338.94
991.022	289.79
991.383	275.74
991.745	308.51
992.107	381.07
992.468	280.43
992.83	285.11
993.191	371.71
993.553	345.96
993.914	282.77
994.275	355.32
994.637	315.53
994.998	324.9
995.359	317.87
995.72	285.11
996.081	280.43
996.442	320.21
996.803	357.66
997.163	322.56
997.524	278.08
997.885	299.15
998.245	374.05
998.606	350.64
998.966	287.45
999.327	306.17
999.687	294.47
1000.047	364.68
1000.408	348.3
1000.768	357.66
1001.128	296.81
1001.488	296.81
1001.848	345.96
1002.208	355.32
1002.568	345.96
1002.927	310.85
1003.287	259.36
1003.647	266.38
1004.007	327.24
1004.366	350.64
1004.726	299.15
1005.085	292.13
1005.444	310.85
1005.804	303.83
1006.163	282.77
1006.522	266.38
1006.881	271.06
1007.24	327.24
1007.599	231.27
1007.958	308.51
1008.317	310.85
1008.676	308.51
1009.035	327.24
1009.393	338.94
1009.752	266.38
1010.111	261.7
1010.469	327.24
1010.828	266.38
1011.186	336.6
1011.544	273.4
1011.903	360
1012.261	331.92
1012.619	320.21
1012.977	313.19
1013.335	327.24
1013.693	357.66
1014.051	268.72
1014.409	355.32
1014.767	226.59
1015.124	388.09
1015.482	360
1015.84	352.98
1016.197	313.19
1016.555	299.15
1016.912	315.53
1017.269	268.72
1017.627	310.85
1017.984	324.9
1018.341	313.19
1018.698	296.81
1019.055	296.81
1019.412	303.83
1019.769	296.81
1020.126	329.58
1020.483	296.81
1020.84	306.17
1021.196	395.11
1021.553	343.62
1021.909	388.09
1022.266	212.55
1022.622	315.53
1022.979	350.64
1023.335	292.13
1023.691	376.39
1024.047	306.17
1024.404	245.32
1024.76	390.43
1025.116	294.47
1025.472	322.56
1025.827	315.53
1026.183	285.11
1026.539	254.68
1026.895	324.9
1027.25	287.45
1027.606	343.62
1027.961	282.77
1028.317	303.83
1028.672	334.26
1029.028	352.98
1029.383	306.17
1029.738	313.19
1030.093	292.13
1030.448	343.62
1030.803	352.98
1031.158	292.13
1031.513	329.58
1031.868	266.38
1032.223	315.53
1032.577	273.4
1032.932	331.92
1033.287	242.98
1033.641	268.72
1033.996	334.26
1034.35	289.79
1034.704	315.53
1035.059	294.47
1035.413	357.66
1035.767	357.66
1036.121	357.66
