Data from Al_FLMS009871__1222__16-44-32-075.txt Node

Date: Fri Mar 08 16:44:32 CST 2024
User: pe5414po
Spectrometer: FLMS00987
Trigger mode: 0
Integration Time (sec): 1.000000E-1
Scans to average: 1
Electric dark correction enabled: true
Nonlinearity correction enabled: false
Boxcar width: 0
XAxis mode: Wavelengths
Number of Pixels in Spectrum: 2048
>>>>>Begin Spectral Data<<<<<
188.938	-110.88
189.409	-110.88
189.879	-110.88
190.349	-127.27
190.819	-148.33
191.29	-73.43
191.76	-106.2
192.23	-101.52
192.7	-66.41
193.17	-31.3
193.64	-7.9
194.109	-85.14
194.579	-12.58
195.049	-26.62
195.519	36.57
195.988	10.82
196.458	43.59
196.927	55.3
197.397	43.59
197.866	137.21
198.336	184.02
198.805	139.55
199.274	202.75
199.744	191.05
200.213	205.09
200.682	219.13
201.151	188.71
201.62	261.26
202.089	205.09
202.558	235.52
203.027	158.28
203.495	216.79
203.964	282.33
204.433	169.98
204.902	263.6
205.37	235.52
205.839	254.24
206.307	258.92
206.776	305.73
207.244	291.69
207.712	361.91
208.181	310.41
208.649	322.12
209.117	191.05
209.585	226.15
210.053	289.35
210.521	235.52
210.989	223.81
211.457	265.94
211.925	338.5
212.393	277.65
212.861	263.6
213.328	254.24
213.796	289.35
214.264	272.96
214.731	186.37
215.199	254.24
215.666	254.24
216.133	254.24
216.601	296.37
217.068	296.37
217.535	207.43
218.003	301.05
218.47	202.75
218.937	284.67
219.404	205.09
219.871	235.52
220.338	174.66
220.805	200.41
221.271	279.99
221.738	296.37
222.205	263.6
222.671	219.13
223.138	209.77
223.605	254.24
224.071	284.67
224.538	263.6
225.004	261.26
225.47	233.18
225.937	272.96
226.403	336.16
226.869	296.37
227.335	277.65
227.801	301.05
228.267	202.75
228.733	254.24
229.199	228.49
229.665	270.62
230.131	287.01
230.597	279.99
231.062	305.73
231.528	214.45
231.994	254.24
232.459	200.41
232.925	268.28
233.39	242.54
233.856	216.79
234.321	226.15
234.786	237.86
235.252	289.35
235.717	268.28
236.182	216.79
236.647	272.96
237.112	275.31
237.577	249.56
238.042	289.35
238.507	198.07
238.972	212.11
239.436	275.31
239.901	275.31
240.366	268.28
240.83	296.37
241.295	294.03
241.76	312.75
242.224	317.44
242.688	298.71
243.153	275.31
243.617	251.9
244.081	228.49
244.545	230.84
245.01	230.84
245.474	251.9
245.938	333.82
246.402	294.03
246.866	242.54
247.33	289.35
247.793	296.37
248.257	289.35
248.721	219.13
249.185	254.24
249.648	287.01
250.112	256.58
250.575	282.33
251.039	251.9
251.502	263.6
251.965	233.18
252.429	237.86
252.892	343.18
253.355	244.88
253.818	301.05
254.281	287.01
254.744	242.54
255.207	275.31
255.67	249.56
256.133	254.24
256.596	308.07
257.059	310.41
257.522	256.58
257.984	261.26
258.447	301.05
258.909	287.01
259.372	305.73
259.834	265.94
260.297	310.41
260.759	301.05
261.221	228.49
261.684	284.67
262.146	345.52
262.608	221.47
263.07	305.73
263.532	261.26
263.994	275.31
264.456	291.69
264.918	214.45
265.38	303.39
265.842	207.43
266.303	279.99
266.765	249.56
267.227	249.56
267.688	275.31
268.15	291.69
268.611	254.24
269.072	261.26
269.534	275.31
269.995	303.39
270.456	296.37
270.918	315.09
271.379	254.24
271.84	284.67
272.301	233.18
272.762	279.99
273.223	251.9
273.684	310.41
274.144	261.26
274.605	249.56
275.066	282.33
275.527	338.5
275.987	329.14
276.448	244.88
276.908	242.54
277.369	268.28
277.829	296.37
278.289	277.65
278.75	277.65
279.21	249.56
279.67	303.39
280.13	228.49
280.59	265.94
281.05	289.35
281.51	303.39
281.97	308.07
282.43	219.13
282.89	308.07
283.35	296.37
283.809	270.62
284.269	282.33
284.729	256.58
285.188	329.14
285.648	308.07
286.107	324.46
286.567	347.86
287.026	336.16
287.485	258.92
287.944	230.84
288.404	284.67
288.863	291.69
289.322	282.33
289.781	289.35
290.24	242.54
290.699	261.26
291.158	268.28
291.616	291.69
292.075	333.82
292.534	324.46
292.992	240.2
293.451	228.49
293.91	343.18
294.368	242.54
294.827	289.35
295.285	317.44
295.743	261.26
296.202	261.26
296.66	272.96
297.118	235.52
297.576	291.69
298.034	324.46
298.492	221.47
298.95	333.82
299.408	268.28
299.866	296.37
300.324	223.81
300.781	214.45
301.239	312.75
301.697	233.18
302.154	303.39
302.612	282.33
303.069	240.2
303.527	326.8
303.984	263.6
304.441	331.48
304.899	277.65
305.356	331.48
305.813	347.86
306.27	263.6
306.727	336.16
307.184	345.52
307.641	279.99
308.098	287.01
308.555	287.01
309.012	287.01
309.468	263.6
309.925	291.69
310.382	256.58
310.838	294.03
311.295	298.71
311.751	282.33
312.208	287.01
312.664	331.48
313.12	322.12
313.577	324.46
314.033	347.86
314.489	279.99
314.945	256.58
315.401	256.58
315.857	303.39
316.313	258.92
316.769	296.37
317.225	345.52
317.681	336.16
318.136	256.58
318.592	340.84
319.048	228.49
319.503	324.46
319.959	315.09
320.414	270.62
320.869	265.94
321.325	317.44
321.78	331.48
322.235	279.99
322.691	268.28
323.146	322.12
323.601	319.78
324.056	303.39
324.511	315.09
324.966	308.07
325.421	275.31
325.875	305.73
326.33	326.8
326.785	261.26
327.24	296.37
327.694	303.39
328.149	308.07
328.603	315.09
329.058	249.56
329.512	289.35
329.966	270.62
330.421	268.28
330.875	223.81
331.329	275.31
331.783	277.65
332.237	258.92
332.691	322.12
333.145	301.05
333.599	279.99
334.053	279.99
334.507	270.62
334.96	317.44
335.414	310.41
335.868	282.33
336.321	263.6
336.775	240.2
337.228	272.96
337.682	258.92
338.135	272.96
338.588	272.96
339.042	326.8
339.495	329.14
339.948	340.84
340.401	291.69
340.854	329.14
341.307	324.46
341.76	235.52
342.213	368.93
342.666	357.22
343.119	268.28
343.571	387.65
344.024	287.01
344.477	289.35
344.929	310.41
345.382	326.8
345.834	326.8
346.287	279.99
346.739	258.92
347.191	319.78
347.644	240.2
348.096	268.28
348.548	310.41
349	303.39
349.452	301.05
349.904	265.94
350.356	336.16
350.808	347.86
351.26	289.35
351.711	347.86
352.163	294.03
352.615	371.27
353.066	371.27
353.518	235.52
353.969	371.27
354.421	322.12
354.872	350.2
355.324	322.12
355.775	338.5
356.226	298.71
356.677	331.48
357.128	308.07
357.579	359.56
358.03	263.6
358.481	338.5
358.932	345.52
359.383	287.01
359.834	303.39
360.285	258.92
360.735	291.69
361.186	343.18
361.637	289.35
362.087	284.67
362.538	275.31
362.988	277.65
363.438	331.48
363.889	310.41
364.339	317.44
364.789	322.12
365.239	317.44
365.689	303.39
366.139	277.65
366.589	272.96
367.039	289.35
367.489	249.56
367.939	303.39
368.389	317.44
368.839	315.09
369.288	333.82
369.738	368.93
370.187	331.48
370.637	343.18
371.086	308.07
371.536	303.39
371.985	284.67
372.434	308.07
372.884	275.31
373.333	310.41
373.782	350.2
374.231	284.67
374.68	301.05
375.129	289.35
375.578	333.82
376.027	308.07
376.475	298.71
376.924	277.65
377.373	254.24
377.822	275.31
378.27	310.41
378.719	282.33
379.167	317.44
379.616	296.37
380.064	289.35
380.512	329.14
380.961	287.01
381.409	347.86
381.857	261.26
382.305	310.41
382.753	319.78
383.201	275.31
383.649	324.46
384.097	329.14
384.545	272.96
384.992	249.56
385.44	289.35
385.888	214.45
386.335	291.69
386.783	291.69
387.231	345.52
387.678	305.73
388.125	268.28
388.573	310.41
389.02	305.73
389.467	305.73
389.914	354.88
390.362	354.88
390.809	254.24
391.256	242.54
391.703	326.8
392.15	305.73
392.596	282.33
393.043	287.01
393.49	268.28
393.937	310.41
394.383	303.39
394.83	282.33
395.276	289.35
395.723	308.07
396.169	305.73
396.616	336.16
397.062	301.05
397.508	268.28
397.954	305.73
398.401	251.9
398.847	310.41
399.293	272.96
399.739	336.16
400.185	284.67
400.631	258.92
401.076	263.6
401.522	347.86
401.968	315.09
402.414	373.61
402.859	275.31
403.305	319.78
403.75	301.05
404.196	289.35
404.641	389.99
405.086	261.26
405.532	361.91
405.977	296.37
406.422	357.22
406.867	317.44
407.312	272.96
407.757	378.29
408.202	289.35
408.647	315.09
409.092	305.73
409.537	338.5
409.982	359.56
410.426	333.82
410.871	279.99
411.316	275.31
411.76	272.96
412.205	298.71
412.649	284.67
413.093	296.37
413.538	261.26
413.982	221.47
414.426	296.37
414.87	279.99
415.314	294.03
415.758	329.14
416.202	336.16
416.646	294.03
417.09	352.54
417.534	397.01
417.978	338.5
418.421	333.82
418.865	270.62
419.309	308.07
419.752	289.35
420.196	235.52
420.639	289.35
421.083	310.41
421.526	287.01
421.969	282.33
422.412	329.14
422.856	296.37
423.299	282.33
423.742	298.71
424.185	319.78
424.628	301.05
425.071	289.35
425.513	324.46
425.956	357.22
426.399	310.41
426.842	268.28
427.284	305.73
427.727	331.48
428.169	301.05
428.612	305.73
429.054	336.16
429.497	294.03
429.939	326.8
430.381	291.69
430.823	336.16
431.265	258.92
431.707	289.35
432.149	282.33
432.591	263.6
433.033	291.69
433.475	289.35
433.917	249.56
434.359	301.05
434.8	272.96
435.242	277.65
435.684	347.86
436.125	279.99
436.567	263.6
437.008	324.46
437.449	331.48
437.891	277.65
438.332	329.14
438.773	268.28
439.214	322.12
439.656	275.31
440.097	261.26
440.538	343.18
440.978	265.94
441.419	298.71
441.86	205.09
442.301	315.09
442.742	317.44
443.182	251.9
443.623	305.73
444.063	347.86
444.504	336.16
444.944	385.31
445.385	272.96
445.825	270.62
446.265	296.37
446.706	296.37
447.146	287.01
447.586	315.09
448.026	333.82
448.466	373.61
448.906	336.16
449.346	275.31
449.786	322.12
450.225	242.54
450.665	291.69
451.105	310.41
451.544	247.22
451.984	317.44
452.424	338.5
452.863	347.86
453.302	329.14
453.742	279.99
454.181	319.78
454.62	324.46
455.059	385.31
455.499	329.14
455.938	324.46
456.377	305.73
456.816	350.2
457.254	375.95
457.693	235.52
458.132	312.75
458.571	331.48
459.01	233.18
459.448	305.73
459.887	301.05
460.325	284.67
460.764	303.39
461.202	287.01
461.641	261.26
462.079	357.22
462.517	294.03
462.955	289.35
463.393	261.26
463.832	301.05
464.27	305.73
464.708	261.26
465.145	357.22
465.583	338.5
466.021	315.09
466.459	322.12
466.897	305.73
467.334	305.73
467.772	310.41
468.209	247.22
468.647	298.71
469.084	326.8
469.522	294.03
469.959	277.65
470.396	289.35
470.833	315.09
471.271	333.82
471.708	312.75
472.145	345.52
472.582	375.95
473.019	289.35
473.456	275.31
473.892	294.03
474.329	338.5
474.766	338.5
475.202	389.99
475.639	294.03
476.076	303.39
476.512	268.28
476.949	235.52
477.385	331.48
477.821	270.62
478.258	322.12
478.694	354.88
479.13	282.33
479.566	284.67
480.002	254.24
480.438	223.81
480.874	338.5
481.31	268.28
481.746	294.03
482.181	352.54
482.617	277.65
483.053	333.82
483.488	322.12
483.924	308.07
484.36	322.12
484.795	373.61
485.23	265.94
485.666	294.03
486.101	301.05
486.536	284.67
486.971	282.33
487.407	312.75
487.842	294.03
488.277	352.54
488.712	270.62
489.146	282.33
489.581	308.07
490.016	298.71
490.451	294.03
490.885	333.82
491.32	315.09
491.755	361.91
492.189	357.22
492.624	308.07
493.058	289.35
493.492	284.67
493.927	401.69
494.361	352.54
494.795	277.65
495.229	301.05
495.663	308.07
496.097	319.78
496.531	303.39
496.965	294.03
497.399	263.6
497.833	305.73
498.266	296.37
498.7	303.39
499.134	303.39
499.567	291.69
500.001	340.84
500.434	275.31
500.868	265.94
501.301	354.88
501.734	315.09
502.168	275.31
502.601	303.39
503.034	275.31
503.467	244.88
503.9	247.22
504.333	298.71
504.766	308.07
505.199	312.75
505.632	277.65
506.064	284.67
506.497	380.63
506.93	329.14
507.362	317.44
507.795	317.44
508.227	265.94
508.66	289.35
509.092	315.09
509.524	385.31
509.956	319.78
510.389	265.94
510.821	258.92
511.253	261.26
511.685	310.41
512.117	324.46
512.549	354.88
512.981	322.12
513.412	301.05
513.844	296.37
514.276	233.18
514.707	291.69
515.139	265.94
515.571	287.01
516.002	242.54
516.433	343.18
516.865	277.65
517.296	284.67
517.727	256.58
518.159	319.78
518.59	331.48
519.021	350.2
519.452	317.44
519.883	420.42
520.314	352.54
520.744	289.35
521.175	284.67
521.606	310.41
522.037	263.6
522.467	312.75
522.898	305.73
523.328	322.12
523.759	315.09
524.189	291.69
524.62	298.71
525.05	331.48
525.48	308.07
525.91	326.8
526.341	329.14
526.771	352.54
527.201	279.99
527.631	296.37
528.061	254.24
528.49	216.79
528.92	298.71
529.35	333.82
529.78	354.88
530.209	310.41
530.639	296.37
531.068	324.46
531.498	308.07
531.927	338.5
532.357	258.92
532.786	284.67
533.215	336.16
533.644	333.82
534.074	352.54
534.503	326.8
534.932	289.35
535.361	291.69
535.79	359.56
536.218	275.31
536.647	272.96
537.076	249.56
537.505	296.37
537.933	382.97
538.362	303.39
538.79	230.84
539.219	326.8
539.647	326.8
540.076	272.96
540.504	322.12
540.932	308.07
541.36	268.28
541.788	235.52
542.217	315.09
542.645	420.42
543.073	272.96
543.5	251.9
543.928	347.86
544.356	284.67
544.784	352.54
545.211	240.2
545.639	324.46
546.067	291.69
546.494	289.35
546.922	279.99
547.349	373.61
547.776	317.44
548.204	254.24
548.631	338.5
549.058	296.37
549.485	268.28
549.912	258.92
550.339	347.86
550.766	296.37
551.193	284.67
551.62	275.31
552.047	378.29
552.474	310.41
552.9	303.39
553.327	242.54
553.754	247.22
554.18	312.75
554.607	305.73
555.033	308.07
555.459	324.46
555.886	228.49
556.312	322.12
556.738	336.16
557.164	272.96
557.59	382.97
558.016	298.71
558.442	294.03
558.868	296.37
559.294	352.54
559.72	361.91
560.145	301.05
560.571	364.25
560.997	350.2
561.422	364.25
561.848	284.67
562.273	301.05
562.699	221.47
563.124	275.31
563.549	338.5
563.974	294.03
564.4	277.65
564.825	354.88
565.25	326.8
565.675	324.46
566.1	303.39
566.525	312.75
566.95	305.73
567.374	310.41
567.799	331.48
568.224	303.39
568.648	284.67
569.073	345.52
569.497	277.65
569.922	256.58
570.346	261.26
570.771	261.26
571.195	343.18
571.619	294.03
572.043	322.12
572.467	291.69
572.891	272.96
573.315	336.16
573.739	270.62
574.163	261.26
574.587	333.82
575.011	263.6
575.435	324.46
575.858	305.73
576.282	301.05
576.705	331.48
577.129	244.88
577.552	270.62
577.976	359.56
578.399	333.82
578.822	298.71
579.245	310.41
579.669	254.24
580.092	237.86
580.515	261.26
580.938	315.09
581.361	277.65
581.784	305.73
582.206	265.94
582.629	287.01
583.052	270.62
583.474	354.88
583.897	340.84
584.32	345.52
584.742	331.48
585.165	254.24
585.587	301.05
586.009	298.71
586.431	371.27
586.854	270.62
587.276	310.41
587.698	324.46
588.12	338.5
588.542	275.31
588.964	287.01
589.386	287.01
589.807	317.44
590.229	380.63
590.651	261.26
591.073	265.94
591.494	308.07
591.916	329.14
592.337	340.84
592.759	268.28
593.18	289.35
593.601	338.5
594.022	287.01
594.444	284.67
594.865	317.44
595.286	277.65
595.707	277.65
596.128	298.71
596.549	289.35
596.97	301.05
597.39	270.62
597.811	275.31
598.232	301.05
598.652	371.27
599.073	240.2
599.494	282.33
599.914	265.94
600.334	268.28
600.755	303.39
601.175	261.26
601.595	263.6
602.015	265.94
602.436	279.99
602.856	443.82
603.276	272.96
603.696	287.01
604.115	270.62
604.535	263.6
604.955	298.71
605.375	319.78
605.794	331.48
606.214	361.91
606.634	282.33
607.053	305.73
607.473	263.6
607.892	275.31
608.311	289.35
608.731	310.41
609.15	326.8
609.569	272.96
609.988	312.75
610.407	277.65
610.826	315.09
611.245	272.96
611.664	338.5
612.083	247.22
612.501	303.39
612.92	340.84
613.339	315.09
613.757	310.41
614.176	350.2
614.594	308.07
615.013	275.31
615.431	303.39
615.85	338.5
616.268	298.71
616.686	287.01
617.104	294.03
617.522	303.39
617.94	310.41
618.358	277.65
618.776	270.62
619.194	312.75
619.612	284.67
620.03	333.82
620.447	312.75
620.865	287.01
621.282	364.25
621.7	284.67
622.117	312.75
622.535	289.35
622.952	303.39
623.369	338.5
623.787	265.94
624.204	322.12
624.621	310.41
625.038	279.99
625.455	268.28
625.872	261.26
626.289	322.12
626.706	315.09
627.123	324.46
627.539	289.35
627.956	305.73
628.373	340.84
628.789	298.71
629.206	322.12
629.622	291.69
630.038	345.52
630.455	247.22
630.871	301.05
631.287	345.52
631.703	329.14
632.12	282.33
632.536	284.67
632.952	352.54
633.368	254.24
633.783	282.33
634.199	315.09
634.615	326.8
635.031	336.16
635.446	305.73
635.862	329.14
636.277	322.12
636.693	315.09
637.108	338.5
637.524	317.44
637.939	357.22
638.354	298.71
638.77	294.03
639.185	301.05
639.6	357.22
640.015	263.6
640.43	319.78
640.845	331.48
641.259	357.22
641.674	315.09
642.089	315.09
642.504	310.41
642.918	303.39
643.333	263.6
643.747	364.25
644.162	326.8
644.576	319.78
644.991	336.16
645.405	305.73
645.819	244.88
646.233	329.14
646.647	296.37
647.061	315.09
647.475	308.07
647.889	305.73
648.303	347.86
648.717	289.35
649.131	284.67
649.545	254.24
649.958	359.56
650.372	272.96
650.785	258.92
651.199	261.26
651.612	329.14
652.026	326.8
652.439	324.46
652.852	308.07
653.266	315.09
653.679	272.96
654.092	310.41
654.505	265.94
654.918	329.14
655.331	308.07
655.744	301.05
656.156	305.73
656.569	317.44
656.982	272.96
657.394	296.37
657.807	291.69
658.22	308.07
658.632	319.78
659.044	296.37
659.457	265.94
659.869	380.63
660.281	343.18
660.693	235.52
661.106	387.65
661.518	312.75
661.93	251.9
662.342	312.75
662.754	287.01
663.165	289.35
663.577	233.18
663.989	310.41
664.401	364.25
664.812	256.58
665.224	324.46
665.635	282.33
666.047	347.86
666.458	291.69
666.869	382.97
667.281	326.8
667.692	315.09
668.103	343.18
668.514	287.01
668.925	296.37
669.336	319.78
669.747	387.65
670.158	279.99
670.569	345.52
670.979	251.9
671.39	244.88
671.801	270.62
672.211	357.22
672.622	315.09
673.032	287.01
673.443	282.33
673.853	268.28
674.263	277.65
674.674	270.62
675.084	256.58
675.494	305.73
675.904	345.52
676.314	326.8
676.724	287.01
677.134	331.48
677.544	294.03
677.953	347.86
678.363	324.46
678.773	326.8
679.182	303.39
679.592	298.71
680.001	343.18
680.411	289.35
680.82	282.33
681.23	270.62
681.639	371.27
682.048	312.75
682.457	366.59
682.866	301.05
683.275	272.96
683.684	317.44
684.093	336.16
684.502	357.22
684.911	319.78
685.32	305.73
685.728	263.6
686.137	277.65
686.546	333.82
686.954	258.92
687.363	261.26
687.771	315.09
688.179	294.03
688.588	322.12
688.996	312.75
689.404	268.28
689.812	308.07
690.22	228.49
690.628	312.75
691.036	340.84
691.444	308.07
691.852	277.65
692.26	322.12
692.667	298.71
693.075	317.44
693.483	301.05
693.89	373.61
694.298	265.94
694.705	310.41
695.112	315.09
695.52	338.5
695.927	333.82
696.334	322.12
696.741	282.33
697.148	326.8
697.555	315.09
697.962	345.52
698.369	298.71
698.776	296.37
699.183	329.14
699.59	392.33
699.996	296.37
700.403	343.18
700.81	279.99
701.216	282.33
701.623	338.5
702.029	331.48
702.435	350.2
702.842	319.78
703.248	296.37
703.654	338.5
704.06	294.03
704.466	331.48
704.872	258.92
705.278	326.8
705.684	310.41
706.09	340.84
706.496	289.35
706.901	279.99
707.307	310.41
707.712	301.05
708.118	279.99
708.523	329.14
708.929	366.59
709.334	296.37
709.74	291.69
710.145	287.01
710.55	268.28
710.955	268.28
711.36	265.94
711.765	301.05
712.17	279.99
712.575	275.31
712.98	865.12
713.385	336.16
713.789	343.18
714.194	315.09
714.599	256.58
715.003	298.71
715.408	329.14
715.812	317.44
716.217	228.49
716.621	345.52
717.025	319.78
717.429	319.78
717.833	244.88
718.238	340.84
718.642	319.78
719.046	296.37
719.449	291.69
719.853	268.28
720.257	345.52
720.661	333.82
721.065	294.03
721.468	357.22
721.872	275.31
722.275	319.78
722.679	251.9
723.082	364.25
723.485	315.09
723.889	284.67
724.292	249.56
724.695	287.01
725.098	324.46
725.501	364.25
725.904	279.99
726.307	322.12
726.71	279.99
727.113	275.31
727.516	347.86
727.918	296.37
728.321	303.39
728.724	315.09
729.126	294.03
729.529	296.37
729.931	336.16
730.333	289.35
730.736	298.71
731.138	322.12
731.54	308.07
731.942	268.28
732.344	333.82
732.746	287.01
733.148	340.84
733.55	310.41
733.952	345.52
734.354	237.86
734.756	284.67
735.157	308.07
735.559	291.69
735.96	315.09
736.362	340.84
736.763	284.67
737.165	319.78
737.566	287.01
737.967	308.07
738.368	261.26
738.77	340.84
739.171	315.09
739.572	303.39
739.973	296.37
740.374	235.52
740.774	303.39
741.175	336.16
741.576	294.03
741.977	298.71
742.377	212.11
742.778	284.67
743.178	338.5
743.579	265.94
743.979	254.24
744.379	256.58
744.78	289.35
745.18	333.82
745.58	247.22
745.98	343.18
746.38	242.54
746.78	315.09
747.18	279.99
747.58	317.44
747.98	312.75
748.38	268.28
748.779	251.9
749.179	258.92
749.578	301.05
749.978	284.67
750.377	294.03
750.777	212.11
751.176	284.67
751.575	310.41
751.975	326.8
752.374	326.8
752.773	415.74
753.172	294.03
753.571	287.01
753.97	305.73
754.369	347.86
754.768	275.31
755.166	294.03
755.565	279.99
755.964	303.39
756.362	310.41
756.761	270.62
757.159	284.67
757.558	319.78
757.956	317.44
758.354	305.73
758.753	296.37
759.151	354.88
759.549	287.01
759.947	319.78
760.345	340.84
760.743	247.22
761.141	352.54
761.539	284.67
761.936	315.09
762.334	284.67
762.732	223.81
763.129	237.86
763.527	261.26
763.924	289.35
764.322	326.8
764.719	301.05
765.117	284.67
765.514	329.14
765.911	282.33
766.308	272.96
766.705	272.96
767.102	298.71
767.499	287.01
767.896	347.86
768.293	347.86
768.69	268.28
769.086	296.37
769.483	298.71
769.88	258.92
770.276	272.96
770.673	298.71
771.069	354.88
771.466	268.28
771.862	270.62
772.258	352.54
772.654	310.41
773.05	305.73
773.447	308.07
773.843	287.01
774.239	279.99
774.634	301.05
775.03	294.03
775.426	282.33
775.822	289.35
776.218	268.28
776.613	282.33
777.009	308.07
777.404	301.05
777.8	305.73
778.195	289.35
778.59	310.41
778.986	277.65
779.381	338.5
779.776	237.86
780.171	193.39
780.566	310.41
780.961	294.03
781.356	305.73
781.751	322.12
782.146	322.12
782.54	268.28
782.935	228.49
783.33	373.61
783.724	298.71
784.119	317.44
784.513	279.99
784.908	298.71
785.302	291.69
785.696	329.14
786.09	296.37
786.485	240.2
786.879	291.69
787.273	329.14
787.667	301.05
788.061	223.81
788.454	359.56
788.848	301.05
789.242	319.78
789.636	291.69
790.029	244.88
790.423	312.75
790.816	301.05
791.21	291.69
791.603	282.33
791.997	268.28
792.39	237.86
792.783	249.56
793.176	272.96
793.569	216.79
793.962	298.71
794.355	308.07
794.748	303.39
795.141	268.28
795.534	272.96
795.927	324.46
796.319	296.37
796.712	336.16
797.105	359.56
797.497	357.22
797.89	354.88
798.282	265.94
798.674	263.6
799.067	247.22
799.459	235.52
799.851	329.14
800.243	294.03
800.635	296.37
801.027	284.67
801.419	249.56
801.811	277.65
802.203	303.39
802.594	275.31
802.986	251.9
803.378	265.94
803.769	312.75
804.161	289.35
804.552	279.99
804.944	226.15
805.335	336.16
805.726	326.8
806.118	315.09
806.509	329.14
806.9	291.69
807.291	347.86
807.682	240.2
808.073	284.67
808.464	357.22
808.855	319.78
809.245	258.92
809.636	350.2
810.027	326.8
810.417	282.33
810.808	291.69
811.198	345.52
811.589	284.67
811.979	291.69
812.369	272.96
812.759	375.95
813.15	305.73
813.54	294.03
813.93	338.5
814.32	357.22
814.71	315.09
815.1	298.71
815.489	308.07
815.879	249.56
816.269	296.37
816.658	312.75
817.048	291.69
817.438	258.92
817.827	317.44
818.216	200.41
818.606	289.35
818.995	277.65
819.384	312.75
819.773	310.41
820.163	247.22
820.552	301.05
820.941	326.8
821.33	322.12
821.718	287.01
822.107	331.48
822.496	235.52
822.885	268.28
823.273	279.99
823.662	308.07
824.05	364.25
824.439	263.6
824.827	294.03
825.216	296.37
825.604	277.65
825.992	375.95
826.38	343.18
826.768	284.67
827.156	322.12
827.544	303.39
827.932	291.69
828.32	308.07
828.708	270.62
829.096	303.39
829.483	354.88
829.871	263.6
830.259	296.37
830.646	296.37
831.034	303.39
831.421	319.78
831.808	296.37
832.196	326.8
832.583	275.31
832.97	242.54
833.357	352.54
833.744	350.2
834.131	324.46
834.518	294.03
834.905	301.05
835.292	289.35
835.678	331.48
836.065	289.35
836.452	237.86
836.838	221.47
837.225	296.37
837.611	275.31
837.998	282.33
838.384	308.07
838.77	289.35
839.157	265.94
839.543	378.29
839.929	277.65
840.315	329.14
840.701	305.73
841.087	312.75
841.473	322.12
841.858	303.39
842.244	319.78
842.63	256.58
843.015	317.44
843.401	340.84
843.787	331.48
844.172	263.6
844.557	261.26
844.943	258.92
845.328	289.35
845.713	294.03
846.098	263.6
846.483	333.82
846.868	294.03
847.253	305.73
847.638	350.2
848.023	305.73
848.408	378.29
848.793	340.84
849.177	308.07
849.562	233.18
849.947	303.39
850.331	261.26
850.715	219.13
851.1	301.05
851.484	305.73
851.868	312.75
852.253	291.69
852.637	354.88
853.021	305.73
853.405	270.62
853.789	336.16
854.173	296.37
854.557	287.01
854.94	294.03
855.324	282.33
855.708	333.82
856.091	382.97
856.475	298.71
856.858	233.18
857.242	329.14
857.625	331.48
858.009	305.73
858.392	254.24
858.775	244.88
859.158	296.37
859.541	256.58
859.924	322.12
860.307	263.6
860.69	319.78
861.073	247.22
861.456	242.54
861.838	298.71
862.221	319.78
862.604	301.05
862.986	340.84
863.369	333.82
863.751	333.82
864.133	347.86
864.516	333.82
864.898	279.99
865.28	294.03
865.662	298.71
866.044	287.01
866.426	275.31
866.808	301.05
867.19	265.94
867.572	291.69
867.954	294.03
868.336	340.84
868.717	258.92
869.099	275.31
869.48	301.05
869.862	223.81
870.243	279.99
870.625	265.94
871.006	270.62
871.387	315.09
871.768	305.73
872.149	305.73
872.53	312.75
872.911	291.69
873.292	322.12
873.673	284.67
874.054	284.67
874.435	340.84
874.815	291.69
875.196	308.07
875.577	336.16
875.957	312.75
876.338	312.75
876.718	272.96
877.098	296.37
877.479	301.05
877.859	312.75
878.239	303.39
878.619	258.92
878.999	303.39
879.379	319.78
879.759	350.2
880.139	289.35
880.519	340.84
880.898	233.18
881.278	296.37
881.658	345.52
882.037	291.69
882.417	303.39
882.796	282.33
883.176	284.67
883.555	315.09
883.934	277.65
884.313	303.39
884.693	287.01
885.072	214.45
885.451	289.35
885.83	284.67
886.209	331.48
886.587	298.71
886.966	277.65
887.345	282.33
887.724	294.03
888.102	326.8
888.481	324.46
888.859	247.22
889.238	249.56
889.616	303.39
889.994	258.92
890.373	289.35
890.751	251.9
891.129	279.99
891.507	331.48
891.885	261.26
892.263	249.56
892.641	301.05
893.019	272.96
893.396	294.03
893.774	305.73
894.152	298.71
894.529	333.82
894.907	272.96
895.284	326.8
895.662	331.48
896.039	305.73
896.416	359.56
896.794	305.73
897.171	272.96
897.548	256.58
897.925	251.9
898.302	233.18
898.679	284.67
899.056	212.11
899.433	284.67
899.809	333.82
900.186	319.78
900.563	331.48
900.939	256.58
901.316	279.99
901.692	214.45
902.069	258.92
902.445	336.16
902.821	233.18
903.197	287.01
903.574	263.6
903.95	354.88
904.326	249.56
904.702	287.01
905.078	270.62
905.454	324.46
905.829	254.24
906.205	275.31
906.581	289.35
906.956	263.6
907.332	219.13
907.707	249.56
908.083	289.35
908.458	249.56
908.833	319.78
909.209	317.44
909.584	298.71
909.959	240.2
910.334	298.71
910.709	301.05
911.084	329.14
911.459	272.96
911.834	289.35
912.209	282.33
912.583	319.78
912.958	258.92
913.333	310.41
913.707	263.6
914.082	268.28
914.456	315.09
914.83	387.65
915.205	291.69
915.579	282.33
915.953	284.67
916.327	242.54
916.701	354.88
917.075	249.56
917.449	301.05
917.823	256.58
918.197	343.18
918.571	319.78
918.944	336.16
919.318	240.2
919.692	308.07
920.065	270.62
920.438	272.96
920.812	319.78
921.185	265.94
921.558	329.14
921.932	254.24
922.305	291.69
922.678	277.65
923.051	294.03
923.424	212.11
923.797	277.65
924.17	282.33
924.542	251.9
924.915	289.35
925.288	308.07
925.661	270.62
926.033	324.46
926.406	329.14
926.778	310.41
927.15	361.91
927.523	310.41
927.895	242.54
928.267	310.41
928.639	287.01
929.011	242.54
929.383	287.01
929.755	291.69
930.127	244.88
930.499	303.39
930.871	296.37
931.242	303.39
931.614	305.73
931.986	310.41
932.357	256.58
932.729	331.48
933.1	322.12
933.471	317.44
933.843	310.41
934.214	322.12
934.585	317.44
934.956	251.9
935.327	310.41
935.698	272.96
936.069	317.44
936.44	333.82
936.811	249.56
937.182	301.05
937.552	268.28
937.923	258.92
938.293	298.71
938.664	279.99
939.034	268.28
939.405	247.22
939.775	382.97
940.145	305.73
940.516	235.52
940.886	279.99
941.256	322.12
941.626	221.47
941.996	359.56
942.366	282.33
942.735	329.14
943.105	336.16
943.475	322.12
943.845	279.99
944.214	338.5
944.584	333.82
944.953	315.09
945.323	289.35
945.692	282.33
946.061	301.05
946.43	308.07
946.8	284.67
947.169	291.69
947.538	296.37
947.907	282.33
948.276	319.78
948.645	340.84
949.013	338.5
949.382	298.71
949.751	305.73
950.119	240.2
950.488	303.39
950.857	277.65
951.225	277.65
951.593	340.84
951.962	289.35
952.33	326.8
952.698	270.62
953.066	275.31
953.434	251.9
953.802	240.2
954.17	371.27
954.538	319.78
954.906	275.31
955.274	235.52
955.642	265.94
956.009	322.12
956.377	282.33
956.744	317.44
957.112	301.05
957.479	251.9
957.847	317.44
958.214	287.01
958.581	324.46
958.948	272.96
959.315	291.69
959.683	272.96
960.05	247.22
960.416	303.39
960.783	212.11
961.15	249.56
961.517	282.33
961.884	331.48
962.25	261.26
962.617	261.26
962.983	298.71
963.35	305.73
963.716	265.94
964.082	301.05
964.449	310.41
964.815	240.2
965.181	340.84
965.547	308.07
965.913	282.33
966.279	296.37
966.645	284.67
967.011	289.35
967.377	324.46
967.742	324.46
968.108	312.75
968.474	303.39
968.839	296.37
969.205	270.62
969.57	237.86
969.935	345.52
970.301	284.67
970.666	317.44
971.031	296.37
971.396	237.86
971.761	268.28
972.126	326.8
972.491	240.2
972.856	308.07
973.221	294.03
973.586	289.35
973.95	305.73
974.315	308.07
974.679	324.46
975.044	289.35
975.408	319.78
975.773	354.88
976.137	315.09
976.501	261.26
976.866	319.78
977.23	277.65
977.594	272.96
977.958	247.22
978.322	324.46
978.686	240.2
979.049	312.75
979.413	291.69
979.777	322.12
980.141	247.22
980.504	261.26
980.868	303.39
981.231	249.56
981.595	312.75
981.958	331.48
982.321	277.65
982.684	322.12
983.048	228.49
983.411	279.99
983.774	284.67
984.137	275.31
984.5	308.07
984.862	317.44
985.225	347.86
985.588	261.26
985.951	256.58
986.313	329.14
986.676	268.28
987.038	301.05
987.401	240.2
987.763	251.9
988.125	263.6
988.488	298.71
988.85	301.05
989.212	308.07
989.574	268.28
989.936	291.69
990.298	319.78
990.66	329.14
991.022	291.69
991.383	284.67
991.745	291.69
992.107	338.5
992.468	319.78
992.83	296.37
993.191	312.75
993.553	338.5
993.914	277.65
994.275	226.15
994.637	303.39
994.998	312.75
995.359	296.37
995.72	303.39
996.081	291.69
996.442	322.12
996.803	317.44
997.163	308.07
997.524	340.84
997.885	282.33
998.245	251.9
998.606	258.92
998.966	347.86
999.327	237.86
999.687	291.69
1000.047	291.69
1000.408	294.03
1000.768	296.37
1001.128	219.13
1001.488	310.41
1001.848	301.05
1002.208	265.94
1002.568	331.48
1002.927	289.35
1003.287	287.01
1003.647	329.14
1004.007	312.75
1004.366	364.25
1004.726	333.82
1005.085	270.62
1005.444	338.5
1005.804	270.62
1006.163	272.96
1006.522	270.62
1006.881	254.24
1007.24	315.09
1007.599	287.01
1007.958	291.69
1008.317	291.69
1008.676	324.46
1009.035	265.94
1009.393	331.48
1009.752	343.18
1010.111	272.96
1010.469	350.2
1010.828	336.16
1011.186	270.62
1011.544	312.75
1011.903	287.01
1012.261	275.31
1012.619	249.56
1012.977	296.37
1013.335	270.62
1013.693	303.39
1014.051	270.62
1014.409	270.62
1014.767	308.07
1015.124	258.92
1015.482	331.48
1015.84	282.33
1016.197	258.92
1016.555	254.24
1016.912	303.39
1017.269	294.03
1017.627	329.14
1017.984	322.12
1018.341	226.15
1018.698	303.39
1019.055	308.07
1019.412	310.41
1019.769	303.39
1020.126	230.84
1020.483	317.44
1020.84	301.05
1021.196	352.54
1021.553	298.71
1021.909	322.12
1022.266	338.5
1022.622	324.46
1022.979	303.39
1023.335	352.54
1023.691	270.62
1024.047	357.22
1024.404	256.58
1024.76	247.22
1025.116	251.9
1025.472	301.05
1025.827	338.5
1026.183	275.31
1026.539	331.48
1026.895	324.46
1027.25	282.33
1027.606	319.78
1027.961	312.75
1028.317	233.18
1028.672	256.58
1029.028	357.22
1029.383	282.33
1029.738	284.67
1030.093	296.37
1030.448	350.2
1030.803	254.24
1031.158	258.92
1031.513	303.39
1031.868	265.94
1032.223	317.44
1032.577	343.18
1032.932	270.62
1033.287	322.12
1033.641	303.39
1033.996	324.46
1034.35	256.58
1034.704	361.91
1035.059	340.84
1035.413	312.75
1035.767	312.75
1036.121	312.75
