Data from Al_FLMS009871__335__12-25-47-139.txt Node

Date: Fri Mar 08 12:25:47 CST 2024
User: pe5414po
Spectrometer: FLMS00987
Trigger mode: 0
Integration Time (sec): 1.000000E-1
Scans to average: 1
Electric dark correction enabled: true
Nonlinearity correction enabled: false
Boxcar width: 0
XAxis mode: Wavelengths
Number of Pixels in Spectrum: 2048
>>>>>Begin Spectral Data<<<<<
188.938	-63.63
189.409	-63.63
189.879	-63.63
190.349	-122.15
190.819	-101.08
191.29	-37.89
191.76	-75.34
192.23	-152.57
192.7	-108.1
193.17	-47.25
193.64	-70.65
194.109	-56.61
194.579	29.99
195.049	76.8
195.519	13.6
195.988	58.07
196.458	22.97
196.927	74.46
197.397	60.42
197.866	118.93
198.336	93.18
198.805	123.61
199.274	149.36
199.744	90.84
200.213	147.01
200.682	238.3
201.151	228.93
201.62	280.43
202.089	259.36
202.558	264.04
203.027	245.32
203.495	352.98
203.964	285.11
204.433	273.4
204.902	275.74
205.37	308.51
205.839	282.77
206.307	324.9
206.776	289.79
207.244	273.4
207.712	271.06
208.181	294.47
208.649	287.45
209.117	420.86
209.585	280.43
210.053	355.32
210.521	292.13
210.989	338.94
211.457	238.3
211.925	345.96
212.393	331.92
212.861	280.43
213.328	303.83
213.796	278.08
214.264	280.43
214.731	278.08
215.199	266.38
215.666	292.13
216.133	268.72
216.601	322.56
217.068	231.27
217.535	296.81
218.003	280.43
218.47	235.96
218.937	301.49
219.404	240.64
219.871	282.77
220.338	299.15
220.805	257.02
221.271	313.19
221.738	245.32
222.205	266.38
222.671	280.43
223.138	273.4
223.605	235.96
224.071	228.93
224.538	287.45
225.004	200.85
225.47	294.47
225.937	285.11
226.403	268.72
226.869	315.53
227.335	282.77
227.801	296.81
228.267	301.49
228.733	254.68
229.199	264.04
229.665	327.24
230.131	231.27
230.597	257.02
231.062	331.92
231.528	345.96
231.994	341.28
232.459	268.72
232.925	301.49
233.39	259.36
233.856	280.43
234.321	329.58
234.786	292.13
235.252	289.79
235.717	306.17
236.182	275.74
236.647	331.92
237.112	313.19
237.577	224.25
238.042	240.64
238.507	273.4
238.972	315.53
239.436	310.85
239.901	275.74
240.366	264.04
240.83	261.7
241.295	301.49
241.76	289.79
242.224	296.81
242.688	285.11
243.153	285.11
243.617	360
244.081	242.98
244.545	315.53
245.01	338.94
245.474	259.36
245.938	282.77
246.402	299.15
246.866	367.03
247.33	303.83
247.793	310.85
248.257	285.11
248.721	252.34
249.185	271.06
249.648	367.03
250.112	317.87
250.575	301.49
251.039	266.38
251.502	327.24
251.965	257.02
252.429	299.15
252.892	261.7
253.355	273.4
253.818	313.19
254.281	254.68
254.744	257.02
255.207	289.79
255.67	383.41
256.133	301.49
256.596	294.47
257.059	338.94
257.522	252.34
257.984	331.92
258.447	224.25
258.909	273.4
259.372	285.11
259.834	392.77
260.297	306.17
260.759	331.92
261.221	317.87
261.684	296.81
262.146	355.32
262.608	338.94
263.07	278.08
263.532	233.61
263.994	320.21
264.456	313.19
264.918	271.06
265.38	320.21
265.842	247.66
266.303	261.7
266.765	320.21
267.227	285.11
267.688	266.38
268.15	324.9
268.611	303.83
269.072	322.56
269.534	306.17
269.995	240.64
270.456	273.4
270.918	343.62
271.379	324.9
271.84	343.62
272.301	357.66
272.762	331.92
273.223	306.17
273.684	362.34
274.144	268.72
274.605	275.74
275.066	296.81
275.527	268.72
275.987	315.53
276.448	306.17
276.908	306.17
277.369	268.72
277.829	282.77
278.289	310.85
278.75	268.72
279.21	334.26
279.67	324.9
280.13	238.3
280.59	242.98
281.05	352.98
281.51	259.36
281.97	301.49
282.43	273.4
282.89	303.83
283.35	287.45
283.809	357.66
284.269	313.19
284.729	322.56
285.188	250
285.648	296.81
286.107	322.56
286.567	334.26
287.026	278.08
287.485	306.17
287.944	282.77
288.404	273.4
288.863	334.26
289.322	254.68
289.781	320.21
290.24	219.57
290.699	280.43
291.158	324.9
291.616	303.83
292.075	350.64
292.534	282.77
292.992	331.92
293.451	338.94
293.91	306.17
294.368	306.17
294.827	322.56
295.285	338.94
295.743	294.47
296.202	278.08
296.66	334.26
297.118	231.27
297.576	285.11
298.034	235.96
298.492	198.51
298.95	250
299.408	287.45
299.866	315.53
300.324	303.83
300.781	313.19
301.239	338.94
301.697	296.81
302.154	310.85
302.612	292.13
303.069	296.81
303.527	336.6
303.984	320.21
304.441	294.47
304.899	289.79
305.356	310.85
305.813	331.92
306.27	275.74
306.727	320.21
307.184	369.37
307.641	294.47
308.098	329.58
308.555	320.21
309.012	322.56
309.468	264.04
309.925	282.77
310.382	322.56
310.838	266.38
311.295	292.13
311.751	303.83
312.208	299.15
312.664	296.81
313.12	343.62
313.577	266.38
314.033	315.53
314.489	322.56
314.945	278.08
315.401	296.81
315.857	278.08
316.313	292.13
316.769	334.26
317.225	306.17
317.681	296.81
318.136	287.45
318.592	336.6
319.048	334.26
319.503	343.62
319.959	287.45
320.414	324.9
320.869	289.79
321.325	362.34
321.78	362.34
322.235	310.85
322.691	292.13
323.146	341.28
323.601	329.58
324.056	259.36
324.511	266.38
324.966	341.28
325.421	324.9
325.875	247.66
326.33	301.49
326.785	296.81
327.24	362.34
327.694	254.68
328.149	352.98
328.603	345.96
329.058	343.62
329.512	334.26
329.966	308.51
330.421	278.08
330.875	252.34
331.329	334.26
331.783	315.53
332.237	285.11
332.691	282.77
333.145	275.74
333.599	250
334.053	301.49
334.507	287.45
334.96	271.06
335.414	352.98
335.868	259.36
336.321	280.43
336.775	324.9
337.228	238.3
337.682	324.9
338.135	324.9
338.588	280.43
339.042	320.21
339.495	296.81
339.948	324.9
340.401	259.36
340.854	317.87
341.307	345.96
341.76	250
342.213	338.94
342.666	320.21
343.119	294.47
343.571	341.28
344.024	343.62
344.477	303.83
344.929	317.87
345.382	310.85
345.834	381.07
346.287	334.26
346.739	352.98
347.191	275.74
347.644	289.79
348.096	315.53
348.548	329.58
349	292.13
349.452	362.34
349.904	242.98
350.356	338.94
350.808	364.68
351.26	289.79
351.711	315.53
352.163	303.83
352.615	247.66
353.066	350.64
353.518	327.24
353.969	395.11
354.421	324.9
354.872	310.85
355.324	264.04
355.775	294.47
356.226	308.51
356.677	385.75
357.128	257.02
357.579	355.32
358.03	306.17
358.481	308.51
358.932	322.56
359.383	371.71
359.834	322.56
360.285	324.9
360.735	336.6
361.186	315.53
361.637	310.85
362.087	282.77
362.538	367.03
362.988	303.83
363.438	310.85
363.889	345.96
364.339	322.56
364.789	331.92
365.239	306.17
365.689	322.56
366.139	294.47
366.589	334.26
367.039	324.9
367.489	287.45
367.939	329.58
368.389	338.94
368.839	357.66
369.288	315.53
369.738	376.39
370.187	322.56
370.637	299.15
371.086	331.92
371.536	301.49
371.985	266.38
372.434	301.49
372.884	252.34
373.333	306.17
373.782	360
374.231	296.81
374.68	355.32
375.129	345.96
375.578	352.98
376.027	231.27
376.475	315.53
376.924	303.83
377.373	303.83
377.822	292.13
378.27	310.85
378.719	329.58
379.167	310.85
379.616	343.62
380.064	327.24
380.512	374.05
380.961	345.96
381.409	345.96
381.857	404.47
382.305	327.24
382.753	247.66
383.201	313.19
383.649	308.51
384.097	327.24
384.545	280.43
384.992	301.49
385.44	362.34
385.888	280.43
386.335	299.15
386.783	331.92
387.231	369.37
387.678	264.04
388.125	299.15
388.573	327.24
389.02	334.26
389.467	348.3
389.914	294.47
390.362	341.28
390.809	299.15
391.256	268.72
391.703	378.73
392.15	240.64
392.596	301.49
393.043	289.79
393.49	334.26
393.937	404.47
394.383	282.77
394.83	331.92
395.276	355.32
395.723	352.98
396.169	294.47
396.616	369.37
397.062	320.21
397.508	369.37
397.954	329.58
398.401	320.21
398.847	301.49
399.293	341.28
399.739	348.3
400.185	341.28
400.631	350.64
401.076	331.92
401.522	296.81
401.968	289.79
402.414	348.3
402.859	329.58
403.305	315.53
403.75	371.71
404.196	341.28
404.641	341.28
405.086	313.19
405.532	310.85
405.977	296.81
406.422	320.21
406.867	292.13
407.312	334.26
407.757	280.43
408.202	334.26
408.647	345.96
409.092	345.96
409.537	362.34
409.982	308.51
410.426	306.17
410.871	317.87
411.316	313.19
411.76	310.85
412.205	355.32
412.649	310.85
413.093	374.05
413.538	367.03
413.982	345.96
414.426	331.92
414.87	303.83
415.314	355.32
415.758	294.47
416.202	402.13
416.646	343.62
417.09	315.53
417.534	341.28
417.978	338.94
418.421	327.24
418.865	362.34
419.309	324.9
419.752	352.98
420.196	280.43
420.639	327.24
421.083	329.58
421.526	310.85
421.969	324.9
422.412	327.24
422.856	406.81
423.299	360
423.742	416.18
424.185	348.3
424.628	374.05
425.071	381.07
425.513	343.62
425.956	338.94
426.399	374.05
426.842	378.73
427.284	385.75
427.727	432.56
428.169	327.24
428.612	462.99
429.054	385.75
429.497	383.41
429.939	392.77
430.381	345.96
430.823	320.21
431.265	350.64
431.707	467.67
432.149	360
432.591	383.41
433.033	425.54
433.475	423.2
433.917	402.13
434.359	460.65
434.8	500.44
435.242	582.35
435.684	556.61
436.125	486.39
436.567	444.26
437.008	455.97
437.449	397.45
437.891	470.01
438.332	505.12
438.773	455.97
439.214	521.5
439.656	488.73
440.097	416.18
440.538	425.54
440.978	516.82
441.419	465.33
441.86	551.93
442.301	507.46
442.742	423.2
443.182	486.39
443.623	465.33
444.063	505.12
444.504	580.01
444.944	481.71
445.385	495.75
445.825	507.46
446.265	514.48
446.706	500.44
447.146	544.91
447.586	533.2
448.026	458.31
448.466	481.71
448.906	507.46
449.346	491.07
449.786	528.52
450.225	491.07
450.665	540.22
451.105	509.8
451.544	563.63
451.984	484.05
452.424	432.56
452.863	474.69
453.302	451.28
453.742	500.44
454.181	530.86
454.62	444.26
455.059	484.05
455.499	556.61
455.938	526.18
456.377	479.37
456.816	474.69
457.254	418.52
457.693	470.01
458.132	402.13
458.571	444.26
459.01	554.27
459.448	446.6
459.887	411.5
460.325	444.26
460.764	399.79
461.202	345.96
461.641	437.24
462.079	430.22
462.517	404.47
462.955	395.11
463.393	402.13
463.832	409.15
464.27	336.6
464.708	388.09
465.145	397.45
465.583	430.22
466.021	367.03
466.459	434.9
466.897	357.66
467.334	362.34
467.772	345.96
468.209	313.19
468.647	399.79
469.084	439.58
469.522	395.11
469.959	374.05
470.396	437.24
470.833	352.98
471.271	388.09
471.708	374.05
472.145	388.09
472.582	329.58
473.019	455.97
473.456	385.75
473.892	397.45
474.329	376.39
474.766	322.56
475.202	390.43
475.639	383.41
476.076	409.15
476.512	397.45
476.949	385.75
477.385	338.94
477.821	439.58
478.258	352.98
478.694	371.71
479.13	336.6
479.566	374.05
480.002	355.32
480.438	376.39
480.874	329.58
481.31	355.32
481.746	369.37
482.181	411.5
482.617	402.13
483.053	411.5
483.488	402.13
483.924	310.85
484.36	420.86
484.795	406.81
485.23	472.35
485.666	425.54
486.101	491.07
486.536	491.07
486.971	470.01
487.407	451.28
487.842	498.1
488.277	432.56
488.712	409.15
489.146	467.67
489.581	477.03
490.016	425.54
490.451	462.99
490.885	474.69
491.32	467.67
491.755	406.81
492.189	437.24
492.624	385.75
493.058	418.52
493.492	388.09
493.927	409.15
494.361	432.56
494.795	411.5
495.229	357.66
495.663	455.97
496.097	484.05
496.531	439.58
496.965	420.86
497.399	402.13
497.833	399.79
498.266	376.39
498.7	462.99
499.134	388.09
499.567	406.81
500.001	432.56
500.434	383.41
500.868	470.01
501.301	371.71
501.734	399.79
502.168	322.56
502.601	397.45
503.034	388.09
503.467	441.92
503.9	376.39
504.333	441.92
504.766	441.92
505.199	348.3
505.632	430.22
506.064	416.18
506.497	467.67
506.93	439.58
507.362	439.58
507.795	406.81
508.227	385.75
508.66	406.81
509.092	430.22
509.524	411.5
509.956	432.56
510.389	439.58
510.821	423.2
511.253	467.67
511.685	495.75
512.117	388.09
512.549	434.9
512.981	402.13
513.412	505.12
513.844	336.6
514.276	437.24
514.707	418.52
515.139	453.63
515.571	467.67
516.002	425.54
516.433	474.69
516.865	395.11
517.296	460.65
517.727	397.45
518.159	385.75
518.59	395.11
519.021	369.37
519.452	402.13
519.883	455.97
520.314	378.73
520.744	472.35
521.175	465.33
521.606	392.77
522.037	460.65
522.467	474.69
522.898	441.92
523.328	451.28
523.759	467.67
524.189	439.58
524.62	479.37
525.05	448.94
525.48	397.45
525.91	388.09
526.341	491.07
526.771	411.5
527.201	397.45
527.631	484.05
528.061	427.88
528.49	418.52
528.92	406.81
529.35	404.47
529.78	465.33
530.209	441.92
530.639	455.97
531.068	479.37
531.498	448.94
531.927	474.69
532.357	388.09
532.786	427.88
533.215	448.94
533.644	481.71
534.074	427.88
534.503	427.88
534.932	498.1
535.361	420.86
535.79	423.2
536.218	460.65
536.647	437.24
537.076	453.63
537.505	486.39
537.933	481.71
538.362	425.54
538.79	451.28
539.219	512.14
539.647	542.57
540.076	535.54
540.504	572.99
540.932	612.78
541.36	587.04
541.788	626.82
542.217	748.53
542.645	683
543.073	755.55
543.5	736.83
543.928	645.55
544.356	739.17
544.784	664.27
545.211	722.79
545.639	774.28
546.067	673.64
546.494	617.46
546.922	603.42
547.349	537.88
547.776	605.76
548.204	519.16
548.631	528.52
549.058	451.28
549.485	540.22
549.912	498.1
550.339	554.27
550.766	432.56
551.193	528.52
551.62	526.18
552.047	505.12
552.474	495.75
552.9	505.12
553.327	437.24
553.754	448.94
554.18	514.48
554.607	425.54
555.033	420.86
555.459	427.88
555.886	500.44
556.312	472.35
556.738	479.37
557.164	392.77
557.59	409.15
558.016	474.69
558.442	367.03
558.868	406.81
559.294	345.96
559.72	465.33
560.145	451.28
560.571	439.58
560.997	427.88
561.422	444.26
561.848	441.92
562.273	444.26
562.699	439.58
563.124	427.88
563.549	446.6
563.974	434.9
564.4	465.33
564.825	458.31
565.25	474.69
565.675	376.39
566.1	357.66
566.525	441.92
566.95	425.54
567.374	441.92
567.799	331.92
568.224	416.18
568.648	411.5
569.073	432.56
569.497	402.13
569.922	455.97
570.346	418.52
570.771	448.94
571.195	406.81
571.619	462.99
572.043	488.73
572.467	413.84
572.891	406.81
573.315	338.94
573.739	381.07
574.163	392.77
574.587	434.9
575.011	385.75
575.435	416.18
575.858	441.92
576.282	392.77
576.705	437.24
577.129	467.67
577.552	446.6
577.976	481.71
578.399	420.86
578.822	413.84
579.245	439.58
579.669	413.84
580.092	502.78
580.515	500.44
580.938	360
581.361	416.18
581.784	467.67
582.206	446.6
582.629	399.79
583.052	385.75
583.474	385.75
583.897	486.39
584.32	479.37
584.742	479.37
585.165	458.31
585.587	434.9
586.009	509.8
586.431	425.54
586.854	477.03
587.276	416.18
587.698	530.86
588.12	516.82
588.542	441.92
588.964	491.07
589.386	385.75
589.807	423.2
590.229	448.94
590.651	425.54
591.073	451.28
591.494	481.71
591.916	434.9
592.337	472.35
592.759	404.47
593.18	374.05
593.601	455.97
594.022	465.33
594.444	455.97
594.865	355.32
595.286	402.13
595.707	376.39
596.128	432.56
596.549	437.24
596.97	406.81
597.39	425.54
597.811	383.41
598.232	378.73
598.652	390.43
599.073	465.33
599.494	432.56
599.914	402.13
600.334	381.07
600.755	451.28
601.175	381.07
601.595	374.05
602.015	402.13
602.436	451.28
602.856	537.88
603.276	395.11
603.696	430.22
604.115	402.13
604.535	355.32
604.955	348.3
605.375	369.37
605.794	420.86
606.214	420.86
606.634	383.41
607.053	392.77
607.473	418.52
607.892	350.64
608.311	467.67
608.731	458.31
609.15	458.31
609.569	512.14
609.988	615.12
610.407	776.62
610.826	757.89
611.245	818.75
611.664	788.32
612.083	788.32
612.501	687.68
612.92	650.23
613.339	629.17
613.757	612.78
614.176	528.52
614.594	535.54
615.013	521.5
615.431	509.8
615.85	451.28
616.268	352.98
616.686	523.84
617.104	404.47
617.522	399.79
617.94	430.22
618.358	441.92
618.776	383.41
619.194	467.67
619.612	390.43
620.03	505.12
620.447	397.45
620.865	472.35
621.282	425.54
621.7	437.24
622.117	392.77
622.535	409.15
622.952	427.88
623.369	446.6
623.787	446.6
624.204	313.19
624.621	418.52
625.038	352.98
625.455	343.62
625.872	301.49
626.289	371.71
626.706	399.79
627.123	343.62
627.539	399.79
627.956	383.41
628.373	437.24
628.789	441.92
629.206	399.79
629.622	385.75
630.038	313.19
630.455	367.03
630.871	406.81
631.287	385.75
631.703	462.99
632.12	446.6
632.536	383.41
632.952	371.71
633.368	360
633.783	390.43
634.199	399.79
634.615	331.92
635.031	310.85
635.446	334.26
635.862	399.79
636.277	348.3
636.693	371.71
637.108	327.24
637.524	427.88
637.939	348.3
638.354	308.51
638.77	264.04
639.185	317.87
639.6	376.39
640.015	345.96
640.43	364.68
640.845	402.13
641.259	397.45
641.674	397.45
642.089	388.09
642.504	341.28
642.918	383.41
643.333	352.98
643.747	315.53
644.162	376.39
644.576	399.79
644.991	350.64
645.405	334.26
645.819	399.79
646.233	336.6
646.647	329.58
647.061	376.39
647.475	324.9
647.889	320.21
648.303	341.28
648.717	313.19
649.131	275.74
649.545	334.26
649.958	303.83
650.372	404.47
650.785	357.66
651.199	348.3
651.612	371.71
652.026	376.39
652.439	322.56
652.852	369.37
653.266	388.09
653.679	343.62
654.092	397.45
654.505	367.03
654.918	362.34
655.331	338.94
655.744	423.2
656.156	376.39
656.569	364.68
656.982	362.34
657.394	374.05
657.807	294.47
658.22	327.24
658.632	360
659.044	371.71
659.457	402.13
659.869	282.77
660.281	336.6
660.693	376.39
661.106	381.07
661.518	271.06
661.93	425.54
662.342	345.96
662.754	294.47
663.165	352.98
663.577	299.15
663.989	278.08
664.401	280.43
664.812	334.26
665.224	413.84
665.635	369.37
666.047	329.58
666.458	360
666.869	348.3
667.281	411.5
667.692	329.58
668.103	341.28
668.514	315.53
668.925	280.43
669.336	345.96
669.747	388.09
670.158	385.75
670.569	371.71
670.979	374.05
671.39	336.6
671.801	338.94
672.211	341.28
672.622	334.26
673.032	275.74
673.443	299.15
673.853	336.6
674.263	423.2
674.674	357.66
675.084	282.77
675.494	317.87
675.904	327.24
676.314	369.37
676.724	364.68
677.134	364.68
677.544	299.15
677.953	294.47
678.363	348.3
678.773	406.81
679.182	369.37
679.592	364.68
680.001	348.3
680.411	388.09
680.82	404.47
681.23	348.3
681.639	383.41
682.048	327.24
682.457	329.58
682.866	355.32
683.275	242.98
683.684	341.28
684.093	294.47
684.502	303.83
684.911	369.37
685.32	336.6
685.728	324.9
686.137	390.43
686.546	367.03
686.954	338.94
687.363	322.56
687.771	376.39
688.179	381.07
688.588	247.66
688.996	308.51
689.404	259.36
689.812	322.56
690.22	381.07
690.628	357.66
691.036	303.83
691.444	390.43
691.852	390.43
692.26	315.53
692.667	327.24
693.075	301.49
693.483	273.4
693.89	390.43
694.298	329.58
694.705	294.47
695.112	331.92
695.52	360
695.927	376.39
696.334	285.11
696.741	287.45
697.148	348.3
697.555	306.17
697.962	322.56
698.369	334.26
698.776	315.53
699.183	327.24
699.59	357.66
699.996	315.53
700.403	399.79
700.81	301.49
701.216	360
701.623	317.87
702.029	338.94
702.435	273.4
702.842	345.96
703.248	343.62
703.654	271.06
704.06	378.73
704.466	327.24
704.872	299.15
705.278	352.98
705.684	369.37
706.09	268.72
706.496	360
706.901	397.45
707.307	376.39
707.712	343.62
708.118	367.03
708.523	348.3
708.929	399.79
709.334	336.6
709.74	343.62
710.145	303.83
710.55	374.05
710.955	399.79
711.36	411.5
711.765	278.08
712.17	310.85
712.575	388.09
712.98	919.39
713.385	383.41
713.789	324.9
714.194	303.83
714.599	264.04
715.003	327.24
715.408	285.11
715.812	343.62
716.217	338.94
716.621	360
717.025	374.05
717.429	343.62
717.833	334.26
718.238	341.28
718.642	376.39
719.046	275.74
719.449	352.98
719.853	343.62
720.257	320.21
720.661	308.51
721.065	338.94
721.468	348.3
721.872	273.4
722.275	397.45
722.679	369.37
723.082	392.77
723.485	341.28
723.889	261.7
724.292	315.53
724.695	282.77
725.098	378.73
725.501	334.26
725.904	308.51
726.307	329.58
726.71	275.74
727.113	310.85
727.516	338.94
727.918	322.56
728.321	294.47
728.724	189.14
729.126	345.96
729.529	345.96
729.931	310.85
730.333	418.52
730.736	360
731.138	336.6
731.54	402.13
731.942	275.74
732.344	315.53
732.746	376.39
733.148	336.6
733.55	308.51
733.952	338.94
734.354	315.53
734.756	350.64
735.157	374.05
735.559	341.28
735.96	341.28
736.362	315.53
736.763	278.08
737.165	289.79
737.566	296.81
737.967	320.21
738.368	254.68
738.77	324.9
739.171	402.13
739.572	282.77
739.973	341.28
740.374	355.32
740.774	278.08
741.175	261.7
741.576	360
741.977	329.58
742.377	327.24
742.778	287.45
743.178	317.87
743.579	367.03
743.979	331.92
744.379	275.74
744.78	296.81
745.18	299.15
745.58	322.56
745.98	348.3
746.38	352.98
746.78	348.3
747.18	313.19
747.58	343.62
747.98	294.47
748.38	324.9
748.779	331.92
749.179	306.17
749.578	338.94
749.978	301.49
750.377	357.66
750.777	301.49
751.176	296.81
751.575	322.56
751.975	266.38
752.374	303.83
752.773	341.28
753.172	338.94
753.571	329.58
753.97	310.85
754.369	343.62
754.768	329.58
755.166	299.15
755.565	336.6
755.964	299.15
756.362	324.9
756.761	345.96
757.159	341.28
757.558	313.19
757.956	322.56
758.354	357.66
758.753	345.96
759.151	329.58
759.549	324.9
759.947	357.66
760.345	289.79
760.743	355.32
761.141	369.37
761.539	343.62
761.936	355.32
762.334	345.96
762.732	271.06
763.129	329.58
763.527	352.98
763.924	378.73
764.322	280.43
764.719	350.64
765.117	327.24
765.514	352.98
765.911	301.49
766.308	313.19
766.705	273.4
767.102	308.51
767.499	292.13
767.896	299.15
768.293	273.4
768.69	360
769.086	369.37
769.483	402.13
769.88	355.32
770.276	317.87
770.673	381.07
771.069	310.85
771.466	299.15
771.862	313.19
772.258	364.68
772.654	292.13
773.05	331.92
773.447	388.09
773.843	385.75
774.239	299.15
774.634	392.77
775.03	348.3
775.426	367.03
775.822	303.83
776.218	289.79
776.613	322.56
777.009	360
777.404	364.68
777.8	320.21
778.195	313.19
778.59	301.49
778.986	329.58
779.381	374.05
779.776	285.11
780.171	334.26
780.566	341.28
780.961	322.56
781.356	369.37
781.751	343.62
782.146	367.03
782.54	268.72
782.935	329.58
783.33	310.85
783.724	315.53
784.119	331.92
784.513	338.94
784.908	360
785.302	317.87
785.696	334.26
786.09	371.71
786.485	308.51
786.879	352.98
787.273	388.09
787.667	296.81
788.061	329.58
788.454	308.51
788.848	310.85
789.242	254.68
789.636	324.9
790.029	360
790.423	275.74
790.816	327.24
791.21	350.64
791.603	376.39
791.997	296.81
792.39	296.81
792.783	289.79
793.176	352.98
793.569	350.64
793.962	404.47
794.355	320.21
794.748	266.38
795.141	343.62
795.534	250
795.927	313.19
796.319	336.6
796.712	282.77
797.105	301.49
797.497	338.94
797.89	306.17
798.282	374.05
798.674	289.79
799.067	308.51
799.459	383.41
799.851	334.26
800.243	289.79
800.635	261.7
801.027	322.56
801.419	285.11
801.811	362.34
802.203	303.83
802.594	303.83
802.986	367.03
803.378	324.9
803.769	367.03
804.161	292.13
804.552	278.08
804.944	345.96
805.335	292.13
805.726	242.98
806.118	369.37
806.509	235.96
806.9	331.92
807.291	294.47
807.682	289.79
808.073	296.81
808.464	336.6
808.855	362.34
809.245	334.26
809.636	322.56
810.027	329.58
810.417	336.6
810.808	240.64
811.198	306.17
811.589	329.58
811.979	369.37
812.369	271.06
812.759	306.17
813.15	334.26
813.54	294.47
813.93	315.53
814.32	402.13
814.71	320.21
815.1	306.17
815.489	367.03
815.879	296.81
816.269	388.09
816.658	360
817.048	395.11
817.438	336.6
817.827	287.45
818.216	329.58
818.606	385.75
818.995	355.32
819.384	388.09
819.773	376.39
820.163	360
820.552	331.92
820.941	327.24
821.33	338.94
821.718	294.47
822.107	301.49
822.496	334.26
822.885	299.15
823.273	345.96
823.662	306.17
824.05	331.92
824.439	329.58
824.827	322.56
825.216	308.51
825.604	301.49
825.992	338.94
826.38	322.56
826.768	362.34
827.156	285.11
827.544	289.79
827.932	252.34
828.32	334.26
828.708	329.58
829.096	306.17
829.483	247.66
829.871	308.51
830.259	296.81
830.646	294.47
831.034	329.58
831.421	301.49
831.808	275.74
832.196	296.81
832.583	329.58
832.97	266.38
833.357	294.47
833.744	320.21
834.131	334.26
834.518	327.24
834.905	310.85
835.292	282.77
835.678	308.51
836.065	357.66
836.452	336.6
836.838	331.92
837.225	303.83
837.611	317.87
837.998	331.92
838.384	331.92
838.77	278.08
839.157	306.17
839.543	303.83
839.929	301.49
840.315	343.62
840.701	348.3
841.087	324.9
841.473	268.72
841.858	294.47
842.244	334.26
842.63	341.28
843.015	301.49
843.401	587.04
843.787	385.75
844.172	343.62
844.557	343.62
844.943	388.09
845.328	292.13
845.713	327.24
846.098	352.98
846.483	362.34
846.868	296.81
847.253	355.32
847.638	341.28
848.023	287.45
848.408	338.94
848.793	343.62
849.177	271.06
849.562	348.3
849.947	343.62
850.331	280.43
850.715	343.62
851.1	322.56
851.484	308.51
851.868	306.17
852.253	280.43
852.637	367.03
853.021	324.9
853.405	261.7
853.789	329.58
854.173	364.68
854.557	322.56
854.94	310.85
855.324	317.87
855.708	336.6
856.091	275.74
856.475	334.26
856.858	303.83
857.242	331.92
857.625	299.15
858.009	315.53
858.392	334.26
858.775	371.71
859.158	329.58
859.541	397.45
859.924	352.98
860.307	278.08
860.69	273.4
861.073	388.09
861.456	371.71
861.838	343.62
862.221	362.34
862.604	317.87
862.986	376.39
863.369	315.53
863.751	315.53
864.133	376.39
864.516	308.51
864.898	355.32
865.28	376.39
865.662	315.53
866.044	355.32
866.426	322.56
866.808	313.19
867.19	299.15
867.572	301.49
867.954	303.83
868.336	343.62
868.717	264.04
869.099	308.51
869.48	285.11
869.862	334.26
870.243	292.13
870.625	285.11
871.006	299.15
871.387	348.3
871.768	306.17
872.149	289.79
872.53	371.71
872.911	271.06
873.292	345.96
873.673	315.53
874.054	299.15
874.435	287.45
874.815	327.24
875.196	313.19
875.577	381.07
875.957	392.77
876.338	343.62
876.718	355.32
877.098	343.62
877.479	357.66
877.859	378.73
878.239	348.3
878.619	341.28
878.999	371.71
879.379	280.43
879.759	324.9
880.139	322.56
880.519	306.17
880.898	320.21
881.278	355.32
881.658	334.26
882.037	306.17
882.417	287.45
882.796	364.68
883.176	374.05
883.555	329.58
883.934	278.08
884.313	371.71
884.693	275.74
885.072	308.51
885.451	327.24
885.83	301.49
886.209	329.58
886.587	385.75
886.966	299.15
887.345	313.19
887.724	331.92
888.102	275.74
888.481	341.28
888.859	308.51
889.238	367.03
889.616	273.4
889.994	259.36
890.373	320.21
890.751	317.87
891.129	308.51
891.507	299.15
891.885	348.3
892.263	355.32
892.641	299.15
893.019	345.96
893.396	280.43
893.774	364.68
894.152	289.79
894.529	313.19
894.907	331.92
895.284	294.47
895.662	299.15
896.039	327.24
896.416	376.39
896.794	278.08
897.171	273.4
897.548	308.51
897.925	299.15
898.302	345.96
898.679	296.81
899.056	303.83
899.433	299.15
899.809	313.19
900.186	331.92
900.563	306.17
900.939	343.62
901.316	285.11
901.692	296.81
902.069	324.9
902.445	324.9
902.821	310.85
903.197	273.4
903.574	310.85
903.95	282.77
904.326	301.49
904.702	345.96
905.078	327.24
905.454	378.73
905.829	331.92
906.205	271.06
906.581	350.64
906.956	336.6
907.332	310.85
907.707	287.45
908.083	266.38
908.458	231.27
908.833	299.15
909.209	350.64
909.584	352.98
909.959	250
910.334	296.81
910.709	322.56
911.084	264.04
911.459	376.39
911.834	320.21
912.209	296.81
912.583	315.53
912.958	369.37
913.333	341.28
913.707	336.6
914.082	301.49
914.456	296.81
914.83	296.81
915.205	338.94
915.579	369.37
915.953	331.92
916.327	320.21
916.701	301.49
917.075	336.6
917.449	315.53
917.823	296.81
918.197	345.96
918.571	331.92
918.944	322.56
919.318	254.68
919.692	301.49
920.065	317.87
920.438	292.13
920.812	282.77
921.185	392.77
921.558	341.28
921.932	280.43
922.305	317.87
922.678	369.37
923.051	336.6
923.424	306.17
923.797	322.56
924.17	285.11
924.542	315.53
924.915	345.96
925.288	357.66
925.661	245.32
926.033	301.49
926.406	362.34
926.778	275.74
927.15	341.28
927.523	275.74
927.895	327.24
928.267	367.03
928.639	371.71
929.011	278.08
929.383	324.9
929.755	299.15
930.127	303.83
930.499	324.9
930.871	334.26
931.242	259.36
931.614	355.32
931.986	287.45
932.357	329.58
932.729	315.53
933.1	310.85
933.471	383.41
933.843	292.13
934.214	341.28
934.585	320.21
934.956	308.51
935.327	252.34
935.698	341.28
936.069	338.94
936.44	289.79
936.811	341.28
937.182	261.7
937.552	273.4
937.923	355.32
938.293	303.83
938.664	343.62
939.034	289.79
939.405	294.47
939.775	383.41
940.145	324.9
940.516	338.94
940.886	383.41
941.256	329.58
941.626	285.11
941.996	264.04
942.366	355.32
942.735	350.64
943.105	322.56
943.475	292.13
943.845	308.51
944.214	331.92
944.584	259.36
944.953	315.53
945.323	322.56
945.692	360
946.061	348.3
946.43	273.4
946.8	338.94
947.169	352.98
947.538	324.9
947.907	317.87
948.276	355.32
948.645	317.87
949.013	287.45
949.382	292.13
949.751	299.15
950.119	303.83
950.488	313.19
950.857	343.62
951.225	289.79
951.593	294.47
951.962	310.85
952.33	287.45
952.698	320.21
953.066	374.05
953.434	362.34
953.802	331.92
954.17	282.77
954.538	299.15
954.906	336.6
955.274	264.04
955.642	385.75
956.009	266.38
956.377	299.15
956.744	336.6
957.112	374.05
957.479	275.74
957.847	334.26
958.214	303.83
958.581	327.24
958.948	317.87
959.315	329.58
959.683	306.17
960.05	273.4
960.416	317.87
960.783	289.79
961.15	303.83
961.517	306.17
961.884	317.87
962.25	331.92
962.617	327.24
962.983	301.49
963.35	287.45
963.716	285.11
964.082	357.66
964.449	406.81
964.815	294.47
965.181	292.13
965.547	320.21
965.913	299.15
966.279	357.66
966.645	329.58
967.011	289.79
967.377	345.96
967.742	336.6
968.108	341.28
968.474	303.83
968.839	242.98
969.205	280.43
969.57	280.43
969.935	296.81
970.301	306.17
970.666	336.6
971.031	303.83
971.396	350.64
971.761	320.21
972.126	334.26
972.491	285.11
972.856	352.98
973.221	268.72
973.586	345.96
973.95	367.03
974.315	296.81
974.679	324.9
975.044	315.53
975.408	341.28
975.773	303.83
976.137	301.49
976.501	376.39
976.866	306.17
977.23	320.21
977.594	348.3
977.958	308.51
978.322	336.6
978.686	296.81
979.049	275.74
979.413	294.47
979.777	331.92
980.141	322.56
980.504	250
980.868	310.85
981.231	315.53
981.595	301.49
981.958	264.04
982.321	324.9
982.684	392.77
983.048	310.85
983.411	313.19
983.774	247.66
984.137	301.49
984.5	214.89
984.862	322.56
985.225	381.07
985.588	315.53
985.951	261.7
986.313	322.56
986.676	310.85
987.038	348.3
987.401	357.66
987.763	322.56
988.125	212.55
988.488	313.19
988.85	317.87
989.212	285.11
989.574	320.21
989.936	287.45
990.298	315.53
990.66	266.38
991.022	343.62
991.383	294.47
991.745	254.68
992.107	250
992.468	348.3
992.83	352.98
993.191	348.3
993.553	280.43
993.914	282.77
994.275	388.09
994.637	310.85
994.998	294.47
995.359	299.15
995.72	336.6
996.081	292.13
996.442	299.15
996.803	329.58
997.163	275.74
997.524	374.05
997.885	289.79
998.245	369.37
998.606	271.06
998.966	343.62
999.327	313.19
999.687	299.15
1000.047	296.81
1000.408	299.15
1000.768	320.21
1001.128	273.4
1001.488	313.19
1001.848	310.85
1002.208	364.68
1002.568	294.47
1002.927	299.15
1003.287	395.11
1003.647	360
1004.007	336.6
1004.366	343.62
1004.726	350.64
1005.085	271.06
1005.444	287.45
1005.804	303.83
1006.163	371.71
1006.522	278.08
1006.881	289.79
1007.24	296.81
1007.599	296.81
1007.958	315.53
1008.317	348.3
1008.676	331.92
1009.035	320.21
1009.393	264.04
1009.752	306.17
1010.111	303.83
1010.469	362.34
1010.828	285.11
1011.186	285.11
1011.544	296.81
1011.903	315.53
1012.261	273.4
1012.619	296.81
1012.977	315.53
1013.335	362.34
1013.693	334.26
1014.051	364.68
1014.409	334.26
1014.767	264.04
1015.124	315.53
1015.482	343.62
1015.84	289.79
1016.197	357.66
1016.555	331.92
1016.912	348.3
1017.269	381.07
1017.627	369.37
1017.984	280.43
1018.341	273.4
1018.698	331.92
1019.055	334.26
1019.412	362.34
1019.769	313.19
1020.126	327.24
1020.483	315.53
1020.84	324.9
1021.196	282.77
1021.553	334.26
1021.909	299.15
1022.266	362.34
1022.622	338.94
1022.979	355.32
1023.335	268.72
1023.691	303.83
1024.047	301.49
1024.404	378.73
1024.76	350.64
1025.116	329.58
1025.472	296.81
1025.827	294.47
1026.183	292.13
1026.539	287.45
1026.895	280.43
1027.25	301.49
1027.606	334.26
1027.961	299.15
1028.317	296.81
1028.672	331.92
1029.028	313.19
1029.383	362.34
1029.738	392.77
1030.093	357.66
1030.448	320.21
1030.803	268.72
1031.158	334.26
1031.513	317.87
1031.868	350.64
1032.223	341.28
1032.577	352.98
1032.932	371.71
1033.287	322.56
1033.641	287.45
1033.996	306.17
1034.35	268.72
1034.704	329.58
1035.059	371.71
1035.413	324.9
1035.767	324.9
1036.121	324.9
