Data from Al_FLMS009871__330__12-25-46-639.txt Node

Date: Fri Mar 08 12:25:46 CST 2024
User: pe5414po
Spectrometer: FLMS00987
Trigger mode: 0
Integration Time (sec): 1.000000E-1
Scans to average: 1
Electric dark correction enabled: true
Nonlinearity correction enabled: false
Boxcar width: 0
XAxis mode: Wavelengths
Number of Pixels in Spectrum: 2048
>>>>>Begin Spectral Data<<<<<
188.938	26.62
189.409	26.62
189.879	26.62
190.349	-99.77
190.819	-71.68
191.29	-88.06
191.76	-134.87
192.23	-64.66
192.7	-95.08
193.17	-52.95
193.64	3.22
194.109	-24.87
194.579	43.01
195.049	-36.57
195.519	31.3
195.988	-15.51
196.458	82.8
196.927	54.71
197.397	80.46
197.866	68.75
198.336	148.33
198.805	188.12
199.274	141.31
199.744	218.55
200.213	153.01
200.682	183.44
201.151	248.97
201.62	164.72
202.089	241.95
202.558	274.72
203.027	321.53
203.495	270.04
203.964	284.08
204.433	286.42
204.902	288.76
205.37	340.26
205.839	337.91
206.307	270.04
206.776	307.49
207.244	286.42
207.712	344.94
208.181	333.23
208.649	291.1
209.117	333.23
209.585	377.7
210.053	286.42
210.521	302.81
210.989	305.15
211.457	270.04
211.925	251.32
212.393	321.53
212.861	251.32
213.328	326.21
213.796	309.83
214.264	253.66
214.731	279.4
215.199	263.02
215.666	272.38
216.133	258.34
216.601	309.83
217.068	408.13
217.535	277.06
218.003	253.66
218.47	293.44
218.937	277.06
219.404	293.44
219.871	288.76
220.338	230.25
220.805	260.68
221.271	223.23
221.738	284.08
222.205	286.42
222.671	241.95
223.138	272.38
223.605	281.74
224.071	312.17
224.538	279.4
225.004	225.57
225.47	281.74
225.937	309.83
226.403	302.81
226.869	263.02
227.335	267.7
227.801	300.47
228.267	263.02
228.733	326.21
229.199	281.74
229.665	265.36
230.131	258.34
230.597	263.02
231.062	314.51
231.528	225.57
231.994	213.87
232.459	265.36
232.925	225.57
233.39	293.44
233.856	323.87
234.321	277.06
234.786	391.75
235.252	300.47
235.717	284.08
236.182	326.21
236.647	227.91
237.112	188.12
237.577	258.34
238.042	293.44
238.507	272.38
238.972	284.08
239.436	263.02
239.901	199.82
240.366	340.26
240.83	328.55
241.295	241.95
241.76	333.23
242.224	241.95
242.688	354.3
243.153	328.55
243.617	295.79
244.081	307.49
244.545	258.34
245.01	277.06
245.474	248.97
245.938	288.76
246.402	263.02
246.866	284.08
247.33	302.81
247.793	274.72
248.257	309.83
248.721	291.1
249.185	316.85
249.648	312.17
250.112	237.27
250.575	263.02
251.039	347.28
251.502	277.06
251.965	288.76
252.429	241.95
252.892	253.66
253.355	323.87
253.818	340.26
254.281	347.28
254.744	305.15
255.207	347.28
255.67	265.36
256.133	349.62
256.596	295.79
257.059	270.04
257.522	305.15
257.984	293.44
258.447	349.62
258.909	256
259.372	323.87
259.834	340.26
260.297	265.36
260.759	288.76
261.221	312.17
261.684	307.49
262.146	316.85
262.608	307.49
263.07	295.79
263.532	302.81
263.994	286.42
264.456	272.38
264.918	337.91
265.38	330.89
265.842	293.44
266.303	307.49
266.765	361.32
267.227	230.25
267.688	251.32
268.15	344.94
268.611	286.42
269.072	241.95
269.534	232.59
269.995	328.55
270.456	309.83
270.918	340.26
271.379	272.38
271.84	258.34
272.301	300.47
272.762	323.87
273.223	330.89
273.684	239.61
274.144	293.44
274.605	323.87
275.066	302.81
275.527	279.4
275.987	284.08
276.448	288.76
276.908	307.49
277.369	241.95
277.829	291.1
278.289	330.89
278.75	281.74
279.21	291.1
279.67	309.83
280.13	277.06
280.59	326.21
281.05	211.53
281.51	328.55
281.97	258.34
282.43	274.72
282.89	295.79
283.35	373.02
283.809	286.42
284.269	270.04
284.729	279.4
285.188	344.94
285.648	267.7
286.107	270.04
286.567	314.51
287.026	319.19
287.485	333.23
287.944	326.21
288.404	239.61
288.863	307.49
289.322	309.83
289.781	302.81
290.24	333.23
290.699	354.3
291.158	305.15
291.616	314.51
292.075	330.89
292.534	307.49
292.992	314.51
293.451	237.27
293.91	232.59
294.368	265.36
294.827	337.91
295.285	340.26
295.743	284.08
296.202	328.55
296.66	368.34
297.118	286.42
297.576	265.36
298.034	265.36
298.492	258.34
298.95	340.26
299.408	270.04
299.866	316.85
300.324	256
300.781	344.94
301.239	344.94
301.697	291.1
302.154	295.79
302.612	274.72
303.069	300.47
303.527	319.19
303.984	337.91
304.441	288.76
304.899	340.26
305.356	323.87
305.813	347.28
306.27	328.55
306.727	309.83
307.184	373.02
307.641	312.17
308.098	263.02
308.555	300.47
309.012	272.38
309.468	277.06
309.925	321.53
310.382	300.47
310.838	328.55
311.295	253.66
311.751	358.98
312.208	284.08
312.664	361.32
313.12	272.38
313.577	323.87
314.033	274.72
314.489	270.04
314.945	293.44
315.401	314.51
315.857	363.66
316.313	340.26
316.769	286.42
317.225	326.21
317.681	349.62
318.136	319.19
318.592	279.4
319.048	293.44
319.503	277.06
319.959	293.44
320.414	319.19
320.869	267.7
321.325	396.43
321.78	312.17
322.235	265.36
322.691	220.89
323.146	284.08
323.601	270.04
324.056	335.57
324.511	307.49
324.966	326.21
325.421	391.75
325.875	337.91
326.33	309.83
326.785	366
327.24	300.47
327.694	291.1
328.149	351.96
328.603	300.47
329.058	272.38
329.512	333.23
329.966	389.41
330.421	330.89
330.875	328.55
331.329	272.38
331.783	274.72
332.237	288.76
332.691	335.57
333.145	300.47
333.599	333.23
334.053	312.17
334.507	333.23
334.96	319.19
335.414	291.1
335.868	354.3
336.321	279.4
336.775	288.76
337.228	300.47
337.682	337.91
338.135	305.15
338.588	309.83
339.042	319.19
339.495	291.1
339.948	314.51
340.401	284.08
340.854	323.87
341.307	389.41
341.76	347.28
342.213	335.57
342.666	373.02
343.119	396.43
343.571	302.81
344.024	361.32
344.477	286.42
344.929	286.42
345.382	274.72
345.834	330.89
346.287	260.68
346.739	335.57
347.191	326.21
347.644	363.66
348.096	321.53
348.548	281.74
349	300.47
349.452	248.97
349.904	295.79
350.356	377.7
350.808	305.15
351.26	309.83
351.711	284.08
352.163	284.08
352.615	358.98
353.066	321.53
353.518	314.51
353.969	377.7
354.421	288.76
354.872	270.04
355.324	326.21
355.775	335.57
356.226	293.44
356.677	323.87
357.128	305.15
357.579	309.83
358.03	295.79
358.481	344.94
358.932	279.4
359.383	335.57
359.834	351.96
360.285	284.08
360.735	272.38
361.186	333.23
361.637	272.38
362.087	326.21
362.538	302.81
362.988	375.36
363.438	363.66
363.889	281.74
364.339	286.42
364.789	293.44
365.239	295.79
365.689	347.28
366.139	342.6
366.589	293.44
367.039	246.63
367.489	284.08
367.939	281.74
368.389	358.98
368.839	298.13
369.288	284.08
369.738	358.98
370.187	342.6
370.637	344.94
371.086	300.47
371.536	293.44
371.985	279.4
372.434	279.4
372.884	300.47
373.333	347.28
373.782	302.81
374.231	314.51
374.68	398.77
375.129	380.04
375.578	295.79
376.027	298.13
376.475	363.66
376.924	340.26
377.373	382.39
377.822	358.98
378.27	328.55
378.719	314.51
379.167	312.17
379.616	375.36
380.064	302.81
380.512	323.87
380.961	265.36
381.409	307.49
381.857	319.19
382.305	307.49
382.753	340.26
383.201	307.49
383.649	286.42
384.097	380.04
384.545	295.79
384.992	373.02
385.44	309.83
385.888	274.72
386.335	330.89
386.783	335.57
387.231	291.1
387.678	361.32
388.125	330.89
388.573	368.34
389.02	337.91
389.467	328.55
389.914	335.57
390.362	335.57
390.809	256
391.256	314.51
391.703	361.32
392.15	305.15
392.596	295.79
393.043	298.13
393.49	293.44
393.937	279.4
394.383	368.34
394.83	312.17
395.276	314.51
395.723	298.13
396.169	342.6
396.616	335.57
397.062	312.17
397.508	335.57
397.954	314.51
398.401	330.89
398.847	323.87
399.293	321.53
399.739	333.23
400.185	335.57
400.631	349.62
401.076	358.98
401.522	293.44
401.968	288.76
402.414	272.38
402.859	330.89
403.305	344.94
403.75	321.53
404.196	342.6
404.641	356.64
405.086	321.53
405.532	351.96
405.977	279.4
406.422	312.17
406.867	333.23
407.312	387.07
407.757	321.53
408.202	366
408.647	368.34
409.092	373.02
409.537	344.94
409.982	377.7
410.426	375.36
410.871	335.57
411.316	351.96
411.76	370.68
412.205	358.98
412.649	394.09
413.093	309.83
413.538	293.44
413.982	419.83
414.426	335.57
414.87	356.64
415.314	366
415.758	363.66
416.202	366
416.646	375.36
417.09	333.23
417.534	337.91
417.978	342.6
418.421	319.19
418.865	361.32
419.309	307.49
419.752	366
420.196	391.75
420.639	366
421.083	326.21
421.526	351.96
421.969	305.15
422.412	333.23
422.856	333.23
423.299	375.36
423.742	373.02
424.185	335.57
424.628	396.43
425.071	391.75
425.513	366
425.956	337.91
426.399	337.91
426.842	349.62
427.284	309.83
427.727	342.6
428.169	314.51
428.612	370.68
429.054	405.79
429.497	394.09
429.939	443.24
430.381	457.28
430.823	373.02
431.265	433.88
431.707	417.49
432.149	415.15
432.591	459.62
433.033	361.32
433.475	405.79
433.917	396.43
434.359	518.14
434.8	525.16
435.242	541.54
435.684	499.41
436.125	578.99
436.567	443.24
437.008	478.35
437.449	436.22
437.891	457.28
438.332	529.84
438.773	485.37
439.214	483.03
439.656	494.73
440.097	501.75
440.538	447.92
440.978	534.52
441.419	490.05
441.86	557.93
442.301	480.69
442.742	459.62
443.182	534.52
443.623	471.33
444.063	466.64
444.504	499.41
444.944	483.03
445.385	506.43
445.825	532.18
446.265	520.48
446.706	536.86
447.146	527.5
447.586	529.84
448.026	529.84
448.466	508.77
448.906	536.86
449.346	546.22
449.786	499.41
450.225	490.05
450.665	504.09
451.105	541.54
451.544	452.6
451.984	508.77
452.424	471.33
452.863	548.56
453.302	468.98
453.742	476.01
454.181	461.96
454.62	485.37
455.059	466.64
455.499	501.75
455.938	459.62
456.377	415.15
456.816	333.23
457.254	459.62
457.693	466.64
458.132	506.43
458.571	504.09
459.01	457.28
459.448	440.9
459.887	450.26
460.325	473.67
460.764	436.22
461.202	356.64
461.641	464.3
462.079	454.94
462.517	438.56
462.955	433.88
463.393	389.41
463.832	410.47
464.27	373.02
464.708	366
465.145	429.2
465.583	401.11
466.021	426.86
466.459	450.26
466.897	394.09
467.334	361.32
467.772	370.68
468.209	391.75
468.647	422.17
469.084	403.45
469.522	354.3
469.959	340.26
470.396	323.87
470.833	394.09
471.271	412.81
471.708	375.36
472.145	419.83
472.582	382.39
473.019	440.9
473.456	309.83
473.892	389.41
474.329	361.32
474.766	394.09
475.202	375.36
475.639	361.32
476.076	382.39
476.512	438.56
476.949	403.45
477.385	389.41
477.821	410.47
478.258	370.68
478.694	398.77
479.13	412.81
479.566	349.62
480.002	361.32
480.438	438.56
480.874	387.07
481.31	389.41
481.746	457.28
482.181	429.2
482.617	366
483.053	382.39
483.488	415.15
483.924	389.41
484.36	356.64
484.795	473.67
485.23	478.35
485.666	419.83
486.101	476.01
486.536	473.67
486.971	490.05
487.407	440.9
487.842	483.03
488.277	422.17
488.712	457.28
489.146	494.73
489.581	459.62
490.016	485.37
490.451	450.26
490.885	487.71
491.32	478.35
491.755	464.3
492.189	436.22
492.624	459.62
493.058	464.3
493.492	454.94
493.927	466.64
494.361	429.2
494.795	436.22
495.229	419.83
495.663	415.15
496.097	464.3
496.531	483.03
496.965	447.92
497.399	403.45
497.833	405.79
498.266	419.83
498.7	471.33
499.134	403.45
499.567	403.45
500.001	419.83
500.434	403.45
500.868	344.94
501.301	380.04
501.734	389.41
502.168	337.91
502.601	375.36
503.034	375.36
503.467	466.64
503.9	424.51
504.333	412.81
504.766	394.09
505.199	408.13
505.632	375.36
506.064	443.24
506.497	445.58
506.93	380.04
507.362	363.66
507.795	422.17
508.227	387.07
508.66	471.33
509.092	429.2
509.524	342.6
509.956	412.81
510.389	410.47
510.821	424.51
511.253	445.58
511.685	466.64
512.117	454.94
512.549	389.41
512.981	410.47
513.412	452.6
513.844	478.35
514.276	466.64
514.707	476.01
515.139	450.26
515.571	396.43
516.002	422.17
516.433	436.22
516.865	417.49
517.296	539.2
517.727	438.56
518.159	464.3
518.59	494.73
519.021	391.75
519.452	396.43
519.883	431.54
520.314	363.66
520.744	511.11
521.175	534.52
521.606	447.92
522.037	412.81
522.467	450.26
522.898	429.2
523.328	473.67
523.759	431.54
524.189	361.32
524.62	366
525.05	436.22
525.48	447.92
525.91	370.68
526.341	476.01
526.771	464.3
527.201	415.15
527.631	440.9
528.061	452.6
528.49	412.81
528.92	429.2
529.35	419.83
529.78	403.45
530.209	457.28
530.639	431.54
531.068	403.45
531.498	436.22
531.927	478.35
532.357	403.45
532.786	408.13
533.215	459.62
533.644	480.69
534.074	436.22
534.503	483.03
534.932	424.51
535.361	445.58
535.79	405.79
536.218	433.88
536.647	522.82
537.076	457.28
537.505	466.64
537.933	452.6
538.362	485.37
538.79	389.41
539.219	534.52
539.647	515.8
540.076	466.64
540.504	637.5
540.932	621.12
541.36	674.95
541.788	646.87
542.217	777.94
542.645	721.76
543.073	686.65
543.5	731.12
543.928	707.72
544.356	749.85
544.784	740.49
545.211	691.34
545.639	740.49
546.067	696.02
546.494	660.91
546.922	557.93
547.349	632.82
547.776	656.23
548.204	508.77
548.631	527.5
549.058	541.54
549.485	433.88
549.912	497.07
550.339	471.33
550.766	560.27
551.193	487.71
551.62	536.86
552.047	384.73
552.474	555.58
552.9	515.8
553.327	408.13
553.754	461.96
554.18	459.62
554.607	433.88
555.033	459.62
555.459	415.15
555.886	461.96
556.312	454.94
556.738	382.39
557.164	473.67
557.59	485.37
558.016	457.28
558.442	494.73
558.868	431.54
559.294	443.24
559.72	464.3
560.145	445.58
560.571	478.35
560.997	440.9
561.422	391.75
561.848	405.79
562.273	387.07
562.699	445.58
563.124	450.26
563.549	487.71
563.974	410.47
564.4	471.33
564.825	415.15
565.25	422.17
565.675	389.41
566.1	417.49
566.525	485.37
566.95	396.43
567.374	375.36
567.799	415.15
568.224	457.28
568.648	398.77
569.073	396.43
569.497	473.67
569.922	396.43
570.346	454.94
570.771	377.7
571.195	424.51
571.619	396.43
572.043	452.6
572.467	340.26
572.891	433.88
573.315	433.88
573.739	415.15
574.163	405.79
574.587	457.28
575.011	382.39
575.435	401.11
575.858	401.11
576.282	438.56
576.705	445.58
577.129	408.13
577.552	492.39
577.976	483.03
578.399	459.62
578.822	461.96
579.245	504.09
579.669	391.75
580.092	382.39
580.515	525.16
580.938	513.46
581.361	497.07
581.784	394.09
582.206	412.81
582.629	440.9
583.052	459.62
583.474	412.81
583.897	454.94
584.32	483.03
584.742	464.3
585.165	412.81
585.587	468.98
586.009	499.41
586.431	518.14
586.854	461.96
587.276	431.54
587.698	464.3
588.12	419.83
588.542	508.77
588.964	466.64
589.386	483.03
589.807	438.56
590.229	478.35
590.651	485.37
591.073	468.98
591.494	429.2
591.916	478.35
592.337	422.17
592.759	497.07
593.18	436.22
593.601	436.22
594.022	464.3
594.444	380.04
594.865	398.77
595.286	373.02
595.707	387.07
596.128	433.88
596.549	387.07
596.97	429.2
597.39	398.77
597.811	443.24
598.232	443.24
598.652	415.15
599.073	417.49
599.494	382.39
599.914	387.07
600.334	438.56
600.755	354.3
601.175	410.47
601.595	403.45
602.015	457.28
602.436	445.58
602.856	567.29
603.276	436.22
603.696	450.26
604.115	384.73
604.535	415.15
604.955	410.47
605.375	410.47
605.794	370.68
606.214	417.49
606.634	419.83
607.053	450.26
607.473	492.39
607.892	391.75
608.311	391.75
608.731	492.39
609.15	525.16
609.569	536.86
609.988	618.78
610.407	735.81
610.826	859.85
611.245	806.02
611.664	761.55
612.083	726.44
612.501	714.74
612.92	660.91
613.339	576.65
613.757	588.35
614.176	541.54
614.594	476.01
615.013	485.37
615.431	490.05
615.85	440.9
616.268	464.3
616.686	468.98
617.104	468.98
617.522	391.75
617.94	431.54
618.358	447.92
618.776	426.86
619.194	351.96
619.612	473.67
620.03	370.68
620.447	450.26
620.865	447.92
621.282	415.15
621.7	490.05
622.117	391.75
622.535	431.54
622.952	323.87
623.369	461.96
623.787	387.07
624.204	384.73
624.621	417.49
625.038	401.11
625.455	433.88
625.872	377.7
626.289	384.73
626.706	415.15
627.123	394.09
627.539	363.66
627.956	312.17
628.373	361.32
628.789	433.88
629.206	375.36
629.622	408.13
630.038	368.34
630.455	382.39
630.871	349.62
631.287	337.91
631.703	396.43
632.12	326.21
632.536	417.49
632.952	377.7
633.368	398.77
633.783	307.49
634.199	323.87
634.615	415.15
635.031	419.83
635.446	373.02
635.862	384.73
636.277	302.81
636.693	373.02
637.108	281.74
637.524	398.77
637.939	408.13
638.354	387.07
638.77	337.91
639.185	309.83
639.6	344.94
640.015	410.47
640.43	377.7
640.845	314.51
641.259	380.04
641.674	295.79
642.089	366
642.504	330.89
642.918	368.34
643.333	382.39
643.747	335.57
644.162	394.09
644.576	387.07
644.991	358.98
645.405	361.32
645.819	291.1
646.233	337.91
646.647	391.75
647.061	330.89
647.475	377.7
647.889	389.41
648.303	305.15
648.717	323.87
649.131	363.66
649.545	387.07
649.958	377.7
650.372	405.79
650.785	316.85
651.199	305.15
651.612	391.75
652.026	354.3
652.439	363.66
652.852	305.15
653.266	349.62
653.679	333.23
654.092	370.68
654.505	389.41
654.918	321.53
655.331	293.44
655.744	387.07
656.156	358.98
656.569	340.26
656.982	284.08
657.394	326.21
657.807	335.57
658.22	349.62
658.632	363.66
659.044	316.85
659.457	323.87
659.869	351.96
660.281	401.11
660.693	248.97
661.106	403.45
661.518	340.26
661.93	265.36
662.342	351.96
662.754	377.7
663.165	356.64
663.577	391.75
663.989	363.66
664.401	279.4
664.812	298.13
665.224	319.19
665.635	356.64
666.047	394.09
666.458	370.68
666.869	323.87
667.281	394.09
667.692	328.55
668.103	272.38
668.514	354.3
668.925	349.62
669.336	347.28
669.747	366
670.158	351.96
670.569	342.6
670.979	363.66
671.39	370.68
671.801	300.47
672.211	358.98
672.622	368.34
673.032	323.87
673.443	363.66
673.853	347.28
674.263	354.3
674.674	344.94
675.084	373.02
675.494	361.32
675.904	408.13
676.314	366
676.724	314.51
677.134	323.87
677.544	344.94
677.953	284.08
678.363	328.55
678.773	419.83
679.182	335.57
679.592	370.68
680.001	363.66
680.411	337.91
680.82	314.51
681.23	351.96
681.639	373.02
682.048	351.96
682.457	305.15
682.866	330.89
683.275	312.17
683.684	384.73
684.093	288.76
684.502	321.53
684.911	312.17
685.32	373.02
685.728	291.1
686.137	309.83
686.546	391.75
686.954	335.57
687.363	286.42
687.771	412.81
688.179	333.23
688.588	361.32
688.996	328.55
689.404	354.3
689.812	291.1
690.22	293.44
690.628	354.3
691.036	244.29
691.444	272.38
691.852	314.51
692.26	298.13
692.667	333.23
693.075	351.96
693.483	375.36
693.89	340.26
694.298	319.19
694.705	312.17
695.112	377.7
695.52	300.47
695.927	401.11
696.334	323.87
696.741	316.85
697.148	312.17
697.555	337.91
697.962	272.38
698.369	321.53
698.776	323.87
699.183	349.62
699.59	309.83
699.996	394.09
700.403	330.89
700.81	330.89
701.216	335.57
701.623	305.15
702.029	337.91
702.435	335.57
702.842	354.3
703.248	361.32
703.654	302.81
704.06	328.55
704.466	347.28
704.872	389.41
705.278	382.39
705.684	382.39
706.09	342.6
706.496	351.96
706.901	354.3
707.307	328.55
707.712	314.51
708.118	321.53
708.523	405.79
708.929	370.68
709.334	347.28
709.74	330.89
710.145	288.76
710.55	288.76
710.955	274.72
711.36	347.28
711.765	340.26
712.17	370.68
712.575	351.96
712.98	953.48
713.385	370.68
713.789	326.21
714.194	279.4
714.599	335.57
715.003	328.55
715.408	302.81
715.812	281.74
716.217	277.06
716.621	272.38
717.025	314.51
717.429	358.98
717.833	384.73
718.238	284.08
718.642	281.74
719.046	284.08
719.449	363.66
719.853	319.19
720.257	307.49
720.661	295.79
721.065	344.94
721.468	342.6
721.872	342.6
722.275	291.1
722.679	284.08
723.082	337.91
723.485	321.53
723.889	344.94
724.292	333.23
724.695	354.3
725.098	408.13
725.501	302.81
725.904	342.6
726.307	335.57
726.71	281.74
727.113	382.39
727.516	312.17
727.918	349.62
728.321	380.04
728.724	328.55
729.126	305.15
729.529	312.17
729.931	307.49
730.333	312.17
730.736	328.55
731.138	316.85
731.54	382.39
731.942	323.87
732.344	340.26
732.746	323.87
733.148	286.42
733.55	295.79
733.952	349.62
734.354	288.76
734.756	321.53
735.157	368.34
735.559	321.53
735.96	330.89
736.362	351.96
736.763	312.17
737.165	321.53
737.566	340.26
737.967	288.76
738.368	298.13
738.77	391.75
739.171	326.21
739.572	293.44
739.973	384.73
740.374	361.32
740.774	277.06
741.175	361.32
741.576	274.72
741.977	309.83
742.377	316.85
742.778	270.04
743.178	368.34
743.579	354.3
743.979	328.55
744.379	389.41
744.78	319.19
745.18	344.94
745.58	337.91
745.98	272.38
746.38	326.21
746.78	323.87
747.18	286.42
747.58	267.7
747.98	309.83
748.38	323.87
748.779	363.66
749.179	312.17
749.578	270.04
749.978	314.51
750.377	316.85
750.777	342.6
751.176	302.81
751.575	286.42
751.975	340.26
752.374	337.91
752.773	326.21
753.172	326.21
753.571	326.21
753.97	391.75
754.369	305.15
754.768	319.19
755.166	281.74
755.565	323.87
755.964	286.42
756.362	349.62
756.761	323.87
757.159	309.83
757.558	349.62
757.956	274.72
758.354	330.89
758.753	330.89
759.151	286.42
759.549	349.62
759.947	326.21
760.345	284.08
760.743	382.39
761.141	387.07
761.539	321.53
761.936	380.04
762.334	316.85
762.732	272.38
763.129	312.17
763.527	401.11
763.924	279.4
764.322	309.83
764.719	323.87
765.117	330.89
765.514	347.28
765.911	323.87
766.308	328.55
766.705	316.85
767.102	321.53
767.499	375.36
767.896	326.21
768.293	291.1
768.69	351.96
769.086	279.4
769.483	305.15
769.88	323.87
770.276	319.19
770.673	340.26
771.069	314.51
771.466	358.98
771.862	326.21
772.258	394.09
772.654	382.39
773.05	312.17
773.447	358.98
773.843	342.6
774.239	309.83
774.634	309.83
775.03	349.62
775.426	335.57
775.822	316.85
776.218	347.28
776.613	300.47
777.009	302.81
777.404	314.51
777.8	319.19
778.195	314.51
778.59	244.29
778.986	270.04
779.381	326.21
779.776	356.64
780.171	321.53
780.566	295.79
780.961	323.87
781.356	351.96
781.751	342.6
782.146	256
782.54	330.89
782.935	302.81
783.33	274.72
783.724	260.68
784.119	232.59
784.513	279.4
784.908	302.81
785.302	316.85
785.696	342.6
786.09	361.32
786.485	309.83
786.879	270.04
787.273	305.15
787.667	298.13
788.061	358.98
788.454	366
788.848	314.51
789.242	330.89
789.636	314.51
790.029	298.13
790.423	384.73
790.816	354.3
791.21	260.68
791.603	344.94
791.997	300.47
792.39	389.41
792.783	305.15
793.176	333.23
793.569	305.15
793.962	366
794.355	349.62
794.748	307.49
795.141	298.13
795.534	340.26
795.927	375.36
796.319	363.66
796.712	314.51
797.105	305.15
797.497	330.89
797.89	347.28
798.282	277.06
798.674	284.08
799.067	321.53
799.459	312.17
799.851	328.55
800.243	354.3
800.635	335.57
801.027	312.17
801.419	246.63
801.811	295.79
802.203	356.64
802.594	323.87
802.986	382.39
803.378	293.44
803.769	316.85
804.161	347.28
804.552	251.32
804.944	263.02
805.335	232.59
805.726	333.23
806.118	295.79
806.509	295.79
806.9	328.55
807.291	375.36
807.682	321.53
808.073	335.57
808.464	330.89
808.855	342.6
809.245	370.68
809.636	330.89
810.027	314.51
810.417	312.17
810.808	330.89
811.198	354.3
811.589	330.89
811.979	330.89
812.369	237.27
812.759	326.21
813.15	351.96
813.54	354.3
813.93	307.49
814.32	293.44
814.71	342.6
815.1	321.53
815.489	305.15
815.879	333.23
816.269	344.94
816.658	335.57
817.048	312.17
817.438	316.85
817.827	330.89
818.216	328.55
818.606	384.73
818.995	335.57
819.384	366
819.773	330.89
820.163	412.81
820.552	291.1
820.941	267.7
821.33	370.68
821.718	288.76
822.107	323.87
822.496	300.47
822.885	316.85
823.273	293.44
823.662	305.15
824.05	260.68
824.439	291.1
824.827	286.42
825.216	358.98
825.604	335.57
825.992	309.83
826.38	314.51
826.768	321.53
827.156	316.85
827.544	380.04
827.932	337.91
828.32	246.63
828.708	298.13
829.096	384.73
829.483	382.39
829.871	333.23
830.259	241.95
830.646	319.19
831.034	295.79
831.421	309.83
831.808	326.21
832.196	314.51
832.583	319.19
832.97	284.08
833.357	291.1
833.744	380.04
834.131	279.4
834.518	295.79
834.905	307.49
835.292	258.34
835.678	354.3
836.065	328.55
836.452	312.17
836.838	370.68
837.225	274.72
837.611	263.02
837.998	323.87
838.384	227.91
838.77	344.94
839.157	307.49
839.543	347.28
839.929	316.85
840.315	391.75
840.701	337.91
841.087	337.91
841.473	286.42
841.858	333.23
842.244	342.6
842.63	295.79
843.015	351.96
843.401	696.02
843.787	349.62
844.172	321.53
844.557	326.21
844.943	279.4
845.328	293.44
845.713	284.08
846.098	302.81
846.483	291.1
846.868	272.38
847.253	382.39
847.638	405.79
848.023	274.72
848.408	337.91
848.793	263.02
849.177	347.28
849.562	401.11
849.947	302.81
850.331	351.96
850.715	361.32
851.1	366
851.484	319.19
851.868	288.76
852.253	307.49
852.637	298.13
853.021	267.7
853.405	286.42
853.789	309.83
854.173	361.32
854.557	295.79
854.94	293.44
855.324	349.62
855.708	333.23
856.091	284.08
856.475	377.7
856.858	326.21
857.242	349.62
857.625	302.81
858.009	335.57
858.392	358.98
858.775	305.15
859.158	274.72
859.541	302.81
859.924	342.6
860.307	340.26
860.69	354.3
861.073	316.85
861.456	293.44
861.838	274.72
862.221	241.95
862.604	319.19
862.986	253.66
863.369	265.36
863.751	326.21
864.133	347.28
864.516	337.91
864.898	272.38
865.28	405.79
865.662	347.28
866.044	300.47
866.426	309.83
866.808	347.28
867.19	288.76
867.572	370.68
867.954	328.55
868.336	328.55
868.717	300.47
869.099	286.42
869.48	293.44
869.862	375.36
870.243	323.87
870.625	337.91
871.006	274.72
871.387	321.53
871.768	323.87
872.149	288.76
872.53	337.91
872.911	330.89
873.292	270.04
873.673	274.72
874.054	337.91
874.435	319.19
874.815	321.53
875.196	291.1
875.577	326.21
875.957	305.15
876.338	281.74
876.718	344.94
877.098	295.79
877.479	351.96
877.859	368.34
878.239	197.48
878.619	328.55
878.999	302.81
879.379	302.81
879.759	344.94
880.139	323.87
880.519	389.41
880.898	293.44
881.278	344.94
881.658	375.36
882.037	330.89
882.417	265.36
882.796	316.85
883.176	347.28
883.555	337.91
883.934	316.85
884.313	363.66
884.693	319.19
885.072	328.55
885.451	375.36
885.83	333.23
886.209	342.6
886.587	351.96
886.966	314.51
887.345	366
887.724	321.53
888.102	288.76
888.481	279.4
888.859	251.32
889.238	323.87
889.616	368.34
889.994	333.23
890.373	328.55
890.751	286.42
891.129	307.49
891.507	284.08
891.885	321.53
892.263	234.93
892.641	335.57
893.019	309.83
893.396	298.13
893.774	354.3
894.152	277.06
894.529	295.79
894.907	398.77
895.284	309.83
895.662	295.79
896.039	298.13
896.416	274.72
896.794	307.49
897.171	277.06
897.548	246.63
897.925	333.23
898.302	302.81
898.679	239.61
899.056	326.21
899.433	302.81
899.809	340.26
900.186	326.21
900.563	344.94
900.939	323.87
901.316	340.26
901.692	373.02
902.069	337.91
902.445	333.23
902.821	302.81
903.197	358.98
903.574	286.42
903.95	225.57
904.326	312.17
904.702	321.53
905.078	227.91
905.454	293.44
905.829	272.38
906.205	293.44
906.581	326.21
906.956	223.23
907.332	358.98
907.707	263.02
908.083	270.04
908.458	319.19
908.833	295.79
909.209	298.13
909.584	342.6
909.959	281.74
910.334	305.15
910.709	307.49
911.084	314.51
911.459	330.89
911.834	356.64
912.209	330.89
912.583	328.55
912.958	335.57
913.333	246.63
913.707	309.83
914.082	340.26
914.456	366
914.83	295.79
915.205	363.66
915.579	319.19
915.953	326.21
916.327	253.66
916.701	368.34
917.075	314.51
917.449	291.1
917.823	323.87
918.197	323.87
918.571	330.89
918.944	340.26
919.318	333.23
919.692	279.4
920.065	344.94
920.438	335.57
920.812	256
921.185	270.04
921.558	328.55
921.932	328.55
922.305	277.06
922.678	293.44
923.051	305.15
923.424	323.87
923.797	300.47
924.17	349.62
924.542	279.4
924.915	302.81
925.288	302.81
925.661	263.02
926.033	288.76
926.406	337.91
926.778	265.36
927.15	354.3
927.523	272.38
927.895	323.87
928.267	323.87
928.639	377.7
929.011	286.42
929.383	328.55
929.755	307.49
930.127	321.53
930.499	340.26
930.871	330.89
931.242	258.34
931.614	309.83
931.986	284.08
932.357	232.59
932.729	256
933.1	349.62
933.471	347.28
933.843	279.4
934.214	314.51
934.585	349.62
934.956	246.63
935.327	319.19
935.698	263.02
936.069	232.59
936.44	340.26
936.811	349.62
937.182	300.47
937.552	258.34
937.923	314.51
938.293	288.76
938.664	302.81
939.034	323.87
939.405	354.3
939.775	293.44
940.145	272.38
940.516	330.89
940.886	330.89
941.256	291.1
941.626	373.02
941.996	389.41
942.366	382.39
942.735	321.53
943.105	295.79
943.475	333.23
943.845	302.81
944.214	258.34
944.584	284.08
944.953	349.62
945.323	354.3
945.692	298.13
946.061	373.02
946.43	391.75
946.8	373.02
947.169	309.83
947.538	263.02
947.907	319.19
948.276	351.96
948.645	323.87
949.013	319.19
949.382	328.55
949.751	314.51
950.119	344.94
950.488	335.57
950.857	258.34
951.225	291.1
951.593	246.63
951.962	263.02
952.33	328.55
952.698	307.49
953.066	328.55
953.434	293.44
953.802	380.04
954.17	295.79
954.538	309.83
954.906	300.47
955.274	316.85
955.642	335.57
956.009	335.57
956.377	277.06
956.744	351.96
957.112	300.47
957.479	408.13
957.847	309.83
958.214	335.57
958.581	288.76
958.948	281.74
959.315	288.76
959.683	342.6
960.05	342.6
960.416	347.28
960.783	295.79
961.15	347.28
961.517	368.34
961.884	358.98
962.25	370.68
962.617	321.53
962.983	361.32
963.35	293.44
963.716	279.4
964.082	307.49
964.449	302.81
964.815	293.44
965.181	335.57
965.547	328.55
965.913	333.23
966.279	288.76
966.645	284.08
967.011	300.47
967.377	309.83
967.742	349.62
968.108	333.23
968.474	344.94
968.839	366
969.205	342.6
969.57	330.89
969.935	344.94
970.301	323.87
970.666	300.47
971.031	354.3
971.396	335.57
971.761	314.51
972.126	330.89
972.491	309.83
972.856	314.51
973.221	309.83
973.586	302.81
973.95	251.32
974.315	328.55
974.679	349.62
975.044	333.23
975.408	326.21
975.773	328.55
976.137	305.15
976.501	279.4
976.866	284.08
977.23	328.55
977.594	351.96
977.958	401.11
978.322	356.64
978.686	293.44
979.049	281.74
979.413	293.44
979.777	361.32
980.141	323.87
980.504	279.4
980.868	384.73
981.231	302.81
981.595	377.7
981.958	358.98
982.321	366
982.684	337.91
983.048	302.81
983.411	279.4
983.774	293.44
984.137	263.02
984.5	291.1
984.862	302.81
985.225	342.6
985.588	340.26
985.951	267.7
986.313	309.83
986.676	354.3
987.038	298.13
987.401	293.44
987.763	232.59
988.125	314.51
988.488	314.51
988.85	277.06
989.212	279.4
989.574	323.87
989.936	265.36
990.298	312.17
990.66	396.43
991.022	337.91
991.383	373.02
991.745	330.89
992.107	358.98
992.468	307.49
992.83	337.91
993.191	370.68
993.553	330.89
993.914	326.21
994.275	286.42
994.637	305.15
994.998	284.08
995.359	312.17
995.72	291.1
996.081	265.36
996.442	326.21
996.803	284.08
997.163	349.62
997.524	347.28
997.885	279.4
998.245	351.96
998.606	288.76
998.966	293.44
999.327	314.51
999.687	328.55
1000.047	293.44
1000.408	366
1000.768	284.08
1001.128	260.68
1001.488	286.42
1001.848	307.49
1002.208	319.19
1002.568	270.04
1002.927	305.15
1003.287	279.4
1003.647	333.23
1004.007	328.55
1004.366	258.34
1004.726	312.17
1005.085	272.38
1005.444	279.4
1005.804	248.97
1006.163	298.13
1006.522	298.13
1006.881	342.6
1007.24	356.64
1007.599	316.85
1007.958	347.28
1008.317	305.15
1008.676	302.81
1009.035	333.23
1009.393	323.87
1009.752	277.06
1010.111	288.76
1010.469	265.36
1010.828	312.17
1011.186	288.76
1011.544	293.44
1011.903	295.79
1012.261	321.53
1012.619	316.85
1012.977	356.64
1013.335	293.44
1013.693	298.13
1014.051	326.21
1014.409	347.28
1014.767	272.38
1015.124	270.04
1015.482	356.64
1015.84	333.23
1016.197	333.23
1016.555	286.42
1016.912	248.97
1017.269	281.74
1017.627	316.85
1017.984	368.34
1018.341	382.39
1018.698	326.21
1019.055	337.91
1019.412	347.28
1019.769	298.13
1020.126	286.42
1020.483	305.15
1020.84	314.51
1021.196	356.64
1021.553	253.66
1021.909	260.68
1022.266	312.17
1022.622	270.04
1022.979	328.55
1023.335	394.09
1023.691	295.79
1024.047	368.34
1024.404	351.96
1024.76	319.19
1025.116	342.6
1025.472	293.44
1025.827	335.57
1026.183	335.57
1026.539	384.73
1026.895	321.53
1027.25	316.85
1027.606	356.64
1027.961	323.87
1028.317	370.68
1028.672	349.62
1029.028	333.23
1029.383	305.15
1029.738	302.81
1030.093	265.36
1030.448	298.13
1030.803	307.49
1031.158	340.26
1031.513	284.08
1031.868	256
1032.223	323.87
1032.577	305.15
1032.932	298.13
1033.287	363.66
1033.641	326.21
1033.996	330.89
1034.35	358.98
1034.704	248.97
1035.059	337.91
1035.413	309.83
1035.767	309.83
1036.121	309.83
