Data from Al_FLMS009871__325__12-25-46-139.txt Node

Date: Fri Mar 08 12:25:46 CST 2024
User: pe5414po
Spectrometer: FLMS00987
Trigger mode: 0
Integration Time (sec): 1.000000E-1
Scans to average: 1
Electric dark correction enabled: true
Nonlinearity correction enabled: false
Boxcar width: 0
XAxis mode: Wavelengths
Number of Pixels in Spectrum: 2048
>>>>>Begin Spectral Data<<<<<
188.938	-82.21
189.409	-82.21
189.879	-82.21
190.349	-70.51
190.819	-82.21
191.29	-58.81
191.76	-72.85
192.23	-42.42
192.7	-133.7
193.17	-86.89
193.64	-75.19
194.109	-12
194.579	-26.04
195.049	9.07
195.519	23.11
195.988	-19.02
196.458	98.01
196.927	95.67
197.397	93.33
197.866	109.71
198.336	98.01
198.805	114.39
199.274	133.12
199.744	257.17
200.213	210.36
200.682	268.87
201.151	296.96
201.62	212.7
202.089	231.42
202.558	250.14
203.027	289.93
203.495	266.53
203.964	275.89
204.433	252.49
204.902	247.8
205.37	261.85
205.839	320.36
206.307	292.27
206.776	313.34
207.244	287.59
207.712	280.57
208.181	292.27
208.649	315.68
209.117	301.64
209.585	332.06
210.053	318.02
210.521	381.21
210.989	294.61
211.457	245.46
211.925	311
212.393	243.12
212.861	271.21
213.328	278.23
213.796	282.91
214.264	301.64
214.731	318.02
215.199	261.85
215.666	266.53
216.133	292.27
216.601	268.87
217.068	238.44
217.535	332.06
218.003	301.64
218.47	250.14
218.937	233.76
219.404	273.55
219.871	315.68
220.338	315.68
220.805	303.98
221.271	289.93
221.738	292.27
222.205	229.08
222.671	163.54
223.138	236.1
223.605	229.08
224.071	236.1
224.538	282.91
225.004	278.23
225.47	273.55
225.937	296.96
226.403	301.64
226.869	222.06
227.335	271.21
227.801	268.87
228.267	341.43
228.733	273.55
229.199	238.44
229.665	280.57
230.131	252.49
230.597	250.14
231.062	259.51
231.528	278.23
231.994	266.53
232.459	233.76
232.925	266.53
233.39	271.21
233.856	299.3
234.321	250.14
234.786	280.57
235.252	264.19
235.717	280.57
236.182	332.06
236.647	266.53
237.112	322.7
237.577	278.23
238.042	229.08
238.507	282.91
238.972	339.09
239.436	339.09
239.901	341.43
240.366	311
240.83	282.91
241.295	353.13
241.76	287.59
242.224	292.27
242.688	353.13
243.153	273.55
243.617	275.89
244.081	271.21
244.545	282.91
245.01	252.49
245.474	273.55
245.938	296.96
246.402	303.98
246.866	287.59
247.33	378.87
247.793	311
248.257	280.57
248.721	268.87
249.185	285.25
249.648	343.77
250.112	287.59
250.575	346.11
251.039	299.3
251.502	339.09
251.965	322.7
252.429	261.85
252.892	327.38
253.355	275.89
253.818	306.32
254.281	268.87
254.744	336.74
255.207	313.34
255.67	301.64
256.133	294.61
256.596	313.34
257.059	360.15
257.522	320.36
257.984	240.78
258.447	287.59
258.909	339.09
259.372	278.23
259.834	306.32
260.297	271.21
260.759	322.7
261.221	343.77
261.684	294.61
262.146	322.7
262.608	318.02
263.07	329.72
263.532	271.21
263.994	287.59
264.456	306.32
264.918	332.06
265.38	245.46
265.842	294.61
266.303	322.7
266.765	261.85
267.227	296.96
267.688	259.51
268.15	245.46
268.611	273.55
269.072	271.21
269.534	280.57
269.995	252.49
270.456	301.64
270.918	301.64
271.379	383.56
271.84	285.25
272.301	327.38
272.762	203.33
273.223	306.32
273.684	322.7
274.144	315.68
274.605	294.61
275.066	322.7
275.527	247.8
275.987	367.17
276.448	355.47
276.908	264.19
277.369	264.19
277.829	348.45
278.289	273.55
278.75	332.06
279.21	306.32
279.67	282.91
280.13	292.27
280.59	273.55
281.05	311
281.51	318.02
281.97	343.77
282.43	301.64
282.89	315.68
283.35	273.55
283.809	294.61
284.269	346.11
284.729	320.36
285.188	308.66
285.648	348.45
286.107	268.87
286.567	294.61
287.026	315.68
287.485	271.21
287.944	282.91
288.404	299.3
288.863	325.04
289.322	275.89
289.781	355.47
290.24	250.14
290.699	257.17
291.158	318.02
291.616	301.64
292.075	238.44
292.534	374.19
292.992	325.04
293.451	388.24
293.91	296.96
294.368	343.77
294.827	346.11
295.285	294.61
295.743	273.55
296.202	303.98
296.66	247.8
297.118	322.7
297.576	343.77
298.034	325.04
298.492	315.68
298.95	250.14
299.408	296.96
299.866	289.93
300.324	308.66
300.781	374.19
301.239	364.83
301.697	369.51
302.154	289.93
302.612	308.66
303.069	322.7
303.527	318.02
303.984	287.59
304.441	346.11
304.899	275.89
305.356	357.81
305.813	294.61
306.27	397.6
306.727	318.02
307.184	334.4
307.641	301.64
308.098	329.72
308.555	282.91
309.012	252.49
309.468	299.3
309.925	306.32
310.382	362.49
310.838	268.87
311.295	271.21
311.751	360.15
312.208	261.85
312.664	318.02
313.12	271.21
313.577	289.93
314.033	287.59
314.489	360.15
314.945	360.15
315.401	285.25
315.857	350.79
316.313	327.38
316.769	282.91
317.225	301.64
317.681	296.96
318.136	264.19
318.592	332.06
319.048	329.72
319.503	254.83
319.959	257.17
320.414	268.87
320.869	259.51
321.325	325.04
321.78	329.72
322.235	334.4
322.691	383.56
323.146	332.06
323.601	308.66
324.056	250.14
324.511	341.43
324.966	350.79
325.421	329.72
325.875	289.93
326.33	332.06
326.785	325.04
327.24	353.13
327.694	362.49
328.149	308.66
328.603	381.21
329.058	322.7
329.512	364.83
329.966	289.93
330.421	257.17
330.875	313.34
331.329	311
331.783	378.87
332.237	346.11
332.691	390.58
333.145	353.13
333.599	325.04
334.053	268.87
334.507	280.57
334.96	322.7
335.414	332.06
335.868	285.25
336.321	280.57
336.775	369.51
337.228	334.4
337.682	367.17
338.135	287.59
338.588	392.92
339.042	329.72
339.495	299.3
339.948	325.04
340.401	308.66
340.854	285.25
341.307	311
341.76	280.57
342.213	322.7
342.666	397.6
343.119	292.27
343.571	268.87
344.024	336.74
344.477	287.59
344.929	367.17
345.382	320.36
345.834	360.15
346.287	350.79
346.739	261.85
347.191	320.36
347.644	320.36
348.096	264.19
348.548	278.23
349	308.66
349.452	315.68
349.904	315.68
350.356	292.27
350.808	303.98
351.26	350.79
351.711	327.38
352.163	289.93
352.615	296.96
353.066	282.91
353.518	282.91
353.969	313.34
354.421	313.34
354.872	313.34
355.324	339.09
355.775	264.19
356.226	334.4
356.677	357.81
357.128	334.4
357.579	371.85
358.03	339.09
358.481	313.34
358.932	339.09
359.383	275.89
359.834	243.12
360.285	311
360.735	301.64
361.186	357.81
361.637	367.17
362.087	332.06
362.538	282.91
362.988	329.72
363.438	357.81
363.889	320.36
364.339	259.51
364.789	334.4
365.239	334.4
365.689	325.04
366.139	264.19
366.589	364.83
367.039	285.25
367.489	280.57
367.939	289.93
368.389	348.45
368.839	285.25
369.288	325.04
369.738	322.7
370.187	318.02
370.637	343.77
371.086	311
371.536	383.56
371.985	353.13
372.434	308.66
372.884	364.83
373.333	353.13
373.782	346.11
374.231	406.96
374.68	341.43
375.129	360.15
375.578	336.74
376.027	303.98
376.475	306.32
376.924	320.36
377.373	357.81
377.822	271.21
378.27	315.68
378.719	303.98
379.167	315.68
379.616	353.13
380.064	350.79
380.512	299.3
380.961	325.04
381.409	299.3
381.857	308.66
382.305	282.91
382.753	346.11
383.201	280.57
383.649	383.56
384.097	322.7
384.545	357.81
384.992	341.43
385.44	303.98
385.888	261.85
386.335	357.81
386.783	282.91
387.231	390.58
387.678	390.58
388.125	341.43
388.573	371.85
389.02	325.04
389.467	327.38
389.914	308.66
390.362	381.21
390.809	346.11
391.256	350.79
391.703	336.74
392.15	378.87
392.596	336.74
393.043	280.57
393.49	282.91
393.937	388.24
394.383	357.81
394.83	350.79
395.276	374.19
395.723	339.09
396.169	306.32
396.616	325.04
397.062	353.13
397.508	341.43
397.954	325.04
398.401	327.38
398.847	336.74
399.293	322.7
399.739	371.85
400.185	355.47
400.631	261.85
401.076	294.61
401.522	325.04
401.968	313.34
402.414	369.51
402.859	289.93
403.305	353.13
403.75	322.7
404.196	311
404.641	353.13
405.086	388.24
405.532	383.56
405.977	320.36
406.422	343.77
406.867	341.43
407.312	311
407.757	308.66
408.202	259.51
408.647	332.06
409.092	254.83
409.537	287.59
409.982	327.38
410.426	303.98
410.871	292.27
411.316	362.49
411.76	322.7
412.205	383.56
412.649	362.49
413.093	395.26
413.538	327.38
413.982	282.91
414.426	355.47
414.87	271.21
415.314	320.36
415.758	360.15
416.202	292.27
416.646	341.43
417.09	299.3
417.534	325.04
417.978	348.45
418.421	306.32
418.865	329.72
419.309	355.47
419.752	303.98
420.196	315.68
420.639	378.87
421.083	343.77
421.526	355.47
421.969	357.81
422.412	355.47
422.856	371.85
423.299	346.11
423.742	341.43
424.185	423.34
424.628	355.47
425.071	364.83
425.513	332.06
425.956	367.17
426.399	381.21
426.842	350.79
427.284	350.79
427.727	315.68
428.169	371.85
428.612	313.34
429.054	329.72
429.497	385.9
429.939	397.6
430.381	369.51
430.823	339.09
431.265	456.11
431.707	428.03
432.149	465.47
432.591	465.47
433.033	432.71
433.475	416.32
433.917	397.6
434.359	467.81
434.8	566.12
435.242	465.47
435.684	573.14
436.125	540.37
436.567	449.09
437.008	587.18
437.449	449.09
437.891	423.34
438.332	495.9
438.773	444.41
439.214	481.86
439.656	411.64
440.097	456.11
440.538	523.99
440.978	451.43
441.419	498.24
441.86	547.39
442.301	467.81
442.742	463.13
443.182	535.69
443.623	507.6
444.063	573.14
444.504	523.99
444.944	498.24
445.385	535.69
445.825	516.97
446.265	540.37
446.706	481.86
447.146	446.75
447.586	563.78
448.026	549.73
448.466	575.48
448.906	512.28
449.346	542.71
449.786	479.52
450.225	528.67
450.665	507.6
451.105	491.22
451.544	519.31
451.984	507.6
452.424	484.2
452.863	512.28
453.302	488.88
453.742	493.56
454.181	479.52
454.62	486.54
455.059	486.54
455.499	498.24
455.938	481.86
456.377	437.39
456.816	444.41
457.254	463.13
457.693	535.69
458.132	451.43
458.571	425.68
459.01	484.2
459.448	493.56
459.887	395.26
460.325	442.07
460.764	446.75
461.202	392.92
461.641	505.26
462.079	423.34
462.517	395.26
462.955	355.47
463.393	477.18
463.832	435.05
464.27	498.24
464.708	353.13
465.145	430.37
465.583	435.05
466.021	399.94
466.459	456.11
466.897	411.64
467.334	416.32
467.772	381.21
468.209	439.73
468.647	406.96
469.084	425.68
469.522	456.11
469.959	313.34
470.396	411.64
470.833	442.07
471.271	376.53
471.708	369.51
472.145	367.17
472.582	355.47
473.019	413.98
473.456	381.21
473.892	423.34
474.329	409.3
474.766	453.77
475.202	390.58
475.639	374.19
476.076	399.94
476.512	369.51
476.949	329.72
477.385	449.09
477.821	402.28
478.258	392.92
478.694	376.53
479.13	362.49
479.566	421
480.002	322.7
480.438	425.68
480.874	381.21
481.31	360.15
481.746	383.56
482.181	413.98
482.617	390.58
483.053	406.96
483.488	451.43
483.924	406.96
484.36	348.45
484.795	463.13
485.23	390.58
485.666	432.71
486.101	413.98
486.536	470.16
486.971	428.03
487.407	406.96
487.842	451.43
488.277	395.26
488.712	362.49
489.146	505.26
489.581	399.94
490.016	432.71
490.451	446.75
490.885	477.18
491.32	463.13
491.755	444.41
492.189	423.34
492.624	341.43
493.058	505.26
493.492	442.07
493.927	465.47
494.361	399.94
494.795	488.88
495.229	383.56
495.663	418.66
496.097	416.32
496.531	509.94
496.965	484.2
497.399	383.56
497.833	425.68
498.266	395.26
498.7	385.9
499.134	406.96
499.567	453.77
500.001	446.75
500.434	409.3
500.868	399.94
501.301	376.53
501.734	404.62
502.168	392.92
502.601	425.68
503.034	486.54
503.467	339.09
503.9	418.66
504.333	374.19
504.766	390.58
505.199	383.56
505.632	446.75
506.064	406.96
506.497	411.64
506.93	416.32
507.362	392.92
507.795	463.13
508.227	413.98
508.66	402.28
509.092	493.56
509.524	435.05
509.956	395.26
510.389	376.53
510.821	350.79
511.253	406.96
511.685	418.66
512.117	371.85
512.549	432.71
512.981	404.62
513.412	470.16
513.844	392.92
514.276	397.6
514.707	465.47
515.139	474.84
515.571	423.34
516.002	458.45
516.433	404.62
516.865	435.05
517.296	369.51
517.727	465.47
518.159	430.37
518.59	432.71
519.021	428.03
519.452	413.98
519.883	406.96
520.314	402.28
520.744	474.84
521.175	453.77
521.606	395.26
522.037	465.47
522.467	406.96
522.898	472.5
523.328	442.07
523.759	474.84
524.189	463.13
524.62	428.03
525.05	381.21
525.48	446.75
525.91	444.41
526.341	456.11
526.771	406.96
527.201	472.5
527.631	444.41
528.061	456.11
528.49	411.64
528.92	404.62
529.35	465.47
529.78	446.75
530.209	425.68
530.639	411.64
531.068	460.79
531.498	439.73
531.927	477.18
532.357	484.2
532.786	453.77
533.215	451.43
533.644	486.54
534.074	453.77
534.503	430.37
534.932	498.24
535.361	460.79
535.79	458.45
536.218	460.79
536.647	411.64
537.076	432.71
537.505	460.79
537.933	519.31
538.362	474.84
538.79	505.26
539.219	474.84
539.647	512.28
540.076	549.73
540.504	538.03
540.932	594.2
541.36	655.06
541.788	659.74
542.217	715.91
542.645	704.21
543.073	699.53
543.5	711.23
543.928	760.38
544.356	751.02
544.784	783.79
545.211	814.21
545.639	767.4
546.067	722.93
546.494	638.67
546.922	598.88
547.349	584.84
547.776	622.29
548.204	488.88
548.631	554.41
549.058	552.07
549.485	446.75
549.912	516.97
550.339	470.16
550.766	474.84
551.193	533.35
551.62	542.71
552.047	610.59
552.474	479.52
552.9	500.58
553.327	486.54
553.754	444.41
554.18	484.2
554.607	507.6
555.033	460.79
555.459	463.13
555.886	479.52
556.312	439.73
556.738	381.21
557.164	474.84
557.59	413.98
558.016	465.47
558.442	444.41
558.868	472.5
559.294	392.92
559.72	488.88
560.145	421
560.571	413.98
560.997	413.98
561.422	397.6
561.848	432.71
562.273	406.96
562.699	395.26
563.124	418.66
563.549	442.07
563.974	432.71
564.4	390.58
564.825	395.26
565.25	449.09
565.675	357.81
566.1	376.53
566.525	463.13
566.95	404.62
567.374	402.28
567.799	470.16
568.224	390.58
568.648	418.66
569.073	362.49
569.497	416.32
569.922	432.71
570.346	449.09
570.771	491.22
571.195	467.81
571.619	428.03
572.043	446.75
572.467	463.13
572.891	381.21
573.315	402.28
573.739	430.37
574.163	392.92
574.587	404.62
575.011	397.6
575.435	421
575.858	378.87
576.282	430.37
576.705	432.71
577.129	437.39
577.552	425.68
577.976	531.01
578.399	435.05
578.822	451.43
579.245	500.58
579.669	512.28
580.092	430.37
580.515	404.62
580.938	418.66
581.361	423.34
581.784	491.22
582.206	439.73
582.629	474.84
583.052	416.32
583.474	446.75
583.897	451.43
584.32	453.77
584.742	458.45
585.165	409.3
585.587	472.5
586.009	432.71
586.431	498.24
586.854	472.5
587.276	425.68
587.698	460.79
588.12	437.39
588.542	470.16
588.964	479.52
589.386	404.62
589.807	409.3
590.229	458.45
590.651	442.07
591.073	446.75
591.494	456.11
591.916	463.13
592.337	505.26
592.759	465.47
593.18	500.58
593.601	439.73
594.022	437.39
594.444	435.05
594.865	486.54
595.286	395.26
595.707	369.51
596.128	439.73
596.549	390.58
596.97	467.81
597.39	413.98
597.811	362.49
598.232	392.92
598.652	416.32
599.073	481.86
599.494	423.34
599.914	392.92
600.334	402.28
600.755	456.11
601.175	399.94
601.595	418.66
602.015	402.28
602.436	411.64
602.856	533.35
603.276	486.54
603.696	439.73
604.115	364.83
604.535	350.79
604.955	402.28
605.375	355.47
605.794	519.31
606.214	397.6
606.634	348.45
607.053	449.09
607.473	458.45
607.892	409.3
608.311	413.98
608.731	460.79
609.15	528.67
609.569	528.67
609.988	594.2
610.407	699.53
610.826	793.15
611.245	858.68
611.664	783.79
612.083	690.17
612.501	626.97
612.92	655.06
613.339	673.78
613.757	612.93
614.176	542.71
614.594	570.8
615.013	486.54
615.431	472.5
615.85	526.33
616.268	481.86
616.686	491.22
617.104	425.68
617.522	423.34
617.94	451.43
618.358	385.9
618.776	456.11
619.194	437.39
619.612	367.17
620.03	423.34
620.447	423.34
620.865	430.37
621.282	421
621.7	409.3
622.117	428.03
622.535	437.39
622.952	453.77
623.369	364.83
623.787	374.19
624.204	425.68
624.621	425.68
625.038	385.9
625.455	435.05
625.872	430.37
626.289	353.13
626.706	362.49
627.123	381.21
627.539	399.94
627.956	435.05
628.373	322.7
628.789	421
629.206	350.79
629.622	378.87
630.038	385.9
630.455	432.71
630.871	397.6
631.287	418.66
631.703	381.21
632.12	376.53
632.536	399.94
632.952	390.58
633.368	318.02
633.783	313.34
634.199	413.98
634.615	318.02
635.031	332.06
635.446	322.7
635.862	367.17
636.277	381.21
636.693	308.66
637.108	301.64
637.524	432.71
637.939	315.68
638.354	336.74
638.77	374.19
639.185	339.09
639.6	325.04
640.015	392.92
640.43	313.34
640.845	322.7
641.259	306.32
641.674	411.64
642.089	261.85
642.504	395.26
642.918	320.36
643.333	369.51
643.747	308.66
644.162	383.56
644.576	362.49
644.991	376.53
645.405	451.43
645.819	350.79
646.233	411.64
646.647	388.24
647.061	334.4
647.475	376.53
647.889	395.26
648.303	332.06
648.717	371.85
649.131	327.38
649.545	371.85
649.958	348.45
650.372	371.85
650.785	303.98
651.199	378.87
651.612	397.6
652.026	339.09
652.439	350.79
652.852	329.72
653.266	292.27
653.679	329.72
654.092	404.62
654.505	404.62
654.918	376.53
655.331	385.9
655.744	296.96
656.156	376.53
656.569	329.72
656.982	343.77
657.394	301.64
657.807	369.51
658.22	311
658.632	320.36
659.044	332.06
659.457	390.58
659.869	311
660.281	353.13
660.693	320.36
661.106	418.66
661.518	355.47
661.93	325.04
662.342	327.38
662.754	353.13
663.165	411.64
663.577	299.3
663.989	308.66
664.401	374.19
664.812	332.06
665.224	318.02
665.635	346.11
666.047	355.47
666.458	355.47
666.869	287.59
667.281	332.06
667.692	318.02
668.103	318.02
668.514	388.24
668.925	355.47
669.336	357.81
669.747	303.98
670.158	303.98
670.569	306.32
670.979	397.6
671.39	315.68
671.801	399.94
672.211	362.49
672.622	336.74
673.032	371.85
673.443	289.93
673.853	322.7
674.263	355.47
674.674	336.74
675.084	294.61
675.494	374.19
675.904	296.96
676.314	369.51
676.724	308.66
677.134	315.68
677.544	374.19
677.953	346.11
678.363	404.62
678.773	327.38
679.182	369.51
679.592	313.34
680.001	346.11
680.411	301.64
680.82	261.85
681.23	320.36
681.639	334.4
682.048	261.85
682.457	287.59
682.866	350.79
683.275	334.4
683.684	355.47
684.093	327.38
684.502	289.93
684.911	278.23
685.32	318.02
685.728	336.74
686.137	299.3
686.546	332.06
686.954	308.66
687.363	313.34
687.771	280.57
688.179	388.24
688.588	362.49
688.996	299.3
689.404	296.96
689.812	369.51
690.22	254.83
690.628	332.06
691.036	308.66
691.444	313.34
691.852	301.64
692.26	296.96
692.667	212.7
693.075	303.98
693.483	362.49
693.89	362.49
694.298	364.83
694.705	327.38
695.112	371.85
695.52	275.89
695.927	364.83
696.334	313.34
696.741	322.7
697.148	341.43
697.555	311
697.962	346.11
698.369	376.53
698.776	292.27
699.183	357.81
699.59	292.27
699.996	322.7
700.403	315.68
700.81	287.59
701.216	296.96
701.623	329.72
702.029	250.14
702.435	280.57
702.842	271.21
703.248	294.61
703.654	306.32
704.06	402.28
704.466	313.34
704.872	299.3
705.278	395.26
705.684	392.92
706.09	322.7
706.496	296.96
706.901	322.7
707.307	334.4
707.712	355.47
708.118	376.53
708.523	383.56
708.929	334.4
709.334	322.7
709.74	313.34
710.145	311
710.55	360.15
710.955	355.47
711.36	296.96
711.765	367.17
712.17	376.53
712.575	409.3
712.98	973.37
713.385	346.11
713.789	315.68
714.194	339.09
714.599	388.24
715.003	266.53
715.408	332.06
715.812	341.43
716.217	273.55
716.621	306.32
717.025	315.68
717.429	296.96
717.833	362.49
718.238	325.04
718.642	341.43
719.046	341.43
719.449	355.47
719.853	303.98
720.257	313.34
720.661	306.32
721.065	357.81
721.468	308.66
721.872	301.64
722.275	376.53
722.679	308.66
723.082	339.09
723.485	360.15
723.889	385.9
724.292	315.68
724.695	308.66
725.098	371.85
725.501	339.09
725.904	273.55
726.307	397.6
726.71	271.21
727.113	374.19
727.516	329.72
727.918	357.81
728.321	343.77
728.724	271.21
729.126	336.74
729.529	306.32
729.931	371.85
730.333	294.61
730.736	275.89
731.138	308.66
731.54	271.21
731.942	299.3
732.344	287.59
732.746	282.91
733.148	313.34
733.55	303.98
733.952	360.15
734.354	332.06
734.756	329.72
735.157	357.81
735.559	348.45
735.96	357.81
736.362	315.68
736.763	320.36
737.165	353.13
737.566	367.17
737.967	311
738.368	318.02
738.77	250.14
739.171	406.96
739.572	264.19
739.973	343.77
740.374	341.43
740.774	257.17
741.175	325.04
741.576	367.17
741.977	303.98
742.377	282.91
742.778	353.13
743.178	289.93
743.579	296.96
743.979	362.49
744.379	362.49
744.78	346.11
745.18	332.06
745.58	289.93
745.98	341.43
746.38	285.25
746.78	318.02
747.18	362.49
747.58	322.7
747.98	353.13
748.38	320.36
748.779	299.3
749.179	336.74
749.578	334.4
749.978	364.83
750.377	315.68
750.777	336.74
751.176	294.61
751.575	294.61
751.975	322.7
752.374	341.43
752.773	289.93
753.172	381.21
753.571	343.77
753.97	254.83
754.369	296.96
754.768	332.06
755.166	327.38
755.565	346.11
755.964	254.83
756.362	318.02
756.761	418.66
757.159	350.79
757.558	313.34
757.956	371.85
758.354	332.06
758.753	308.66
759.151	287.59
759.549	343.77
759.947	313.34
760.345	339.09
760.743	332.06
761.141	299.3
761.539	229.08
761.936	292.27
762.334	320.36
762.732	348.45
763.129	280.57
763.527	320.36
763.924	254.83
764.322	334.4
764.719	315.68
765.117	383.56
765.514	259.51
765.911	250.14
766.308	341.43
766.705	336.74
767.102	318.02
767.499	266.53
767.896	364.83
768.293	264.19
768.69	303.98
769.086	332.06
769.483	357.81
769.88	341.43
770.276	334.4
770.673	390.58
771.069	339.09
771.466	343.77
771.862	329.72
772.258	327.38
772.654	318.02
773.05	399.94
773.447	285.25
773.843	320.36
774.239	299.3
774.634	299.3
775.03	350.79
775.426	278.23
775.822	325.04
776.218	346.11
776.613	318.02
777.009	348.45
777.404	355.47
777.8	285.25
778.195	289.93
778.59	336.74
778.986	348.45
779.381	257.17
779.776	315.68
780.171	346.11
780.566	303.98
780.961	339.09
781.356	287.59
781.751	360.15
782.146	322.7
782.54	301.64
782.935	325.04
783.33	313.34
783.724	343.77
784.119	315.68
784.513	315.68
784.908	303.98
785.302	315.68
785.696	313.34
786.09	327.38
786.485	294.61
786.879	320.36
787.273	318.02
787.667	362.49
788.061	332.06
788.454	343.77
788.848	301.64
789.242	271.21
789.636	285.25
790.029	306.32
790.423	308.66
790.816	343.77
791.21	285.25
791.603	226.74
791.997	383.56
792.39	285.25
792.783	346.11
793.176	301.64
793.569	282.91
793.962	308.66
794.355	357.81
794.748	238.44
795.141	264.19
795.534	296.96
795.927	346.11
796.319	320.36
796.712	343.77
797.105	315.68
797.497	313.34
797.89	285.25
798.282	348.45
798.674	294.61
799.067	346.11
799.459	292.27
799.851	329.72
800.243	292.27
800.635	268.87
801.027	327.38
801.419	348.45
801.811	329.72
802.203	315.68
802.594	289.93
802.986	327.38
803.378	306.32
803.769	348.45
804.161	341.43
804.552	332.06
804.944	364.83
805.335	327.38
805.726	278.23
806.118	343.77
806.509	339.09
806.9	322.7
807.291	327.38
807.682	378.87
808.073	299.3
808.464	353.13
808.855	264.19
809.245	322.7
809.636	292.27
810.027	261.85
810.417	266.53
810.808	259.51
811.198	301.64
811.589	320.36
811.979	299.3
812.369	311
812.759	350.79
813.15	311
813.54	282.91
813.93	313.34
814.32	311
814.71	381.21
815.1	339.09
815.489	311
815.879	315.68
816.269	362.49
816.658	360.15
817.048	353.13
817.438	315.68
817.827	303.98
818.216	341.43
818.606	348.45
818.995	364.83
819.384	294.61
819.773	282.91
820.163	334.4
820.552	306.32
820.941	346.11
821.33	325.04
821.718	329.72
822.107	336.74
822.496	336.74
822.885	346.11
823.273	369.51
823.662	371.85
824.05	346.11
824.439	327.38
824.827	341.43
825.216	296.96
825.604	392.92
825.992	346.11
826.38	355.47
826.768	292.27
827.156	341.43
827.544	322.7
827.932	318.02
828.32	336.74
828.708	325.04
829.096	292.27
829.483	311
829.871	308.66
830.259	332.06
830.646	318.02
831.034	390.58
831.421	329.72
831.808	341.43
832.196	250.14
832.583	327.38
832.97	369.51
833.357	226.74
833.744	334.4
834.131	346.11
834.518	313.34
834.905	250.14
835.292	311
835.678	285.25
836.065	285.25
836.452	301.64
836.838	341.43
837.225	301.64
837.611	357.81
837.998	367.17
838.384	268.87
838.77	334.4
839.157	385.9
839.543	362.49
839.929	343.77
840.315	313.34
840.701	318.02
841.087	282.91
841.473	346.11
841.858	322.7
842.244	381.21
842.63	350.79
843.015	315.68
843.401	608.25
843.787	367.17
844.172	299.3
844.557	339.09
844.943	364.83
845.328	364.83
845.713	306.32
846.098	308.66
846.483	362.49
846.868	369.51
847.253	294.61
847.638	346.11
848.023	355.47
848.408	289.93
848.793	353.13
849.177	334.4
849.562	322.7
849.947	341.43
850.331	332.06
850.715	378.87
851.1	313.34
851.484	348.45
851.868	268.87
852.253	334.4
852.637	334.4
853.021	245.46
853.405	357.81
853.789	318.02
854.173	341.43
854.557	289.93
854.94	325.04
855.324	376.53
855.708	397.6
856.091	268.87
856.475	350.79
856.858	285.25
857.242	353.13
857.625	278.23
858.009	303.98
858.392	348.45
858.775	357.81
859.158	299.3
859.541	383.56
859.924	306.32
860.307	273.55
860.69	339.09
861.073	341.43
861.456	350.79
861.838	360.15
862.221	371.85
862.604	240.78
862.986	367.17
863.369	353.13
863.751	343.77
864.133	285.25
864.516	289.93
864.898	306.32
865.28	271.21
865.662	289.93
866.044	329.72
866.426	383.56
866.808	303.98
867.19	332.06
867.572	285.25
867.954	329.72
868.336	322.7
868.717	311
869.099	292.27
869.48	320.36
869.862	343.77
870.243	334.4
870.625	311
871.006	357.81
871.387	287.59
871.768	318.02
872.149	318.02
872.53	353.13
872.911	231.42
873.292	336.74
873.673	341.43
874.054	308.66
874.435	294.61
874.815	336.74
875.196	266.53
875.577	287.59
875.957	360.15
876.338	296.96
876.718	308.66
877.098	343.77
877.479	364.83
877.859	353.13
878.239	294.61
878.619	303.98
878.999	299.3
879.379	332.06
879.759	364.83
880.139	273.55
880.519	339.09
880.898	346.11
881.278	381.21
881.658	299.3
882.037	367.17
882.417	353.13
882.796	360.15
883.176	378.87
883.555	341.43
883.934	282.91
884.313	360.15
884.693	264.19
885.072	315.68
885.451	329.72
885.83	250.14
886.209	325.04
886.587	311
886.966	294.61
887.345	362.49
887.724	327.38
888.102	350.79
888.481	282.91
888.859	334.4
889.238	318.02
889.616	294.61
889.994	301.64
890.373	264.19
890.751	289.93
891.129	322.7
891.507	287.59
891.885	376.53
892.263	315.68
892.641	346.11
893.019	343.77
893.396	360.15
893.774	334.4
894.152	341.43
894.529	308.66
894.907	280.57
895.284	282.91
895.662	327.38
896.039	348.45
896.416	271.21
896.794	332.06
897.171	315.68
897.548	332.06
897.925	334.4
898.302	313.34
898.679	329.72
899.056	378.87
899.433	287.59
899.809	341.43
900.186	282.91
900.563	311
900.939	315.68
901.316	275.89
901.692	282.91
902.069	315.68
902.445	292.27
902.821	303.98
903.197	343.77
903.574	306.32
903.95	336.74
904.326	301.64
904.702	329.72
905.078	360.15
905.454	369.51
905.829	378.87
906.205	311
906.581	273.55
906.956	325.04
907.332	367.17
907.707	339.09
908.083	325.04
908.458	353.13
908.833	303.98
909.209	329.72
909.584	334.4
909.959	336.74
910.334	299.3
910.709	362.49
911.084	334.4
911.459	374.19
911.834	294.61
912.209	294.61
912.583	322.7
912.958	285.25
913.333	369.51
913.707	278.23
914.082	306.32
914.456	343.77
914.83	343.77
915.205	357.81
915.579	402.28
915.953	336.74
916.327	308.66
916.701	350.79
917.075	362.49
917.449	285.25
917.823	318.02
918.197	435.05
918.571	292.27
918.944	289.93
919.318	287.59
919.692	299.3
920.065	254.83
920.438	348.45
920.812	313.34
921.185	327.38
921.558	280.57
921.932	329.72
922.305	292.27
922.678	311
923.051	355.47
923.424	313.34
923.797	399.94
924.17	371.85
924.542	339.09
924.915	275.89
925.288	259.51
925.661	341.43
926.033	322.7
926.406	339.09
926.778	315.68
927.15	346.11
927.523	301.64
927.895	292.27
928.267	320.36
928.639	360.15
929.011	294.61
929.383	385.9
929.755	339.09
930.127	343.77
930.499	301.64
930.871	320.36
931.242	329.72
931.614	306.32
931.986	294.61
932.357	334.4
932.729	278.23
933.1	264.19
933.471	308.66
933.843	287.59
934.214	261.85
934.585	275.89
934.956	339.09
935.327	285.25
935.698	289.93
936.069	322.7
936.44	282.91
936.811	390.58
937.182	381.21
937.552	280.57
937.923	315.68
938.293	357.81
938.664	299.3
939.034	299.3
939.405	313.34
939.775	303.98
940.145	353.13
940.516	285.25
940.886	327.38
941.256	343.77
941.626	371.85
941.996	318.02
942.366	357.81
942.735	369.51
943.105	294.61
943.475	313.34
943.845	247.8
944.214	362.49
944.584	306.32
944.953	278.23
945.323	339.09
945.692	320.36
946.061	299.3
946.43	332.06
946.8	402.28
947.169	325.04
947.538	296.96
947.907	322.7
948.276	353.13
948.645	336.74
949.013	332.06
949.382	215.04
949.751	292.27
950.119	308.66
950.488	360.15
950.857	292.27
951.225	275.89
951.593	371.85
951.962	327.38
952.33	311
952.698	301.64
953.066	357.81
953.434	322.7
953.802	285.25
954.17	418.66
954.538	353.13
954.906	301.64
955.274	353.13
955.642	273.55
956.009	313.34
956.377	318.02
956.744	325.04
957.112	346.11
957.479	268.87
957.847	292.27
958.214	341.43
958.581	275.89
958.948	346.11
959.315	350.79
959.683	376.53
960.05	282.91
960.416	371.85
960.783	303.98
961.15	311
961.517	325.04
961.884	296.96
962.25	257.17
962.617	339.09
962.983	315.68
963.35	327.38
963.716	322.7
964.082	287.59
964.449	343.77
964.815	313.34
965.181	294.61
965.547	287.59
965.913	322.7
966.279	303.98
966.645	376.53
967.011	273.55
967.377	327.38
967.742	268.87
968.108	311
968.474	339.09
968.839	390.58
969.205	261.85
969.57	327.38
969.935	329.72
970.301	334.4
970.666	341.43
971.031	336.74
971.396	378.87
971.761	287.59
972.126	299.3
972.491	334.4
972.856	299.3
973.221	254.83
973.586	289.93
973.95	336.74
974.315	318.02
974.679	303.98
975.044	306.32
975.408	247.8
975.773	266.53
976.137	299.3
976.501	217.38
976.866	402.28
977.23	301.64
977.594	254.83
977.958	406.96
978.322	287.59
978.686	322.7
979.049	311
979.413	339.09
979.777	311
980.141	289.93
980.504	348.45
980.868	306.32
981.231	282.91
981.595	287.59
981.958	308.66
982.321	320.36
982.684	313.34
983.048	371.85
983.411	285.25
983.774	355.47
984.137	353.13
984.5	353.13
984.862	313.34
985.225	320.36
985.588	346.11
985.951	322.7
986.313	332.06
986.676	296.96
987.038	296.96
987.401	360.15
987.763	315.68
988.125	282.91
988.488	280.57
988.85	341.43
989.212	348.45
989.574	313.34
989.936	259.51
990.298	374.19
990.66	254.83
991.022	371.85
991.383	306.32
991.745	275.89
992.107	261.85
992.468	339.09
992.83	257.17
993.191	313.34
993.553	381.21
993.914	318.02
994.275	334.4
994.637	306.32
994.998	236.1
995.359	327.38
995.72	346.11
996.081	266.53
996.442	360.15
996.803	367.17
997.163	299.3
997.524	275.89
997.885	292.27
998.245	254.83
998.606	287.59
998.966	336.74
999.327	334.4
999.687	306.32
1000.047	296.96
1000.408	313.34
1000.768	318.02
1001.128	303.98
1001.488	332.06
1001.848	350.79
1002.208	320.36
1002.568	327.38
1002.927	311
1003.287	306.32
1003.647	325.04
1004.007	428.03
1004.366	322.7
1004.726	311
1005.085	313.34
1005.444	355.47
1005.804	289.93
1006.163	376.53
1006.522	208.02
1006.881	376.53
1007.24	332.06
1007.599	364.83
1007.958	353.13
1008.317	226.74
1008.676	315.68
1009.035	413.98
1009.393	318.02
1009.752	332.06
1010.111	278.23
1010.469	294.61
1010.828	306.32
1011.186	369.51
1011.544	315.68
1011.903	360.15
1012.261	273.55
1012.619	369.51
1012.977	357.81
1013.335	313.34
1013.693	264.19
1014.051	334.4
1014.409	311
1014.767	264.19
1015.124	315.68
1015.482	301.64
1015.84	303.98
1016.197	343.77
1016.555	371.85
1016.912	257.17
1017.269	320.36
1017.627	339.09
1017.984	313.34
1018.341	266.53
1018.698	329.72
1019.055	320.36
1019.412	264.19
1019.769	273.55
1020.126	278.23
1020.483	320.36
1020.84	278.23
1021.196	343.77
1021.553	278.23
1021.909	341.43
1022.266	296.96
1022.622	299.3
1022.979	308.66
1023.335	327.38
1023.691	343.77
1024.047	346.11
1024.404	350.79
1024.76	346.11
1025.116	303.98
1025.472	294.61
1025.827	336.74
1026.183	259.51
1026.539	336.74
1026.895	287.59
1027.25	362.49
1027.606	327.38
1027.961	341.43
1028.317	243.12
1028.672	332.06
1029.028	308.66
1029.383	313.34
1029.738	311
1030.093	318.02
1030.448	334.4
1030.803	322.7
1031.158	306.32
1031.513	315.68
1031.868	327.38
1032.223	303.98
1032.577	306.32
1032.932	275.89
1033.287	243.12
1033.641	374.19
1033.996	245.46
1034.35	303.98
1034.704	315.68
1035.059	271.21
1035.413	299.3
1035.767	299.3
1036.121	299.3
