Data from Al_FLMS009871__1256__16-46-16-572.txt Node

Date: Fri Mar 08 16:46:16 CST 2024
User: pe5414po
Spectrometer: FLMS00987
Trigger mode: 0
Integration Time (sec): 1.000000E-1
Scans to average: 1
Electric dark correction enabled: true
Nonlinearity correction enabled: false
Boxcar width: 0
XAxis mode: Wavelengths
Number of Pixels in Spectrum: 2048
>>>>>Begin Spectral Data<<<<<
188.938	-26.77
189.409	-26.77
189.879	-26.77
190.349	-115.71
190.819	-19.75
191.29	-92.3
191.76	-104.01
192.23	-45.49
192.7	-57.2
193.17	-61.88
193.64	-82.94
194.109	13.02
194.579	10.68
195.049	-5.71
195.519	-36.13
195.988	20.04
196.458	66.85
196.927	104.3
197.397	10.68
197.866	123.02
198.336	137.07
198.805	179.2
199.274	226.01
199.744	216.65
200.213	216.65
200.682	237.71
201.151	221.33
201.62	268.14
202.089	258.78
202.558	244.73
203.027	300.91
203.495	200.26
203.964	242.39
204.433	247.07
204.902	240.05
205.37	380.48
205.839	352.4
206.307	251.75
206.776	324.31
207.244	279.84
207.712	261.12
208.181	251.75
208.649	303.25
209.117	261.12
209.585	364.1
210.053	331.33
210.521	214.31
210.989	305.59
211.457	284.52
211.925	293.88
212.393	319.63
212.861	303.25
213.328	350.06
213.796	282.18
214.264	319.63
214.731	305.59
215.199	357.08
215.666	268.14
216.133	282.18
216.601	268.14
217.068	298.56
217.535	277.5
218.003	223.67
218.47	258.78
218.937	284.52
219.404	279.84
219.871	279.84
220.338	270.48
220.805	326.65
221.271	249.41
221.738	289.2
222.205	321.97
222.671	256.43
223.138	242.39
223.605	289.2
224.071	317.29
224.538	296.22
225.004	272.82
225.47	261.12
225.937	256.43
226.403	275.16
226.869	293.88
227.335	286.86
227.801	275.16
228.267	286.86
228.733	286.86
229.199	197.92
229.665	298.56
230.131	333.67
230.597	312.61
231.062	326.65
231.528	268.14
231.994	223.67
232.459	331.33
232.925	291.54
233.39	204.94
233.856	284.52
234.321	284.52
234.786	324.31
235.252	254.09
235.717	326.65
236.182	263.46
236.647	277.5
237.112	293.88
237.577	310.27
238.042	251.75
238.507	328.99
238.972	317.29
239.436	277.5
239.901	296.22
240.366	307.93
240.83	268.14
241.295	251.75
241.76	307.93
242.224	284.52
242.688	321.97
243.153	265.8
243.617	270.48
244.081	251.75
244.545	268.14
245.01	240.05
245.474	305.59
245.938	256.43
246.402	321.97
246.866	284.52
247.33	340.69
247.793	326.65
248.257	240.05
248.721	268.14
249.185	226.01
249.648	268.14
250.112	331.33
250.575	261.12
251.039	279.84
251.502	305.59
251.965	289.2
252.429	310.27
252.892	256.43
253.355	350.06
253.818	340.69
254.281	256.43
254.744	291.54
255.207	277.5
255.67	324.31
256.133	347.72
256.596	319.63
257.059	319.63
257.522	289.2
257.984	275.16
258.447	282.18
258.909	310.27
259.372	310.27
259.834	298.56
260.297	291.54
260.759	347.72
261.221	277.5
261.684	319.63
262.146	279.84
262.608	235.37
263.07	300.91
263.532	284.52
263.994	268.14
264.456	298.56
264.918	305.59
265.38	328.99
265.842	338.35
266.303	326.65
266.765	303.25
267.227	275.16
267.688	328.99
268.15	296.22
268.611	242.39
269.072	272.82
269.534	333.67
269.995	235.37
270.456	345.38
270.918	307.93
271.379	296.22
271.84	279.84
272.301	338.35
272.762	293.88
273.223	382.82
273.684	284.52
274.144	350.06
274.605	300.91
275.066	282.18
275.527	303.25
275.987	319.63
276.448	343.03
276.908	296.22
277.369	324.31
277.829	310.27
278.289	300.91
278.75	387.5
279.21	289.2
279.67	307.93
280.13	291.54
280.59	319.63
281.05	343.03
281.51	321.97
281.97	251.75
282.43	347.72
282.89	282.18
283.35	317.29
283.809	296.22
284.269	298.56
284.729	254.09
285.188	324.31
285.648	307.93
286.107	251.75
286.567	303.25
287.026	272.82
287.485	303.25
287.944	293.88
288.404	321.97
288.863	347.72
289.322	272.82
289.781	328.99
290.24	333.67
290.699	263.46
291.158	343.03
291.616	296.22
292.075	300.91
292.534	275.16
292.992	343.03
293.451	298.56
293.91	293.88
294.368	319.63
294.827	357.08
295.285	298.56
295.743	317.29
296.202	328.99
296.66	282.18
297.118	310.27
297.576	321.97
298.034	364.1
298.492	286.86
298.95	268.14
299.408	333.67
299.866	296.22
300.324	321.97
300.781	289.2
301.239	293.88
301.697	298.56
302.154	270.48
302.612	310.27
303.069	345.38
303.527	310.27
303.984	345.38
304.441	350.06
304.899	310.27
305.356	350.06
305.813	263.46
306.27	298.56
306.727	347.72
307.184	385.16
307.641	314.95
308.098	357.08
308.555	368.78
309.012	319.63
309.468	352.4
309.925	382.82
310.382	282.18
310.838	371.12
311.295	385.16
311.751	331.33
312.208	279.84
312.664	333.67
313.12	298.56
313.577	347.72
314.033	385.16
314.489	284.52
314.945	307.93
315.401	312.61
315.857	352.4
316.313	282.18
316.769	314.95
317.225	373.46
317.681	268.14
318.136	345.38
318.592	324.31
319.048	293.88
319.503	312.61
319.959	321.97
320.414	336.01
320.869	336.01
321.325	310.27
321.78	361.76
322.235	305.59
322.691	368.78
323.146	321.97
323.601	328.99
324.056	284.52
324.511	331.33
324.966	347.72
325.421	286.86
325.875	310.27
326.33	347.72
326.785	263.46
327.24	324.31
327.694	293.88
328.149	371.12
328.603	296.22
329.058	310.27
329.512	331.33
329.966	357.08
330.421	293.88
330.875	340.69
331.329	277.5
331.783	343.03
332.237	305.59
332.691	296.22
333.145	347.72
333.599	350.06
334.053	242.39
334.507	326.65
334.96	336.01
335.414	328.99
335.868	314.95
336.321	279.84
336.775	331.33
337.228	284.52
337.682	286.86
338.135	340.69
338.588	270.48
339.042	333.67
339.495	357.08
339.948	359.42
340.401	296.22
340.854	326.65
341.307	331.33
341.76	328.99
342.213	282.18
342.666	317.29
343.119	406.23
343.571	310.27
344.024	314.95
344.477	328.99
344.929	368.78
345.382	310.27
345.834	305.59
346.287	364.1
346.739	389.85
347.191	328.99
347.644	343.03
348.096	345.38
348.548	303.25
349	336.01
349.452	361.76
349.904	293.88
350.356	279.84
350.808	375.8
351.26	345.38
351.711	256.43
352.163	310.27
352.615	284.52
353.066	343.03
353.518	354.74
353.969	333.67
354.421	305.59
354.872	371.12
355.324	359.42
355.775	340.69
356.226	340.69
356.677	331.33
357.128	340.69
357.579	277.5
358.03	371.12
358.481	268.14
358.932	268.14
359.383	389.85
359.834	336.01
360.285	326.65
360.735	359.42
361.186	321.97
361.637	340.69
362.087	298.56
362.538	321.97
362.988	310.27
363.438	300.91
363.889	328.99
364.339	307.93
364.789	371.12
365.239	300.91
365.689	338.35
366.139	347.72
366.589	326.65
367.039	354.74
367.489	310.27
367.939	385.16
368.389	300.91
368.839	317.29
369.288	317.29
369.738	352.4
370.187	352.4
370.637	338.35
371.086	293.88
371.536	303.25
371.985	275.16
372.434	354.74
372.884	380.48
373.333	338.35
373.782	314.95
374.231	338.35
374.68	359.42
375.129	364.1
375.578	319.63
376.027	284.52
376.475	310.27
376.924	375.8
377.373	298.56
377.822	310.27
378.27	254.09
378.719	310.27
379.167	328.99
379.616	275.16
380.064	324.31
380.512	366.44
380.961	319.63
381.409	357.08
381.857	371.12
382.305	331.33
382.753	328.99
383.201	296.22
383.649	343.03
384.097	359.42
384.545	296.22
384.992	277.5
385.44	336.01
385.888	373.46
386.335	357.08
386.783	307.93
387.231	312.61
387.678	298.56
388.125	429.63
388.573	338.35
389.02	354.74
389.467	296.22
389.914	340.69
390.362	373.46
390.809	296.22
391.256	284.52
391.703	293.88
392.15	324.31
392.596	317.29
393.043	307.93
393.49	328.99
393.937	268.14
394.383	326.65
394.83	326.65
395.276	368.78
395.723	277.5
396.169	396.87
396.616	364.1
397.062	350.06
397.508	338.35
397.954	354.74
398.401	314.95
398.847	336.01
399.293	352.4
399.739	286.86
400.185	317.29
400.631	326.65
401.076	307.93
401.522	321.97
401.968	336.01
402.414	312.61
402.859	359.42
403.305	321.97
403.75	333.67
404.196	364.1
404.641	357.08
405.086	347.72
405.532	361.76
405.977	340.69
406.422	368.78
406.867	319.63
407.312	333.67
407.757	364.1
408.202	375.8
408.647	385.16
409.092	352.4
409.537	382.82
409.982	307.93
410.426	343.03
410.871	333.67
411.316	387.5
411.76	242.39
412.205	359.42
412.649	251.75
413.093	321.97
413.538	328.99
413.982	284.52
414.426	296.22
414.87	293.88
415.314	371.12
415.758	305.59
416.202	258.78
416.646	321.97
417.09	385.16
417.534	359.42
417.978	354.74
418.421	265.8
418.865	371.12
419.309	272.82
419.752	366.44
420.196	298.56
420.639	305.59
421.083	312.61
421.526	286.86
421.969	347.72
422.412	340.69
422.856	340.69
423.299	343.03
423.742	340.69
424.185	366.44
424.628	408.57
425.071	310.27
425.513	345.38
425.956	328.99
426.399	347.72
426.842	303.25
427.284	338.35
427.727	424.95
428.169	427.29
428.612	310.27
429.054	328.99
429.497	361.76
429.939	380.48
430.381	350.06
430.823	305.59
431.265	296.22
431.707	350.06
432.149	345.38
432.591	319.63
433.033	340.69
433.475	298.56
433.917	361.76
434.359	410.91
434.8	268.14
435.242	347.72
435.684	359.42
436.125	401.55
436.567	265.8
437.008	279.84
437.449	296.22
437.891	319.63
438.332	279.84
438.773	352.4
439.214	354.74
439.656	378.14
440.097	361.76
440.538	392.19
440.978	336.01
441.419	336.01
441.86	352.4
442.301	387.5
442.742	392.19
443.182	354.74
443.623	321.97
444.063	284.52
444.504	333.67
444.944	359.42
445.385	359.42
445.825	324.31
446.265	371.12
446.706	293.88
447.146	296.22
447.586	305.59
448.026	354.74
448.466	317.29
448.906	328.99
449.346	247.07
449.786	336.01
450.225	382.82
450.665	275.16
451.105	258.78
451.544	324.31
451.984	387.5
452.424	336.01
452.863	324.31
453.302	326.65
453.742	237.71
454.181	305.59
454.62	289.2
455.059	382.82
455.499	382.82
455.938	338.35
456.377	298.56
456.816	326.65
457.254	326.65
457.693	340.69
458.132	352.4
458.571	321.97
459.01	321.97
459.448	373.46
459.887	357.08
460.325	336.01
460.764	343.03
461.202	380.48
461.641	410.91
462.079	249.41
462.517	354.74
462.955	350.06
463.393	350.06
463.832	373.46
464.27	307.93
464.708	340.69
465.145	361.76
465.583	357.08
466.021	373.46
466.459	373.46
466.897	338.35
467.334	293.88
467.772	389.85
468.209	359.42
468.647	354.74
469.084	333.67
469.522	352.4
469.959	321.97
470.396	361.76
470.833	293.88
471.271	307.93
471.708	298.56
472.145	399.21
472.582	312.61
473.019	375.8
473.456	307.93
473.892	303.25
474.329	317.29
474.766	324.31
475.202	291.54
475.639	415.59
476.076	333.67
476.512	326.65
476.949	340.69
477.385	296.22
477.821	324.31
478.258	321.97
478.694	336.01
479.13	319.63
479.566	378.14
480.002	354.74
480.438	431.98
480.874	340.69
481.31	333.67
481.746	310.27
482.181	331.33
482.617	347.72
483.053	361.76
483.488	354.74
483.924	272.82
484.36	314.95
484.795	286.86
485.23	350.06
485.666	345.38
486.101	385.16
486.536	242.39
486.971	392.19
487.407	343.03
487.842	364.1
488.277	343.03
488.712	340.69
489.146	307.93
489.581	373.46
490.016	317.29
490.451	364.1
490.885	361.76
491.32	326.65
491.755	345.38
492.189	284.52
492.624	293.88
493.058	378.14
493.492	317.29
493.927	401.55
494.361	305.59
494.795	249.41
495.229	314.95
495.663	312.61
496.097	387.5
496.531	373.46
496.965	321.97
497.399	298.56
497.833	286.86
498.266	300.91
498.7	307.93
499.134	352.4
499.567	350.06
500.001	382.82
500.434	296.22
500.868	251.75
501.301	336.01
501.734	357.08
502.168	331.33
502.601	378.14
503.034	275.16
503.467	321.97
503.9	366.44
504.333	324.31
504.766	380.48
505.199	254.09
505.632	347.72
506.064	380.48
506.497	317.29
506.93	275.16
507.362	343.03
507.795	324.31
508.227	401.55
508.66	317.29
509.092	389.85
509.524	354.74
509.956	364.1
510.389	312.61
510.821	364.1
511.253	331.33
511.685	321.97
512.117	312.61
512.549	314.95
512.981	326.65
513.412	352.4
513.844	366.44
514.276	300.91
514.707	326.65
515.139	312.61
515.571	345.38
516.002	291.54
516.433	305.59
516.865	392.19
517.296	296.22
517.727	340.69
518.159	343.03
518.59	336.01
519.021	298.56
519.452	382.82
519.883	366.44
520.314	345.38
520.744	284.52
521.175	364.1
521.606	350.06
522.037	319.63
522.467	378.14
522.898	357.08
523.328	340.69
523.759	366.44
524.189	324.31
524.62	417.93
525.05	300.91
525.48	347.72
525.91	347.72
526.341	279.84
526.771	359.42
527.201	403.89
527.631	324.31
528.061	333.67
528.49	359.42
528.92	333.67
529.35	375.8
529.78	317.29
530.209	321.97
530.639	272.82
531.068	284.52
531.498	343.03
531.927	331.33
532.357	296.22
532.786	333.67
533.215	389.85
533.644	321.97
534.074	291.54
534.503	354.74
534.932	312.61
535.361	340.69
535.79	385.16
536.218	408.57
536.647	289.2
537.076	371.12
537.505	347.72
537.933	258.78
538.362	336.01
538.79	340.69
539.219	378.14
539.647	338.35
540.076	345.38
540.504	293.88
540.932	366.44
541.36	333.67
541.788	328.99
542.217	326.65
542.645	282.18
543.073	263.46
543.5	350.06
543.928	277.5
544.356	336.01
544.784	361.76
545.211	347.72
545.639	366.44
546.067	303.25
546.494	284.52
546.922	303.25
547.349	389.85
547.776	361.76
548.204	324.31
548.631	357.08
549.058	310.27
549.485	359.42
549.912	270.48
550.339	279.84
550.766	352.4
551.193	380.48
551.62	328.99
552.047	284.52
552.474	336.01
552.9	275.16
553.327	406.23
553.754	263.46
554.18	282.18
554.607	303.25
555.033	385.16
555.459	338.35
555.886	352.4
556.312	352.4
556.738	319.63
557.164	385.16
557.59	328.99
558.016	293.88
558.442	350.06
558.868	300.91
559.294	375.8
559.72	385.16
560.145	357.08
560.571	277.5
560.997	328.99
561.422	272.82
561.848	314.95
562.273	343.03
562.699	345.38
563.124	357.08
563.549	352.4
563.974	336.01
564.4	373.46
564.825	326.65
565.25	347.72
565.675	303.25
566.1	289.2
566.525	293.88
566.95	284.52
567.374	352.4
567.799	314.95
568.224	401.55
568.648	343.03
569.073	305.59
569.497	307.93
569.922	331.33
570.346	345.38
570.771	326.65
571.195	289.2
571.619	293.88
572.043	310.27
572.467	284.52
572.891	298.56
573.315	364.1
573.739	338.35
574.163	343.03
574.587	291.54
575.011	368.78
575.435	345.38
575.858	417.93
576.282	279.84
576.705	249.41
577.129	310.27
577.552	340.69
577.976	261.12
578.399	392.19
578.822	317.29
579.245	347.72
579.669	324.31
580.092	326.65
580.515	331.33
580.938	312.61
581.361	282.18
581.784	331.33
582.206	275.16
582.629	347.72
583.052	314.95
583.474	361.76
583.897	319.63
584.32	333.67
584.742	305.59
585.165	303.25
585.587	378.14
586.009	324.31
586.431	312.61
586.854	303.25
587.276	286.86
587.698	300.91
588.12	293.88
588.542	310.27
588.964	371.12
589.386	326.65
589.807	371.12
590.229	319.63
590.651	310.27
591.073	307.93
591.494	336.01
591.916	392.19
592.337	328.99
592.759	319.63
593.18	298.56
593.601	261.12
594.022	392.19
594.444	324.31
594.865	338.35
595.286	354.74
595.707	345.38
596.128	326.65
596.549	298.56
596.97	333.67
597.39	289.2
597.811	340.69
598.232	350.06
598.652	321.97
599.073	387.5
599.494	284.52
599.914	347.72
600.334	314.95
600.755	385.16
601.175	385.16
601.595	254.09
602.015	282.18
602.436	345.38
602.856	441.34
603.276	357.08
603.696	333.67
604.115	310.27
604.535	336.01
604.955	333.67
605.375	357.08
605.794	345.38
606.214	324.31
606.634	279.84
607.053	378.14
607.473	394.53
607.892	350.06
608.311	429.63
608.731	307.93
609.15	296.22
609.569	319.63
609.988	296.22
610.407	326.65
610.826	340.69
611.245	364.1
611.664	357.08
612.083	345.38
612.501	401.55
612.92	343.03
613.339	364.1
613.757	319.63
614.176	345.38
614.594	326.65
615.013	336.01
615.431	270.48
615.85	328.99
616.268	312.61
616.686	387.5
617.104	350.06
617.522	331.33
617.94	328.99
618.358	310.27
618.776	394.53
619.194	277.5
619.612	333.67
620.03	352.4
620.447	380.48
620.865	338.35
621.282	359.42
621.7	326.65
622.117	368.78
622.535	298.56
622.952	347.72
623.369	352.4
623.787	354.74
624.204	319.63
624.621	289.2
625.038	319.63
625.455	396.87
625.872	387.5
626.289	324.31
626.706	307.93
627.123	314.95
627.539	343.03
627.956	324.31
628.373	321.97
628.789	350.06
629.206	378.14
629.622	336.01
630.038	331.33
630.455	366.44
630.871	305.59
631.287	333.67
631.703	350.06
632.12	338.35
632.536	394.53
632.952	345.38
633.368	317.29
633.783	352.4
634.199	385.16
634.615	324.31
635.031	331.33
635.446	368.78
635.862	350.06
636.277	385.16
636.693	364.1
637.108	333.67
637.524	394.53
637.939	338.35
638.354	338.35
638.77	350.06
639.185	382.82
639.6	333.67
640.015	314.95
640.43	310.27
640.845	305.59
641.259	284.52
641.674	303.25
642.089	368.78
642.504	310.27
642.918	350.06
643.333	338.35
643.747	286.86
644.162	338.35
644.576	286.86
644.991	319.63
645.405	324.31
645.819	340.69
646.233	328.99
646.647	354.74
647.061	385.16
647.475	275.16
647.889	361.76
648.303	338.35
648.717	284.52
649.131	291.54
649.545	263.46
649.958	307.93
650.372	357.08
650.785	333.67
651.199	347.72
651.612	399.21
652.026	345.38
652.439	333.67
652.852	350.06
653.266	305.59
653.679	368.78
654.092	284.52
654.505	350.06
654.918	338.35
655.331	289.2
655.744	305.59
656.156	286.86
656.569	249.41
656.982	314.95
657.394	364.1
657.807	345.38
658.22	237.71
658.632	364.1
659.044	321.97
659.457	326.65
659.869	368.78
660.281	375.8
660.693	387.5
661.106	361.76
661.518	284.52
661.93	300.91
662.342	343.03
662.754	385.16
663.165	354.74
663.577	319.63
663.989	343.03
664.401	368.78
664.812	394.53
665.224	284.52
665.635	305.59
666.047	373.46
666.458	314.95
666.869	296.22
667.281	357.08
667.692	307.93
668.103	256.43
668.514	331.33
668.925	340.69
669.336	371.12
669.747	340.69
670.158	347.72
670.569	361.76
670.979	343.03
671.39	354.74
671.801	286.86
672.211	319.63
672.622	303.25
673.032	331.33
673.443	378.14
673.853	392.19
674.263	328.99
674.674	375.8
675.084	357.08
675.494	328.99
675.904	354.74
676.314	300.91
676.724	361.76
677.134	328.99
677.544	343.03
677.953	293.88
678.363	347.72
678.773	354.74
679.182	343.03
679.592	364.1
680.001	375.8
680.411	319.63
680.82	279.84
681.23	340.69
681.639	321.97
682.048	319.63
682.457	221.33
682.866	321.97
683.275	314.95
683.684	305.59
684.093	338.35
684.502	326.65
684.911	328.99
685.32	307.93
685.728	368.78
686.137	300.91
686.546	331.33
686.954	291.54
687.363	345.38
687.771	343.03
688.179	319.63
688.588	347.72
688.996	319.63
689.404	321.97
689.812	392.19
690.22	324.31
690.628	343.03
691.036	300.91
691.444	347.72
691.852	345.38
692.26	368.78
692.667	270.48
693.075	277.5
693.483	333.67
693.89	368.78
694.298	300.91
694.705	387.5
695.112	317.29
695.52	303.25
695.927	305.59
696.334	375.8
696.741	357.08
697.148	336.01
697.555	300.91
697.962	293.88
698.369	296.22
698.776	319.63
699.183	237.71
699.59	357.08
699.996	300.91
700.403	321.97
700.81	352.4
701.216	277.5
701.623	347.72
702.029	333.67
702.435	375.8
702.842	303.25
703.248	312.61
703.654	319.63
704.06	350.06
704.466	352.4
704.872	291.54
705.278	300.91
705.684	296.22
706.09	324.31
706.496	364.1
706.901	408.57
707.307	324.31
707.712	345.38
708.118	364.1
708.523	321.97
708.929	298.56
709.334	336.01
709.74	275.16
710.145	331.33
710.55	380.48
710.955	326.65
711.36	350.06
711.765	333.67
712.17	338.35
712.575	326.65
712.98	804.12
713.385	450.7
713.789	317.29
714.194	352.4
714.599	317.29
715.003	359.42
715.408	328.99
715.812	317.29
716.217	279.84
716.621	345.38
717.025	361.76
717.429	366.44
717.833	336.01
718.238	382.82
718.642	345.38
719.046	340.69
719.449	296.22
719.853	331.33
720.257	336.01
720.661	354.74
721.065	300.91
721.468	284.52
721.872	314.95
722.275	345.38
722.679	298.56
723.082	380.48
723.485	319.63
723.889	293.88
724.292	331.33
724.695	326.65
725.098	350.06
725.501	338.35
725.904	249.41
726.307	300.91
726.71	326.65
727.113	380.48
727.516	338.35
727.918	303.25
728.321	314.95
728.724	350.06
729.126	350.06
729.529	230.69
729.931	305.59
730.333	331.33
730.736	305.59
731.138	328.99
731.54	350.06
731.942	364.1
732.344	375.8
732.746	350.06
733.148	319.63
733.55	328.99
733.952	326.65
734.354	343.03
734.756	324.31
735.157	380.48
735.559	310.27
735.96	326.65
736.362	307.93
736.763	312.61
737.165	317.29
737.566	361.76
737.967	336.01
738.368	298.56
738.77	328.99
739.171	354.74
739.572	326.65
739.973	350.06
740.374	392.19
740.774	305.59
741.175	345.38
741.576	345.38
741.977	272.82
742.377	336.01
742.778	359.42
743.178	359.42
743.579	368.78
743.979	343.03
744.379	368.78
744.78	352.4
745.18	436.66
745.58	371.12
745.98	336.01
746.38	314.95
746.78	312.61
747.18	364.1
747.58	265.8
747.98	317.29
748.38	307.93
748.779	352.4
749.179	326.65
749.578	296.22
749.978	331.33
750.377	261.12
750.777	293.88
751.176	345.38
751.575	303.25
751.975	324.31
752.374	350.06
752.773	319.63
753.172	298.56
753.571	375.8
753.97	354.74
754.369	300.91
754.768	314.95
755.166	345.38
755.565	319.63
755.964	317.29
756.362	310.27
756.761	321.97
757.159	298.56
757.558	347.72
757.956	317.29
758.354	324.31
758.753	263.46
759.151	298.56
759.549	328.99
759.947	321.97
760.345	331.33
760.743	319.63
761.141	350.06
761.539	296.22
761.936	324.31
762.334	305.59
762.732	366.44
763.129	338.35
763.527	321.97
763.924	354.74
764.322	345.38
764.719	305.59
765.117	357.08
765.514	380.48
765.911	289.2
766.308	251.75
766.705	378.14
767.102	286.86
767.499	279.84
767.896	270.48
768.293	312.61
768.69	352.4
769.086	368.78
769.483	345.38
769.88	317.29
770.276	338.35
770.673	293.88
771.069	347.72
771.466	359.42
771.862	312.61
772.258	300.91
772.654	310.27
773.05	328.99
773.447	254.09
773.843	338.35
774.239	361.76
774.634	361.76
775.03	291.54
775.426	310.27
775.822	333.67
776.218	345.38
776.613	303.25
777.009	357.08
777.404	286.86
777.8	265.8
778.195	331.33
778.59	305.59
778.986	333.67
779.381	331.33
779.776	394.53
780.171	352.4
780.566	307.93
780.961	336.01
781.356	389.85
781.751	343.03
782.146	317.29
782.54	354.74
782.935	321.97
783.33	265.8
783.724	392.19
784.119	256.43
784.513	364.1
784.908	300.91
785.302	314.95
785.696	331.33
786.09	333.67
786.485	373.46
786.879	343.03
787.273	382.82
787.667	338.35
788.061	326.65
788.454	293.88
788.848	354.74
789.242	331.33
789.636	366.44
790.029	326.65
790.423	305.59
790.816	354.74
791.21	361.76
791.603	357.08
791.997	265.8
792.39	289.2
792.783	289.2
793.176	312.61
793.569	366.44
793.962	347.72
794.355	340.69
794.748	293.88
795.141	343.03
795.534	347.72
795.927	286.86
796.319	347.72
796.712	380.48
797.105	293.88
797.497	328.99
797.89	293.88
798.282	277.5
798.674	298.56
799.067	357.08
799.459	291.54
799.851	296.22
800.243	359.42
800.635	321.97
801.027	333.67
801.419	357.08
801.811	307.93
802.203	328.99
802.594	357.08
802.986	354.74
803.378	296.22
803.769	368.78
804.161	314.95
804.552	291.54
804.944	312.61
805.335	321.97
805.726	347.72
806.118	317.29
806.509	319.63
806.9	291.54
807.291	300.91
807.682	333.67
808.073	275.16
808.464	286.86
808.855	343.03
809.245	324.31
809.636	345.38
810.027	314.95
810.417	303.25
810.808	265.8
811.198	336.01
811.589	307.93
811.979	284.52
812.369	296.22
812.759	286.86
813.15	284.52
813.54	317.29
813.93	310.27
814.32	336.01
814.71	368.78
815.1	296.22
815.489	345.38
815.879	347.72
816.269	312.61
816.658	371.12
817.048	350.06
817.438	354.74
817.827	300.91
818.216	352.4
818.606	345.38
818.995	328.99
819.384	340.69
819.773	305.59
820.163	368.78
820.552	326.65
820.941	324.31
821.33	343.03
821.718	382.82
822.107	352.4
822.496	293.88
822.885	321.97
823.273	312.61
823.662	312.61
824.05	345.38
824.439	389.85
824.827	310.27
825.216	324.31
825.604	324.31
825.992	312.61
826.38	303.25
826.768	413.25
827.156	279.84
827.544	298.56
827.932	338.35
828.32	305.59
828.708	249.41
829.096	387.5
829.483	345.38
829.871	338.35
830.259	336.01
830.646	392.19
831.034	366.44
831.421	293.88
831.808	338.35
832.196	364.1
832.583	321.97
832.97	300.91
833.357	324.31
833.744	333.67
834.131	261.12
834.518	343.03
834.905	338.35
835.292	340.69
835.678	331.33
836.065	387.5
836.452	354.74
836.838	361.76
837.225	343.03
837.611	305.59
837.998	333.67
838.384	321.97
838.77	303.25
839.157	298.56
839.543	298.56
839.929	284.52
840.315	328.99
840.701	310.27
841.087	307.93
841.473	401.55
841.858	277.5
842.244	413.25
842.63	338.35
843.015	326.65
843.401	630.92
843.787	312.61
844.172	310.27
844.557	352.4
844.943	359.42
845.328	366.44
845.713	357.08
846.098	333.67
846.483	336.01
846.868	357.08
847.253	319.63
847.638	314.95
848.023	303.25
848.408	336.01
848.793	282.18
849.177	319.63
849.562	368.78
849.947	338.35
850.331	340.69
850.715	328.99
851.1	300.91
851.484	324.31
851.868	333.67
852.253	333.67
852.637	328.99
853.021	310.27
853.405	317.29
853.789	354.74
854.173	247.07
854.557	310.27
854.94	254.09
855.324	289.2
855.708	359.42
856.091	352.4
856.475	361.76
856.858	366.44
857.242	387.5
857.625	277.5
858.009	265.8
858.392	336.01
858.775	314.95
859.158	352.4
859.541	279.84
859.924	319.63
860.307	303.25
860.69	321.97
861.073	312.61
861.456	331.33
861.838	286.86
862.221	357.08
862.604	314.95
862.986	385.16
863.369	338.35
863.751	303.25
864.133	296.22
864.516	284.52
864.898	352.4
865.28	371.12
865.662	310.27
866.044	364.1
866.426	352.4
866.808	312.61
867.19	298.56
867.572	366.44
867.954	336.01
868.336	275.16
868.717	263.46
869.099	350.06
869.48	314.95
869.862	307.93
870.243	300.91
870.625	296.22
871.006	300.91
871.387	387.5
871.768	289.2
872.149	366.44
872.53	321.97
872.911	352.4
873.292	319.63
873.673	317.29
874.054	361.76
874.435	352.4
874.815	270.48
875.196	380.48
875.577	317.29
875.957	293.88
876.338	350.06
876.718	340.69
877.098	326.65
877.479	368.78
877.859	319.63
878.239	254.09
878.619	333.67
878.999	307.93
879.379	385.16
879.759	305.59
880.139	352.4
880.519	307.93
880.898	317.29
881.278	333.67
881.658	382.82
882.037	359.42
882.417	354.74
882.796	284.52
883.176	317.29
883.555	345.38
883.934	305.59
884.313	378.14
884.693	357.08
885.072	303.25
885.451	293.88
885.83	345.38
886.209	352.4
886.587	328.99
886.966	235.37
887.345	347.72
887.724	345.38
888.102	317.29
888.481	399.21
888.859	328.99
889.238	343.03
889.616	279.84
889.994	298.56
890.373	350.06
890.751	277.5
891.129	321.97
891.507	321.97
891.885	270.48
892.263	328.99
892.641	265.8
893.019	413.25
893.396	347.72
893.774	289.2
894.152	282.18
894.529	328.99
894.907	343.03
895.284	319.63
895.662	293.88
896.039	328.99
896.416	291.54
896.794	340.69
897.171	347.72
897.548	343.03
897.925	352.4
898.302	291.54
898.679	282.18
899.056	277.5
899.433	303.25
899.809	307.93
900.186	333.67
900.563	343.03
900.939	364.1
901.316	357.08
901.692	307.93
902.069	331.33
902.445	307.93
902.821	410.91
903.197	324.31
903.574	373.46
903.95	361.76
904.326	321.97
904.702	354.74
905.078	364.1
905.454	317.29
905.829	331.33
906.205	366.44
906.581	307.93
906.956	312.61
907.332	364.1
907.707	324.31
908.083	254.09
908.458	364.1
908.833	385.16
909.209	317.29
909.584	331.33
909.959	258.78
910.334	378.14
910.709	226.01
911.084	354.74
911.459	282.18
911.834	317.29
912.209	324.31
912.583	319.63
912.958	307.93
913.333	314.95
913.707	293.88
914.082	312.61
914.456	300.91
914.83	317.29
915.205	326.65
915.579	310.27
915.953	277.5
916.327	305.59
916.701	298.56
917.075	359.42
917.449	328.99
917.823	340.69
918.197	321.97
918.571	312.61
918.944	352.4
919.318	352.4
919.692	258.78
920.065	291.54
920.438	333.67
920.812	279.84
921.185	326.65
921.558	336.01
921.932	352.4
922.305	387.5
922.678	350.06
923.051	331.33
923.424	312.61
923.797	354.74
924.17	305.59
924.542	361.76
924.915	375.8
925.288	310.27
925.661	284.52
926.033	312.61
926.406	289.2
926.778	380.48
927.15	310.27
927.523	328.99
927.895	310.27
928.267	284.52
928.639	298.56
929.011	314.95
929.383	328.99
929.755	343.03
930.127	258.78
930.499	293.88
930.871	387.5
931.242	375.8
931.614	336.01
931.986	321.97
932.357	272.82
932.729	310.27
933.1	328.99
933.471	321.97
933.843	319.63
934.214	343.03
934.585	366.44
934.956	328.99
935.327	361.76
935.698	319.63
936.069	284.52
936.44	314.95
936.811	319.63
937.182	265.8
937.552	230.69
937.923	296.22
938.293	279.84
938.664	296.22
939.034	328.99
939.405	331.33
939.775	256.43
940.145	364.1
940.516	345.38
940.886	338.35
941.256	305.59
941.626	333.67
941.996	354.74
942.366	275.16
942.735	305.59
943.105	326.65
943.475	317.29
943.845	317.29
944.214	296.22
944.584	317.29
944.953	307.93
945.323	298.56
945.692	336.01
946.061	321.97
946.43	321.97
946.8	289.2
947.169	331.33
947.538	359.42
947.907	328.99
948.276	319.63
948.645	321.97
949.013	277.5
949.382	314.95
949.751	305.59
950.119	328.99
950.488	338.35
950.857	326.65
951.225	336.01
951.593	293.88
951.962	286.86
952.33	361.76
952.698	354.74
953.066	317.29
953.434	333.67
953.802	289.2
954.17	312.61
954.538	331.33
954.906	345.38
955.274	317.29
955.642	354.74
956.009	366.44
956.377	277.5
956.744	326.65
957.112	387.5
957.479	228.35
957.847	300.91
958.214	284.52
958.581	368.78
958.948	286.86
959.315	300.91
959.683	361.76
960.05	286.86
960.416	408.57
960.783	350.06
961.15	343.03
961.517	382.82
961.884	317.29
962.25	265.8
962.617	319.63
962.983	354.74
963.35	321.97
963.716	275.16
964.082	282.18
964.449	314.95
964.815	336.01
965.181	343.03
965.547	357.08
965.913	328.99
966.279	317.29
966.645	261.12
967.011	350.06
967.377	296.22
967.742	272.82
968.108	317.29
968.474	340.69
968.839	338.35
969.205	270.48
969.57	324.31
969.935	331.33
970.301	338.35
970.666	319.63
971.031	401.55
971.396	326.65
971.761	296.22
972.126	310.27
972.491	394.53
972.856	312.61
973.221	293.88
973.586	218.99
973.95	282.18
974.315	333.67
974.679	347.72
975.044	314.95
975.408	314.95
975.773	366.44
976.137	321.97
976.501	328.99
976.866	307.93
977.23	326.65
977.594	263.46
977.958	343.03
978.322	300.91
978.686	350.06
979.049	321.97
979.413	319.63
979.777	303.25
980.141	347.72
980.504	282.18
980.868	319.63
981.231	361.76
981.595	324.31
981.958	305.59
982.321	347.72
982.684	305.59
983.048	312.61
983.411	289.2
983.774	307.93
984.137	263.46
984.5	293.88
984.862	310.27
985.225	321.97
985.588	289.2
985.951	333.67
986.313	263.46
986.676	305.59
987.038	319.63
987.401	364.1
987.763	289.2
988.125	286.86
988.488	336.01
988.85	380.48
989.212	256.43
989.574	265.8
989.936	340.69
990.298	321.97
990.66	420.27
991.022	300.91
991.383	310.27
991.745	352.4
992.107	296.22
992.468	284.52
992.83	263.46
993.191	343.03
993.553	331.33
993.914	321.97
994.275	305.59
994.637	343.03
994.998	331.33
995.359	375.8
995.72	314.95
996.081	321.97
996.442	251.75
996.803	380.48
997.163	300.91
997.524	331.33
997.885	347.72
998.245	326.65
998.606	350.06
998.966	324.31
999.327	258.78
999.687	296.22
1000.047	340.69
1000.408	258.78
1000.768	396.87
1001.128	289.2
1001.488	373.46
1001.848	324.31
1002.208	364.1
1002.568	263.46
1002.927	279.84
1003.287	331.33
1003.647	307.93
1004.007	336.01
1004.366	338.35
1004.726	317.29
1005.085	324.31
1005.444	265.8
1005.804	293.88
1006.163	319.63
1006.522	298.56
1006.881	284.52
1007.24	296.22
1007.599	244.73
1007.958	328.99
1008.317	345.38
1008.676	310.27
1009.035	321.97
1009.393	286.86
1009.752	291.54
1010.111	289.2
1010.469	366.44
1010.828	343.03
1011.186	331.33
1011.544	385.16
1011.903	336.01
1012.261	305.59
1012.619	373.46
1012.977	343.03
1013.335	389.85
1013.693	340.69
1014.051	396.87
1014.409	265.8
1014.767	307.93
1015.124	359.42
1015.482	413.25
1015.84	333.67
1016.197	268.14
1016.555	326.65
1016.912	268.14
1017.269	324.31
1017.627	317.29
1017.984	303.25
1018.341	284.52
1018.698	340.69
1019.055	350.06
1019.412	326.65
1019.769	305.59
1020.126	357.08
1020.483	282.18
1020.84	277.5
1021.196	326.65
1021.553	368.78
1021.909	282.18
1022.266	347.72
1022.622	284.52
1022.979	270.48
1023.335	371.12
1023.691	343.03
1024.047	357.08
1024.404	328.99
1024.76	307.93
1025.116	382.82
1025.472	326.65
1025.827	272.82
1026.183	300.91
1026.539	368.78
1026.895	298.56
1027.25	350.06
1027.606	291.54
1027.961	324.31
1028.317	319.63
1028.672	289.2
1029.028	310.27
1029.383	277.5
1029.738	275.16
1030.093	291.54
1030.448	317.29
1030.803	310.27
1031.158	265.8
1031.513	319.63
1031.868	310.27
1032.223	293.88
1032.577	268.14
1032.932	263.46
1033.287	347.72
1033.641	338.35
1033.996	338.35
1034.35	359.42
1034.704	291.54
1035.059	361.76
1035.413	277.5
1035.767	277.5
1036.121	277.5
