Data from Al_FLMS009871__1252__16-46-16-172.txt Node

Date: Fri Mar 08 16:46:16 CST 2024
User: pe5414po
Spectrometer: FLMS00987
Trigger mode: 0
Integration Time (sec): 1.000000E-1
Scans to average: 1
Electric dark correction enabled: true
Nonlinearity correction enabled: false
Boxcar width: 0
XAxis mode: Wavelengths
Number of Pixels in Spectrum: 2048
>>>>>Begin Spectral Data<<<<<
188.938	-33.06
189.409	-33.06
189.879	-33.06
190.349	-93.91
190.819	-16.68
191.29	-89.23
191.76	-129.02
192.23	-131.36
192.7	-58.81
193.17	-86.89
193.64	-0.29
194.109	-49.44
194.579	-7.31
195.049	51.2
195.519	-42.42
195.988	67.58
196.458	23.11
196.927	90.99
197.397	93.33
197.866	144.82
198.336	123.76
198.805	158.86
199.274	135.46
199.744	231.42
200.213	210.36
200.682	193.97
201.151	226.74
201.62	299.3
202.089	280.57
202.558	364.83
203.027	196.31
203.495	268.87
203.964	301.64
204.433	311
204.902	268.87
205.37	278.23
205.839	196.31
206.307	329.72
206.776	329.72
207.244	308.66
207.712	299.3
208.181	292.27
208.649	268.87
209.117	320.36
209.585	329.72
210.053	343.77
210.521	268.87
210.989	299.3
211.457	287.59
211.925	259.51
212.393	238.44
212.861	261.85
213.328	292.27
213.796	332.06
214.264	346.11
214.731	318.02
215.199	292.27
215.666	287.59
216.133	308.66
216.601	334.4
217.068	315.68
217.535	282.91
218.003	261.85
218.47	348.45
218.937	285.25
219.404	252.49
219.871	226.74
220.338	254.83
220.805	287.59
221.271	243.12
221.738	170.57
222.205	292.27
222.671	268.87
223.138	275.89
223.605	315.68
224.071	245.46
224.538	273.55
225.004	196.31
225.47	332.06
225.937	266.53
226.403	320.36
226.869	287.59
227.335	254.83
227.801	280.57
228.267	294.61
228.733	287.59
229.199	238.44
229.665	311
230.131	264.19
230.597	303.98
231.062	303.98
231.528	243.12
231.994	273.55
232.459	268.87
232.925	275.89
233.39	341.43
233.856	268.87
234.321	250.14
234.786	247.8
235.252	275.89
235.717	294.61
236.182	341.43
236.647	308.66
237.112	233.76
237.577	332.06
238.042	308.66
238.507	252.49
238.972	287.59
239.436	268.87
239.901	275.89
240.366	296.96
240.83	292.27
241.295	294.61
241.76	271.21
242.224	210.36
242.688	289.93
243.153	203.33
243.617	266.53
244.081	273.55
244.545	252.49
245.01	329.72
245.474	336.74
245.938	271.21
246.402	245.46
246.866	250.14
247.33	325.04
247.793	292.27
248.257	311
248.721	245.46
249.185	289.93
249.648	332.06
250.112	259.51
250.575	311
251.039	296.96
251.502	254.83
251.965	341.43
252.429	285.25
252.892	287.59
253.355	275.89
253.818	301.64
254.281	327.38
254.744	257.17
255.207	247.8
255.67	336.74
256.133	292.27
256.596	311
257.059	257.17
257.522	303.98
257.984	236.1
258.447	287.59
258.909	306.32
259.372	364.83
259.834	332.06
260.297	334.4
260.759	280.57
261.221	280.57
261.684	287.59
262.146	266.53
262.608	336.74
263.07	353.13
263.532	339.09
263.994	294.61
264.456	266.53
264.918	339.09
265.38	210.36
265.842	245.46
266.303	294.61
266.765	360.15
267.227	306.32
267.688	285.25
268.15	320.36
268.611	289.93
269.072	252.49
269.534	289.93
269.995	289.93
270.456	320.36
270.918	254.83
271.379	268.87
271.84	282.91
272.301	287.59
272.762	320.36
273.223	292.27
273.684	294.61
274.144	343.77
274.605	374.19
275.066	264.19
275.527	292.27
275.987	303.98
276.448	257.17
276.908	292.27
277.369	296.96
277.829	311
278.289	275.89
278.75	247.8
279.21	315.68
279.67	289.93
280.13	245.46
280.59	289.93
281.05	318.02
281.51	322.7
281.97	292.27
282.43	259.51
282.89	212.7
283.35	264.19
283.809	308.66
284.269	306.32
284.729	289.93
285.188	200.99
285.648	268.87
286.107	278.23
286.567	275.89
287.026	254.83
287.485	299.3
287.944	303.98
288.404	313.34
288.863	327.38
289.322	306.32
289.781	343.77
290.24	360.15
290.699	294.61
291.158	311
291.616	275.89
292.075	336.74
292.534	303.98
292.992	318.02
293.451	329.72
293.91	303.98
294.368	301.64
294.827	308.66
295.285	268.87
295.743	254.83
296.202	219.72
296.66	329.72
297.118	343.77
297.576	313.34
298.034	348.45
298.492	322.7
298.95	292.27
299.408	289.93
299.866	289.93
300.324	306.32
300.781	308.66
301.239	296.96
301.697	301.64
302.154	306.32
302.612	313.34
303.069	296.96
303.527	233.76
303.984	245.46
304.441	346.11
304.899	318.02
305.356	336.74
305.813	339.09
306.27	381.21
306.727	381.21
307.184	306.32
307.641	245.46
308.098	348.45
308.555	271.21
309.012	360.15
309.468	327.38
309.925	268.87
310.382	334.4
310.838	273.55
311.295	210.36
311.751	325.04
312.208	266.53
312.664	346.11
313.12	334.4
313.577	294.61
314.033	360.15
314.489	360.15
314.945	273.55
315.401	355.47
315.857	336.74
316.313	341.43
316.769	332.06
317.225	334.4
317.681	325.04
318.136	268.87
318.592	285.25
319.048	294.61
319.503	299.3
319.959	360.15
320.414	318.02
320.869	299.3
321.325	336.74
321.78	282.91
322.235	229.08
322.691	334.4
323.146	320.36
323.601	282.91
324.056	306.32
324.511	280.57
324.966	266.53
325.421	250.14
325.875	296.96
326.33	350.79
326.785	306.32
327.24	313.34
327.694	355.47
328.149	374.19
328.603	346.11
329.058	318.02
329.512	350.79
329.966	282.91
330.421	287.59
330.875	311
331.329	315.68
331.783	336.74
332.237	296.96
332.691	341.43
333.145	273.55
333.599	360.15
334.053	301.64
334.507	346.11
334.96	322.7
335.414	357.81
335.868	294.61
336.321	264.19
336.775	282.91
337.228	271.21
337.682	334.4
338.135	294.61
338.588	306.32
339.042	385.9
339.495	334.4
339.948	383.56
340.401	360.15
340.854	294.61
341.307	231.42
341.76	313.34
342.213	325.04
342.666	308.66
343.119	327.38
343.571	280.57
344.024	285.25
344.477	271.21
344.929	367.17
345.382	301.64
345.834	287.59
346.287	294.61
346.739	339.09
347.191	334.4
347.644	287.59
348.096	247.8
348.548	360.15
349	315.68
349.452	299.3
349.904	285.25
350.356	332.06
350.808	299.3
351.26	350.79
351.711	301.64
352.163	327.38
352.615	360.15
353.066	353.13
353.518	313.34
353.969	296.96
354.421	348.45
354.872	280.57
355.324	257.17
355.775	350.79
356.226	313.34
356.677	292.27
357.128	348.45
357.579	318.02
358.03	322.7
358.481	252.49
358.932	376.53
359.383	325.04
359.834	292.27
360.285	308.66
360.735	311
361.186	357.81
361.637	350.79
362.087	282.91
362.538	320.36
362.988	334.4
363.438	287.59
363.889	289.93
364.339	343.77
364.789	268.87
365.239	271.21
365.689	294.61
366.139	334.4
366.589	388.24
367.039	322.7
367.489	287.59
367.939	332.06
368.389	318.02
368.839	364.83
369.288	374.19
369.738	318.02
370.187	308.66
370.637	381.21
371.086	348.45
371.536	325.04
371.985	311
372.434	376.53
372.884	318.02
373.333	306.32
373.782	308.66
374.231	329.72
374.68	376.53
375.129	292.27
375.578	383.56
376.027	329.72
376.475	296.96
376.924	385.9
377.373	311
377.822	320.36
378.27	343.77
378.719	266.53
379.167	362.49
379.616	301.64
380.064	376.53
380.512	285.25
380.961	308.66
381.409	350.79
381.857	287.59
382.305	311
382.753	350.79
383.201	296.96
383.649	402.28
384.097	346.11
384.545	268.87
384.992	318.02
385.44	289.93
385.888	301.64
386.335	315.68
386.783	299.3
387.231	254.83
387.678	278.23
388.125	362.49
388.573	350.79
389.02	362.49
389.467	306.32
389.914	350.79
390.362	364.83
390.809	327.38
391.256	360.15
391.703	374.19
392.15	308.66
392.596	385.9
393.043	292.27
393.49	364.83
393.937	362.49
394.383	339.09
394.83	282.91
395.276	301.64
395.723	296.96
396.169	285.25
396.616	320.36
397.062	311
397.508	357.81
397.954	303.98
398.401	294.61
398.847	376.53
399.293	339.09
399.739	292.27
400.185	294.61
400.631	322.7
401.076	292.27
401.522	339.09
401.968	329.72
402.414	303.98
402.859	355.47
403.305	301.64
403.75	287.59
404.196	292.27
404.641	289.93
405.086	296.96
405.532	259.51
405.977	313.34
406.422	311
406.867	296.96
407.312	275.89
407.757	341.43
408.202	322.7
408.647	329.72
409.092	332.06
409.537	313.34
409.982	303.98
410.426	360.15
410.871	301.64
411.316	285.25
411.76	341.43
412.205	322.7
412.649	280.57
413.093	320.36
413.538	308.66
413.982	289.93
414.426	364.83
414.87	339.09
415.314	296.96
415.758	353.13
416.202	343.77
416.646	301.64
417.09	339.09
417.534	350.79
417.978	280.57
418.421	350.79
418.865	311
419.309	282.91
419.752	350.79
420.196	254.83
420.639	294.61
421.083	311
421.526	301.64
421.969	313.34
422.412	343.77
422.856	322.7
423.299	306.32
423.742	329.72
424.185	289.93
424.628	299.3
425.071	322.7
425.513	303.98
425.956	268.87
426.399	353.13
426.842	325.04
427.284	318.02
427.727	327.38
428.169	341.43
428.612	303.98
429.054	374.19
429.497	311
429.939	329.72
430.381	341.43
430.823	350.79
431.265	329.72
431.707	329.72
432.149	306.32
432.591	332.06
433.033	308.66
433.475	334.4
433.917	268.87
434.359	369.51
434.8	360.15
435.242	315.68
435.684	313.34
436.125	280.57
436.567	299.3
437.008	303.98
437.449	341.43
437.891	327.38
438.332	287.59
438.773	311
439.214	285.25
439.656	350.79
440.097	428.03
440.538	285.25
440.978	339.09
441.419	341.43
441.86	308.66
442.301	275.89
442.742	271.21
443.182	339.09
443.623	355.47
444.063	353.13
444.504	215.04
444.944	292.27
445.385	432.71
445.825	268.87
446.265	350.79
446.706	264.19
447.146	315.68
447.586	367.17
448.026	336.74
448.466	332.06
448.906	287.59
449.346	411.64
449.786	325.04
450.225	339.09
450.665	332.06
451.105	280.57
451.544	315.68
451.984	294.61
452.424	315.68
452.863	327.38
453.302	371.85
453.742	294.61
454.181	299.3
454.62	374.19
455.059	334.4
455.499	303.98
455.938	360.15
456.377	292.27
456.816	301.64
457.254	322.7
457.693	364.83
458.132	327.38
458.571	296.96
459.01	320.36
459.448	355.47
459.887	306.32
460.325	353.13
460.764	332.06
461.202	325.04
461.641	273.55
462.079	285.25
462.517	266.53
462.955	327.38
463.393	280.57
463.832	282.91
464.27	369.51
464.708	243.12
465.145	334.4
465.583	343.77
466.021	353.13
466.459	332.06
466.897	292.27
467.334	346.11
467.772	336.74
468.209	383.56
468.647	336.74
469.084	357.81
469.522	301.64
469.959	325.04
470.396	353.13
470.833	320.36
471.271	371.85
471.708	357.81
472.145	299.3
472.582	327.38
473.019	306.32
473.456	275.89
473.892	325.04
474.329	357.81
474.766	325.04
475.202	261.85
475.639	313.34
476.076	280.57
476.512	296.96
476.949	294.61
477.385	296.96
477.821	355.47
478.258	348.45
478.694	346.11
479.13	392.92
479.566	285.25
480.002	390.58
480.438	357.81
480.874	282.91
481.31	334.4
481.746	299.3
482.181	341.43
482.617	381.21
483.053	362.49
483.488	313.34
483.924	362.49
484.36	355.47
484.795	332.06
485.23	397.6
485.666	238.44
486.101	313.34
486.536	320.36
486.971	238.44
487.407	332.06
487.842	350.79
488.277	341.43
488.712	348.45
489.146	303.98
489.581	341.43
490.016	374.19
490.451	313.34
490.885	311
491.32	336.74
491.755	369.51
492.189	292.27
492.624	294.61
493.058	292.27
493.492	385.9
493.927	341.43
494.361	329.72
494.795	346.11
495.229	343.77
495.663	367.17
496.097	378.87
496.531	320.36
496.965	357.81
497.399	397.6
497.833	311
498.266	341.43
498.7	282.91
499.134	329.72
499.567	299.3
500.001	320.36
500.434	350.79
500.868	311
501.301	348.45
501.734	404.62
502.168	409.3
502.601	341.43
503.034	367.17
503.467	320.36
503.9	339.09
504.333	327.38
504.766	364.83
505.199	348.45
505.632	287.59
506.064	371.85
506.497	264.19
506.93	320.36
507.362	320.36
507.795	275.89
508.227	397.6
508.66	357.81
509.092	287.59
509.524	282.91
509.956	332.06
510.389	336.74
510.821	311
511.253	406.96
511.685	334.4
512.117	303.98
512.549	320.36
512.981	287.59
513.412	397.6
513.844	374.19
514.276	336.74
514.707	376.53
515.139	360.15
515.571	378.87
516.002	329.72
516.433	343.77
516.865	362.49
517.296	378.87
517.727	322.7
518.159	357.81
518.59	355.47
519.021	313.34
519.452	332.06
519.883	266.53
520.314	329.72
520.744	311
521.175	322.7
521.606	369.51
522.037	294.61
522.467	348.45
522.898	320.36
523.328	280.57
523.759	360.15
524.189	303.98
524.62	315.68
525.05	343.77
525.48	479.52
525.91	402.28
526.341	346.11
526.771	285.25
527.201	364.83
527.631	343.77
528.061	287.59
528.49	282.91
528.92	332.06
529.35	268.87
529.78	350.79
530.209	369.51
530.639	301.64
531.068	350.79
531.498	303.98
531.927	341.43
532.357	313.34
532.786	325.04
533.215	313.34
533.644	322.7
534.074	360.15
534.503	280.57
534.932	341.43
535.361	266.53
535.79	378.87
536.218	294.61
536.647	301.64
537.076	313.34
537.505	374.19
537.933	299.3
538.362	374.19
538.79	311
539.219	397.6
539.647	320.36
540.076	371.85
540.504	339.09
540.932	357.81
541.36	303.98
541.788	292.27
542.217	327.38
542.645	245.46
543.073	301.64
543.5	336.74
543.928	315.68
544.356	339.09
544.784	367.17
545.211	325.04
545.639	339.09
546.067	275.89
546.494	357.81
546.922	325.04
547.349	318.02
547.776	409.3
548.204	299.3
548.631	222.06
549.058	346.11
549.485	353.13
549.912	341.43
550.339	367.17
550.766	299.3
551.193	301.64
551.62	355.47
552.047	341.43
552.474	282.91
552.9	339.09
553.327	259.51
553.754	367.17
554.18	346.11
554.607	339.09
555.033	264.19
555.459	369.51
555.886	287.59
556.312	268.87
556.738	343.77
557.164	296.96
557.59	341.43
558.016	341.43
558.442	294.61
558.868	303.98
559.294	289.93
559.72	289.93
560.145	303.98
560.571	313.34
560.997	336.74
561.422	287.59
561.848	357.81
562.273	364.83
562.699	308.66
563.124	329.72
563.549	402.28
563.974	353.13
564.4	357.81
564.825	315.68
565.25	353.13
565.675	334.4
566.1	327.38
566.525	357.81
566.95	364.83
567.374	336.74
567.799	392.92
568.224	282.91
568.648	334.4
569.073	306.32
569.497	339.09
569.922	315.68
570.346	320.36
570.771	346.11
571.195	294.61
571.619	339.09
572.043	360.15
572.467	339.09
572.891	348.45
573.315	322.7
573.739	357.81
574.163	360.15
574.587	339.09
575.011	259.51
575.435	350.79
575.858	315.68
576.282	360.15
576.705	367.17
577.129	271.21
577.552	308.66
577.976	322.7
578.399	313.34
578.822	311
579.245	339.09
579.669	325.04
580.092	355.47
580.515	318.02
580.938	311
581.361	315.68
581.784	322.7
582.206	339.09
582.629	329.72
583.052	311
583.474	350.79
583.897	322.7
584.32	325.04
584.742	311
585.165	343.77
585.587	336.74
586.009	332.06
586.431	322.7
586.854	278.23
587.276	332.06
587.698	334.4
588.12	327.38
588.542	397.6
588.964	327.38
589.386	299.3
589.807	355.47
590.229	334.4
590.651	322.7
591.073	315.68
591.494	329.72
591.916	315.68
592.337	341.43
592.759	303.98
593.18	350.79
593.601	278.23
594.022	285.25
594.444	355.47
594.865	303.98
595.286	285.25
595.707	308.66
596.128	360.15
596.549	301.64
596.97	318.02
597.39	406.96
597.811	301.64
598.232	388.24
598.652	273.55
599.073	287.59
599.494	350.79
599.914	362.49
600.334	322.7
600.755	306.32
601.175	280.57
601.595	346.11
602.015	332.06
602.436	299.3
602.856	411.64
603.276	301.64
603.696	287.59
604.115	346.11
604.535	329.72
604.955	367.17
605.375	273.55
605.794	341.43
606.214	282.91
606.634	367.17
607.053	348.45
607.473	306.32
607.892	406.96
608.311	334.4
608.731	339.09
609.15	362.49
609.569	346.11
609.988	261.85
610.407	285.25
610.826	259.51
611.245	355.47
611.664	282.91
612.083	254.83
612.501	332.06
612.92	313.34
613.339	329.72
613.757	311
614.176	353.13
614.594	346.11
615.013	350.79
615.431	301.64
615.85	311
616.268	332.06
616.686	315.68
617.104	341.43
617.522	306.32
617.94	353.13
618.358	308.66
618.776	322.7
619.194	271.21
619.612	318.02
620.03	341.43
620.447	329.72
620.865	275.89
621.282	353.13
621.7	381.21
622.117	303.98
622.535	385.9
622.952	360.15
623.369	411.64
623.787	318.02
624.204	285.25
624.621	278.23
625.038	318.02
625.455	367.17
625.872	362.49
626.289	313.34
626.706	327.38
627.123	301.64
627.539	399.94
627.956	327.38
628.373	332.06
628.789	320.36
629.206	348.45
629.622	327.38
630.038	278.23
630.455	280.57
630.871	325.04
631.287	357.81
631.703	343.77
632.12	271.21
632.536	343.77
632.952	318.02
633.368	357.81
633.783	378.87
634.199	339.09
634.615	313.34
635.031	348.45
635.446	315.68
635.862	280.57
636.277	371.85
636.693	318.02
637.108	320.36
637.524	406.96
637.939	287.59
638.354	308.66
638.77	334.4
639.185	334.4
639.6	374.19
640.015	294.61
640.43	306.32
640.845	397.6
641.259	360.15
641.674	296.96
642.089	285.25
642.504	289.93
642.918	308.66
643.333	318.02
643.747	322.7
644.162	294.61
644.576	381.21
644.991	362.49
645.405	334.4
645.819	285.25
646.233	308.66
646.647	289.93
647.061	294.61
647.475	336.74
647.889	318.02
648.303	254.83
648.717	329.72
649.131	318.02
649.545	329.72
649.958	296.96
650.372	320.36
650.785	292.27
651.199	292.27
651.612	353.13
652.026	303.98
652.439	315.68
652.852	287.59
653.266	371.85
653.679	285.25
654.092	355.47
654.505	318.02
654.918	355.47
655.331	257.17
655.744	285.25
656.156	264.19
656.569	339.09
656.982	348.45
657.394	360.15
657.807	327.38
658.22	348.45
658.632	339.09
659.044	343.77
659.457	336.74
659.869	292.27
660.281	353.13
660.693	315.68
661.106	341.43
661.518	353.13
661.93	376.53
662.342	299.3
662.754	327.38
663.165	369.51
663.577	313.34
663.989	325.04
664.401	287.59
664.812	306.32
665.224	299.3
665.635	369.51
666.047	303.98
666.458	322.7
666.869	355.47
667.281	367.17
667.692	322.7
668.103	341.43
668.514	271.21
668.925	329.72
669.336	376.53
669.747	266.53
670.158	294.61
670.569	264.19
670.979	334.4
671.39	278.23
671.801	294.61
672.211	257.17
672.622	315.68
673.032	332.06
673.443	299.3
673.853	280.57
674.263	275.89
674.674	411.64
675.084	336.74
675.494	278.23
675.904	334.4
676.314	369.51
676.724	282.91
677.134	353.13
677.544	346.11
677.953	388.24
678.363	350.79
678.773	334.4
679.182	257.17
679.592	329.72
680.001	364.83
680.411	318.02
680.82	378.87
681.23	318.02
681.639	292.27
682.048	301.64
682.457	353.13
682.866	257.17
683.275	320.36
683.684	273.55
684.093	273.55
684.502	308.66
684.911	360.15
685.32	371.85
685.728	334.4
686.137	320.36
686.546	381.21
686.954	303.98
687.363	336.74
687.771	303.98
688.179	254.83
688.588	313.34
688.996	332.06
689.404	306.32
689.812	322.7
690.22	367.17
690.628	336.74
691.036	266.53
691.444	303.98
691.852	360.15
692.26	357.81
692.667	343.77
693.075	332.06
693.483	346.11
693.89	322.7
694.298	325.04
694.705	341.43
695.112	332.06
695.52	357.81
695.927	299.3
696.334	318.02
696.741	308.66
697.148	332.06
697.555	343.77
697.962	348.45
698.369	287.59
698.776	264.19
699.183	350.79
699.59	275.89
699.996	311
700.403	322.7
700.81	287.59
701.216	341.43
701.623	289.93
702.029	339.09
702.435	327.38
702.842	364.83
703.248	327.38
703.654	334.4
704.06	413.98
704.466	343.77
704.872	325.04
705.278	315.68
705.684	346.11
706.09	343.77
706.496	332.06
706.901	336.74
707.307	355.47
707.712	278.23
708.118	275.89
708.523	261.85
708.929	320.36
709.334	311
709.74	318.02
710.145	285.25
710.55	343.77
710.955	306.32
711.36	240.78
711.765	311
712.17	280.57
712.575	341.43
712.98	832.94
713.385	350.79
713.789	320.36
714.194	315.68
714.599	303.98
715.003	320.36
715.408	346.11
715.812	282.91
716.217	369.51
716.621	355.47
717.025	315.68
717.429	301.64
717.833	381.21
718.238	332.06
718.642	348.45
719.046	332.06
719.449	315.68
719.853	360.15
720.257	364.83
720.661	250.14
721.065	332.06
721.468	261.85
721.872	289.93
722.275	362.49
722.679	285.25
723.082	294.61
723.485	329.72
723.889	311
724.292	313.34
724.695	397.6
725.098	285.25
725.501	339.09
725.904	381.21
726.307	322.7
726.71	313.34
727.113	243.12
727.516	311
727.918	318.02
728.321	327.38
728.724	313.34
729.126	334.4
729.529	357.81
729.931	311
730.333	367.17
730.736	360.15
731.138	289.93
731.54	325.04
731.942	325.04
732.344	306.32
732.746	285.25
733.148	301.64
733.55	303.98
733.952	378.87
734.354	275.89
734.756	299.3
735.157	292.27
735.559	313.34
735.96	285.25
736.362	378.87
736.763	362.49
737.165	339.09
737.566	303.98
737.967	275.89
738.368	289.93
738.77	303.98
739.171	353.13
739.572	313.34
739.973	336.74
740.374	315.68
740.774	346.11
741.175	369.51
741.576	392.92
741.977	362.49
742.377	336.74
742.778	329.72
743.178	322.7
743.579	315.68
743.979	322.7
744.379	311
744.78	315.68
745.18	275.89
745.58	308.66
745.98	275.89
746.38	339.09
746.78	299.3
747.18	374.19
747.58	329.72
747.98	308.66
748.38	399.94
748.779	381.21
749.179	367.17
749.578	353.13
749.978	259.51
750.377	285.25
750.777	322.7
751.176	296.96
751.575	336.74
751.975	261.85
752.374	294.61
752.773	266.53
753.172	285.25
753.571	282.91
753.97	292.27
754.369	280.57
754.768	374.19
755.166	294.61
755.565	282.91
755.964	334.4
756.362	329.72
756.761	301.64
757.159	285.25
757.558	334.4
757.956	336.74
758.354	282.91
758.753	329.72
759.151	369.51
759.549	392.92
759.947	376.53
760.345	268.87
760.743	278.23
761.141	346.11
761.539	334.4
761.936	306.32
762.334	303.98
762.732	294.61
763.129	325.04
763.527	355.47
763.924	303.98
764.322	374.19
764.719	322.7
765.117	369.51
765.514	376.53
765.911	299.3
766.308	343.77
766.705	383.56
767.102	332.06
767.499	259.51
767.896	315.68
768.293	327.38
768.69	348.45
769.086	355.47
769.483	341.43
769.88	346.11
770.276	320.36
770.673	311
771.069	306.32
771.466	308.66
771.862	292.27
772.258	362.49
772.654	357.81
773.05	322.7
773.447	315.68
773.843	329.72
774.239	336.74
774.634	362.49
775.03	308.66
775.426	271.21
775.822	325.04
776.218	357.81
776.613	369.51
777.009	315.68
777.404	334.4
777.8	322.7
778.195	231.42
778.59	318.02
778.986	299.3
779.381	322.7
779.776	313.34
780.171	318.02
780.566	311
780.961	273.55
781.356	364.83
781.751	238.44
782.146	301.64
782.54	301.64
782.935	362.49
783.33	311
783.724	318.02
784.119	273.55
784.513	348.45
784.908	327.38
785.302	306.32
785.696	292.27
786.09	287.59
786.485	282.91
786.879	385.9
787.273	322.7
787.667	287.59
788.061	318.02
788.454	399.94
788.848	301.64
789.242	294.61
789.636	341.43
790.029	264.19
790.423	313.34
790.816	320.36
791.21	327.38
791.603	327.38
791.997	320.36
792.39	355.47
792.783	306.32
793.176	367.17
793.569	311
793.962	371.85
794.355	311
794.748	350.79
795.141	334.4
795.534	301.64
795.927	308.66
796.319	381.21
796.712	299.3
797.105	233.76
797.497	250.14
797.89	334.4
798.282	280.57
798.674	301.64
799.067	339.09
799.459	332.06
799.851	374.19
800.243	287.59
800.635	339.09
801.027	367.17
801.419	350.79
801.811	311
802.203	299.3
802.594	367.17
802.986	348.45
803.378	322.7
803.769	320.36
804.161	357.81
804.552	296.96
804.944	329.72
805.335	271.21
805.726	348.45
806.118	282.91
806.509	350.79
806.9	320.36
807.291	315.68
807.682	334.4
808.073	287.59
808.464	271.21
808.855	334.4
809.245	285.25
809.636	299.3
810.027	318.02
810.417	320.36
810.808	346.11
811.198	350.79
811.589	292.27
811.979	315.68
812.369	301.64
812.759	385.9
813.15	318.02
813.54	348.45
813.93	327.38
814.32	334.4
814.71	311
815.1	343.77
815.489	357.81
815.879	306.32
816.269	355.47
816.658	381.21
817.048	285.25
817.438	339.09
817.827	271.21
818.216	339.09
818.606	341.43
818.995	388.24
819.384	292.27
819.773	287.59
820.163	348.45
820.552	303.98
820.941	322.7
821.33	329.72
821.718	313.34
822.107	320.36
822.496	318.02
822.885	313.34
823.273	339.09
823.662	322.7
824.05	334.4
824.439	325.04
824.827	303.98
825.216	325.04
825.604	336.74
825.992	346.11
826.38	294.61
826.768	341.43
827.156	332.06
827.544	268.87
827.932	320.36
828.32	299.3
828.708	303.98
829.096	285.25
829.483	280.57
829.871	273.55
830.259	301.64
830.646	285.25
831.034	318.02
831.421	292.27
831.808	339.09
832.196	315.68
832.583	308.66
832.97	325.04
833.357	385.9
833.744	339.09
834.131	257.17
834.518	325.04
834.905	336.74
835.292	325.04
835.678	268.87
836.065	318.02
836.452	266.53
836.838	278.23
837.225	318.02
837.611	266.53
837.998	320.36
838.384	332.06
838.77	294.61
839.157	315.68
839.543	308.66
839.929	311
840.315	350.79
840.701	332.06
841.087	308.66
841.473	334.4
841.858	259.51
842.244	355.47
842.63	308.66
843.015	325.04
843.401	664.42
843.787	364.83
844.172	245.46
844.557	348.45
844.943	299.3
845.328	311
845.713	367.17
846.098	311
846.483	278.23
846.868	287.59
847.253	357.81
847.638	268.87
848.023	343.77
848.408	322.7
848.793	318.02
849.177	325.04
849.562	346.11
849.947	318.02
850.331	355.47
850.715	357.81
851.1	294.61
851.484	301.64
851.868	339.09
852.253	273.55
852.637	343.77
853.021	318.02
853.405	245.46
853.789	301.64
854.173	273.55
854.557	318.02
854.94	287.59
855.324	343.77
855.708	320.36
856.091	320.36
856.475	320.36
856.858	332.06
857.242	275.89
857.625	348.45
858.009	343.77
858.392	329.72
858.775	313.34
859.158	299.3
859.541	390.58
859.924	318.02
860.307	329.72
860.69	350.79
861.073	325.04
861.456	336.74
861.838	357.81
862.221	296.96
862.604	327.38
862.986	308.66
863.369	296.96
863.751	325.04
864.133	308.66
864.516	287.59
864.898	343.77
865.28	332.06
865.662	294.61
866.044	301.64
866.426	336.74
866.808	322.7
867.19	332.06
867.572	341.43
867.954	325.04
868.336	315.68
868.717	327.38
869.099	271.21
869.48	257.17
869.862	374.19
870.243	303.98
870.625	311
871.006	329.72
871.387	261.85
871.768	311
872.149	322.7
872.53	329.72
872.911	320.36
873.292	311
873.673	390.58
874.054	318.02
874.435	315.68
874.815	287.59
875.196	329.72
875.577	341.43
875.957	353.13
876.338	355.47
876.718	271.21
877.098	381.21
877.479	294.61
877.859	261.85
878.239	311
878.619	334.4
878.999	313.34
879.379	289.93
879.759	268.87
880.139	320.36
880.519	322.7
880.898	364.83
881.278	282.91
881.658	275.89
882.037	353.13
882.417	224.4
882.796	268.87
883.176	301.64
883.555	336.74
883.934	299.3
884.313	301.64
884.693	299.3
885.072	353.13
885.451	329.72
885.83	325.04
886.209	376.53
886.587	296.96
886.966	299.3
887.345	371.85
887.724	402.28
888.102	339.09
888.481	332.06
888.859	362.49
889.238	313.34
889.616	292.27
889.994	348.45
890.373	294.61
890.751	364.83
891.129	308.66
891.507	325.04
891.885	348.45
892.263	332.06
892.641	348.45
893.019	320.36
893.396	303.98
893.774	385.9
894.152	313.34
894.529	334.4
894.907	296.96
895.284	322.7
895.662	362.49
896.039	350.79
896.416	308.66
896.794	261.85
897.171	257.17
897.548	378.87
897.925	303.98
898.302	268.87
898.679	273.55
899.056	299.3
899.433	327.38
899.809	299.3
900.186	308.66
900.563	287.59
900.939	334.4
901.316	320.36
901.692	301.64
902.069	320.36
902.445	294.61
902.821	355.47
903.197	306.32
903.574	282.91
903.95	320.36
904.326	318.02
904.702	353.13
905.078	313.34
905.454	339.09
905.829	362.49
906.205	278.23
906.581	261.85
906.956	313.34
907.332	353.13
907.707	341.43
908.083	289.93
908.458	254.83
908.833	285.25
909.209	303.98
909.584	364.83
909.959	278.23
910.334	371.85
910.709	350.79
911.084	336.74
911.459	259.51
911.834	350.79
912.209	318.02
912.583	275.89
912.958	306.32
913.333	378.87
913.707	299.3
914.082	329.72
914.456	336.74
914.83	299.3
915.205	299.3
915.579	264.19
915.953	306.32
916.327	240.78
916.701	278.23
917.075	339.09
917.449	287.59
917.823	289.93
918.197	374.19
918.571	280.57
918.944	399.94
919.318	303.98
919.692	339.09
920.065	292.27
920.438	292.27
920.812	327.38
921.185	289.93
921.558	306.32
921.932	381.21
922.305	278.23
922.678	371.85
923.051	329.72
923.424	289.93
923.797	318.02
924.17	341.43
924.542	294.61
924.915	306.32
925.288	315.68
925.661	320.36
926.033	285.25
926.406	289.93
926.778	332.06
927.15	350.79
927.523	296.96
927.895	271.21
928.267	306.32
928.639	313.34
929.011	318.02
929.383	299.3
929.755	306.32
930.127	294.61
930.499	275.89
930.871	320.36
931.242	250.14
931.614	350.79
931.986	332.06
932.357	313.34
932.729	371.85
933.1	322.7
933.471	280.57
933.843	266.53
934.214	374.19
934.585	369.51
934.956	350.79
935.327	329.72
935.698	294.61
936.069	381.21
936.44	299.3
936.811	271.21
937.182	254.83
937.552	210.36
937.923	289.93
938.293	325.04
938.664	296.96
939.034	268.87
939.405	374.19
939.775	301.64
940.145	341.43
940.516	318.02
940.886	299.3
941.256	273.55
941.626	334.4
941.996	318.02
942.366	325.04
942.735	353.13
943.105	301.64
943.475	289.93
943.845	329.72
944.214	318.02
944.584	336.74
944.953	287.59
945.323	268.87
945.692	259.51
946.061	423.34
946.43	306.32
946.8	336.74
947.169	294.61
947.538	341.43
947.907	325.04
948.276	346.11
948.645	264.19
949.013	299.3
949.382	285.25
949.751	388.24
950.119	282.91
950.488	315.68
950.857	311
951.225	289.93
951.593	378.87
951.962	278.23
952.33	289.93
952.698	376.53
953.066	334.4
953.434	322.7
953.802	294.61
954.17	334.4
954.538	329.72
954.906	275.89
955.274	360.15
955.642	299.3
956.009	332.06
956.377	325.04
956.744	285.25
957.112	322.7
957.479	287.59
957.847	369.51
958.214	224.4
958.581	336.74
958.948	313.34
959.315	289.93
959.683	289.93
960.05	296.96
960.416	320.36
960.783	313.34
961.15	320.36
961.517	296.96
961.884	275.89
962.25	311
962.617	350.79
962.983	385.9
963.35	308.66
963.716	318.02
964.082	254.83
964.449	383.56
964.815	287.59
965.181	320.36
965.547	311
965.913	376.53
966.279	306.32
966.645	303.98
967.011	301.64
967.377	311
967.742	348.45
968.108	364.83
968.474	299.3
968.839	315.68
969.205	278.23
969.57	334.4
969.935	254.83
970.301	367.17
970.666	318.02
971.031	322.7
971.396	299.3
971.761	306.32
972.126	357.81
972.491	339.09
972.856	341.43
973.221	273.55
973.586	327.38
973.95	287.59
974.315	278.23
974.679	313.34
975.044	217.38
975.408	315.68
975.773	360.15
976.137	280.57
976.501	374.19
976.866	259.51
977.23	303.98
977.594	322.7
977.958	343.77
978.322	306.32
978.686	285.25
979.049	322.7
979.413	308.66
979.777	294.61
980.141	303.98
980.504	346.11
980.868	299.3
981.231	301.64
981.595	243.12
981.958	308.66
982.321	278.23
982.684	334.4
983.048	287.59
983.411	376.53
983.774	357.81
984.137	308.66
984.5	313.34
984.862	308.66
985.225	306.32
985.588	353.13
985.951	292.27
986.313	318.02
986.676	282.91
987.038	308.66
987.401	285.25
987.763	367.17
988.125	311
988.488	301.64
988.85	306.32
989.212	313.34
989.574	339.09
989.936	273.55
990.298	240.78
990.66	341.43
991.022	285.25
991.383	259.51
991.745	343.77
992.107	313.34
992.468	322.7
992.83	299.3
993.191	313.34
993.553	308.66
993.914	299.3
994.275	341.43
994.637	212.7
994.998	271.21
995.359	306.32
995.72	320.36
996.081	280.57
996.442	285.25
996.803	287.59
997.163	322.7
997.524	320.36
997.885	278.23
998.245	299.3
998.606	266.53
998.966	303.98
999.327	367.17
999.687	280.57
1000.047	320.36
1000.408	355.47
1000.768	275.89
1001.128	367.17
1001.488	315.68
1001.848	367.17
1002.208	311
1002.568	332.06
1002.927	357.81
1003.287	411.64
1003.647	353.13
1004.007	329.72
1004.366	289.93
1004.726	390.58
1005.085	353.13
1005.444	341.43
1005.804	292.27
1006.163	334.4
1006.522	275.89
1006.881	355.47
1007.24	289.93
1007.599	296.96
1007.958	303.98
1008.317	308.66
1008.676	381.21
1009.035	348.45
1009.393	294.61
1009.752	313.34
1010.111	320.36
1010.469	289.93
1010.828	329.72
1011.186	336.74
1011.544	383.56
1011.903	320.36
1012.261	301.64
1012.619	320.36
1012.977	334.4
1013.335	306.32
1013.693	325.04
1014.051	254.83
1014.409	357.81
1014.767	271.21
1015.124	360.15
1015.482	252.49
1015.84	296.96
1016.197	357.81
1016.555	282.91
1016.912	332.06
1017.269	334.4
1017.627	289.93
1017.984	301.64
1018.341	343.77
1018.698	313.34
1019.055	233.76
1019.412	329.72
1019.769	329.72
1020.126	374.19
1020.483	346.11
1020.84	325.04
1021.196	268.87
1021.553	334.4
1021.909	315.68
1022.266	334.4
1022.622	313.34
1022.979	332.06
1023.335	392.92
1023.691	285.25
1024.047	275.89
1024.404	336.74
1024.76	336.74
1025.116	306.32
1025.472	364.83
1025.827	341.43
1026.183	339.09
1026.539	371.85
1026.895	280.57
1027.25	381.21
1027.606	275.89
1027.961	292.27
1028.317	364.83
1028.672	296.96
1029.028	266.53
1029.383	285.25
1029.738	301.64
1030.093	264.19
1030.448	318.02
1030.803	318.02
1031.158	332.06
1031.513	292.27
1031.868	301.64
1032.223	245.46
1032.577	334.4
1032.932	336.74
1033.287	301.64
1033.641	306.32
1033.996	268.87
1034.35	332.06
1034.704	334.4
1035.059	315.68
1035.413	327.38
1035.767	327.38
1036.121	327.38
