Data from Al_FLMS009871__1258__16-46-16-772.txt Node

Date: Fri Mar 08 16:46:16 CST 2024
User: pe5414po
Spectrometer: FLMS00987
Trigger mode: 0
Integration Time (sec): 1.000000E-1
Scans to average: 1
Electric dark correction enabled: true
Nonlinearity correction enabled: false
Boxcar width: 0
XAxis mode: Wavelengths
Number of Pixels in Spectrum: 2048
>>>>>Begin Spectral Data<<<<<
188.938	-53.69
189.409	-53.69
189.879	-53.69
190.349	-151.99
190.819	-107.52
191.29	-100.5
191.76	-114.54
192.23	-121.56
192.7	-116.88
193.17	-18.58
193.64	-91.13
194.109	56.32
194.579	-20.92
195.049	-60.71
195.519	-16.24
195.988	68.02
196.458	114.83
196.927	56.32
197.397	107.81
197.866	96.11
198.336	161.64
198.805	189.73
199.274	175.69
199.744	196.75
200.213	133.56
200.682	231.86
201.151	222.5
201.62	210.79
202.089	227.18
202.558	278.67
203.027	285.69
203.495	220.16
203.964	299.73
204.433	288.03
204.902	276.33
205.37	276.33
205.839	318.46
206.307	306.76
206.776	285.69
207.244	337.18
207.712	351.23
208.181	236.54
208.649	309.1
209.117	341.86
209.585	259.95
210.053	318.46
210.521	264.63
210.989	292.71
211.457	332.5
211.925	323.14
212.393	250.58
212.861	273.99
213.328	311.44
213.796	313.78
214.264	229.52
214.731	271.65
215.199	292.71
215.666	259.95
216.133	276.33
216.601	309.1
217.068	236.54
217.535	292.71
218.003	281.01
218.47	295.05
218.937	302.08
219.404	273.99
219.871	269.31
220.338	171.01
220.805	266.97
221.271	306.76
221.738	306.76
222.205	238.88
222.671	297.39
223.138	323.14
223.605	220.16
224.071	290.37
224.538	238.88
225.004	224.84
225.47	257.61
225.937	299.73
226.403	269.31
226.869	290.37
227.335	278.67
227.801	266.97
228.267	292.71
228.733	266.97
229.199	255.26
229.665	383.99
230.131	309.1
230.597	245.9
231.062	257.61
231.528	302.08
231.994	259.95
232.459	283.35
232.925	171.01
233.39	271.65
233.856	302.08
234.321	257.61
234.786	245.9
235.252	269.31
235.717	241.22
236.182	325.48
236.647	304.42
237.112	316.12
237.577	295.05
238.042	281.01
238.507	262.29
238.972	243.56
239.436	295.05
239.901	262.29
240.366	297.39
240.83	292.71
241.295	259.95
241.76	299.73
242.224	241.22
242.688	323.14
243.153	264.63
243.617	332.5
244.081	264.63
244.545	248.24
245.01	224.84
245.474	297.39
245.938	262.29
246.402	353.57
246.866	318.46
247.33	273.99
247.793	309.1
248.257	288.03
248.721	266.97
249.185	231.86
249.648	241.22
250.112	320.8
250.575	295.05
251.039	332.5
251.502	285.69
251.965	313.78
252.429	278.67
252.892	281.01
253.355	337.18
253.818	337.18
254.281	285.69
254.744	257.61
255.207	288.03
255.67	325.48
256.133	288.03
256.596	304.42
257.059	313.78
257.522	337.18
257.984	379.31
258.447	276.33
258.909	351.23
259.372	257.61
259.834	283.35
260.297	295.05
260.759	299.73
261.221	290.37
261.684	276.33
262.146	311.44
262.608	262.29
263.07	269.31
263.532	231.86
263.994	266.97
264.456	297.39
264.918	278.67
265.38	369.95
265.842	271.65
266.303	355.91
266.765	309.1
267.227	299.73
267.688	285.69
268.15	311.44
268.611	320.8
269.072	269.31
269.534	330.16
269.995	323.14
270.456	273.99
270.918	334.84
271.379	337.18
271.84	311.44
272.301	309.1
272.762	330.16
273.223	309.1
273.684	269.31
274.144	334.84
274.605	311.44
275.066	264.63
275.527	283.35
275.987	257.61
276.448	266.97
276.908	259.95
277.369	302.08
277.829	269.31
278.289	290.37
278.75	262.29
279.21	318.46
279.67	302.08
280.13	360.59
280.59	306.76
281.05	325.48
281.51	288.03
281.97	311.44
282.43	313.78
282.89	346.55
283.35	290.37
283.809	276.33
284.269	306.76
284.729	299.73
285.188	344.21
285.648	306.76
286.107	313.78
286.567	313.78
287.026	316.12
287.485	369.95
287.944	309.1
288.404	332.5
288.863	281.01
289.322	360.59
289.781	281.01
290.24	344.21
290.699	341.86
291.158	288.03
291.616	327.82
292.075	288.03
292.534	281.01
292.992	248.24
293.451	290.37
293.91	273.99
294.368	257.61
294.827	348.89
295.285	327.82
295.743	330.16
296.202	353.57
296.66	318.46
297.118	339.52
297.576	292.71
298.034	316.12
298.492	318.46
298.95	297.39
299.408	381.65
299.866	334.84
300.324	360.59
300.781	358.25
301.239	295.05
301.697	285.69
302.154	271.65
302.612	351.23
303.069	288.03
303.527	341.86
303.984	318.46
304.441	283.35
304.899	309.1
305.356	337.18
305.813	341.86
306.27	381.65
306.727	245.9
307.184	292.71
307.641	288.03
308.098	341.86
308.555	290.37
309.012	316.12
309.468	339.52
309.925	248.24
310.382	299.73
310.838	288.03
311.295	271.65
311.751	339.52
312.208	365.27
312.664	320.8
313.12	290.37
313.577	344.21
314.033	372.29
314.489	278.67
314.945	362.93
315.401	320.8
315.857	295.05
316.313	285.69
316.769	299.73
317.225	276.33
317.681	283.35
318.136	388.68
318.592	281.01
319.048	273.99
319.503	341.86
319.959	288.03
320.414	295.05
320.869	334.84
321.325	288.03
321.78	318.46
322.235	313.78
322.691	327.82
323.146	346.55
323.601	351.23
324.056	278.67
324.511	341.86
324.966	273.99
325.421	297.39
325.875	299.73
326.33	327.82
326.785	290.37
327.24	311.44
327.694	266.97
328.149	353.57
328.603	325.48
329.058	311.44
329.512	395.7
329.966	313.78
330.421	323.14
330.875	309.1
331.329	376.97
331.783	325.48
332.237	309.1
332.691	323.14
333.145	273.99
333.599	320.8
334.053	323.14
334.507	250.58
334.96	341.86
335.414	358.25
335.868	278.67
336.321	309.1
336.775	285.69
337.228	318.46
337.682	334.84
338.135	220.16
338.588	334.84
339.042	360.59
339.495	278.67
339.948	374.63
340.401	313.78
340.854	346.55
341.307	304.42
341.76	290.37
342.213	348.89
342.666	304.42
343.119	391.02
343.571	412.08
344.024	348.89
344.477	400.38
344.929	266.97
345.382	351.23
345.834	302.08
346.287	297.39
346.739	304.42
347.191	332.5
347.644	295.05
348.096	273.99
348.548	248.24
349	365.27
349.452	346.55
349.904	332.5
350.356	348.89
350.808	285.69
351.26	325.48
351.711	316.12
352.163	281.01
352.615	330.16
353.066	323.14
353.518	355.91
353.969	295.05
354.421	320.8
354.872	334.84
355.324	398.04
355.775	353.57
356.226	262.29
356.677	320.8
357.128	285.69
357.579	337.18
358.03	304.42
358.481	311.44
358.932	316.12
359.383	318.46
359.834	320.8
360.285	346.55
360.735	269.31
361.186	393.36
361.637	288.03
362.087	353.57
362.538	325.48
362.988	309.1
363.438	283.35
363.889	323.14
364.339	323.14
364.789	313.78
365.239	320.8
365.689	334.84
366.139	323.14
366.589	295.05
367.039	365.27
367.489	330.16
367.939	351.23
368.389	398.04
368.839	304.42
369.288	400.38
369.738	348.89
370.187	313.78
370.637	341.86
371.086	346.55
371.536	313.78
371.985	273.99
372.434	295.05
372.884	295.05
373.333	334.84
373.782	365.27
374.231	306.76
374.68	295.05
375.129	360.59
375.578	309.1
376.027	311.44
376.475	332.5
376.924	304.42
377.373	332.5
377.822	376.97
378.27	372.29
378.719	295.05
379.167	355.91
379.616	313.78
380.064	330.16
380.512	243.56
380.961	337.18
381.409	245.9
381.857	266.97
382.305	297.39
382.753	292.71
383.201	344.21
383.649	259.95
384.097	318.46
384.545	346.55
384.992	362.93
385.44	323.14
385.888	313.78
386.335	320.8
386.783	325.48
387.231	285.69
387.678	341.86
388.125	290.37
388.573	376.97
389.02	290.37
389.467	374.63
389.914	295.05
390.362	311.44
390.809	372.29
391.256	302.08
391.703	316.12
392.15	304.42
392.596	348.89
393.043	318.46
393.49	320.8
393.937	346.55
394.383	341.86
394.83	330.16
395.276	381.65
395.723	372.29
396.169	259.95
396.616	327.82
397.062	330.16
397.508	285.69
397.954	304.42
398.401	360.59
398.847	269.31
399.293	283.35
399.739	341.86
400.185	281.01
400.631	295.05
401.076	285.69
401.522	306.76
401.968	318.46
402.414	320.8
402.859	248.24
403.305	295.05
403.75	355.91
404.196	344.21
404.641	273.99
405.086	313.78
405.532	290.37
405.977	306.76
406.422	313.78
406.867	325.48
407.312	290.37
407.757	297.39
408.202	313.78
408.647	309.1
409.092	332.5
409.537	273.99
409.982	388.68
410.426	313.78
410.871	273.99
411.316	285.69
411.76	344.21
412.205	360.59
412.649	374.63
413.093	325.48
413.538	299.73
413.982	252.92
414.426	332.5
414.87	288.03
415.314	266.97
415.758	344.21
416.202	339.52
416.646	351.23
417.09	304.42
417.534	355.91
417.978	299.73
418.421	283.35
418.865	337.18
419.309	304.42
419.752	391.02
420.196	283.35
420.639	376.97
421.083	302.08
421.526	365.27
421.969	341.86
422.412	391.02
422.856	358.25
423.299	362.93
423.742	302.08
424.185	402.72
424.628	304.42
425.071	297.39
425.513	346.55
425.956	288.03
426.399	311.44
426.842	337.18
427.284	281.01
427.727	306.76
428.169	304.42
428.612	330.16
429.054	306.76
429.497	278.67
429.939	262.29
430.381	313.78
430.823	269.31
431.265	309.1
431.707	351.23
432.149	353.57
432.591	271.65
433.033	281.01
433.475	297.39
433.917	355.91
434.359	327.82
434.8	306.76
435.242	311.44
435.684	309.1
436.125	325.48
436.567	302.08
437.008	341.86
437.449	344.21
437.891	297.39
438.332	337.18
438.773	311.44
439.214	318.46
439.656	299.73
440.097	346.55
440.538	292.71
440.978	320.8
441.419	386.33
441.86	255.26
442.301	348.89
442.742	297.39
443.182	320.8
443.623	292.71
444.063	320.8
444.504	367.61
444.944	346.55
445.385	330.16
445.825	311.44
446.265	311.44
446.706	353.57
447.146	348.89
447.586	288.03
448.026	391.02
448.466	316.12
448.906	351.23
449.346	302.08
449.786	327.82
450.225	383.99
450.665	337.18
451.105	262.29
451.544	273.99
451.984	348.89
452.424	372.29
452.863	376.97
453.302	348.89
453.742	288.03
454.181	311.44
454.62	374.63
455.059	302.08
455.499	292.71
455.938	346.55
456.377	353.57
456.816	311.44
457.254	362.93
457.693	311.44
458.132	353.57
458.571	337.18
459.01	316.12
459.448	323.14
459.887	316.12
460.325	337.18
460.764	273.99
461.202	318.46
461.641	355.91
462.079	276.33
462.517	358.25
462.955	311.44
463.393	358.25
463.832	311.44
464.27	281.01
464.708	344.21
465.145	330.16
465.583	367.61
466.021	316.12
466.459	283.35
466.897	285.69
467.334	334.84
467.772	297.39
468.209	323.14
468.647	325.48
469.084	281.01
469.522	266.97
469.959	341.86
470.396	379.31
470.833	351.23
471.271	292.71
471.708	360.59
472.145	309.1
472.582	346.55
473.019	351.23
473.456	367.61
473.892	327.82
474.329	316.12
474.766	320.8
475.202	318.46
475.639	348.89
476.076	348.89
476.512	304.42
476.949	367.61
477.385	306.76
477.821	292.71
478.258	348.89
478.694	323.14
479.13	320.8
479.566	299.73
480.002	325.48
480.438	273.99
480.874	369.95
481.31	311.44
481.746	316.12
482.181	337.18
482.617	358.25
483.053	309.1
483.488	264.63
483.924	365.27
484.36	348.89
484.795	292.71
485.23	353.57
485.666	292.71
486.101	278.67
486.536	302.08
486.971	306.76
487.407	304.42
487.842	339.52
488.277	365.27
488.712	302.08
489.146	355.91
489.581	281.01
490.016	292.71
490.451	362.93
490.885	325.48
491.32	344.21
491.755	259.95
492.189	311.44
492.624	360.59
493.058	337.18
493.492	290.37
493.927	299.73
494.361	273.99
494.795	360.59
495.229	348.89
495.663	362.93
496.097	372.29
496.531	288.03
496.965	299.73
497.399	320.8
497.833	369.95
498.266	351.23
498.7	318.46
499.134	358.25
499.567	320.8
500.001	341.86
500.434	313.78
500.868	306.76
501.301	358.25
501.734	297.39
502.168	309.1
502.601	295.05
503.034	290.37
503.467	297.39
503.9	309.1
504.333	316.12
504.766	299.73
505.199	288.03
505.632	299.73
506.064	306.76
506.497	369.95
506.93	325.48
507.362	299.73
507.795	353.57
508.227	346.55
508.66	360.59
509.092	351.23
509.524	297.39
509.956	313.78
510.389	306.76
510.821	332.5
511.253	327.82
511.685	323.14
512.117	295.05
512.549	369.95
512.981	351.23
513.412	344.21
513.844	313.78
514.276	323.14
514.707	323.14
515.139	295.05
515.571	313.78
516.002	327.82
516.433	257.61
516.865	369.95
517.296	271.65
517.727	295.05
518.159	297.39
518.59	309.1
519.021	351.23
519.452	330.16
519.883	365.27
520.314	337.18
520.744	353.57
521.175	271.65
521.606	320.8
522.037	306.76
522.467	330.16
522.898	309.1
523.328	283.35
523.759	292.71
524.189	337.18
524.62	367.61
525.05	330.16
525.48	297.39
525.91	292.71
526.341	339.52
526.771	320.8
527.201	376.97
527.631	346.55
528.061	311.44
528.49	339.52
528.92	381.65
529.35	367.61
529.78	259.95
530.209	391.02
530.639	311.44
531.068	299.73
531.498	302.08
531.927	327.82
532.357	337.18
532.786	325.48
533.215	339.52
533.644	311.44
534.074	283.35
534.503	339.52
534.932	276.33
535.361	339.52
535.79	292.71
536.218	316.12
536.647	339.52
537.076	337.18
537.505	311.44
537.933	339.52
538.362	276.33
538.79	302.08
539.219	316.12
539.647	302.08
540.076	348.89
540.504	295.05
540.932	288.03
541.36	346.55
541.788	339.52
542.217	362.93
542.645	309.1
543.073	346.55
543.5	288.03
543.928	311.44
544.356	332.5
544.784	358.25
545.211	348.89
545.639	346.55
546.067	358.25
546.494	318.46
546.922	381.65
547.349	339.52
547.776	334.84
548.204	358.25
548.631	344.21
549.058	295.05
549.485	302.08
549.912	412.08
550.339	325.48
550.766	281.01
551.193	257.61
551.62	339.52
552.047	348.89
552.474	290.37
552.9	395.7
553.327	327.82
553.754	297.39
554.18	334.84
554.607	330.16
555.033	325.48
555.459	339.52
555.886	309.1
556.312	351.23
556.738	348.89
557.164	332.5
557.59	325.48
558.016	344.21
558.442	327.82
558.868	292.71
559.294	341.86
559.72	355.91
560.145	327.82
560.571	344.21
560.997	288.03
561.422	318.46
561.848	344.21
562.273	273.99
562.699	299.73
563.124	285.69
563.549	316.12
563.974	290.37
564.4	292.71
564.825	344.21
565.25	346.55
565.675	290.37
566.1	320.8
566.525	372.29
566.95	299.73
567.374	269.31
567.799	259.95
568.224	334.84
568.648	281.01
569.073	292.71
569.497	337.18
569.922	355.91
570.346	266.97
570.771	273.99
571.195	302.08
571.619	325.48
572.043	292.71
572.467	252.92
572.891	353.57
573.315	339.52
573.739	323.14
574.163	273.99
574.587	348.89
575.011	327.82
575.435	372.29
575.858	295.05
576.282	348.89
576.705	297.39
577.129	339.52
577.552	323.14
577.976	351.23
578.399	334.84
578.822	332.5
579.245	292.71
579.669	341.86
580.092	299.73
580.515	262.29
580.938	337.18
581.361	320.8
581.784	374.63
582.206	320.8
582.629	339.52
583.052	316.12
583.474	353.57
583.897	283.35
584.32	306.76
584.742	250.58
585.165	323.14
585.587	281.01
586.009	330.16
586.431	323.14
586.854	276.33
587.276	318.46
587.698	353.57
588.12	292.71
588.542	295.05
588.964	299.73
589.386	306.76
589.807	299.73
590.229	334.84
590.651	402.72
591.073	283.35
591.494	271.65
591.916	311.44
592.337	341.86
592.759	334.84
593.18	264.63
593.601	292.71
594.022	292.71
594.444	379.31
594.865	379.31
595.286	353.57
595.707	330.16
596.128	297.39
596.549	346.55
596.97	290.37
597.39	332.5
597.811	372.29
598.232	295.05
598.652	334.84
599.073	344.21
599.494	416.76
599.914	351.23
600.334	393.36
600.755	313.78
601.175	290.37
601.595	266.97
602.015	341.86
602.436	283.35
602.856	472.93
603.276	353.57
603.696	379.31
604.115	332.5
604.535	353.57
604.955	351.23
605.375	281.01
605.794	304.42
606.214	346.55
606.634	346.55
607.053	313.78
607.473	325.48
607.892	262.29
608.311	273.99
608.731	330.16
609.15	402.72
609.569	360.59
609.988	311.44
610.407	381.65
610.826	372.29
611.245	320.8
611.664	271.65
612.083	348.89
612.501	271.65
612.92	341.86
613.339	376.97
613.757	330.16
614.176	395.7
614.594	344.21
615.013	281.01
615.431	316.12
615.85	348.89
616.268	348.89
616.686	304.42
617.104	292.71
617.522	313.78
617.94	316.12
618.358	330.16
618.776	313.78
619.194	320.8
619.612	360.59
620.03	271.65
620.447	292.71
620.865	341.86
621.282	353.57
621.7	309.1
622.117	297.39
622.535	330.16
622.952	309.1
623.369	379.31
623.787	288.03
624.204	346.55
624.621	334.84
625.038	316.12
625.455	337.18
625.872	243.56
626.289	302.08
626.706	360.59
627.123	355.91
627.539	367.61
627.956	311.44
628.373	372.29
628.789	323.14
629.206	344.21
629.622	348.89
630.038	311.44
630.455	276.33
630.871	327.82
631.287	337.18
631.703	278.67
632.12	348.89
632.536	271.65
632.952	344.21
633.368	339.52
633.783	318.46
634.199	376.97
634.615	320.8
635.031	351.23
635.446	334.84
635.862	278.67
636.277	376.97
636.693	236.54
637.108	351.23
637.524	313.78
637.939	341.86
638.354	344.21
638.77	306.76
639.185	388.68
639.6	252.92
640.015	309.1
640.43	365.27
640.845	355.91
641.259	290.37
641.674	330.16
642.089	339.52
642.504	264.63
642.918	283.35
643.333	269.31
643.747	320.8
644.162	316.12
644.576	362.93
644.991	306.76
645.405	323.14
645.819	316.12
646.233	346.55
646.647	313.78
647.061	313.78
647.475	318.46
647.889	252.92
648.303	320.8
648.717	313.78
649.131	304.42
649.545	325.48
649.958	376.97
650.372	339.52
650.785	318.46
651.199	327.82
651.612	271.65
652.026	348.89
652.439	344.21
652.852	320.8
653.266	372.29
653.679	348.89
654.092	353.57
654.505	346.55
654.918	320.8
655.331	360.59
655.744	339.52
656.156	309.1
656.569	358.25
656.982	278.67
657.394	313.78
657.807	316.12
658.22	381.65
658.632	306.76
659.044	220.16
659.457	313.78
659.869	341.86
660.281	337.18
660.693	346.55
661.106	374.63
661.518	295.05
661.93	337.18
662.342	269.31
662.754	334.84
663.165	325.48
663.577	388.68
663.989	367.61
664.401	374.63
664.812	327.82
665.224	337.18
665.635	304.42
666.047	391.02
666.458	316.12
666.869	288.03
667.281	302.08
667.692	402.72
668.103	383.99
668.514	318.46
668.925	252.92
669.336	306.76
669.747	297.39
670.158	269.31
670.569	316.12
670.979	283.35
671.39	351.23
671.801	252.92
672.211	313.78
672.622	318.46
673.032	316.12
673.443	351.23
673.853	325.48
674.263	374.63
674.674	316.12
675.084	295.05
675.494	313.78
675.904	290.37
676.314	334.84
676.724	285.69
677.134	332.5
677.544	355.91
677.953	348.89
678.363	369.95
678.773	398.04
679.182	313.78
679.592	302.08
680.001	344.21
680.411	290.37
680.82	266.97
681.23	285.69
681.639	306.76
682.048	313.78
682.457	292.71
682.866	360.59
683.275	285.69
683.684	327.82
684.093	318.46
684.502	269.31
684.911	304.42
685.32	337.18
685.728	302.08
686.137	316.12
686.546	407.4
686.954	351.23
687.363	320.8
687.771	344.21
688.179	360.59
688.588	332.5
688.996	374.63
689.404	269.31
689.812	332.5
690.22	318.46
690.628	313.78
691.036	311.44
691.444	360.59
691.852	346.55
692.26	311.44
692.667	290.37
693.075	334.84
693.483	327.82
693.89	334.84
694.298	255.26
694.705	316.12
695.112	318.46
695.52	278.67
695.927	257.61
696.334	278.67
696.741	365.27
697.148	320.8
697.555	229.52
697.962	313.78
698.369	281.01
698.776	339.52
699.183	348.89
699.59	309.1
699.996	360.59
700.403	325.48
700.81	325.48
701.216	292.71
701.623	372.29
702.029	341.86
702.435	309.1
702.842	295.05
703.248	297.39
703.654	313.78
704.06	332.5
704.466	353.57
704.872	309.1
705.278	323.14
705.684	257.61
706.09	304.42
706.496	299.73
706.901	362.93
707.307	355.91
707.712	323.14
708.118	332.5
708.523	320.8
708.929	323.14
709.334	400.38
709.74	351.23
710.145	323.14
710.55	330.16
710.955	262.29
711.36	299.73
711.765	346.55
712.17	299.73
712.575	297.39
712.98	826.36
713.385	330.16
713.789	306.76
714.194	273.99
714.599	309.1
715.003	259.95
715.408	306.76
715.812	355.91
716.217	316.12
716.621	353.57
717.025	383.99
717.429	271.65
717.833	405.06
718.238	355.91
718.642	276.33
719.046	292.71
719.449	325.48
719.853	334.84
720.257	297.39
720.661	318.46
721.065	320.8
721.468	388.68
721.872	327.82
722.275	271.65
722.679	339.52
723.082	330.16
723.485	346.55
723.889	348.89
724.292	344.21
724.695	339.52
725.098	320.8
725.501	348.89
725.904	302.08
726.307	295.05
726.71	288.03
727.113	302.08
727.516	334.84
727.918	348.89
728.321	360.59
728.724	346.55
729.126	344.21
729.529	323.14
729.931	316.12
730.333	309.1
730.736	339.52
731.138	355.91
731.54	379.31
731.942	318.46
732.344	320.8
732.746	320.8
733.148	259.95
733.55	299.73
733.952	330.16
734.354	288.03
734.756	292.71
735.157	360.59
735.559	362.93
735.96	339.52
736.362	309.1
736.763	400.38
737.165	332.5
737.566	304.42
737.967	325.48
738.368	330.16
738.77	304.42
739.171	313.78
739.572	360.59
739.973	276.33
740.374	278.67
740.774	309.1
741.175	281.01
741.576	332.5
741.977	351.23
742.377	318.46
742.778	348.89
743.178	302.08
743.579	318.46
743.979	276.33
744.379	339.52
744.78	292.71
745.18	306.76
745.58	311.44
745.98	379.31
746.38	334.84
746.78	348.89
747.18	248.24
747.58	339.52
747.98	299.73
748.38	332.5
748.779	320.8
749.179	318.46
749.578	297.39
749.978	325.48
750.377	318.46
750.777	259.95
751.176	302.08
751.575	323.14
751.975	351.23
752.374	358.25
752.773	341.86
753.172	311.44
753.571	327.82
753.97	365.27
754.369	348.89
754.768	332.5
755.166	292.71
755.565	302.08
755.964	348.89
756.362	306.76
756.761	383.99
757.159	376.97
757.558	320.8
757.956	358.25
758.354	262.29
758.753	316.12
759.151	330.16
759.549	405.06
759.947	297.39
760.345	269.31
760.743	337.18
761.141	405.06
761.539	283.35
761.936	266.97
762.334	327.82
762.732	325.48
763.129	302.08
763.527	306.76
763.924	318.46
764.322	330.16
764.719	257.61
765.117	306.76
765.514	412.08
765.911	292.71
766.308	325.48
766.705	327.82
767.102	327.82
767.499	344.21
767.896	339.52
768.293	346.55
768.69	292.71
769.086	297.39
769.483	318.46
769.88	344.21
770.276	334.84
770.673	362.93
771.069	290.37
771.466	297.39
771.862	238.88
772.258	341.86
772.654	351.23
773.05	320.8
773.447	318.46
773.843	285.69
774.239	402.72
774.634	351.23
775.03	376.97
775.426	386.33
775.822	346.55
776.218	433.15
776.613	355.91
777.009	358.25
777.404	288.03
777.8	306.76
778.195	330.16
778.59	316.12
778.986	376.97
779.381	295.05
779.776	313.78
780.171	348.89
780.566	383.99
780.961	325.48
781.356	337.18
781.751	351.23
782.146	353.57
782.54	339.52
782.935	309.1
783.33	288.03
783.724	285.69
784.119	327.82
784.513	325.48
784.908	367.61
785.302	309.1
785.696	262.29
786.09	316.12
786.485	323.14
786.879	339.52
787.273	255.26
787.667	381.65
788.061	351.23
788.454	299.73
788.848	283.35
789.242	306.76
789.636	271.65
790.029	309.1
790.423	325.48
790.816	320.8
791.21	271.65
791.603	297.39
791.997	283.35
792.39	351.23
792.783	320.8
793.176	358.25
793.569	313.78
793.962	330.16
794.355	369.95
794.748	344.21
795.141	334.84
795.534	318.46
795.927	353.57
796.319	318.46
796.712	295.05
797.105	318.46
797.497	334.84
797.89	262.29
798.282	264.63
798.674	327.82
799.067	302.08
799.459	393.36
799.851	358.25
800.243	311.44
800.635	367.61
801.027	316.12
801.419	316.12
801.811	292.71
802.203	358.25
802.594	320.8
802.986	369.95
803.378	327.82
803.769	334.84
804.161	316.12
804.552	302.08
804.944	332.5
805.335	381.65
805.726	304.42
806.118	285.69
806.509	297.39
806.9	271.65
807.291	341.86
807.682	290.37
808.073	290.37
808.464	327.82
808.855	348.89
809.245	309.1
809.636	316.12
810.027	297.39
810.417	273.99
810.808	316.12
811.198	353.57
811.589	332.5
811.979	299.73
812.369	391.02
812.759	309.1
813.15	299.73
813.54	299.73
813.93	311.44
814.32	313.78
814.71	273.99
815.1	283.35
815.489	344.21
815.879	311.44
816.269	313.78
816.658	311.44
817.048	334.84
817.438	318.46
817.827	405.06
818.216	388.68
818.606	316.12
818.995	327.82
819.384	292.71
819.773	283.35
820.163	304.42
820.552	323.14
820.941	320.8
821.33	334.84
821.718	311.44
822.107	332.5
822.496	299.73
822.885	325.48
823.273	309.1
823.662	348.89
824.05	290.37
824.439	311.44
824.827	313.78
825.216	316.12
825.604	325.48
825.992	344.21
826.38	386.33
826.768	309.1
827.156	304.42
827.544	309.1
827.932	313.78
828.32	334.84
828.708	316.12
829.096	276.33
829.483	311.44
829.871	309.1
830.259	369.95
830.646	379.31
831.034	313.78
831.421	325.48
831.808	344.21
832.196	290.37
832.583	266.97
832.97	318.46
833.357	304.42
833.744	266.97
834.131	316.12
834.518	252.92
834.905	259.95
835.292	323.14
835.678	309.1
836.065	374.63
836.452	325.48
836.838	337.18
837.225	313.78
837.611	245.9
837.998	362.93
838.384	351.23
838.77	264.63
839.157	341.86
839.543	362.93
839.929	318.46
840.315	309.1
840.701	372.29
841.087	337.18
841.473	295.05
841.858	297.39
842.244	348.89
842.63	351.23
843.015	288.03
843.401	627.41
843.787	309.1
844.172	264.63
844.557	276.33
844.943	299.73
845.328	320.8
845.713	306.76
846.098	288.03
846.483	295.05
846.868	376.97
847.253	292.71
847.638	318.46
848.023	299.73
848.408	355.91
848.793	325.48
849.177	292.71
849.562	292.71
849.947	362.93
850.331	386.33
850.715	346.55
851.1	376.97
851.484	330.16
851.868	318.46
852.253	278.67
852.637	344.21
853.021	362.93
853.405	348.89
853.789	320.8
854.173	252.92
854.557	313.78
854.94	360.59
855.324	372.29
855.708	353.57
856.091	362.93
856.475	318.46
856.858	309.1
857.242	332.5
857.625	290.37
858.009	346.55
858.392	302.08
858.775	273.99
859.158	327.82
859.541	353.57
859.924	358.25
860.307	330.16
860.69	325.48
861.073	362.93
861.456	285.69
861.838	334.84
862.221	353.57
862.604	313.78
862.986	304.42
863.369	285.69
863.751	295.05
864.133	337.18
864.516	252.92
864.898	276.33
865.28	248.24
865.662	318.46
866.044	330.16
866.426	320.8
866.808	285.69
867.19	355.91
867.572	386.33
867.954	325.48
868.336	245.9
868.717	252.92
869.099	320.8
869.48	334.84
869.862	276.33
870.243	302.08
870.625	311.44
871.006	302.08
871.387	281.01
871.768	346.55
872.149	320.8
872.53	325.48
872.911	297.39
873.292	264.63
873.673	259.95
874.054	348.89
874.435	295.05
874.815	304.42
875.196	325.48
875.577	318.46
875.957	367.61
876.338	346.55
876.718	327.82
877.098	309.1
877.479	353.57
877.859	278.67
878.239	278.67
878.619	339.52
878.999	353.57
879.379	388.68
879.759	309.1
880.139	309.1
880.519	330.16
880.898	285.69
881.278	341.86
881.658	330.16
882.037	283.35
882.417	381.65
882.796	313.78
883.176	318.46
883.555	250.58
883.934	288.03
884.313	369.95
884.693	341.86
885.072	376.97
885.451	346.55
885.83	285.69
886.209	323.14
886.587	276.33
886.966	259.95
887.345	348.89
887.724	365.27
888.102	243.56
888.481	341.86
888.859	304.42
889.238	306.76
889.616	288.03
889.994	292.71
890.373	351.23
890.751	290.37
891.129	341.86
891.507	290.37
891.885	348.89
892.263	327.82
892.641	372.29
893.019	290.37
893.396	334.84
893.774	288.03
894.152	348.89
894.529	351.23
894.907	316.12
895.284	290.37
895.662	285.69
896.039	269.31
896.416	332.5
896.794	341.86
897.171	325.48
897.548	285.69
897.925	299.73
898.302	351.23
898.679	309.1
899.056	351.23
899.433	332.5
899.809	353.57
900.186	318.46
900.563	362.93
900.939	313.78
901.316	337.18
901.692	295.05
902.069	302.08
902.445	337.18
902.821	290.37
903.197	348.89
903.574	281.01
903.95	283.35
904.326	330.16
904.702	353.57
905.078	330.16
905.454	358.25
905.829	320.8
906.205	297.39
906.581	318.46
906.956	269.31
907.332	325.48
907.707	311.44
908.083	360.59
908.458	353.57
908.833	281.01
909.209	243.56
909.584	283.35
909.959	337.18
910.334	248.24
910.709	339.52
911.084	297.39
911.459	330.16
911.834	311.44
912.209	252.92
912.583	292.71
912.958	266.97
913.333	264.63
913.707	339.52
914.082	269.31
914.456	325.48
914.83	290.37
915.205	381.65
915.579	311.44
915.953	327.82
916.327	337.18
916.701	302.08
917.075	290.37
917.449	306.76
917.823	278.67
918.197	320.8
918.571	316.12
918.944	292.71
919.318	313.78
919.692	304.42
920.065	311.44
920.438	304.42
920.812	311.44
921.185	351.23
921.558	346.55
921.932	367.61
922.305	337.18
922.678	306.76
923.051	346.55
923.424	245.9
923.797	419.1
924.17	292.71
924.542	304.42
924.915	376.97
925.288	292.71
925.661	341.86
926.033	316.12
926.406	327.82
926.778	339.52
927.15	316.12
927.523	313.78
927.895	327.82
928.267	330.16
928.639	320.8
929.011	266.97
929.383	351.23
929.755	288.03
930.127	348.89
930.499	316.12
930.871	341.86
931.242	327.82
931.614	262.29
931.986	320.8
932.357	327.82
932.729	304.42
933.1	316.12
933.471	264.63
933.843	264.63
934.214	297.39
934.585	318.46
934.956	313.78
935.327	292.71
935.698	306.76
936.069	309.1
936.44	353.57
936.811	285.69
937.182	381.65
937.552	285.69
937.923	306.76
938.293	341.86
938.664	299.73
939.034	327.82
939.405	309.1
939.775	295.05
940.145	304.42
940.516	273.99
940.886	250.58
941.256	278.67
941.626	337.18
941.996	276.33
942.366	320.8
942.735	365.27
943.105	295.05
943.475	288.03
943.845	323.14
944.214	278.67
944.584	316.12
944.953	318.46
945.323	285.69
945.692	355.91
946.061	299.73
946.43	309.1
946.8	203.77
947.169	313.78
947.538	372.29
947.907	297.39
948.276	288.03
948.645	337.18
949.013	346.55
949.382	299.73
949.751	337.18
950.119	346.55
950.488	362.93
950.857	320.8
951.225	311.44
951.593	316.12
951.962	334.84
952.33	337.18
952.698	311.44
953.066	334.84
953.434	346.55
953.802	313.78
954.17	273.99
954.538	297.39
954.906	323.14
955.274	316.12
955.642	341.86
956.009	320.8
956.377	309.1
956.744	369.95
957.112	351.23
957.479	304.42
957.847	339.52
958.214	292.71
958.581	351.23
958.948	365.27
959.315	318.46
959.683	273.99
960.05	288.03
960.416	383.99
960.783	344.21
961.15	348.89
961.517	292.71
961.884	379.31
962.25	344.21
962.617	266.97
962.983	311.44
963.35	297.39
963.716	271.65
964.082	285.69
964.449	407.4
964.815	236.54
965.181	369.95
965.547	344.21
965.913	388.68
966.279	351.23
966.645	320.8
967.011	365.27
967.377	281.01
967.742	313.78
968.108	360.59
968.474	311.44
968.839	278.67
969.205	316.12
969.57	309.1
969.935	281.01
970.301	325.48
970.666	360.59
971.031	276.33
971.396	330.16
971.761	334.84
972.126	257.61
972.491	290.37
972.856	318.46
973.221	330.16
973.586	365.27
973.95	276.33
974.315	348.89
974.679	325.48
975.044	344.21
975.408	372.29
975.773	304.42
976.137	316.12
976.501	299.73
976.866	355.91
977.23	346.55
977.594	299.73
977.958	313.78
978.322	292.71
978.686	297.39
979.049	288.03
979.413	306.76
979.777	337.18
980.141	330.16
980.504	346.55
980.868	313.78
981.231	276.33
981.595	255.26
981.958	334.84
982.321	330.16
982.684	323.14
983.048	374.63
983.411	334.84
983.774	309.1
984.137	311.44
984.5	332.5
984.862	325.48
985.225	304.42
985.588	292.71
985.951	325.48
986.313	271.65
986.676	323.14
987.038	327.82
987.401	334.84
987.763	341.86
988.125	306.76
988.488	351.23
988.85	316.12
989.212	304.42
989.574	337.18
989.936	290.37
990.298	332.5
990.66	351.23
991.022	341.86
991.383	325.48
991.745	344.21
992.107	271.65
992.468	299.73
992.83	313.78
993.191	276.33
993.553	332.5
993.914	348.89
994.275	353.57
994.637	295.05
994.998	332.5
995.359	295.05
995.72	320.8
996.081	323.14
996.442	309.1
996.803	281.01
997.163	327.82
997.524	259.95
997.885	388.68
998.245	358.25
998.606	278.67
998.966	297.39
999.327	309.1
999.687	327.82
1000.047	288.03
1000.408	323.14
1000.768	290.37
1001.128	316.12
1001.488	344.21
1001.848	360.59
1002.208	299.73
1002.568	320.8
1002.927	285.69
1003.287	365.27
1003.647	323.14
1004.007	283.35
1004.366	306.76
1004.726	346.55
1005.085	278.67
1005.444	351.23
1005.804	306.76
1006.163	318.46
1006.522	311.44
1006.881	318.46
1007.24	346.55
1007.599	332.5
1007.958	283.35
1008.317	316.12
1008.676	292.71
1009.035	330.16
1009.393	281.01
1009.752	344.21
1010.111	313.78
1010.469	353.57
1010.828	292.71
1011.186	376.97
1011.544	323.14
1011.903	332.5
1012.261	332.5
1012.619	316.12
1012.977	362.93
1013.335	290.37
1013.693	313.78
1014.051	229.52
1014.409	304.42
1014.767	323.14
1015.124	320.8
1015.482	313.78
1015.84	290.37
1016.197	323.14
1016.555	351.23
1016.912	217.82
1017.269	285.69
1017.627	316.12
1017.984	369.95
1018.341	323.14
1018.698	269.31
1019.055	285.69
1019.412	355.91
1019.769	304.42
1020.126	304.42
1020.483	262.29
1020.84	337.18
1021.196	288.03
1021.553	309.1
1021.909	393.36
1022.266	259.95
1022.622	264.63
1022.979	341.86
1023.335	292.71
1023.691	316.12
1024.047	341.86
1024.404	273.99
1024.76	290.37
1025.116	283.35
1025.472	327.82
1025.827	276.33
1026.183	292.71
1026.539	311.44
1026.895	302.08
1027.25	344.21
1027.606	383.99
1027.961	264.63
1028.317	311.44
1028.672	250.58
1029.028	299.73
1029.383	302.08
1029.738	311.44
1030.093	320.8
1030.448	374.63
1030.803	316.12
1031.158	325.48
1031.513	325.48
1031.868	339.52
1032.223	302.08
1032.577	332.5
1032.932	285.69
1033.287	309.1
1033.641	288.03
1033.996	358.25
1034.35	290.37
1034.704	285.69
1035.059	306.76
1035.413	365.27
1035.767	365.27
1036.121	365.27
