Data from Al_FLMS009871__1247__16-46-15-672.txt Node

Date: Fri Mar 08 16:46:15 CST 2024
User: pe5414po
Spectrometer: FLMS00987
Trigger mode: 0
Integration Time (sec): 1.000000E-1
Scans to average: 1
Electric dark correction enabled: true
Nonlinearity correction enabled: false
Boxcar width: 0
XAxis mode: Wavelengths
Number of Pixels in Spectrum: 2048
>>>>>Begin Spectral Data<<<<<
188.938	-35.11
189.409	-35.11
189.879	-35.11
190.349	-60.85
190.819	-93.62
191.29	-60.85
191.76	-107.66
192.23	-21.06
192.7	-100.64
193.17	-60.85
193.64	-95.96
194.109	-58.51
194.579	67.88
195.049	-65.54
195.519	16.38
195.988	81.92
196.458	53.83
196.927	70.22
197.397	42.13
197.866	114.69
198.336	124.05
198.805	189.58
199.274	156.82
199.744	166.18
200.213	234.05
200.682	168.52
201.151	248.1
201.62	259.8
202.089	297.25
202.558	234.05
203.027	318.31
203.495	250.44
203.964	287.89
204.433	339.38
204.902	308.95
205.37	299.59
205.839	287.89
206.307	311.29
206.776	318.31
207.244	257.46
207.712	266.82
208.181	358.1
208.649	346.4
209.117	337.04
209.585	283.2
210.053	292.57
210.521	313.63
210.989	290.23
211.457	313.63
211.925	318.31
212.393	318.31
212.861	311.29
213.328	271.5
213.796	297.25
214.264	299.59
214.731	294.91
215.199	252.78
215.666	271.5
216.133	311.29
216.601	285.55
217.068	269.16
217.535	294.91
218.003	243.42
218.47	294.91
218.937	264.48
219.404	292.57
219.871	278.52
220.338	276.18
220.805	339.38
221.271	266.82
221.738	318.31
222.205	217.67
222.671	278.52
223.138	346.4
223.605	222.35
224.071	252.78
224.538	285.55
225.004	320.65
225.47	262.14
225.937	353.42
226.403	280.86
226.869	292.57
227.335	243.42
227.801	318.31
228.267	227.03
228.733	304.27
229.199	290.23
229.665	351.08
230.131	313.63
230.597	262.14
231.062	241.08
231.528	285.55
231.994	348.74
232.459	325.33
232.925	294.91
233.39	269.16
233.856	264.48
234.321	234.05
234.786	273.84
235.252	236.39
235.717	203.63
236.182	304.27
236.647	313.63
237.112	285.55
237.577	318.31
238.042	250.44
238.507	231.71
238.972	311.29
239.436	315.97
239.901	290.23
240.366	315.97
240.83	362.78
241.295	257.46
241.76	344.06
242.224	238.73
242.688	278.52
243.153	344.06
243.617	255.12
244.081	339.38
244.545	301.93
245.01	301.93
245.474	325.33
245.938	327.67
246.402	280.86
246.866	318.31
247.33	238.73
247.793	330.02
248.257	304.27
248.721	304.27
249.185	313.63
249.648	287.89
250.112	365.12
250.575	283.2
251.039	241.08
251.502	311.29
251.965	306.61
252.429	276.18
252.892	341.72
253.355	278.52
253.818	299.59
254.281	339.38
254.744	320.65
255.207	278.52
255.67	339.38
256.133	304.27
256.596	276.18
257.059	299.59
257.522	292.57
257.984	266.82
258.447	264.48
258.909	353.42
259.372	318.31
259.834	257.46
260.297	311.29
260.759	262.14
261.221	278.52
261.684	229.37
262.146	311.29
262.608	294.91
263.07	234.05
263.532	269.16
263.994	311.29
264.456	262.14
264.918	358.1
265.38	374.49
265.842	325.33
266.303	234.05
266.765	332.36
267.227	257.46
267.688	243.42
268.15	278.52
268.611	276.18
269.072	311.29
269.534	311.29
269.995	252.78
270.456	301.93
270.918	334.7
271.379	322.99
271.84	327.67
272.301	322.99
272.762	257.46
273.223	320.65
273.684	283.2
274.144	262.14
274.605	278.52
275.066	255.12
275.527	313.63
275.987	252.78
276.448	341.72
276.908	320.65
277.369	379.17
277.829	344.06
278.289	294.91
278.75	287.89
279.21	322.99
279.67	301.93
280.13	311.29
280.59	353.42
281.05	320.65
281.51	320.65
281.97	285.55
282.43	294.91
282.89	344.06
283.35	313.63
283.809	327.67
284.269	330.02
284.729	367.46
285.188	306.61
285.648	311.29
286.107	337.04
286.567	318.31
287.026	318.31
287.485	339.38
287.944	304.27
288.404	327.67
288.863	313.63
289.322	304.27
289.781	299.59
290.24	245.76
290.699	360.44
291.158	259.8
291.616	325.33
292.075	266.82
292.534	327.67
292.992	320.65
293.451	287.89
293.91	348.74
294.368	330.02
294.827	271.5
295.285	327.67
295.743	315.97
296.202	322.99
296.66	271.5
297.118	313.63
297.576	313.63
298.034	367.46
298.492	334.7
298.95	243.42
299.408	315.97
299.866	297.25
300.324	290.23
300.781	287.89
301.239	280.86
301.697	255.12
302.154	287.89
302.612	327.67
303.069	292.57
303.527	294.91
303.984	313.63
304.441	315.97
304.899	327.67
305.356	257.46
305.813	414.27
306.27	311.29
306.727	344.06
307.184	360.44
307.641	287.89
308.098	266.82
308.555	285.55
309.012	320.65
309.468	320.65
309.925	259.8
310.382	325.33
310.838	315.97
311.295	327.67
311.751	360.44
312.208	325.33
312.664	325.33
313.12	297.25
313.577	332.36
314.033	330.02
314.489	348.74
314.945	376.83
315.401	297.25
315.857	311.29
316.313	285.55
316.769	351.08
317.225	308.95
317.681	311.29
318.136	369.8
318.592	325.33
319.048	320.65
319.503	337.04
319.959	266.82
320.414	320.65
320.869	283.2
321.325	318.31
321.78	294.91
322.235	297.25
322.691	327.67
323.146	360.44
323.601	341.72
324.056	301.93
324.511	292.57
324.966	299.59
325.421	301.93
325.875	362.78
326.33	327.67
326.785	294.91
327.24	257.46
327.694	224.69
328.149	250.44
328.603	355.76
329.058	353.42
329.512	330.02
329.966	266.82
330.421	259.8
330.875	276.18
331.329	283.2
331.783	299.59
332.237	311.29
332.691	306.61
333.145	306.61
333.599	332.36
334.053	341.72
334.507	355.76
334.96	339.38
335.414	334.7
335.868	311.29
336.321	334.7
336.775	327.67
337.228	369.8
337.682	372.15
338.135	276.18
338.588	292.57
339.042	365.12
339.495	339.38
339.948	301.93
340.401	362.78
340.854	308.95
341.307	308.95
341.76	299.59
342.213	308.95
342.666	330.02
343.119	318.31
343.571	355.76
344.024	266.82
344.477	308.95
344.929	346.4
345.382	351.08
345.834	351.08
346.287	311.29
346.739	299.59
347.191	290.23
347.644	344.06
348.096	292.57
348.548	355.76
349	299.59
349.452	318.31
349.904	409.59
350.356	290.23
350.808	341.72
351.26	341.72
351.711	355.76
352.163	297.25
352.615	369.8
353.066	250.44
353.518	259.8
353.969	318.31
354.421	325.33
354.872	297.25
355.324	315.97
355.775	330.02
356.226	304.27
356.677	301.93
357.128	339.38
357.579	348.74
358.03	351.08
358.481	287.89
358.932	308.95
359.383	322.99
359.834	327.67
360.285	287.89
360.735	320.65
361.186	360.44
361.637	362.78
362.087	294.91
362.538	315.97
362.988	327.67
363.438	297.25
363.889	311.29
364.339	269.16
364.789	334.7
365.239	374.49
365.689	320.65
366.139	332.36
366.589	292.57
367.039	297.25
367.489	355.76
367.939	346.4
368.389	348.74
368.839	322.99
369.288	297.25
369.738	337.04
370.187	318.31
370.637	318.31
371.086	311.29
371.536	334.7
371.985	299.59
372.434	332.36
372.884	271.5
373.333	341.72
373.782	273.84
374.231	327.67
374.68	362.78
375.129	294.91
375.578	301.93
376.027	332.36
376.475	322.99
376.924	320.65
377.373	339.38
377.822	351.08
378.27	339.38
378.719	367.46
379.167	327.67
379.616	322.99
380.064	339.38
380.512	280.86
380.961	341.72
381.409	280.86
381.857	297.25
382.305	365.12
382.753	374.49
383.201	311.29
383.649	355.76
384.097	362.78
384.545	248.1
384.992	365.12
385.44	388.53
385.888	360.44
386.335	381.51
386.783	297.25
387.231	318.31
387.678	278.52
388.125	344.06
388.573	269.16
389.02	358.1
389.467	308.95
389.914	353.42
390.362	362.78
390.809	278.52
391.256	304.27
391.703	271.5
392.15	339.38
392.596	362.78
393.043	330.02
393.49	362.78
393.937	280.86
394.383	402.57
394.83	344.06
395.276	285.55
395.723	344.06
396.169	308.95
396.616	360.44
397.062	311.29
397.508	306.61
397.954	287.89
398.401	280.86
398.847	255.12
399.293	365.12
399.739	362.78
400.185	311.29
400.631	318.31
401.076	341.72
401.522	346.4
401.968	367.46
402.414	322.99
402.859	332.36
403.305	358.1
403.75	290.23
404.196	360.44
404.641	353.42
405.086	292.57
405.532	290.23
405.977	271.5
406.422	334.7
406.867	348.74
407.312	271.5
407.757	332.36
408.202	322.99
408.647	404.91
409.092	337.04
409.537	365.12
409.982	315.97
410.426	325.33
410.871	369.8
411.316	322.99
411.76	322.99
412.205	334.7
412.649	367.46
413.093	325.33
413.538	330.02
413.982	297.25
414.426	320.65
414.87	322.99
415.314	386.19
415.758	383.85
416.202	358.1
416.646	369.8
417.09	353.42
417.534	416.62
417.978	355.76
418.421	313.63
418.865	311.29
419.309	273.84
419.752	339.38
420.196	318.31
420.639	376.83
421.083	294.91
421.526	322.99
421.969	397.89
422.412	318.31
422.856	351.08
423.299	348.74
423.742	339.38
424.185	348.74
424.628	299.59
425.071	358.1
425.513	294.91
425.956	271.5
426.399	318.31
426.842	318.31
427.284	262.14
427.727	348.74
428.169	360.44
428.612	271.5
429.054	332.36
429.497	280.86
429.939	351.08
430.381	372.15
430.823	337.04
431.265	386.19
431.707	271.5
432.149	236.39
432.591	372.15
433.033	327.67
433.475	313.63
433.917	234.05
434.359	351.08
434.8	334.7
435.242	299.59
435.684	353.42
436.125	285.55
436.567	330.02
437.008	344.06
437.449	322.99
437.891	348.74
438.332	315.97
438.773	346.4
439.214	311.29
439.656	273.84
440.097	379.17
440.538	306.61
440.978	308.95
441.419	327.67
441.86	379.17
442.301	320.65
442.742	325.33
443.182	355.76
443.623	308.95
444.063	292.57
444.504	294.91
444.944	334.7
445.385	332.36
445.825	360.44
446.265	313.63
446.706	315.97
447.146	325.33
447.586	381.51
448.026	287.89
448.466	320.65
448.906	325.33
449.346	301.93
449.786	367.46
450.225	358.1
450.665	332.36
451.105	292.57
451.544	341.72
451.984	294.91
452.424	318.31
452.863	330.02
453.302	379.17
453.742	311.29
454.181	348.74
454.62	383.85
455.059	262.14
455.499	353.42
455.938	313.63
456.377	351.08
456.816	248.1
457.254	360.44
457.693	344.06
458.132	311.29
458.571	362.78
459.01	339.38
459.448	306.61
459.887	292.57
460.325	346.4
460.764	325.33
461.202	346.4
461.641	287.89
462.079	304.27
462.517	308.95
462.955	362.78
463.393	322.99
463.832	334.7
464.27	339.38
464.708	304.27
465.145	330.02
465.583	264.48
466.021	395.55
466.459	332.36
466.897	250.44
467.334	322.99
467.772	355.76
468.209	313.63
468.647	367.46
469.084	376.83
469.522	376.83
469.959	341.72
470.396	372.15
470.833	332.36
471.271	327.67
471.708	351.08
472.145	362.78
472.582	353.42
473.019	344.06
473.456	290.23
473.892	367.46
474.329	315.97
474.766	320.65
475.202	344.06
475.639	337.04
476.076	308.95
476.512	320.65
476.949	308.95
477.385	311.29
477.821	322.99
478.258	346.4
478.694	313.63
479.13	299.59
479.566	374.49
480.002	358.1
480.438	337.04
480.874	367.46
481.31	322.99
481.746	304.27
482.181	290.23
482.617	369.8
483.053	337.04
483.488	301.93
483.924	353.42
484.36	322.99
484.795	330.02
485.23	337.04
485.666	238.73
486.101	245.76
486.536	344.06
486.971	369.8
487.407	299.59
487.842	287.89
488.277	327.67
488.712	395.55
489.146	344.06
489.581	290.23
490.016	306.61
490.451	332.36
490.885	337.04
491.32	348.74
491.755	313.63
492.189	269.16
492.624	348.74
493.058	369.8
493.492	351.08
493.927	339.38
494.361	325.33
494.795	365.12
495.229	344.06
495.663	344.06
496.097	280.86
496.531	372.15
496.965	341.72
497.399	315.97
497.833	311.29
498.266	332.36
498.7	297.25
499.134	334.7
499.567	376.83
500.001	379.17
500.434	344.06
500.868	301.93
501.301	362.78
501.734	337.04
502.168	297.25
502.601	353.42
503.034	332.36
503.467	306.61
503.9	360.44
504.333	386.19
504.766	339.38
505.199	334.7
505.632	372.15
506.064	278.52
506.497	351.08
506.93	318.31
507.362	339.38
507.795	315.97
508.227	372.15
508.66	320.65
509.092	318.31
509.524	351.08
509.956	325.33
510.389	306.61
510.821	332.36
511.253	280.86
511.685	311.29
512.117	344.06
512.549	348.74
512.981	344.06
513.412	341.72
513.844	308.95
514.276	330.02
514.707	332.36
515.139	330.02
515.571	367.46
516.002	285.55
516.433	327.67
516.865	339.38
517.296	360.44
517.727	337.04
518.159	315.97
518.59	318.31
519.021	379.17
519.452	311.29
519.883	290.23
520.314	325.33
520.744	327.67
521.175	283.2
521.606	332.36
522.037	313.63
522.467	264.48
522.898	257.46
523.328	313.63
523.759	348.74
524.189	306.61
524.62	351.08
525.05	306.61
525.48	353.42
525.91	266.82
526.341	315.97
526.771	390.87
527.201	306.61
527.631	386.19
528.061	311.29
528.49	311.29
528.92	283.2
529.35	325.33
529.78	313.63
530.209	322.99
530.639	360.44
531.068	351.08
531.498	301.93
531.927	269.16
532.357	297.25
532.786	353.42
533.215	306.61
533.644	304.27
534.074	362.78
534.503	311.29
534.932	315.97
535.361	362.78
535.79	241.08
536.218	372.15
536.647	360.44
537.076	358.1
537.505	320.65
537.933	330.02
538.362	315.97
538.79	320.65
539.219	327.67
539.647	327.67
540.076	332.36
540.504	400.23
540.932	327.67
541.36	313.63
541.788	304.27
542.217	339.38
542.645	287.89
543.073	304.27
543.5	297.25
543.928	423.64
544.356	332.36
544.784	315.97
545.211	367.46
545.639	306.61
546.067	360.44
546.494	339.38
546.922	339.38
547.349	290.23
547.776	292.57
548.204	344.06
548.631	360.44
549.058	327.67
549.485	262.14
549.912	374.49
550.339	344.06
550.766	306.61
551.193	294.91
551.62	351.08
552.047	341.72
552.474	306.61
552.9	330.02
553.327	348.74
553.754	315.97
554.18	278.52
554.607	325.33
555.033	360.44
555.459	351.08
555.886	372.15
556.312	367.46
556.738	283.2
557.164	334.7
557.59	292.57
558.016	311.29
558.442	294.91
558.868	280.86
559.294	339.38
559.72	318.31
560.145	346.4
560.571	339.38
560.997	379.17
561.422	407.25
561.848	369.8
562.273	355.76
562.699	280.86
563.124	409.59
563.549	339.38
563.974	273.84
564.4	360.44
564.825	322.99
565.25	334.7
565.675	308.95
566.1	327.67
566.525	325.33
566.95	344.06
567.374	344.06
567.799	322.99
568.224	379.17
568.648	353.42
569.073	311.29
569.497	334.7
569.922	250.44
570.346	311.29
570.771	339.38
571.195	308.95
571.619	320.65
572.043	320.65
572.467	351.08
572.891	341.72
573.315	313.63
573.739	304.27
574.163	318.31
574.587	283.2
575.011	264.48
575.435	367.46
575.858	287.89
576.282	290.23
576.705	365.12
577.129	332.36
577.552	313.63
577.976	306.61
578.399	290.23
578.822	360.44
579.245	297.25
579.669	297.25
580.092	330.02
580.515	355.76
580.938	306.61
581.361	353.42
581.784	301.93
582.206	337.04
582.629	299.59
583.052	390.87
583.474	330.02
583.897	308.95
584.32	318.31
584.742	360.44
585.165	320.65
585.587	341.72
586.009	369.8
586.431	388.53
586.854	301.93
587.276	337.04
587.698	376.83
588.12	315.97
588.542	297.25
588.964	327.67
589.386	252.78
589.807	355.76
590.229	325.33
590.651	311.29
591.073	341.72
591.494	299.59
591.916	365.12
592.337	339.38
592.759	360.44
593.18	353.42
593.601	327.67
594.022	299.59
594.444	285.55
594.865	339.38
595.286	297.25
595.707	290.23
596.128	355.76
596.549	301.93
596.97	346.4
597.39	320.65
597.811	290.23
598.232	294.91
598.652	299.59
599.073	365.12
599.494	271.5
599.914	294.91
600.334	330.02
600.755	318.31
601.175	379.17
601.595	318.31
602.015	376.83
602.436	308.95
602.856	500.87
603.276	339.38
603.696	341.72
604.115	360.44
604.535	299.59
604.955	367.46
605.375	379.17
605.794	330.02
606.214	315.97
606.634	285.55
607.053	322.99
607.473	320.65
607.892	369.8
608.311	325.33
608.731	330.02
609.15	376.83
609.569	351.08
609.988	306.61
610.407	390.87
610.826	369.8
611.245	388.53
611.664	358.1
612.083	339.38
612.501	334.7
612.92	301.93
613.339	344.06
613.757	313.63
614.176	337.04
614.594	315.97
615.013	360.44
615.431	320.65
615.85	334.7
616.268	318.31
616.686	330.02
617.104	353.42
617.522	304.27
617.94	325.33
618.358	337.04
618.776	341.72
619.194	292.57
619.612	330.02
620.03	297.25
620.447	313.63
620.865	358.1
621.282	318.31
621.7	351.08
622.117	344.06
622.535	301.93
622.952	285.55
623.369	388.53
623.787	353.42
624.204	325.33
624.621	313.63
625.038	325.33
625.455	301.93
625.872	250.44
626.289	278.52
626.706	358.1
627.123	311.29
627.539	374.49
627.956	325.33
628.373	358.1
628.789	379.17
629.206	332.36
629.622	365.12
630.038	334.7
630.455	365.12
630.871	297.25
631.287	348.74
631.703	313.63
632.12	372.15
632.536	322.99
632.952	358.1
633.368	397.89
633.783	278.52
634.199	334.7
634.615	330.02
635.031	360.44
635.446	297.25
635.862	353.42
636.277	376.83
636.693	393.21
637.108	339.38
637.524	334.7
637.939	320.65
638.354	304.27
638.77	332.36
639.185	388.53
639.6	255.12
640.015	299.59
640.43	320.65
640.845	264.48
641.259	334.7
641.674	308.95
642.089	458.74
642.504	304.27
642.918	313.63
643.333	330.02
643.747	346.4
644.162	322.99
644.576	362.78
644.991	292.57
645.405	337.04
645.819	318.31
646.233	358.1
646.647	358.1
647.061	360.44
647.475	290.23
647.889	388.53
648.303	308.95
648.717	318.31
649.131	283.2
649.545	290.23
649.958	287.89
650.372	327.67
650.785	322.99
651.199	332.36
651.612	360.44
652.026	339.38
652.439	341.72
652.852	367.46
653.266	306.61
653.679	358.1
654.092	294.91
654.505	273.84
654.918	374.49
655.331	325.33
655.744	341.72
656.156	348.74
656.569	341.72
656.982	308.95
657.394	320.65
657.807	344.06
658.22	299.59
658.632	334.7
659.044	337.04
659.457	313.63
659.869	311.29
660.281	351.08
660.693	330.02
661.106	318.31
661.518	344.06
661.93	355.76
662.342	358.1
662.754	327.67
663.165	318.31
663.577	404.91
663.989	322.99
664.401	332.36
664.812	318.31
665.224	341.72
665.635	332.36
666.047	330.02
666.458	297.25
666.869	322.99
667.281	456.4
667.692	301.93
668.103	299.59
668.514	264.48
668.925	404.91
669.336	348.74
669.747	318.31
670.158	248.1
670.569	294.91
670.979	285.55
671.39	388.53
671.801	346.4
672.211	353.42
672.622	334.7
673.032	301.93
673.443	358.1
673.853	332.36
674.263	344.06
674.674	287.89
675.084	360.44
675.494	285.55
675.904	315.97
676.314	339.38
676.724	339.38
677.134	292.57
677.544	292.57
677.953	315.97
678.363	360.44
678.773	369.8
679.182	337.04
679.592	262.14
680.001	320.65
680.411	325.33
680.82	358.1
681.23	388.53
681.639	369.8
682.048	294.91
682.457	283.2
682.866	388.53
683.275	330.02
683.684	367.46
684.093	315.97
684.502	341.72
684.911	287.89
685.32	374.49
685.728	280.86
686.137	348.74
686.546	325.33
686.954	358.1
687.363	383.85
687.771	327.67
688.179	355.76
688.588	320.65
688.996	290.23
689.404	290.23
689.812	425.98
690.22	337.04
690.628	285.55
691.036	374.49
691.444	271.5
691.852	362.78
692.26	355.76
692.667	325.33
693.075	388.53
693.483	346.4
693.89	367.46
694.298	271.5
694.705	330.02
695.112	311.29
695.52	337.04
695.927	313.63
696.334	322.99
696.741	337.04
697.148	248.1
697.555	322.99
697.962	306.61
698.369	344.06
698.776	280.86
699.183	306.61
699.59	311.29
699.996	414.27
700.403	344.06
700.81	322.99
701.216	334.7
701.623	327.67
702.029	322.99
702.435	297.25
702.842	339.38
703.248	301.93
703.654	369.8
704.06	297.25
704.466	315.97
704.872	346.4
705.278	271.5
705.684	315.97
706.09	334.7
706.496	315.97
706.901	365.12
707.307	360.44
707.712	367.46
708.118	334.7
708.523	311.29
708.929	322.99
709.334	315.97
709.74	337.04
710.145	376.83
710.55	337.04
710.955	325.33
711.36	362.78
711.765	276.18
712.17	337.04
712.575	322.99
712.98	788.76
713.385	386.19
713.789	367.46
714.194	308.95
714.599	334.7
715.003	355.76
715.408	280.86
715.812	355.76
716.217	351.08
716.621	292.57
717.025	383.85
717.429	271.5
717.833	299.59
718.238	334.7
718.642	351.08
719.046	327.67
719.449	383.85
719.853	346.4
720.257	301.93
720.661	292.57
721.065	290.23
721.468	332.36
721.872	337.04
722.275	313.63
722.679	355.76
723.082	341.72
723.485	358.1
723.889	248.1
724.292	344.06
724.695	346.4
725.098	451.72
725.501	313.63
725.904	315.97
726.307	311.29
726.71	294.91
727.113	365.12
727.516	348.74
727.918	297.25
728.321	337.04
728.724	339.38
729.126	313.63
729.529	332.36
729.931	306.61
730.333	355.76
730.736	322.99
731.138	301.93
731.54	301.93
731.942	376.83
732.344	252.78
732.746	339.38
733.148	332.36
733.55	322.99
733.952	355.76
734.354	304.27
734.756	318.31
735.157	390.87
735.559	362.78
735.96	374.49
736.362	353.42
736.763	294.91
737.165	315.97
737.566	287.89
737.967	294.91
738.368	301.93
738.77	348.74
739.171	292.57
739.572	297.25
739.973	311.29
740.374	341.72
740.774	337.04
741.175	285.55
741.576	287.89
741.977	290.23
742.377	358.1
742.778	322.99
743.178	372.15
743.579	236.39
743.979	365.12
744.379	285.55
744.78	353.42
745.18	306.61
745.58	341.72
745.98	337.04
746.38	315.97
746.78	306.61
747.18	301.93
747.58	330.02
747.98	327.67
748.38	404.91
748.779	241.08
749.179	299.59
749.578	299.59
749.978	318.31
750.377	332.36
750.777	362.78
751.176	290.23
751.575	304.27
751.975	337.04
752.374	325.33
752.773	292.57
753.172	276.18
753.571	320.65
753.97	393.21
754.369	297.25
754.768	280.86
755.166	306.61
755.565	294.91
755.964	341.72
756.362	339.38
756.761	365.12
757.159	306.61
757.558	264.48
757.956	353.42
758.354	341.72
758.753	271.5
759.151	358.1
759.549	327.67
759.947	353.42
760.345	372.15
760.743	346.4
761.141	299.59
761.539	299.59
761.936	320.65
762.334	283.2
762.732	257.46
763.129	360.44
763.527	322.99
763.924	318.31
764.322	304.27
764.719	283.2
765.117	348.74
765.514	320.65
765.911	369.8
766.308	334.7
766.705	374.49
767.102	313.63
767.499	351.08
767.896	292.57
768.293	330.02
768.69	327.67
769.086	320.65
769.483	334.7
769.88	318.31
770.276	280.86
770.673	285.55
771.069	266.82
771.466	358.1
771.862	299.59
772.258	337.04
772.654	264.48
773.05	287.89
773.447	299.59
773.843	322.99
774.239	262.14
774.634	299.59
775.03	255.12
775.426	285.55
775.822	306.61
776.218	360.44
776.613	351.08
777.009	308.95
777.404	292.57
777.8	325.33
778.195	292.57
778.59	315.97
778.986	369.8
779.381	276.18
779.776	273.84
780.171	369.8
780.566	301.93
780.961	292.57
781.356	306.61
781.751	327.67
782.146	353.42
782.54	318.31
782.935	337.04
783.33	306.61
783.724	271.5
784.119	339.38
784.513	308.95
784.908	402.57
785.302	372.15
785.696	355.76
786.09	337.04
786.485	341.72
786.879	313.63
787.273	245.76
787.667	332.36
788.061	327.67
788.454	404.91
788.848	278.52
789.242	262.14
789.636	362.78
790.029	332.36
790.423	360.44
790.816	320.65
791.21	327.67
791.603	306.61
791.997	325.33
792.39	297.25
792.783	285.55
793.176	318.31
793.569	306.61
793.962	339.38
794.355	306.61
794.748	306.61
795.141	351.08
795.534	339.38
795.927	351.08
796.319	306.61
796.712	395.55
797.105	344.06
797.497	257.46
797.89	297.25
798.282	292.57
798.674	266.82
799.067	264.48
799.459	348.74
799.851	330.02
800.243	332.36
800.635	292.57
801.027	337.04
801.419	313.63
801.811	299.59
802.203	334.7
802.594	271.5
802.986	355.76
803.378	259.8
803.769	374.49
804.161	311.29
804.552	313.63
804.944	379.17
805.335	362.78
805.726	341.72
806.118	351.08
806.509	320.65
806.9	348.74
807.291	334.7
807.682	283.2
808.073	315.97
808.464	327.67
808.855	318.31
809.245	306.61
809.636	351.08
810.027	306.61
810.417	332.36
810.808	290.23
811.198	330.02
811.589	372.15
811.979	306.61
812.369	306.61
812.759	332.36
813.15	276.18
813.54	273.84
813.93	386.19
814.32	297.25
814.71	390.87
815.1	367.46
815.489	374.49
815.879	304.27
816.269	344.06
816.658	339.38
817.048	374.49
817.438	341.72
817.827	334.7
818.216	330.02
818.606	346.4
818.995	360.44
819.384	301.93
819.773	273.84
820.163	322.99
820.552	280.86
820.941	264.48
821.33	332.36
821.718	351.08
822.107	339.38
822.496	337.04
822.885	341.72
823.273	311.29
823.662	297.25
824.05	327.67
824.439	332.36
824.827	273.84
825.216	257.46
825.604	292.57
825.992	332.36
826.38	236.39
826.768	369.8
827.156	367.46
827.544	266.82
827.932	334.7
828.32	313.63
828.708	287.89
829.096	322.99
829.483	325.33
829.871	353.42
830.259	348.74
830.646	250.44
831.034	320.65
831.421	315.97
831.808	334.7
832.196	327.67
832.583	376.83
832.97	355.76
833.357	301.93
833.744	320.65
834.131	308.95
834.518	308.95
834.905	299.59
835.292	393.21
835.678	299.59
836.065	327.67
836.452	388.53
836.838	355.76
837.225	276.18
837.611	294.91
837.998	276.18
838.384	362.78
838.77	308.95
839.157	250.44
839.543	264.48
839.929	330.02
840.315	287.89
840.701	313.63
841.087	339.38
841.473	299.59
841.858	369.8
842.244	362.78
842.63	297.25
843.015	294.91
843.401	557.05
843.787	334.7
844.172	306.61
844.557	259.8
844.943	358.1
845.328	297.25
845.713	358.1
846.098	315.97
846.483	301.93
846.868	322.99
847.253	339.38
847.638	332.36
848.023	330.02
848.408	341.72
848.793	334.7
849.177	318.31
849.562	315.97
849.947	337.04
850.331	362.78
850.715	376.83
851.1	337.04
851.484	315.97
851.868	332.36
852.253	287.89
852.637	294.91
853.021	322.99
853.405	292.57
853.789	381.51
854.173	330.02
854.557	330.02
854.94	301.93
855.324	365.12
855.708	339.38
856.091	327.67
856.475	327.67
856.858	365.12
857.242	332.36
857.625	322.99
858.009	341.72
858.392	327.67
858.775	299.59
859.158	386.19
859.541	315.97
859.924	278.52
860.307	262.14
860.69	280.86
861.073	341.72
861.456	344.06
861.838	358.1
862.221	341.72
862.604	318.31
862.986	287.89
863.369	320.65
863.751	341.72
864.133	315.97
864.516	369.8
864.898	344.06
865.28	322.99
865.662	301.93
866.044	255.12
866.426	320.65
866.808	311.29
867.19	236.39
867.572	318.31
867.954	280.86
868.336	337.04
868.717	285.55
869.099	290.23
869.48	313.63
869.862	299.59
870.243	285.55
870.625	362.78
871.006	346.4
871.387	292.57
871.768	308.95
872.149	348.74
872.53	306.61
872.911	337.04
873.292	332.36
873.673	322.99
874.054	271.5
874.435	404.91
874.815	318.31
875.196	315.97
875.577	306.61
875.957	304.27
876.338	304.27
876.718	304.27
877.098	348.74
877.479	315.97
877.859	330.02
878.239	320.65
878.619	292.57
878.999	369.8
879.379	390.87
879.759	374.49
880.139	318.31
880.519	332.36
880.898	320.65
881.278	372.15
881.658	290.23
882.037	369.8
882.417	297.25
882.796	365.12
883.176	330.02
883.555	308.95
883.934	311.29
884.313	292.57
884.693	304.27
885.072	257.46
885.451	346.4
885.83	322.99
886.209	393.21
886.587	315.97
886.966	339.38
887.345	308.95
887.724	330.02
888.102	304.27
888.481	320.65
888.859	341.72
889.238	294.91
889.616	365.12
889.994	348.74
890.373	280.86
890.751	325.33
891.129	334.7
891.507	337.04
891.885	299.59
892.263	257.46
892.641	334.7
893.019	292.57
893.396	337.04
893.774	379.17
894.152	259.8
894.529	283.2
894.907	318.31
895.284	365.12
895.662	334.7
896.039	301.93
896.416	440.02
896.794	351.08
897.171	252.78
897.548	297.25
897.925	276.18
898.302	355.76
898.679	301.93
899.056	346.4
899.433	292.57
899.809	334.7
900.186	252.78
900.563	341.72
900.939	383.85
901.316	285.55
901.692	330.02
902.069	257.46
902.445	283.2
902.821	341.72
903.197	348.74
903.574	280.86
903.95	348.74
904.326	332.36
904.702	344.06
905.078	341.72
905.454	332.36
905.829	327.67
906.205	287.89
906.581	306.61
906.956	320.65
907.332	320.65
907.707	341.72
908.083	273.84
908.458	381.51
908.833	337.04
909.209	299.59
909.584	301.93
909.959	327.67
910.334	283.2
910.709	337.04
911.084	383.85
911.459	290.23
911.834	332.36
912.209	346.4
912.583	215.33
912.958	262.14
913.333	337.04
913.707	287.89
914.082	337.04
914.456	294.91
914.83	322.99
915.205	360.44
915.579	255.12
915.953	341.72
916.327	362.78
916.701	301.93
917.075	292.57
917.449	322.99
917.823	320.65
918.197	400.23
918.571	304.27
918.944	313.63
919.318	287.89
919.692	294.91
920.065	283.2
920.438	353.42
920.812	334.7
921.185	283.2
921.558	287.89
921.932	365.12
922.305	269.16
922.678	358.1
923.051	360.44
923.424	255.12
923.797	365.12
924.17	278.52
924.542	360.44
924.915	315.97
925.288	346.4
925.661	351.08
926.033	325.33
926.406	301.93
926.778	315.97
927.15	374.49
927.523	334.7
927.895	306.61
928.267	308.95
928.639	269.16
929.011	341.72
929.383	344.06
929.755	344.06
930.127	308.95
930.499	358.1
930.871	348.74
931.242	348.74
931.614	330.02
931.986	341.72
932.357	360.44
932.729	299.59
933.1	290.23
933.471	355.76
933.843	250.44
934.214	362.78
934.585	332.36
934.956	304.27
935.327	290.23
935.698	292.57
936.069	269.16
936.44	306.61
936.811	362.78
937.182	369.8
937.552	337.04
937.923	372.15
938.293	367.46
938.664	320.65
939.034	330.02
939.405	322.99
939.775	287.89
940.145	290.23
940.516	318.31
940.886	397.89
941.256	301.93
941.626	311.29
941.996	337.04
942.366	290.23
942.735	273.84
943.105	285.55
943.475	337.04
943.845	290.23
944.214	294.91
944.584	308.95
944.953	358.1
945.323	332.36
945.692	327.67
946.061	381.51
946.43	299.59
946.8	360.44
947.169	311.29
947.538	346.4
947.907	339.38
948.276	294.91
948.645	255.12
949.013	322.99
949.382	294.91
949.751	322.99
950.119	311.29
950.488	285.55
950.857	325.33
951.225	348.74
951.593	297.25
951.962	322.99
952.33	344.06
952.698	390.87
953.066	304.27
953.434	315.97
953.802	259.8
954.17	320.65
954.538	339.38
954.906	339.38
955.274	320.65
955.642	381.51
956.009	355.76
956.377	355.76
956.744	313.63
957.112	308.95
957.479	315.97
957.847	271.5
958.214	290.23
958.581	250.44
958.948	313.63
959.315	297.25
959.683	369.8
960.05	332.36
960.416	292.57
960.783	269.16
961.15	306.61
961.517	315.97
961.884	297.25
962.25	290.23
962.617	255.12
962.983	330.02
963.35	306.61
963.716	236.39
964.082	322.99
964.449	304.27
964.815	294.91
965.181	297.25
965.547	299.59
965.913	255.12
966.279	297.25
966.645	372.15
967.011	292.57
967.377	290.23
967.742	294.91
968.108	362.78
968.474	367.46
968.839	285.55
969.205	257.46
969.57	245.76
969.935	306.61
970.301	271.5
970.666	292.57
971.031	376.83
971.396	374.49
971.761	344.06
972.126	299.59
972.491	351.08
972.856	355.76
973.221	322.99
973.586	330.02
973.95	346.4
974.315	344.06
974.679	346.4
975.044	334.7
975.408	327.67
975.773	360.44
976.137	348.74
976.501	313.63
976.866	325.33
977.23	304.27
977.594	353.42
977.958	341.72
978.322	320.65
978.686	334.7
979.049	273.84
979.413	390.87
979.777	339.38
980.141	294.91
980.504	330.02
980.868	355.76
981.231	273.84
981.595	299.59
981.958	287.89
982.321	351.08
982.684	322.99
983.048	346.4
983.411	355.76
983.774	311.29
984.137	283.2
984.5	376.83
984.862	369.8
985.225	355.76
985.588	360.44
985.951	322.99
986.313	243.42
986.676	334.7
987.038	355.76
987.401	348.74
987.763	330.02
988.125	318.31
988.488	264.48
988.85	285.55
989.212	308.95
989.574	220.01
989.936	290.23
990.298	262.14
990.66	330.02
991.022	327.67
991.383	320.65
991.745	234.05
992.107	229.37
992.468	313.63
992.83	337.04
993.191	266.82
993.553	355.76
993.914	278.52
994.275	306.61
994.637	313.63
994.998	404.91
995.359	379.17
995.72	330.02
996.081	306.61
996.442	344.06
996.803	374.49
997.163	362.78
997.524	327.67
997.885	320.65
998.245	297.25
998.606	280.86
998.966	334.7
999.327	304.27
999.687	388.53
1000.047	311.29
1000.408	337.04
1000.768	297.25
1001.128	287.89
1001.488	330.02
1001.848	355.76
1002.208	313.63
1002.568	330.02
1002.927	358.1
1003.287	304.27
1003.647	355.76
1004.007	320.65
1004.366	332.36
1004.726	351.08
1005.085	325.33
1005.444	290.23
1005.804	379.17
1006.163	269.16
1006.522	287.89
1006.881	330.02
1007.24	332.36
1007.599	311.29
1007.958	348.74
1008.317	264.48
1008.676	285.55
1009.035	320.65
1009.393	341.72
1009.752	308.95
1010.111	397.89
1010.469	231.71
1010.828	294.91
1011.186	353.42
1011.544	388.53
1011.903	362.78
1012.261	344.06
1012.619	320.65
1012.977	320.65
1013.335	330.02
1013.693	325.33
1014.051	353.42
1014.409	299.59
1014.767	280.86
1015.124	276.18
1015.482	292.57
1015.84	315.97
1016.197	318.31
1016.555	346.4
1016.912	381.51
1017.269	308.95
1017.627	311.29
1017.984	337.04
1018.341	257.46
1018.698	339.38
1019.055	322.99
1019.412	294.91
1019.769	304.27
1020.126	362.78
1020.483	308.95
1020.84	330.02
1021.196	330.02
1021.553	330.02
1021.909	320.65
1022.266	276.18
1022.622	308.95
1022.979	313.63
1023.335	369.8
1023.691	346.4
1024.047	245.76
1024.404	276.18
1024.76	315.97
1025.116	278.52
1025.472	332.36
1025.827	299.59
1026.183	330.02
1026.539	353.42
1026.895	330.02
1027.25	297.25
1027.606	299.59
1027.961	425.98
1028.317	348.74
1028.672	280.86
1029.028	311.29
1029.383	294.91
1029.738	278.52
1030.093	318.31
1030.448	360.44
1030.803	327.67
1031.158	306.61
1031.513	297.25
1031.868	271.5
1032.223	334.7
1032.577	299.59
1032.932	320.65
1033.287	334.7
1033.641	327.67
1033.996	367.46
1034.35	257.46
1034.704	276.18
1035.059	273.84
1035.413	337.04
1035.767	337.04
1036.121	337.04
