Data from Al_FLMS009871__1255__16-46-16-472.txt Node

Date: Fri Mar 08 16:46:16 CST 2024
User: pe5414po
Spectrometer: FLMS00987
Trigger mode: 0
Integration Time (sec): 1.000000E-1
Scans to average: 1
Electric dark correction enabled: true
Nonlinearity correction enabled: false
Boxcar width: 0
XAxis mode: Wavelengths
Number of Pixels in Spectrum: 2048
>>>>>Begin Spectral Data<<<<<
188.938	-49.74
189.409	-49.74
189.879	-49.74
190.349	-155.06
190.819	-119.95
191.29	-66.12
191.76	-61.44
192.23	-87.18
192.7	-84.84
193.17	-91.87
193.64	-45.06
194.109	-52.08
194.579	18.14
195.049	-21.65
195.519	34.52
195.988	29.84
196.458	46.23
196.927	67.29
197.397	69.63
197.866	107.08
198.336	137.51
198.805	142.19
199.274	151.55
199.744	130.48
200.213	205.38
200.682	214.74
201.151	221.77
201.62	273.26
202.089	198.36
202.558	259.21
203.027	254.53
203.495	238.15
203.964	296.66
204.433	249.85
204.902	327.09
205.37	249.85
205.839	252.19
206.307	289.64
206.776	266.24
207.244	296.66
207.712	266.24
208.181	315.39
208.649	352.84
209.117	219.43
209.585	322.41
210.053	369.22
210.521	299
210.989	270.92
211.457	294.32
211.925	242.83
212.393	317.73
212.861	282.62
213.328	263.9
213.796	256.87
214.264	320.07
214.731	306.03
215.199	315.39
215.666	338.79
216.133	331.77
216.601	301.34
217.068	261.55
217.535	284.96
218.003	259.21
218.47	317.73
218.937	245.17
219.404	245.17
219.871	261.55
220.338	242.83
220.805	334.11
221.271	315.39
221.738	273.26
222.205	235.81
222.671	291.98
223.138	228.79
223.605	242.83
224.071	212.4
224.538	235.81
225.004	277.94
225.47	270.92
225.937	245.17
226.403	224.11
226.869	221.77
227.335	252.19
227.801	245.17
228.267	240.49
228.733	254.53
229.199	238.15
229.665	268.58
230.131	273.26
230.597	224.11
231.062	324.75
231.528	313.05
231.994	280.28
232.459	240.49
232.925	268.58
233.39	228.79
233.856	242.83
234.321	306.03
234.786	303.68
235.252	266.24
235.717	266.24
236.182	235.81
236.647	284.96
237.112	284.96
237.577	289.64
238.042	289.64
238.507	301.34
238.972	233.47
239.436	313.05
239.901	291.98
240.366	282.62
240.83	268.58
241.295	301.34
241.76	247.51
242.224	301.34
242.688	254.53
243.153	270.92
243.617	315.39
244.081	322.41
244.545	273.26
245.01	301.34
245.474	268.58
245.938	261.55
246.402	256.87
246.866	282.62
247.33	263.9
247.793	224.11
248.257	259.21
248.721	303.68
249.185	282.62
249.648	277.94
250.112	329.43
250.575	327.09
251.039	336.45
251.502	320.07
251.965	266.24
252.429	249.85
252.892	226.45
253.355	315.39
253.818	231.13
254.281	369.22
254.744	261.55
255.207	306.03
255.67	289.64
256.133	261.55
256.596	341.13
257.059	352.84
257.522	317.73
257.984	315.39
258.447	277.94
258.909	313.05
259.372	252.19
259.834	273.26
260.297	284.96
260.759	289.64
261.221	350.5
261.684	273.26
262.146	324.75
262.608	275.6
263.07	291.98
263.532	270.92
263.994	291.98
264.456	331.77
264.918	275.6
265.38	245.17
265.842	277.94
266.303	273.26
266.765	308.37
267.227	266.24
267.688	235.81
268.15	299
268.611	235.81
269.072	249.85
269.534	284.96
269.995	268.58
270.456	338.79
270.918	301.34
271.379	284.96
271.84	294.32
272.301	313.05
272.762	338.79
273.223	338.79
273.684	313.05
274.144	322.41
274.605	294.32
275.066	315.39
275.527	282.62
275.987	289.64
276.448	331.77
276.908	280.28
277.369	252.19
277.829	291.98
278.289	282.62
278.75	294.32
279.21	240.49
279.67	334.11
280.13	324.75
280.59	277.94
281.05	303.68
281.51	289.64
281.97	256.87
282.43	294.32
282.89	284.96
283.35	303.68
283.809	348.15
284.269	284.96
284.729	322.41
285.188	317.73
285.648	322.41
286.107	306.03
286.567	280.28
287.026	373.9
287.485	254.53
287.944	313.05
288.404	317.73
288.863	249.85
289.322	249.85
289.781	277.94
290.24	252.19
290.699	282.62
291.158	336.45
291.616	322.41
292.075	270.92
292.534	282.62
292.992	343.47
293.451	301.34
293.91	331.77
294.368	366.88
294.827	291.98
295.285	299
295.743	394.97
296.202	242.83
296.66	291.98
297.118	277.94
297.576	371.56
298.034	306.03
298.492	320.07
298.95	324.75
299.408	336.45
299.866	313.05
300.324	284.96
300.781	268.58
301.239	341.13
301.697	296.66
302.154	317.73
302.612	336.45
303.069	383.26
303.527	345.81
303.984	406.67
304.441	277.94
304.899	291.98
305.356	306.03
305.813	310.71
306.27	289.64
306.727	345.81
307.184	362.2
307.641	369.22
308.098	296.66
308.555	287.3
309.012	291.98
309.468	313.05
309.925	322.41
310.382	317.73
310.838	294.32
311.295	310.71
311.751	401.99
312.208	238.15
312.664	240.49
313.12	359.86
313.577	366.88
314.033	343.47
314.489	387.94
314.945	392.62
315.401	280.28
315.857	240.49
316.313	280.28
316.769	313.05
317.225	277.94
317.681	259.21
318.136	275.6
318.592	282.62
319.048	275.6
319.503	345.81
319.959	299
320.414	308.37
320.869	282.62
321.325	350.5
321.78	245.17
322.235	320.07
322.691	315.39
323.146	306.03
323.601	341.13
324.056	329.43
324.511	329.43
324.966	364.54
325.421	303.68
325.875	345.81
326.33	329.43
326.785	343.47
327.24	338.79
327.694	294.32
328.149	376.24
328.603	268.58
329.058	289.64
329.512	306.03
329.966	327.09
330.421	296.66
330.875	289.64
331.329	287.3
331.783	327.09
332.237	310.71
332.691	327.09
333.145	334.11
333.599	313.05
334.053	324.75
334.507	315.39
334.96	352.84
335.414	322.41
335.868	261.55
336.321	327.09
336.775	280.28
337.228	336.45
337.682	350.5
338.135	296.66
338.588	343.47
339.042	268.58
339.495	334.11
339.948	341.13
340.401	266.24
340.854	322.41
341.307	322.41
341.76	313.05
342.213	299
342.666	303.68
343.119	331.77
343.571	322.41
344.024	341.13
344.477	329.43
344.929	299
345.382	317.73
345.834	294.32
346.287	378.58
346.739	268.58
347.191	245.17
347.644	306.03
348.096	313.05
348.548	350.5
349	317.73
349.452	348.15
349.904	383.26
350.356	242.83
350.808	327.09
351.26	310.71
351.711	376.24
352.163	315.39
352.615	263.9
353.066	310.71
353.518	306.03
353.969	348.15
354.421	331.77
354.872	324.75
355.324	315.39
355.775	284.96
356.226	315.39
356.677	350.5
357.128	350.5
357.579	327.09
358.03	299
358.481	341.13
358.932	303.68
359.383	341.13
359.834	324.75
360.285	310.71
360.735	317.73
361.186	299
361.637	317.73
362.087	331.77
362.538	329.43
362.988	366.88
363.438	263.9
363.889	376.24
364.339	322.41
364.789	301.34
365.239	380.92
365.689	413.69
366.139	310.71
366.589	308.37
367.039	329.43
367.489	294.32
367.939	390.28
368.389	310.71
368.839	343.47
369.288	277.94
369.738	317.73
370.187	331.77
370.637	306.03
371.086	331.77
371.536	327.09
371.985	296.66
372.434	299
372.884	280.28
373.333	303.68
373.782	320.07
374.231	322.41
374.68	310.71
375.129	380.92
375.578	275.6
376.027	310.71
376.475	294.32
376.924	338.79
377.373	210.06
377.822	331.77
378.27	366.88
378.719	401.99
379.167	329.43
379.616	299
380.064	289.64
380.512	376.24
380.961	324.75
381.409	334.11
381.857	301.34
382.305	324.75
382.753	338.79
383.201	364.54
383.649	280.28
384.097	371.56
384.545	350.5
384.992	362.2
385.44	357.52
385.888	291.98
386.335	317.73
386.783	303.68
387.231	303.68
387.678	329.43
388.125	291.98
388.573	334.11
389.02	266.24
389.467	299
389.914	310.71
390.362	310.71
390.809	350.5
391.256	331.77
391.703	329.43
392.15	385.6
392.596	315.39
393.043	308.37
393.49	322.41
393.937	268.58
394.383	324.75
394.83	313.05
395.276	334.11
395.723	434.75
396.169	331.77
396.616	359.86
397.062	294.32
397.508	345.81
397.954	359.86
398.401	355.18
398.847	294.32
399.293	308.37
399.739	296.66
400.185	303.68
400.631	306.03
401.076	359.86
401.522	254.53
401.968	284.96
402.414	270.92
402.859	289.64
403.305	341.13
403.75	348.15
404.196	313.05
404.641	254.53
405.086	263.9
405.532	327.09
405.977	366.88
406.422	317.73
406.867	338.79
407.312	249.85
407.757	301.34
408.202	352.84
408.647	343.47
409.092	343.47
409.537	350.5
409.982	320.07
410.426	350.5
410.871	355.18
411.316	313.05
411.76	327.09
412.205	343.47
412.649	308.37
413.093	301.34
413.538	327.09
413.982	296.66
414.426	331.77
414.87	254.53
415.314	324.75
415.758	301.34
416.202	299
416.646	327.09
417.09	371.56
417.534	355.18
417.978	334.11
418.421	366.88
418.865	324.75
419.309	317.73
419.752	287.3
420.196	345.81
420.639	334.11
421.083	359.86
421.526	268.58
421.969	313.05
422.412	287.3
422.856	317.73
423.299	303.68
423.742	416.03
424.185	313.05
424.628	317.73
425.071	329.43
425.513	294.32
425.956	345.81
426.399	322.41
426.842	277.94
427.284	310.71
427.727	341.13
428.169	371.56
428.612	350.5
429.054	369.22
429.497	287.3
429.939	387.94
430.381	322.41
430.823	317.73
431.265	322.41
431.707	280.28
432.149	308.37
432.591	359.86
433.033	320.07
433.475	289.64
433.917	296.66
434.359	268.58
434.8	341.13
435.242	245.17
435.684	357.52
436.125	350.5
436.567	373.9
437.008	308.37
437.449	338.79
437.891	338.79
438.332	331.77
438.773	357.52
439.214	282.62
439.656	338.79
440.097	310.71
440.538	369.22
440.978	310.71
441.419	287.3
441.86	394.97
442.301	310.71
442.742	383.26
443.182	366.88
443.623	364.54
444.063	362.2
444.504	306.03
444.944	371.56
445.385	390.28
445.825	301.34
446.265	327.09
446.706	345.81
447.146	322.41
447.586	355.18
448.026	334.11
448.466	329.43
448.906	291.98
449.346	313.05
449.786	282.62
450.225	294.32
450.665	366.88
451.105	306.03
451.544	313.05
451.984	348.15
452.424	369.22
452.863	310.71
453.302	364.54
453.742	303.68
454.181	306.03
454.62	284.96
455.059	263.9
455.499	399.65
455.938	266.24
456.377	303.68
456.816	341.13
457.254	254.53
457.693	313.05
458.132	294.32
458.571	373.9
459.01	289.64
459.448	357.52
459.887	275.6
460.325	331.77
460.764	315.39
461.202	254.53
461.641	310.71
462.079	317.73
462.517	378.58
462.955	327.09
463.393	329.43
463.832	352.84
464.27	334.11
464.708	350.5
465.145	348.15
465.583	320.07
466.021	331.77
466.459	308.37
466.897	341.13
467.334	366.88
467.772	291.98
468.209	317.73
468.647	343.47
469.084	284.96
469.522	334.11
469.959	352.84
470.396	324.75
470.833	303.68
471.271	322.41
471.708	294.32
472.145	313.05
472.582	383.26
473.019	355.18
473.456	317.73
473.892	322.41
474.329	350.5
474.766	343.47
475.202	343.47
475.639	320.07
476.076	327.09
476.512	313.05
476.949	313.05
477.385	345.81
477.821	268.58
478.258	306.03
478.694	322.41
479.13	284.96
479.566	320.07
480.002	270.92
480.438	289.64
480.874	317.73
481.31	289.64
481.746	320.07
482.181	306.03
482.617	306.03
483.053	324.75
483.488	287.3
483.924	287.3
484.36	303.68
484.795	355.18
485.23	359.86
485.666	322.41
486.101	280.28
486.536	416.03
486.971	376.24
487.407	299
487.842	317.73
488.277	362.2
488.712	355.18
489.146	399.65
489.581	306.03
490.016	334.11
490.451	327.09
490.885	291.98
491.32	411.35
491.755	322.41
492.189	275.6
492.624	306.03
493.058	301.34
493.492	273.26
493.927	364.54
494.361	247.51
494.795	308.37
495.229	338.79
495.663	357.52
496.097	282.62
496.531	331.77
496.965	348.15
497.399	306.03
497.833	324.75
498.266	301.34
498.7	387.94
499.134	385.6
499.567	359.86
500.001	322.41
500.434	287.3
500.868	313.05
501.301	324.75
501.734	341.13
502.168	359.86
502.601	303.68
503.034	247.51
503.467	341.13
503.9	247.51
504.333	345.81
504.766	252.19
505.199	331.77
505.632	289.64
506.064	341.13
506.497	320.07
506.93	371.56
507.362	317.73
507.795	301.34
508.227	299
508.66	277.94
509.092	331.77
509.524	348.15
509.956	352.84
510.389	338.79
510.821	289.64
511.253	308.37
511.685	320.07
512.117	327.09
512.549	348.15
512.981	338.79
513.412	254.53
513.844	296.66
514.276	296.66
514.707	329.43
515.139	338.79
515.571	343.47
516.002	322.41
516.433	331.77
516.865	380.92
517.296	273.26
517.727	359.86
518.159	322.41
518.59	331.77
519.021	345.81
519.452	338.79
519.883	350.5
520.314	327.09
520.744	247.51
521.175	282.62
521.606	310.71
522.037	299
522.467	338.79
522.898	308.37
523.328	362.2
523.759	334.11
524.189	301.34
524.62	390.28
525.05	273.26
525.48	294.32
525.91	350.5
526.341	254.53
526.771	331.77
527.201	385.6
527.631	345.81
528.061	341.13
528.49	277.94
528.92	303.68
529.35	273.26
529.78	310.71
530.209	284.96
530.639	322.41
531.068	364.54
531.498	352.84
531.927	329.43
532.357	308.37
532.786	313.05
533.215	324.75
533.644	270.92
534.074	329.43
534.503	390.28
534.932	313.05
535.361	289.64
535.79	338.79
536.218	338.79
536.647	331.77
537.076	383.26
537.505	263.9
537.933	334.11
538.362	324.75
538.79	313.05
539.219	306.03
539.647	310.71
540.076	359.86
540.504	289.64
540.932	355.18
541.36	275.6
541.788	366.88
542.217	289.64
542.645	334.11
543.073	291.98
543.5	322.41
543.928	348.15
544.356	343.47
544.784	317.73
545.211	296.66
545.639	331.77
546.067	306.03
546.494	280.28
546.922	291.98
547.349	308.37
547.776	322.41
548.204	313.05
548.631	413.69
549.058	268.58
549.485	338.79
549.912	322.41
550.339	383.26
550.766	320.07
551.193	299
551.62	320.07
552.047	308.37
552.474	366.88
552.9	287.3
553.327	259.21
553.754	306.03
554.18	324.75
554.607	296.66
555.033	308.37
555.459	397.31
555.886	266.24
556.312	359.86
556.738	294.32
557.164	296.66
557.59	294.32
558.016	280.28
558.442	355.18
558.868	303.68
559.294	313.05
559.72	284.96
560.145	291.98
560.571	324.75
560.997	299
561.422	308.37
561.848	280.28
562.273	334.11
562.699	359.86
563.124	362.2
563.549	329.43
563.974	376.24
564.4	313.05
564.825	383.26
565.25	261.55
565.675	240.49
566.1	291.98
566.525	336.45
566.95	348.15
567.374	306.03
567.799	284.96
568.224	301.34
568.648	287.3
569.073	296.66
569.497	303.68
569.922	345.81
570.346	343.47
570.771	252.19
571.195	313.05
571.619	294.32
572.043	324.75
572.467	331.77
572.891	277.94
573.315	275.6
573.739	280.28
574.163	355.18
574.587	355.18
575.011	364.54
575.435	317.73
575.858	301.34
576.282	334.11
576.705	390.28
577.129	324.75
577.552	385.6
577.976	301.34
578.399	299
578.822	369.22
579.245	313.05
579.669	451.14
580.092	306.03
580.515	259.21
580.938	355.18
581.361	313.05
581.784	301.34
582.206	299
582.629	336.45
583.052	334.11
583.474	313.05
583.897	315.39
584.32	385.6
584.742	338.79
585.165	308.37
585.587	341.13
586.009	350.5
586.431	324.75
586.854	315.39
587.276	343.47
587.698	303.68
588.12	387.94
588.542	303.68
588.964	289.64
589.386	317.73
589.807	308.37
590.229	373.9
590.651	280.28
591.073	362.2
591.494	329.43
591.916	352.84
592.337	390.28
592.759	343.47
593.18	303.68
593.601	268.58
594.022	294.32
594.444	313.05
594.865	313.05
595.286	256.87
595.707	266.24
596.128	364.54
596.549	327.09
596.97	411.35
597.39	299
597.811	317.73
598.232	268.58
598.652	287.3
599.073	296.66
599.494	235.81
599.914	357.52
600.334	275.6
600.755	289.64
601.175	369.22
601.595	282.62
602.015	362.2
602.436	327.09
602.856	460.5
603.276	345.81
603.696	301.34
604.115	308.37
604.535	385.6
604.955	357.52
605.375	296.66
605.794	343.47
606.214	296.66
606.634	310.71
607.053	338.79
607.473	425.39
607.892	303.68
608.311	331.77
608.731	324.75
609.15	362.2
609.569	308.37
609.988	345.81
610.407	313.05
610.826	266.24
611.245	322.41
611.664	287.3
612.083	357.52
612.501	275.6
612.92	345.81
613.339	327.09
613.757	355.18
614.176	329.43
614.594	322.41
615.013	315.39
615.431	315.39
615.85	306.03
616.268	296.66
616.686	327.09
617.104	313.05
617.522	331.77
617.94	299
618.358	317.73
618.776	362.2
619.194	341.13
619.612	289.64
620.03	287.3
620.447	296.66
620.865	252.19
621.282	350.5
621.7	376.24
622.117	294.32
622.535	364.54
622.952	324.75
623.369	327.09
623.787	324.75
624.204	331.77
624.621	324.75
625.038	364.54
625.455	357.52
625.872	322.41
626.289	317.73
626.706	345.81
627.123	320.07
627.539	343.47
627.956	261.55
628.373	296.66
628.789	301.34
629.206	338.79
629.622	355.18
630.038	338.79
630.455	327.09
630.871	287.3
631.287	362.2
631.703	324.75
632.12	296.66
632.536	324.75
632.952	313.05
633.368	327.09
633.783	303.68
634.199	303.68
634.615	341.13
635.031	383.26
635.446	366.88
635.862	336.45
636.277	313.05
636.693	303.68
637.108	357.52
637.524	287.3
637.939	296.66
638.354	317.73
638.77	303.68
639.185	310.71
639.6	364.54
640.015	322.41
640.43	324.75
640.845	369.22
641.259	348.15
641.674	329.43
642.089	336.45
642.504	397.31
642.918	299
643.333	338.79
643.747	324.75
644.162	371.56
644.576	256.87
644.991	315.39
645.405	343.47
645.819	294.32
646.233	308.37
646.647	401.99
647.061	289.64
647.475	308.37
647.889	280.28
648.303	315.39
648.717	310.71
649.131	357.52
649.545	399.65
649.958	306.03
650.372	284.96
650.785	418.37
651.199	343.47
651.612	350.5
652.026	327.09
652.439	327.09
652.852	289.64
653.266	331.77
653.679	406.67
654.092	366.88
654.505	301.34
654.918	310.71
655.331	294.32
655.744	387.94
656.156	334.11
656.569	329.43
656.982	320.07
657.394	331.77
657.807	270.92
658.22	289.64
658.632	301.34
659.044	277.94
659.457	341.13
659.869	366.88
660.281	291.98
660.693	348.15
661.106	331.77
661.518	322.41
661.93	296.66
662.342	268.58
662.754	343.47
663.165	327.09
663.577	359.86
663.989	359.86
664.401	322.41
664.812	294.32
665.224	306.03
665.635	341.13
666.047	331.77
666.458	317.73
666.869	355.18
667.281	308.37
667.692	331.77
668.103	275.6
668.514	296.66
668.925	366.88
669.336	334.11
669.747	313.05
670.158	331.77
670.569	303.68
670.979	315.39
671.39	317.73
671.801	242.83
672.211	350.5
672.622	336.45
673.032	308.37
673.443	268.58
673.853	357.52
674.263	299
674.674	366.88
675.084	338.79
675.494	341.13
675.904	296.66
676.314	399.65
676.724	343.47
677.134	324.75
677.544	266.24
677.953	350.5
678.363	327.09
678.773	392.62
679.182	294.32
679.592	364.54
680.001	317.73
680.411	296.66
680.82	259.21
681.23	299
681.639	254.53
682.048	320.07
682.457	345.81
682.866	336.45
683.275	301.34
683.684	362.2
684.093	291.98
684.502	324.75
684.911	315.39
685.32	287.3
685.728	261.55
686.137	357.52
686.546	383.26
686.954	364.54
687.363	322.41
687.771	324.75
688.179	329.43
688.588	273.26
688.996	301.34
689.404	280.28
689.812	331.77
690.22	310.71
690.628	324.75
691.036	334.11
691.444	357.52
691.852	317.73
692.26	385.6
692.667	378.58
693.075	364.54
693.483	259.21
693.89	329.43
694.298	306.03
694.705	284.96
695.112	334.11
695.52	416.03
695.927	376.24
696.334	200.7
696.741	275.6
697.148	327.09
697.555	322.41
697.962	343.47
698.369	345.81
698.776	331.77
699.183	282.62
699.59	303.68
699.996	317.73
700.403	320.07
700.81	294.32
701.216	268.58
701.623	359.86
702.029	348.15
702.435	380.92
702.842	331.77
703.248	284.96
703.654	308.37
704.06	390.28
704.466	392.62
704.872	341.13
705.278	355.18
705.684	310.71
706.09	280.28
706.496	291.98
706.901	345.81
707.307	338.79
707.712	291.98
708.118	287.3
708.523	296.66
708.929	362.2
709.334	320.07
709.74	348.15
710.145	219.43
710.55	303.68
710.955	313.05
711.36	291.98
711.765	263.9
712.17	275.6
712.575	303.68
712.98	907.54
713.385	409.01
713.789	306.03
714.194	359.86
714.599	327.09
715.003	315.39
715.408	289.64
715.812	373.9
716.217	317.73
716.621	329.43
717.025	303.68
717.429	352.84
717.833	287.3
718.238	277.94
718.642	231.13
719.046	261.55
719.449	294.32
719.853	341.13
720.257	341.13
720.661	359.86
721.065	310.71
721.468	350.5
721.872	327.09
722.275	317.73
722.679	280.28
723.082	287.3
723.485	331.77
723.889	320.07
724.292	362.2
724.695	301.34
725.098	331.77
725.501	317.73
725.904	306.03
726.307	303.68
726.71	362.2
727.113	270.92
727.516	282.62
727.918	350.5
728.321	392.62
728.724	336.45
729.126	390.28
729.529	357.52
729.931	284.96
730.333	310.71
730.736	380.92
731.138	317.73
731.54	306.03
731.942	331.77
732.344	277.94
732.746	327.09
733.148	282.62
733.55	284.96
733.952	303.68
734.354	378.58
734.756	315.39
735.157	310.71
735.559	341.13
735.96	350.5
736.362	303.68
736.763	317.73
737.165	301.34
737.566	299
737.967	280.28
738.368	355.18
738.77	296.66
739.171	296.66
739.572	249.85
739.973	343.47
740.374	296.66
740.774	289.64
741.175	313.05
741.576	341.13
741.977	284.96
742.377	317.73
742.778	390.28
743.178	275.6
743.579	317.73
743.979	303.68
744.379	226.45
744.78	336.45
745.18	331.77
745.58	306.03
745.98	284.96
746.38	362.2
746.78	282.62
747.18	345.81
747.58	313.05
747.98	331.77
748.38	275.6
748.779	329.43
749.179	348.15
749.578	303.68
749.978	289.64
750.377	364.54
750.777	343.47
751.176	380.92
751.575	289.64
751.975	273.26
752.374	320.07
752.773	355.18
753.172	303.68
753.571	348.15
753.97	329.43
754.369	334.11
754.768	352.84
755.166	345.81
755.565	324.75
755.964	334.11
756.362	355.18
756.761	331.77
757.159	362.2
757.558	303.68
757.956	275.6
758.354	366.88
758.753	327.09
759.151	242.83
759.549	280.28
759.947	322.41
760.345	338.79
760.743	315.39
761.141	315.39
761.539	348.15
761.936	284.96
762.334	282.62
762.732	355.18
763.129	364.54
763.527	352.84
763.924	383.26
764.322	348.15
764.719	310.71
765.117	338.79
765.514	336.45
765.911	310.71
766.308	324.75
766.705	282.62
767.102	352.84
767.499	324.75
767.896	324.75
768.293	280.28
768.69	352.84
769.086	280.28
769.483	313.05
769.88	383.26
770.276	329.43
770.673	364.54
771.069	324.75
771.466	280.28
771.862	362.2
772.258	240.49
772.654	273.26
773.05	336.45
773.447	324.75
773.843	355.18
774.239	327.09
774.634	320.07
775.03	306.03
775.426	345.81
775.822	306.03
776.218	338.79
776.613	315.39
777.009	369.22
777.404	273.26
777.8	313.05
778.195	315.39
778.59	303.68
778.986	345.81
779.381	324.75
779.776	284.96
780.171	289.64
780.566	275.6
780.961	301.34
781.356	420.71
781.751	331.77
782.146	320.07
782.54	336.45
782.935	329.43
783.33	343.47
783.724	369.22
784.119	301.34
784.513	315.39
784.908	296.66
785.302	341.13
785.696	270.92
786.09	348.15
786.485	327.09
786.879	308.37
787.273	247.51
787.667	287.3
788.061	329.43
788.454	329.43
788.848	301.34
789.242	327.09
789.636	294.32
790.029	348.15
790.423	310.71
790.816	329.43
791.21	282.62
791.603	266.24
791.997	296.66
792.39	296.66
792.783	282.62
793.176	291.98
793.569	383.26
793.962	341.13
794.355	313.05
794.748	277.94
795.141	371.56
795.534	338.79
795.927	359.86
796.319	369.22
796.712	364.54
797.105	303.68
797.497	324.75
797.89	299
798.282	322.41
798.674	291.98
799.067	355.18
799.459	350.5
799.851	348.15
800.243	341.13
800.635	334.11
801.027	296.66
801.419	313.05
801.811	352.84
802.203	387.94
802.594	322.41
802.986	331.77
803.378	303.68
803.769	317.73
804.161	331.77
804.552	336.45
804.944	336.45
805.335	242.83
805.726	320.07
806.118	252.19
806.509	291.98
806.9	291.98
807.291	287.3
807.682	282.62
808.073	376.24
808.464	310.71
808.855	315.39
809.245	308.37
809.636	362.2
810.027	301.34
810.417	338.79
810.808	299
811.198	357.52
811.589	270.92
811.979	291.98
812.369	324.75
812.759	338.79
813.15	306.03
813.54	338.79
813.93	296.66
814.32	270.92
814.71	385.6
815.1	270.92
815.489	263.9
815.879	322.41
816.269	320.07
816.658	273.26
817.048	296.66
817.438	334.11
817.827	345.81
818.216	324.75
818.606	296.66
818.995	317.73
819.384	284.96
819.773	291.98
820.163	317.73
820.552	280.28
820.941	352.84
821.33	345.81
821.718	306.03
822.107	259.21
822.496	306.03
822.885	181.98
823.273	423.05
823.662	275.6
824.05	327.09
824.439	322.41
824.827	327.09
825.216	329.43
825.604	299
825.992	334.11
826.38	299
826.768	282.62
827.156	329.43
827.544	357.52
827.932	345.81
828.32	324.75
828.708	320.07
829.096	315.39
829.483	287.3
829.871	329.43
830.259	275.6
830.646	254.53
831.034	322.41
831.421	308.37
831.808	296.66
832.196	345.81
832.583	315.39
832.97	341.13
833.357	352.84
833.744	345.81
834.131	362.2
834.518	294.32
834.905	242.83
835.292	317.73
835.678	334.11
836.065	383.26
836.452	317.73
836.838	362.2
837.225	310.71
837.611	294.32
837.998	320.07
838.384	310.71
838.77	299
839.157	296.66
839.543	284.96
839.929	287.3
840.315	296.66
840.701	277.94
841.087	341.13
841.473	317.73
841.858	256.87
842.244	303.68
842.63	317.73
843.015	317.73
843.401	610.29
843.787	331.77
844.172	327.09
844.557	310.71
844.943	320.07
845.328	338.79
845.713	327.09
846.098	334.11
846.483	343.47
846.868	282.62
847.253	287.3
847.638	352.84
848.023	359.86
848.408	425.39
848.793	376.24
849.177	327.09
849.562	336.45
849.947	350.5
850.331	327.09
850.715	282.62
851.1	329.43
851.484	315.39
851.868	350.5
852.253	259.21
852.637	329.43
853.021	245.17
853.405	397.31
853.789	280.28
854.173	317.73
854.557	324.75
854.94	277.94
855.324	373.9
855.708	385.6
856.091	263.9
856.475	256.87
856.858	270.92
857.242	380.92
857.625	324.75
858.009	296.66
858.392	331.77
858.775	282.62
859.158	336.45
859.541	247.51
859.924	303.68
860.307	313.05
860.69	287.3
861.073	343.47
861.456	247.51
861.838	317.73
862.221	280.28
862.604	317.73
862.986	373.9
863.369	341.13
863.751	282.62
864.133	343.47
864.516	324.75
864.898	352.84
865.28	317.73
865.662	334.11
866.044	345.81
866.426	331.77
866.808	317.73
867.19	324.75
867.572	294.32
867.954	301.34
868.336	331.77
868.717	306.03
869.099	345.81
869.48	289.64
869.862	348.15
870.243	303.68
870.625	275.6
871.006	315.39
871.387	329.43
871.768	324.75
872.149	336.45
872.53	294.32
872.911	299
873.292	296.66
873.673	275.6
874.054	273.26
874.435	359.86
874.815	352.84
875.196	284.96
875.577	387.94
875.957	338.79
876.338	317.73
876.718	280.28
877.098	345.81
877.479	345.81
877.859	352.84
878.239	324.75
878.619	427.73
878.999	306.03
879.379	306.03
879.759	322.41
880.139	252.19
880.519	406.67
880.898	313.05
881.278	313.05
881.658	303.68
882.037	291.98
882.417	373.9
882.796	289.64
883.176	317.73
883.555	256.87
883.934	301.34
884.313	287.3
884.693	324.75
885.072	315.39
885.451	308.37
885.83	291.98
886.209	238.15
886.587	331.77
886.966	341.13
887.345	338.79
887.724	273.26
888.102	327.09
888.481	341.13
888.859	299
889.238	366.88
889.616	296.66
889.994	310.71
890.373	275.6
890.751	277.94
891.129	315.39
891.507	299
891.885	343.47
892.263	364.54
892.641	275.6
893.019	308.37
893.396	315.39
893.774	322.41
894.152	343.47
894.529	327.09
894.907	315.39
895.284	294.32
895.662	322.41
896.039	313.05
896.416	334.11
896.794	359.86
897.171	345.81
897.548	299
897.925	252.19
898.302	299
898.679	359.86
899.056	329.43
899.433	334.11
899.809	315.39
900.186	263.9
900.563	350.5
900.939	343.47
901.316	322.41
901.692	322.41
902.069	320.07
902.445	303.68
902.821	313.05
903.197	280.28
903.574	383.26
903.95	334.11
904.326	252.19
904.702	336.45
905.078	310.71
905.454	240.49
905.829	303.68
906.205	259.21
906.581	320.07
906.956	315.39
907.332	355.18
907.707	238.15
908.083	299
908.458	282.62
908.833	242.83
909.209	291.98
909.584	303.68
909.959	348.15
910.334	296.66
910.709	320.07
911.084	273.26
911.459	345.81
911.834	277.94
912.209	270.92
912.583	320.07
912.958	254.53
913.333	334.11
913.707	303.68
914.082	343.47
914.456	324.75
914.83	343.47
915.205	327.09
915.579	275.6
915.953	313.05
916.327	322.41
916.701	392.62
917.075	315.39
917.449	308.37
917.823	322.41
918.197	364.54
918.571	296.66
918.944	294.32
919.318	366.88
919.692	313.05
920.065	306.03
920.438	336.45
920.812	430.07
921.185	352.84
921.558	369.22
921.932	331.77
922.305	343.47
922.678	320.07
923.051	252.19
923.424	350.5
923.797	355.18
924.17	411.35
924.542	324.75
924.915	343.47
925.288	252.19
925.661	287.3
926.033	306.03
926.406	284.96
926.778	313.05
927.15	320.07
927.523	327.09
927.895	317.73
928.267	308.37
928.639	317.73
929.011	277.94
929.383	263.9
929.755	306.03
930.127	259.21
930.499	282.62
930.871	303.68
931.242	352.84
931.614	270.92
931.986	261.55
932.357	273.26
932.729	317.73
933.1	303.68
933.471	291.98
933.843	357.52
934.214	273.26
934.585	296.66
934.956	280.28
935.327	315.39
935.698	334.11
936.069	306.03
936.44	280.28
936.811	310.71
937.182	266.24
937.552	336.45
937.923	303.68
938.293	423.05
938.664	320.07
939.034	280.28
939.405	357.52
939.775	289.64
940.145	324.75
940.516	306.03
940.886	320.07
941.256	268.58
941.626	329.43
941.996	336.45
942.366	322.41
942.735	352.84
943.105	373.9
943.475	324.75
943.845	263.9
944.214	369.22
944.584	275.6
944.953	306.03
945.323	270.92
945.692	282.62
946.061	275.6
946.43	313.05
946.8	392.62
947.169	352.84
947.538	310.71
947.907	289.64
948.276	294.32
948.645	371.56
949.013	289.64
949.382	376.24
949.751	306.03
950.119	299
950.488	252.19
950.857	324.75
951.225	357.52
951.593	364.54
951.962	296.66
952.33	362.2
952.698	308.37
953.066	324.75
953.434	287.3
953.802	369.22
954.17	289.64
954.538	287.3
954.906	280.28
955.274	336.45
955.642	322.41
956.009	310.71
956.377	280.28
956.744	296.66
957.112	282.62
957.479	303.68
957.847	338.79
958.214	329.43
958.581	289.64
958.948	394.97
959.315	336.45
959.683	320.07
960.05	291.98
960.416	306.03
960.783	291.98
961.15	338.79
961.517	301.34
961.884	268.58
962.25	341.13
962.617	338.79
962.983	343.47
963.35	329.43
963.716	383.26
964.082	308.37
964.449	357.52
964.815	336.45
965.181	291.98
965.547	287.3
965.913	296.66
966.279	338.79
966.645	296.66
967.011	320.07
967.377	355.18
967.742	299
968.108	273.26
968.474	266.24
968.839	338.79
969.205	385.6
969.57	277.94
969.935	306.03
970.301	331.77
970.666	320.07
971.031	366.88
971.396	284.96
971.761	289.64
972.126	331.77
972.491	301.34
972.856	301.34
973.221	299
973.586	324.75
973.95	331.77
974.315	291.98
974.679	357.52
975.044	287.3
975.408	317.73
975.773	331.77
976.137	291.98
976.501	306.03
976.866	317.73
977.23	273.26
977.594	252.19
977.958	352.84
978.322	369.22
978.686	324.75
979.049	362.2
979.413	329.43
979.777	327.09
980.141	284.96
980.504	313.05
980.868	327.09
981.231	324.75
981.595	324.75
981.958	303.68
982.321	299
982.684	334.11
983.048	299
983.411	336.45
983.774	247.51
984.137	334.11
984.5	303.68
984.862	315.39
985.225	329.43
985.588	266.24
985.951	359.86
986.313	294.32
986.676	303.68
987.038	310.71
987.401	322.41
987.763	369.22
988.125	252.19
988.488	331.77
988.85	329.43
989.212	299
989.574	327.09
989.936	315.39
990.298	303.68
990.66	329.43
991.022	306.03
991.383	273.26
991.745	308.37
992.107	406.67
992.468	306.03
992.83	289.64
993.191	277.94
993.553	329.43
993.914	392.62
994.275	341.13
994.637	338.79
994.998	303.68
995.359	282.62
995.72	301.34
996.081	308.37
996.442	245.17
996.803	284.96
997.163	338.79
997.524	315.39
997.885	334.11
998.245	277.94
998.606	261.55
998.966	320.07
999.327	350.5
999.687	355.18
1000.047	289.64
1000.408	277.94
1000.768	320.07
1001.128	308.37
1001.488	324.75
1001.848	263.9
1002.208	327.09
1002.568	338.79
1002.927	315.39
1003.287	266.24
1003.647	357.52
1004.007	296.66
1004.366	282.62
1004.726	350.5
1005.085	383.26
1005.444	315.39
1005.804	327.09
1006.163	334.11
1006.522	313.05
1006.881	371.56
1007.24	327.09
1007.599	310.71
1007.958	308.37
1008.317	345.81
1008.676	383.26
1009.035	348.15
1009.393	320.07
1009.752	320.07
1010.111	291.98
1010.469	334.11
1010.828	296.66
1011.186	306.03
1011.544	310.71
1011.903	310.71
1012.261	313.05
1012.619	284.96
1012.977	247.51
1013.335	268.58
1013.693	287.3
1014.051	313.05
1014.409	336.45
1014.767	322.41
1015.124	313.05
1015.482	341.13
1015.84	275.6
1016.197	376.24
1016.555	345.81
1016.912	308.37
1017.269	373.9
1017.627	242.83
1017.984	310.71
1018.341	306.03
1018.698	296.66
1019.055	240.49
1019.412	259.21
1019.769	277.94
1020.126	327.09
1020.483	294.32
1020.84	275.6
1021.196	317.73
1021.553	270.92
1021.909	282.62
1022.266	228.79
1022.622	242.83
1022.979	394.97
1023.335	352.84
1023.691	301.34
1024.047	350.5
1024.404	296.66
1024.76	296.66
1025.116	327.09
1025.472	357.52
1025.827	355.18
1026.183	322.41
1026.539	294.32
1026.895	306.03
1027.25	385.6
1027.606	320.07
1027.961	284.96
1028.317	289.64
1028.672	308.37
1029.028	291.98
1029.383	296.66
1029.738	369.22
1030.093	287.3
1030.448	320.07
1030.803	329.43
1031.158	308.37
1031.513	317.73
1031.868	275.6
1032.223	301.34
1032.577	315.39
1032.932	334.11
1033.287	334.11
1033.641	359.86
1033.996	380.92
1034.35	378.58
1034.704	322.41
1035.059	313.05
1035.413	294.32
1035.767	294.32
1036.121	294.32
