Data from Al_FLMS009871__1257__16-46-16-672.txt Node

Date: Fri Mar 08 16:46:16 CST 2024
User: pe5414po
Spectrometer: FLMS00987
Trigger mode: 0
Integration Time (sec): 1.000000E-1
Scans to average: 1
Electric dark correction enabled: true
Nonlinearity correction enabled: false
Boxcar width: 0
XAxis mode: Wavelengths
Number of Pixels in Spectrum: 2048
>>>>>Begin Spectral Data<<<<<
188.938	-25.89
189.409	-25.89
189.879	-25.89
190.349	-91.43
190.819	-46.96
191.29	-72.7
191.76	-112.49
192.23	-49.3
192.7	-21.21
193.17	-105.47
193.64	11.56
194.109	-44.62
194.579	-14.19
195.049	-70.36
195.519	18.58
195.988	100.5
196.458	58.37
196.927	51.35
197.397	56.03
197.866	72.41
198.336	121.56
198.805	142.63
199.274	163.69
199.744	184.76
200.213	210.5
200.682	142.63
201.151	175.39
201.62	196.46
202.089	280.72
202.558	210.5
203.027	250.29
203.495	257.31
203.964	240.93
204.433	325.19
204.902	243.27
205.37	341.57
205.839	327.53
206.307	290.08
206.776	285.4
207.244	334.55
207.712	257.31
208.181	343.91
208.649	297.1
209.117	336.89
209.585	327.53
210.053	247.95
210.521	322.85
210.989	257.31
211.457	301.78
211.925	269.02
212.393	271.36
212.861	308.8
213.328	285.4
213.796	372
214.264	261.99
214.731	273.7
215.199	306.46
215.666	346.25
216.133	266.67
216.601	236.25
217.068	301.78
217.535	294.76
218.003	259.65
218.47	299.44
218.937	292.42
219.404	269.02
219.871	238.59
220.338	271.36
220.805	287.74
221.271	278.38
221.738	304.12
222.205	271.36
222.671	315.83
223.138	205.82
223.605	233.91
224.071	238.59
224.538	301.78
225.004	229.23
225.47	254.97
225.937	301.78
226.403	285.4
226.869	231.57
227.335	205.82
227.801	301.78
228.267	306.46
228.733	318.17
229.199	238.59
229.665	273.7
230.131	269.02
230.597	252.63
231.062	301.78
231.528	327.53
231.994	240.93
232.459	285.4
232.925	283.06
233.39	297.1
233.856	273.7
234.321	336.89
234.786	243.27
235.252	287.74
235.717	304.12
236.182	339.23
236.647	226.89
237.112	259.65
237.577	261.99
238.042	266.67
238.507	292.42
238.972	339.23
239.436	294.76
239.901	259.65
240.366	332.21
240.83	278.38
241.295	311.14
241.76	276.04
242.224	266.67
242.688	313.49
243.153	327.53
243.617	283.06
244.081	313.49
244.545	308.8
245.01	285.4
245.474	343.91
245.938	315.83
246.402	271.36
246.866	287.74
247.33	196.46
247.793	252.63
248.257	238.59
248.721	278.38
249.185	308.8
249.648	273.7
250.112	306.46
250.575	304.12
251.039	271.36
251.502	269.02
251.965	283.06
252.429	299.44
252.892	332.21
253.355	278.38
253.818	322.85
254.281	236.25
254.744	273.7
255.207	313.49
255.67	318.17
256.133	304.12
256.596	222.2
257.059	245.61
257.522	266.67
257.984	311.14
258.447	280.72
258.909	332.21
259.372	283.06
259.834	266.67
260.297	292.42
260.759	269.02
261.221	280.72
261.684	311.14
262.146	294.76
262.608	273.7
263.07	327.53
263.532	231.57
263.994	343.91
264.456	341.57
264.918	315.83
265.38	283.06
265.842	299.44
266.303	304.12
266.765	336.89
267.227	261.99
267.688	273.7
268.15	297.1
268.611	299.44
269.072	245.61
269.534	339.23
269.995	315.83
270.456	266.67
270.918	278.38
271.379	287.74
271.84	311.14
272.301	280.72
272.762	271.36
273.223	318.17
273.684	299.44
274.144	334.55
274.605	278.38
275.066	301.78
275.527	297.1
275.987	325.19
276.448	299.44
276.908	290.08
277.369	301.78
277.829	322.85
278.289	294.76
278.75	311.14
279.21	311.14
279.67	297.1
280.13	350.93
280.59	285.4
281.05	278.38
281.51	348.59
281.97	332.21
282.43	276.04
282.89	285.4
283.35	261.99
283.809	320.51
284.269	332.21
284.729	341.57
285.188	299.44
285.648	273.7
286.107	329.87
286.567	346.25
287.026	313.49
287.485	306.46
287.944	287.74
288.404	334.55
288.863	283.06
289.322	322.85
289.781	346.25
290.24	276.04
290.699	285.4
291.158	292.42
291.616	322.85
292.075	386.04
292.534	336.89
292.992	294.76
293.451	269.02
293.91	285.4
294.368	292.42
294.827	259.65
295.285	243.27
295.743	313.49
296.202	341.57
296.66	273.7
297.118	294.76
297.576	353.27
298.034	360.3
298.492	364.98
298.95	315.83
299.408	336.89
299.866	276.04
300.324	313.49
300.781	348.59
301.239	308.8
301.697	264.33
302.154	341.57
302.612	318.17
303.069	245.61
303.527	306.46
303.984	315.83
304.441	276.04
304.899	320.51
305.356	334.55
305.813	304.12
306.27	271.36
306.727	327.53
307.184	357.96
307.641	290.08
308.098	285.4
308.555	315.83
309.012	273.7
309.468	362.64
309.925	306.46
310.382	299.44
310.838	280.72
311.295	315.83
311.751	304.12
312.208	294.76
312.664	245.61
313.12	348.59
313.577	280.72
314.033	322.85
314.489	388.38
314.945	278.38
315.401	311.14
315.857	320.51
316.313	280.72
316.769	322.85
317.225	285.4
317.681	301.78
318.136	306.46
318.592	306.46
319.048	290.08
319.503	261.99
319.959	264.33
320.414	327.53
320.869	341.57
321.325	311.14
321.78	259.65
322.235	259.65
322.691	287.74
323.146	304.12
323.601	315.83
324.056	322.85
324.511	313.49
324.966	266.67
325.421	247.95
325.875	341.57
326.33	276.04
326.785	285.4
327.24	332.21
327.694	355.62
328.149	364.98
328.603	308.8
329.058	327.53
329.512	322.85
329.966	315.83
330.421	320.51
330.875	362.64
331.329	301.78
331.783	257.31
332.237	346.25
332.691	278.38
333.145	271.36
333.599	311.14
334.053	318.17
334.507	311.14
334.96	318.17
335.414	283.06
335.868	311.14
336.321	301.78
336.775	320.51
337.228	357.96
337.682	343.91
338.135	259.65
338.588	315.83
339.042	329.87
339.495	362.64
339.948	341.57
340.401	346.25
340.854	271.36
341.307	278.38
341.76	332.21
342.213	369.66
342.666	269.02
343.119	325.19
343.571	346.25
344.024	360.3
344.477	261.99
344.929	318.17
345.382	346.25
345.834	292.42
346.287	290.08
346.739	292.42
347.191	236.25
347.644	362.64
348.096	250.29
348.548	372
349	315.83
349.452	367.32
349.904	299.44
350.356	336.89
350.808	350.93
351.26	299.44
351.711	287.74
352.163	306.46
352.615	320.51
353.066	318.17
353.518	353.27
353.969	355.62
354.421	294.76
354.872	311.14
355.324	250.29
355.775	271.36
356.226	264.33
356.677	355.62
357.128	311.14
357.579	397.74
358.03	306.46
358.481	306.46
358.932	348.59
359.383	297.1
359.834	276.04
360.285	360.3
360.735	285.4
361.186	311.14
361.637	304.12
362.087	327.53
362.538	327.53
362.988	332.21
363.438	273.7
363.889	393.06
364.339	325.19
364.789	269.02
365.239	322.85
365.689	381.36
366.139	273.7
366.589	285.4
367.039	336.89
367.489	285.4
367.939	257.31
368.389	353.27
368.839	304.12
369.288	348.59
369.738	336.89
370.187	304.12
370.637	318.17
371.086	229.23
371.536	329.87
371.985	400.09
372.434	308.8
372.884	348.59
373.333	243.27
373.782	329.87
374.231	318.17
374.68	334.55
375.129	372
375.578	367.32
376.027	334.55
376.475	311.14
376.924	341.57
377.373	332.21
377.822	264.33
378.27	313.49
378.719	320.51
379.167	285.4
379.616	322.85
380.064	348.59
380.512	299.44
380.961	343.91
381.409	369.66
381.857	322.85
382.305	278.38
382.753	283.06
383.201	350.93
383.649	355.62
384.097	327.53
384.545	350.93
384.992	269.02
385.44	374.34
385.888	320.51
386.335	325.19
386.783	332.21
387.231	280.72
387.678	357.96
388.125	329.87
388.573	285.4
389.02	322.85
389.467	348.59
389.914	283.06
390.362	362.64
390.809	355.62
391.256	350.93
391.703	306.46
392.15	348.59
392.596	397.74
393.043	329.87
393.49	304.12
393.937	346.25
394.383	339.23
394.83	350.93
395.276	301.78
395.723	257.31
396.169	367.32
396.616	297.1
397.062	290.08
397.508	315.83
397.954	397.74
398.401	353.27
398.847	313.49
399.293	311.14
399.739	304.12
400.185	261.99
400.631	308.8
401.076	266.67
401.522	301.78
401.968	346.25
402.414	367.32
402.859	297.1
403.305	360.3
403.75	306.46
404.196	292.42
404.641	367.32
405.086	318.17
405.532	322.85
405.977	322.85
406.422	343.91
406.867	315.83
407.312	315.83
407.757	308.8
408.202	285.4
408.647	299.44
409.092	397.74
409.537	280.72
409.982	315.83
410.426	346.25
410.871	329.87
411.316	308.8
411.76	367.32
412.205	313.49
412.649	343.91
413.093	343.91
413.538	325.19
413.982	306.46
414.426	350.93
414.87	285.4
415.314	332.21
415.758	229.23
416.202	294.76
416.646	280.72
417.09	327.53
417.534	369.66
417.978	290.08
418.421	294.76
418.865	250.29
419.309	343.91
419.752	388.38
420.196	315.83
420.639	308.8
421.083	360.3
421.526	308.8
421.969	332.21
422.412	360.3
422.856	343.91
423.299	336.89
423.742	348.59
424.185	290.08
424.628	346.25
425.071	290.08
425.513	329.87
425.956	348.59
426.399	334.55
426.842	287.74
427.284	329.87
427.727	301.78
428.169	250.29
428.612	364.98
429.054	322.85
429.497	301.78
429.939	339.23
430.381	313.49
430.823	292.42
431.265	285.4
431.707	315.83
432.149	339.23
432.591	322.85
433.033	343.91
433.475	313.49
433.917	294.76
434.359	311.14
434.8	271.36
435.242	308.8
435.684	299.44
436.125	322.85
436.567	343.91
437.008	376.68
437.449	334.55
437.891	329.87
438.332	318.17
438.773	332.21
439.214	315.83
439.656	336.89
440.097	292.42
440.538	348.59
440.978	276.04
441.419	308.8
441.86	254.97
442.301	264.33
442.742	311.14
443.182	341.57
443.623	283.06
444.063	325.19
444.504	343.91
444.944	287.74
445.385	299.44
445.825	297.1
446.265	257.31
446.706	355.62
447.146	327.53
447.586	287.74
448.026	299.44
448.466	336.89
448.906	334.55
449.346	376.68
449.786	276.04
450.225	297.1
450.665	297.1
451.105	271.36
451.544	367.32
451.984	350.93
452.424	299.44
452.863	285.4
453.302	301.78
453.742	325.19
454.181	346.25
454.62	315.83
455.059	322.85
455.499	320.51
455.938	280.72
456.377	395.4
456.816	322.85
457.254	271.36
457.693	301.78
458.132	339.23
458.571	254.97
459.01	299.44
459.448	343.91
459.887	367.32
460.325	353.27
460.764	381.36
461.202	334.55
461.641	327.53
462.079	404.77
462.517	379.02
462.955	313.49
463.393	332.21
463.832	353.27
464.27	278.38
464.708	308.8
465.145	336.89
465.583	350.93
466.021	322.85
466.459	294.76
466.897	311.14
467.334	376.68
467.772	304.12
468.209	364.98
468.647	374.34
469.084	362.64
469.522	320.51
469.959	276.04
470.396	320.51
470.833	362.64
471.271	332.21
471.708	306.46
472.145	290.08
472.582	372
473.019	266.67
473.456	327.53
473.892	355.62
474.329	315.83
474.766	379.02
475.202	308.8
475.639	325.19
476.076	372
476.512	313.49
476.949	435.19
477.385	301.78
477.821	355.62
478.258	346.25
478.694	327.53
479.13	318.17
479.566	297.1
480.002	343.91
480.438	343.91
480.874	301.78
481.31	315.83
481.746	332.21
482.181	299.44
482.617	327.53
483.053	311.14
483.488	332.21
483.924	374.34
484.36	390.72
484.795	367.32
485.23	404.77
485.666	383.7
486.101	297.1
486.536	327.53
486.971	306.46
487.407	315.83
487.842	297.1
488.277	299.44
488.712	320.51
489.146	322.85
489.581	332.21
490.016	350.93
490.451	269.02
490.885	329.87
491.32	299.44
491.755	336.89
492.189	322.85
492.624	285.4
493.058	390.72
493.492	348.59
493.927	306.46
494.361	360.3
494.795	290.08
495.229	276.04
495.663	343.91
496.097	346.25
496.531	294.76
496.965	273.7
497.399	350.93
497.833	425.83
498.266	372
498.7	308.8
499.134	325.19
499.567	341.57
500.001	299.44
500.434	276.04
500.868	372
501.301	276.04
501.734	294.76
502.168	372
502.601	294.76
503.034	341.57
503.467	393.06
503.9	261.99
504.333	355.62
504.766	318.17
505.199	280.72
505.632	329.87
506.064	320.51
506.497	315.83
506.93	343.91
507.362	311.14
507.795	306.46
508.227	287.74
508.66	355.62
509.092	355.62
509.524	264.33
509.956	308.8
510.389	336.89
510.821	343.91
511.253	329.87
511.685	283.06
512.117	320.51
512.549	348.59
512.981	341.57
513.412	372
513.844	269.02
514.276	320.51
514.707	339.23
515.139	346.25
515.571	327.53
516.002	313.49
516.433	306.46
516.865	395.4
517.296	292.42
517.727	292.42
518.159	299.44
518.59	332.21
519.021	325.19
519.452	348.59
519.883	357.96
520.314	353.27
520.744	364.98
521.175	346.25
521.606	381.36
522.037	320.51
522.467	341.57
522.898	325.19
523.328	325.19
523.759	304.12
524.189	372
524.62	350.93
525.05	308.8
525.48	285.4
525.91	285.4
526.341	346.25
526.771	304.12
527.201	343.91
527.631	327.53
528.061	341.57
528.49	297.1
528.92	327.53
529.35	322.85
529.78	311.14
530.209	308.8
530.639	346.25
531.068	367.32
531.498	346.25
531.927	334.55
532.357	386.04
532.786	315.83
533.215	329.87
533.644	348.59
534.074	383.7
534.503	306.46
534.932	383.7
535.361	311.14
535.79	329.87
536.218	320.51
536.647	383.7
537.076	245.61
537.505	311.14
537.933	292.42
538.362	320.51
538.79	301.78
539.219	278.38
539.647	339.23
540.076	372
540.504	339.23
540.932	254.97
541.36	304.12
541.788	311.14
542.217	294.76
542.645	315.83
543.073	311.14
543.5	341.57
543.928	315.83
544.356	308.8
544.784	271.36
545.211	269.02
545.639	271.36
546.067	327.53
546.494	376.68
546.922	348.59
547.349	346.25
547.776	339.23
548.204	320.51
548.631	353.27
549.058	339.23
549.485	278.38
549.912	259.65
550.339	283.06
550.766	318.17
551.193	254.97
551.62	276.04
552.047	327.53
552.474	301.78
552.9	311.14
553.327	264.33
553.754	346.25
554.18	381.36
554.607	320.51
555.033	329.87
555.459	367.32
555.886	353.27
556.312	318.17
556.738	292.42
557.164	301.78
557.59	283.06
558.016	304.12
558.442	357.96
558.868	343.91
559.294	357.96
559.72	376.68
560.145	322.85
560.571	334.55
560.997	294.76
561.422	301.78
561.848	283.06
562.273	304.12
562.699	308.8
563.124	336.89
563.549	325.19
563.974	320.51
564.4	336.89
564.825	278.38
565.25	343.91
565.675	299.44
566.1	367.32
566.525	315.83
566.95	327.53
567.374	341.57
567.799	376.68
568.224	334.55
568.648	350.93
569.073	273.7
569.497	290.08
569.922	353.27
570.346	304.12
570.771	379.02
571.195	240.93
571.619	348.59
572.043	299.44
572.467	355.62
572.891	346.25
573.315	327.53
573.739	264.33
574.163	348.59
574.587	353.27
575.011	283.06
575.435	315.83
575.858	329.87
576.282	348.59
576.705	304.12
577.129	390.72
577.552	341.57
577.976	320.51
578.399	254.97
578.822	304.12
579.245	336.89
579.669	379.02
580.092	353.27
580.515	311.14
580.938	276.04
581.361	334.55
581.784	360.3
582.206	355.62
582.629	395.4
583.052	336.89
583.474	355.62
583.897	322.85
584.32	339.23
584.742	315.83
585.165	343.91
585.587	283.06
586.009	336.89
586.431	325.19
586.854	360.3
587.276	266.67
587.698	278.38
588.12	273.7
588.542	336.89
588.964	294.76
589.386	336.89
589.807	271.36
590.229	301.78
590.651	283.06
591.073	341.57
591.494	278.38
591.916	353.27
592.337	353.27
592.759	301.78
593.18	294.76
593.601	327.53
594.022	332.21
594.444	355.62
594.865	320.51
595.286	313.49
595.707	386.04
596.128	276.04
596.549	334.55
596.97	348.59
597.39	341.57
597.811	278.38
598.232	252.63
598.652	346.25
599.073	311.14
599.494	285.4
599.914	308.8
600.334	381.36
600.755	315.83
601.175	250.29
601.595	364.98
602.015	287.74
602.436	299.44
602.856	491.37
603.276	322.85
603.696	334.55
604.115	421.15
604.535	329.87
604.955	299.44
605.375	313.49
605.794	318.17
606.214	329.87
606.634	292.42
607.053	329.87
607.473	308.8
607.892	353.27
608.311	325.19
608.731	343.91
609.15	329.87
609.569	362.64
609.988	308.8
610.407	322.85
610.826	257.31
611.245	311.14
611.664	407.11
612.083	306.46
612.501	318.17
612.92	322.85
613.339	297.1
613.757	332.21
614.176	304.12
614.594	325.19
615.013	308.8
615.431	252.63
615.85	285.4
616.268	308.8
616.686	299.44
617.104	315.83
617.522	278.38
617.94	257.31
618.358	278.38
618.776	283.06
619.194	350.93
619.612	219.86
620.03	318.17
620.447	252.63
620.865	329.87
621.282	327.53
621.7	243.27
622.117	376.68
622.535	339.23
622.952	315.83
623.369	367.32
623.787	301.78
624.204	372
624.621	353.27
625.038	271.36
625.455	357.96
625.872	301.78
626.289	280.72
626.706	379.02
627.123	325.19
627.539	339.23
627.956	315.83
628.373	348.59
628.789	318.17
629.206	299.44
629.622	325.19
630.038	276.04
630.455	367.32
630.871	292.42
631.287	329.87
631.703	346.25
632.12	322.85
632.536	320.51
632.952	320.51
633.368	329.87
633.783	334.55
634.199	318.17
634.615	334.55
635.031	353.27
635.446	348.59
635.862	350.93
636.277	306.46
636.693	355.62
637.108	383.7
637.524	381.36
637.939	327.53
638.354	285.4
638.77	343.91
639.185	306.46
639.6	336.89
640.015	343.91
640.43	304.12
640.845	280.72
641.259	322.85
641.674	301.78
642.089	336.89
642.504	304.12
642.918	297.1
643.333	364.98
643.747	297.1
644.162	264.33
644.576	364.98
644.991	327.53
645.405	320.51
645.819	271.36
646.233	306.46
646.647	329.87
647.061	386.04
647.475	315.83
647.889	339.23
648.303	332.21
648.717	287.74
649.131	320.51
649.545	261.99
649.958	273.7
650.372	280.72
650.785	369.66
651.199	329.87
651.612	348.59
652.026	343.91
652.439	320.51
652.852	327.53
653.266	362.64
653.679	264.33
654.092	350.93
654.505	311.14
654.918	292.42
655.331	350.93
655.744	292.42
656.156	290.08
656.569	367.32
656.982	283.06
657.394	285.4
657.807	301.78
658.22	357.96
658.632	362.64
659.044	212.84
659.457	318.17
659.869	278.38
660.281	329.87
660.693	299.44
661.106	355.62
661.518	301.78
661.93	290.08
662.342	311.14
662.754	329.87
663.165	269.02
663.577	372
663.989	348.59
664.401	245.61
664.812	301.78
665.224	299.44
665.635	294.76
666.047	367.32
666.458	306.46
666.869	357.96
667.281	348.59
667.692	346.25
668.103	315.83
668.514	280.72
668.925	357.96
669.336	278.38
669.747	292.42
670.158	276.04
670.569	311.14
670.979	301.78
671.39	346.25
671.801	320.51
672.211	369.66
672.622	269.02
673.032	292.42
673.443	334.55
673.853	353.27
674.263	299.44
674.674	322.85
675.084	292.42
675.494	322.85
675.904	313.49
676.314	357.96
676.724	322.85
677.134	315.83
677.544	327.53
677.953	327.53
678.363	367.32
678.773	318.17
679.182	322.85
679.592	353.27
680.001	329.87
680.411	325.19
680.82	311.14
681.23	332.21
681.639	276.04
682.048	367.32
682.457	355.62
682.866	320.51
683.275	318.17
683.684	280.72
684.093	400.09
684.502	297.1
684.911	329.87
685.32	292.42
685.728	329.87
686.137	252.63
686.546	336.89
686.954	381.36
687.363	353.27
687.771	292.42
688.179	362.64
688.588	325.19
688.996	336.89
689.404	308.8
689.812	325.19
690.22	332.21
690.628	327.53
691.036	357.96
691.444	287.74
691.852	360.3
692.26	346.25
692.667	311.14
693.075	306.46
693.483	341.57
693.89	290.08
694.298	343.91
694.705	269.02
695.112	280.72
695.52	318.17
695.927	372
696.334	397.74
696.741	355.62
697.148	320.51
697.555	301.78
697.962	299.44
698.369	369.66
698.776	283.06
699.183	269.02
699.59	367.32
699.996	372
700.403	383.7
700.81	343.91
701.216	271.36
701.623	287.74
702.029	252.63
702.435	306.46
702.842	336.89
703.248	357.96
703.654	374.34
704.06	339.23
704.466	332.21
704.872	357.96
705.278	343.91
705.684	348.59
706.09	287.74
706.496	276.04
706.901	339.23
707.307	350.93
707.712	311.14
708.118	332.21
708.523	369.66
708.929	353.27
709.334	350.93
709.74	334.55
710.145	332.21
710.55	266.67
710.955	313.49
711.36	332.21
711.765	360.3
712.17	318.17
712.575	360.3
712.98	879.9
713.385	294.76
713.789	327.53
714.194	362.64
714.599	341.57
715.003	297.1
715.408	299.44
715.812	301.78
716.217	355.62
716.621	285.4
717.025	322.85
717.429	292.42
717.833	278.38
718.238	348.59
718.642	290.08
719.046	355.62
719.449	283.06
719.853	290.08
720.257	301.78
720.661	357.96
721.065	343.91
721.468	329.87
721.872	353.27
722.275	259.65
722.679	287.74
723.082	313.49
723.485	339.23
723.889	304.12
724.292	322.85
724.695	322.85
725.098	322.85
725.501	334.55
725.904	332.21
726.307	261.99
726.71	280.72
727.113	332.21
727.516	290.08
727.918	360.3
728.321	283.06
728.724	292.42
729.126	299.44
729.529	367.32
729.931	332.21
730.333	311.14
730.736	278.38
731.138	348.59
731.54	343.91
731.942	374.34
732.344	278.38
732.746	299.44
733.148	329.87
733.55	304.12
733.952	329.87
734.354	271.36
734.756	329.87
735.157	297.1
735.559	350.93
735.96	329.87
736.362	395.4
736.763	390.72
737.165	304.12
737.566	299.44
737.967	287.74
738.368	386.04
738.77	247.95
739.171	336.89
739.572	269.02
739.973	294.76
740.374	334.55
740.774	304.12
741.175	334.55
741.576	285.4
741.977	364.98
742.377	346.25
742.778	327.53
743.178	308.8
743.579	294.76
743.979	325.19
744.379	315.83
744.78	329.87
745.18	409.45
745.58	290.08
745.98	285.4
746.38	327.53
746.78	292.42
747.18	304.12
747.58	306.46
747.98	285.4
748.38	297.1
748.779	376.68
749.179	266.67
749.578	318.17
749.978	355.62
750.377	346.25
750.777	306.46
751.176	397.74
751.575	306.46
751.975	292.42
752.374	334.55
752.773	350.93
753.172	322.85
753.571	229.23
753.97	254.97
754.369	285.4
754.768	322.85
755.166	369.66
755.565	327.53
755.964	311.14
756.362	341.57
756.761	322.85
757.159	364.98
757.558	334.55
757.956	301.78
758.354	313.49
758.753	327.53
759.151	297.1
759.549	257.31
759.947	343.91
760.345	313.49
760.743	306.46
761.141	280.72
761.539	374.34
761.936	313.49
762.334	280.72
762.732	350.93
763.129	339.23
763.527	292.42
763.924	313.49
764.322	287.74
764.719	294.76
765.117	329.87
765.514	343.91
765.911	411.79
766.308	280.72
766.705	322.85
767.102	287.74
767.499	350.93
767.896	306.46
768.293	386.04
768.69	313.49
769.086	318.17
769.483	271.36
769.88	313.49
770.276	334.55
770.673	346.25
771.069	283.06
771.466	315.83
771.862	360.3
772.258	299.44
772.654	311.14
773.05	381.36
773.447	341.57
773.843	341.57
774.239	329.87
774.634	306.46
775.03	308.8
775.426	318.17
775.822	341.57
776.218	325.19
776.613	290.08
777.009	315.83
777.404	254.97
777.8	238.59
778.195	364.98
778.59	320.51
778.986	313.49
779.381	414.13
779.776	266.67
780.171	292.42
780.566	278.38
780.961	327.53
781.356	334.55
781.751	402.43
782.146	278.38
782.54	360.3
782.935	353.27
783.33	318.17
783.724	306.46
784.119	252.63
784.513	346.25
784.908	360.3
785.302	311.14
785.696	308.8
786.09	287.74
786.485	315.83
786.879	341.57
787.273	301.78
787.667	301.78
788.061	364.98
788.454	304.12
788.848	304.12
789.242	343.91
789.636	306.46
790.029	325.19
790.423	360.3
790.816	332.21
791.21	336.89
791.603	276.04
791.997	332.21
792.39	318.17
792.783	229.23
793.176	320.51
793.569	299.44
793.962	299.44
794.355	329.87
794.748	299.44
795.141	287.74
795.534	343.91
795.927	372
796.319	278.38
796.712	325.19
797.105	341.57
797.497	304.12
797.89	332.21
798.282	355.62
798.674	318.17
799.067	271.36
799.459	261.99
799.851	304.12
800.243	301.78
800.635	339.23
801.027	301.78
801.419	254.97
801.811	294.76
802.203	386.04
802.594	334.55
802.986	357.96
803.378	283.06
803.769	266.67
804.161	325.19
804.552	379.02
804.944	292.42
805.335	264.33
805.726	318.17
806.118	327.53
806.509	261.99
806.9	306.46
807.291	306.46
807.682	315.83
808.073	339.23
808.464	297.1
808.855	290.08
809.245	261.99
809.636	332.21
810.027	339.23
810.417	322.85
810.808	348.59
811.198	306.46
811.589	369.66
811.979	301.78
812.369	327.53
812.759	315.83
813.15	304.12
813.54	388.38
813.93	325.19
814.32	306.46
814.71	336.89
815.1	318.17
815.489	313.49
815.879	238.59
816.269	276.04
816.658	362.64
817.048	311.14
817.438	332.21
817.827	364.98
818.216	355.62
818.606	318.17
818.995	334.55
819.384	266.67
819.773	400.09
820.163	329.87
820.552	348.59
820.941	350.93
821.33	308.8
821.718	266.67
822.107	287.74
822.496	348.59
822.885	327.53
823.273	306.46
823.662	266.67
824.05	318.17
824.439	362.64
824.827	334.55
825.216	290.08
825.604	332.21
825.992	273.7
826.38	304.12
826.768	318.17
827.156	315.83
827.544	350.93
827.932	287.74
828.32	350.93
828.708	353.27
829.096	332.21
829.483	355.62
829.871	327.53
830.259	294.76
830.646	327.53
831.034	252.63
831.421	362.64
831.808	273.7
832.196	304.12
832.583	301.78
832.97	320.51
833.357	355.62
833.744	311.14
834.131	318.17
834.518	334.55
834.905	353.27
835.292	278.38
835.678	372
836.065	311.14
836.452	322.85
836.838	290.08
837.225	271.36
837.611	318.17
837.998	334.55
838.384	313.49
838.77	339.23
839.157	320.51
839.543	339.23
839.929	318.17
840.315	318.17
840.701	372
841.087	353.27
841.473	311.14
841.858	287.74
842.244	320.51
842.63	336.89
843.015	360.3
843.401	634.14
843.787	360.3
844.172	273.7
844.557	297.1
844.943	271.36
845.328	304.12
845.713	299.44
846.098	325.19
846.483	276.04
846.868	325.19
847.253	336.89
847.638	334.55
848.023	304.12
848.408	327.53
848.793	280.72
849.177	381.36
849.562	294.76
849.947	355.62
850.331	264.33
850.715	381.36
851.1	318.17
851.484	355.62
851.868	269.02
852.253	306.46
852.637	350.93
853.021	301.78
853.405	381.36
853.789	322.85
854.173	257.31
854.557	294.76
854.94	329.87
855.324	294.76
855.708	341.57
856.091	327.53
856.475	290.08
856.858	292.42
857.242	294.76
857.625	299.44
858.009	362.64
858.392	292.42
858.775	325.19
859.158	336.89
859.541	376.68
859.924	327.53
860.307	386.04
860.69	313.49
861.073	287.74
861.456	372
861.838	301.78
862.221	292.42
862.604	322.85
862.986	327.53
863.369	304.12
863.751	311.14
864.133	367.32
864.516	271.36
864.898	315.83
865.28	304.12
865.662	334.55
866.044	254.97
866.426	353.27
866.808	304.12
867.19	341.57
867.572	322.85
867.954	264.33
868.336	379.02
868.717	318.17
869.099	332.21
869.48	350.93
869.862	306.46
870.243	294.76
870.625	343.91
871.006	346.25
871.387	327.53
871.768	294.76
872.149	360.3
872.53	327.53
872.911	306.46
873.292	306.46
873.673	313.49
874.054	276.04
874.435	287.74
874.815	336.89
875.196	308.8
875.577	285.4
875.957	383.7
876.338	341.57
876.718	357.96
877.098	343.91
877.479	322.85
877.859	245.61
878.239	360.3
878.619	357.96
878.999	308.8
879.379	332.21
879.759	334.55
880.139	346.25
880.519	278.38
880.898	311.14
881.278	318.17
881.658	346.25
882.037	315.83
882.417	280.72
882.796	311.14
883.176	278.38
883.555	269.02
883.934	290.08
884.313	357.96
884.693	334.55
885.072	369.66
885.451	294.76
885.83	339.23
886.209	367.32
886.587	355.62
886.966	322.85
887.345	393.06
887.724	311.14
888.102	343.91
888.481	301.78
888.859	355.62
889.238	287.74
889.616	320.51
889.994	332.21
890.373	287.74
890.751	329.87
891.129	393.06
891.507	367.32
891.885	360.3
892.263	318.17
892.641	259.65
893.019	301.78
893.396	353.27
893.774	313.49
894.152	334.55
894.529	350.93
894.907	334.55
895.284	294.76
895.662	308.8
896.039	327.53
896.416	280.72
896.794	308.8
897.171	327.53
897.548	320.51
897.925	311.14
898.302	287.74
898.679	311.14
899.056	236.25
899.433	381.36
899.809	315.83
900.186	304.12
900.563	348.59
900.939	343.91
901.316	313.49
901.692	257.31
902.069	355.62
902.445	334.55
902.821	336.89
903.197	327.53
903.574	290.08
903.95	372
904.326	304.12
904.702	315.83
905.078	367.32
905.454	292.42
905.829	336.89
906.205	327.53
906.581	285.4
906.956	292.42
907.332	301.78
907.707	292.42
908.083	334.55
908.458	332.21
908.833	343.91
909.209	292.42
909.584	357.96
909.959	276.04
910.334	294.76
910.709	299.44
911.084	390.72
911.459	264.33
911.834	397.74
912.209	341.57
912.583	259.65
912.958	332.21
913.333	269.02
913.707	257.31
914.082	341.57
914.456	327.53
914.83	304.12
915.205	346.25
915.579	327.53
915.953	294.76
916.327	343.91
916.701	407.11
917.075	315.83
917.449	287.74
917.823	350.93
918.197	299.44
918.571	276.04
918.944	271.36
919.318	299.44
919.692	332.21
920.065	278.38
920.438	290.08
920.812	306.46
921.185	264.33
921.558	308.8
921.932	318.17
922.305	254.97
922.678	304.12
923.051	273.7
923.424	306.46
923.797	311.14
924.17	329.87
924.542	350.93
924.915	362.64
925.288	308.8
925.661	339.23
926.033	311.14
926.406	276.04
926.778	336.89
927.15	287.74
927.523	264.33
927.895	311.14
928.267	341.57
928.639	339.23
929.011	299.44
929.383	325.19
929.755	301.78
930.127	360.3
930.499	320.51
930.871	334.55
931.242	336.89
931.614	306.46
931.986	276.04
932.357	301.78
932.729	327.53
933.1	315.83
933.471	346.25
933.843	350.93
934.214	287.74
934.585	353.27
934.956	336.89
935.327	334.55
935.698	294.76
936.069	327.53
936.44	271.36
936.811	329.87
937.182	336.89
937.552	308.8
937.923	339.23
938.293	325.19
938.664	297.1
939.034	325.19
939.405	437.53
939.775	353.27
940.145	271.36
940.516	336.89
940.886	332.21
941.256	299.44
941.626	355.62
941.996	297.1
942.366	301.78
942.735	322.85
943.105	287.74
943.475	339.23
943.845	308.8
944.214	320.51
944.584	257.31
944.953	294.76
945.323	376.68
945.692	283.06
946.061	292.42
946.43	341.57
946.8	332.21
947.169	278.38
947.538	329.87
947.907	301.78
948.276	313.49
948.645	313.49
949.013	299.44
949.382	292.42
949.751	329.87
950.119	364.98
950.488	336.89
950.857	334.55
951.225	320.51
951.593	339.23
951.962	353.27
952.33	334.55
952.698	257.31
953.066	334.55
953.434	357.96
953.802	322.85
954.17	313.49
954.538	350.93
954.906	322.85
955.274	278.38
955.642	322.85
956.009	360.3
956.377	271.36
956.744	322.85
957.112	261.99
957.479	276.04
957.847	304.12
958.214	357.96
958.581	318.17
958.948	334.55
959.315	271.36
959.683	402.43
960.05	339.23
960.416	334.55
960.783	341.57
961.15	329.87
961.517	306.46
961.884	301.78
962.25	355.62
962.617	304.12
962.983	348.59
963.35	299.44
963.716	320.51
964.082	292.42
964.449	304.12
964.815	301.78
965.181	287.74
965.547	315.83
965.913	283.06
966.279	327.53
966.645	287.74
967.011	327.53
967.377	374.34
967.742	292.42
968.108	334.55
968.474	322.85
968.839	325.19
969.205	301.78
969.57	386.04
969.935	360.3
970.301	224.55
970.666	327.53
971.031	339.23
971.396	348.59
971.761	313.49
972.126	329.87
972.491	287.74
972.856	320.51
973.221	269.02
973.586	271.36
973.95	320.51
974.315	322.85
974.679	320.51
975.044	355.62
975.408	329.87
975.773	343.91
976.137	360.3
976.501	315.83
976.866	343.91
977.23	287.74
977.594	332.21
977.958	290.08
978.322	318.17
978.686	355.62
979.049	332.21
979.413	336.89
979.777	306.46
980.141	339.23
980.504	343.91
980.868	285.4
981.231	269.02
981.595	369.66
981.958	339.23
982.321	402.43
982.684	318.17
983.048	318.17
983.411	341.57
983.774	287.74
984.137	306.46
984.5	315.83
984.862	301.78
985.225	336.89
985.588	290.08
985.951	350.93
986.313	313.49
986.676	287.74
987.038	269.02
987.401	357.96
987.763	341.57
988.125	294.76
988.488	276.04
988.85	346.25
989.212	325.19
989.574	280.72
989.936	294.76
990.298	266.67
990.66	325.19
991.022	336.89
991.383	306.46
991.745	379.02
992.107	332.21
992.468	308.8
992.83	278.38
993.191	313.49
993.553	322.85
993.914	257.31
994.275	287.74
994.637	322.85
994.998	327.53
995.359	276.04
995.72	261.99
996.081	346.25
996.442	285.4
996.803	381.36
997.163	271.36
997.524	315.83
997.885	297.1
998.245	261.99
998.606	238.59
998.966	250.29
999.327	308.8
999.687	374.34
1000.047	343.91
1000.408	313.49
1000.768	299.44
1001.128	292.42
1001.488	362.64
1001.848	308.8
1002.208	327.53
1002.568	320.51
1002.927	325.19
1003.287	318.17
1003.647	390.72
1004.007	357.96
1004.366	395.4
1004.726	276.04
1005.085	339.23
1005.444	308.8
1005.804	367.32
1006.163	301.78
1006.522	336.89
1006.881	357.96
1007.24	301.78
1007.599	297.1
1007.958	339.23
1008.317	343.91
1008.676	292.42
1009.035	297.1
1009.393	346.25
1009.752	348.59
1010.111	308.8
1010.469	306.46
1010.828	332.21
1011.186	311.14
1011.544	297.1
1011.903	325.19
1012.261	318.17
1012.619	336.89
1012.977	254.97
1013.335	327.53
1013.693	285.4
1014.051	329.87
1014.409	320.51
1014.767	217.52
1015.124	357.96
1015.482	360.3
1015.84	311.14
1016.197	343.91
1016.555	390.72
1016.912	269.02
1017.269	304.12
1017.627	320.51
1017.984	257.31
1018.341	285.4
1018.698	304.12
1019.055	346.25
1019.412	245.61
1019.769	327.53
1020.126	271.36
1020.483	341.57
1020.84	278.38
1021.196	348.59
1021.553	343.91
1021.909	311.14
1022.266	327.53
1022.622	360.3
1022.979	283.06
1023.335	313.49
1023.691	320.51
1024.047	343.91
1024.404	318.17
1024.76	315.83
1025.116	280.72
1025.472	306.46
1025.827	308.8
1026.183	348.59
1026.539	304.12
1026.895	334.55
1027.25	266.67
1027.606	325.19
1027.961	301.78
1028.317	313.49
1028.672	285.4
1029.028	261.99
1029.383	336.89
1029.738	343.91
1030.093	327.53
1030.448	261.99
1030.803	357.96
1031.158	315.83
1031.513	285.4
1031.868	325.19
1032.223	297.1
1032.577	259.65
1032.932	350.93
1033.287	369.66
1033.641	369.66
1033.996	280.72
1034.35	299.44
1034.704	341.57
1035.059	341.57
1035.413	346.25
1035.767	346.25
1036.121	346.25
