Data from Al_FLMS009871__1253__16-46-16-272.txt Node

Date: Fri Mar 08 16:46:16 CST 2024
User: pe5414po
Spectrometer: FLMS00987
Trigger mode: 0
Integration Time (sec): 1.000000E-1
Scans to average: 1
Electric dark correction enabled: true
Nonlinearity correction enabled: false
Boxcar width: 0
XAxis mode: Wavelengths
Number of Pixels in Spectrum: 2048
>>>>>Begin Spectral Data<<<<<
188.938	-81.04
189.409	-81.04
189.879	-81.04
190.349	-78.7
190.819	-102.11
191.29	-132.53
191.76	-90.4
192.23	-76.36
192.7	-17.85
193.17	-76.36
193.64	-31.89
194.109	-38.91
194.579	24.28
195.049	7.9
195.519	28.96
195.988	0.88
196.458	33.65
196.927	66.41
197.397	33.65
197.866	148.33
198.336	120.25
198.805	220.89
199.274	162.37
199.744	183.44
200.213	202.16
200.682	202.16
201.151	197.48
201.62	232.59
202.089	323.87
202.558	295.79
203.027	239.61
203.495	279.4
203.964	309.83
204.433	230.25
204.902	244.29
205.37	234.93
205.839	295.79
206.307	270.04
206.776	337.91
207.244	274.72
207.712	316.85
208.181	319.19
208.649	305.15
209.117	340.26
209.585	326.21
210.053	263.02
210.521	302.81
210.989	370.68
211.457	298.13
211.925	328.55
212.393	284.08
212.861	298.13
213.328	300.47
213.796	281.74
214.264	288.76
214.731	274.72
215.199	286.42
215.666	284.08
216.133	265.36
216.601	295.79
217.068	312.17
217.535	277.06
218.003	265.36
218.47	265.36
218.937	239.61
219.404	326.21
219.871	277.06
220.338	288.76
220.805	274.72
221.271	244.29
221.738	305.15
222.205	319.19
222.671	211.53
223.138	349.62
223.605	256
224.071	263.02
224.538	246.63
225.004	281.74
225.47	288.76
225.937	251.32
226.403	302.81
226.869	284.08
227.335	284.08
227.801	333.23
228.267	248.97
228.733	274.72
229.199	284.08
229.665	232.59
230.131	239.61
230.597	253.66
231.062	316.85
231.528	307.49
231.994	300.47
232.459	272.38
232.925	335.57
233.39	267.7
233.856	281.74
234.321	251.32
234.786	312.17
235.252	263.02
235.717	258.34
236.182	260.68
236.647	263.02
237.112	260.68
237.577	251.32
238.042	295.79
238.507	192.8
238.972	312.17
239.436	277.06
239.901	300.47
240.366	286.42
240.83	253.66
241.295	330.89
241.76	281.74
242.224	321.53
242.688	305.15
243.153	293.44
243.617	288.76
244.081	330.89
244.545	321.53
245.01	286.42
245.474	274.72
245.938	281.74
246.402	279.4
246.866	284.08
247.33	347.28
247.793	284.08
248.257	232.59
248.721	206.84
249.185	298.13
249.648	265.36
250.112	363.66
250.575	342.6
251.039	326.21
251.502	319.19
251.965	270.04
252.429	328.55
252.892	277.06
253.355	281.74
253.818	279.4
254.281	286.42
254.744	358.98
255.207	309.83
255.67	256
256.133	300.47
256.596	328.55
257.059	293.44
257.522	312.17
257.984	298.13
258.447	279.4
258.909	368.34
259.372	204.5
259.834	260.68
260.297	248.97
260.759	291.1
261.221	335.57
261.684	248.97
262.146	337.91
262.608	323.87
263.07	279.4
263.532	314.51
263.994	286.42
264.456	284.08
264.918	300.47
265.38	314.51
265.842	305.15
266.303	300.47
266.765	293.44
267.227	246.63
267.688	300.47
268.15	342.6
268.611	354.3
269.072	321.53
269.534	358.98
269.995	293.44
270.456	295.79
270.918	305.15
271.379	274.72
271.84	293.44
272.301	330.89
272.762	328.55
273.223	300.47
273.684	344.94
274.144	256
274.605	279.4
275.066	279.4
275.527	274.72
275.987	333.23
276.448	256
276.908	305.15
277.369	211.53
277.829	284.08
278.289	239.61
278.75	344.94
279.21	309.83
279.67	314.51
280.13	279.4
280.59	295.79
281.05	239.61
281.51	330.89
281.97	295.79
282.43	305.15
282.89	319.19
283.35	319.19
283.809	288.76
284.269	309.83
284.729	258.34
285.188	265.36
285.648	321.53
286.107	309.83
286.567	213.87
287.026	314.51
287.485	274.72
287.944	349.62
288.404	312.17
288.863	384.73
289.322	263.02
289.781	330.89
290.24	265.36
290.699	316.85
291.158	190.46
291.616	326.21
292.075	284.08
292.534	293.44
292.992	309.83
293.451	316.85
293.91	309.83
294.368	265.36
294.827	307.49
295.285	326.21
295.743	300.47
296.202	270.04
296.66	298.13
297.118	361.32
297.576	356.64
298.034	326.21
298.492	351.96
298.95	375.36
299.408	291.1
299.866	293.44
300.324	309.83
300.781	342.6
301.239	340.26
301.697	241.95
302.154	307.49
302.612	293.44
303.069	258.34
303.527	251.32
303.984	309.83
304.441	300.47
304.899	340.26
305.356	295.79
305.813	347.28
306.27	368.34
306.727	302.81
307.184	232.59
307.641	277.06
308.098	265.36
308.555	340.26
309.012	274.72
309.468	333.23
309.925	342.6
310.382	265.36
310.838	298.13
311.295	330.89
311.751	277.06
312.208	328.55
312.664	312.17
313.12	234.93
313.577	284.08
314.033	356.64
314.489	307.49
314.945	344.94
315.401	316.85
315.857	349.62
316.313	340.26
316.769	295.79
317.225	323.87
317.681	370.68
318.136	293.44
318.592	270.04
319.048	333.23
319.503	305.15
319.959	351.96
320.414	265.36
320.869	309.83
321.325	295.79
321.78	351.96
322.235	258.34
322.691	284.08
323.146	279.4
323.601	291.1
324.056	300.47
324.511	314.51
324.966	288.76
325.421	351.96
325.875	241.95
326.33	354.3
326.785	272.38
327.24	333.23
327.694	342.6
328.149	323.87
328.603	328.55
329.058	330.89
329.512	351.96
329.966	328.55
330.421	277.06
330.875	288.76
331.329	284.08
331.783	351.96
332.237	241.95
332.691	295.79
333.145	319.19
333.599	316.85
334.053	328.55
334.507	328.55
334.96	295.79
335.414	279.4
335.868	300.47
336.321	330.89
336.775	316.85
337.228	300.47
337.682	309.83
338.135	270.04
338.588	251.32
339.042	333.23
339.495	330.89
339.948	256
340.401	277.06
340.854	309.83
341.307	319.19
341.76	227.91
342.213	358.98
342.666	286.42
343.119	344.94
343.571	312.17
344.024	363.66
344.477	246.63
344.929	319.19
345.382	408.13
345.834	274.72
346.287	323.87
346.739	293.44
347.191	284.08
347.644	337.91
348.096	312.17
348.548	351.96
349	288.76
349.452	326.21
349.904	288.76
350.356	377.7
350.808	319.19
351.26	253.66
351.711	389.41
352.163	309.83
352.615	316.85
353.066	270.04
353.518	312.17
353.969	291.1
354.421	326.21
354.872	319.19
355.324	328.55
355.775	330.89
356.226	288.76
356.677	267.7
357.128	340.26
357.579	316.85
358.03	349.62
358.481	342.6
358.932	295.79
359.383	354.3
359.834	337.91
360.285	298.13
360.735	267.7
361.186	248.97
361.637	361.32
362.087	312.17
362.538	361.32
362.988	291.1
363.438	309.83
363.889	351.96
364.339	321.53
364.789	366
365.239	293.44
365.689	373.02
366.139	305.15
366.589	335.57
367.039	256
367.489	330.89
367.939	426.86
368.389	389.41
368.839	291.1
369.288	354.3
369.738	335.57
370.187	319.19
370.637	300.47
371.086	316.85
371.536	291.1
371.985	342.6
372.434	312.17
372.884	298.13
373.333	281.74
373.782	302.81
374.231	319.19
374.68	377.7
375.129	323.87
375.578	373.02
376.027	307.49
376.475	382.39
376.924	373.02
377.373	361.32
377.822	328.55
378.27	295.79
378.719	281.74
379.167	272.38
379.616	319.19
380.064	330.89
380.512	342.6
380.961	293.44
381.409	284.08
381.857	288.76
382.305	363.66
382.753	305.15
383.201	316.85
383.649	321.53
384.097	305.15
384.545	347.28
384.992	314.51
385.44	314.51
385.888	298.13
386.335	337.91
386.783	284.08
387.231	384.73
387.678	342.6
388.125	347.28
388.573	326.21
389.02	377.7
389.467	260.68
389.914	272.38
390.362	335.57
390.809	366
391.256	340.26
391.703	356.64
392.15	344.94
392.596	361.32
393.043	377.7
393.49	335.57
393.937	302.81
394.383	351.96
394.83	333.23
395.276	340.26
395.723	333.23
396.169	298.13
396.616	333.23
397.062	305.15
397.508	335.57
397.954	309.83
398.401	323.87
398.847	351.96
399.293	342.6
399.739	323.87
400.185	335.57
400.631	323.87
401.076	356.64
401.522	333.23
401.968	305.15
402.414	277.06
402.859	412.81
403.305	340.26
403.75	342.6
404.196	333.23
404.641	319.19
405.086	321.53
405.532	330.89
405.977	319.19
406.422	370.68
406.867	284.08
407.312	312.17
407.757	260.68
408.202	312.17
408.647	309.83
409.092	335.57
409.537	274.72
409.982	300.47
410.426	312.17
410.871	307.49
411.316	319.19
411.76	340.26
412.205	307.49
412.649	382.39
413.093	342.6
413.538	274.72
413.982	363.66
414.426	291.1
414.87	248.97
415.314	267.7
415.758	302.81
416.202	333.23
416.646	358.98
417.09	347.28
417.534	328.55
417.978	349.62
418.421	300.47
418.865	340.26
419.309	312.17
419.752	312.17
420.196	344.94
420.639	363.66
421.083	387.07
421.526	349.62
421.969	349.62
422.412	351.96
422.856	314.51
423.299	307.49
423.742	302.81
424.185	260.68
424.628	258.34
425.071	272.38
425.513	309.83
425.956	368.34
426.399	361.32
426.842	309.83
427.284	260.68
427.727	321.53
428.169	349.62
428.612	328.55
429.054	340.26
429.497	300.47
429.939	326.21
430.381	335.57
430.823	321.53
431.265	363.66
431.707	335.57
432.149	361.32
432.591	351.96
433.033	307.49
433.475	295.79
433.917	347.28
434.359	328.55
434.8	347.28
435.242	389.41
435.684	277.06
436.125	298.13
436.567	358.98
437.008	270.04
437.449	277.06
437.891	253.66
438.332	333.23
438.773	340.26
439.214	328.55
439.656	314.51
440.097	316.85
440.538	347.28
440.978	293.44
441.419	349.62
441.86	342.6
442.301	328.55
442.742	246.63
443.182	321.53
443.623	326.21
444.063	277.06
444.504	354.3
444.944	298.13
445.385	298.13
445.825	305.15
446.265	295.79
446.706	263.02
447.146	319.19
447.586	300.47
448.026	300.47
448.466	361.32
448.906	265.36
449.346	340.26
449.786	316.85
450.225	340.26
450.665	323.87
451.105	251.32
451.544	354.3
451.984	272.38
452.424	330.89
452.863	305.15
453.302	361.32
453.742	314.51
454.181	298.13
454.62	405.79
455.059	328.55
455.499	309.83
455.938	328.55
456.377	370.68
456.816	335.57
457.254	373.02
457.693	302.81
458.132	326.21
458.571	328.55
459.01	281.74
459.448	319.19
459.887	312.17
460.325	323.87
460.764	340.26
461.202	307.49
461.641	298.13
462.079	344.94
462.517	319.19
462.955	298.13
463.393	248.97
463.832	291.1
464.27	305.15
464.708	391.75
465.145	370.68
465.583	291.1
466.021	279.4
466.459	333.23
466.897	295.79
467.334	314.51
467.772	358.98
468.209	314.51
468.647	356.64
469.084	333.23
469.522	356.64
469.959	410.47
470.396	328.55
470.833	316.85
471.271	347.28
471.708	270.04
472.145	323.87
472.582	293.44
473.019	319.19
473.456	340.26
473.892	300.47
474.329	337.91
474.766	316.85
475.202	335.57
475.639	302.81
476.076	321.53
476.512	363.66
476.949	356.64
477.385	305.15
477.821	330.89
478.258	260.68
478.694	295.79
479.13	279.4
479.566	314.51
480.002	279.4
480.438	361.32
480.874	361.32
481.31	323.87
481.746	337.91
482.181	337.91
482.617	323.87
483.053	286.42
483.488	328.55
483.924	321.53
484.36	326.21
484.795	333.23
485.23	319.19
485.666	326.21
486.101	424.51
486.536	234.93
486.971	342.6
487.407	298.13
487.842	305.15
488.277	293.44
488.712	335.57
489.146	375.36
489.581	328.55
490.016	328.55
490.451	330.89
490.885	337.91
491.32	363.66
491.755	354.3
492.189	340.26
492.624	344.94
493.058	321.53
493.492	295.79
493.927	272.38
494.361	316.85
494.795	309.83
495.229	265.36
495.663	277.06
496.097	312.17
496.531	347.28
496.965	270.04
497.399	344.94
497.833	323.87
498.266	330.89
498.7	316.85
499.134	319.19
499.567	389.41
500.001	300.47
500.434	293.44
500.868	361.32
501.301	307.49
501.734	356.64
502.168	302.81
502.601	326.21
503.034	351.96
503.467	342.6
503.9	326.21
504.333	316.85
504.766	300.47
505.199	309.83
505.632	319.19
506.064	356.64
506.497	309.83
506.93	354.3
507.362	270.04
507.795	316.85
508.227	321.53
508.66	382.39
509.092	342.6
509.524	351.96
509.956	328.55
510.389	330.89
510.821	333.23
511.253	272.38
511.685	314.51
512.117	312.17
512.549	354.3
512.981	342.6
513.412	321.53
513.844	319.19
514.276	344.94
514.707	351.96
515.139	295.79
515.571	340.26
516.002	396.43
516.433	305.15
516.865	370.68
517.296	277.06
517.727	335.57
518.159	293.44
518.59	431.54
519.021	323.87
519.452	258.34
519.883	305.15
520.314	349.62
520.744	340.26
521.175	351.96
521.606	342.6
522.037	342.6
522.467	302.81
522.898	330.89
523.328	351.96
523.759	328.55
524.189	295.79
524.62	279.4
525.05	298.13
525.48	323.87
525.91	293.44
526.341	230.25
526.771	314.51
527.201	366
527.631	305.15
528.061	307.49
528.49	272.38
528.92	295.79
529.35	251.32
529.78	314.51
530.209	351.96
530.639	321.53
531.068	380.04
531.498	370.68
531.927	295.79
532.357	333.23
532.786	330.89
533.215	263.02
533.644	351.96
534.074	356.64
534.503	305.15
534.932	415.15
535.361	279.4
535.79	309.83
536.218	293.44
536.647	319.19
537.076	293.44
537.505	281.74
537.933	302.81
538.362	246.63
538.79	284.08
539.219	335.57
539.647	330.89
540.076	354.3
540.504	256
540.932	293.44
541.36	323.87
541.788	330.89
542.217	361.32
542.645	335.57
543.073	237.27
543.5	300.47
543.928	354.3
544.356	351.96
544.784	361.32
545.211	316.85
545.639	284.08
546.067	267.7
546.494	328.55
546.922	356.64
547.349	319.19
547.776	265.36
548.204	319.19
548.631	354.3
549.058	349.62
549.485	335.57
549.912	270.04
550.339	349.62
550.766	300.47
551.193	340.26
551.62	295.79
552.047	328.55
552.474	302.81
552.9	270.04
553.327	312.17
553.754	314.51
554.18	288.76
554.607	265.36
555.033	305.15
555.459	302.81
555.886	351.96
556.312	375.36
556.738	288.76
557.164	300.47
557.59	349.62
558.016	342.6
558.442	302.81
558.868	342.6
559.294	312.17
559.72	284.08
560.145	351.96
560.571	326.21
560.997	370.68
561.422	368.34
561.848	246.63
562.273	319.19
562.699	272.38
563.124	323.87
563.549	368.34
563.974	330.89
564.4	284.08
564.825	335.57
565.25	323.87
565.675	326.21
566.1	382.39
566.525	354.3
566.95	328.55
567.374	309.83
567.799	309.83
568.224	305.15
568.648	370.68
569.073	312.17
569.497	265.36
569.922	298.13
570.346	342.6
570.771	305.15
571.195	316.85
571.619	307.49
572.043	337.91
572.467	323.87
572.891	300.47
573.315	347.28
573.739	351.96
574.163	363.66
574.587	333.23
575.011	260.68
575.435	274.72
575.858	300.47
576.282	314.51
576.705	342.6
577.129	351.96
577.552	316.85
577.976	288.76
578.399	347.28
578.822	295.79
579.245	356.64
579.669	342.6
580.092	323.87
580.515	340.26
580.938	319.19
581.361	326.21
581.784	328.55
582.206	361.32
582.629	312.17
583.052	330.89
583.474	323.87
583.897	316.85
584.32	319.19
584.742	354.3
585.165	354.3
585.587	281.74
586.009	305.15
586.431	391.75
586.854	272.38
587.276	263.02
587.698	307.49
588.12	356.64
588.542	333.23
588.964	363.66
589.386	265.36
589.807	309.83
590.229	354.3
590.651	328.55
591.073	375.36
591.494	326.21
591.916	354.3
592.337	319.19
592.759	321.53
593.18	298.13
593.601	300.47
594.022	309.83
594.444	358.98
594.865	293.44
595.286	375.36
595.707	349.62
596.128	302.81
596.549	298.13
596.97	387.07
597.39	265.36
597.811	307.49
598.232	274.72
598.652	300.47
599.073	326.21
599.494	340.26
599.914	347.28
600.334	330.89
600.755	340.26
601.175	323.87
601.595	321.53
602.015	288.76
602.436	293.44
602.856	405.79
603.276	328.55
603.696	391.75
604.115	309.83
604.535	284.08
604.955	312.17
605.375	302.81
605.794	333.23
606.214	321.53
606.634	284.08
607.053	358.98
607.473	312.17
607.892	375.36
608.311	349.62
608.731	377.7
609.15	349.62
609.569	251.32
609.988	302.81
610.407	363.66
610.826	377.7
611.245	316.85
611.664	370.68
612.083	312.17
612.501	361.32
612.92	316.85
613.339	328.55
613.757	253.66
614.176	363.66
614.594	328.55
615.013	389.41
615.431	349.62
615.85	340.26
616.268	295.79
616.686	387.07
617.104	337.91
617.522	312.17
617.94	321.53
618.358	281.74
618.776	344.94
619.194	284.08
619.612	326.21
620.03	354.3
620.447	354.3
620.865	291.1
621.282	321.53
621.7	253.66
622.117	337.91
622.535	356.64
622.952	241.95
623.369	321.53
623.787	312.17
624.204	335.57
624.621	307.49
625.038	291.1
625.455	377.7
625.872	321.53
626.289	356.64
626.706	333.23
627.123	377.7
627.539	265.36
627.956	335.57
628.373	284.08
628.789	342.6
629.206	312.17
629.622	382.39
630.038	248.97
630.455	307.49
630.871	277.06
631.287	377.7
631.703	244.29
632.12	333.23
632.536	300.47
632.952	356.64
633.368	321.53
633.783	288.76
634.199	291.1
634.615	307.49
635.031	354.3
635.446	330.89
635.862	370.68
636.277	293.44
636.693	319.19
637.108	309.83
637.524	284.08
637.939	370.68
638.354	354.3
638.77	270.04
639.185	368.34
639.6	363.66
640.015	356.64
640.43	305.15
640.845	342.6
641.259	293.44
641.674	366
642.089	284.08
642.504	370.68
642.918	295.79
643.333	265.36
643.747	354.3
644.162	312.17
644.576	328.55
644.991	300.47
645.405	335.57
645.819	319.19
646.233	270.04
646.647	284.08
647.061	354.3
647.475	323.87
647.889	326.21
648.303	361.32
648.717	396.43
649.131	277.06
649.545	295.79
649.958	263.02
650.372	328.55
650.785	335.57
651.199	267.7
651.612	258.34
652.026	354.3
652.439	368.34
652.852	281.74
653.266	305.15
653.679	347.28
654.092	342.6
654.505	326.21
654.918	293.44
655.331	267.7
655.744	298.13
656.156	305.15
656.569	319.19
656.982	270.04
657.394	291.1
657.807	305.15
658.22	337.91
658.632	302.81
659.044	319.19
659.457	316.85
659.869	281.74
660.281	335.57
660.693	232.59
661.106	358.98
661.518	333.23
661.93	241.95
662.342	347.28
662.754	272.38
663.165	316.85
663.577	347.28
663.989	300.47
664.401	330.89
664.812	358.98
665.224	314.51
665.635	288.76
666.047	293.44
666.458	298.13
666.869	335.57
667.281	342.6
667.692	281.74
668.103	335.57
668.514	361.32
668.925	356.64
669.336	389.41
669.747	330.89
670.158	337.91
670.569	300.47
670.979	321.53
671.39	356.64
671.801	335.57
672.211	340.26
672.622	284.08
673.032	377.7
673.443	307.49
673.853	272.38
674.263	298.13
674.674	344.94
675.084	312.17
675.494	309.83
675.904	321.53
676.314	417.49
676.724	295.79
677.134	302.81
677.544	368.34
677.953	330.89
678.363	375.36
678.773	370.68
679.182	330.89
679.592	326.21
680.001	321.53
680.411	368.34
680.82	342.6
681.23	284.08
681.639	263.02
682.048	288.76
682.457	354.3
682.866	300.47
683.275	288.76
683.684	368.34
684.093	281.74
684.502	351.96
684.911	316.85
685.32	286.42
685.728	316.85
686.137	358.98
686.546	333.23
686.954	342.6
687.363	328.55
687.771	323.87
688.179	256
688.588	333.23
688.996	361.32
689.404	302.81
689.812	328.55
690.22	312.17
690.628	328.55
691.036	384.73
691.444	373.02
691.852	302.81
692.26	302.81
692.667	316.85
693.075	349.62
693.483	272.38
693.89	326.21
694.298	260.68
694.705	337.91
695.112	270.04
695.52	284.08
695.927	263.02
696.334	337.91
696.741	237.27
697.148	380.04
697.555	270.04
697.962	349.62
698.369	312.17
698.776	279.4
699.183	258.34
699.59	291.1
699.996	340.26
700.403	354.3
700.81	328.55
701.216	291.1
701.623	274.72
702.029	330.89
702.435	328.55
702.842	396.43
703.248	279.4
703.654	284.08
704.06	358.98
704.466	326.21
704.872	321.53
705.278	305.15
705.684	321.53
706.09	335.57
706.496	333.23
706.901	340.26
707.307	239.61
707.712	265.36
708.118	333.23
708.523	412.81
708.929	354.3
709.334	337.91
709.74	321.53
710.145	366
710.55	298.13
710.955	272.38
711.36	227.91
711.765	321.53
712.17	363.66
712.575	337.91
712.98	911.35
713.385	340.26
713.789	312.17
714.194	295.79
714.599	288.76
715.003	363.66
715.408	293.44
715.812	330.89
716.217	366
716.621	314.51
717.025	398.77
717.429	279.4
717.833	316.85
718.238	307.49
718.642	328.55
719.046	295.79
719.449	286.42
719.853	328.55
720.257	263.02
720.661	326.21
721.065	361.32
721.468	356.64
721.872	265.36
722.275	326.21
722.679	281.74
723.082	239.61
723.485	298.13
723.889	335.57
724.292	267.7
724.695	288.76
725.098	342.6
725.501	277.06
725.904	314.51
726.307	333.23
726.71	291.1
727.113	291.1
727.516	333.23
727.918	216.21
728.321	337.91
728.724	274.72
729.126	260.68
729.529	309.83
729.931	326.21
730.333	284.08
730.736	326.21
731.138	300.47
731.54	349.62
731.942	277.06
732.344	302.81
732.746	370.68
733.148	312.17
733.55	274.72
733.952	347.28
734.354	340.26
734.756	347.28
735.157	302.81
735.559	401.11
735.96	335.57
736.362	340.26
736.763	340.26
737.165	349.62
737.566	342.6
737.967	305.15
738.368	349.62
738.77	316.85
739.171	326.21
739.572	286.42
739.973	342.6
740.374	340.26
740.774	328.55
741.175	337.91
741.576	248.97
741.977	295.79
742.377	321.53
742.778	363.66
743.178	256
743.579	309.83
743.979	366
744.379	288.76
744.78	295.79
745.18	209.19
745.58	326.21
745.98	288.76
746.38	220.89
746.78	314.51
747.18	284.08
747.58	356.64
747.98	319.19
748.38	277.06
748.779	394.09
749.179	326.21
749.578	279.4
749.978	251.32
750.377	305.15
750.777	335.57
751.176	319.19
751.575	337.91
751.975	380.04
752.374	291.1
752.773	314.51
753.172	344.94
753.571	335.57
753.97	300.47
754.369	340.26
754.768	272.38
755.166	286.42
755.565	291.1
755.964	316.85
756.362	354.3
756.761	316.85
757.159	305.15
757.558	321.53
757.956	286.42
758.354	356.64
758.753	314.51
759.151	253.66
759.549	265.36
759.947	258.34
760.345	307.49
760.743	309.83
761.141	321.53
761.539	363.66
761.936	366
762.334	333.23
762.732	241.95
763.129	326.21
763.527	314.51
763.924	298.13
764.322	319.19
764.719	333.23
765.117	291.1
765.514	342.6
765.911	337.91
766.308	326.21
766.705	347.28
767.102	260.68
767.499	286.42
767.896	288.76
768.293	291.1
768.69	293.44
769.086	342.6
769.483	281.74
769.88	370.68
770.276	293.44
770.673	340.26
771.069	323.87
771.466	293.44
771.862	323.87
772.258	256
772.654	358.98
773.05	323.87
773.447	302.81
773.843	323.87
774.239	326.21
774.634	382.39
775.03	342.6
775.426	316.85
775.822	323.87
776.218	263.02
776.613	305.15
777.009	361.32
777.404	305.15
777.8	347.28
778.195	368.34
778.59	295.79
778.986	323.87
779.381	309.83
779.776	302.81
780.171	321.53
780.566	295.79
780.961	286.42
781.356	340.26
781.751	349.62
782.146	312.17
782.54	305.15
782.935	300.47
783.33	307.49
783.724	321.53
784.119	256
784.513	291.1
784.908	316.85
785.302	328.55
785.696	293.44
786.09	373.02
786.485	373.02
786.879	380.04
787.273	284.08
787.667	354.3
788.061	291.1
788.454	323.87
788.848	286.42
789.242	307.49
789.636	323.87
790.029	340.26
790.423	351.96
790.816	277.06
791.21	295.79
791.603	309.83
791.997	288.76
792.39	305.15
792.783	319.19
793.176	351.96
793.569	326.21
793.962	263.02
794.355	366
794.748	349.62
795.141	342.6
795.534	333.23
795.927	298.13
796.319	330.89
796.712	307.49
797.105	323.87
797.497	347.28
797.89	342.6
798.282	302.81
798.674	342.6
799.067	281.74
799.459	274.72
799.851	305.15
800.243	316.85
800.635	328.55
801.027	265.36
801.419	368.34
801.811	253.66
802.203	309.83
802.594	330.89
802.986	307.49
803.378	307.49
803.769	354.3
804.161	298.13
804.552	344.94
804.944	314.51
805.335	347.28
805.726	337.91
806.118	281.74
806.509	291.1
806.9	305.15
807.291	326.21
807.682	363.66
808.073	284.08
808.464	312.17
808.855	380.04
809.245	347.28
809.636	314.51
810.027	326.21
810.417	274.72
810.808	244.29
811.198	321.53
811.589	277.06
811.979	305.15
812.369	326.21
812.759	415.15
813.15	340.26
813.54	375.36
813.93	314.51
814.32	314.51
814.71	354.3
815.1	358.98
815.489	363.66
815.879	267.7
816.269	314.51
816.658	342.6
817.048	316.85
817.438	347.28
817.827	347.28
818.216	370.68
818.606	253.66
818.995	347.28
819.384	354.3
819.773	288.76
820.163	333.23
820.552	307.49
820.941	288.76
821.33	314.51
821.718	314.51
822.107	351.96
822.496	305.15
822.885	333.23
823.273	286.42
823.662	277.06
824.05	291.1
824.439	263.02
824.827	333.23
825.216	347.28
825.604	328.55
825.992	335.57
826.38	344.94
826.768	347.28
827.156	349.62
827.544	340.26
827.932	300.47
828.32	314.51
828.708	335.57
829.096	293.44
829.483	312.17
829.871	274.72
830.259	309.83
830.646	272.38
831.034	302.81
831.421	274.72
831.808	368.34
832.196	312.17
832.583	335.57
832.97	335.57
833.357	321.53
833.744	302.81
834.131	284.08
834.518	319.19
834.905	351.96
835.292	302.81
835.678	307.49
836.065	260.68
836.452	302.81
836.838	333.23
837.225	382.39
837.611	272.38
837.998	295.79
838.384	279.4
838.77	281.74
839.157	272.38
839.543	377.7
839.929	291.1
840.315	309.83
840.701	340.26
841.087	335.57
841.473	288.76
841.858	321.53
842.244	279.4
842.63	307.49
843.015	394.09
843.401	548.56
843.787	368.34
844.172	286.42
844.557	319.19
844.943	358.98
845.328	328.55
845.713	284.08
846.098	328.55
846.483	415.15
846.868	358.98
847.253	265.36
847.638	298.13
848.023	307.49
848.408	377.7
848.793	256
849.177	312.17
849.562	277.06
849.947	248.97
850.331	358.98
850.715	293.44
851.1	340.26
851.484	253.66
851.868	328.55
852.253	251.32
852.637	298.13
853.021	307.49
853.405	368.34
853.789	316.85
854.173	300.47
854.557	253.66
854.94	347.28
855.324	349.62
855.708	328.55
856.091	307.49
856.475	382.39
856.858	387.07
857.242	344.94
857.625	363.66
858.009	342.6
858.392	286.42
858.775	349.62
859.158	295.79
859.541	342.6
859.924	366
860.307	272.38
860.69	298.13
861.073	342.6
861.456	351.96
861.838	316.85
862.221	190.46
862.604	314.51
862.986	309.83
863.369	361.32
863.751	300.47
864.133	312.17
864.516	305.15
864.898	270.04
865.28	319.19
865.662	293.44
866.044	284.08
866.426	333.23
866.808	384.73
867.19	298.13
867.572	368.34
867.954	349.62
868.336	281.74
868.717	373.02
869.099	366
869.48	298.13
869.862	326.21
870.243	349.62
870.625	295.79
871.006	293.44
871.387	286.42
871.768	286.42
872.149	307.49
872.53	291.1
872.911	302.81
873.292	305.15
873.673	281.74
874.054	333.23
874.435	326.21
874.815	316.85
875.196	319.19
875.577	326.21
875.957	286.42
876.338	328.55
876.718	314.51
877.098	288.76
877.479	375.36
877.859	361.32
878.239	349.62
878.619	356.64
878.999	300.47
879.379	307.49
879.759	333.23
880.139	237.27
880.519	344.94
880.898	335.57
881.278	305.15
881.658	291.1
882.037	265.36
882.417	342.6
882.796	403.45
883.176	380.04
883.555	326.21
883.934	321.53
884.313	253.66
884.693	358.98
885.072	309.83
885.451	291.1
885.83	349.62
886.209	321.53
886.587	363.66
886.966	330.89
887.345	354.3
887.724	298.13
888.102	344.94
888.481	347.28
888.859	302.81
889.238	263.02
889.616	248.97
889.994	314.51
890.373	298.13
890.751	284.08
891.129	293.44
891.507	323.87
891.885	319.19
892.263	347.28
892.641	316.85
893.019	288.76
893.396	253.66
893.774	387.07
894.152	358.98
894.529	337.91
894.907	323.87
895.284	330.89
895.662	391.75
896.039	312.17
896.416	307.49
896.794	323.87
897.171	251.32
897.548	277.06
897.925	307.49
898.302	342.6
898.679	370.68
899.056	258.34
899.433	333.23
899.809	291.1
900.186	337.91
900.563	272.38
900.939	347.28
901.316	389.41
901.692	293.44
902.069	279.4
902.445	326.21
902.821	330.89
903.197	305.15
903.574	302.81
903.95	323.87
904.326	295.79
904.702	288.76
905.078	337.91
905.454	270.04
905.829	319.19
906.205	281.74
906.581	281.74
906.956	340.26
907.332	347.28
907.707	368.34
908.083	335.57
908.458	288.76
908.833	260.68
909.209	340.26
909.584	260.68
909.959	347.28
910.334	286.42
910.709	300.47
911.084	274.72
911.459	309.83
911.834	307.49
912.209	267.7
912.583	349.62
912.958	279.4
913.333	288.76
913.707	319.19
914.082	248.97
914.456	302.81
914.83	314.51
915.205	319.19
915.579	302.81
915.953	291.1
916.327	344.94
916.701	230.25
917.075	326.21
917.449	316.85
917.823	274.72
918.197	286.42
918.571	295.79
918.944	351.96
919.318	328.55
919.692	335.57
920.065	342.6
920.438	267.7
920.812	403.45
921.185	312.17
921.558	291.1
921.932	300.47
922.305	366
922.678	335.57
923.051	270.04
923.424	335.57
923.797	312.17
924.17	270.04
924.542	370.68
924.915	305.15
925.288	389.41
925.661	368.34
926.033	333.23
926.406	403.45
926.778	291.1
927.15	305.15
927.523	326.21
927.895	309.83
928.267	312.17
928.639	326.21
929.011	295.79
929.383	342.6
929.755	260.68
930.127	330.89
930.499	309.83
930.871	370.68
931.242	333.23
931.614	342.6
931.986	307.49
932.357	284.08
932.729	328.55
933.1	305.15
933.471	347.28
933.843	333.23
934.214	387.07
934.585	288.76
934.956	328.55
935.327	293.44
935.698	370.68
936.069	312.17
936.44	286.42
936.811	321.53
937.182	270.04
937.552	323.87
937.923	302.81
938.293	323.87
938.664	316.85
939.034	337.91
939.405	277.06
939.775	307.49
940.145	300.47
940.516	333.23
940.886	326.21
941.256	309.83
941.626	337.91
941.996	307.49
942.366	351.96
942.735	351.96
943.105	279.4
943.475	387.07
943.845	319.19
944.214	263.02
944.584	267.7
944.953	361.32
945.323	316.85
945.692	274.72
946.061	321.53
946.43	291.1
946.8	356.64
947.169	291.1
947.538	274.72
947.907	330.89
948.276	321.53
948.645	312.17
949.013	349.62
949.382	358.98
949.751	354.3
950.119	312.17
950.488	288.76
950.857	344.94
951.225	302.81
951.593	305.15
951.962	363.66
952.33	333.23
952.698	323.87
953.066	335.57
953.434	267.7
953.802	286.42
954.17	295.79
954.538	323.87
954.906	319.19
955.274	328.55
955.642	337.91
956.009	328.55
956.377	291.1
956.744	293.44
957.112	340.26
957.479	284.08
957.847	316.85
958.214	274.72
958.581	298.13
958.948	312.17
959.315	368.34
959.683	253.66
960.05	246.63
960.416	277.06
960.783	293.44
961.15	321.53
961.517	330.89
961.884	349.62
962.25	263.02
962.617	284.08
962.983	335.57
963.35	307.49
963.716	307.49
964.082	340.26
964.449	396.43
964.815	366
965.181	291.1
965.547	347.28
965.913	288.76
966.279	340.26
966.645	288.76
967.011	326.21
967.377	321.53
967.742	277.06
968.108	293.44
968.474	323.87
968.839	319.19
969.205	265.36
969.57	323.87
969.935	293.44
970.301	328.55
970.666	293.44
971.031	391.75
971.396	342.6
971.761	344.94
972.126	307.49
972.491	363.66
972.856	286.42
973.221	253.66
973.586	337.91
973.95	305.15
974.315	309.83
974.679	389.41
975.044	312.17
975.408	312.17
975.773	347.28
976.137	326.21
976.501	277.06
976.866	335.57
977.23	265.36
977.594	340.26
977.958	272.38
978.322	281.74
978.686	342.6
979.049	344.94
979.413	344.94
979.777	335.57
980.141	330.89
980.504	337.91
980.868	309.83
981.231	295.79
981.595	342.6
981.958	265.36
982.321	321.53
982.684	344.94
983.048	342.6
983.411	309.83
983.774	298.13
984.137	335.57
984.5	314.51
984.862	305.15
985.225	382.39
985.588	277.06
985.951	333.23
986.313	347.28
986.676	295.79
987.038	323.87
987.401	248.97
987.763	328.55
988.125	279.4
988.488	323.87
988.85	342.6
989.212	351.96
989.574	326.21
989.936	309.83
990.298	342.6
990.66	375.36
991.022	323.87
991.383	253.66
991.745	340.26
992.107	328.55
992.468	354.3
992.83	356.64
993.191	274.72
993.553	349.62
993.914	312.17
994.275	267.7
994.637	387.07
994.998	312.17
995.359	363.66
995.72	344.94
996.081	347.28
996.442	349.62
996.803	298.13
997.163	309.83
997.524	328.55
997.885	373.02
998.245	274.72
998.606	295.79
998.966	307.49
999.327	241.95
999.687	291.1
1000.047	344.94
1000.408	305.15
1000.768	291.1
1001.128	272.38
1001.488	288.76
1001.848	319.19
1002.208	323.87
1002.568	256
1002.927	349.62
1003.287	309.83
1003.647	316.85
1004.007	309.83
1004.366	316.85
1004.726	302.81
1005.085	256
1005.444	347.28
1005.804	349.62
1006.163	272.38
1006.522	260.68
1006.881	330.89
1007.24	344.94
1007.599	316.85
1007.958	387.07
1008.317	328.55
1008.676	330.89
1009.035	333.23
1009.393	309.83
1009.752	302.81
1010.111	307.49
1010.469	288.76
1010.828	403.45
1011.186	391.75
1011.544	307.49
1011.903	309.83
1012.261	295.79
1012.619	288.76
1012.977	253.66
1013.335	342.6
1013.693	274.72
1014.051	337.91
1014.409	370.68
1014.767	321.53
1015.124	314.51
1015.482	284.08
1015.84	256
1016.197	323.87
1016.555	307.49
1016.912	361.32
1017.269	368.34
1017.627	312.17
1017.984	337.91
1018.341	333.23
1018.698	337.91
1019.055	256
1019.412	377.7
1019.769	312.17
1020.126	225.57
1020.483	358.98
1020.84	246.63
1021.196	349.62
1021.553	298.13
1021.909	433.88
1022.266	293.44
1022.622	284.08
1022.979	279.4
1023.335	380.04
1023.691	293.44
1024.047	284.08
1024.404	354.3
1024.76	314.51
1025.116	286.42
1025.472	335.57
1025.827	307.49
1026.183	351.96
1026.539	253.66
1026.895	309.83
1027.25	305.15
1027.606	347.28
1027.961	263.02
1028.317	256
1028.672	321.53
1029.028	319.19
1029.383	288.76
1029.738	284.08
1030.093	293.44
1030.448	326.21
1030.803	251.32
1031.158	305.15
1031.513	293.44
1031.868	270.04
1032.223	300.47
1032.577	380.04
1032.932	314.51
1033.287	265.36
1033.641	356.64
1033.996	330.89
1034.35	333.23
1034.704	267.7
1035.059	293.44
1035.413	302.81
1035.767	302.81
1036.121	302.81
