Data from Al_FLMS009871__1240__16-46-14-972.txt Node

Date: Fri Mar 08 16:46:14 CST 2024
User: pe5414po
Spectrometer: FLMS00987
Trigger mode: 0
Integration Time (sec): 1.000000E-1
Scans to average: 1
Electric dark correction enabled: true
Nonlinearity correction enabled: false
Boxcar width: 0
XAxis mode: Wavelengths
Number of Pixels in Spectrum: 2048
>>>>>Begin Spectral Data<<<<<
188.938	-18.14
189.409	-18.14
189.879	-18.14
190.349	-76.65
190.819	-53.25
191.29	-135.17
191.76	-71.97
192.23	-81.33
192.7	-90.7
193.17	-22.82
193.64	-90.7
194.109	19.31
194.579	-69.63
195.049	47.4
195.519	82.5
195.988	23.99
196.458	80.16
196.927	82.5
197.397	38.03
197.866	54.42
198.336	134
198.805	176.13
199.274	185.49
199.744	183.15
200.213	176.13
200.682	244
201.151	152.72
201.62	232.3
202.089	246.34
202.558	279.11
203.027	244
203.495	290.81
203.964	241.66
204.433	323.58
204.902	251.02
205.37	276.77
205.839	244
206.307	316.56
206.776	246.34
207.244	344.64
207.712	283.79
208.181	286.13
208.649	386.77
209.117	328.26
209.585	307.2
210.053	290.81
210.521	372.73
210.989	318.9
211.457	337.62
211.925	307.2
212.393	342.3
212.861	293.15
213.328	309.54
213.796	314.22
214.264	288.47
214.731	311.88
215.199	262.73
215.666	304.85
216.133	283.79
216.601	251.02
217.068	300.17
217.535	281.45
218.003	283.79
218.47	244
218.937	236.98
219.404	286.13
219.871	276.77
220.338	239.32
220.805	253.36
221.271	244
221.738	222.94
222.205	307.2
222.671	246.34
223.138	229.96
223.605	234.64
224.071	279.11
224.538	293.15
225.004	248.68
225.47	236.98
225.937	239.32
226.403	307.2
226.869	318.9
227.335	255.7
227.801	332.94
228.267	293.15
228.733	232.3
229.199	286.13
229.665	262.73
230.131	208.89
230.597	253.36
231.062	274.43
231.528	246.34
231.994	295.49
232.459	318.9
232.925	323.58
233.39	314.22
233.856	262.73
234.321	255.7
234.786	300.17
235.252	246.34
235.717	218.25
236.182	244
236.647	323.58
237.112	295.49
237.577	262.73
238.042	248.68
238.507	276.77
238.972	274.43
239.436	307.2
239.901	342.3
240.366	293.15
240.83	246.34
241.295	267.41
241.76	297.83
242.224	236.98
242.688	361.03
243.153	290.81
243.617	269.75
244.081	288.47
244.545	337.62
245.01	255.7
245.474	220.6
245.938	288.47
246.402	316.56
246.866	262.73
247.33	272.09
247.793	297.83
248.257	288.47
248.721	288.47
249.185	239.32
249.648	267.41
250.112	297.83
250.575	279.11
251.039	321.24
251.502	307.2
251.965	274.43
252.429	288.47
252.892	279.11
253.355	234.64
253.818	321.24
254.281	267.41
254.744	316.56
255.207	293.15
255.67	267.41
256.133	225.28
256.596	265.07
257.059	321.24
257.522	309.54
257.984	251.02
258.447	281.45
258.909	290.81
259.372	276.77
259.834	267.41
260.297	288.47
260.759	258.04
261.221	234.64
261.684	325.92
262.146	246.34
262.608	274.43
263.07	307.2
263.532	323.58
263.994	302.51
264.456	351.67
264.918	281.45
265.38	269.75
265.842	288.47
266.303	262.73
266.765	307.2
267.227	318.9
267.688	307.2
268.15	293.15
268.611	276.77
269.072	307.2
269.534	342.3
269.995	302.51
270.456	290.81
270.918	307.2
271.379	293.15
271.84	307.2
272.301	337.62
272.762	295.49
273.223	297.83
273.684	272.09
274.144	297.83
274.605	314.22
275.066	265.07
275.527	321.24
275.987	229.96
276.448	316.56
276.908	288.47
277.369	262.73
277.829	300.17
278.289	330.6
278.75	283.79
279.21	241.66
279.67	300.17
280.13	318.9
280.59	309.54
281.05	258.04
281.51	316.56
281.97	281.45
282.43	290.81
282.89	318.9
283.35	251.02
283.809	279.11
284.269	267.41
284.729	267.41
285.188	258.04
285.648	283.79
286.107	354.01
286.567	265.07
287.026	293.15
287.485	311.88
287.944	346.98
288.404	302.51
288.863	342.3
289.322	281.45
289.781	295.49
290.24	351.67
290.699	375.07
291.158	293.15
291.616	262.73
292.075	297.83
292.534	349.32
292.992	262.73
293.451	328.26
293.91	328.26
294.368	330.6
294.827	286.13
295.285	342.3
295.743	346.98
296.202	267.41
296.66	300.17
297.118	288.47
297.576	302.51
298.034	267.41
298.492	260.38
298.95	244
299.408	288.47
299.866	337.62
300.324	260.38
300.781	307.2
301.239	300.17
301.697	255.7
302.154	309.54
302.612	344.64
303.069	316.56
303.527	337.62
303.984	267.41
304.441	286.13
304.899	339.96
305.356	339.96
305.813	229.96
306.27	260.38
306.727	302.51
307.184	290.81
307.641	318.9
308.098	349.32
308.555	372.73
309.012	295.49
309.468	295.49
309.925	262.73
310.382	281.45
310.838	307.2
311.295	307.2
311.751	311.88
312.208	328.26
312.664	300.17
313.12	302.51
313.577	316.56
314.033	332.94
314.489	295.49
314.945	239.32
315.401	300.17
315.857	354.01
316.313	386.77
316.769	335.28
317.225	265.07
317.681	300.17
318.136	279.11
318.592	300.17
319.048	311.88
319.503	328.26
319.959	281.45
320.414	302.51
320.869	239.32
321.325	337.62
321.78	332.94
322.235	309.54
322.691	253.36
323.146	260.38
323.601	365.71
324.056	293.15
324.511	272.09
324.966	295.49
325.421	255.7
325.875	351.67
326.33	290.81
326.785	272.09
327.24	330.6
327.694	295.49
328.149	335.28
328.603	314.22
329.058	286.13
329.512	346.98
329.966	288.47
330.421	316.56
330.875	321.24
331.329	344.64
331.783	337.62
332.237	321.24
332.691	344.64
333.145	286.13
333.599	297.83
334.053	351.67
334.507	356.35
334.96	311.88
335.414	382.09
335.868	302.51
336.321	321.24
336.775	286.13
337.228	318.9
337.682	311.88
338.135	300.17
338.588	346.98
339.042	316.56
339.495	272.09
339.948	295.49
340.401	286.13
340.854	304.85
341.307	335.28
341.76	309.54
342.213	307.2
342.666	363.37
343.119	377.41
343.571	330.6
344.024	323.58
344.477	311.88
344.929	255.7
345.382	314.22
345.834	342.3
346.287	316.56
346.739	342.3
347.191	342.3
347.644	269.75
348.096	255.7
348.548	251.02
349	274.43
349.452	251.02
349.904	321.24
350.356	342.3
350.808	396.14
351.26	314.22
351.711	283.79
352.163	286.13
352.615	335.28
353.066	314.22
353.518	349.32
353.969	323.58
354.421	297.83
354.872	297.83
355.324	251.02
355.775	356.35
356.226	349.32
356.677	307.2
357.128	288.47
357.579	297.83
358.03	300.17
358.481	332.94
358.932	330.6
359.383	293.15
359.834	358.69
360.285	318.9
360.735	302.51
361.186	281.45
361.637	309.54
362.087	328.26
362.538	351.67
362.988	318.9
363.438	309.54
363.889	304.85
364.339	323.58
364.789	321.24
365.239	239.32
365.689	356.35
366.139	396.14
366.589	222.94
367.039	300.17
367.489	283.79
367.939	318.9
368.389	361.03
368.839	349.32
369.288	323.58
369.738	346.98
370.187	332.94
370.637	307.2
371.086	304.85
371.536	297.83
371.985	267.41
372.434	274.43
372.884	325.92
373.333	297.83
373.782	344.64
374.231	339.96
374.68	342.3
375.129	372.73
375.578	255.7
376.027	288.47
376.475	332.94
376.924	354.01
377.373	372.73
377.822	356.35
378.27	339.96
378.719	307.2
379.167	283.79
379.616	330.6
380.064	318.9
380.512	342.3
380.961	330.6
381.409	398.48
381.857	295.49
382.305	300.17
382.753	344.64
383.201	267.41
383.649	386.77
384.097	293.15
384.545	332.94
384.992	288.47
385.44	372.73
385.888	295.49
386.335	323.58
386.783	293.15
387.231	344.64
387.678	293.15
388.125	246.34
388.573	325.92
389.02	295.49
389.467	269.75
389.914	356.35
390.362	318.9
390.809	325.92
391.256	293.15
391.703	325.92
392.15	332.94
392.596	323.58
393.043	260.38
393.49	389.11
393.937	349.32
394.383	241.66
394.83	311.88
395.276	339.96
395.723	363.37
396.169	267.41
396.616	330.6
397.062	332.94
397.508	262.73
397.954	325.92
398.401	279.11
398.847	337.62
399.293	311.88
399.739	318.9
400.185	368.05
400.631	316.56
401.076	304.85
401.522	337.62
401.968	332.94
402.414	337.62
402.859	279.11
403.305	344.64
403.75	337.62
404.196	363.37
404.641	272.09
405.086	288.47
405.532	363.37
405.977	337.62
406.422	307.2
406.867	351.67
407.312	368.05
407.757	339.96
408.202	332.94
408.647	316.56
409.092	302.51
409.537	328.26
409.982	323.58
410.426	321.24
410.871	302.51
411.316	342.3
411.76	295.49
412.205	349.32
412.649	309.54
413.093	351.67
413.538	400.82
413.982	307.2
414.426	337.62
414.87	290.81
415.314	325.92
415.758	297.83
416.202	354.01
416.646	332.94
417.09	323.58
417.534	349.32
417.978	297.83
418.421	293.15
418.865	279.11
419.309	255.7
419.752	304.85
420.196	232.3
420.639	379.75
421.083	354.01
421.526	356.35
421.969	335.28
422.412	321.24
422.856	344.64
423.299	368.05
423.742	290.81
424.185	293.15
424.628	272.09
425.071	307.2
425.513	290.81
425.956	328.26
426.399	304.85
426.842	286.13
427.284	330.6
427.727	304.85
428.169	300.17
428.612	321.24
429.054	321.24
429.497	281.45
429.939	363.37
430.381	365.71
430.823	304.85
431.265	346.98
431.707	314.22
432.149	330.6
432.591	309.54
433.033	302.51
433.475	323.58
433.917	339.96
434.359	435.92
434.8	375.07
435.242	407.84
435.684	354.01
436.125	361.03
436.567	302.51
437.008	276.77
437.449	297.83
437.891	339.96
438.332	288.47
438.773	346.98
439.214	363.37
439.656	283.79
440.097	314.22
440.538	349.32
440.978	328.26
441.419	368.05
441.86	356.35
442.301	316.56
442.742	290.81
443.182	281.45
443.623	286.13
444.063	262.73
444.504	358.69
444.944	290.81
445.385	361.03
445.825	321.24
446.265	262.73
446.706	323.58
447.146	323.58
447.586	288.47
448.026	398.48
448.466	412.52
448.906	283.79
449.346	321.24
449.786	293.15
450.225	302.51
450.665	314.22
451.105	318.9
451.544	342.3
451.984	290.81
452.424	342.3
452.863	344.64
453.302	286.13
453.742	297.83
454.181	332.94
454.62	349.32
455.059	358.69
455.499	344.64
455.938	297.83
456.377	354.01
456.816	272.09
457.254	309.54
457.693	354.01
458.132	274.43
458.571	293.15
459.01	300.17
459.448	342.3
459.887	213.57
460.325	281.45
460.764	323.58
461.202	300.17
461.641	349.32
462.079	321.24
462.517	323.58
462.955	283.79
463.393	361.03
463.832	276.77
464.27	346.98
464.708	349.32
465.145	323.58
465.583	368.05
466.021	246.34
466.459	281.45
466.897	328.26
467.334	307.2
467.772	361.03
468.209	276.77
468.647	346.98
469.084	300.17
469.522	349.32
469.959	297.83
470.396	316.56
470.833	328.26
471.271	332.94
471.708	290.81
472.145	302.51
472.582	269.75
473.019	300.17
473.456	363.37
473.892	332.94
474.329	290.81
474.766	288.47
475.202	314.22
475.639	382.09
476.076	330.6
476.512	295.49
476.949	265.07
477.385	386.77
477.821	321.24
478.258	346.98
478.694	321.24
479.13	468.69
479.566	309.54
480.002	234.64
480.438	323.58
480.874	323.58
481.31	346.98
481.746	295.49
482.181	295.49
482.617	297.83
483.053	321.24
483.488	361.03
483.924	363.37
484.36	335.28
484.795	279.11
485.23	328.26
485.666	368.05
486.101	363.37
486.536	330.6
486.971	269.75
487.407	309.54
487.842	342.3
488.277	269.75
488.712	379.75
489.146	279.11
489.581	342.3
490.016	321.24
490.451	321.24
490.885	325.92
491.32	316.56
491.755	354.01
492.189	365.71
492.624	300.17
493.058	372.73
493.492	354.01
493.927	377.41
494.361	332.94
494.795	300.17
495.229	330.6
495.663	279.11
496.097	370.39
496.531	293.15
496.965	318.9
497.399	309.54
497.833	335.28
498.266	349.32
498.7	295.49
499.134	276.77
499.567	300.17
500.001	330.6
500.434	342.3
500.868	274.43
501.301	236.98
501.734	300.17
502.168	318.9
502.601	344.64
503.034	356.35
503.467	323.58
503.9	304.85
504.333	318.9
504.766	269.75
505.199	295.49
505.632	283.79
506.064	335.28
506.497	365.71
506.93	339.96
507.362	302.51
507.795	323.58
508.227	283.79
508.66	304.85
509.092	323.58
509.524	300.17
509.956	316.56
510.389	351.67
510.821	354.01
511.253	311.88
511.685	304.85
512.117	302.51
512.549	288.47
512.981	274.43
513.412	267.41
513.844	288.47
514.276	295.49
514.707	260.38
515.139	323.58
515.571	372.73
516.002	386.77
516.433	316.56
516.865	339.96
517.296	358.69
517.727	288.47
518.159	356.35
518.59	297.83
519.021	361.03
519.452	342.3
519.883	325.92
520.314	318.9
520.744	330.6
521.175	344.64
521.606	377.41
522.037	330.6
522.467	328.26
522.898	253.36
523.328	344.64
523.759	365.71
524.189	342.3
524.62	295.49
525.05	351.67
525.48	377.41
525.91	276.77
526.341	368.05
526.771	307.2
527.201	260.38
527.631	314.22
528.061	255.7
528.49	332.94
528.92	339.96
529.35	297.83
529.78	274.43
530.209	309.54
530.639	297.83
531.068	342.3
531.498	251.02
531.927	356.35
532.357	351.67
532.786	283.79
533.215	335.28
533.644	293.15
534.074	370.39
534.503	330.6
534.932	346.98
535.361	372.73
535.79	309.54
536.218	349.32
536.647	342.3
537.076	318.9
537.505	311.88
537.933	239.32
538.362	318.9
538.79	302.51
539.219	337.62
539.647	314.22
540.076	335.28
540.504	309.54
540.932	318.9
541.36	328.26
541.788	325.92
542.217	321.24
542.645	272.09
543.073	272.09
543.5	346.98
543.928	349.32
544.356	389.11
544.784	286.13
545.211	323.58
545.639	323.58
546.067	332.94
546.494	297.83
546.922	316.56
547.349	269.75
547.776	269.75
548.204	279.11
548.631	293.15
549.058	339.96
549.485	330.6
549.912	316.56
550.339	330.6
550.766	290.81
551.193	318.9
551.62	314.22
552.047	269.75
552.474	356.35
552.9	295.49
553.327	304.85
553.754	311.88
554.18	377.41
554.607	309.54
555.033	288.47
555.459	325.92
555.886	314.22
556.312	342.3
556.738	361.03
557.164	325.92
557.59	344.64
558.016	349.32
558.442	302.51
558.868	283.79
559.294	358.69
559.72	307.2
560.145	286.13
560.571	309.54
560.997	328.26
561.422	375.07
561.848	316.56
562.273	335.28
562.699	332.94
563.124	314.22
563.549	328.26
563.974	265.07
564.4	377.41
564.825	377.41
565.25	302.51
565.675	314.22
566.1	342.3
566.525	314.22
566.95	248.68
567.374	309.54
567.799	274.43
568.224	293.15
568.648	335.28
569.073	386.77
569.497	356.35
569.922	304.85
570.346	309.54
570.771	396.14
571.195	272.09
571.619	393.8
572.043	293.15
572.467	267.41
572.891	328.26
573.315	328.26
573.739	272.09
574.163	276.77
574.587	344.64
575.011	300.17
575.435	346.98
575.858	337.62
576.282	325.92
576.705	311.88
577.129	328.26
577.552	356.35
577.976	309.54
578.399	307.2
578.822	295.49
579.245	361.03
579.669	276.77
580.092	239.32
580.515	302.51
580.938	307.2
581.361	325.92
581.784	349.32
582.206	288.47
582.629	332.94
583.052	274.43
583.474	293.15
583.897	272.09
584.32	297.83
584.742	302.51
585.165	300.17
585.587	346.98
586.009	342.3
586.431	344.64
586.854	318.9
587.276	332.94
587.698	393.8
588.12	265.07
588.542	265.07
588.964	314.22
589.386	325.92
589.807	337.62
590.229	361.03
590.651	332.94
591.073	288.47
591.494	363.37
591.916	361.03
592.337	269.75
592.759	302.51
593.18	321.24
593.601	330.6
594.022	344.64
594.444	307.2
594.865	318.9
595.286	393.8
595.707	318.9
596.128	344.64
596.549	325.92
596.97	281.45
597.39	323.58
597.811	337.62
598.232	368.05
598.652	321.24
599.073	323.58
599.494	279.11
599.914	286.13
600.334	328.26
600.755	323.58
601.175	335.28
601.595	354.01
602.015	283.79
602.436	318.9
602.856	452.31
603.276	330.6
603.696	321.24
604.115	332.94
604.535	290.81
604.955	318.9
605.375	281.45
605.794	281.45
606.214	297.83
606.634	248.68
607.053	318.9
607.473	323.58
607.892	375.07
608.311	339.96
608.731	358.69
609.15	346.98
609.569	349.32
609.988	276.77
610.407	332.94
610.826	337.62
611.245	337.62
611.664	300.17
612.083	293.15
612.501	297.83
612.92	220.6
613.339	300.17
613.757	361.03
614.176	295.49
614.594	339.96
615.013	344.64
615.431	328.26
615.85	330.6
616.268	344.64
616.686	398.48
617.104	358.69
617.522	323.58
617.94	318.9
618.358	316.56
618.776	325.92
619.194	318.9
619.612	386.77
620.03	379.75
620.447	358.69
620.865	302.51
621.282	286.13
621.7	253.36
622.117	321.24
622.535	342.3
622.952	332.94
623.369	335.28
623.787	276.77
624.204	276.77
624.621	293.15
625.038	316.56
625.455	325.92
625.872	339.96
626.289	325.92
626.706	379.75
627.123	293.15
627.539	311.88
627.956	370.39
628.373	316.56
628.789	274.43
629.206	342.3
629.622	323.58
630.038	307.2
630.455	297.83
630.871	295.49
631.287	354.01
631.703	363.37
632.12	349.32
632.536	339.96
632.952	335.28
633.368	335.28
633.783	302.51
634.199	332.94
634.615	361.03
635.031	344.64
635.446	344.64
635.862	295.49
636.277	428.9
636.693	368.05
637.108	316.56
637.524	311.88
637.939	269.75
638.354	279.11
638.77	398.48
639.185	255.7
639.6	295.49
640.015	335.28
640.43	344.64
640.845	335.28
641.259	290.81
641.674	274.43
642.089	279.11
642.504	368.05
642.918	251.02
643.333	314.22
643.747	342.3
644.162	302.51
644.576	342.3
644.991	335.28
645.405	307.2
645.819	339.96
646.233	332.94
646.647	283.79
647.061	321.24
647.475	316.56
647.889	272.09
648.303	255.7
648.717	379.75
649.131	361.03
649.545	321.24
649.958	304.85
650.372	375.07
650.785	302.51
651.199	288.47
651.612	314.22
652.026	311.88
652.439	286.13
652.852	272.09
653.266	293.15
653.679	307.2
654.092	267.41
654.505	302.51
654.918	309.54
655.331	267.41
655.744	265.07
656.156	307.2
656.569	361.03
656.982	323.58
657.394	279.11
657.807	323.58
658.22	311.88
658.632	372.73
659.044	335.28
659.457	283.79
659.869	391.45
660.281	314.22
660.693	368.05
661.106	288.47
661.518	304.85
661.93	283.79
662.342	354.01
662.754	314.22
663.165	293.15
663.577	325.92
663.989	309.54
664.401	400.82
664.812	363.37
665.224	365.71
665.635	316.56
666.047	337.62
666.458	335.28
666.869	288.47
667.281	346.98
667.692	297.83
668.103	314.22
668.514	269.75
668.925	307.2
669.336	323.58
669.747	316.56
670.158	344.64
670.569	297.83
670.979	279.11
671.39	297.83
671.801	260.38
672.211	279.11
672.622	297.83
673.032	321.24
673.443	265.07
673.853	354.01
674.263	307.2
674.674	288.47
675.084	290.81
675.494	337.62
675.904	344.64
676.314	307.2
676.724	297.83
677.134	332.94
677.544	375.07
677.953	269.75
678.363	363.37
678.773	382.09
679.182	344.64
679.592	332.94
680.001	344.64
680.411	335.28
680.82	288.47
681.23	279.11
681.639	335.28
682.048	339.96
682.457	293.15
682.866	335.28
683.275	302.51
683.684	339.96
684.093	290.81
684.502	272.09
684.911	260.38
685.32	253.36
685.728	337.62
686.137	426.56
686.546	318.9
686.954	307.2
687.363	276.77
687.771	318.9
688.179	382.09
688.588	361.03
688.996	316.56
689.404	288.47
689.812	276.77
690.22	297.83
690.628	344.64
691.036	302.51
691.444	368.05
691.852	372.73
692.26	419.54
692.667	307.2
693.075	337.62
693.483	314.22
693.89	349.32
694.298	335.28
694.705	325.92
695.112	323.58
695.52	363.37
695.927	225.28
696.334	288.47
696.741	316.56
697.148	316.56
697.555	363.37
697.962	328.26
698.369	307.2
698.776	307.2
699.183	297.83
699.59	288.47
699.996	309.54
700.403	330.6
700.81	307.2
701.216	330.6
701.623	283.79
702.029	300.17
702.435	342.3
702.842	293.15
703.248	318.9
703.654	295.49
704.06	281.45
704.466	344.64
704.872	375.07
705.278	332.94
705.684	307.2
706.09	328.26
706.496	279.11
706.901	262.73
707.307	363.37
707.712	316.56
708.118	262.73
708.523	251.02
708.929	328.26
709.334	339.96
709.74	288.47
710.145	304.85
710.55	288.47
710.955	300.17
711.36	337.62
711.765	363.37
712.17	307.2
712.575	363.37
712.98	894.67
713.385	393.8
713.789	302.51
714.194	265.07
714.599	288.47
715.003	335.28
715.408	323.58
715.812	318.9
716.217	318.9
716.621	382.09
717.025	344.64
717.429	354.01
717.833	281.45
718.238	286.13
718.642	297.83
719.046	302.51
719.449	358.69
719.853	318.9
720.257	311.88
720.661	344.64
721.065	337.62
721.468	272.09
721.872	314.22
722.275	318.9
722.679	339.96
723.082	328.26
723.485	365.71
723.889	339.96
724.292	318.9
724.695	272.09
725.098	356.35
725.501	314.22
725.904	281.45
726.307	309.54
726.71	300.17
727.113	314.22
727.516	307.2
727.918	304.85
728.321	290.81
728.724	375.07
729.126	232.3
729.529	302.51
729.931	335.28
730.333	361.03
730.736	323.58
731.138	316.56
731.54	314.22
731.942	265.07
732.344	325.92
732.746	344.64
733.148	344.64
733.55	307.2
733.952	314.22
734.354	265.07
734.756	279.11
735.157	325.92
735.559	293.15
735.96	358.69
736.362	346.98
736.763	311.88
737.165	302.51
737.566	272.09
737.967	379.75
738.368	342.3
738.77	309.54
739.171	342.3
739.572	346.98
739.973	325.92
740.374	325.92
740.774	328.26
741.175	335.28
741.576	239.32
741.977	349.32
742.377	335.28
742.778	295.49
743.178	302.51
743.579	325.92
743.979	332.94
744.379	382.09
744.78	321.24
745.18	309.54
745.58	316.56
745.98	297.83
746.38	325.92
746.78	346.98
747.18	290.81
747.58	354.01
747.98	325.92
748.38	246.34
748.779	309.54
749.179	295.49
749.578	344.64
749.978	344.64
750.377	286.13
750.777	276.77
751.176	344.64
751.575	288.47
751.975	269.75
752.374	288.47
752.773	260.38
753.172	339.96
753.571	274.43
753.97	311.88
754.369	279.11
754.768	311.88
755.166	281.45
755.565	356.35
755.964	318.9
756.362	354.01
756.761	328.26
757.159	286.13
757.558	318.9
757.956	286.13
758.354	368.05
758.753	318.9
759.151	344.64
759.549	304.85
759.947	316.56
760.345	361.03
760.743	314.22
761.141	325.92
761.539	279.11
761.936	321.24
762.334	396.14
762.732	302.51
763.129	283.79
763.527	344.64
763.924	314.22
764.322	337.62
764.719	389.11
765.117	356.35
765.514	363.37
765.911	330.6
766.308	337.62
766.705	283.79
767.102	290.81
767.499	316.56
767.896	295.49
768.293	281.45
768.69	290.81
769.086	304.85
769.483	325.92
769.88	335.28
770.276	323.58
770.673	356.35
771.069	302.51
771.466	330.6
771.862	288.47
772.258	302.51
772.654	290.81
773.05	332.94
773.447	304.85
773.843	339.96
774.239	309.54
774.634	318.9
775.03	354.01
775.426	339.96
775.822	286.13
776.218	328.26
776.613	328.26
777.009	288.47
777.404	356.35
777.8	325.92
778.195	318.9
778.59	318.9
778.986	354.01
779.381	328.26
779.776	321.24
780.171	346.98
780.566	300.17
780.961	325.92
781.356	323.58
781.751	304.85
782.146	309.54
782.54	267.41
782.935	283.79
783.33	321.24
783.724	293.15
784.119	323.58
784.513	339.96
784.908	375.07
785.302	342.3
785.696	323.58
786.09	279.11
786.485	337.62
786.879	337.62
787.273	391.45
787.667	335.28
788.061	335.28
788.454	286.13
788.848	365.71
789.242	382.09
789.636	311.88
790.029	330.6
790.423	321.24
790.816	346.98
791.21	297.83
791.603	337.62
791.997	276.77
792.39	337.62
792.783	281.45
793.176	325.92
793.569	342.3
793.962	288.47
794.355	346.98
794.748	290.81
795.141	377.41
795.534	293.15
795.927	307.2
796.319	328.26
796.712	309.54
797.105	286.13
797.497	309.54
797.89	307.2
798.282	346.98
798.674	361.03
799.067	302.51
799.459	314.22
799.851	339.96
800.243	276.77
800.635	274.43
801.027	281.45
801.419	363.37
801.811	248.68
802.203	293.15
802.594	346.98
802.986	328.26
803.378	311.88
803.769	293.15
804.161	276.77
804.552	300.17
804.944	295.49
805.335	304.85
805.726	248.68
806.118	251.02
806.509	290.81
806.9	293.15
807.291	330.6
807.682	302.51
808.073	302.51
808.464	318.9
808.855	346.98
809.245	309.54
809.636	351.67
810.027	361.03
810.417	328.26
810.808	267.41
811.198	309.54
811.589	311.88
811.979	297.83
812.369	276.77
812.759	274.43
813.15	332.94
813.54	309.54
813.93	307.2
814.32	302.51
814.71	351.67
815.1	330.6
815.489	300.17
815.879	302.51
816.269	295.49
816.658	316.56
817.048	323.58
817.438	370.39
817.827	286.13
818.216	265.07
818.606	330.6
818.995	382.09
819.384	279.11
819.773	293.15
820.163	361.03
820.552	304.85
820.941	302.51
821.33	316.56
821.718	295.49
822.107	311.88
822.496	339.96
822.885	365.71
823.273	330.6
823.662	311.88
824.05	304.85
824.439	318.9
824.827	253.36
825.216	290.81
825.604	337.62
825.992	260.38
826.38	304.85
826.768	290.81
827.156	318.9
827.544	314.22
827.932	311.88
828.32	316.56
828.708	323.58
829.096	304.85
829.483	288.47
829.871	332.94
830.259	316.56
830.646	269.75
831.034	311.88
831.421	311.88
831.808	269.75
832.196	307.2
832.583	321.24
832.97	332.94
833.357	323.58
833.744	321.24
834.131	297.83
834.518	281.45
834.905	311.88
835.292	241.66
835.678	309.54
836.065	344.64
836.452	332.94
836.838	309.54
837.225	297.83
837.611	253.36
837.998	279.11
838.384	325.92
838.77	314.22
839.157	297.83
839.543	337.62
839.929	302.51
840.315	325.92
840.701	368.05
841.087	325.92
841.473	286.13
841.858	332.94
842.244	325.92
842.63	351.67
843.015	283.79
843.401	606.78
843.787	269.75
844.172	297.83
844.557	321.24
844.943	276.77
845.328	297.83
845.713	316.56
846.098	330.6
846.483	318.9
846.868	279.11
847.253	330.6
847.638	316.56
848.023	272.09
848.408	318.9
848.793	279.11
849.177	370.39
849.562	349.32
849.947	342.3
850.331	337.62
850.715	354.01
851.1	363.37
851.484	262.73
851.868	400.82
852.253	286.13
852.637	302.51
853.021	293.15
853.405	314.22
853.789	279.11
854.173	246.34
854.557	281.45
854.94	281.45
855.324	335.28
855.708	279.11
856.091	375.07
856.475	300.17
856.858	314.22
857.242	297.83
857.625	339.96
858.009	276.77
858.392	314.22
858.775	283.79
859.158	321.24
859.541	332.94
859.924	288.47
860.307	354.01
860.69	314.22
861.073	304.85
861.456	368.05
861.838	325.92
862.221	330.6
862.604	297.83
862.986	349.32
863.369	375.07
863.751	265.07
864.133	346.98
864.516	288.47
864.898	328.26
865.28	323.58
865.662	244
866.044	304.85
866.426	241.66
866.808	351.67
867.19	269.75
867.572	318.9
867.954	316.56
868.336	339.96
868.717	311.88
869.099	269.75
869.48	361.03
869.862	349.32
870.243	314.22
870.625	356.35
871.006	321.24
871.387	265.07
871.768	295.49
872.149	283.79
872.53	248.68
872.911	318.9
873.292	304.85
873.673	339.96
874.054	281.45
874.435	349.32
874.815	332.94
875.196	283.79
875.577	295.49
875.957	309.54
876.338	258.04
876.718	293.15
877.098	295.49
877.479	288.47
877.859	281.45
878.239	335.28
878.619	323.58
878.999	311.88
879.379	316.56
879.759	272.09
880.139	330.6
880.519	325.92
880.898	356.35
881.278	339.96
881.658	290.81
882.037	300.17
882.417	316.56
882.796	328.26
883.176	290.81
883.555	314.22
883.934	337.62
884.313	339.96
884.693	272.09
885.072	281.45
885.451	330.6
885.83	276.77
886.209	267.41
886.587	332.94
886.966	323.58
887.345	332.94
887.724	344.64
888.102	349.32
888.481	307.2
888.859	316.56
889.238	335.28
889.616	297.83
889.994	300.17
890.373	344.64
890.751	339.96
891.129	316.56
891.507	297.83
891.885	351.67
892.263	307.2
892.641	323.58
893.019	349.32
893.396	316.56
893.774	335.28
894.152	283.79
894.529	283.79
894.907	272.09
895.284	325.92
895.662	288.47
896.039	276.77
896.416	300.17
896.794	286.13
897.171	307.2
897.548	274.43
897.925	297.83
898.302	272.09
898.679	288.47
899.056	283.79
899.433	384.43
899.809	288.47
900.186	309.54
900.563	260.38
900.939	323.58
901.316	337.62
901.692	354.01
902.069	351.67
902.445	335.28
902.821	302.51
903.197	346.98
903.574	311.88
903.95	283.79
904.326	330.6
904.702	309.54
905.078	314.22
905.454	332.94
905.829	323.58
906.205	276.77
906.581	318.9
906.956	358.69
907.332	321.24
907.707	354.01
908.083	316.56
908.458	332.94
908.833	290.81
909.209	342.3
909.584	316.56
909.959	344.64
910.334	354.01
910.709	346.98
911.084	330.6
911.459	377.41
911.834	283.79
912.209	316.56
912.583	286.13
912.958	314.22
913.333	300.17
913.707	356.35
914.082	339.96
914.456	307.2
914.83	377.41
915.205	281.45
915.579	300.17
915.953	356.35
916.327	302.51
916.701	253.36
917.075	281.45
917.449	258.04
917.823	295.49
918.197	309.54
918.571	267.41
918.944	309.54
919.318	302.51
919.692	283.79
920.065	332.94
920.438	302.51
920.812	281.45
921.185	300.17
921.558	290.81
921.932	302.51
922.305	262.73
922.678	290.81
923.051	248.68
923.424	342.3
923.797	337.62
924.17	304.85
924.542	370.39
924.915	316.56
925.288	316.56
925.661	384.43
926.033	330.6
926.406	382.09
926.778	288.47
927.15	330.6
927.523	332.94
927.895	281.45
928.267	274.43
928.639	316.56
929.011	276.77
929.383	339.96
929.755	323.58
930.127	314.22
930.499	269.75
930.871	251.02
931.242	272.09
931.614	311.88
931.986	288.47
932.357	297.83
932.729	297.83
933.1	272.09
933.471	295.49
933.843	274.43
934.214	321.24
934.585	288.47
934.956	328.26
935.327	288.47
935.698	342.3
936.069	318.9
936.44	251.02
936.811	276.77
937.182	311.88
937.552	279.11
937.923	351.67
938.293	307.2
938.664	283.79
939.034	304.85
939.405	321.24
939.775	274.43
940.145	279.11
940.516	309.54
940.886	255.7
941.256	384.43
941.626	314.22
941.996	358.69
942.366	342.3
942.735	332.94
943.105	342.3
943.475	321.24
943.845	276.77
944.214	325.92
944.584	316.56
944.953	335.28
945.323	286.13
945.692	297.83
946.061	297.83
946.43	339.96
946.8	330.6
947.169	288.47
947.538	311.88
947.907	260.38
948.276	379.75
948.645	323.58
949.013	354.01
949.382	346.98
949.751	302.51
950.119	316.56
950.488	330.6
950.857	344.64
951.225	337.62
951.593	365.71
951.962	260.38
952.33	286.13
952.698	283.79
953.066	361.03
953.434	286.13
953.802	316.56
954.17	297.83
954.538	309.54
954.906	265.07
955.274	297.83
955.642	335.28
956.009	218.25
956.377	332.94
956.744	318.9
957.112	335.28
957.479	349.32
957.847	290.81
958.214	344.64
958.581	314.22
958.948	339.96
959.315	346.98
959.683	258.04
960.05	297.83
960.416	293.15
960.783	286.13
961.15	323.58
961.517	325.92
961.884	236.98
962.25	323.58
962.617	330.6
962.983	265.07
963.35	335.28
963.716	328.26
964.082	325.92
964.449	379.75
964.815	309.54
965.181	349.32
965.547	337.62
965.913	325.92
966.279	335.28
966.645	290.81
967.011	332.94
967.377	300.17
967.742	297.83
968.108	302.51
968.474	267.41
968.839	297.83
969.205	342.3
969.57	368.05
969.935	281.45
970.301	316.56
970.666	255.7
971.031	279.11
971.396	398.48
971.761	248.68
972.126	311.88
972.491	258.04
972.856	307.2
973.221	302.51
973.586	311.88
973.95	309.54
974.315	293.15
974.679	288.47
975.044	276.77
975.408	290.81
975.773	318.9
976.137	272.09
976.501	339.96
976.866	269.75
977.23	290.81
977.594	253.36
977.958	328.26
978.322	267.41
978.686	316.56
979.049	290.81
979.413	332.94
979.777	328.26
980.141	265.07
980.504	325.92
980.868	304.85
981.231	297.83
981.595	262.73
981.958	281.45
982.321	335.28
982.684	311.88
983.048	302.51
983.411	314.22
983.774	272.09
984.137	274.43
984.5	323.58
984.862	281.45
985.225	279.11
985.588	276.77
985.951	328.26
986.313	321.24
986.676	346.98
987.038	325.92
987.401	251.02
987.763	318.9
988.125	314.22
988.488	258.04
988.85	265.07
989.212	424.22
989.574	290.81
989.936	302.51
990.298	260.38
990.66	332.94
991.022	286.13
991.383	295.49
991.745	304.85
992.107	297.83
992.468	335.28
992.83	297.83
993.191	293.15
993.553	316.56
993.914	307.2
994.275	311.88
994.637	349.32
994.998	318.9
995.359	302.51
995.72	288.47
996.081	295.49
996.442	332.94
996.803	248.68
997.163	272.09
997.524	274.43
997.885	354.01
998.245	302.51
998.606	274.43
998.966	281.45
999.327	286.13
999.687	260.38
1000.047	314.22
1000.408	267.41
1000.768	323.58
1001.128	302.51
1001.488	297.83
1001.848	307.2
1002.208	297.83
1002.568	349.32
1002.927	290.81
1003.287	344.64
1003.647	461.67
1004.007	349.32
1004.366	272.09
1004.726	323.58
1005.085	218.25
1005.444	421.88
1005.804	286.13
1006.163	342.3
1006.522	241.66
1006.881	318.9
1007.24	365.71
1007.599	311.88
1007.958	265.07
1008.317	307.2
1008.676	248.68
1009.035	328.26
1009.393	295.49
1009.752	286.13
1010.111	293.15
1010.469	339.96
1010.828	365.71
1011.186	279.11
1011.544	344.64
1011.903	286.13
1012.261	300.17
1012.619	337.62
1012.977	344.64
1013.335	288.47
1013.693	241.66
1014.051	318.9
1014.409	272.09
1014.767	311.88
1015.124	368.05
1015.482	265.07
1015.84	314.22
1016.197	337.62
1016.555	262.73
1016.912	295.49
1017.269	332.94
1017.627	288.47
1017.984	295.49
1018.341	346.98
1018.698	311.88
1019.055	321.24
1019.412	293.15
1019.769	339.96
1020.126	309.54
1020.483	403.16
1020.84	276.77
1021.196	300.17
1021.553	262.73
1021.909	346.98
1022.266	328.26
1022.622	321.24
1022.979	351.67
1023.335	332.94
1023.691	328.26
1024.047	286.13
1024.404	351.67
1024.76	260.38
1025.116	293.15
1025.472	300.17
1025.827	344.64
1026.183	302.51
1026.539	265.07
1026.895	290.81
1027.25	370.39
1027.606	316.56
1027.961	314.22
1028.317	332.94
1028.672	309.54
1029.028	335.28
1029.383	288.47
1029.738	274.43
1030.093	335.28
1030.448	370.39
1030.803	321.24
1031.158	255.7
1031.513	304.85
1031.868	260.38
1032.223	288.47
1032.577	328.26
1032.932	290.81
1033.287	274.43
1033.641	372.73
1033.996	363.37
1034.35	314.22
1034.704	318.9
1035.059	262.73
1035.413	321.24
1035.767	321.24
1036.121	321.24
