Data from Al_FLMS009871__657__15-00-36-496.txt Node

Date: Fri Mar 08 15:00:36 CST 2024
User: pe5414po
Spectrometer: FLMS00987
Trigger mode: 0
Integration Time (sec): 1.000000E-1
Scans to average: 1
Electric dark correction enabled: true
Nonlinearity correction enabled: false
Boxcar width: 0
XAxis mode: Wavelengths
Number of Pixels in Spectrum: 2048
>>>>>Begin Spectral Data<<<<<
188.938	-91.13
189.409	-91.13
189.879	-91.13
190.349	-67.73
190.819	-100.5
191.29	-98.16
191.76	-149.65
192.23	-142.63
192.7	-86.45
193.17	-46.66
193.64	-30.28
194.109	28.23
194.579	-11.56
195.049	44.62
195.519	9.51
195.988	16.53
196.458	61
196.927	96.11
197.397	105.47
197.866	65.68
198.336	138.24
198.805	91.43
199.274	89.09
199.744	121.85
200.213	154.62
200.682	171.01
201.151	175.69
201.62	175.69
202.089	224.84
202.558	142.92
203.027	220.16
203.495	175.69
203.964	203.77
204.433	215.48
204.902	215.48
205.37	297.39
205.839	241.22
206.307	213.14
206.776	304.42
207.244	266.97
207.712	245.9
208.181	255.26
208.649	245.9
209.117	264.63
209.585	283.35
210.053	318.46
210.521	266.97
210.989	327.82
211.457	196.75
211.925	238.88
212.393	238.88
212.861	227.18
213.328	220.16
213.796	290.37
214.264	227.18
214.731	245.9
215.199	271.65
215.666	185.05
216.133	178.03
216.601	215.48
217.068	266.97
217.535	295.05
218.003	283.35
218.47	271.65
218.937	206.11
219.404	250.58
219.871	231.86
220.338	238.88
220.805	215.48
221.271	229.52
221.738	325.48
222.205	259.95
222.671	283.35
223.138	266.97
223.605	269.31
224.071	255.26
224.538	213.14
225.004	262.29
225.47	250.58
225.937	217.82
226.403	173.35
226.869	250.58
227.335	276.33
227.801	255.26
228.267	220.16
228.733	292.71
229.199	199.09
229.665	283.35
230.131	206.11
230.597	236.54
231.062	224.84
231.528	304.42
231.994	266.97
232.459	234.2
232.925	281.01
233.39	323.14
233.856	231.86
234.321	241.22
234.786	248.24
235.252	215.48
235.717	245.9
236.182	283.35
236.647	255.26
237.112	316.12
237.577	271.65
238.042	290.37
238.507	257.61
238.972	299.73
239.436	231.86
239.901	224.84
240.366	201.43
240.83	269.31
241.295	276.33
241.76	245.9
242.224	196.75
242.688	194.41
243.153	217.82
243.617	278.67
244.081	327.82
244.545	281.01
245.01	241.22
245.474	299.73
245.938	283.35
246.402	252.92
246.866	173.35
247.33	273.99
247.793	229.52
248.257	276.33
248.721	210.79
249.185	306.76
249.648	224.84
250.112	217.82
250.575	320.8
251.039	259.95
251.502	273.99
251.965	290.37
252.429	271.65
252.892	323.14
253.355	269.31
253.818	271.65
254.281	262.29
254.744	266.97
255.207	278.67
255.67	269.31
256.133	295.05
256.596	299.73
257.059	292.71
257.522	316.12
257.984	283.35
258.447	259.95
258.909	262.29
259.372	257.61
259.834	264.63
260.297	281.01
260.759	255.26
261.221	262.29
261.684	231.86
262.146	313.78
262.608	271.65
263.07	234.2
263.532	271.65
263.994	222.5
264.456	292.71
264.918	276.33
265.38	290.37
265.842	243.56
266.303	316.12
266.765	299.73
267.227	283.35
267.688	285.69
268.15	257.61
268.611	208.45
269.072	252.92
269.534	309.1
269.995	255.26
270.456	288.03
270.918	290.37
271.379	266.97
271.84	271.65
272.301	271.65
272.762	259.95
273.223	281.01
273.684	227.18
274.144	262.29
274.605	313.78
275.066	245.9
275.527	318.46
275.987	248.24
276.448	332.5
276.908	241.22
277.369	323.14
277.829	266.97
278.289	311.44
278.75	297.39
279.21	311.44
279.67	339.52
280.13	316.12
280.59	290.37
281.05	259.95
281.51	243.56
281.97	252.92
282.43	297.39
282.89	210.79
283.35	259.95
283.809	295.05
284.269	299.73
284.729	255.26
285.188	250.58
285.648	278.67
286.107	231.86
286.567	271.65
287.026	290.37
287.485	306.76
287.944	278.67
288.404	273.99
288.863	257.61
289.322	206.11
289.781	334.84
290.24	297.39
290.699	257.61
291.158	302.08
291.616	290.37
292.075	288.03
292.534	325.48
292.992	245.9
293.451	309.1
293.91	332.5
294.368	292.71
294.827	311.44
295.285	257.61
295.743	215.48
296.202	283.35
296.66	262.29
297.118	299.73
297.576	278.67
298.034	252.92
298.492	248.24
298.95	248.24
299.408	271.65
299.866	283.35
300.324	295.05
300.781	292.71
301.239	302.08
301.697	252.92
302.154	304.42
302.612	264.63
303.069	313.78
303.527	327.82
303.984	210.79
304.441	297.39
304.899	266.97
305.356	278.67
305.813	295.05
306.27	297.39
306.727	283.35
307.184	353.57
307.641	330.16
308.098	297.39
308.555	311.44
309.012	304.42
309.468	325.48
309.925	290.37
310.382	344.21
310.838	332.5
311.295	344.21
311.751	255.26
312.208	337.18
312.664	241.22
313.12	283.35
313.577	245.9
314.033	337.18
314.489	313.78
314.945	330.16
315.401	341.86
315.857	332.5
316.313	266.97
316.769	292.71
317.225	351.23
317.681	245.9
318.136	292.71
318.592	255.26
319.048	243.56
319.503	334.84
319.959	257.61
320.414	323.14
320.869	323.14
321.325	327.82
321.78	302.08
322.235	292.71
322.691	288.03
323.146	381.65
323.601	257.61
324.056	299.73
324.511	234.2
324.966	297.39
325.421	302.08
325.875	334.84
326.33	243.56
326.785	318.46
327.24	259.95
327.694	337.18
328.149	288.03
328.603	215.48
329.058	266.97
329.512	311.44
329.966	252.92
330.421	311.44
330.875	238.88
331.329	302.08
331.783	309.1
332.237	346.55
332.691	299.73
333.145	320.8
333.599	271.65
334.053	299.73
334.507	262.29
334.96	313.78
335.414	341.86
335.868	309.1
336.321	318.46
336.775	341.86
337.228	297.39
337.682	288.03
338.135	243.56
338.588	290.37
339.042	292.71
339.495	283.35
339.948	278.67
340.401	327.82
340.854	252.92
341.307	257.61
341.76	276.33
342.213	311.44
342.666	295.05
343.119	304.42
343.571	297.39
344.024	269.31
344.477	266.97
344.929	264.63
345.382	320.8
345.834	288.03
346.287	292.71
346.739	241.22
347.191	281.01
347.644	262.29
348.096	302.08
348.548	262.29
349	227.18
349.452	323.14
349.904	281.01
350.356	285.69
350.808	276.33
351.26	257.61
351.711	283.35
352.163	295.05
352.615	344.21
353.066	316.12
353.518	245.9
353.969	323.14
354.421	269.31
354.872	339.52
355.324	236.54
355.775	304.42
356.226	288.03
356.677	311.44
357.128	215.48
357.579	276.33
358.03	264.63
358.481	297.39
358.932	285.69
359.383	299.73
359.834	250.58
360.285	281.01
360.735	288.03
361.186	311.44
361.637	337.18
362.087	278.67
362.538	304.42
362.988	339.52
363.438	318.46
363.889	276.33
364.339	250.58
364.789	306.76
365.239	262.29
365.689	285.69
366.139	292.71
366.589	297.39
367.039	358.25
367.489	266.97
367.939	278.67
368.389	365.27
368.839	297.39
369.288	257.61
369.738	353.57
370.187	292.71
370.637	299.73
371.086	255.26
371.536	288.03
371.985	306.76
372.434	309.1
372.884	304.42
373.333	290.37
373.782	325.48
374.231	320.8
374.68	281.01
375.129	302.08
375.578	313.78
376.027	302.08
376.475	346.55
376.924	309.1
377.373	271.65
377.822	278.67
378.27	313.78
378.719	341.86
379.167	313.78
379.616	281.01
380.064	283.35
380.512	320.8
380.961	227.18
381.409	339.52
381.857	252.92
382.305	229.52
382.753	266.97
383.201	281.01
383.649	271.65
384.097	290.37
384.545	353.57
384.992	283.35
385.44	337.18
385.888	266.97
386.335	313.78
386.783	283.35
387.231	266.97
387.678	234.2
388.125	255.26
388.573	264.63
389.02	323.14
389.467	367.61
389.914	318.46
390.362	393.36
390.809	332.5
391.256	269.31
391.703	341.86
392.15	309.1
392.596	290.37
393.043	250.58
393.49	311.44
393.937	264.63
394.383	337.18
394.83	295.05
395.276	297.39
395.723	295.05
396.169	309.1
396.616	276.33
397.062	334.84
397.508	311.44
397.954	306.76
398.401	234.2
398.847	245.9
399.293	288.03
399.739	295.05
400.185	330.16
400.631	281.01
401.076	299.73
401.522	283.35
401.968	330.16
402.414	271.65
402.859	341.86
403.305	304.42
403.75	295.05
404.196	309.1
404.641	337.18
405.086	245.9
405.532	273.99
405.977	311.44
406.422	295.05
406.867	276.33
407.312	266.97
407.757	210.79
408.202	337.18
408.647	297.39
409.092	325.48
409.537	283.35
409.982	306.76
410.426	290.37
410.871	302.08
411.316	297.39
411.76	257.61
412.205	288.03
412.649	337.18
413.093	262.29
413.538	302.08
413.982	320.8
414.426	302.08
414.87	281.01
415.314	313.78
415.758	313.78
416.202	327.82
416.646	290.37
417.09	327.82
417.534	288.03
417.978	273.99
418.421	369.95
418.865	285.69
419.309	313.78
419.752	213.14
420.196	271.65
420.639	288.03
421.083	306.76
421.526	320.8
421.969	292.71
422.412	243.56
422.856	320.8
423.299	348.89
423.742	332.5
424.185	313.78
424.628	266.97
425.071	309.1
425.513	290.37
425.956	297.39
426.399	283.35
426.842	320.8
427.284	281.01
427.727	295.05
428.169	339.52
428.612	304.42
429.054	271.65
429.497	323.14
429.939	311.44
430.381	276.33
430.823	325.48
431.265	313.78
431.707	320.8
432.149	318.46
432.591	278.67
433.033	250.58
433.475	236.54
433.917	290.37
434.359	281.01
434.8	264.63
435.242	189.73
435.684	323.14
436.125	313.78
436.567	295.05
437.008	299.73
437.449	327.82
437.891	259.95
438.332	320.8
438.773	273.99
439.214	262.29
439.656	309.1
440.097	273.99
440.538	304.42
440.978	318.46
441.419	262.29
441.86	271.65
442.301	304.42
442.742	320.8
443.182	285.69
443.623	309.1
444.063	271.65
444.504	306.76
444.944	266.97
445.385	273.99
445.825	271.65
446.265	252.92
446.706	339.52
447.146	320.8
447.586	313.78
448.026	276.33
448.466	276.33
448.906	318.46
449.346	295.05
449.786	316.12
450.225	311.44
450.665	259.95
451.105	360.59
451.544	264.63
451.984	311.44
452.424	238.88
452.863	339.52
453.302	311.44
453.742	266.97
454.181	313.78
454.62	311.44
455.059	304.42
455.499	281.01
455.938	292.71
456.377	288.03
456.816	369.95
457.254	320.8
457.693	290.37
458.132	262.29
458.571	339.52
459.01	259.95
459.448	295.05
459.887	295.05
460.325	285.69
460.764	304.42
461.202	297.39
461.641	320.8
462.079	325.48
462.517	344.21
462.955	306.76
463.393	306.76
463.832	290.37
464.27	288.03
464.708	269.31
465.145	273.99
465.583	241.22
466.021	351.23
466.459	330.16
466.897	353.57
467.334	243.56
467.772	273.99
468.209	325.48
468.647	299.73
469.084	311.44
469.522	299.73
469.959	266.97
470.396	278.67
470.833	313.78
471.271	252.92
471.708	323.14
472.145	288.03
472.582	311.44
473.019	306.76
473.456	318.46
473.892	278.67
474.329	269.31
474.766	304.42
475.202	241.22
475.639	313.78
476.076	316.12
476.512	334.84
476.949	358.25
477.385	269.31
477.821	231.86
478.258	259.95
478.694	334.84
479.13	299.73
479.566	283.35
480.002	311.44
480.438	330.16
480.874	273.99
481.31	238.88
481.746	295.05
482.181	341.86
482.617	285.69
483.053	271.65
483.488	302.08
483.924	353.57
484.36	339.52
484.795	297.39
485.23	285.69
485.666	295.05
486.101	278.67
486.536	337.18
486.971	241.22
487.407	334.84
487.842	302.08
488.277	334.84
488.712	318.46
489.146	283.35
489.581	273.99
490.016	323.14
490.451	297.39
490.885	337.18
491.32	299.73
491.755	252.92
492.189	259.95
492.624	320.8
493.058	327.82
493.492	332.5
493.927	276.33
494.361	302.08
494.795	360.59
495.229	271.65
495.663	269.31
496.097	302.08
496.531	285.69
496.965	250.58
497.399	285.69
497.833	334.84
498.266	252.92
498.7	353.57
499.134	273.99
499.567	292.71
500.001	302.08
500.434	266.97
500.868	330.16
501.301	252.92
501.734	234.2
502.168	313.78
502.601	334.84
503.034	332.5
503.467	337.18
503.9	313.78
504.333	250.58
504.766	292.71
505.199	273.99
505.632	309.1
506.064	283.35
506.497	288.03
506.93	281.01
507.362	295.05
507.795	327.82
508.227	248.24
508.66	339.52
509.092	369.95
509.524	283.35
509.956	309.1
510.389	250.58
510.821	248.24
511.253	283.35
511.685	318.46
512.117	318.46
512.549	302.08
512.981	264.63
513.412	323.14
513.844	257.61
514.276	323.14
514.707	281.01
515.139	309.1
515.571	344.21
516.002	245.9
516.433	288.03
516.865	309.1
517.296	290.37
517.727	320.8
518.159	318.46
518.59	330.16
519.021	290.37
519.452	332.5
519.883	295.05
520.314	243.56
520.744	266.97
521.175	337.18
521.606	255.26
522.037	250.58
522.467	313.78
522.898	302.08
523.328	318.46
523.759	299.73
524.189	367.61
524.62	348.89
525.05	313.78
525.48	248.24
525.91	281.01
526.341	346.55
526.771	285.69
527.201	273.99
527.631	334.84
528.061	285.69
528.49	229.52
528.92	292.71
529.35	346.55
529.78	353.57
530.209	213.14
530.639	330.16
531.068	295.05
531.498	323.14
531.927	255.26
532.357	241.22
532.786	281.01
533.215	273.99
533.644	306.76
534.074	285.69
534.503	302.08
534.932	318.46
535.361	304.42
535.79	348.89
536.218	334.84
536.647	257.61
537.076	299.73
537.505	306.76
537.933	318.46
538.362	320.8
538.79	292.71
539.219	285.69
539.647	255.26
540.076	313.78
540.504	257.61
540.932	341.86
541.36	325.48
541.788	323.14
542.217	255.26
542.645	269.31
543.073	334.84
543.5	217.82
543.928	297.39
544.356	318.46
544.784	325.48
545.211	278.67
545.639	252.92
546.067	241.22
546.494	379.31
546.922	288.03
547.349	273.99
547.776	313.78
548.204	255.26
548.631	236.54
549.058	269.31
549.485	309.1
549.912	306.76
550.339	252.92
550.766	257.61
551.193	325.48
551.62	299.73
552.047	334.84
552.474	369.95
552.9	325.48
553.327	250.58
553.754	290.37
554.18	283.35
554.607	288.03
555.033	278.67
555.459	269.31
555.886	257.61
556.312	290.37
556.738	255.26
557.164	278.67
557.59	311.44
558.016	334.84
558.442	257.61
558.868	304.42
559.294	302.08
559.72	252.92
560.145	330.16
560.571	344.21
560.997	259.95
561.422	276.33
561.848	248.24
562.273	281.01
562.699	297.39
563.124	311.44
563.549	367.61
563.974	353.57
564.4	327.82
564.825	273.99
565.25	304.42
565.675	262.29
566.1	302.08
566.525	304.42
566.95	323.14
567.374	311.44
567.799	220.16
568.224	262.29
568.648	339.52
569.073	292.71
569.497	224.84
569.922	264.63
570.346	327.82
570.771	252.92
571.195	304.42
571.619	299.73
572.043	323.14
572.467	215.48
572.891	304.42
573.315	250.58
573.739	248.24
574.163	306.76
574.587	304.42
575.011	231.86
575.435	325.48
575.858	325.48
576.282	302.08
576.705	250.58
577.129	325.48
577.552	292.71
577.976	269.31
578.399	252.92
578.822	316.12
579.245	259.95
579.669	285.69
580.092	316.12
580.515	281.01
580.938	372.29
581.361	283.35
581.784	320.8
582.206	245.9
582.629	295.05
583.052	311.44
583.474	304.42
583.897	341.86
584.32	323.14
584.742	297.39
585.165	313.78
585.587	339.52
586.009	344.21
586.431	316.12
586.854	306.76
587.276	278.67
587.698	271.65
588.12	348.89
588.542	278.67
588.964	311.44
589.386	316.12
589.807	224.84
590.229	257.61
590.651	292.71
591.073	332.5
591.494	348.89
591.916	309.1
592.337	259.95
592.759	318.46
593.18	250.58
593.601	290.37
594.022	210.79
594.444	269.31
594.865	281.01
595.286	316.12
595.707	266.97
596.128	302.08
596.549	278.67
596.97	252.92
597.39	330.16
597.811	269.31
598.232	238.88
598.652	330.16
599.073	374.63
599.494	346.55
599.914	283.35
600.334	255.26
600.755	318.46
601.175	266.97
601.595	304.42
602.015	285.69
602.436	290.37
602.856	402.72
603.276	367.61
603.696	325.48
604.115	334.84
604.535	313.78
604.955	248.24
605.375	266.97
605.794	325.48
606.214	292.71
606.634	325.48
607.053	316.12
607.473	264.63
607.892	259.95
608.311	290.37
608.731	292.71
609.15	334.84
609.569	285.69
609.988	288.03
610.407	327.82
610.826	262.29
611.245	255.26
611.664	292.71
612.083	292.71
612.501	299.73
612.92	281.01
613.339	299.73
613.757	393.36
614.176	323.14
614.594	248.24
615.013	341.86
615.431	309.1
615.85	238.88
616.268	325.48
616.686	297.39
617.104	203.77
617.522	243.56
617.94	297.39
618.358	325.48
618.776	264.63
619.194	273.99
619.612	262.29
620.03	208.45
620.447	292.71
620.865	323.14
621.282	304.42
621.7	360.59
622.117	276.33
622.535	304.42
622.952	222.5
623.369	245.9
623.787	273.99
624.204	330.16
624.621	320.8
625.038	306.76
625.455	295.05
625.872	281.01
626.289	276.33
626.706	309.1
627.123	306.76
627.539	297.39
627.956	323.14
628.373	283.35
628.789	309.1
629.206	306.76
629.622	334.84
630.038	292.71
630.455	327.82
630.871	327.82
631.287	325.48
631.703	306.76
632.12	323.14
632.536	327.82
632.952	271.65
633.368	273.99
633.783	334.84
634.199	245.9
634.615	243.56
635.031	304.42
635.446	323.14
635.862	311.44
636.277	271.65
636.693	276.33
637.108	273.99
637.524	330.16
637.939	299.73
638.354	304.42
638.77	330.16
639.185	313.78
639.6	318.46
640.015	290.37
640.43	255.26
640.845	327.82
641.259	330.16
641.674	309.1
642.089	327.82
642.504	337.18
642.918	327.82
643.333	248.24
643.747	323.14
644.162	341.86
644.576	346.55
644.991	304.42
645.405	292.71
645.819	325.48
646.233	231.86
646.647	276.33
647.061	273.99
647.475	327.82
647.889	344.21
648.303	320.8
648.717	283.35
649.131	295.05
649.545	299.73
649.958	241.22
650.372	332.5
650.785	266.97
651.199	316.12
651.612	248.24
652.026	362.93
652.439	255.26
652.852	367.61
653.266	292.71
653.679	273.99
654.092	306.76
654.505	318.46
654.918	271.65
655.331	266.97
655.744	290.37
656.156	283.35
656.569	327.82
656.982	266.97
657.394	269.31
657.807	360.59
658.22	285.69
658.632	276.33
659.044	273.99
659.457	306.76
659.869	330.16
660.281	259.95
660.693	353.57
661.106	295.05
661.518	302.08
661.93	309.1
662.342	311.44
662.754	241.22
663.165	302.08
663.577	313.78
663.989	323.14
664.401	285.69
664.812	297.39
665.224	266.97
665.635	320.8
666.047	302.08
666.458	339.52
666.869	292.71
667.281	250.58
667.692	295.05
668.103	290.37
668.514	332.5
668.925	281.01
669.336	273.99
669.747	297.39
670.158	327.82
670.569	311.44
670.979	299.73
671.39	327.82
671.801	208.45
672.211	285.69
672.622	262.29
673.032	248.24
673.443	234.2
673.853	360.59
674.263	278.67
674.674	327.82
675.084	245.9
675.494	243.56
675.904	344.21
676.314	283.35
676.724	309.1
677.134	304.42
677.544	295.05
677.953	311.44
678.363	304.42
678.773	351.23
679.182	334.84
679.592	306.76
680.001	281.01
680.411	325.48
680.82	278.67
681.23	245.9
681.639	297.39
682.048	355.91
682.457	311.44
682.866	302.08
683.275	304.42
683.684	306.76
684.093	299.73
684.502	365.27
684.911	337.18
685.32	306.76
685.728	316.12
686.137	295.05
686.546	262.29
686.954	323.14
687.363	278.67
687.771	297.39
688.179	358.25
688.588	295.05
688.996	292.71
689.404	316.12
689.812	259.95
690.22	276.33
690.628	325.48
691.036	346.55
691.444	334.84
691.852	283.35
692.26	302.08
692.667	302.08
693.075	248.24
693.483	273.99
693.89	346.55
694.298	346.55
694.705	309.1
695.112	302.08
695.52	327.82
695.927	351.23
696.334	257.61
696.741	262.29
697.148	309.1
697.555	313.78
697.962	236.54
698.369	273.99
698.776	313.78
699.183	299.73
699.59	288.03
699.996	318.46
700.403	295.05
700.81	330.16
701.216	332.5
701.623	273.99
702.029	262.29
702.435	334.84
702.842	276.33
703.248	311.44
703.654	369.95
704.06	323.14
704.466	297.39
704.872	292.71
705.278	224.84
705.684	316.12
706.09	311.44
706.496	353.57
706.901	360.59
707.307	304.42
707.712	278.67
708.118	295.05
708.523	292.71
708.929	236.54
709.334	292.71
709.74	292.71
710.145	320.8
710.55	271.65
710.955	323.14
711.36	304.42
711.765	327.82
712.17	313.78
712.575	257.61
712.98	737.42
713.385	358.25
713.789	262.29
714.194	367.61
714.599	278.67
715.003	278.67
715.408	243.56
715.812	295.05
716.217	374.63
716.621	362.93
717.025	278.67
717.429	271.65
717.833	292.71
718.238	252.92
718.642	269.31
719.046	259.95
719.449	229.52
719.853	271.65
720.257	327.82
720.661	222.5
721.065	278.67
721.468	269.31
721.872	252.92
722.275	337.18
722.679	339.52
723.082	264.63
723.485	245.9
723.889	327.82
724.292	285.69
724.695	323.14
725.098	365.27
725.501	299.73
725.904	295.05
726.307	297.39
726.71	255.26
727.113	318.46
727.516	327.82
727.918	311.44
728.321	311.44
728.724	365.27
729.126	290.37
729.529	295.05
729.931	252.92
730.333	318.46
730.736	318.46
731.138	309.1
731.54	264.63
731.942	351.23
732.344	276.33
732.746	248.24
733.148	327.82
733.55	327.82
733.952	344.21
734.354	339.52
734.756	306.76
735.157	224.84
735.559	323.14
735.96	311.44
736.362	281.01
736.763	278.67
737.165	295.05
737.566	306.76
737.967	248.24
738.368	271.65
738.77	306.76
739.171	278.67
739.572	283.35
739.973	278.67
740.374	295.05
740.774	302.08
741.175	236.54
741.576	299.73
741.977	273.99
742.377	255.26
742.778	285.69
743.178	304.42
743.579	355.91
743.979	309.1
744.379	318.46
744.78	367.61
745.18	288.03
745.58	248.24
745.98	281.01
746.38	262.29
746.78	323.14
747.18	273.99
747.58	231.86
747.98	295.05
748.38	323.14
748.779	306.76
749.179	285.69
749.578	259.95
749.978	283.35
750.377	199.09
750.777	259.95
751.176	306.76
751.575	320.8
751.975	234.2
752.374	266.97
752.773	302.08
753.172	320.8
753.571	276.33
753.97	271.65
754.369	264.63
754.768	285.69
755.166	327.82
755.565	325.48
755.964	323.14
756.362	234.2
756.761	250.58
757.159	299.73
757.558	259.95
757.956	334.84
758.354	285.69
758.753	255.26
759.151	271.65
759.549	269.31
759.947	302.08
760.345	278.67
760.743	215.48
761.141	257.61
761.539	259.95
761.936	332.5
762.334	297.39
762.732	266.97
763.129	306.76
763.527	362.93
763.924	334.84
764.322	292.71
764.719	250.58
765.117	362.93
765.514	222.5
765.911	264.63
766.308	290.37
766.705	269.31
767.102	367.61
767.499	292.71
767.896	281.01
768.293	285.69
768.69	297.39
769.086	262.29
769.483	346.55
769.88	309.1
770.276	325.48
770.673	283.35
771.069	351.23
771.466	351.23
771.862	285.69
772.258	278.67
772.654	276.33
773.05	330.16
773.447	269.31
773.843	269.31
774.239	283.35
774.634	255.26
775.03	262.29
775.426	278.67
775.822	259.95
776.218	351.23
776.613	281.01
777.009	281.01
777.404	283.35
777.8	306.76
778.195	330.16
778.59	290.37
778.986	252.92
779.381	285.69
779.776	339.52
780.171	266.97
780.566	299.73
780.961	295.05
781.356	381.65
781.751	243.56
782.146	334.84
782.54	276.33
782.935	269.31
783.33	339.52
783.724	262.29
784.119	245.9
784.513	292.71
784.908	302.08
785.302	271.65
785.696	327.82
786.09	299.73
786.485	309.1
786.879	295.05
787.273	285.69
787.667	327.82
788.061	271.65
788.454	266.97
788.848	311.44
789.242	330.16
789.636	355.91
790.029	285.69
790.423	222.5
790.816	295.05
791.21	276.33
791.603	262.29
791.997	264.63
792.39	292.71
792.783	255.26
793.176	250.58
793.569	341.86
793.962	220.16
794.355	266.97
794.748	201.43
795.141	288.03
795.534	236.54
795.927	255.26
796.319	250.58
796.712	264.63
797.105	297.39
797.497	332.5
797.89	266.97
798.282	264.63
798.674	281.01
799.067	311.44
799.459	302.08
799.851	306.76
800.243	309.1
800.635	393.36
801.027	281.01
801.419	229.52
801.811	264.63
802.203	299.73
802.594	271.65
802.986	295.05
803.378	278.67
803.769	304.42
804.161	281.01
804.552	290.37
804.944	297.39
805.335	391.02
805.726	320.8
806.118	323.14
806.509	281.01
806.9	264.63
807.291	292.71
807.682	271.65
808.073	334.84
808.464	271.65
808.855	285.69
809.245	276.33
809.636	318.46
810.027	283.35
810.417	285.69
810.808	297.39
811.198	311.44
811.589	346.55
811.979	281.01
812.369	245.9
812.759	245.9
813.15	290.37
813.54	313.78
813.93	355.91
814.32	304.42
814.71	341.86
815.1	234.2
815.489	269.31
815.879	290.37
816.269	334.84
816.658	292.71
817.048	192.07
817.438	255.26
817.827	266.97
818.216	297.39
818.606	271.65
818.995	269.31
819.384	243.56
819.773	278.67
820.163	358.25
820.552	346.55
820.941	269.31
821.33	238.88
821.718	288.03
822.107	327.82
822.496	266.97
822.885	255.26
823.273	325.48
823.662	259.95
824.05	295.05
824.439	227.18
824.827	290.37
825.216	311.44
825.604	330.16
825.992	283.35
826.38	290.37
826.768	276.33
827.156	295.05
827.544	313.78
827.932	262.29
828.32	281.01
828.708	311.44
829.096	325.48
829.483	306.76
829.871	299.73
830.259	243.56
830.646	262.29
831.034	259.95
831.421	339.52
831.808	271.65
832.196	323.14
832.583	262.29
832.97	330.16
833.357	299.73
833.744	281.01
834.131	306.76
834.518	369.95
834.905	313.78
835.292	290.37
835.678	224.84
836.065	255.26
836.452	283.35
836.838	339.52
837.225	206.11
837.611	234.2
837.998	271.65
838.384	304.42
838.77	262.29
839.157	281.01
839.543	327.82
839.929	285.69
840.315	306.76
840.701	276.33
841.087	285.69
841.473	248.24
841.858	283.35
842.244	297.39
842.63	302.08
843.015	255.26
843.401	582.94
843.787	290.37
844.172	302.08
844.557	318.46
844.943	313.78
845.328	323.14
845.713	276.33
846.098	220.16
846.483	248.24
846.868	292.71
847.253	288.03
847.638	297.39
848.023	292.71
848.408	320.8
848.793	299.73
849.177	264.63
849.562	278.67
849.947	295.05
850.331	355.91
850.715	332.5
851.1	290.37
851.484	278.67
851.868	339.52
852.253	295.05
852.637	288.03
853.021	295.05
853.405	330.16
853.789	281.01
854.173	292.71
854.557	372.29
854.94	222.5
855.324	290.37
855.708	295.05
856.091	285.69
856.475	278.67
856.858	283.35
857.242	346.55
857.625	269.31
858.009	264.63
858.392	311.44
858.775	257.61
859.158	276.33
859.541	283.35
859.924	299.73
860.307	252.92
860.69	273.99
861.073	250.58
861.456	234.2
861.838	281.01
862.221	355.91
862.604	318.46
862.986	311.44
863.369	281.01
863.751	295.05
864.133	369.95
864.516	323.14
864.898	271.65
865.28	281.01
865.662	236.54
866.044	288.03
866.426	297.39
866.808	295.05
867.19	266.97
867.572	309.1
867.954	259.95
868.336	255.26
868.717	311.44
869.099	334.84
869.48	299.73
869.862	278.67
870.243	341.86
870.625	262.29
871.006	334.84
871.387	285.69
871.768	344.21
872.149	292.71
872.53	309.1
872.911	273.99
873.292	292.71
873.673	245.9
874.054	243.56
874.435	327.82
874.815	318.46
875.196	290.37
875.577	257.61
875.957	271.65
876.338	304.42
876.718	346.55
877.098	266.97
877.479	278.67
877.859	257.61
878.239	283.35
878.619	341.86
878.999	269.31
879.379	306.76
879.759	269.31
880.139	318.46
880.519	311.44
880.898	283.35
881.278	255.26
881.658	288.03
882.037	238.88
882.417	276.33
882.796	323.14
883.176	332.5
883.555	344.21
883.934	283.35
884.313	297.39
884.693	273.99
885.072	292.71
885.451	283.35
885.83	313.78
886.209	292.71
886.587	290.37
886.966	304.42
887.345	332.5
887.724	348.89
888.102	295.05
888.481	281.01
888.859	283.35
889.238	330.16
889.616	295.05
889.994	245.9
890.373	271.65
890.751	299.73
891.129	304.42
891.507	316.12
891.885	304.42
892.263	327.82
892.641	285.69
893.019	292.71
893.396	269.31
893.774	330.16
894.152	281.01
894.529	316.12
894.907	248.24
895.284	269.31
895.662	271.65
896.039	323.14
896.416	316.12
896.794	283.35
897.171	316.12
897.548	290.37
897.925	339.52
898.302	325.48
898.679	313.78
899.056	348.89
899.433	252.92
899.809	318.46
900.186	273.99
900.563	283.35
900.939	304.42
901.316	318.46
901.692	224.84
902.069	309.1
902.445	304.42
902.821	334.84
903.197	290.37
903.574	252.92
903.95	271.65
904.326	316.12
904.702	297.39
905.078	285.69
905.454	276.33
905.829	252.92
906.205	231.86
906.581	259.95
906.956	283.35
907.332	325.48
907.707	262.29
908.083	302.08
908.458	278.67
908.833	285.69
909.209	245.9
909.584	229.52
909.959	295.05
910.334	302.08
910.709	245.9
911.084	309.1
911.459	306.76
911.834	255.26
912.209	224.84
912.583	299.73
912.958	290.37
913.333	339.52
913.707	285.69
914.082	281.01
914.456	276.33
914.83	285.69
915.205	388.68
915.579	259.95
915.953	327.82
916.327	288.03
916.701	288.03
917.075	292.71
917.449	278.67
917.823	304.42
918.197	269.31
918.571	325.48
918.944	318.46
919.318	302.08
919.692	320.8
920.065	334.84
920.438	325.48
920.812	318.46
921.185	210.79
921.558	220.16
921.932	283.35
922.305	222.5
922.678	327.82
923.051	231.86
923.424	227.18
923.797	276.33
924.17	208.45
924.542	238.88
924.915	250.58
925.288	248.24
925.661	288.03
926.033	266.97
926.406	273.99
926.778	297.39
927.15	264.63
927.523	264.63
927.895	292.71
928.267	271.65
928.639	320.8
929.011	257.61
929.383	304.42
929.755	323.14
930.127	248.24
930.499	266.97
930.871	264.63
931.242	283.35
931.614	264.63
931.986	264.63
932.357	376.97
932.729	271.65
933.1	341.86
933.471	299.73
933.843	285.69
934.214	285.69
934.585	318.46
934.956	288.03
935.327	299.73
935.698	297.39
936.069	255.26
936.44	295.05
936.811	306.76
937.182	327.82
937.552	320.8
937.923	318.46
938.293	297.39
938.664	241.22
939.034	318.46
939.405	262.29
939.775	299.73
940.145	259.95
940.516	372.29
940.886	295.05
941.256	318.46
941.626	323.14
941.996	311.44
942.366	325.48
942.735	353.57
943.105	313.78
943.475	367.61
943.845	271.65
944.214	227.18
944.584	348.89
944.953	231.86
945.323	341.86
945.692	299.73
946.061	271.65
946.43	271.65
946.8	302.08
947.169	269.31
947.538	309.1
947.907	290.37
948.276	281.01
948.645	337.18
949.013	273.99
949.382	281.01
949.751	304.42
950.119	318.46
950.488	337.18
950.857	257.61
951.225	309.1
951.593	236.54
951.962	271.65
952.33	243.56
952.698	278.67
953.066	309.1
953.434	299.73
953.802	285.69
954.17	290.37
954.538	245.9
954.906	323.14
955.274	290.37
955.642	269.31
956.009	304.42
956.377	281.01
956.744	269.31
957.112	313.78
957.479	241.22
957.847	236.54
958.214	285.69
958.581	297.39
958.948	288.03
959.315	259.95
959.683	332.5
960.05	245.9
960.416	241.22
960.783	255.26
961.15	288.03
961.517	250.58
961.884	276.33
962.25	231.86
962.617	295.05
962.983	344.21
963.35	288.03
963.716	348.89
964.082	269.31
964.449	288.03
964.815	231.86
965.181	241.22
965.547	318.46
965.913	339.52
966.279	269.31
966.645	306.76
967.011	273.99
967.377	266.97
967.742	257.61
968.108	255.26
968.474	259.95
968.839	383.99
969.205	255.26
969.57	269.31
969.935	252.92
970.301	325.48
970.666	295.05
971.031	285.69
971.396	241.22
971.761	262.29
972.126	306.76
972.491	278.67
972.856	208.45
973.221	231.86
973.586	327.82
973.95	283.35
974.315	259.95
974.679	281.01
975.044	278.67
975.408	313.78
975.773	332.5
976.137	250.58
976.501	285.69
976.866	264.63
977.23	306.76
977.594	203.77
977.958	288.03
978.322	273.99
978.686	304.42
979.049	320.8
979.413	241.22
979.777	283.35
980.141	351.23
980.504	316.12
980.868	285.69
981.231	316.12
981.595	290.37
981.958	259.95
982.321	259.95
982.684	269.31
983.048	283.35
983.411	313.78
983.774	292.71
984.137	288.03
984.5	278.67
984.862	299.73
985.225	269.31
985.588	304.42
985.951	320.8
986.313	330.16
986.676	285.69
987.038	245.9
987.401	273.99
987.763	290.37
988.125	215.48
988.488	306.76
988.85	309.1
989.212	369.95
989.574	346.55
989.936	285.69
990.298	353.57
990.66	337.18
991.022	255.26
991.383	295.05
991.745	283.35
992.107	264.63
992.468	304.42
992.83	341.86
993.191	316.12
993.553	285.69
993.914	295.05
994.275	255.26
994.637	334.84
994.998	278.67
995.359	297.39
995.72	311.44
996.081	238.88
996.442	283.35
996.803	269.31
997.163	255.26
997.524	262.29
997.885	273.99
998.245	257.61
998.606	231.86
998.966	271.65
999.327	295.05
999.687	257.61
1000.047	353.57
1000.408	288.03
1000.768	299.73
1001.128	311.44
1001.488	259.95
1001.848	231.86
1002.208	283.35
1002.568	276.33
1002.927	313.78
1003.287	330.16
1003.647	273.99
1004.007	238.88
1004.366	227.18
1004.726	330.16
1005.085	327.82
1005.444	276.33
1005.804	283.35
1006.163	271.65
1006.522	262.29
1006.881	313.78
1007.24	362.93
1007.599	220.16
1007.958	262.29
1008.317	266.97
1008.676	236.54
1009.035	245.9
1009.393	269.31
1009.752	262.29
1010.111	316.12
1010.469	276.33
1010.828	257.61
1011.186	278.67
1011.544	290.37
1011.903	316.12
1012.261	288.03
1012.619	316.12
1012.977	330.16
1013.335	365.27
1013.693	269.31
1014.051	269.31
1014.409	320.8
1014.767	281.01
1015.124	318.46
1015.482	302.08
1015.84	339.52
1016.197	266.97
1016.555	271.65
1016.912	229.52
1017.269	285.69
1017.627	220.16
1017.984	236.54
1018.341	229.52
1018.698	348.89
1019.055	259.95
1019.412	273.99
1019.769	266.97
1020.126	316.12
1020.483	281.01
1020.84	330.16
1021.196	327.82
1021.553	306.76
1021.909	273.99
1022.266	266.97
1022.622	309.1
1022.979	365.27
1023.335	269.31
1023.691	285.69
1024.047	292.71
1024.404	257.61
1024.76	327.82
1025.116	288.03
1025.472	339.52
1025.827	234.2
1026.183	344.21
1026.539	290.37
1026.895	302.08
1027.25	299.73
1027.606	215.48
1027.961	306.76
1028.317	304.42
1028.672	262.29
1029.028	224.84
1029.383	281.01
1029.738	297.39
1030.093	199.09
1030.448	290.37
1030.803	238.88
1031.158	304.42
1031.513	255.26
1031.868	341.86
1032.223	238.88
1032.577	311.44
1032.932	264.63
1033.287	262.29
1033.641	297.39
1033.996	297.39
1034.35	285.69
1034.704	248.24
1035.059	252.92
1035.413	325.48
1035.767	325.48
1036.121	325.48
