Data from Al_FLMS009871__641__15-00-34-896.txt Node

Date: Fri Mar 08 15:00:34 CST 2024
User: pe5414po
Spectrometer: FLMS00987
Trigger mode: 0
Integration Time (sec): 1.000000E-1
Scans to average: 1
Electric dark correction enabled: true
Nonlinearity correction enabled: false
Boxcar width: 0
XAxis mode: Wavelengths
Number of Pixels in Spectrum: 2048
>>>>>Begin Spectral Data<<<<<
188.938	33.35
189.409	33.35
189.879	33.35
190.349	-128.14
190.819	-74.31
191.29	-107.08
191.76	-50.91
192.23	-97.72
192.7	-76.65
193.17	-76.65
193.64	-13.46
194.109	-83.67
194.579	19.31
195.049	61.44
195.519	5.27
195.988	42.71
196.458	59.1
196.927	40.37
197.397	70.8
197.866	108.25
198.336	98.89
198.805	124.63
199.274	157.4
199.744	173.78
200.213	234.64
200.682	211.23
201.151	204.21
201.62	178.47
202.089	220.6
202.558	232.3
203.027	225.28
203.495	337.62
203.964	302.51
204.433	295.49
204.902	267.41
205.37	274.43
205.839	354.01
206.307	260.38
206.776	314.22
207.244	276.77
207.712	274.43
208.181	295.49
208.649	304.85
209.117	248.68
209.585	197.19
210.053	255.7
210.521	234.64
210.989	244
211.457	290.81
211.925	255.7
212.393	293.15
212.861	265.07
213.328	265.07
213.796	269.75
214.264	251.02
214.731	251.02
215.199	232.3
215.666	218.25
216.133	272.09
216.601	215.91
217.068	248.68
217.535	281.45
218.003	204.21
218.47	265.07
218.937	274.43
219.404	258.04
219.871	297.83
220.338	211.23
220.805	316.56
221.271	255.7
221.738	225.28
222.205	309.54
222.671	281.45
223.138	281.45
223.605	255.7
224.071	251.02
224.538	297.83
225.004	251.02
225.47	199.53
225.937	307.2
226.403	258.04
226.869	220.6
227.335	248.68
227.801	302.51
228.267	276.77
228.733	248.68
229.199	253.36
229.665	225.28
230.131	279.11
230.597	258.04
231.062	272.09
231.528	251.02
231.994	269.75
232.459	258.04
232.925	281.45
233.39	283.79
233.856	262.73
234.321	229.96
234.786	267.41
235.252	241.66
235.717	260.38
236.182	311.88
236.647	253.36
237.112	323.58
237.577	309.54
238.042	286.13
238.507	265.07
238.972	283.79
239.436	244
239.901	279.11
240.366	197.19
240.83	260.38
241.295	293.15
241.76	265.07
242.224	290.81
242.688	288.47
243.153	248.68
243.617	251.02
244.081	241.66
244.545	288.47
245.01	248.68
245.474	229.96
245.938	309.54
246.402	267.41
246.866	286.13
247.33	281.45
247.793	253.36
248.257	307.2
248.721	286.13
249.185	272.09
249.648	269.75
250.112	335.28
250.575	281.45
251.039	258.04
251.502	307.2
251.965	290.81
252.429	267.41
252.892	279.11
253.355	229.96
253.818	267.41
254.281	293.15
254.744	225.28
255.207	290.81
255.67	309.54
256.133	276.77
256.596	321.24
257.059	255.7
257.522	208.89
257.984	241.66
258.447	206.55
258.909	279.11
259.372	311.88
259.834	246.34
260.297	309.54
260.759	265.07
261.221	262.73
261.684	302.51
262.146	283.79
262.608	283.79
263.07	330.6
263.532	316.56
263.994	274.43
264.456	335.28
264.918	204.21
265.38	204.21
265.842	281.45
266.303	260.38
266.765	328.26
267.227	300.17
267.688	304.85
268.15	307.2
268.611	300.17
269.072	241.66
269.534	260.38
269.995	346.98
270.456	267.41
270.918	349.32
271.379	262.73
271.84	272.09
272.301	349.32
272.762	309.54
273.223	321.24
273.684	316.56
274.144	255.7
274.605	241.66
275.066	293.15
275.527	325.92
275.987	295.49
276.448	302.51
276.908	220.6
277.369	311.88
277.829	309.54
278.289	304.85
278.75	283.79
279.21	346.98
279.67	330.6
280.13	246.34
280.59	337.62
281.05	297.83
281.51	321.24
281.97	279.11
282.43	339.96
282.89	321.24
283.35	253.36
283.809	241.66
284.269	337.62
284.729	241.66
285.188	307.2
285.648	279.11
286.107	346.98
286.567	274.43
287.026	328.26
287.485	304.85
287.944	318.9
288.404	302.51
288.863	274.43
289.322	274.43
289.781	248.68
290.24	302.51
290.699	283.79
291.158	297.83
291.616	302.51
292.075	304.85
292.534	260.38
292.992	227.62
293.451	314.22
293.91	288.47
294.368	234.64
294.827	304.85
295.285	302.51
295.743	276.77
296.202	258.04
296.66	269.75
297.118	295.49
297.576	363.37
298.034	328.26
298.492	262.73
298.95	248.68
299.408	281.45
299.866	342.3
300.324	321.24
300.781	330.6
301.239	272.09
301.697	283.79
302.154	286.13
302.612	321.24
303.069	255.7
303.527	311.88
303.984	339.96
304.441	253.36
304.899	321.24
305.356	269.75
305.813	260.38
306.27	293.15
306.727	344.64
307.184	321.24
307.641	281.45
308.098	276.77
308.555	307.2
309.012	290.81
309.468	283.79
309.925	335.28
310.382	342.3
310.838	244
311.295	251.02
311.751	246.34
312.208	304.85
312.664	300.17
313.12	265.07
313.577	295.49
314.033	330.6
314.489	300.17
314.945	218.25
315.401	260.38
315.857	304.85
316.313	377.41
316.769	293.15
317.225	279.11
317.681	281.45
318.136	272.09
318.592	297.83
319.048	265.07
319.503	295.49
319.959	274.43
320.414	241.66
320.869	281.45
321.325	283.79
321.78	295.49
322.235	213.57
322.691	220.6
323.146	293.15
323.601	330.6
324.056	300.17
324.511	328.26
324.966	276.77
325.421	260.38
325.875	316.56
326.33	339.96
326.785	260.38
327.24	244
327.694	281.45
328.149	300.17
328.603	302.51
329.058	281.45
329.512	316.56
329.966	307.2
330.421	307.2
330.875	354.01
331.329	265.07
331.783	318.9
332.237	276.77
332.691	295.49
333.145	276.77
333.599	279.11
334.053	251.02
334.507	300.17
334.96	286.13
335.414	286.13
335.868	276.77
336.321	314.22
336.775	255.7
337.228	323.58
337.682	281.45
338.135	295.49
338.588	356.35
339.042	396.14
339.495	267.41
339.948	297.83
340.401	323.58
340.854	330.6
341.307	316.56
341.76	276.77
342.213	309.54
342.666	220.6
343.119	344.64
343.571	403.16
344.024	300.17
344.477	307.2
344.929	309.54
345.382	365.71
345.834	344.64
346.287	274.43
346.739	332.94
347.191	330.6
347.644	335.28
348.096	351.67
348.548	325.92
349	318.9
349.452	339.96
349.904	286.13
350.356	304.85
350.808	342.3
351.26	377.41
351.711	283.79
352.163	272.09
352.615	375.07
353.066	281.45
353.518	339.96
353.969	288.47
354.421	302.51
354.872	293.15
355.324	349.32
355.775	330.6
356.226	290.81
356.677	279.11
357.128	269.75
357.579	344.64
358.03	311.88
358.481	307.2
358.932	276.77
359.383	295.49
359.834	356.35
360.285	297.83
360.735	286.13
361.186	276.77
361.637	304.85
362.087	316.56
362.538	300.17
362.988	365.71
363.438	244
363.889	276.77
364.339	318.9
364.789	255.7
365.239	344.64
365.689	293.15
366.139	337.62
366.589	307.2
367.039	269.75
367.489	286.13
367.939	288.47
368.389	302.51
368.839	318.9
369.288	239.32
369.738	379.75
370.187	328.26
370.637	302.51
371.086	382.09
371.536	356.35
371.985	337.62
372.434	325.92
372.884	297.83
373.333	323.58
373.782	419.54
374.231	293.15
374.68	309.54
375.129	328.26
375.578	300.17
376.027	244
376.475	330.6
376.924	307.2
377.373	325.92
377.822	349.32
378.27	307.2
378.719	325.92
379.167	337.62
379.616	332.94
380.064	302.51
380.512	323.58
380.961	300.17
381.409	246.34
381.857	328.26
382.305	302.51
382.753	258.04
383.201	260.38
383.649	368.05
384.097	344.64
384.545	251.02
384.992	295.49
385.44	300.17
385.888	330.6
386.335	328.26
386.783	304.85
387.231	295.49
387.678	283.79
388.125	302.51
388.573	311.88
389.02	346.98
389.467	356.35
389.914	335.28
390.362	288.47
390.809	251.02
391.256	265.07
391.703	335.28
392.15	328.26
392.596	323.58
393.043	276.77
393.49	302.51
393.937	337.62
394.383	283.79
394.83	342.3
395.276	295.49
395.723	316.56
396.169	269.75
396.616	269.75
397.062	314.22
397.508	356.35
397.954	332.94
398.401	314.22
398.847	290.81
399.293	346.98
399.739	288.47
400.185	267.41
400.631	323.58
401.076	279.11
401.522	321.24
401.968	314.22
402.414	276.77
402.859	272.09
403.305	318.9
403.75	260.38
404.196	314.22
404.641	342.3
405.086	279.11
405.532	307.2
405.977	356.35
406.422	356.35
406.867	281.45
407.312	276.77
407.757	262.73
408.202	339.96
408.647	283.79
409.092	297.83
409.537	262.73
409.982	325.92
410.426	260.38
410.871	283.79
411.316	342.3
411.76	311.88
412.205	365.71
412.649	300.17
413.093	297.83
413.538	309.54
413.982	279.11
414.426	316.56
414.87	311.88
415.314	337.62
415.758	307.2
416.202	314.22
416.646	314.22
417.09	307.2
417.534	302.51
417.978	262.73
418.421	332.94
418.865	267.41
419.309	281.45
419.752	344.64
420.196	311.88
420.639	393.8
421.083	318.9
421.526	325.92
421.969	337.62
422.412	279.11
422.856	297.83
423.299	321.24
423.742	276.77
424.185	377.41
424.628	337.62
425.071	304.85
425.513	208.89
425.956	361.03
426.399	325.92
426.842	274.43
427.284	286.13
427.727	382.09
428.169	272.09
428.612	258.04
429.054	349.32
429.497	346.98
429.939	351.67
430.381	330.6
430.823	304.85
431.265	297.83
431.707	321.24
432.149	286.13
432.591	311.88
433.033	346.98
433.475	318.9
433.917	354.01
434.359	300.17
434.8	302.51
435.242	330.6
435.684	335.28
436.125	309.54
436.567	302.51
437.008	330.6
437.449	293.15
437.891	318.9
438.332	265.07
438.773	279.11
439.214	396.14
439.656	311.88
440.097	293.15
440.538	279.11
440.978	272.09
441.419	293.15
441.86	321.24
442.301	325.92
442.742	300.17
443.182	325.92
443.623	354.01
444.063	311.88
444.504	328.26
444.944	288.47
445.385	304.85
445.825	290.81
446.265	311.88
446.706	269.75
447.146	403.16
447.586	365.71
448.026	265.07
448.466	307.2
448.906	290.81
449.346	321.24
449.786	288.47
450.225	316.56
450.665	346.98
451.105	293.15
451.544	307.2
451.984	295.49
452.424	272.09
452.863	288.47
453.302	330.6
453.742	309.54
454.181	351.67
454.62	321.24
455.059	332.94
455.499	358.69
455.938	316.56
456.377	253.36
456.816	358.69
457.254	337.62
457.693	288.47
458.132	332.94
458.571	349.32
459.01	311.88
459.448	339.96
459.887	286.13
460.325	346.98
460.764	307.2
461.202	339.96
461.641	279.11
462.079	300.17
462.517	358.69
462.955	295.49
463.393	283.79
463.832	272.09
464.27	368.05
464.708	372.73
465.145	332.94
465.583	316.56
466.021	297.83
466.459	330.6
466.897	304.85
467.334	361.03
467.772	323.58
468.209	215.91
468.647	185.49
469.084	314.22
469.522	248.68
469.959	318.9
470.396	372.73
470.833	323.58
471.271	351.67
471.708	361.03
472.145	330.6
472.582	318.9
473.019	328.26
473.456	309.54
473.892	295.49
474.329	344.64
474.766	325.92
475.202	297.83
475.639	311.88
476.076	323.58
476.512	272.09
476.949	300.17
477.385	314.22
477.821	288.47
478.258	290.81
478.694	358.69
479.13	325.92
479.566	304.85
480.002	300.17
480.438	321.24
480.874	344.64
481.31	309.54
481.746	332.94
482.181	251.02
482.617	288.47
483.053	337.62
483.488	344.64
483.924	304.85
484.36	314.22
484.795	300.17
485.23	316.56
485.666	365.71
486.101	258.04
486.536	318.9
486.971	283.79
487.407	332.94
487.842	311.88
488.277	351.67
488.712	302.51
489.146	354.01
489.581	272.09
490.016	335.28
490.451	328.26
490.885	339.96
491.32	332.94
491.755	255.7
492.189	314.22
492.624	297.83
493.058	330.6
493.492	262.73
493.927	269.75
494.361	314.22
494.795	309.54
495.229	335.28
495.663	363.37
496.097	370.39
496.531	272.09
496.965	321.24
497.399	375.07
497.833	323.58
498.266	379.75
498.7	297.83
499.134	307.2
499.567	335.28
500.001	342.3
500.434	244
500.868	337.62
501.301	337.62
501.734	323.58
502.168	328.26
502.601	321.24
503.034	335.28
503.467	311.88
503.9	332.94
504.333	321.24
504.766	349.32
505.199	272.09
505.632	307.2
506.064	370.39
506.497	344.64
506.93	279.11
507.362	354.01
507.795	351.67
508.227	342.3
508.66	272.09
509.092	328.26
509.524	356.35
509.956	323.58
510.389	304.85
510.821	335.28
511.253	363.37
511.685	349.32
512.117	328.26
512.549	309.54
512.981	356.35
513.412	258.04
513.844	297.83
514.276	283.79
514.707	316.56
515.139	260.38
515.571	314.22
516.002	370.39
516.433	377.41
516.865	290.81
517.296	309.54
517.727	309.54
518.159	267.41
518.59	344.64
519.021	316.56
519.452	316.56
519.883	344.64
520.314	267.41
520.744	253.36
521.175	286.13
521.606	276.77
522.037	342.3
522.467	356.35
522.898	288.47
523.328	323.58
523.759	318.9
524.189	356.35
524.62	311.88
525.05	304.85
525.48	290.81
525.91	325.92
526.341	288.47
526.771	316.56
527.201	318.9
527.631	325.92
528.061	332.94
528.49	351.67
528.92	281.45
529.35	330.6
529.78	290.81
530.209	332.94
530.639	328.26
531.068	358.69
531.498	344.64
531.927	335.28
532.357	262.73
532.786	218.25
533.215	302.51
533.644	276.77
534.074	295.49
534.503	279.11
534.932	349.32
535.361	316.56
535.79	253.36
536.218	304.85
536.647	332.94
537.076	227.62
537.505	272.09
537.933	297.83
538.362	304.85
538.79	295.49
539.219	335.28
539.647	354.01
540.076	337.62
540.504	281.45
540.932	328.26
541.36	295.49
541.788	309.54
542.217	354.01
542.645	344.64
543.073	354.01
543.5	267.41
543.928	316.56
544.356	295.49
544.784	272.09
545.211	304.85
545.639	295.49
546.067	309.54
546.494	318.9
546.922	307.2
547.349	253.36
547.776	304.85
548.204	325.92
548.631	339.96
549.058	300.17
549.485	307.2
549.912	323.58
550.339	323.58
550.766	297.83
551.193	321.24
551.62	248.68
552.047	309.54
552.474	276.77
552.9	393.8
553.327	255.7
553.754	337.62
554.18	325.92
554.607	337.62
555.033	274.43
555.459	255.7
555.886	307.2
556.312	281.45
556.738	349.32
557.164	279.11
557.59	293.15
558.016	375.07
558.442	363.37
558.868	330.6
559.294	286.13
559.72	316.56
560.145	339.96
560.571	332.94
560.997	311.88
561.422	267.41
561.848	248.68
562.273	269.75
562.699	290.81
563.124	325.92
563.549	342.3
563.974	365.71
564.4	318.9
564.825	279.11
565.25	295.49
565.675	309.54
566.1	311.88
566.525	349.32
566.95	356.35
567.374	337.62
567.799	236.98
568.224	311.88
568.648	325.92
569.073	349.32
569.497	311.88
569.922	293.15
570.346	325.92
570.771	323.58
571.195	321.24
571.619	354.01
572.043	307.2
572.467	356.35
572.891	365.71
573.315	311.88
573.739	314.22
574.163	346.98
574.587	269.75
575.011	265.07
575.435	279.11
575.858	304.85
576.282	293.15
576.705	290.81
577.129	311.88
577.552	309.54
577.976	323.58
578.399	377.41
578.822	349.32
579.245	288.47
579.669	316.56
580.092	286.13
580.515	236.98
580.938	330.6
581.361	300.17
581.784	309.54
582.206	332.94
582.629	297.83
583.052	316.56
583.474	321.24
583.897	316.56
584.32	267.41
584.742	304.85
585.165	346.98
585.587	293.15
586.009	342.3
586.431	314.22
586.854	281.45
587.276	260.38
587.698	349.32
588.12	309.54
588.542	384.43
588.964	325.92
589.386	342.3
589.807	279.11
590.229	279.11
590.651	241.66
591.073	318.9
591.494	286.13
591.916	342.3
592.337	370.39
592.759	239.32
593.18	321.24
593.601	318.9
594.022	323.58
594.444	332.94
594.865	304.85
595.286	283.79
595.707	344.64
596.128	309.54
596.549	346.98
596.97	323.58
597.39	293.15
597.811	276.77
598.232	297.83
598.652	297.83
599.073	370.39
599.494	302.51
599.914	290.81
600.334	342.3
600.755	300.17
601.175	318.9
601.595	269.75
602.015	330.6
602.436	332.94
602.856	456.99
603.276	321.24
603.696	323.58
604.115	251.02
604.535	304.85
604.955	281.45
605.375	288.47
605.794	300.17
606.214	375.07
606.634	290.81
607.053	325.92
607.473	346.98
607.892	335.28
608.311	302.51
608.731	325.92
609.15	314.22
609.569	349.32
609.988	346.98
610.407	339.96
610.826	393.8
611.245	365.71
611.664	344.64
612.083	283.79
612.501	302.51
612.92	265.07
613.339	339.96
613.757	267.41
614.176	307.2
614.594	274.43
615.013	307.2
615.431	293.15
615.85	342.3
616.268	304.85
616.686	283.79
617.104	248.68
617.522	316.56
617.94	332.94
618.358	290.81
618.776	358.69
619.194	323.58
619.612	342.3
620.03	300.17
620.447	311.88
620.865	297.83
621.282	328.26
621.7	318.9
622.117	325.92
622.535	293.15
622.952	304.85
623.369	363.37
623.787	311.88
624.204	300.17
624.621	344.64
625.038	370.39
625.455	337.62
625.872	265.07
626.289	311.88
626.706	300.17
627.123	295.49
627.539	335.28
627.956	335.28
628.373	377.41
628.789	307.2
629.206	328.26
629.622	267.41
630.038	281.45
630.455	274.43
630.871	309.54
631.287	321.24
631.703	309.54
632.12	288.47
632.536	358.69
632.952	330.6
633.368	297.83
633.783	293.15
634.199	295.49
634.615	283.79
635.031	307.2
635.446	323.58
635.862	339.96
636.277	351.67
636.693	335.28
637.108	258.04
637.524	342.3
637.939	377.41
638.354	361.03
638.77	304.85
639.185	370.39
639.6	290.81
640.015	316.56
640.43	318.9
640.845	309.54
641.259	332.94
641.674	349.32
642.089	262.73
642.504	339.96
642.918	265.07
643.333	295.49
643.747	288.47
644.162	269.75
644.576	358.69
644.991	330.6
645.405	309.54
645.819	328.26
646.233	332.94
646.647	274.43
647.061	335.28
647.475	330.6
647.889	283.79
648.303	286.13
648.717	288.47
649.131	281.45
649.545	288.47
649.958	339.96
650.372	281.45
650.785	346.98
651.199	302.51
651.612	323.58
652.026	339.96
652.439	316.56
652.852	297.83
653.266	307.2
653.679	239.32
654.092	372.73
654.505	267.41
654.918	281.45
655.331	286.13
655.744	346.98
656.156	323.58
656.569	258.04
656.982	321.24
657.394	272.09
657.807	260.38
658.22	356.35
658.632	356.35
659.044	213.57
659.457	349.32
659.869	258.04
660.281	358.69
660.693	335.28
661.106	328.26
661.518	325.92
661.93	318.9
662.342	222.94
662.754	300.17
663.165	339.96
663.577	346.98
663.989	391.45
664.401	318.9
664.812	325.92
665.224	325.92
665.635	321.24
666.047	328.26
666.458	325.92
666.869	318.9
667.281	356.35
667.692	330.6
668.103	274.43
668.514	318.9
668.925	316.56
669.336	325.92
669.747	269.75
670.158	288.47
670.569	325.92
670.979	361.03
671.39	323.58
671.801	332.94
672.211	356.35
672.622	286.13
673.032	323.58
673.443	281.45
673.853	351.67
674.263	311.88
674.674	300.17
675.084	276.77
675.494	321.24
675.904	281.45
676.314	302.51
676.724	251.02
677.134	365.71
677.544	302.51
677.953	269.75
678.363	307.2
678.773	342.3
679.182	311.88
679.592	368.05
680.001	206.55
680.411	337.62
680.82	262.73
681.23	307.2
681.639	321.24
682.048	265.07
682.457	311.88
682.866	293.15
683.275	361.03
683.684	255.7
684.093	302.51
684.502	283.79
684.911	330.6
685.32	304.85
685.728	269.75
686.137	377.41
686.546	433.58
686.954	311.88
687.363	258.04
687.771	342.3
688.179	251.02
688.588	288.47
688.996	269.75
689.404	290.81
689.812	318.9
690.22	295.49
690.628	318.9
691.036	346.98
691.444	344.64
691.852	302.51
692.26	323.58
692.667	293.15
693.075	339.96
693.483	267.41
693.89	321.24
694.298	258.04
694.705	288.47
695.112	396.14
695.52	295.49
695.927	344.64
696.334	323.58
696.741	248.68
697.148	372.73
697.555	318.9
697.962	337.62
698.369	295.49
698.776	351.67
699.183	272.09
699.59	274.43
699.996	199.53
700.403	290.81
700.81	281.45
701.216	307.2
701.623	335.28
702.029	339.96
702.435	255.7
702.842	311.88
703.248	267.41
703.654	346.98
704.06	396.14
704.466	265.07
704.872	321.24
705.278	314.22
705.684	330.6
706.09	293.15
706.496	297.83
706.901	288.47
707.307	290.81
707.712	316.56
708.118	293.15
708.523	323.58
708.929	332.94
709.334	321.24
709.74	328.26
710.145	269.75
710.55	323.58
710.955	281.45
711.36	316.56
711.765	307.2
712.17	342.3
712.575	318.9
712.98	798.71
713.385	295.49
713.789	272.09
714.194	314.22
714.599	358.69
715.003	246.34
715.408	328.26
715.812	260.38
716.217	300.17
716.621	246.34
717.025	288.47
717.429	391.45
717.833	253.36
718.238	330.6
718.642	354.01
719.046	290.81
719.449	314.22
719.853	302.51
720.257	302.51
720.661	281.45
721.065	344.64
721.468	276.77
721.872	297.83
722.275	293.15
722.679	339.96
723.082	332.94
723.485	286.13
723.889	262.73
724.292	354.01
724.695	335.28
725.098	309.54
725.501	328.26
725.904	274.43
726.307	258.04
726.71	328.26
727.113	382.09
727.516	321.24
727.918	311.88
728.321	323.58
728.724	354.01
729.126	309.54
729.529	344.64
729.931	279.11
730.333	332.94
730.736	295.49
731.138	297.83
731.54	304.85
731.942	300.17
732.344	286.13
732.746	281.45
733.148	318.9
733.55	272.09
733.952	321.24
734.354	258.04
734.756	335.28
735.157	288.47
735.559	311.88
735.96	316.56
736.362	351.67
736.763	253.36
737.165	337.62
737.566	335.28
737.967	346.98
738.368	272.09
738.77	255.7
739.171	260.38
739.572	309.54
739.973	302.51
740.374	321.24
740.774	232.3
741.175	346.98
741.576	344.64
741.977	293.15
742.377	297.83
742.778	234.64
743.178	335.28
743.579	323.58
743.979	288.47
744.379	295.49
744.78	293.15
745.18	290.81
745.58	356.35
745.98	323.58
746.38	328.26
746.78	293.15
747.18	302.51
747.58	297.83
747.98	370.39
748.38	311.88
748.779	349.32
749.179	251.02
749.578	248.68
749.978	290.81
750.377	279.11
750.777	354.01
751.176	304.85
751.575	379.75
751.975	316.56
752.374	365.71
752.773	370.39
753.172	309.54
753.571	314.22
753.97	323.58
754.369	279.11
754.768	248.68
755.166	274.43
755.565	365.71
755.964	323.58
756.362	267.41
756.761	286.13
757.159	311.88
757.558	335.28
757.956	328.26
758.354	323.58
758.753	318.9
759.151	265.07
759.549	300.17
759.947	297.83
760.345	328.26
760.743	330.6
761.141	316.56
761.539	293.15
761.936	332.94
762.334	344.64
762.732	321.24
763.129	351.67
763.527	368.05
763.924	314.22
764.322	239.32
764.719	349.32
765.117	295.49
765.514	335.28
765.911	295.49
766.308	300.17
766.705	288.47
767.102	361.03
767.499	314.22
767.896	318.9
768.293	297.83
768.69	323.58
769.086	281.45
769.483	328.26
769.88	368.05
770.276	318.9
770.673	314.22
771.069	283.79
771.466	321.24
771.862	283.79
772.258	241.66
772.654	323.58
773.05	311.88
773.447	293.15
773.843	330.6
774.239	318.9
774.634	323.58
775.03	372.73
775.426	293.15
775.822	349.32
776.218	288.47
776.613	304.85
777.009	318.9
777.404	255.7
777.8	311.88
778.195	323.58
778.59	323.58
778.986	311.88
779.381	325.92
779.776	311.88
780.171	272.09
780.566	229.96
780.961	269.75
781.356	389.11
781.751	283.79
782.146	307.2
782.54	267.41
782.935	337.62
783.33	342.3
783.724	344.64
784.119	356.35
784.513	314.22
784.908	368.05
785.302	323.58
785.696	290.81
786.09	363.37
786.485	248.68
786.879	307.2
787.273	258.04
787.667	302.51
788.061	337.62
788.454	276.77
788.848	300.17
789.242	300.17
789.636	372.73
790.029	335.28
790.423	332.94
790.816	274.43
791.21	274.43
791.603	253.36
791.997	337.62
792.39	309.54
792.783	330.6
793.176	246.34
793.569	354.01
793.962	297.83
794.355	307.2
794.748	335.28
795.141	339.96
795.534	314.22
795.927	337.62
796.319	323.58
796.712	286.13
797.105	283.79
797.497	346.98
797.89	302.51
798.282	318.9
798.674	229.96
799.067	316.56
799.459	316.56
799.851	372.73
800.243	307.2
800.635	290.81
801.027	346.98
801.419	281.45
801.811	337.62
802.203	314.22
802.594	307.2
802.986	316.56
803.378	274.43
803.769	325.92
804.161	253.36
804.552	229.96
804.944	295.49
805.335	293.15
805.726	290.81
806.118	307.2
806.509	314.22
806.9	290.81
807.291	325.92
807.682	260.38
808.073	258.04
808.464	309.54
808.855	293.15
809.245	323.58
809.636	361.03
810.027	295.49
810.417	321.24
810.808	297.83
811.198	295.49
811.589	342.3
811.979	267.41
812.369	349.32
812.759	323.58
813.15	314.22
813.54	365.71
813.93	281.45
814.32	354.01
814.71	244
815.1	276.77
815.489	274.43
815.879	293.15
816.269	318.9
816.658	354.01
817.048	389.11
817.438	344.64
817.827	302.51
818.216	297.83
818.606	267.41
818.995	332.94
819.384	337.62
819.773	358.69
820.163	304.85
820.552	328.26
820.941	304.85
821.33	330.6
821.718	321.24
822.107	318.9
822.496	260.38
822.885	290.81
823.273	265.07
823.662	372.73
824.05	279.11
824.439	328.26
824.827	279.11
825.216	279.11
825.604	286.13
825.992	370.39
826.38	297.83
826.768	244
827.156	253.36
827.544	258.04
827.932	342.3
828.32	304.85
828.708	330.6
829.096	311.88
829.483	304.85
829.871	379.75
830.259	309.54
830.646	279.11
831.034	297.83
831.421	328.26
831.808	337.62
832.196	265.07
832.583	267.41
832.97	300.17
833.357	368.05
833.744	283.79
834.131	325.92
834.518	253.36
834.905	396.14
835.292	382.09
835.678	297.83
836.065	318.9
836.452	288.47
836.838	251.02
837.225	295.49
837.611	229.96
837.998	283.79
838.384	332.94
838.77	375.07
839.157	346.98
839.543	337.62
839.929	265.07
840.315	286.13
840.701	372.73
841.087	316.56
841.473	283.79
841.858	321.24
842.244	286.13
842.63	258.04
843.015	290.81
843.401	592.74
843.787	283.79
844.172	295.49
844.557	234.64
844.943	321.24
845.328	311.88
845.713	288.47
846.098	290.81
846.483	307.2
846.868	199.53
847.253	251.02
847.638	356.35
848.023	316.56
848.408	290.81
848.793	363.37
849.177	332.94
849.562	269.75
849.947	304.85
850.331	260.38
850.715	215.91
851.1	323.58
851.484	300.17
851.868	304.85
852.253	304.85
852.637	307.2
853.021	290.81
853.405	311.88
853.789	342.3
854.173	342.3
854.557	318.9
854.94	269.75
855.324	307.2
855.708	332.94
856.091	314.22
856.475	354.01
856.858	258.04
857.242	286.13
857.625	234.64
858.009	332.94
858.392	309.54
858.775	309.54
859.158	304.85
859.541	255.7
859.924	229.96
860.307	288.47
860.69	330.6
861.073	304.85
861.456	335.28
861.838	314.22
862.221	272.09
862.604	297.83
862.986	281.45
863.369	290.81
863.751	337.62
864.133	325.92
864.516	356.35
864.898	255.7
865.28	255.7
865.662	321.24
866.044	286.13
866.426	330.6
866.808	316.56
867.19	293.15
867.572	311.88
867.954	281.45
868.336	316.56
868.717	309.54
869.099	302.51
869.48	255.7
869.862	302.51
870.243	323.58
870.625	307.2
871.006	302.51
871.387	354.01
871.768	293.15
872.149	304.85
872.53	314.22
872.911	302.51
873.292	234.64
873.673	344.64
874.054	309.54
874.435	258.04
874.815	302.51
875.196	354.01
875.577	314.22
875.957	293.15
876.338	314.22
876.718	363.37
877.098	337.62
877.479	309.54
877.859	307.2
878.239	318.9
878.619	248.68
878.999	316.56
879.379	349.32
879.759	272.09
880.139	316.56
880.519	304.85
880.898	309.54
881.278	330.6
881.658	269.75
882.037	272.09
882.417	309.54
882.796	297.83
883.176	297.83
883.555	267.41
883.934	339.96
884.313	330.6
884.693	318.9
885.072	281.45
885.451	337.62
885.83	325.92
886.209	311.88
886.587	274.43
886.966	241.66
887.345	218.25
887.724	356.35
888.102	251.02
888.481	302.51
888.859	286.13
889.238	321.24
889.616	279.11
889.994	281.45
890.373	293.15
890.751	290.81
891.129	358.69
891.507	314.22
891.885	307.2
892.263	269.75
892.641	363.37
893.019	325.92
893.396	281.45
893.774	346.98
894.152	286.13
894.529	365.71
894.907	300.17
895.284	293.15
895.662	377.41
896.039	281.45
896.416	274.43
896.794	311.88
897.171	222.94
897.548	325.92
897.925	297.83
898.302	279.11
898.679	339.96
899.056	276.77
899.433	300.17
899.809	286.13
900.186	314.22
900.563	344.64
900.939	318.9
901.316	368.05
901.692	314.22
902.069	361.03
902.445	244
902.821	274.43
903.197	274.43
903.574	332.94
903.95	309.54
904.326	368.05
904.702	311.88
905.078	246.34
905.454	314.22
905.829	354.01
906.205	269.75
906.581	293.15
906.956	279.11
907.332	234.64
907.707	323.58
908.083	323.58
908.458	274.43
908.833	276.77
909.209	279.11
909.584	323.58
909.959	262.73
910.334	335.28
910.709	337.62
911.084	286.13
911.459	248.68
911.834	325.92
912.209	337.62
912.583	377.41
912.958	314.22
913.333	206.55
913.707	361.03
914.082	251.02
914.456	297.83
914.83	220.6
915.205	302.51
915.579	248.68
915.953	304.85
916.327	272.09
916.701	309.54
917.075	330.6
917.449	375.07
917.823	276.77
918.197	297.83
918.571	330.6
918.944	344.64
919.318	222.94
919.692	290.81
920.065	323.58
920.438	297.83
920.812	323.58
921.185	253.36
921.558	255.7
921.932	295.49
922.305	272.09
922.678	276.77
923.051	293.15
923.424	307.2
923.797	272.09
924.17	321.24
924.542	300.17
924.915	335.28
925.288	304.85
925.661	311.88
926.033	279.11
926.406	232.3
926.778	309.54
927.15	365.71
927.523	293.15
927.895	290.81
928.267	262.73
928.639	265.07
929.011	325.92
929.383	288.47
929.755	297.83
930.127	265.07
930.499	255.7
930.871	276.77
931.242	351.67
931.614	295.49
931.986	251.02
932.357	358.69
932.729	295.49
933.1	323.58
933.471	323.58
933.843	290.81
934.214	358.69
934.585	309.54
934.956	300.17
935.327	323.58
935.698	344.64
936.069	339.96
936.44	302.51
936.811	311.88
937.182	314.22
937.552	239.32
937.923	297.83
938.293	251.02
938.664	297.83
939.034	393.8
939.405	323.58
939.775	295.49
940.145	290.81
940.516	258.04
940.886	302.51
941.256	253.36
941.626	229.96
941.996	325.92
942.366	276.77
942.735	269.75
943.105	246.34
943.475	370.39
943.845	295.49
944.214	290.81
944.584	314.22
944.953	410.18
945.323	304.85
945.692	342.3
946.061	344.64
946.43	328.26
946.8	253.36
947.169	304.85
947.538	318.9
947.907	281.45
948.276	311.88
948.645	293.15
949.013	361.03
949.382	265.07
949.751	311.88
950.119	335.28
950.488	335.28
950.857	309.54
951.225	297.83
951.593	321.24
951.962	346.98
952.33	346.98
952.698	311.88
953.066	244
953.434	241.66
953.802	302.51
954.17	283.79
954.538	344.64
954.906	307.2
955.274	253.36
955.642	311.88
956.009	283.79
956.377	323.58
956.744	356.35
957.112	297.83
957.479	311.88
957.847	283.79
958.214	290.81
958.581	279.11
958.948	318.9
959.315	321.24
959.683	279.11
960.05	227.62
960.416	323.58
960.783	368.05
961.15	227.62
961.517	239.32
961.884	302.51
962.25	281.45
962.617	293.15
962.983	297.83
963.35	309.54
963.716	344.64
964.082	288.47
964.449	251.02
964.815	215.91
965.181	279.11
965.547	295.49
965.913	300.17
966.279	314.22
966.645	288.47
967.011	225.28
967.377	346.98
967.742	321.24
968.108	328.26
968.474	389.11
968.839	325.92
969.205	293.15
969.57	293.15
969.935	293.15
970.301	290.81
970.666	342.3
971.031	316.56
971.396	377.41
971.761	288.47
972.126	368.05
972.491	239.32
972.856	304.85
973.221	218.25
973.586	300.17
973.95	265.07
974.315	309.54
974.679	272.09
975.044	311.88
975.408	288.47
975.773	279.11
976.137	339.96
976.501	269.75
976.866	297.83
977.23	318.9
977.594	314.22
977.958	325.92
978.322	356.35
978.686	248.68
979.049	307.2
979.413	309.54
979.777	337.62
980.141	260.38
980.504	286.13
980.868	300.17
981.231	302.51
981.595	269.75
981.958	267.41
982.321	290.81
982.684	302.51
983.048	293.15
983.411	370.39
983.774	304.85
984.137	358.69
984.5	274.43
984.862	349.32
985.225	328.26
985.588	290.81
985.951	358.69
986.313	311.88
986.676	283.79
987.038	265.07
987.401	274.43
987.763	363.37
988.125	386.77
988.488	251.02
988.85	349.32
989.212	297.83
989.574	281.45
989.936	279.11
990.298	309.54
990.66	279.11
991.022	314.22
991.383	241.66
991.745	323.58
992.107	321.24
992.468	258.04
992.83	286.13
993.191	337.62
993.553	262.73
993.914	330.6
994.275	309.54
994.637	281.45
994.998	321.24
995.359	274.43
995.72	335.28
996.081	339.96
996.442	363.37
996.803	335.28
997.163	241.66
997.524	248.68
997.885	325.92
998.245	286.13
998.606	267.41
998.966	337.62
999.327	258.04
999.687	300.17
1000.047	314.22
1000.408	337.62
1000.768	265.07
1001.128	365.71
1001.488	288.47
1001.848	304.85
1002.208	293.15
1002.568	368.05
1002.927	330.6
1003.287	309.54
1003.647	361.03
1004.007	283.79
1004.366	213.57
1004.726	265.07
1005.085	363.37
1005.444	290.81
1005.804	302.51
1006.163	281.45
1006.522	311.88
1006.881	323.58
1007.24	283.79
1007.599	260.38
1007.958	335.28
1008.317	297.83
1008.676	262.73
1009.035	288.47
1009.393	314.22
1009.752	286.13
1010.111	328.26
1010.469	269.75
1010.828	314.22
1011.186	290.81
1011.544	323.58
1011.903	339.96
1012.261	342.3
1012.619	314.22
1012.977	316.56
1013.335	314.22
1013.693	255.7
1014.051	295.49
1014.409	318.9
1014.767	286.13
1015.124	337.62
1015.482	363.37
1015.84	309.54
1016.197	372.73
1016.555	258.04
1016.912	293.15
1017.269	300.17
1017.627	260.38
1017.984	314.22
1018.341	300.17
1018.698	330.6
1019.055	302.51
1019.412	318.9
1019.769	332.94
1020.126	269.75
1020.483	302.51
1020.84	251.02
1021.196	293.15
1021.553	361.03
1021.909	318.9
1022.266	316.56
1022.622	323.58
1022.979	316.56
1023.335	361.03
1023.691	297.83
1024.047	332.94
1024.404	300.17
1024.76	281.45
1025.116	295.49
1025.472	365.71
1025.827	248.68
1026.183	302.51
1026.539	316.56
1026.895	332.94
1027.25	293.15
1027.606	332.94
1027.961	316.56
1028.317	253.36
1028.672	290.81
1029.028	260.38
1029.383	323.58
1029.738	304.85
1030.093	279.11
1030.448	283.79
1030.803	351.67
1031.158	337.62
1031.513	309.54
1031.868	346.98
1032.223	335.28
1032.577	351.67
1032.932	293.15
1033.287	330.6
1033.641	307.2
1033.996	286.13
1034.35	276.77
1034.704	246.34
1035.059	293.15
1035.413	272.09
1035.767	272.09
1036.121	272.09
