Data from Al_FLMS009871__659__15-00-36-696.txt Node

Date: Fri Mar 08 15:00:36 CST 2024
User: pe5414po
Spectrometer: FLMS00987
Trigger mode: 0
Integration Time (sec): 1.000000E-1
Scans to average: 1
Electric dark correction enabled: true
Nonlinearity correction enabled: false
Boxcar width: 0
XAxis mode: Wavelengths
Number of Pixels in Spectrum: 2048
>>>>>Begin Spectral Data<<<<<
188.938	-37.59
189.409	-37.59
189.879	-37.59
190.349	-119.51
190.819	-126.54
191.29	-119.51
191.76	-126.54
192.23	-91.43
192.7	-119.51
193.17	-42.28
193.64	-44.62
194.109	-107.81
194.579	11.56
195.049	34.96
195.519	23.26
195.988	58.37
196.458	27.94
196.927	72.41
197.397	130.92
197.866	154.33
198.336	137.95
198.805	109.86
199.274	135.6
199.744	166.03
200.213	182.42
200.682	177.73
201.151	205.82
201.62	187.1
202.089	229.23
202.558	210.5
203.027	283.06
203.495	236.25
203.964	245.61
204.433	238.59
204.902	238.59
205.37	250.29
205.839	273.7
206.307	329.87
206.776	313.49
207.244	290.08
207.712	252.63
208.181	287.74
208.649	226.89
209.117	257.31
209.585	273.7
210.053	357.96
210.521	280.72
210.989	222.2
211.457	313.49
211.925	269.02
212.393	287.74
212.861	222.2
213.328	243.27
213.796	276.04
214.264	201.14
214.731	294.76
215.199	247.95
215.666	287.74
216.133	276.04
216.601	294.76
217.068	271.36
217.535	308.8
218.003	205.82
218.47	252.63
218.937	233.91
219.404	194.12
219.871	269.02
220.338	301.78
220.805	203.48
221.271	250.29
221.738	229.23
222.205	219.86
222.671	254.97
223.138	252.63
223.605	276.04
224.071	233.91
224.538	233.91
225.004	269.02
225.47	236.25
225.937	252.63
226.403	180.07
226.869	217.52
227.335	247.95
227.801	287.74
228.267	194.12
228.733	292.42
229.199	301.78
229.665	210.5
230.131	238.59
230.597	252.63
231.062	208.16
231.528	226.89
231.994	276.04
232.459	299.44
232.925	240.93
233.39	222.2
233.856	217.52
234.321	252.63
234.786	292.42
235.252	271.36
235.717	252.63
236.182	236.25
236.647	269.02
237.112	226.89
237.577	240.93
238.042	250.29
238.507	269.02
238.972	229.23
239.436	278.38
239.901	318.17
240.366	229.23
240.83	280.72
241.295	247.95
241.76	360.3
242.224	259.65
242.688	290.08
243.153	259.65
243.617	280.72
244.081	280.72
244.545	313.49
245.01	240.93
245.474	299.44
245.938	329.87
246.402	292.42
246.866	219.86
247.33	233.91
247.793	250.29
248.257	236.25
248.721	287.74
249.185	233.91
249.648	273.7
250.112	210.5
250.575	311.14
251.039	322.85
251.502	269.02
251.965	254.97
252.429	266.67
252.892	240.93
253.355	280.72
253.818	341.57
254.281	283.06
254.744	280.72
255.207	276.04
255.67	273.7
256.133	313.49
256.596	269.02
257.059	297.1
257.522	271.36
257.984	250.29
258.447	266.67
258.909	285.4
259.372	276.04
259.834	245.61
260.297	318.17
260.759	327.53
261.221	294.76
261.684	243.27
262.146	264.33
262.608	329.87
263.07	254.97
263.532	233.91
263.994	320.51
264.456	306.46
264.918	339.23
265.38	273.7
265.842	254.97
266.303	306.46
266.765	290.08
267.227	278.38
267.688	297.1
268.15	292.42
268.611	299.44
269.072	306.46
269.534	280.72
269.995	285.4
270.456	297.1
270.918	259.65
271.379	219.86
271.84	226.89
272.301	252.63
272.762	210.5
273.223	243.27
273.684	290.08
274.144	245.61
274.605	250.29
275.066	290.08
275.527	311.14
275.987	297.1
276.448	240.93
276.908	261.99
277.369	287.74
277.829	292.42
278.289	336.89
278.75	285.4
279.21	254.97
279.67	243.27
280.13	278.38
280.59	273.7
281.05	304.12
281.51	311.14
281.97	287.74
282.43	304.12
282.89	311.14
283.35	271.36
283.809	226.89
284.269	266.67
284.729	313.49
285.188	226.89
285.648	245.61
286.107	348.59
286.567	266.67
287.026	308.8
287.485	311.14
287.944	297.1
288.404	245.61
288.863	299.44
289.322	189.44
289.781	292.42
290.24	318.17
290.699	254.97
291.158	287.74
291.616	287.74
292.075	278.38
292.534	301.78
292.992	301.78
293.451	276.04
293.91	285.4
294.368	276.04
294.827	297.1
295.285	208.16
295.743	313.49
296.202	257.31
296.66	238.59
297.118	280.72
297.576	264.33
298.034	233.91
298.492	308.8
298.95	280.72
299.408	231.57
299.866	245.61
300.324	301.78
300.781	264.33
301.239	278.38
301.697	304.12
302.154	334.55
302.612	240.93
303.069	222.2
303.527	280.72
303.984	266.67
304.441	201.14
304.899	271.36
305.356	219.86
305.813	236.25
306.27	280.72
306.727	247.95
307.184	269.02
307.641	285.4
308.098	297.1
308.555	273.7
309.012	299.44
309.468	313.49
309.925	252.63
310.382	280.72
310.838	306.46
311.295	269.02
311.751	322.85
312.208	325.19
312.664	339.23
313.12	290.08
313.577	313.49
314.033	318.17
314.489	318.17
314.945	264.33
315.401	348.59
315.857	247.95
316.313	273.7
316.769	339.23
317.225	240.93
317.681	297.1
318.136	327.53
318.592	250.29
319.048	334.55
319.503	243.27
319.959	308.8
320.414	264.33
320.869	252.63
321.325	285.4
321.78	315.83
322.235	273.7
322.691	334.55
323.146	259.65
323.601	261.99
324.056	327.53
324.511	283.06
324.966	201.14
325.421	290.08
325.875	315.83
326.33	339.23
326.785	320.51
327.24	355.62
327.694	325.19
328.149	355.62
328.603	292.42
329.058	301.78
329.512	292.42
329.966	238.59
330.421	250.29
330.875	226.89
331.329	250.29
331.783	250.29
332.237	280.72
332.691	290.08
333.145	217.52
333.599	318.17
334.053	238.59
334.507	269.02
334.96	269.02
335.414	311.14
335.868	287.74
336.321	257.31
336.775	261.99
337.228	229.23
337.682	250.29
338.135	327.53
338.588	299.44
339.042	259.65
339.495	271.36
339.948	332.21
340.401	334.55
340.854	254.97
341.307	271.36
341.76	273.7
342.213	233.91
342.666	266.67
343.119	306.46
343.571	329.87
344.024	278.38
344.477	250.29
344.929	332.21
345.382	322.85
345.834	301.78
346.287	290.08
346.739	290.08
347.191	299.44
347.644	299.44
348.096	273.7
348.548	325.19
349	320.51
349.452	245.61
349.904	231.57
350.356	301.78
350.808	299.44
351.26	315.83
351.711	269.02
352.163	318.17
352.615	306.46
353.066	343.91
353.518	299.44
353.969	252.63
354.421	208.16
354.872	266.67
355.324	327.53
355.775	259.65
356.226	343.91
356.677	381.36
357.128	261.99
357.579	283.06
358.03	336.89
358.481	294.76
358.932	299.44
359.383	273.7
359.834	301.78
360.285	254.97
360.735	280.72
361.186	292.42
361.637	306.46
362.087	273.7
362.538	245.61
362.988	264.33
363.438	311.14
363.889	247.95
364.339	250.29
364.789	409.45
365.239	236.25
365.689	287.74
366.139	308.8
366.589	313.49
367.039	350.93
367.489	325.19
367.939	304.12
368.389	306.46
368.839	346.25
369.288	271.36
369.738	229.23
370.187	299.44
370.637	261.99
371.086	348.59
371.536	297.1
371.985	346.25
372.434	348.59
372.884	297.1
373.333	254.97
373.782	285.4
374.231	269.02
374.68	315.83
375.129	247.95
375.578	320.51
376.027	266.67
376.475	304.12
376.924	336.89
377.373	313.49
377.822	254.97
378.27	261.99
378.719	294.76
379.167	222.2
379.616	299.44
380.064	292.42
380.512	301.78
380.961	285.4
381.409	285.4
381.857	292.42
382.305	254.97
382.753	273.7
383.201	346.25
383.649	294.76
384.097	264.33
384.545	287.74
384.992	301.78
385.44	278.38
385.888	290.08
386.335	254.97
386.783	290.08
387.231	273.7
387.678	276.04
388.125	320.51
388.573	301.78
389.02	269.02
389.467	283.06
389.914	360.3
390.362	353.27
390.809	287.74
391.256	313.49
391.703	292.42
392.15	350.93
392.596	369.66
393.043	299.44
393.49	285.4
393.937	273.7
394.383	322.85
394.83	285.4
395.276	240.93
395.723	294.76
396.169	254.97
396.616	294.76
397.062	308.8
397.508	294.76
397.954	280.72
398.401	264.33
398.847	346.25
399.293	348.59
399.739	266.67
400.185	264.33
400.631	353.27
401.076	236.25
401.522	278.38
401.968	308.8
402.414	395.4
402.859	355.62
403.305	264.33
403.75	332.21
404.196	315.83
404.641	254.97
405.086	259.65
405.532	320.51
405.977	219.86
406.422	318.17
406.867	297.1
407.312	313.49
407.757	315.83
408.202	318.17
408.647	325.19
409.092	261.99
409.537	276.04
409.982	318.17
410.426	315.83
410.871	294.76
411.316	315.83
411.76	294.76
412.205	301.78
412.649	276.04
413.093	318.17
413.538	304.12
413.982	341.57
414.426	236.25
414.87	336.89
415.314	287.74
415.758	304.12
416.202	257.31
416.646	334.55
417.09	339.23
417.534	276.04
417.978	304.12
418.421	261.99
418.865	313.49
419.309	269.02
419.752	304.12
420.196	322.85
420.639	254.97
421.083	229.23
421.526	327.53
421.969	313.49
422.412	290.08
422.856	240.93
423.299	313.49
423.742	245.61
424.185	261.99
424.628	353.27
425.071	280.72
425.513	294.76
425.956	240.93
426.399	348.59
426.842	322.85
427.284	301.78
427.727	355.62
428.169	346.25
428.612	292.42
429.054	252.63
429.497	315.83
429.939	245.61
430.381	278.38
430.823	329.87
431.265	278.38
431.707	276.04
432.149	297.1
432.591	285.4
433.033	273.7
433.475	280.72
433.917	313.49
434.359	318.17
434.8	327.53
435.242	306.46
435.684	311.14
436.125	327.53
436.567	301.78
437.008	315.83
437.449	271.36
437.891	334.55
438.332	254.97
438.773	226.89
439.214	304.12
439.656	273.7
440.097	313.49
440.538	315.83
440.978	306.46
441.419	290.08
441.86	306.46
442.301	243.27
442.742	304.12
443.182	219.86
443.623	292.42
444.063	261.99
444.504	311.14
444.944	318.17
445.385	336.89
445.825	283.06
446.265	269.02
446.706	250.29
447.146	283.06
447.586	353.27
448.026	306.46
448.466	271.36
448.906	393.06
449.346	254.97
449.786	238.59
450.225	252.63
450.665	325.19
451.105	343.91
451.544	311.14
451.984	266.67
452.424	343.91
452.863	318.17
453.302	299.44
453.742	343.91
454.181	285.4
454.62	299.44
455.059	283.06
455.499	273.7
455.938	341.57
456.377	266.67
456.816	264.33
457.254	292.42
457.693	320.51
458.132	299.44
458.571	285.4
459.01	250.29
459.448	287.74
459.887	292.42
460.325	287.74
460.764	252.63
461.202	261.99
461.641	308.8
462.079	301.78
462.517	327.53
462.955	334.55
463.393	301.78
463.832	278.38
464.27	311.14
464.708	259.65
465.145	322.85
465.583	315.83
466.021	266.67
466.459	339.23
466.897	276.04
467.334	304.12
467.772	252.63
468.209	294.76
468.647	250.29
469.084	379.02
469.522	322.85
469.959	320.51
470.396	266.67
470.833	261.99
471.271	238.59
471.708	336.89
472.145	367.32
472.582	247.95
473.019	348.59
473.456	285.4
473.892	334.55
474.329	269.02
474.766	318.17
475.202	334.55
475.639	336.89
476.076	350.93
476.512	271.36
476.949	236.25
477.385	346.25
477.821	301.78
478.258	271.36
478.694	297.1
479.13	245.61
479.566	306.46
480.002	311.14
480.438	306.46
480.874	294.76
481.31	325.19
481.746	290.08
482.181	264.33
482.617	327.53
483.053	304.12
483.488	318.17
483.924	297.1
484.36	287.74
484.795	339.23
485.23	304.12
485.666	315.83
486.101	332.21
486.536	308.8
486.971	325.19
487.407	355.62
487.842	299.44
488.277	304.12
488.712	301.78
489.146	276.04
489.581	287.74
490.016	297.1
490.451	261.99
490.885	297.1
491.32	304.12
491.755	313.49
492.189	285.4
492.624	250.29
493.058	318.17
493.492	332.21
493.927	271.36
494.361	271.36
494.795	364.98
495.229	367.32
495.663	257.31
496.097	287.74
496.531	339.23
496.965	287.74
497.399	273.7
497.833	336.89
498.266	308.8
498.7	240.93
499.134	280.72
499.567	315.83
500.001	325.19
500.434	273.7
500.868	374.34
501.301	343.91
501.734	327.53
502.168	308.8
502.601	334.55
503.034	292.42
503.467	266.67
503.9	311.14
504.333	315.83
504.766	318.17
505.199	297.1
505.632	266.67
506.064	283.06
506.497	290.08
506.93	297.1
507.362	290.08
507.795	341.57
508.227	315.83
508.66	283.06
509.092	350.93
509.524	264.33
509.956	299.44
510.389	304.12
510.821	236.25
511.253	346.25
511.685	245.61
512.117	311.14
512.549	299.44
512.981	297.1
513.412	306.46
513.844	362.64
514.276	334.55
514.707	259.65
515.139	299.44
515.571	327.53
516.002	266.67
516.433	308.8
516.865	318.17
517.296	306.46
517.727	329.87
518.159	299.44
518.59	292.42
519.021	315.83
519.452	252.63
519.883	292.42
520.314	254.97
520.744	283.06
521.175	304.12
521.606	386.04
522.037	245.61
522.467	240.93
522.898	315.83
523.328	276.04
523.759	245.61
524.189	301.78
524.62	322.85
525.05	332.21
525.48	280.72
525.91	329.87
526.341	254.97
526.771	308.8
527.201	308.8
527.631	301.78
528.061	372
528.49	297.1
528.92	311.14
529.35	264.33
529.78	334.55
530.209	336.89
530.639	304.12
531.068	301.78
531.498	320.51
531.927	299.44
532.357	325.19
532.786	285.4
533.215	343.91
533.644	315.83
534.074	376.68
534.503	313.49
534.932	290.08
535.361	304.12
535.79	332.21
536.218	320.51
536.647	271.36
537.076	329.87
537.505	313.49
537.933	257.31
538.362	329.87
538.79	325.19
539.219	395.4
539.647	299.44
540.076	341.57
540.504	287.74
540.932	318.17
541.36	297.1
541.788	259.65
542.217	294.76
542.645	304.12
543.073	264.33
543.5	350.93
543.928	308.8
544.356	369.66
544.784	238.59
545.211	301.78
545.639	355.62
546.067	259.65
546.494	313.49
546.922	341.57
547.349	278.38
547.776	292.42
548.204	327.53
548.631	257.31
549.058	233.91
549.485	280.72
549.912	334.55
550.339	329.87
550.766	290.08
551.193	254.97
551.62	250.29
552.047	308.8
552.474	269.02
552.9	311.14
553.327	306.46
553.754	247.95
554.18	376.68
554.607	280.72
555.033	343.91
555.459	318.17
555.886	294.76
556.312	372
556.738	273.7
557.164	332.21
557.59	334.55
558.016	261.99
558.442	327.53
558.868	217.52
559.294	318.17
559.72	299.44
560.145	273.7
560.571	259.65
560.997	315.83
561.422	292.42
561.848	297.1
562.273	306.46
562.699	219.86
563.124	355.62
563.549	376.68
563.974	294.76
564.4	308.8
564.825	308.8
565.25	259.65
565.675	329.87
566.1	327.53
566.525	264.33
566.95	236.25
567.374	336.89
567.799	269.02
568.224	315.83
568.648	254.97
569.073	264.33
569.497	264.33
569.922	304.12
570.346	332.21
570.771	320.51
571.195	283.06
571.619	339.23
572.043	304.12
572.467	332.21
572.891	231.57
573.315	301.78
573.739	348.59
574.163	261.99
574.587	364.98
575.011	327.53
575.435	245.61
575.858	334.55
576.282	320.51
576.705	348.59
577.129	315.83
577.552	343.91
577.976	261.99
578.399	306.46
578.822	325.19
579.245	313.49
579.669	294.76
580.092	292.42
580.515	322.85
580.938	313.49
581.361	350.93
581.784	304.12
582.206	343.91
582.629	285.4
583.052	285.4
583.474	313.49
583.897	327.53
584.32	327.53
584.742	318.17
585.165	322.85
585.587	280.72
586.009	348.59
586.431	292.42
586.854	278.38
587.276	299.44
587.698	339.23
588.12	283.06
588.542	325.19
588.964	346.25
589.386	353.27
589.807	320.51
590.229	311.14
590.651	285.4
591.073	292.42
591.494	308.8
591.916	292.42
592.337	348.59
592.759	261.99
593.18	203.48
593.601	287.74
594.022	240.93
594.444	315.83
594.865	348.59
595.286	318.17
595.707	360.3
596.128	294.76
596.549	290.08
596.97	329.87
597.39	269.02
597.811	285.4
598.232	318.17
598.652	343.91
599.073	315.83
599.494	327.53
599.914	290.08
600.334	283.06
600.755	261.99
601.175	313.49
601.595	236.25
602.015	311.14
602.436	343.91
602.856	372
603.276	350.93
603.696	329.87
604.115	259.65
604.535	247.95
604.955	261.99
605.375	238.59
605.794	245.61
606.214	247.95
606.634	243.27
607.053	353.27
607.473	336.89
607.892	301.78
608.311	290.08
608.731	320.51
609.15	285.4
609.569	259.65
609.988	311.14
610.407	278.38
610.826	329.87
611.245	280.72
611.664	280.72
612.083	278.38
612.501	266.67
612.92	362.64
613.339	301.78
613.757	348.59
614.176	280.72
614.594	261.99
615.013	322.85
615.431	315.83
615.85	269.02
616.268	259.65
616.686	287.74
617.104	261.99
617.522	322.85
617.94	299.44
618.358	304.12
618.776	247.95
619.194	301.78
619.612	308.8
620.03	334.55
620.447	243.27
620.865	304.12
621.282	306.46
621.7	315.83
622.117	294.76
622.535	325.19
622.952	360.3
623.369	332.21
623.787	355.62
624.204	332.21
624.621	322.85
625.038	322.85
625.455	252.63
625.872	283.06
626.289	285.4
626.706	290.08
627.123	322.85
627.539	287.74
627.956	311.14
628.373	290.08
628.789	372
629.206	290.08
629.622	336.89
630.038	343.91
630.455	273.7
630.871	304.12
631.287	348.59
631.703	254.97
632.12	261.99
632.536	339.23
632.952	313.49
633.368	367.32
633.783	273.7
634.199	334.55
634.615	362.64
635.031	294.76
635.446	283.06
635.862	264.33
636.277	276.04
636.693	299.44
637.108	280.72
637.524	287.74
637.939	301.78
638.354	308.8
638.77	301.78
639.185	367.32
639.6	318.17
640.015	381.36
640.43	306.46
640.845	254.97
641.259	315.83
641.674	283.06
642.089	294.76
642.504	290.08
642.918	254.97
643.333	364.98
643.747	297.1
644.162	322.85
644.576	325.19
644.991	259.65
645.405	339.23
645.819	308.8
646.233	336.89
646.647	355.62
647.061	280.72
647.475	264.33
647.889	400.09
648.303	292.42
648.717	357.96
649.131	297.1
649.545	287.74
649.958	261.99
650.372	254.97
650.785	231.57
651.199	219.86
651.612	238.59
652.026	292.42
652.439	306.46
652.852	276.04
653.266	313.49
653.679	229.23
654.092	283.06
654.505	304.12
654.918	332.21
655.331	294.76
655.744	271.36
656.156	339.23
656.569	299.44
656.982	294.76
657.394	243.27
657.807	301.78
658.22	283.06
658.632	297.1
659.044	327.53
659.457	297.1
659.869	329.87
660.281	315.83
660.693	266.67
661.106	259.65
661.518	327.53
661.93	357.96
662.342	304.12
662.754	299.44
663.165	304.12
663.577	339.23
663.989	329.87
664.401	257.31
664.812	334.55
665.224	285.4
665.635	231.57
666.047	315.83
666.458	318.17
666.869	252.63
667.281	304.12
667.692	304.12
668.103	374.34
668.514	250.29
668.925	325.19
669.336	219.86
669.747	355.62
670.158	315.83
670.569	304.12
670.979	332.21
671.39	346.25
671.801	301.78
672.211	332.21
672.622	332.21
673.032	299.44
673.443	283.06
673.853	334.55
674.263	294.76
674.674	290.08
675.084	320.51
675.494	315.83
675.904	304.12
676.314	346.25
676.724	287.74
677.134	320.51
677.544	233.91
677.953	299.44
678.363	297.1
678.773	350.93
679.182	301.78
679.592	320.51
680.001	315.83
680.411	229.23
680.82	294.76
681.23	264.33
681.639	250.29
682.048	299.44
682.457	294.76
682.866	355.62
683.275	269.02
683.684	336.89
684.093	372
684.502	224.55
684.911	287.74
685.32	280.72
685.728	264.33
686.137	350.93
686.546	283.06
686.954	360.3
687.363	287.74
687.771	231.57
688.179	271.36
688.588	362.64
688.996	336.89
689.404	304.12
689.812	313.49
690.22	250.29
690.628	271.36
691.036	325.19
691.444	229.23
691.852	313.49
692.26	332.21
692.667	269.02
693.075	304.12
693.483	294.76
693.89	304.12
694.298	350.93
694.705	318.17
695.112	290.08
695.52	355.62
695.927	313.49
696.334	299.44
696.741	343.91
697.148	297.1
697.555	283.06
697.962	285.4
698.369	203.48
698.776	261.99
699.183	276.04
699.59	222.2
699.996	318.17
700.403	271.36
700.81	278.38
701.216	299.44
701.623	374.34
702.029	320.51
702.435	320.51
702.842	336.89
703.248	320.51
703.654	334.55
704.06	334.55
704.466	259.65
704.872	278.38
705.278	301.78
705.684	257.31
706.09	318.17
706.496	308.8
706.901	252.63
707.307	283.06
707.712	308.8
708.118	386.04
708.523	283.06
708.929	329.87
709.334	278.38
709.74	329.87
710.145	264.33
710.55	301.78
710.955	362.64
711.36	346.25
711.765	254.97
712.17	311.14
712.575	315.83
712.98	809.68
713.385	315.83
713.789	273.7
714.194	287.74
714.599	252.63
715.003	304.12
715.408	336.89
715.812	306.46
716.217	243.27
716.621	339.23
717.025	299.44
717.429	283.06
717.833	261.99
718.238	325.19
718.642	283.06
719.046	311.14
719.449	306.46
719.853	315.83
720.257	299.44
720.661	283.06
721.065	297.1
721.468	350.93
721.872	304.12
722.275	287.74
722.679	287.74
723.082	271.36
723.485	285.4
723.889	350.93
724.292	304.12
724.695	304.12
725.098	325.19
725.501	355.62
725.904	276.04
726.307	346.25
726.71	299.44
727.113	294.76
727.516	311.14
727.918	318.17
728.321	254.97
728.724	287.74
729.126	336.89
729.529	334.55
729.931	292.42
730.333	240.93
730.736	266.67
731.138	301.78
731.54	271.36
731.942	269.02
732.344	290.08
732.746	327.53
733.148	297.1
733.55	329.87
733.952	364.98
734.354	325.19
734.756	292.42
735.157	332.21
735.559	273.7
735.96	311.14
736.362	299.44
736.763	329.87
737.165	322.85
737.566	269.02
737.967	301.78
738.368	278.38
738.77	353.27
739.171	332.21
739.572	290.08
739.973	273.7
740.374	379.02
740.774	299.44
741.175	346.25
741.576	348.59
741.977	292.42
742.377	271.36
742.778	245.61
743.178	292.42
743.579	320.51
743.979	353.27
744.379	390.72
744.78	320.51
745.18	259.65
745.58	301.78
745.98	294.76
746.38	332.21
746.78	311.14
747.18	271.36
747.58	320.51
747.98	229.23
748.38	266.67
748.779	278.38
749.179	264.33
749.578	264.33
749.978	336.89
750.377	313.49
750.777	280.72
751.176	292.42
751.575	245.61
751.975	273.7
752.374	252.63
752.773	250.29
753.172	269.02
753.571	236.25
753.97	320.51
754.369	315.83
754.768	322.85
755.166	243.27
755.565	273.7
755.964	250.29
756.362	322.85
756.761	322.85
757.159	222.2
757.558	250.29
757.956	350.93
758.354	360.3
758.753	266.67
759.151	294.76
759.549	299.44
759.947	318.17
760.345	304.12
760.743	290.08
761.141	196.46
761.539	297.1
761.936	269.02
762.334	224.55
762.732	353.27
763.129	339.23
763.527	341.57
763.924	299.44
764.322	287.74
764.719	336.89
765.117	278.38
765.514	304.12
765.911	367.32
766.308	318.17
766.705	273.7
767.102	290.08
767.499	318.17
767.896	245.61
768.293	287.74
768.69	212.84
769.086	283.06
769.483	311.14
769.88	283.06
770.276	261.99
770.673	313.49
771.069	292.42
771.466	283.06
771.862	306.46
772.258	343.91
772.654	322.85
773.05	343.91
773.447	334.55
773.843	257.31
774.239	233.91
774.634	318.17
775.03	341.57
775.426	257.31
775.822	336.89
776.218	329.87
776.613	301.78
777.009	285.4
777.404	285.4
777.8	311.14
778.195	250.29
778.59	240.93
778.986	261.99
779.381	304.12
779.776	320.51
780.171	364.98
780.566	346.25
780.961	362.64
781.356	285.4
781.751	292.42
782.146	254.97
782.54	386.04
782.935	332.21
783.33	332.21
783.724	357.96
784.119	287.74
784.513	236.25
784.908	304.12
785.302	332.21
785.696	306.46
786.09	304.12
786.485	320.51
786.879	243.27
787.273	280.72
787.667	243.27
788.061	271.36
788.454	240.93
788.848	273.7
789.242	269.02
789.636	334.55
790.029	353.27
790.423	280.72
790.816	325.19
791.21	304.12
791.603	276.04
791.997	294.76
792.39	320.51
792.783	271.36
793.176	322.85
793.569	350.93
793.962	318.17
794.355	287.74
794.748	320.51
795.141	285.4
795.534	285.4
795.927	287.74
796.319	346.25
796.712	367.32
797.105	313.49
797.497	346.25
797.89	285.4
798.282	301.78
798.674	278.38
799.067	266.67
799.459	292.42
799.851	318.17
800.243	269.02
800.635	393.06
801.027	294.76
801.419	334.55
801.811	264.33
802.203	276.04
802.594	311.14
802.986	252.63
803.378	294.76
803.769	287.74
804.161	290.08
804.552	297.1
804.944	278.38
805.335	276.04
805.726	290.08
806.118	301.78
806.509	304.12
806.9	294.76
807.291	276.04
807.682	292.42
808.073	264.33
808.464	276.04
808.855	271.36
809.245	280.72
809.636	334.55
810.027	301.78
810.417	280.72
810.808	348.59
811.198	315.83
811.589	327.53
811.979	273.7
812.369	269.02
812.759	264.33
813.15	346.25
813.54	273.7
813.93	259.65
814.32	285.4
814.71	278.38
815.1	301.78
815.489	325.19
815.879	257.31
816.269	266.67
816.658	332.21
817.048	301.78
817.438	299.44
817.827	243.27
818.216	280.72
818.606	290.08
818.995	283.06
819.384	231.57
819.773	278.38
820.163	339.23
820.552	301.78
820.941	311.14
821.33	290.08
821.718	346.25
822.107	334.55
822.496	278.38
822.885	250.29
823.273	250.29
823.662	287.74
824.05	336.89
824.439	299.44
824.827	229.23
825.216	364.98
825.604	369.66
825.992	269.02
826.38	315.83
826.768	261.99
827.156	301.78
827.544	271.36
827.932	229.23
828.32	294.76
828.708	226.89
829.096	325.19
829.483	287.74
829.871	280.72
830.259	290.08
830.646	259.65
831.034	276.04
831.421	341.57
831.808	301.78
832.196	292.42
832.583	247.95
832.97	304.12
833.357	280.72
833.744	320.51
834.131	240.93
834.518	318.17
834.905	304.12
835.292	259.65
835.678	287.74
836.065	360.3
836.452	315.83
836.838	304.12
837.225	290.08
837.611	271.36
837.998	233.91
838.384	271.36
838.77	313.49
839.157	245.61
839.543	334.55
839.929	315.83
840.315	315.83
840.701	304.12
841.087	329.87
841.473	294.76
841.858	280.72
842.244	322.85
842.63	261.99
843.015	292.42
843.401	556.9
843.787	283.06
844.172	322.85
844.557	367.32
844.943	283.06
845.328	308.8
845.713	278.38
846.098	276.04
846.483	334.55
846.868	329.87
847.253	259.65
847.638	299.44
848.023	304.12
848.408	290.08
848.793	278.38
849.177	308.8
849.562	250.29
849.947	280.72
850.331	315.83
850.715	322.85
851.1	306.46
851.484	243.27
851.868	311.14
852.253	299.44
852.637	294.76
853.021	304.12
853.405	320.51
853.789	343.91
854.173	259.65
854.557	285.4
854.94	322.85
855.324	259.65
855.708	346.25
856.091	350.93
856.475	285.4
856.858	304.12
857.242	276.04
857.625	259.65
858.009	285.4
858.392	285.4
858.775	341.57
859.158	336.89
859.541	313.49
859.924	304.12
860.307	360.3
860.69	294.76
861.073	278.38
861.456	332.21
861.838	280.72
862.221	299.44
862.604	318.17
862.986	304.12
863.369	336.89
863.751	367.32
864.133	306.46
864.516	292.42
864.898	308.8
865.28	297.1
865.662	301.78
866.044	327.53
866.426	245.61
866.808	329.87
867.19	327.53
867.572	325.19
867.954	301.78
868.336	311.14
868.717	269.02
869.099	254.97
869.48	327.53
869.862	320.51
870.243	306.46
870.625	322.85
871.006	325.19
871.387	334.55
871.768	292.42
872.149	252.63
872.53	318.17
872.911	261.99
873.292	346.25
873.673	367.32
874.054	320.51
874.435	217.52
874.815	372
875.196	283.06
875.577	264.33
875.957	269.02
876.338	245.61
876.718	290.08
877.098	301.78
877.479	283.06
877.859	308.8
878.239	297.1
878.619	250.29
878.999	297.1
879.379	297.1
879.759	273.7
880.139	304.12
880.519	294.76
880.898	341.57
881.278	290.08
881.658	320.51
882.037	346.25
882.417	318.17
882.796	364.98
883.176	297.1
883.555	301.78
883.934	301.78
884.313	283.06
884.693	283.06
885.072	290.08
885.451	390.72
885.83	226.89
886.209	301.78
886.587	353.27
886.966	297.1
887.345	266.67
887.724	348.59
888.102	306.46
888.481	346.25
888.859	308.8
889.238	266.67
889.616	287.74
889.994	332.21
890.373	287.74
890.751	292.42
891.129	308.8
891.507	266.67
891.885	261.99
892.263	308.8
892.641	306.46
893.019	254.97
893.396	224.55
893.774	269.02
894.152	339.23
894.529	364.98
894.907	283.06
895.284	306.46
895.662	276.04
896.039	297.1
896.416	301.78
896.794	362.64
897.171	233.91
897.548	299.44
897.925	332.21
898.302	334.55
898.679	280.72
899.056	240.93
899.433	278.38
899.809	308.8
900.186	196.46
900.563	311.14
900.939	290.08
901.316	252.63
901.692	236.25
902.069	245.61
902.445	348.59
902.821	329.87
903.197	297.1
903.574	334.55
903.95	334.55
904.326	287.74
904.702	306.46
905.078	290.08
905.454	313.49
905.829	327.53
906.205	346.25
906.581	238.59
906.956	320.51
907.332	271.36
907.707	329.87
908.083	320.51
908.458	257.31
908.833	240.93
909.209	283.06
909.584	301.78
909.959	292.42
910.334	261.99
910.709	355.62
911.084	264.33
911.459	315.83
911.834	240.93
912.209	334.55
912.583	283.06
912.958	264.33
913.333	285.4
913.707	327.53
914.082	332.21
914.456	311.14
914.83	348.59
915.205	355.62
915.579	283.06
915.953	332.21
916.327	301.78
916.701	315.83
917.075	343.91
917.449	339.23
917.823	266.67
918.197	297.1
918.571	261.99
918.944	327.53
919.318	320.51
919.692	304.12
920.065	266.67
920.438	269.02
920.812	315.83
921.185	315.83
921.558	280.72
921.932	299.44
922.305	247.95
922.678	276.04
923.051	252.63
923.424	287.74
923.797	386.04
924.17	257.31
924.542	327.53
924.915	297.1
925.288	364.98
925.661	301.78
926.033	318.17
926.406	339.23
926.778	290.08
927.15	315.83
927.523	269.02
927.895	306.46
928.267	315.83
928.639	287.74
929.011	280.72
929.383	233.91
929.755	238.59
930.127	313.49
930.499	318.17
930.871	362.64
931.242	292.42
931.614	290.08
931.986	341.57
932.357	250.29
932.729	332.21
933.1	231.57
933.471	250.29
933.843	290.08
934.214	388.38
934.585	355.62
934.956	355.62
935.327	276.04
935.698	297.1
936.069	276.04
936.44	301.78
936.811	348.59
937.182	276.04
937.552	304.12
937.923	261.99
938.293	259.65
938.664	273.7
939.034	280.72
939.405	210.5
939.775	320.51
940.145	299.44
940.516	353.27
940.886	315.83
941.256	327.53
941.626	283.06
941.996	343.91
942.366	271.36
942.735	285.4
943.105	273.7
943.475	273.7
943.845	332.21
944.214	259.65
944.584	313.49
944.953	343.91
945.323	301.78
945.692	219.86
946.061	290.08
946.43	346.25
946.8	304.12
947.169	292.42
947.538	290.08
947.907	301.78
948.276	283.06
948.645	290.08
949.013	278.38
949.382	254.97
949.751	306.46
950.119	264.33
950.488	283.06
950.857	322.85
951.225	240.93
951.593	327.53
951.962	357.96
952.33	315.83
952.698	257.31
953.066	243.27
953.434	278.38
953.802	329.87
954.17	304.12
954.538	355.62
954.906	292.42
955.274	290.08
955.642	292.42
956.009	294.76
956.377	236.25
956.744	311.14
957.112	297.1
957.479	329.87
957.847	238.59
958.214	250.29
958.581	432.85
958.948	280.72
959.315	353.27
959.683	355.62
960.05	322.85
960.416	254.97
960.783	250.29
961.15	318.17
961.517	301.78
961.884	247.95
962.25	334.55
962.617	332.21
962.983	273.7
963.35	278.38
963.716	308.8
964.082	257.31
964.449	318.17
964.815	254.97
965.181	280.72
965.547	301.78
965.913	247.95
966.279	273.7
966.645	301.78
967.011	297.1
967.377	301.78
967.742	280.72
968.108	259.65
968.474	259.65
968.839	332.21
969.205	297.1
969.57	348.59
969.935	243.27
970.301	266.67
970.666	219.86
971.031	238.59
971.396	320.51
971.761	269.02
972.126	219.86
972.491	266.67
972.856	290.08
973.221	287.74
973.586	261.99
973.95	285.4
974.315	252.63
974.679	245.61
975.044	261.99
975.408	301.78
975.773	280.72
976.137	283.06
976.501	353.27
976.866	269.02
977.23	320.51
977.594	287.74
977.958	343.91
978.322	327.53
978.686	313.49
979.049	297.1
979.413	341.57
979.777	280.72
980.141	283.06
980.504	322.85
980.868	322.85
981.231	271.36
981.595	306.46
981.958	297.1
982.321	229.23
982.684	308.8
983.048	250.29
983.411	299.44
983.774	271.36
984.137	299.44
984.5	353.27
984.862	322.85
985.225	376.68
985.588	254.97
985.951	329.87
986.313	290.08
986.676	271.36
987.038	329.87
987.401	315.83
987.763	353.27
988.125	269.02
988.488	273.7
988.85	362.64
989.212	261.99
989.574	346.25
989.936	271.36
990.298	269.02
990.66	294.76
991.022	357.96
991.383	240.93
991.745	283.06
992.107	276.04
992.468	276.04
992.83	287.74
993.191	308.8
993.553	306.46
993.914	247.95
994.275	299.44
994.637	299.44
994.998	273.7
995.359	247.95
995.72	313.49
996.081	269.02
996.442	315.83
996.803	226.89
997.163	313.49
997.524	252.63
997.885	313.49
998.245	350.93
998.606	287.74
998.966	318.17
999.327	273.7
999.687	276.04
1000.047	304.12
1000.408	280.72
1000.768	259.65
1001.128	250.29
1001.488	299.44
1001.848	308.8
1002.208	254.97
1002.568	266.67
1002.927	238.59
1003.287	259.65
1003.647	306.46
1004.007	269.02
1004.366	271.36
1004.726	304.12
1005.085	336.89
1005.444	257.31
1005.804	332.21
1006.163	311.14
1006.522	322.85
1006.881	297.1
1007.24	313.49
1007.599	327.53
1007.958	240.93
1008.317	290.08
1008.676	290.08
1009.035	290.08
1009.393	311.14
1009.752	294.76
1010.111	250.29
1010.469	287.74
1010.828	325.19
1011.186	297.1
1011.544	243.27
1011.903	346.25
1012.261	266.67
1012.619	327.53
1012.977	285.4
1013.335	269.02
1013.693	320.51
1014.051	318.17
1014.409	245.61
1014.767	318.17
1015.124	219.86
1015.482	325.19
1015.84	245.61
1016.197	287.74
1016.555	301.78
1016.912	304.12
1017.269	280.72
1017.627	259.65
1017.984	332.21
1018.341	259.65
1018.698	271.36
1019.055	273.7
1019.412	294.76
1019.769	322.85
1020.126	271.36
1020.483	254.97
1020.84	250.29
1021.196	318.17
1021.553	336.89
1021.909	287.74
1022.266	250.29
1022.622	290.08
1022.979	343.91
1023.335	212.84
1023.691	261.99
1024.047	233.91
1024.404	306.46
1024.76	229.23
1025.116	294.76
1025.472	231.57
1025.827	348.59
1026.183	304.12
1026.539	266.67
1026.895	247.95
1027.25	233.91
1027.606	287.74
1027.961	355.62
1028.317	313.49
1028.672	290.08
1029.028	292.42
1029.383	252.63
1029.738	254.97
1030.093	304.12
1030.448	292.42
1030.803	283.06
1031.158	283.06
1031.513	376.68
1031.868	304.12
1032.223	254.97
1032.577	259.65
1032.932	259.65
1033.287	273.7
1033.641	276.04
1033.996	245.61
1034.35	318.17
1034.704	322.85
1035.059	278.38
1035.413	290.08
1035.767	290.08
1036.121	290.08
