Data from Al_FLMS009871__653__15-00-36-096.txt Node

Date: Fri Mar 08 15:00:36 CST 2024
User: pe5414po
Spectrometer: FLMS00987
Trigger mode: 0
Integration Time (sec): 1.000000E-1
Scans to average: 1
Electric dark correction enabled: true
Nonlinearity correction enabled: false
Boxcar width: 0
XAxis mode: Wavelengths
Number of Pixels in Spectrum: 2048
>>>>>Begin Spectral Data<<<<<
188.938	-67
189.409	-67
189.879	-67
190.349	-62.32
190.819	-125.51
191.29	-92.74
191.76	-83.38
192.23	-123.17
192.7	-99.77
193.17	-81.04
193.64	-64.66
194.109	-78.7
194.579	38.33
195.049	-15.51
195.519	26.62
195.988	43.01
196.458	78.12
196.927	141.31
197.397	78.12
197.866	141.31
198.336	92.16
198.805	195.14
199.274	197.48
199.744	218.55
200.213	220.89
200.682	192.8
201.151	211.53
201.62	220.89
202.089	237.27
202.558	246.63
203.027	209.19
203.495	284.08
203.964	279.4
204.433	316.85
204.902	265.36
205.37	256
205.839	302.81
206.307	258.34
206.776	319.19
207.244	326.21
207.712	279.4
208.181	302.81
208.649	288.76
209.117	333.23
209.585	234.93
210.053	286.42
210.521	330.89
210.989	295.79
211.457	279.4
211.925	272.38
212.393	223.23
212.861	354.3
213.328	307.49
213.796	281.74
214.264	314.51
214.731	342.6
215.199	328.55
215.666	239.61
216.133	248.97
216.601	260.68
217.068	237.27
217.535	258.34
218.003	218.55
218.47	312.17
218.937	309.83
219.404	274.72
219.871	246.63
220.338	321.53
220.805	298.13
221.271	342.6
221.738	284.08
222.205	227.91
222.671	293.44
223.138	300.47
223.605	204.5
224.071	326.21
224.538	246.63
225.004	227.91
225.47	216.21
225.937	234.93
226.403	300.47
226.869	316.85
227.335	260.68
227.801	244.29
228.267	323.87
228.733	281.74
229.199	333.23
229.665	281.74
230.131	244.29
230.597	274.72
231.062	277.06
231.528	298.13
231.994	291.1
232.459	286.42
232.925	298.13
233.39	246.63
233.856	258.34
234.321	286.42
234.786	312.17
235.252	295.79
235.717	326.21
236.182	312.17
236.647	274.72
237.112	307.49
237.577	270.04
238.042	253.66
238.507	293.44
238.972	251.32
239.436	258.34
239.901	258.34
240.366	263.02
240.83	185.78
241.295	286.42
241.76	298.13
242.224	237.27
242.688	234.93
243.153	309.83
243.617	284.08
244.081	328.55
244.545	265.36
245.01	272.38
245.474	234.93
245.938	330.89
246.402	244.29
246.866	279.4
247.33	300.47
247.793	314.51
248.257	265.36
248.721	202.16
249.185	347.28
249.648	314.51
250.112	279.4
250.575	279.4
251.039	349.62
251.502	272.38
251.965	298.13
252.429	295.79
252.892	267.7
253.355	270.04
253.818	366
254.281	300.47
254.744	237.27
255.207	330.89
255.67	272.38
256.133	300.47
256.596	234.93
257.059	260.68
257.522	358.98
257.984	314.51
258.447	239.61
258.909	267.7
259.372	277.06
259.834	335.57
260.297	340.26
260.759	335.57
261.221	326.21
261.684	288.76
262.146	291.1
262.608	335.57
263.07	267.7
263.532	300.47
263.994	277.06
264.456	295.79
264.918	305.15
265.38	256
265.842	309.83
266.303	302.81
266.765	256
267.227	270.04
267.688	265.36
268.15	277.06
268.611	312.17
269.072	241.95
269.534	225.57
269.995	302.81
270.456	279.4
270.918	265.36
271.379	244.29
271.84	258.34
272.301	260.68
272.762	281.74
273.223	293.44
273.684	244.29
274.144	312.17
274.605	281.74
275.066	230.25
275.527	307.49
275.987	333.23
276.448	260.68
276.908	281.74
277.369	335.57
277.829	328.55
278.289	344.94
278.75	277.06
279.21	286.42
279.67	258.34
280.13	234.93
280.59	263.02
281.05	312.17
281.51	302.81
281.97	302.81
282.43	333.23
282.89	253.66
283.35	307.49
283.809	335.57
284.269	302.81
284.729	237.27
285.188	277.06
285.648	295.79
286.107	295.79
286.567	330.89
287.026	344.94
287.485	321.53
287.944	260.68
288.404	354.3
288.863	349.62
289.322	277.06
289.781	358.98
290.24	323.87
290.699	361.32
291.158	298.13
291.616	358.98
292.075	265.36
292.534	298.13
292.992	265.36
293.451	333.23
293.91	330.89
294.368	330.89
294.827	267.7
295.285	312.17
295.743	298.13
296.202	344.94
296.66	335.57
297.118	284.08
297.576	270.04
298.034	342.6
298.492	300.47
298.95	281.74
299.408	312.17
299.866	286.42
300.324	344.94
300.781	309.83
301.239	361.32
301.697	354.3
302.154	326.21
302.612	319.19
303.069	234.93
303.527	279.4
303.984	267.7
304.441	263.02
304.899	309.83
305.356	253.66
305.813	323.87
306.27	293.44
306.727	333.23
307.184	314.51
307.641	337.91
308.098	237.27
308.555	284.08
309.012	288.76
309.468	279.4
309.925	295.79
310.382	298.13
310.838	377.7
311.295	234.93
311.751	337.91
312.208	279.4
312.664	286.42
313.12	335.57
313.577	300.47
314.033	351.96
314.489	337.91
314.945	316.85
315.401	314.51
315.857	286.42
316.313	312.17
316.769	398.77
317.225	281.74
317.681	284.08
318.136	307.49
318.592	307.49
319.048	344.94
319.503	361.32
319.959	288.76
320.414	291.1
320.869	305.15
321.325	286.42
321.78	335.57
322.235	370.68
322.691	361.32
323.146	307.49
323.601	335.57
324.056	272.38
324.511	288.76
324.966	260.68
325.421	328.55
325.875	277.06
326.33	333.23
326.785	225.57
327.24	267.7
327.694	300.47
328.149	330.89
328.603	270.04
329.058	286.42
329.512	330.89
329.966	384.73
330.421	232.59
330.875	328.55
331.329	358.98
331.783	307.49
332.237	244.29
332.691	309.83
333.145	309.83
333.599	330.89
334.053	295.79
334.507	319.19
334.96	300.47
335.414	309.83
335.868	387.07
336.321	312.17
336.775	337.91
337.228	291.1
337.682	305.15
338.135	330.89
338.588	312.17
339.042	333.23
339.495	347.28
339.948	382.39
340.401	358.98
340.854	284.08
341.307	368.34
341.76	337.91
342.213	263.02
342.666	284.08
343.119	298.13
343.571	284.08
344.024	333.23
344.477	281.74
344.929	256
345.382	248.97
345.834	256
346.287	274.72
346.739	272.38
347.191	321.53
347.644	382.39
348.096	302.81
348.548	274.72
349	347.28
349.452	358.98
349.904	361.32
350.356	279.4
350.808	358.98
351.26	370.68
351.711	340.26
352.163	340.26
352.615	309.83
353.066	232.59
353.518	302.81
353.969	326.21
354.421	288.76
354.872	309.83
355.324	319.19
355.775	274.72
356.226	281.74
356.677	305.15
357.128	309.83
357.579	314.51
358.03	265.36
358.481	347.28
358.932	279.4
359.383	337.91
359.834	335.57
360.285	298.13
360.735	281.74
361.186	291.1
361.637	295.79
362.087	309.83
362.538	323.87
362.988	342.6
363.438	356.64
363.889	344.94
364.339	309.83
364.789	321.53
365.239	316.85
365.689	323.87
366.139	272.38
366.589	305.15
367.039	284.08
367.489	389.41
367.939	288.76
368.389	291.1
368.839	368.34
369.288	293.44
369.738	326.21
370.187	291.1
370.637	291.1
371.086	307.49
371.536	284.08
371.985	281.74
372.434	295.79
372.884	337.91
373.333	366
373.782	312.17
374.231	277.06
374.68	358.98
375.129	272.38
375.578	342.6
376.027	293.44
376.475	312.17
376.924	298.13
377.373	314.51
377.822	349.62
378.27	340.26
378.719	373.02
379.167	380.04
379.616	260.68
380.064	284.08
380.512	312.17
380.961	263.02
381.409	302.81
381.857	281.74
382.305	302.81
382.753	284.08
383.201	309.83
383.649	326.21
384.097	342.6
384.545	358.98
384.992	358.98
385.44	319.19
385.888	309.83
386.335	302.81
386.783	293.44
387.231	335.57
387.678	347.28
388.125	305.15
388.573	302.81
389.02	298.13
389.467	267.7
389.914	333.23
390.362	373.02
390.809	344.94
391.256	291.1
391.703	368.34
392.15	293.44
392.596	319.19
393.043	319.19
393.49	323.87
393.937	270.04
394.383	284.08
394.83	333.23
395.276	323.87
395.723	321.53
396.169	347.28
396.616	321.53
397.062	363.66
397.508	302.81
397.954	316.85
398.401	305.15
398.847	307.49
399.293	328.55
399.739	335.57
400.185	291.1
400.631	340.26
401.076	248.97
401.522	351.96
401.968	333.23
402.414	328.55
402.859	349.62
403.305	335.57
403.75	288.76
404.196	321.53
404.641	347.28
405.086	321.53
405.532	309.83
405.977	305.15
406.422	354.3
406.867	267.7
407.312	302.81
407.757	323.87
408.202	387.07
408.647	323.87
409.092	326.21
409.537	312.17
409.982	260.68
410.426	209.19
410.871	321.53
411.316	370.68
411.76	288.76
412.205	305.15
412.649	279.4
413.093	340.26
413.538	316.85
413.982	366
414.426	335.57
414.87	295.79
415.314	284.08
415.758	286.42
416.202	333.23
416.646	323.87
417.09	391.75
417.534	321.53
417.978	326.21
418.421	260.68
418.865	340.26
419.309	337.91
419.752	321.53
420.196	342.6
420.639	300.47
421.083	256
421.526	267.7
421.969	335.57
422.412	265.36
422.856	323.87
423.299	349.62
423.742	363.66
424.185	258.34
424.628	265.36
425.071	368.34
425.513	330.89
425.956	300.47
426.399	335.57
426.842	330.89
427.284	363.66
427.727	330.89
428.169	281.74
428.612	356.64
429.054	298.13
429.497	323.87
429.939	354.3
430.381	309.83
430.823	337.91
431.265	347.28
431.707	354.3
432.149	347.28
432.591	375.36
433.033	333.23
433.475	342.6
433.917	309.83
434.359	253.66
434.8	370.68
435.242	326.21
435.684	321.53
436.125	314.51
436.567	281.74
437.008	316.85
437.449	305.15
437.891	340.26
438.332	288.76
438.773	314.51
439.214	305.15
439.656	326.21
440.097	326.21
440.538	230.25
440.978	288.76
441.419	363.66
441.86	291.1
442.301	300.47
442.742	321.53
443.182	286.42
443.623	356.64
444.063	211.53
444.504	366
444.944	326.21
445.385	302.81
445.825	347.28
446.265	270.04
446.706	323.87
447.146	337.91
447.586	349.62
448.026	337.91
448.466	366
448.906	391.75
449.346	309.83
449.786	293.44
450.225	300.47
450.665	337.91
451.105	319.19
451.544	323.87
451.984	363.66
452.424	342.6
452.863	370.68
453.302	309.83
453.742	344.94
454.181	295.79
454.62	373.02
455.059	344.94
455.499	291.1
455.938	328.55
456.377	344.94
456.816	291.1
457.254	305.15
457.693	314.51
458.132	366
458.571	333.23
459.01	309.83
459.448	246.63
459.887	316.85
460.325	328.55
460.764	312.17
461.202	361.32
461.641	279.4
462.079	370.68
462.517	356.64
462.955	344.94
463.393	321.53
463.832	281.74
464.27	335.57
464.708	309.83
465.145	258.34
465.583	354.3
466.021	337.91
466.459	319.19
466.897	230.25
467.334	321.53
467.772	347.28
468.209	319.19
468.647	286.42
469.084	237.27
469.522	312.17
469.959	309.83
470.396	337.91
470.833	302.81
471.271	373.02
471.708	326.21
472.145	361.32
472.582	347.28
473.019	335.57
473.456	300.47
473.892	300.47
474.329	246.63
474.766	277.06
475.202	309.83
475.639	328.55
476.076	277.06
476.512	293.44
476.949	293.44
477.385	309.83
477.821	314.51
478.258	326.21
478.694	274.72
479.13	302.81
479.566	323.87
480.002	293.44
480.438	366
480.874	270.04
481.31	344.94
481.746	307.49
482.181	373.02
482.617	328.55
483.053	333.23
483.488	328.55
483.924	258.34
484.36	314.51
484.795	300.47
485.23	302.81
485.666	328.55
486.101	358.98
486.536	321.53
486.971	333.23
487.407	307.49
487.842	361.32
488.277	349.62
488.712	326.21
489.146	265.36
489.581	309.83
490.016	340.26
490.451	340.26
490.885	295.79
491.32	298.13
491.755	337.91
492.189	326.21
492.624	377.7
493.058	316.85
493.492	314.51
493.927	356.64
494.361	328.55
494.795	326.21
495.229	361.32
495.663	349.62
496.097	337.91
496.531	277.06
496.965	314.51
497.399	316.85
497.833	307.49
498.266	337.91
498.7	335.57
499.134	321.53
499.567	342.6
500.001	319.19
500.434	305.15
500.868	314.51
501.301	358.98
501.734	349.62
502.168	305.15
502.601	335.57
503.034	302.81
503.467	358.98
503.9	316.85
504.333	358.98
504.766	342.6
505.199	312.17
505.632	241.95
506.064	366
506.497	298.13
506.93	279.4
507.362	265.36
507.795	314.51
508.227	309.83
508.66	286.42
509.092	314.51
509.524	288.76
509.956	279.4
510.389	375.36
510.821	340.26
511.253	279.4
511.685	347.28
512.117	333.23
512.549	337.91
512.981	260.68
513.412	337.91
513.844	347.28
514.276	335.57
514.707	351.96
515.139	277.06
515.571	342.6
516.002	305.15
516.433	337.91
516.865	274.72
517.296	302.81
517.727	326.21
518.159	354.3
518.59	300.47
519.021	298.13
519.452	368.34
519.883	286.42
520.314	286.42
520.744	337.91
521.175	300.47
521.606	326.21
522.037	354.3
522.467	326.21
522.898	295.79
523.328	300.47
523.759	291.1
524.189	342.6
524.62	286.42
525.05	293.44
525.48	291.1
525.91	323.87
526.341	316.85
526.771	251.32
527.201	270.04
527.631	314.51
528.061	340.26
528.49	281.74
528.92	277.06
529.35	305.15
529.78	312.17
530.209	302.81
530.639	305.15
531.068	321.53
531.498	326.21
531.927	373.02
532.357	284.08
532.786	410.47
533.215	326.21
533.644	319.19
534.074	370.68
534.503	274.72
534.932	277.06
535.361	309.83
535.79	286.42
536.218	316.85
536.647	284.08
537.076	358.98
537.505	342.6
537.933	288.76
538.362	300.47
538.79	307.49
539.219	218.55
539.647	391.75
540.076	309.83
540.504	337.91
540.932	314.51
541.36	368.34
541.788	356.64
542.217	356.64
542.645	309.83
543.073	312.17
543.5	312.17
543.928	314.51
544.356	295.79
544.784	398.77
545.211	307.49
545.639	340.26
546.067	387.07
546.494	316.85
546.922	415.15
547.349	314.51
547.776	312.17
548.204	358.98
548.631	267.7
549.058	307.49
549.485	251.32
549.912	302.81
550.339	302.81
550.766	274.72
551.193	263.02
551.62	398.77
552.047	274.72
552.474	358.98
552.9	284.08
553.327	295.79
553.754	354.3
554.18	316.85
554.607	358.98
555.033	354.3
555.459	344.94
555.886	328.55
556.312	328.55
556.738	326.21
557.164	323.87
557.59	337.91
558.016	300.47
558.442	361.32
558.868	305.15
559.294	344.94
559.72	380.04
560.145	333.23
560.571	330.89
560.997	326.21
561.422	272.38
561.848	340.26
562.273	344.94
562.699	391.75
563.124	314.51
563.549	286.42
563.974	298.13
564.4	347.28
564.825	281.74
565.25	368.34
565.675	307.49
566.1	366
566.525	258.34
566.95	347.28
567.374	316.85
567.799	291.1
568.224	323.87
568.648	344.94
569.073	319.19
569.497	309.83
569.922	342.6
570.346	387.07
570.771	314.51
571.195	272.38
571.619	234.93
572.043	204.5
572.467	298.13
572.891	321.53
573.315	281.74
573.739	361.32
574.163	333.23
574.587	305.15
575.011	288.76
575.435	319.19
575.858	391.75
576.282	335.57
576.705	270.04
577.129	305.15
577.552	305.15
577.976	309.83
578.399	291.1
578.822	267.7
579.245	293.44
579.669	284.08
580.092	342.6
580.515	314.51
580.938	321.53
581.361	265.36
581.784	316.85
582.206	340.26
582.629	326.21
583.052	293.44
583.474	270.04
583.897	333.23
584.32	340.26
584.742	370.68
585.165	321.53
585.587	366
586.009	316.85
586.431	358.98
586.854	293.44
587.276	326.21
587.698	314.51
588.12	309.83
588.542	377.7
588.964	368.34
589.386	291.1
589.807	354.3
590.229	319.19
590.651	288.76
591.073	284.08
591.494	337.91
591.916	351.96
592.337	333.23
592.759	333.23
593.18	284.08
593.601	291.1
594.022	321.53
594.444	373.02
594.865	312.17
595.286	349.62
595.707	337.91
596.128	312.17
596.549	281.74
596.97	307.49
597.39	284.08
597.811	380.04
598.232	316.85
598.652	300.47
599.073	351.96
599.494	302.81
599.914	316.85
600.334	220.89
600.755	337.91
601.175	293.44
601.595	307.49
602.015	277.06
602.436	213.87
602.856	417.49
603.276	335.57
603.696	323.87
604.115	312.17
604.535	300.47
604.955	316.85
605.375	337.91
605.794	302.81
606.214	298.13
606.634	300.47
607.053	380.04
607.473	300.47
607.892	368.34
608.311	309.83
608.731	333.23
609.15	326.21
609.569	263.02
609.988	358.98
610.407	370.68
610.826	349.62
611.245	295.79
611.664	323.87
612.083	330.89
612.501	246.63
612.92	368.34
613.339	326.21
613.757	279.4
614.176	312.17
614.594	321.53
615.013	256
615.431	337.91
615.85	244.29
616.268	307.49
616.686	354.3
617.104	340.26
617.522	323.87
617.94	314.51
618.358	314.51
618.776	272.38
619.194	307.49
619.612	246.63
620.03	256
620.447	298.13
620.865	300.47
621.282	291.1
621.7	288.76
622.117	326.21
622.535	314.51
622.952	323.87
623.369	384.73
623.787	333.23
624.204	323.87
624.621	330.89
625.038	265.36
625.455	305.15
625.872	326.21
626.289	312.17
626.706	330.89
627.123	284.08
627.539	241.95
627.956	323.87
628.373	349.62
628.789	307.49
629.206	312.17
629.622	347.28
630.038	340.26
630.455	368.34
630.871	281.74
631.287	316.85
631.703	286.42
632.12	312.17
632.536	335.57
632.952	309.83
633.368	300.47
633.783	302.81
634.199	279.4
634.615	300.47
635.031	333.23
635.446	347.28
635.862	279.4
636.277	351.96
636.693	323.87
637.108	344.94
637.524	328.55
637.939	394.09
638.354	326.21
638.77	302.81
639.185	351.96
639.6	253.66
640.015	319.19
640.43	314.51
640.845	307.49
641.259	302.81
641.674	309.83
642.089	370.68
642.504	284.08
642.918	295.79
643.333	307.49
643.747	309.83
644.162	354.3
644.576	335.57
644.991	344.94
645.405	356.64
645.819	267.7
646.233	272.38
646.647	323.87
647.061	305.15
647.475	337.91
647.889	302.81
648.303	380.04
648.717	298.13
649.131	284.08
649.545	337.91
649.958	401.11
650.372	321.53
650.785	295.79
651.199	330.89
651.612	309.83
652.026	333.23
652.439	274.72
652.852	358.98
653.266	284.08
653.679	337.91
654.092	354.3
654.505	316.85
654.918	302.81
655.331	326.21
655.744	305.15
656.156	281.74
656.569	356.64
656.982	382.39
657.394	253.66
657.807	335.57
658.22	375.36
658.632	370.68
659.044	300.47
659.457	309.83
659.869	342.6
660.281	305.15
660.693	265.36
661.106	291.1
661.518	375.36
661.93	312.17
662.342	335.57
662.754	293.44
663.165	323.87
663.577	351.96
663.989	274.72
664.401	403.45
664.812	349.62
665.224	349.62
665.635	326.21
666.047	349.62
666.458	300.47
666.869	326.21
667.281	298.13
667.692	333.23
668.103	326.21
668.514	328.55
668.925	375.36
669.336	295.79
669.747	284.08
670.158	314.51
670.569	351.96
670.979	337.91
671.39	373.02
671.801	302.81
672.211	316.85
672.622	265.36
673.032	328.55
673.443	314.51
673.853	279.4
674.263	319.19
674.674	260.68
675.084	319.19
675.494	321.53
675.904	319.19
676.314	286.42
676.724	342.6
677.134	263.02
677.544	316.85
677.953	370.68
678.363	312.17
678.773	330.89
679.182	342.6
679.592	356.64
680.001	387.07
680.411	284.08
680.82	326.21
681.23	288.76
681.639	342.6
682.048	293.44
682.457	302.81
682.866	333.23
683.275	319.19
683.684	321.53
684.093	251.32
684.502	330.89
684.911	326.21
685.32	323.87
685.728	326.21
686.137	300.47
686.546	321.53
686.954	356.64
687.363	293.44
687.771	380.04
688.179	319.19
688.588	293.44
688.996	328.55
689.404	307.49
689.812	223.23
690.22	351.96
690.628	288.76
691.036	351.96
691.444	314.51
691.852	319.19
692.26	256
692.667	337.91
693.075	358.98
693.483	358.98
693.89	314.51
694.298	284.08
694.705	389.41
695.112	270.04
695.52	335.57
695.927	251.32
696.334	293.44
696.741	288.76
697.148	319.19
697.555	300.47
697.962	323.87
698.369	335.57
698.776	323.87
699.183	342.6
699.59	309.83
699.996	265.36
700.403	309.83
700.81	316.85
701.216	260.68
701.623	380.04
702.029	312.17
702.435	328.55
702.842	295.79
703.248	300.47
703.654	260.68
704.06	330.89
704.466	277.06
704.872	349.62
705.278	380.04
705.684	328.55
706.09	307.49
706.496	349.62
706.901	330.89
707.307	288.76
707.712	333.23
708.118	291.1
708.523	307.49
708.929	288.76
709.334	323.87
709.74	298.13
710.145	323.87
710.55	295.79
710.955	220.89
711.36	344.94
711.765	309.83
712.17	284.08
712.575	335.57
712.98	822.41
713.385	333.23
713.789	248.97
714.194	307.49
714.599	305.15
715.003	305.15
715.408	382.39
715.812	321.53
716.217	319.19
716.621	298.13
717.025	302.81
717.429	384.73
717.833	284.08
718.238	277.06
718.642	328.55
719.046	321.53
719.449	337.91
719.853	349.62
720.257	321.53
720.661	333.23
721.065	391.75
721.468	347.28
721.872	344.94
722.275	298.13
722.679	321.53
723.082	328.55
723.485	234.93
723.889	281.74
724.292	300.47
724.695	316.85
725.098	380.04
725.501	309.83
725.904	328.55
726.307	337.91
726.71	314.51
727.113	307.49
727.516	319.19
727.918	375.36
728.321	333.23
728.724	321.53
729.126	291.1
729.529	305.15
729.931	370.68
730.333	293.44
730.736	293.44
731.138	319.19
731.54	377.7
731.942	251.32
732.344	279.4
732.746	265.36
733.148	319.19
733.55	344.94
733.952	351.96
734.354	253.66
734.756	251.32
735.157	305.15
735.559	295.79
735.96	270.04
736.362	347.28
736.763	295.79
737.165	321.53
737.566	340.26
737.967	300.47
738.368	291.1
738.77	335.57
739.171	284.08
739.572	335.57
739.973	295.79
740.374	328.55
740.774	323.87
741.175	298.13
741.576	272.38
741.977	363.66
742.377	291.1
742.778	270.04
743.178	234.93
743.579	300.47
743.979	328.55
744.379	370.68
744.78	319.19
745.18	333.23
745.58	328.55
745.98	342.6
746.38	330.89
746.78	305.15
747.18	377.7
747.58	333.23
747.98	293.44
748.38	326.21
748.779	340.26
749.179	293.44
749.578	321.53
749.978	302.81
750.377	347.28
750.777	330.89
751.176	363.66
751.575	326.21
751.975	298.13
752.374	272.38
752.773	326.21
753.172	305.15
753.571	356.64
753.97	286.42
754.369	323.87
754.768	305.15
755.166	241.95
755.565	295.79
755.964	307.49
756.362	344.94
756.761	335.57
757.159	277.06
757.558	307.49
757.956	394.09
758.354	258.34
758.753	356.64
759.151	274.72
759.549	319.19
759.947	342.6
760.345	316.85
760.743	323.87
761.141	288.76
761.539	319.19
761.936	321.53
762.334	300.47
762.732	312.17
763.129	291.1
763.527	342.6
763.924	321.53
764.322	272.38
764.719	312.17
765.117	281.74
765.514	349.62
765.911	321.53
766.308	356.64
766.705	335.57
767.102	337.91
767.499	316.85
767.896	302.81
768.293	333.23
768.69	295.79
769.086	230.25
769.483	314.51
769.88	377.7
770.276	279.4
770.673	307.49
771.069	316.85
771.466	368.34
771.862	302.81
772.258	351.96
772.654	300.47
773.05	281.74
773.447	316.85
773.843	377.7
774.239	330.89
774.634	300.47
775.03	328.55
775.426	351.96
775.822	312.17
776.218	335.57
776.613	314.51
777.009	286.42
777.404	256
777.8	279.4
778.195	253.66
778.59	316.85
778.986	293.44
779.381	302.81
779.776	323.87
780.171	305.15
780.566	286.42
780.961	312.17
781.356	293.44
781.751	312.17
782.146	293.44
782.54	321.53
782.935	321.53
783.33	373.02
783.724	293.44
784.119	316.85
784.513	284.08
784.908	288.76
785.302	347.28
785.696	270.04
786.09	323.87
786.485	358.98
786.879	333.23
787.273	323.87
787.667	295.79
788.061	358.98
788.454	302.81
788.848	335.57
789.242	260.68
789.636	363.66
790.029	307.49
790.423	307.49
790.816	337.91
791.21	272.38
791.603	319.19
791.997	295.79
792.39	272.38
792.783	361.32
793.176	305.15
793.569	314.51
793.962	354.3
794.355	389.41
794.748	349.62
795.141	321.53
795.534	302.81
795.927	272.38
796.319	307.49
796.712	288.76
797.105	270.04
797.497	302.81
797.89	342.6
798.282	333.23
798.674	272.38
799.067	300.47
799.459	316.85
799.851	279.4
800.243	373.02
800.635	323.87
801.027	281.74
801.419	295.79
801.811	319.19
802.203	323.87
802.594	330.89
802.986	309.83
803.378	326.21
803.769	267.7
804.161	288.76
804.552	302.81
804.944	277.06
805.335	248.97
805.726	307.49
806.118	314.51
806.509	330.89
806.9	284.08
807.291	284.08
807.682	305.15
808.073	274.72
808.464	288.76
808.855	298.13
809.245	321.53
809.636	344.94
810.027	349.62
810.417	333.23
810.808	333.23
811.198	288.76
811.589	234.93
811.979	302.81
812.369	279.4
812.759	316.85
813.15	323.87
813.54	366
813.93	321.53
814.32	333.23
814.71	272.38
815.1	326.21
815.489	333.23
815.879	316.85
816.269	326.21
816.658	300.47
817.048	361.32
817.438	340.26
817.827	319.19
818.216	366
818.606	295.79
818.995	363.66
819.384	358.98
819.773	277.06
820.163	267.7
820.552	363.66
820.941	347.28
821.33	307.49
821.718	288.76
822.107	279.4
822.496	286.42
822.885	300.47
823.273	375.36
823.662	267.7
824.05	300.47
824.439	326.21
824.827	244.29
825.216	314.51
825.604	312.17
825.992	248.97
826.38	337.91
826.768	314.51
827.156	251.32
827.544	288.76
827.932	293.44
828.32	272.38
828.708	321.53
829.096	351.96
829.483	342.6
829.871	377.7
830.259	291.1
830.646	326.21
831.034	340.26
831.421	363.66
831.808	326.21
832.196	281.74
832.583	309.83
832.97	288.76
833.357	333.23
833.744	305.15
834.131	305.15
834.518	333.23
834.905	286.42
835.292	326.21
835.678	358.98
836.065	288.76
836.452	316.85
836.838	298.13
837.225	323.87
837.611	373.02
837.998	380.04
838.384	263.02
838.77	342.6
839.157	330.89
839.543	300.47
839.929	344.94
840.315	281.74
840.701	330.89
841.087	298.13
841.473	281.74
841.858	314.51
842.244	351.96
842.63	330.89
843.015	272.38
843.401	590.69
843.787	302.81
844.172	335.57
844.557	302.81
844.943	319.19
845.328	295.79
845.713	302.81
846.098	263.02
846.483	265.36
846.868	333.23
847.253	377.7
847.638	298.13
848.023	300.47
848.408	302.81
848.793	349.62
849.177	312.17
849.562	300.47
849.947	291.1
850.331	344.94
850.715	302.81
851.1	340.26
851.484	314.51
851.868	305.15
852.253	319.19
852.637	279.4
853.021	265.36
853.405	274.72
853.789	340.26
854.173	356.64
854.557	291.1
854.94	279.4
855.324	335.57
855.708	284.08
856.091	314.51
856.475	351.96
856.858	300.47
857.242	351.96
857.625	237.27
858.009	265.36
858.392	293.44
858.775	342.6
859.158	321.53
859.541	321.53
859.924	256
860.307	298.13
860.69	321.53
861.073	312.17
861.456	251.32
861.838	312.17
862.221	305.15
862.604	349.62
862.986	256
863.369	389.41
863.751	335.57
864.133	312.17
864.516	312.17
864.898	274.72
865.28	274.72
865.662	291.1
866.044	344.94
866.426	312.17
866.808	354.3
867.19	307.49
867.572	309.83
867.954	309.83
868.336	326.21
868.717	305.15
869.099	281.74
869.48	291.1
869.862	375.36
870.243	328.55
870.625	307.49
871.006	342.6
871.387	309.83
871.768	281.74
872.149	305.15
872.53	253.66
872.911	288.76
873.292	305.15
873.673	366
874.054	246.63
874.435	277.06
874.815	319.19
875.196	316.85
875.577	291.1
875.957	302.81
876.338	298.13
876.718	300.47
877.098	333.23
877.479	244.29
877.859	335.57
878.239	258.34
878.619	347.28
878.999	251.32
879.379	333.23
879.759	309.83
880.139	316.85
880.519	337.91
880.898	300.47
881.278	354.3
881.658	309.83
882.037	300.47
882.417	258.34
882.796	347.28
883.176	272.38
883.555	305.15
883.934	323.87
884.313	377.7
884.693	319.19
885.072	291.1
885.451	373.02
885.83	344.94
886.209	298.13
886.587	291.1
886.966	319.19
887.345	281.74
887.724	319.19
888.102	291.1
888.481	244.29
888.859	230.25
889.238	309.83
889.616	319.19
889.994	319.19
890.373	319.19
890.751	340.26
891.129	291.1
891.507	300.47
891.885	300.47
892.263	277.06
892.641	330.89
893.019	277.06
893.396	323.87
893.774	314.51
894.152	335.57
894.529	241.95
894.907	373.02
895.284	260.68
895.662	270.04
896.039	263.02
896.416	234.93
896.794	309.83
897.171	305.15
897.548	291.1
897.925	337.91
898.302	314.51
898.679	272.38
899.056	368.34
899.433	300.47
899.809	244.29
900.186	274.72
900.563	333.23
900.939	274.72
901.316	333.23
901.692	319.19
902.069	363.66
902.445	312.17
902.821	312.17
903.197	256
903.574	384.73
903.95	225.57
904.326	335.57
904.702	354.3
905.078	307.49
905.454	305.15
905.829	291.1
906.205	375.36
906.581	300.47
906.956	337.91
907.332	349.62
907.707	333.23
908.083	253.66
908.458	328.55
908.833	333.23
909.209	274.72
909.584	316.85
909.959	314.51
910.334	333.23
910.709	298.13
911.084	302.81
911.459	323.87
911.834	293.44
912.209	358.98
912.583	314.51
912.958	307.49
913.333	335.57
913.707	321.53
914.082	344.94
914.456	307.49
914.83	286.42
915.205	347.28
915.579	284.08
915.953	295.79
916.327	291.1
916.701	246.63
917.075	347.28
917.449	302.81
917.823	270.04
918.197	403.45
918.571	307.49
918.944	347.28
919.318	316.85
919.692	337.91
920.065	314.51
920.438	234.93
920.812	309.83
921.185	305.15
921.558	258.34
921.932	307.49
922.305	309.83
922.678	366
923.051	354.3
923.424	288.76
923.797	333.23
924.17	356.64
924.542	309.83
924.915	356.64
925.288	295.79
925.661	358.98
926.033	361.32
926.406	319.19
926.778	333.23
927.15	326.21
927.523	316.85
927.895	316.85
928.267	220.89
928.639	288.76
929.011	244.29
929.383	319.19
929.755	342.6
930.127	326.21
930.499	323.87
930.871	333.23
931.242	291.1
931.614	410.47
931.986	286.42
932.357	298.13
932.729	288.76
933.1	295.79
933.471	361.32
933.843	302.81
934.214	333.23
934.585	314.51
934.956	326.21
935.327	340.26
935.698	298.13
936.069	340.26
936.44	321.53
936.811	300.47
937.182	288.76
937.552	277.06
937.923	340.26
938.293	316.85
938.664	295.79
939.034	291.1
939.405	344.94
939.775	246.63
940.145	337.91
940.516	298.13
940.886	375.36
941.256	300.47
941.626	293.44
941.996	314.51
942.366	300.47
942.735	300.47
943.105	286.42
943.475	316.85
943.845	227.91
944.214	314.51
944.584	263.02
944.953	307.49
945.323	314.51
945.692	288.76
946.061	349.62
946.43	300.47
946.8	337.91
947.169	349.62
947.538	328.55
947.907	241.95
948.276	300.47
948.645	347.28
949.013	330.89
949.382	253.66
949.751	323.87
950.119	351.96
950.488	319.19
950.857	312.17
951.225	337.91
951.593	307.49
951.962	340.26
952.33	337.91
952.698	316.85
953.066	314.51
953.434	319.19
953.802	391.75
954.17	286.42
954.538	286.42
954.906	326.21
955.274	347.28
955.642	375.36
956.009	344.94
956.377	274.72
956.744	272.38
957.112	323.87
957.479	328.55
957.847	314.51
958.214	288.76
958.581	300.47
958.948	316.85
959.315	305.15
959.683	326.21
960.05	375.36
960.416	300.47
960.783	319.19
961.15	335.57
961.517	291.1
961.884	337.91
962.25	300.47
962.617	351.96
962.983	356.64
963.35	342.6
963.716	295.79
964.082	291.1
964.449	330.89
964.815	309.83
965.181	256
965.547	330.89
965.913	305.15
966.279	312.17
966.645	291.1
967.011	274.72
967.377	312.17
967.742	270.04
968.108	251.32
968.474	333.23
968.839	316.85
969.205	344.94
969.57	375.36
969.935	319.19
970.301	326.21
970.666	314.51
971.031	300.47
971.396	305.15
971.761	300.47
972.126	263.02
972.491	344.94
972.856	370.68
973.221	293.44
973.586	309.83
973.95	267.7
974.315	244.29
974.679	274.72
975.044	316.85
975.408	319.19
975.773	307.49
976.137	314.51
976.501	363.66
976.866	272.38
977.23	291.1
977.594	342.6
977.958	373.02
978.322	253.66
978.686	342.6
979.049	309.83
979.413	330.89
979.777	323.87
980.141	356.64
980.504	358.98
980.868	277.06
981.231	284.08
981.595	260.68
981.958	309.83
982.321	293.44
982.684	209.19
983.048	265.36
983.411	253.66
983.774	267.7
984.137	274.72
984.5	307.49
984.862	326.21
985.225	305.15
985.588	284.08
985.951	307.49
986.313	384.73
986.676	263.02
987.038	251.32
987.401	274.72
987.763	309.83
988.125	366
988.488	319.19
988.85	328.55
989.212	246.63
989.574	314.51
989.936	277.06
990.298	319.19
990.66	305.15
991.022	246.63
991.383	256
991.745	373.02
992.107	356.64
992.468	298.13
992.83	293.44
993.191	344.94
993.553	342.6
993.914	337.91
994.275	286.42
994.637	246.63
994.998	384.73
995.359	349.62
995.72	300.47
996.081	344.94
996.442	293.44
996.803	337.91
997.163	284.08
997.524	323.87
997.885	305.15
998.245	302.81
998.606	347.28
998.966	279.4
999.327	256
999.687	284.08
1000.047	284.08
1000.408	305.15
1000.768	314.51
1001.128	279.4
1001.488	330.89
1001.848	312.17
1002.208	302.81
1002.568	316.85
1002.927	300.47
1003.287	326.21
1003.647	321.53
1004.007	279.4
1004.366	300.47
1004.726	356.64
1005.085	248.97
1005.444	279.4
1005.804	305.15
1006.163	300.47
1006.522	286.42
1006.881	312.17
1007.24	291.1
1007.599	284.08
1007.958	314.51
1008.317	288.76
1008.676	270.04
1009.035	314.51
1009.393	335.57
1009.752	298.13
1010.111	323.87
1010.469	295.79
1010.828	284.08
1011.186	305.15
1011.544	333.23
1011.903	298.13
1012.261	298.13
1012.619	293.44
1012.977	265.36
1013.335	335.57
1013.693	361.32
1014.051	258.34
1014.409	321.53
1014.767	298.13
1015.124	291.1
1015.482	354.3
1015.84	241.95
1016.197	335.57
1016.555	351.96
1016.912	291.1
1017.269	347.28
1017.627	281.74
1017.984	328.55
1018.341	330.89
1018.698	323.87
1019.055	291.1
1019.412	300.47
1019.769	342.6
1020.126	321.53
1020.483	279.4
1020.84	323.87
1021.196	309.83
1021.553	288.76
1021.909	279.4
1022.266	248.97
1022.622	274.72
1022.979	408.13
1023.335	323.87
1023.691	347.28
1024.047	298.13
1024.404	321.53
1024.76	326.21
1025.116	307.49
1025.472	248.97
1025.827	337.91
1026.183	302.81
1026.539	351.96
1026.895	309.83
1027.25	340.26
1027.606	234.93
1027.961	265.36
1028.317	316.85
1028.672	272.38
1029.028	302.81
1029.383	366
1029.738	284.08
1030.093	314.51
1030.448	277.06
1030.803	340.26
1031.158	347.28
1031.513	274.72
1031.868	302.81
1032.223	260.68
1032.577	316.85
1032.932	291.1
1033.287	298.13
1033.641	298.13
1033.996	248.97
1034.35	300.47
1034.704	300.47
1035.059	281.74
1035.413	342.6
1035.767	342.6
1036.121	342.6
