Data from Al_FLMS009871__668__15-05-08-509.txt Node

Date: Fri Mar 08 15:05:08 CST 2024
User: pe5414po
Spectrometer: FLMS00987
Trigger mode: 0
Integration Time (sec): 1.000000E-1
Scans to average: 1
Electric dark correction enabled: true
Nonlinearity correction enabled: false
Boxcar width: 0
XAxis mode: Wavelengths
Number of Pixels in Spectrum: 2048
>>>>>Begin Spectral Data<<<<<
188.938	-122
189.409	-122
189.879	-122
190.349	-157.11
190.819	-77.53
191.29	-157.11
191.76	-124.34
192.23	-89.23
192.7	-61.15
193.17	-35.4
193.64	-28.38
194.109	-68.17
194.579	-37.74
195.049	-4.97
195.519	23.11
195.988	44.18
196.458	119.07
196.927	62.9
197.397	116.73
197.866	112.05
198.336	128.44
198.805	142.48
199.274	133.12
199.744	229.08
200.213	193.97
200.682	222.06
201.151	191.63
201.62	219.72
202.089	186.95
202.558	240.78
203.027	208.02
203.495	224.4
203.964	280.57
204.433	268.87
204.902	296.96
205.37	252.49
205.839	278.23
206.307	311
206.776	287.59
207.244	296.96
207.712	315.68
208.181	367.17
208.649	285.25
209.117	282.91
209.585	268.87
210.053	250.14
210.521	318.02
210.989	243.12
211.457	266.53
211.925	306.32
212.393	236.1
212.861	278.23
213.328	217.38
213.796	229.08
214.264	245.46
214.731	252.49
215.199	311
215.666	266.53
216.133	313.34
216.601	252.49
217.068	245.46
217.535	285.25
218.003	271.21
218.47	252.49
218.937	212.7
219.404	261.85
219.871	252.49
220.338	259.51
220.805	278.23
221.271	273.55
221.738	287.59
222.205	264.19
222.671	250.14
223.138	222.06
223.605	252.49
224.071	226.74
224.538	261.85
225.004	250.14
225.47	254.83
225.937	236.1
226.403	271.21
226.869	250.14
227.335	245.46
227.801	303.98
228.267	303.98
228.733	212.7
229.199	259.51
229.665	247.8
230.131	285.25
230.597	275.89
231.062	311
231.528	334.4
231.994	294.61
232.459	252.49
232.925	261.85
233.39	275.89
233.856	259.51
234.321	299.3
234.786	301.64
235.252	301.64
235.717	285.25
236.182	278.23
236.647	282.91
237.112	252.49
237.577	247.8
238.042	280.57
238.507	325.04
238.972	243.12
239.436	240.78
239.901	275.89
240.366	296.96
240.83	222.06
241.295	311
241.76	231.42
242.224	275.89
242.688	315.68
243.153	254.83
243.617	313.34
244.081	292.27
244.545	210.36
245.01	273.55
245.474	252.49
245.938	355.47
246.402	308.66
246.866	247.8
247.33	261.85
247.793	250.14
248.257	250.14
248.721	301.64
249.185	289.93
249.648	254.83
250.112	231.42
250.575	254.83
251.039	266.53
251.502	292.27
251.965	303.98
252.429	250.14
252.892	243.12
253.355	318.02
253.818	229.08
254.281	271.21
254.744	254.83
255.207	329.72
255.67	334.4
256.133	374.19
256.596	287.59
257.059	308.66
257.522	266.53
257.984	320.36
258.447	306.32
258.909	325.04
259.372	320.36
259.834	252.49
260.297	224.4
260.759	296.96
261.221	311
261.684	280.57
262.146	320.36
262.608	306.32
263.07	287.59
263.532	271.21
263.994	334.4
264.456	322.7
264.918	287.59
265.38	245.46
265.842	301.64
266.303	268.87
266.765	374.19
267.227	329.72
267.688	252.49
268.15	327.38
268.611	282.91
269.072	306.32
269.534	247.8
269.995	311
270.456	282.91
270.918	289.93
271.379	278.23
271.84	247.8
272.301	289.93
272.762	318.02
273.223	292.27
273.684	278.23
274.144	350.79
274.605	287.59
275.066	217.38
275.527	355.47
275.987	236.1
276.448	332.06
276.908	325.04
277.369	360.15
277.829	367.17
278.289	229.08
278.75	360.15
279.21	264.19
279.67	299.3
280.13	341.43
280.59	252.49
281.05	327.38
281.51	271.21
281.97	348.45
282.43	388.24
282.89	273.55
283.35	339.09
283.809	301.64
284.269	261.85
284.729	252.49
285.188	355.47
285.648	299.3
286.107	299.3
286.567	320.36
287.026	254.83
287.485	292.27
287.944	301.64
288.404	362.49
288.863	332.06
289.322	313.34
289.781	336.74
290.24	369.51
290.699	353.13
291.158	294.61
291.616	280.57
292.075	315.68
292.534	336.74
292.992	278.23
293.451	285.25
293.91	301.64
294.368	278.23
294.827	306.32
295.285	390.58
295.743	285.25
296.202	313.34
296.66	334.4
297.118	259.51
297.576	334.4
298.034	294.61
298.492	289.93
298.95	198.65
299.408	320.36
299.866	367.17
300.324	313.34
300.781	287.59
301.239	308.66
301.697	280.57
302.154	238.44
302.612	355.47
303.069	301.64
303.527	296.96
303.984	278.23
304.441	350.79
304.899	353.13
305.356	289.93
305.813	343.77
306.27	334.4
306.727	322.7
307.184	268.87
307.641	287.59
308.098	315.68
308.555	264.19
309.012	289.93
309.468	339.09
309.925	306.32
310.382	395.26
310.838	252.49
311.295	315.68
311.751	271.21
312.208	343.77
312.664	303.98
313.12	287.59
313.577	278.23
314.033	348.45
314.489	339.09
314.945	285.25
315.401	339.09
315.857	362.49
316.313	266.53
316.769	289.93
317.225	303.98
317.681	332.06
318.136	287.59
318.592	271.21
319.048	301.64
319.503	243.12
319.959	327.38
320.414	362.49
320.869	306.32
321.325	313.34
321.78	343.77
322.235	292.27
322.691	240.78
323.146	301.64
323.601	350.79
324.056	264.19
324.511	336.74
324.966	325.04
325.421	247.8
325.875	364.83
326.33	303.98
326.785	287.59
327.24	315.68
327.694	360.15
328.149	367.17
328.603	336.74
329.058	301.64
329.512	339.09
329.966	350.79
330.421	318.02
330.875	292.27
331.329	261.85
331.783	303.98
332.237	308.66
332.691	334.4
333.145	299.3
333.599	320.36
334.053	299.3
334.507	278.23
334.96	325.04
335.414	282.91
335.868	322.7
336.321	325.04
336.775	334.4
337.228	320.36
337.682	332.06
338.135	280.57
338.588	282.91
339.042	367.17
339.495	294.61
339.948	336.74
340.401	334.4
340.854	275.89
341.307	299.3
341.76	299.3
342.213	343.77
342.666	311
343.119	308.66
343.571	287.59
344.024	329.72
344.477	348.45
344.929	280.57
345.382	278.23
345.834	362.49
346.287	332.06
346.739	261.85
347.191	282.91
347.644	287.59
348.096	292.27
348.548	332.06
349	273.55
349.452	327.38
349.904	334.4
350.356	318.02
350.808	266.53
351.26	285.25
351.711	292.27
352.163	353.13
352.615	296.96
353.066	275.89
353.518	378.87
353.969	275.89
354.421	306.32
354.872	329.72
355.324	327.38
355.775	327.38
356.226	327.38
356.677	320.36
357.128	327.38
357.579	306.32
358.03	231.42
358.481	311
358.932	280.57
359.383	278.23
359.834	390.58
360.285	306.32
360.735	280.57
361.186	334.4
361.637	296.96
362.087	343.77
362.538	296.96
362.988	329.72
363.438	315.68
363.889	353.13
364.339	343.77
364.789	311
365.239	318.02
365.689	357.81
366.139	353.13
366.589	306.32
367.039	360.15
367.489	320.36
367.939	308.66
368.389	353.13
368.839	311
369.288	322.7
369.738	289.93
370.187	339.09
370.637	339.09
371.086	350.79
371.536	341.43
371.985	376.53
372.434	332.06
372.884	318.02
373.333	275.89
373.782	294.61
374.231	224.4
374.68	336.74
375.129	254.83
375.578	402.28
376.027	299.3
376.475	254.83
376.924	311
377.373	271.21
377.822	348.45
378.27	325.04
378.719	360.15
379.167	280.57
379.616	329.72
380.064	360.15
380.512	357.81
380.961	383.56
381.409	329.72
381.857	322.7
382.305	322.7
382.753	308.66
383.201	320.36
383.649	275.89
384.097	341.43
384.545	271.21
384.992	339.09
385.44	285.25
385.888	341.43
386.335	285.25
386.783	287.59
387.231	322.7
387.678	313.34
388.125	318.02
388.573	299.3
389.02	231.42
389.467	308.66
389.914	313.34
390.362	343.77
390.809	278.23
391.256	320.36
391.703	357.81
392.15	336.74
392.596	306.32
393.043	292.27
393.49	332.06
393.937	252.49
394.383	371.85
394.83	245.46
395.276	313.34
395.723	318.02
396.169	376.53
396.616	334.4
397.062	378.87
397.508	341.43
397.954	348.45
398.401	346.11
398.847	287.59
399.293	313.34
399.739	271.21
400.185	397.6
400.631	282.91
401.076	311
401.522	336.74
401.968	273.55
402.414	271.21
402.859	294.61
403.305	374.19
403.75	320.36
404.196	411.64
404.641	329.72
405.086	280.57
405.532	311
405.977	313.34
406.422	343.77
406.867	327.38
407.312	320.36
407.757	299.3
408.202	327.38
408.647	287.59
409.092	311
409.537	341.43
409.982	343.77
410.426	264.19
410.871	250.14
411.316	336.74
411.76	332.06
412.205	296.96
412.649	280.57
413.093	343.77
413.538	325.04
413.982	289.93
414.426	231.42
414.87	306.32
415.314	287.59
415.758	376.53
416.202	264.19
416.646	296.96
417.09	301.64
417.534	320.36
417.978	303.98
418.421	271.21
418.865	315.68
419.309	261.85
419.752	360.15
420.196	313.34
420.639	343.77
421.083	348.45
421.526	301.64
421.969	332.06
422.412	313.34
422.856	278.23
423.299	360.15
423.742	313.34
424.185	303.98
424.628	285.25
425.071	311
425.513	346.11
425.956	280.57
426.399	303.98
426.842	266.53
427.284	322.7
427.727	390.58
428.169	306.32
428.612	318.02
429.054	280.57
429.497	327.38
429.939	362.49
430.381	254.83
430.823	311
431.265	282.91
431.707	315.68
432.149	339.09
432.591	289.93
433.033	332.06
433.475	341.43
433.917	334.4
434.359	397.6
434.8	339.09
435.242	327.38
435.684	355.47
436.125	376.53
436.567	364.83
437.008	336.74
437.449	287.59
437.891	259.51
438.332	336.74
438.773	376.53
439.214	301.64
439.656	348.45
440.097	362.49
440.538	334.4
440.978	299.3
441.419	289.93
441.86	341.43
442.301	306.32
442.742	353.13
443.182	320.36
443.623	320.36
444.063	369.51
444.504	254.83
444.944	311
445.385	336.74
445.825	313.34
446.265	275.89
446.706	322.7
447.146	355.47
447.586	348.45
448.026	266.53
448.466	346.11
448.906	374.19
449.346	296.96
449.786	289.93
450.225	318.02
450.665	315.68
451.105	367.17
451.544	315.68
451.984	339.09
452.424	339.09
452.863	320.36
453.302	336.74
453.742	287.59
454.181	266.53
454.62	378.87
455.059	280.57
455.499	385.9
455.938	357.81
456.377	280.57
456.816	252.49
457.254	320.36
457.693	313.34
458.132	360.15
458.571	334.4
459.01	325.04
459.448	341.43
459.887	294.61
460.325	313.34
460.764	343.77
461.202	282.91
461.641	308.66
462.079	229.08
462.517	299.3
462.955	325.04
463.393	289.93
463.832	348.45
464.27	289.93
464.708	301.64
465.145	282.91
465.583	292.27
466.021	303.98
466.459	287.59
466.897	350.79
467.334	299.3
467.772	318.02
468.209	252.49
468.647	315.68
469.084	332.06
469.522	343.77
469.959	334.4
470.396	325.04
470.833	292.27
471.271	346.11
471.708	296.96
472.145	334.4
472.582	292.27
473.019	327.38
473.456	315.68
473.892	292.27
474.329	334.4
474.766	341.43
475.202	325.04
475.639	329.72
476.076	271.21
476.512	292.27
476.949	355.47
477.385	320.36
477.821	327.38
478.258	385.9
478.694	346.11
479.13	320.36
479.566	294.61
480.002	334.4
480.438	318.02
480.874	301.64
481.31	294.61
481.746	280.57
482.181	362.49
482.617	339.09
483.053	275.89
483.488	350.79
483.924	311
484.36	315.68
484.795	346.11
485.23	327.38
485.666	327.38
486.101	336.74
486.536	381.21
486.971	343.77
487.407	353.13
487.842	325.04
488.277	268.87
488.712	371.85
489.146	339.09
489.581	339.09
490.016	362.49
490.451	367.17
490.885	296.96
491.32	332.06
491.755	318.02
492.189	282.91
492.624	289.93
493.058	287.59
493.492	341.43
493.927	240.78
494.361	336.74
494.795	315.68
495.229	273.55
495.663	350.79
496.097	320.36
496.531	339.09
496.965	282.91
497.399	294.61
497.833	294.61
498.266	285.25
498.7	327.38
499.134	299.3
499.567	388.24
500.001	332.06
500.434	346.11
500.868	362.49
501.301	325.04
501.734	289.93
502.168	299.3
502.601	329.72
503.034	357.81
503.467	273.55
503.9	339.09
504.333	278.23
504.766	289.93
505.199	318.02
505.632	308.66
506.064	360.15
506.497	311
506.93	273.55
507.362	264.19
507.795	311
508.227	308.66
508.66	280.57
509.092	378.87
509.524	336.74
509.956	247.8
510.389	343.77
510.821	390.58
511.253	313.34
511.685	348.45
512.117	327.38
512.549	306.32
512.981	381.21
513.412	303.98
513.844	289.93
514.276	334.4
514.707	334.4
515.139	282.91
515.571	364.83
516.002	334.4
516.433	362.49
516.865	357.81
517.296	322.7
517.727	343.77
518.159	306.32
518.59	329.72
519.021	369.51
519.452	346.11
519.883	353.13
520.314	357.81
520.744	266.53
521.175	299.3
521.606	385.9
522.037	343.77
522.467	364.83
522.898	271.21
523.328	311
523.759	303.98
524.189	334.4
524.62	296.96
525.05	301.64
525.48	322.7
525.91	346.11
526.341	287.59
526.771	250.14
527.201	332.06
527.631	327.38
528.061	348.45
528.49	334.4
528.92	339.09
529.35	308.66
529.78	339.09
530.209	355.47
530.639	367.17
531.068	285.25
531.498	278.23
531.927	285.25
532.357	278.23
532.786	327.38
533.215	355.47
533.644	329.72
534.074	355.47
534.503	367.17
534.932	390.58
535.361	376.53
535.79	271.21
536.218	250.14
536.647	336.74
537.076	348.45
537.505	336.74
537.933	362.49
538.362	315.68
538.79	315.68
539.219	383.56
539.647	343.77
540.076	306.32
540.504	320.36
540.932	320.36
541.36	329.72
541.788	334.4
542.217	320.36
542.645	308.66
543.073	318.02
543.5	322.7
543.928	278.23
544.356	355.47
544.784	390.58
545.211	287.59
545.639	275.89
546.067	315.68
546.494	409.3
546.922	292.27
547.349	357.81
547.776	318.02
548.204	301.64
548.631	339.09
549.058	332.06
549.485	332.06
549.912	315.68
550.339	289.93
550.766	289.93
551.193	336.74
551.62	303.98
552.047	325.04
552.474	301.64
552.9	376.53
553.327	348.45
553.754	313.34
554.18	306.32
554.607	303.98
555.033	318.02
555.459	350.79
555.886	247.8
556.312	320.36
556.738	299.3
557.164	264.19
557.59	275.89
558.016	313.34
558.442	346.11
558.868	273.55
559.294	318.02
559.72	299.3
560.145	355.47
560.571	367.17
560.997	318.02
561.422	311
561.848	325.04
562.273	292.27
562.699	233.76
563.124	376.53
563.549	374.19
563.974	320.36
564.4	289.93
564.825	306.32
565.25	275.89
565.675	325.04
566.1	318.02
566.525	254.83
566.95	376.53
567.374	308.66
567.799	278.23
568.224	367.17
568.648	383.56
569.073	275.89
569.497	287.59
569.922	390.58
570.346	303.98
570.771	296.96
571.195	299.3
571.619	306.32
572.043	296.96
572.467	318.02
572.891	343.77
573.315	325.04
573.739	306.32
574.163	301.64
574.587	339.09
575.011	245.46
575.435	329.72
575.858	320.36
576.282	299.3
576.705	303.98
577.129	346.11
577.552	322.7
577.976	285.25
578.399	287.59
578.822	374.19
579.245	339.09
579.669	303.98
580.092	285.25
580.515	348.45
580.938	315.68
581.361	313.34
581.784	332.06
582.206	369.51
582.629	378.87
583.052	301.64
583.474	336.74
583.897	346.11
584.32	355.47
584.742	350.79
585.165	303.98
585.587	259.51
586.009	357.81
586.431	325.04
586.854	336.74
587.276	332.06
587.698	348.45
588.12	374.19
588.542	273.55
588.964	296.96
589.386	327.38
589.807	350.79
590.229	306.32
590.651	332.06
591.073	301.64
591.494	250.14
591.916	360.15
592.337	282.91
592.759	346.11
593.18	364.83
593.601	315.68
594.022	261.85
594.444	308.66
594.865	273.55
595.286	282.91
595.707	343.77
596.128	311
596.549	339.09
596.97	327.38
597.39	313.34
597.811	329.72
598.232	271.21
598.652	313.34
599.073	329.72
599.494	285.25
599.914	336.74
600.334	311
600.755	369.51
601.175	313.34
601.595	266.53
602.015	282.91
602.436	327.38
602.856	402.28
603.276	350.79
603.696	350.79
604.115	318.02
604.535	278.23
604.955	273.55
605.375	341.43
605.794	369.51
606.214	311
606.634	301.64
607.053	219.72
607.473	322.7
607.892	275.89
608.311	322.7
608.731	308.66
609.15	374.19
609.569	350.79
609.988	303.98
610.407	355.47
610.826	329.72
611.245	254.83
611.664	364.83
612.083	355.47
612.501	348.45
612.92	261.85
613.339	313.34
613.757	278.23
614.176	311
614.594	374.19
615.013	268.87
615.431	388.24
615.85	245.46
616.268	332.06
616.686	311
617.104	329.72
617.522	294.61
617.94	336.74
618.358	271.21
618.776	294.61
619.194	355.47
619.612	266.53
620.03	282.91
620.447	273.55
620.865	285.25
621.282	268.87
621.7	285.25
622.117	303.98
622.535	383.56
622.952	299.3
623.369	409.3
623.787	318.02
624.204	266.53
624.621	357.81
625.038	325.04
625.455	287.59
625.872	320.36
626.289	332.06
626.706	303.98
627.123	334.4
627.539	334.4
627.956	313.34
628.373	341.43
628.789	318.02
629.206	311
629.622	334.4
630.038	332.06
630.455	243.12
630.871	320.36
631.287	285.25
631.703	301.64
632.12	336.74
632.536	315.68
632.952	350.79
633.368	364.83
633.783	364.83
634.199	357.81
634.615	306.32
635.031	332.06
635.446	334.4
635.862	306.32
636.277	374.19
636.693	306.32
637.108	369.51
637.524	381.21
637.939	301.64
638.354	329.72
638.77	343.77
639.185	327.38
639.6	371.85
640.015	318.02
640.43	322.7
640.845	334.4
641.259	306.32
641.674	259.51
642.089	311
642.504	332.06
642.918	226.74
643.333	329.72
643.747	292.27
644.162	299.3
644.576	289.93
644.991	332.06
645.405	280.57
645.819	294.61
646.233	343.77
646.647	320.36
647.061	318.02
647.475	292.27
647.889	313.34
648.303	231.42
648.717	299.3
649.131	348.45
649.545	280.57
649.958	388.24
650.372	311
650.785	399.94
651.199	289.93
651.612	334.4
652.026	336.74
652.439	416.32
652.852	282.91
653.266	287.59
653.679	334.4
654.092	311
654.505	332.06
654.918	364.83
655.331	371.85
655.744	306.32
656.156	383.56
656.569	355.47
656.982	282.91
657.394	339.09
657.807	362.49
658.22	320.36
658.632	329.72
659.044	308.66
659.457	322.7
659.869	367.17
660.281	346.11
660.693	327.38
661.106	292.27
661.518	392.92
661.93	289.93
662.342	348.45
662.754	362.49
663.165	313.34
663.577	343.77
663.989	320.36
664.401	261.85
664.812	287.59
665.224	322.7
665.635	311
666.047	271.21
666.458	287.59
666.869	292.27
667.281	247.8
667.692	341.43
668.103	367.17
668.514	311
668.925	285.25
669.336	313.34
669.747	364.83
670.158	341.43
670.569	266.53
670.979	285.25
671.39	303.98
671.801	320.36
672.211	308.66
672.622	289.93
673.032	336.74
673.443	327.38
673.853	285.25
674.263	311
674.674	306.32
675.084	348.45
675.494	325.04
675.904	275.89
676.314	318.02
676.724	343.77
677.134	322.7
677.544	226.74
677.953	294.61
678.363	376.53
678.773	353.13
679.182	341.43
679.592	378.87
680.001	336.74
680.411	350.79
680.82	301.64
681.23	327.38
681.639	243.12
682.048	334.4
682.457	332.06
682.866	308.66
683.275	343.77
683.684	339.09
684.093	273.55
684.502	364.83
684.911	315.68
685.32	306.32
685.728	360.15
686.137	294.61
686.546	353.13
686.954	287.59
687.363	348.45
687.771	327.38
688.179	285.25
688.588	264.19
688.996	311
689.404	322.7
689.812	348.45
690.22	294.61
690.628	289.93
691.036	327.38
691.444	308.66
691.852	294.61
692.26	285.25
692.667	311
693.075	371.85
693.483	264.19
693.89	336.74
694.298	289.93
694.705	299.3
695.112	362.49
695.52	294.61
695.927	306.32
696.334	348.45
696.741	329.72
697.148	268.87
697.555	350.79
697.962	315.68
698.369	257.17
698.776	303.98
699.183	245.46
699.59	346.11
699.996	287.59
700.403	327.38
700.81	299.3
701.216	364.83
701.623	287.59
702.029	306.32
702.435	282.91
702.842	334.4
703.248	311
703.654	306.32
704.06	292.27
704.466	308.66
704.872	282.91
705.278	355.47
705.684	367.17
706.09	378.87
706.496	357.81
706.901	336.74
707.307	353.13
707.712	313.34
708.118	346.11
708.523	364.83
708.929	343.77
709.334	306.32
709.74	341.43
710.145	264.19
710.55	292.27
710.955	292.27
711.36	306.32
711.765	275.89
712.17	308.66
712.575	355.47
712.98	804.85
713.385	371.85
713.789	289.93
714.194	325.04
714.599	353.13
715.003	367.17
715.408	362.49
715.812	231.42
716.217	334.4
716.621	367.17
717.025	313.34
717.429	282.91
717.833	343.77
718.238	264.19
718.642	364.83
719.046	308.66
719.449	392.92
719.853	320.36
720.257	308.66
720.661	329.72
721.065	315.68
721.468	376.53
721.872	336.74
722.275	301.64
722.679	378.87
723.082	329.72
723.485	275.89
723.889	343.77
724.292	303.98
724.695	341.43
725.098	280.57
725.501	327.38
725.904	325.04
726.307	355.47
726.71	355.47
727.113	292.27
727.516	250.14
727.918	339.09
728.321	296.96
728.724	306.32
729.126	332.06
729.529	334.4
729.931	261.85
730.333	315.68
730.736	362.49
731.138	271.21
731.54	301.64
731.942	371.85
732.344	320.36
732.746	306.32
733.148	264.19
733.55	303.98
733.952	320.36
734.354	299.3
734.756	268.87
735.157	313.34
735.559	341.43
735.96	346.11
736.362	311
736.763	325.04
737.165	299.3
737.566	247.8
737.967	301.64
738.368	350.79
738.77	320.36
739.171	306.32
739.572	332.06
739.973	350.79
740.374	318.02
740.774	369.51
741.175	334.4
741.576	308.66
741.977	280.57
742.377	245.46
742.778	280.57
743.178	343.77
743.579	306.32
743.979	385.9
744.379	308.66
744.78	348.45
745.18	301.64
745.58	343.77
745.98	322.7
746.38	264.19
746.78	318.02
747.18	271.21
747.58	329.72
747.98	327.38
748.38	341.43
748.779	282.91
749.179	264.19
749.578	313.34
749.978	268.87
750.377	285.25
750.777	346.11
751.176	289.93
751.575	350.79
751.975	339.09
752.374	327.38
752.773	353.13
753.172	254.83
753.571	336.74
753.97	341.43
754.369	339.09
754.768	311
755.166	378.87
755.565	311
755.964	327.38
756.362	341.43
756.761	275.89
757.159	327.38
757.558	332.06
757.956	325.04
758.354	322.7
758.753	374.19
759.151	339.09
759.549	364.83
759.947	254.83
760.345	341.43
760.743	250.14
761.141	294.61
761.539	287.59
761.936	303.98
762.334	266.53
762.732	353.13
763.129	332.06
763.527	334.4
763.924	388.24
764.322	378.87
764.719	296.96
765.117	275.89
765.514	311
765.911	294.61
766.308	285.25
766.705	315.68
767.102	252.49
767.499	327.38
767.896	327.38
768.293	355.47
768.69	399.94
769.086	301.64
769.483	376.53
769.88	339.09
770.276	259.51
770.673	334.4
771.069	322.7
771.466	332.06
771.862	313.34
772.258	362.49
772.654	278.23
773.05	294.61
773.447	322.7
773.843	360.15
774.239	339.09
774.634	315.68
775.03	294.61
775.426	355.47
775.822	318.02
776.218	355.47
776.613	329.72
777.009	341.43
777.404	339.09
777.8	315.68
778.195	334.4
778.59	336.74
778.986	336.74
779.381	327.38
779.776	311
780.171	334.4
780.566	278.23
780.961	334.4
781.356	325.04
781.751	275.89
782.146	250.14
782.54	315.68
782.935	273.55
783.33	334.4
783.724	332.06
784.119	334.4
784.513	348.45
784.908	355.47
785.302	325.04
785.696	336.74
786.09	296.96
786.485	252.49
786.879	278.23
787.273	353.13
787.667	292.27
788.061	254.83
788.454	287.59
788.848	348.45
789.242	254.83
789.636	299.3
790.029	332.06
790.423	278.23
790.816	285.25
791.21	275.89
791.603	329.72
791.997	332.06
792.39	315.68
792.783	336.74
793.176	299.3
793.569	299.3
793.962	350.79
794.355	287.59
794.748	282.91
795.141	282.91
795.534	367.17
795.927	303.98
796.319	334.4
796.712	299.3
797.105	247.8
797.497	275.89
797.89	332.06
798.282	329.72
798.674	311
799.067	252.49
799.459	308.66
799.851	332.06
800.243	346.11
800.635	360.15
801.027	287.59
801.419	362.49
801.811	224.4
802.203	311
802.594	261.85
802.986	329.72
803.378	315.68
803.769	282.91
804.161	336.74
804.552	273.55
804.944	289.93
805.335	362.49
805.726	369.51
806.118	334.4
806.509	261.85
806.9	301.64
807.291	339.09
807.682	289.93
808.073	287.59
808.464	339.09
808.855	360.15
809.245	346.11
809.636	353.13
810.027	357.81
810.417	318.02
810.808	318.02
811.198	311
811.589	268.87
811.979	289.93
812.369	250.14
812.759	278.23
813.15	308.66
813.54	296.96
813.93	301.64
814.32	292.27
814.71	348.45
815.1	376.53
815.489	311
815.879	271.21
816.269	266.53
816.658	308.66
817.048	350.79
817.438	308.66
817.827	320.36
818.216	280.57
818.606	273.55
818.995	313.34
819.384	254.83
819.773	285.25
820.163	301.64
820.552	322.7
820.941	289.93
821.33	303.98
821.718	332.06
822.107	285.25
822.496	271.21
822.885	278.23
823.273	280.57
823.662	294.61
824.05	303.98
824.439	287.59
824.827	292.27
825.216	296.96
825.604	336.74
825.992	261.85
826.38	306.32
826.768	383.56
827.156	306.32
827.544	311
827.932	268.87
828.32	329.72
828.708	273.55
829.096	245.46
829.483	280.57
829.871	301.64
830.259	313.34
830.646	355.47
831.034	318.02
831.421	353.13
831.808	346.11
832.196	346.11
832.583	353.13
832.97	320.36
833.357	329.72
833.744	334.4
834.131	292.27
834.518	353.13
834.905	332.06
835.292	369.51
835.678	376.53
836.065	318.02
836.452	357.81
836.838	336.74
837.225	350.79
837.611	299.3
837.998	334.4
838.384	275.89
838.77	339.09
839.157	285.25
839.543	371.85
839.929	353.13
840.315	350.79
840.701	322.7
841.087	332.06
841.473	353.13
841.858	306.32
842.244	275.89
842.63	303.98
843.015	327.38
843.401	531.01
843.787	311
844.172	308.66
844.557	327.38
844.943	301.64
845.328	315.68
845.713	271.21
846.098	343.77
846.483	367.17
846.868	378.87
847.253	250.14
847.638	325.04
848.023	287.59
848.408	374.19
848.793	313.34
849.177	343.77
849.562	287.59
849.947	296.96
850.331	287.59
850.715	257.17
851.1	268.87
851.484	301.64
851.868	287.59
852.253	198.65
852.637	332.06
853.021	357.81
853.405	322.7
853.789	273.55
854.173	332.06
854.557	383.56
854.94	280.57
855.324	364.83
855.708	313.34
856.091	299.3
856.475	325.04
856.858	292.27
857.242	325.04
857.625	360.15
858.009	311
858.392	306.32
858.775	294.61
859.158	315.68
859.541	378.87
859.924	355.47
860.307	268.87
860.69	280.57
861.073	301.64
861.456	252.49
861.838	282.91
862.221	367.17
862.604	339.09
862.986	252.49
863.369	325.04
863.751	327.38
864.133	280.57
864.516	313.34
864.898	273.55
865.28	348.45
865.662	339.09
866.044	296.96
866.426	332.06
866.808	294.61
867.19	369.51
867.572	336.74
867.954	334.4
868.336	318.02
868.717	275.89
869.099	392.92
869.48	343.77
869.862	385.9
870.243	306.32
870.625	332.06
871.006	306.32
871.387	343.77
871.768	271.21
872.149	371.85
872.53	266.53
872.911	287.59
873.292	287.59
873.673	306.32
874.054	320.36
874.435	318.02
874.815	329.72
875.196	282.91
875.577	306.32
875.957	336.74
876.338	315.68
876.718	308.66
877.098	346.11
877.479	320.36
877.859	339.09
878.239	348.45
878.619	282.91
878.999	306.32
879.379	364.83
879.759	313.34
880.139	327.38
880.519	350.79
880.898	325.04
881.278	273.55
881.658	341.43
882.037	325.04
882.417	336.74
882.796	273.55
883.176	308.66
883.555	350.79
883.934	320.36
884.313	306.32
884.693	346.11
885.072	348.45
885.451	285.25
885.83	289.93
886.209	296.96
886.587	362.49
886.966	294.61
887.345	289.93
887.724	240.78
888.102	339.09
888.481	348.45
888.859	280.57
889.238	334.4
889.616	409.3
889.994	313.34
890.373	360.15
890.751	381.21
891.129	320.36
891.507	320.36
891.885	336.74
892.263	303.98
892.641	320.36
893.019	271.21
893.396	285.25
893.774	296.96
894.152	332.06
894.529	336.74
894.907	343.77
895.284	327.38
895.662	292.27
896.039	303.98
896.416	367.17
896.794	343.77
897.171	339.09
897.548	280.57
897.925	289.93
898.302	308.66
898.679	315.68
899.056	332.06
899.433	320.36
899.809	282.91
900.186	292.27
900.563	301.64
900.939	247.8
901.316	350.79
901.692	303.98
902.069	308.66
902.445	355.47
902.821	336.74
903.197	294.61
903.574	271.21
903.95	287.59
904.326	334.4
904.702	343.77
905.078	336.74
905.454	273.55
905.829	287.59
906.205	329.72
906.581	334.4
906.956	282.91
907.332	271.21
907.707	371.85
908.083	327.38
908.458	292.27
908.833	322.7
909.209	413.98
909.584	245.46
909.959	320.36
910.334	346.11
910.709	289.93
911.084	364.83
911.459	289.93
911.834	313.34
912.209	320.36
912.583	268.87
912.958	292.27
913.333	254.83
913.707	364.83
914.082	350.79
914.456	334.4
914.83	289.93
915.205	336.74
915.579	353.13
915.953	341.43
916.327	325.04
916.701	240.78
917.075	306.32
917.449	306.32
917.823	303.98
918.197	329.72
918.571	334.4
918.944	296.96
919.318	306.32
919.692	332.06
920.065	318.02
920.438	296.96
920.812	254.83
921.185	320.36
921.558	341.43
921.932	311
922.305	329.72
922.678	289.93
923.051	388.24
923.424	289.93
923.797	341.43
924.17	308.66
924.542	339.09
924.915	303.98
925.288	334.4
925.661	322.7
926.033	306.32
926.406	374.19
926.778	350.79
927.15	315.68
927.523	355.47
927.895	334.4
928.267	367.17
928.639	341.43
929.011	292.27
929.383	315.68
929.755	334.4
930.127	406.96
930.499	285.25
930.871	261.85
931.242	348.45
931.614	343.77
931.986	318.02
932.357	318.02
932.729	287.59
933.1	266.53
933.471	292.27
933.843	301.64
934.214	334.4
934.585	282.91
934.956	332.06
935.327	341.43
935.698	294.61
936.069	353.13
936.44	308.66
936.811	308.66
937.182	327.38
937.552	271.21
937.923	371.85
938.293	339.09
938.664	325.04
939.034	264.19
939.405	311
939.775	325.04
940.145	303.98
940.516	334.4
940.886	257.17
941.256	280.57
941.626	268.87
941.996	289.93
942.366	334.4
942.735	313.34
943.105	329.72
943.475	306.32
943.845	264.19
944.214	334.4
944.584	308.66
944.953	374.19
945.323	320.36
945.692	303.98
946.061	311
946.43	371.85
946.8	348.45
947.169	252.49
947.538	294.61
947.907	322.7
948.276	357.81
948.645	327.38
949.013	315.68
949.382	308.66
949.751	303.98
950.119	336.74
950.488	311
950.857	278.23
951.225	334.4
951.593	275.89
951.962	254.83
952.33	308.66
952.698	339.09
953.066	325.04
953.434	308.66
953.802	308.66
954.17	296.96
954.538	327.38
954.906	357.81
955.274	296.96
955.642	287.59
956.009	264.19
956.377	362.49
956.744	308.66
957.112	250.14
957.479	296.96
957.847	355.47
958.214	282.91
958.581	287.59
958.948	296.96
959.315	348.45
959.683	254.83
960.05	271.21
960.416	339.09
960.783	329.72
961.15	336.74
961.517	313.34
961.884	325.04
962.25	322.7
962.617	350.79
962.983	296.96
963.35	247.8
963.716	339.09
964.082	238.44
964.449	294.61
964.815	245.46
965.181	261.85
965.547	285.25
965.913	275.89
966.279	271.21
966.645	275.89
967.011	376.53
967.377	285.25
967.742	271.21
968.108	236.1
968.474	313.34
968.839	313.34
969.205	322.7
969.57	301.64
969.935	336.74
970.301	318.02
970.666	350.79
971.031	313.34
971.396	322.7
971.761	339.09
972.126	353.13
972.491	285.25
972.856	294.61
973.221	355.47
973.586	294.61
973.95	301.64
974.315	332.06
974.679	332.06
975.044	320.36
975.408	308.66
975.773	271.21
976.137	313.34
976.501	322.7
976.866	289.93
977.23	292.27
977.594	301.64
977.958	327.38
978.322	299.3
978.686	245.46
979.049	243.12
979.413	374.19
979.777	273.55
980.141	296.96
980.504	350.79
980.868	320.36
981.231	320.36
981.595	275.89
981.958	301.64
982.321	280.57
982.684	313.34
983.048	350.79
983.411	383.56
983.774	289.93
984.137	273.55
984.5	289.93
984.862	275.89
985.225	292.27
985.588	357.81
985.951	350.79
986.313	315.68
986.676	322.7
987.038	247.8
987.401	322.7
987.763	332.06
988.125	245.46
988.488	289.93
988.85	313.34
989.212	289.93
989.574	285.25
989.936	294.61
990.298	353.13
990.66	322.7
991.022	301.64
991.383	303.98
991.745	289.93
992.107	311
992.468	360.15
992.83	308.66
993.191	257.17
993.553	296.96
993.914	294.61
994.275	346.11
994.637	292.27
994.998	350.79
995.359	306.32
995.72	360.15
996.081	292.27
996.442	308.66
996.803	257.17
997.163	287.59
997.524	271.21
997.885	332.06
998.245	311
998.606	303.98
998.966	282.91
999.327	343.77
999.687	271.21
1000.047	285.25
1000.408	294.61
1000.768	285.25
1001.128	329.72
1001.488	296.96
1001.848	346.11
1002.208	308.66
1002.568	299.3
1002.927	332.06
1003.287	320.36
1003.647	329.72
1004.007	395.26
1004.366	282.91
1004.726	313.34
1005.085	336.74
1005.444	360.15
1005.804	341.43
1006.163	261.85
1006.522	261.85
1006.881	311
1007.24	280.57
1007.599	271.21
1007.958	320.36
1008.317	315.68
1008.676	289.93
1009.035	282.91
1009.393	353.13
1009.752	243.12
1010.111	315.68
1010.469	339.09
1010.828	243.12
1011.186	259.51
1011.544	334.4
1011.903	282.91
1012.261	332.06
1012.619	320.36
1012.977	325.04
1013.335	329.72
1013.693	294.61
1014.051	266.53
1014.409	308.66
1014.767	292.27
1015.124	303.98
1015.482	332.06
1015.84	360.15
1016.197	311
1016.555	378.87
1016.912	303.98
1017.269	266.53
1017.627	257.17
1017.984	318.02
1018.341	392.92
1018.698	322.7
1019.055	341.43
1019.412	346.11
1019.769	325.04
1020.126	371.85
1020.483	327.38
1020.84	299.3
1021.196	301.64
1021.553	311
1021.909	296.96
1022.266	268.87
1022.622	329.72
1022.979	369.51
1023.335	346.11
1023.691	320.36
1024.047	273.55
1024.404	341.43
1024.76	285.25
1025.116	329.72
1025.472	294.61
1025.827	299.3
1026.183	346.11
1026.539	303.98
1026.895	374.19
1027.25	313.34
1027.606	231.42
1027.961	371.85
1028.317	313.34
1028.672	273.55
1029.028	308.66
1029.383	325.04
1029.738	385.9
1030.093	261.85
1030.448	332.06
1030.803	296.96
1031.158	339.09
1031.513	294.61
1031.868	311
1032.223	308.66
1032.577	320.36
1032.932	294.61
1033.287	322.7
1033.641	327.38
1033.996	287.59
1034.35	285.25
1034.704	341.43
1035.059	289.93
1035.413	353.13
1035.767	353.13
1036.121	353.13
