Data from Al_FLMS009871__661__15-05-07-809.txt Node

Date: Fri Mar 08 15:05:07 CST 2024
User: pe5414po
Spectrometer: FLMS00987
Trigger mode: 0
Integration Time (sec): 1.000000E-1
Scans to average: 1
Electric dark correction enabled: true
Nonlinearity correction enabled: false
Boxcar width: 0
XAxis mode: Wavelengths
Number of Pixels in Spectrum: 2048
>>>>>Begin Spectral Data<<<<<
188.938	-80.31
189.409	-80.31
189.879	-80.31
190.349	-110.74
190.819	-82.65
191.29	-110.74
191.76	-87.33
192.23	-77.97
192.7	-150.53
193.17	-19.46
193.64	-42.86
194.109	-17.12
194.579	-17.12
195.049	50.76
195.519	-10.09
195.988	57.78
196.458	8.63
196.927	92.89
197.397	104.59
197.866	88.21
198.336	130.34
198.805	111.61
199.274	242.68
199.744	181.83
200.213	221.62
200.682	139.7
201.151	261.41
201.62	214.6
202.089	291.84
202.558	254.39
203.027	256.73
203.495	242.68
203.964	209.92
204.433	238
204.902	256.73
205.37	268.43
205.839	256.73
206.307	277.79
206.776	273.11
207.244	287.15
207.712	230.98
208.181	263.75
208.649	240.34
209.117	340.99
209.585	301.2
210.053	291.84
210.521	252.05
210.989	268.43
211.457	226.3
211.925	242.68
212.393	294.18
212.861	284.81
213.328	282.47
213.796	238
214.264	242.68
214.731	202.9
215.199	254.39
215.666	191.19
216.133	249.71
216.601	275.45
217.068	282.47
217.535	266.09
218.003	277.79
218.47	240.34
218.937	202.9
219.404	209.92
219.871	277.79
220.338	273.11
220.805	273.11
221.271	329.28
221.738	315.24
222.205	287.15
222.671	219.28
223.138	233.32
223.605	238
224.071	212.26
224.538	207.58
225.004	273.11
225.47	233.32
225.937	291.84
226.403	268.43
226.869	186.51
227.335	233.32
227.801	247.37
228.267	228.64
228.733	282.47
229.199	294.18
229.665	247.37
230.131	221.62
230.597	235.66
231.062	214.6
231.528	263.75
231.994	254.39
232.459	254.39
232.925	252.05
233.39	270.77
233.856	200.55
234.321	228.64
234.786	266.09
235.252	270.77
235.717	280.13
236.182	249.71
236.647	245.02
237.112	268.43
237.577	247.37
238.042	312.9
238.507	301.2
238.972	256.73
239.436	268.43
239.901	240.34
240.366	188.85
240.83	233.32
241.295	329.28
241.76	254.39
242.224	305.88
242.688	247.37
243.153	294.18
243.617	200.55
244.081	261.41
244.545	254.39
245.01	291.84
245.474	310.56
245.938	291.84
246.402	331.62
246.866	266.09
247.33	261.41
247.793	331.62
248.257	298.86
248.721	282.47
249.185	333.97
249.648	284.81
250.112	254.39
250.575	280.13
251.039	261.41
251.502	310.56
251.965	212.26
252.429	233.32
252.892	252.05
253.355	364.39
253.818	266.09
254.281	254.39
254.744	233.32
255.207	317.58
255.67	284.81
256.133	315.24
256.596	308.22
257.059	270.77
257.522	247.37
257.984	268.43
258.447	254.39
258.909	275.45
259.372	331.62
259.834	282.47
260.297	287.15
260.759	270.77
261.221	254.39
261.684	343.33
262.146	336.31
262.608	343.33
263.07	303.54
263.532	298.86
263.994	254.39
264.456	284.81
264.918	221.62
265.38	254.39
265.842	280.13
266.303	205.24
266.765	249.71
267.227	245.02
267.688	275.45
268.15	280.13
268.611	275.45
269.072	277.79
269.534	191.19
269.995	230.98
270.456	266.09
270.918	235.66
271.379	230.98
271.84	259.07
272.301	296.52
272.762	282.47
273.223	331.62
273.684	287.15
274.144	216.94
274.605	287.15
275.066	261.41
275.527	324.6
275.987	216.94
276.448	336.31
276.908	310.56
277.369	312.9
277.829	245.02
278.289	289.5
278.75	252.05
279.21	359.71
279.67	254.39
280.13	294.18
280.59	312.9
281.05	298.86
281.51	249.71
281.97	275.45
282.43	319.92
282.89	310.56
283.35	228.64
283.809	240.34
284.269	296.52
284.729	294.18
285.188	280.13
285.648	235.66
286.107	291.84
286.567	343.33
287.026	273.11
287.485	252.05
287.944	238
288.404	312.9
288.863	245.02
289.322	252.05
289.781	219.28
290.24	366.73
290.699	259.07
291.158	275.45
291.616	238
292.075	259.07
292.534	312.9
292.992	235.66
293.451	315.24
293.91	235.66
294.368	263.75
294.827	305.88
295.285	326.94
295.743	301.2
296.202	326.94
296.66	252.05
297.118	268.43
297.576	340.99
298.034	284.81
298.492	261.41
298.95	284.81
299.408	338.65
299.866	212.26
300.324	296.52
300.781	280.13
301.239	305.88
301.697	308.22
302.154	259.07
302.612	305.88
303.069	308.22
303.527	315.24
303.984	289.5
304.441	230.98
304.899	305.88
305.356	266.09
305.813	333.97
306.27	317.58
306.727	333.97
307.184	338.65
307.641	291.84
308.098	338.65
308.555	326.94
309.012	268.43
309.468	280.13
309.925	252.05
310.382	256.73
310.838	275.45
311.295	296.52
311.751	308.22
312.208	289.5
312.664	362.05
313.12	324.6
313.577	212.26
314.033	336.31
314.489	317.58
314.945	296.52
315.401	263.75
315.857	324.6
316.313	336.31
316.769	247.37
317.225	254.39
317.681	312.9
318.136	301.2
318.592	312.9
319.048	301.2
319.503	284.81
319.959	259.07
320.414	266.09
320.869	338.65
321.325	326.94
321.78	329.28
322.235	263.75
322.691	287.15
323.146	289.5
323.601	308.22
324.056	252.05
324.511	298.86
324.966	305.88
325.421	378.44
325.875	336.31
326.33	308.22
326.785	289.5
327.24	291.84
327.694	254.39
328.149	355.03
328.603	270.77
329.058	280.13
329.512	298.86
329.966	331.62
330.421	261.41
330.875	242.68
331.329	317.58
331.783	336.31
332.237	352.69
332.691	252.05
333.145	238
333.599	294.18
334.053	317.58
334.507	305.88
334.96	298.86
335.414	273.11
335.868	343.33
336.321	326.94
336.775	263.75
337.228	340.99
337.682	331.62
338.135	315.24
338.588	247.37
339.042	275.45
339.495	333.97
339.948	282.47
340.401	287.15
340.854	305.88
341.307	291.84
341.76	315.24
342.213	336.31
342.666	268.43
343.119	254.39
343.571	312.9
344.024	240.34
344.477	284.81
344.929	310.56
345.382	312.9
345.834	315.24
346.287	259.07
346.739	324.6
347.191	331.62
347.644	301.2
348.096	273.11
348.548	259.07
349	305.88
349.452	315.24
349.904	336.31
350.356	350.35
350.808	287.15
351.26	324.6
351.711	333.97
352.163	289.5
352.615	291.84
353.066	291.84
353.518	348.01
353.969	315.24
354.421	270.77
354.872	326.94
355.324	275.45
355.775	350.35
356.226	310.56
356.677	303.54
357.128	303.54
357.579	348.01
358.03	273.11
358.481	331.62
358.932	357.37
359.383	338.65
359.834	364.39
360.285	340.99
360.735	324.6
361.186	317.58
361.637	303.54
362.087	289.5
362.538	263.75
362.988	385.46
363.438	238
363.889	338.65
364.339	350.35
364.789	369.07
365.239	303.54
365.689	366.73
366.139	322.26
366.589	240.34
367.039	305.88
367.489	296.52
367.939	326.94
368.389	371.41
368.839	287.15
369.288	333.97
369.738	310.56
370.187	345.67
370.637	263.75
371.086	268.43
371.536	315.24
371.985	326.94
372.434	284.81
372.884	317.58
373.333	301.2
373.782	259.07
374.231	298.86
374.68	259.07
375.129	298.86
375.578	298.86
376.027	315.24
376.475	312.9
376.924	263.75
377.373	256.73
377.822	270.77
378.27	268.43
378.719	315.24
379.167	261.41
379.616	319.92
380.064	373.75
380.512	263.75
380.961	319.92
381.409	270.77
381.857	284.81
382.305	294.18
382.753	345.67
383.201	294.18
383.649	350.35
384.097	324.6
384.545	291.84
384.992	280.13
385.44	315.24
385.888	324.6
386.335	319.92
386.783	340.99
387.231	294.18
387.678	329.28
388.125	357.37
388.573	331.62
389.02	259.07
389.467	338.65
389.914	355.03
390.362	322.26
390.809	315.24
391.256	296.52
391.703	298.86
392.15	336.31
392.596	287.15
393.043	296.52
393.49	268.43
393.937	261.41
394.383	289.5
394.83	338.65
395.276	305.88
395.723	291.84
396.169	322.26
396.616	294.18
397.062	312.9
397.508	268.43
397.954	317.58
398.401	315.24
398.847	291.84
399.293	333.97
399.739	329.28
400.185	294.18
400.631	263.75
401.076	326.94
401.522	282.47
401.968	364.39
402.414	324.6
402.859	298.86
403.305	280.13
403.75	252.05
404.196	308.22
404.641	310.56
405.086	298.86
405.532	284.81
405.977	242.68
406.422	284.81
406.867	308.22
407.312	303.54
407.757	254.39
408.202	284.81
408.647	301.2
409.092	308.22
409.537	329.28
409.982	308.22
410.426	235.66
410.871	322.26
411.316	373.75
411.76	322.26
412.205	326.94
412.649	294.18
413.093	287.15
413.538	317.58
413.982	315.24
414.426	322.26
414.87	230.98
415.314	310.56
415.758	359.71
416.202	310.56
416.646	254.39
417.09	226.3
417.534	308.22
417.978	282.47
418.421	252.05
418.865	359.71
419.309	233.32
419.752	331.62
420.196	284.81
420.639	345.67
421.083	390.14
421.526	289.5
421.969	357.37
422.412	319.92
422.856	359.71
423.299	352.69
423.742	284.81
424.185	284.81
424.628	336.31
425.071	273.11
425.513	324.6
425.956	319.92
426.399	249.71
426.842	298.86
427.284	247.37
427.727	343.33
428.169	266.09
428.612	263.75
429.054	369.07
429.497	245.02
429.939	315.24
430.381	343.33
430.823	340.99
431.265	245.02
431.707	340.99
432.149	301.2
432.591	301.2
433.033	348.01
433.475	261.41
433.917	305.88
434.359	308.22
434.8	242.68
435.242	350.35
435.684	275.45
436.125	282.47
436.567	298.86
437.008	308.22
437.449	324.6
437.891	319.92
438.332	317.58
438.773	284.81
439.214	317.58
439.656	338.65
440.097	331.62
440.538	326.94
440.978	310.56
441.419	350.35
441.86	289.5
442.301	315.24
442.742	298.86
443.182	369.07
443.623	282.47
444.063	331.62
444.504	315.24
444.944	340.99
445.385	329.28
445.825	266.09
446.265	319.92
446.706	338.65
447.146	319.92
447.586	340.99
448.026	296.52
448.466	369.07
448.906	312.9
449.346	284.81
449.786	315.24
450.225	352.69
450.665	324.6
451.105	324.6
451.544	352.69
451.984	338.65
452.424	338.65
452.863	338.65
453.302	310.56
453.742	319.92
454.181	369.07
454.62	261.41
455.059	326.94
455.499	266.09
455.938	355.03
456.377	287.15
456.816	261.41
457.254	336.31
457.693	319.92
458.132	345.67
458.571	305.88
459.01	275.45
459.448	312.9
459.887	331.62
460.325	340.99
460.764	268.43
461.202	296.52
461.641	282.47
462.079	291.84
462.517	329.28
462.955	277.79
463.393	305.88
463.832	270.77
464.27	219.28
464.708	322.26
465.145	296.52
465.583	296.52
466.021	383.12
466.459	310.56
466.897	324.6
467.334	301.2
467.772	277.79
468.209	336.31
468.647	270.77
469.084	357.37
469.522	303.54
469.959	362.05
470.396	284.81
470.833	284.81
471.271	280.13
471.708	319.92
472.145	319.92
472.582	282.47
473.019	366.73
473.456	340.99
473.892	312.9
474.329	312.9
474.766	280.13
475.202	331.62
475.639	366.73
476.076	254.39
476.512	324.6
476.949	284.81
477.385	310.56
477.821	308.22
478.258	275.45
478.694	319.92
479.13	319.92
479.566	280.13
480.002	308.22
480.438	362.05
480.874	317.58
481.31	326.94
481.746	364.39
482.181	312.9
482.617	371.41
483.053	326.94
483.488	317.58
483.924	336.31
484.36	301.2
484.795	333.97
485.23	317.58
485.666	284.81
486.101	312.9
486.536	270.77
486.971	362.05
487.407	289.5
487.842	315.24
488.277	277.79
488.712	331.62
489.146	291.84
489.581	331.62
490.016	216.94
490.451	296.52
490.885	296.52
491.32	317.58
491.755	301.2
492.189	345.67
492.624	268.43
493.058	291.84
493.492	252.05
493.927	340.99
494.361	364.39
494.795	277.79
495.229	289.5
495.663	303.54
496.097	343.33
496.531	312.9
496.965	376.09
497.399	242.68
497.833	352.69
498.266	273.11
498.7	310.56
499.134	303.54
499.567	298.86
500.001	348.01
500.434	340.99
500.868	369.07
501.301	291.84
501.734	280.13
502.168	261.41
502.601	287.15
503.034	305.88
503.467	247.37
503.9	275.45
504.333	270.77
504.766	366.73
505.199	319.92
505.632	277.79
506.064	348.01
506.497	336.31
506.93	401.84
507.362	266.09
507.795	352.69
508.227	322.26
508.66	256.73
509.092	322.26
509.524	324.6
509.956	249.71
510.389	338.65
510.821	287.15
511.253	319.92
511.685	301.2
512.117	348.01
512.549	298.86
512.981	329.28
513.412	200.55
513.844	280.13
514.276	308.22
514.707	261.41
515.139	355.03
515.571	268.43
516.002	322.26
516.433	345.67
516.865	233.32
517.296	326.94
517.727	366.73
518.159	390.14
518.59	378.44
519.021	284.81
519.452	312.9
519.883	326.94
520.314	296.52
520.744	282.47
521.175	343.33
521.606	291.84
522.037	340.99
522.467	268.43
522.898	326.94
523.328	287.15
523.759	284.81
524.189	338.65
524.62	352.69
525.05	289.5
525.48	338.65
525.91	343.33
526.341	280.13
526.771	291.84
527.201	350.35
527.631	411.2
528.061	310.56
528.49	308.22
528.92	275.45
529.35	273.11
529.78	294.18
530.209	364.39
530.639	298.86
531.068	329.28
531.498	308.22
531.927	287.15
532.357	294.18
532.786	247.37
533.215	284.81
533.644	331.62
534.074	249.71
534.503	394.82
534.932	296.52
535.361	315.24
535.79	324.6
536.218	296.52
536.647	275.45
537.076	277.79
537.505	315.24
537.933	348.01
538.362	319.92
538.79	259.07
539.219	282.47
539.647	282.47
540.076	322.26
540.504	261.41
540.932	296.52
541.36	355.03
541.788	336.31
542.217	329.28
542.645	331.62
543.073	287.15
543.5	284.81
543.928	326.94
544.356	322.26
544.784	352.69
545.211	235.66
545.639	343.33
546.067	266.09
546.494	305.88
546.922	296.52
547.349	317.58
547.776	291.84
548.204	315.24
548.631	315.24
549.058	287.15
549.485	359.71
549.912	350.35
550.339	263.75
550.766	310.56
551.193	324.6
551.62	366.73
552.047	301.2
552.474	261.41
552.9	252.05
553.327	310.56
553.754	331.62
554.18	350.35
554.607	312.9
555.033	256.73
555.459	312.9
555.886	319.92
556.312	343.33
556.738	291.84
557.164	273.11
557.59	362.05
558.016	280.13
558.442	301.2
558.868	303.54
559.294	275.45
559.72	291.84
560.145	345.67
560.571	294.18
560.997	315.24
561.422	343.33
561.848	326.94
562.273	359.71
562.699	315.24
563.124	301.2
563.549	376.09
563.974	326.94
564.4	343.33
564.825	343.33
565.25	355.03
565.675	303.54
566.1	317.58
566.525	296.52
566.95	352.69
567.374	284.81
567.799	221.62
568.224	294.18
568.648	282.47
569.073	333.97
569.497	319.92
569.922	352.69
570.346	319.92
570.771	298.86
571.195	273.11
571.619	322.26
572.043	390.14
572.467	275.45
572.891	317.58
573.315	345.67
573.739	282.47
574.163	291.84
574.587	352.69
575.011	312.9
575.435	242.68
575.858	270.77
576.282	303.54
576.705	319.92
577.129	315.24
577.552	350.35
577.976	308.22
578.399	315.24
578.822	345.67
579.245	357.37
579.669	319.92
580.092	359.71
580.515	310.56
580.938	345.67
581.361	364.39
581.784	326.94
582.206	291.84
582.629	308.22
583.052	308.22
583.474	322.26
583.897	336.31
584.32	326.94
584.742	350.35
585.165	317.58
585.587	277.79
586.009	294.18
586.431	383.12
586.854	287.15
587.276	238
587.698	287.15
588.12	310.56
588.542	369.07
588.964	254.39
589.386	329.28
589.807	305.88
590.229	275.45
590.651	357.37
591.073	350.35
591.494	331.62
591.916	315.24
592.337	240.34
592.759	345.67
593.18	324.6
593.601	324.6
594.022	305.88
594.444	315.24
594.865	242.68
595.286	408.86
595.707	315.24
596.128	390.14
596.549	315.24
596.97	317.58
597.39	329.28
597.811	315.24
598.232	404.18
598.652	343.33
599.073	256.73
599.494	280.13
599.914	296.52
600.334	275.45
600.755	277.79
601.175	310.56
601.595	294.18
602.015	357.37
602.436	380.78
602.856	446.31
603.276	280.13
603.696	324.6
604.115	261.41
604.535	343.33
604.955	315.24
605.375	280.13
605.794	333.97
606.214	280.13
606.634	310.56
607.053	287.15
607.473	275.45
607.892	291.84
608.311	284.81
608.731	340.99
609.15	315.24
609.569	296.52
609.988	336.31
610.407	310.56
610.826	287.15
611.245	301.2
611.664	282.47
612.083	294.18
612.501	275.45
612.92	277.79
613.339	308.22
613.757	280.13
614.176	315.24
614.594	315.24
615.013	296.52
615.431	336.31
615.85	331.62
616.268	305.88
616.686	329.28
617.104	362.05
617.522	359.71
617.94	343.33
618.358	282.47
618.776	350.35
619.194	291.84
619.612	348.01
620.03	249.71
620.447	294.18
620.865	259.07
621.282	275.45
621.7	289.5
622.117	282.47
622.535	301.2
622.952	329.28
623.369	333.97
623.787	242.68
624.204	326.94
624.621	289.5
625.038	266.09
625.455	277.79
625.872	303.54
626.289	294.18
626.706	397.16
627.123	319.92
627.539	329.28
627.956	296.52
628.373	254.39
628.789	268.43
629.206	312.9
629.622	336.31
630.038	273.11
630.455	303.54
630.871	273.11
631.287	338.65
631.703	317.58
632.12	331.62
632.536	310.56
632.952	350.35
633.368	340.99
633.783	355.03
634.199	319.92
634.615	289.5
635.031	263.75
635.446	352.69
635.862	312.9
636.277	298.86
636.693	326.94
637.108	275.45
637.524	324.6
637.939	329.28
638.354	312.9
638.77	275.45
639.185	291.84
639.6	259.07
640.015	228.64
640.43	343.33
640.845	263.75
641.259	261.41
641.674	305.88
642.089	301.2
642.504	324.6
642.918	322.26
643.333	270.77
643.747	357.37
644.162	284.81
644.576	319.92
644.991	338.65
645.405	331.62
645.819	308.22
646.233	287.15
646.647	270.77
647.061	294.18
647.475	305.88
647.889	256.73
648.303	296.52
648.717	294.18
649.131	324.6
649.545	338.65
649.958	310.56
650.372	291.84
650.785	230.98
651.199	287.15
651.612	289.5
652.026	284.81
652.439	303.54
652.852	329.28
653.266	408.86
653.679	294.18
654.092	305.88
654.505	193.53
654.918	275.45
655.331	282.47
655.744	291.84
656.156	301.2
656.569	315.24
656.982	282.47
657.394	350.35
657.807	359.71
658.22	350.35
658.632	301.2
659.044	298.86
659.457	310.56
659.869	319.92
660.281	263.75
660.693	322.26
661.106	303.54
661.518	303.54
661.93	322.26
662.342	256.73
662.754	315.24
663.165	329.28
663.577	315.24
663.989	315.24
664.401	273.11
664.812	282.47
665.224	289.5
665.635	310.56
666.047	249.71
666.458	270.77
666.869	294.18
667.281	289.5
667.692	280.13
668.103	329.28
668.514	261.41
668.925	371.41
669.336	331.62
669.747	355.03
670.158	214.6
670.569	308.22
670.979	296.52
671.39	305.88
671.801	294.18
672.211	270.77
672.622	294.18
673.032	296.52
673.443	315.24
673.853	291.84
674.263	373.75
674.674	305.88
675.084	254.39
675.494	287.15
675.904	289.5
676.314	355.03
676.724	240.34
677.134	317.58
677.544	305.88
677.953	298.86
678.363	355.03
678.773	390.14
679.182	261.41
679.592	319.92
680.001	345.67
680.411	317.58
680.82	319.92
681.23	289.5
681.639	322.26
682.048	340.99
682.457	308.22
682.866	298.86
683.275	280.13
683.684	324.6
684.093	324.6
684.502	308.22
684.911	298.86
685.32	294.18
685.728	287.15
686.137	296.52
686.546	308.22
686.954	289.5
687.363	324.6
687.771	352.69
688.179	371.41
688.588	303.54
688.996	298.86
689.404	296.52
689.812	296.52
690.22	324.6
690.628	348.01
691.036	345.67
691.444	343.33
691.852	282.47
692.26	338.65
692.667	233.32
693.075	355.03
693.483	287.15
693.89	298.86
694.298	294.18
694.705	326.94
695.112	261.41
695.52	357.37
695.927	308.22
696.334	315.24
696.741	326.94
697.148	308.22
697.555	350.35
697.962	261.41
698.369	343.33
698.776	369.07
699.183	345.67
699.59	319.92
699.996	317.58
700.403	259.07
700.81	296.52
701.216	312.9
701.623	364.39
702.029	303.54
702.435	338.65
702.842	277.79
703.248	254.39
703.654	298.86
704.06	333.97
704.466	317.58
704.872	362.05
705.278	308.22
705.684	340.99
706.09	259.07
706.496	275.45
706.901	277.79
707.307	317.58
707.712	352.69
708.118	287.15
708.523	329.28
708.929	319.92
709.334	280.13
709.74	338.65
710.145	263.75
710.55	298.86
710.955	340.99
711.36	280.13
711.765	270.77
712.17	289.5
712.575	256.73
712.98	783.35
713.385	369.07
713.789	326.94
714.194	289.5
714.599	216.94
715.003	324.6
715.408	329.28
715.812	275.45
716.217	326.94
716.621	303.54
717.025	305.88
717.429	247.37
717.833	254.39
718.238	223.96
718.642	305.88
719.046	305.88
719.449	324.6
719.853	280.13
720.257	303.54
720.661	305.88
721.065	319.92
721.468	319.92
721.872	298.86
722.275	291.84
722.679	310.56
723.082	280.13
723.485	326.94
723.889	289.5
724.292	359.71
724.695	289.5
725.098	308.22
725.501	280.13
725.904	238
726.307	273.11
726.71	308.22
727.113	317.58
727.516	350.35
727.918	282.47
728.321	326.94
728.724	280.13
729.126	312.9
729.529	371.41
729.931	284.81
730.333	345.67
730.736	336.31
731.138	362.05
731.54	315.24
731.942	324.6
732.344	275.45
732.746	350.35
733.148	338.65
733.55	221.62
733.952	333.97
734.354	319.92
734.756	235.66
735.157	284.81
735.559	333.97
735.96	282.47
736.362	298.86
736.763	322.26
737.165	305.88
737.566	282.47
737.967	336.31
738.368	326.94
738.77	348.01
739.171	263.75
739.572	233.32
739.973	266.09
740.374	317.58
740.774	355.03
741.175	340.99
741.576	331.62
741.977	301.2
742.377	294.18
742.778	322.26
743.178	324.6
743.579	282.47
743.979	322.26
744.379	245.02
744.78	287.15
745.18	385.46
745.58	312.9
745.98	291.84
746.38	275.45
746.78	310.56
747.18	317.58
747.58	277.79
747.98	331.62
748.38	352.69
748.779	336.31
749.179	350.35
749.578	315.24
749.978	324.6
750.377	310.56
750.777	322.26
751.176	333.97
751.575	305.88
751.975	319.92
752.374	280.13
752.773	259.07
753.172	254.39
753.571	329.28
753.97	364.39
754.369	308.22
754.768	338.65
755.166	355.03
755.565	364.39
755.964	294.18
756.362	359.71
756.761	308.22
757.159	336.31
757.558	373.75
757.956	296.52
758.354	324.6
758.753	298.86
759.151	308.22
759.549	331.62
759.947	296.52
760.345	273.11
760.743	326.94
761.141	298.86
761.539	305.88
761.936	315.24
762.334	266.09
762.732	270.77
763.129	312.9
763.527	249.71
763.924	408.86
764.322	249.71
764.719	308.22
765.117	394.82
765.514	259.07
765.911	282.47
766.308	319.92
766.705	233.32
767.102	326.94
767.499	343.33
767.896	261.41
768.293	247.37
768.69	270.77
769.086	312.9
769.483	310.56
769.88	308.22
770.276	282.47
770.673	383.12
771.069	319.92
771.466	336.31
771.862	303.54
772.258	303.54
772.654	289.5
773.05	247.37
773.447	289.5
773.843	310.56
774.239	324.6
774.634	284.81
775.03	315.24
775.426	270.77
775.822	266.09
776.218	254.39
776.613	296.52
777.009	348.01
777.404	280.13
777.8	329.28
778.195	298.86
778.59	249.71
778.986	355.03
779.381	294.18
779.776	294.18
780.171	284.81
780.566	291.84
780.961	308.22
781.356	315.24
781.751	333.97
782.146	357.37
782.54	331.62
782.935	294.18
783.33	348.01
783.724	301.2
784.119	280.13
784.513	259.07
784.908	357.37
785.302	336.31
785.696	261.41
786.09	284.81
786.485	310.56
786.879	294.18
787.273	298.86
787.667	303.54
788.061	273.11
788.454	322.26
788.848	310.56
789.242	336.31
789.636	366.73
790.029	303.54
790.423	282.47
790.816	275.45
791.21	378.44
791.603	303.54
791.997	315.24
792.39	317.58
792.783	282.47
793.176	282.47
793.569	315.24
793.962	230.98
794.355	280.13
794.748	261.41
795.141	284.81
795.534	319.92
795.927	385.46
796.319	317.58
796.712	317.58
797.105	348.01
797.497	364.39
797.89	378.44
798.282	308.22
798.674	326.94
799.067	247.37
799.459	233.32
799.851	268.43
800.243	326.94
800.635	350.35
801.027	291.84
801.419	289.5
801.811	263.75
802.203	289.5
802.594	338.65
802.986	294.18
803.378	289.5
803.769	322.26
804.161	387.8
804.552	340.99
804.944	254.39
805.335	322.26
805.726	296.52
806.118	230.98
806.509	263.75
806.9	340.99
807.291	315.24
807.682	305.88
808.073	296.52
808.464	252.05
808.855	263.75
809.245	338.65
809.636	310.56
810.027	296.52
810.417	317.58
810.808	340.99
811.198	312.9
811.589	326.94
811.979	268.43
812.369	280.13
812.759	296.52
813.15	329.28
813.54	242.68
813.93	315.24
814.32	322.26
814.71	338.65
815.1	317.58
815.489	303.54
815.879	259.07
816.269	263.75
816.658	387.8
817.048	270.77
817.438	254.39
817.827	291.84
818.216	266.09
818.606	282.47
818.995	294.18
819.384	317.58
819.773	312.9
820.163	287.15
820.552	359.71
820.941	291.84
821.33	289.5
821.718	310.56
822.107	315.24
822.496	305.88
822.885	242.68
823.273	275.45
823.662	289.5
824.05	315.24
824.439	291.84
824.827	303.54
825.216	193.53
825.604	317.58
825.992	305.88
826.38	336.31
826.768	319.92
827.156	277.79
827.544	298.86
827.932	245.02
828.32	336.31
828.708	294.18
829.096	319.92
829.483	261.41
829.871	298.86
830.259	270.77
830.646	319.92
831.034	223.96
831.421	284.81
831.808	266.09
832.196	336.31
832.583	298.86
832.97	280.13
833.357	291.84
833.744	343.33
834.131	294.18
834.518	256.73
834.905	280.13
835.292	247.37
835.678	324.6
836.065	296.52
836.452	362.05
836.838	355.03
837.225	263.75
837.611	240.34
837.998	296.52
838.384	282.47
838.77	312.9
839.157	284.81
839.543	352.69
839.929	282.47
840.315	326.94
840.701	268.43
841.087	319.92
841.473	235.66
841.858	331.62
842.244	270.77
842.63	357.37
843.015	252.05
843.401	570.36
843.787	333.97
844.172	312.9
844.557	308.22
844.943	322.26
845.328	270.77
845.713	282.47
846.098	296.52
846.483	270.77
846.868	343.33
847.253	331.62
847.638	331.62
848.023	291.84
848.408	364.39
848.793	245.02
849.177	362.05
849.562	268.43
849.947	294.18
850.331	331.62
850.715	387.8
851.1	305.88
851.484	254.39
851.868	296.52
852.253	338.65
852.637	348.01
853.021	371.41
853.405	378.44
853.789	338.65
854.173	340.99
854.557	340.99
854.94	343.33
855.324	235.66
855.708	312.9
856.091	254.39
856.475	310.56
856.858	273.11
857.242	280.13
857.625	282.47
858.009	317.58
858.392	167.79
858.775	294.18
859.158	331.62
859.541	312.9
859.924	317.58
860.307	247.37
860.69	263.75
861.073	296.52
861.456	259.07
861.838	298.86
862.221	315.24
862.604	359.71
862.986	333.97
863.369	329.28
863.751	317.58
864.133	305.88
864.516	329.28
864.898	277.79
865.28	308.22
865.662	266.09
866.044	324.6
866.426	350.35
866.808	324.6
867.19	345.67
867.572	254.39
867.954	291.84
868.336	319.92
868.717	296.52
869.099	280.13
869.48	336.31
869.862	340.99
870.243	256.73
870.625	259.07
871.006	294.18
871.387	317.58
871.768	301.2
872.149	319.92
872.53	333.97
872.911	277.79
873.292	336.31
873.673	317.58
874.054	326.94
874.435	333.97
874.815	263.75
875.196	266.09
875.577	223.96
875.957	308.22
876.338	263.75
876.718	294.18
877.098	329.28
877.479	284.81
877.859	322.26
878.239	294.18
878.619	319.92
878.999	308.22
879.379	315.24
879.759	291.84
880.139	329.28
880.519	308.22
880.898	355.03
881.278	254.39
881.658	303.54
882.037	242.68
882.417	280.13
882.796	270.77
883.176	340.99
883.555	319.92
883.934	252.05
884.313	322.26
884.693	280.13
885.072	310.56
885.451	284.81
885.83	308.22
886.209	315.24
886.587	345.67
886.966	280.13
887.345	366.73
887.724	350.35
888.102	287.15
888.481	284.81
888.859	392.48
889.238	256.73
889.616	324.6
889.994	291.84
890.373	315.24
890.751	228.64
891.129	254.39
891.507	235.66
891.885	275.45
892.263	240.34
892.641	305.88
893.019	340.99
893.396	303.54
893.774	249.71
894.152	259.07
894.529	329.28
894.907	216.94
895.284	287.15
895.662	329.28
896.039	319.92
896.416	317.58
896.794	261.41
897.171	254.39
897.548	266.09
897.925	294.18
898.302	359.71
898.679	256.73
899.056	275.45
899.433	324.6
899.809	329.28
900.186	296.52
900.563	348.01
900.939	301.2
901.316	268.43
901.692	294.18
902.069	268.43
902.445	378.44
902.821	233.32
903.197	338.65
903.574	296.52
903.95	259.07
904.326	296.52
904.702	298.86
905.078	303.54
905.454	287.15
905.829	329.28
906.205	263.75
906.581	326.94
906.956	315.24
907.332	268.43
907.707	312.9
908.083	289.5
908.458	340.99
908.833	301.2
909.209	343.33
909.584	259.07
909.959	308.22
910.334	263.75
910.709	284.81
911.084	273.11
911.459	273.11
911.834	350.35
912.209	298.86
912.583	301.2
912.958	298.86
913.333	322.26
913.707	230.98
914.082	294.18
914.456	298.86
914.83	270.77
915.205	263.75
915.579	291.84
915.953	263.75
916.327	280.13
916.701	303.54
917.075	289.5
917.449	280.13
917.823	322.26
918.197	322.26
918.571	301.2
918.944	294.18
919.318	228.64
919.692	305.88
920.065	296.52
920.438	331.62
920.812	315.24
921.185	291.84
921.558	282.47
921.932	310.56
922.305	273.11
922.678	291.84
923.051	308.22
923.424	308.22
923.797	275.45
924.17	331.62
924.542	303.54
924.915	252.05
925.288	294.18
925.661	362.05
926.033	333.97
926.406	291.84
926.778	294.18
927.15	333.97
927.523	305.88
927.895	310.56
928.267	331.62
928.639	296.52
929.011	324.6
929.383	301.2
929.755	298.86
930.127	254.39
930.499	390.14
930.871	277.79
931.242	350.35
931.614	284.81
931.986	298.86
932.357	376.09
932.729	291.84
933.1	245.02
933.471	352.69
933.843	247.37
934.214	223.96
934.585	308.22
934.956	275.45
935.327	249.71
935.698	301.2
936.069	308.22
936.44	322.26
936.811	240.34
937.182	348.01
937.552	298.86
937.923	289.5
938.293	319.92
938.664	310.56
939.034	270.77
939.405	261.41
939.775	312.9
940.145	252.05
940.516	252.05
940.886	336.31
941.256	303.54
941.626	245.02
941.996	317.58
942.366	331.62
942.735	336.31
943.105	296.52
943.475	233.32
943.845	275.45
944.214	291.84
944.584	294.18
944.953	301.2
945.323	275.45
945.692	254.39
946.061	280.13
946.43	277.79
946.8	256.73
947.169	315.24
947.538	266.09
947.907	289.5
948.276	305.88
948.645	305.88
949.013	310.56
949.382	254.39
949.751	284.81
950.119	230.98
950.488	287.15
950.857	294.18
951.225	280.13
951.593	254.39
951.962	301.2
952.33	338.65
952.698	329.28
953.066	289.5
953.434	308.22
953.802	252.05
954.17	350.35
954.538	322.26
954.906	326.94
955.274	261.41
955.642	369.07
956.009	216.94
956.377	287.15
956.744	275.45
957.112	238
957.479	329.28
957.847	284.81
958.214	319.92
958.581	310.56
958.948	324.6
959.315	289.5
959.683	348.01
960.05	355.03
960.416	331.62
960.783	333.97
961.15	275.45
961.517	284.81
961.884	340.99
962.25	273.11
962.617	254.39
962.983	315.24
963.35	310.56
963.716	287.15
964.082	322.26
964.449	308.22
964.815	296.52
965.181	336.31
965.547	310.56
965.913	296.52
966.279	326.94
966.645	296.52
967.011	312.9
967.377	256.73
967.742	287.15
968.108	289.5
968.474	348.01
968.839	254.39
969.205	291.84
969.57	305.88
969.935	256.73
970.301	289.5
970.666	252.05
971.031	322.26
971.396	324.6
971.761	291.84
972.126	275.45
972.491	275.45
972.856	343.33
973.221	291.84
973.586	284.81
973.95	315.24
974.315	268.43
974.679	263.75
975.044	340.99
975.408	329.28
975.773	315.24
976.137	385.46
976.501	308.22
976.866	282.47
977.23	284.81
977.594	348.01
977.958	280.13
978.322	322.26
978.686	317.58
979.049	249.71
979.413	280.13
979.777	238
980.141	268.43
980.504	397.16
980.868	329.28
981.231	252.05
981.595	287.15
981.958	249.71
982.321	273.11
982.684	289.5
983.048	340.99
983.411	291.84
983.774	291.84
984.137	280.13
984.5	294.18
984.862	263.75
985.225	317.58
985.588	303.54
985.951	303.54
986.313	277.79
986.676	303.54
987.038	270.77
987.401	310.56
987.763	319.92
988.125	315.24
988.488	310.56
988.85	280.13
989.212	270.77
989.574	266.09
989.936	254.39
990.298	303.54
990.66	270.77
991.022	219.28
991.383	324.6
991.745	312.9
992.107	273.11
992.468	308.22
992.83	296.52
993.191	324.6
993.553	315.24
993.914	317.58
994.275	355.03
994.637	315.24
994.998	263.75
995.359	282.47
995.72	298.86
996.081	242.68
996.442	305.88
996.803	322.26
997.163	317.58
997.524	280.13
997.885	340.99
998.245	357.37
998.606	301.2
998.966	223.96
999.327	256.73
999.687	319.92
1000.047	345.67
1000.408	345.67
1000.768	284.81
1001.128	263.75
1001.488	289.5
1001.848	289.5
1002.208	289.5
1002.568	249.71
1002.927	228.64
1003.287	219.28
1003.647	298.86
1004.007	294.18
1004.366	263.75
1004.726	291.84
1005.085	259.07
1005.444	298.86
1005.804	324.6
1006.163	266.09
1006.522	303.54
1006.881	282.47
1007.24	326.94
1007.599	305.88
1007.958	296.52
1008.317	329.28
1008.676	345.67
1009.035	247.37
1009.393	287.15
1009.752	301.2
1010.111	312.9
1010.469	336.31
1010.828	216.94
1011.186	301.2
1011.544	298.86
1011.903	221.62
1012.261	289.5
1012.619	209.92
1012.977	340.99
1013.335	350.35
1013.693	310.56
1014.051	256.73
1014.409	310.56
1014.767	348.01
1015.124	348.01
1015.482	322.26
1015.84	348.01
1016.197	303.54
1016.555	270.77
1016.912	200.55
1017.269	226.3
1017.627	331.62
1017.984	277.79
1018.341	289.5
1018.698	324.6
1019.055	261.41
1019.412	333.97
1019.769	348.01
1020.126	294.18
1020.483	263.75
1020.84	228.64
1021.196	357.37
1021.553	326.94
1021.909	240.34
1022.266	289.5
1022.622	324.6
1022.979	364.39
1023.335	280.13
1023.691	315.24
1024.047	280.13
1024.404	254.39
1024.76	280.13
1025.116	270.77
1025.472	254.39
1025.827	284.81
1026.183	284.81
1026.539	303.54
1026.895	280.13
1027.25	326.94
1027.606	310.56
1027.961	301.2
1028.317	282.47
1028.672	261.41
1029.028	261.41
1029.383	284.81
1029.738	322.26
1030.093	322.26
1030.448	233.32
1030.803	317.58
1031.158	315.24
1031.513	287.15
1031.868	277.79
1032.223	247.37
1032.577	289.5
1032.932	315.24
1033.287	287.15
1033.641	357.37
1033.996	329.28
1034.35	289.5
1034.704	263.75
1035.059	273.11
1035.413	326.94
1035.767	326.94
1036.121	326.94
