Data from Al_FLMS009871__664__15-05-08-109.txt Node

Date: Fri Mar 08 15:05:08 CST 2024
User: pe5414po
Spectrometer: FLMS00987
Trigger mode: 0
Integration Time (sec): 1.000000E-1
Scans to average: 1
Electric dark correction enabled: true
Nonlinearity correction enabled: false
Boxcar width: 0
XAxis mode: Wavelengths
Number of Pixels in Spectrum: 2048
>>>>>Begin Spectral Data<<<<<
188.938	-47.54
189.409	-47.54
189.879	-47.54
190.349	-122.44
190.819	-124.78
191.29	-159.89
191.76	-66.27
192.23	-77.97
192.7	-75.63
193.17	-47.54
193.64	-24.14
194.109	-28.82
194.579	-0.73
195.049	-28.82
195.519	32.04
195.988	15.65
196.458	83.53
196.927	92.89
197.397	64.8
197.866	71.83
198.336	149.06
198.805	144.38
199.274	181.83
199.744	214.6
200.213	167.79
200.682	223.96
201.151	230.98
201.62	207.58
202.089	280.13
202.558	280.13
203.027	242.68
203.495	252.05
203.964	282.47
204.433	298.86
204.902	242.68
205.37	219.28
205.839	303.54
206.307	333.97
206.776	289.5
207.244	322.26
207.712	333.97
208.181	352.69
208.649	336.31
209.117	284.81
209.585	291.84
210.053	308.22
210.521	294.18
210.989	219.28
211.457	296.52
211.925	263.75
212.393	280.13
212.861	296.52
213.328	338.65
213.796	195.87
214.264	254.39
214.731	280.13
215.199	270.77
215.666	240.34
216.133	266.09
216.601	287.15
217.068	340.99
217.535	252.05
218.003	289.5
218.47	305.88
218.937	284.81
219.404	273.11
219.871	256.73
220.338	270.77
220.805	223.96
221.271	268.43
221.738	221.62
222.205	221.62
222.671	322.26
223.138	261.41
223.605	252.05
224.071	336.31
224.538	294.18
225.004	310.56
225.47	252.05
225.937	275.45
226.403	275.45
226.869	259.07
227.335	329.28
227.801	238
228.267	212.26
228.733	235.66
229.199	247.37
229.665	216.94
230.131	254.39
230.597	256.73
231.062	291.84
231.528	319.92
231.994	221.62
232.459	268.43
232.925	282.47
233.39	259.07
233.856	212.26
234.321	275.45
234.786	303.54
235.252	273.11
235.717	252.05
236.182	289.5
236.647	343.33
237.112	305.88
237.577	296.52
238.042	298.86
238.507	308.22
238.972	242.68
239.436	214.6
239.901	238
240.366	223.96
240.83	270.77
241.295	252.05
241.76	261.41
242.224	235.66
242.688	256.73
243.153	289.5
243.617	336.31
244.081	252.05
244.545	333.97
245.01	254.39
245.474	312.9
245.938	247.37
246.402	247.37
246.866	284.81
247.33	249.71
247.793	287.15
248.257	221.62
248.721	277.79
249.185	296.52
249.648	242.68
250.112	294.18
250.575	326.94
251.039	214.6
251.502	312.9
251.965	280.13
252.429	273.11
252.892	284.81
253.355	261.41
253.818	273.11
254.281	275.45
254.744	202.9
255.207	226.3
255.67	312.9
256.133	216.94
256.596	249.71
257.059	326.94
257.522	310.56
257.984	319.92
258.447	282.47
258.909	261.41
259.372	223.96
259.834	240.34
260.297	301.2
260.759	287.15
261.221	261.41
261.684	289.5
262.146	280.13
262.608	310.56
263.07	298.86
263.532	317.58
263.994	270.77
264.456	242.68
264.918	343.33
265.38	280.13
265.842	270.77
266.303	331.62
266.765	266.09
267.227	266.09
267.688	308.22
268.15	266.09
268.611	329.28
269.072	338.65
269.534	319.92
269.995	238
270.456	348.01
270.918	268.43
271.379	315.24
271.84	310.56
272.301	212.26
272.762	273.11
273.223	270.77
273.684	298.86
274.144	301.2
274.605	289.5
275.066	315.24
275.527	280.13
275.987	261.41
276.448	310.56
276.908	238
277.369	322.26
277.829	284.81
278.289	270.77
278.75	268.43
279.21	301.2
279.67	333.97
280.13	277.79
280.59	298.86
281.05	266.09
281.51	301.2
281.97	345.67
282.43	298.86
282.89	247.37
283.35	301.2
283.809	249.71
284.269	280.13
284.729	242.68
285.188	296.52
285.648	329.28
286.107	308.22
286.567	378.44
287.026	303.54
287.485	266.09
287.944	315.24
288.404	275.45
288.863	319.92
289.322	343.33
289.781	333.97
290.24	298.86
290.699	263.75
291.158	319.92
291.616	256.73
292.075	308.22
292.534	294.18
292.992	333.97
293.451	282.47
293.91	296.52
294.368	294.18
294.827	263.75
295.285	298.86
295.743	301.2
296.202	336.31
296.66	366.73
297.118	259.07
297.576	284.81
298.034	310.56
298.492	308.22
298.95	287.15
299.408	298.86
299.866	301.2
300.324	291.84
300.781	266.09
301.239	275.45
301.697	350.35
302.154	338.65
302.612	287.15
303.069	273.11
303.527	338.65
303.984	263.75
304.441	394.82
304.899	261.41
305.356	287.15
305.813	287.15
306.27	319.92
306.727	235.66
307.184	340.99
307.641	275.45
308.098	345.67
308.555	296.52
309.012	338.65
309.468	291.84
309.925	329.28
310.382	294.18
310.838	275.45
311.295	259.07
311.751	277.79
312.208	352.69
312.664	366.73
313.12	287.15
313.577	242.68
314.033	275.45
314.489	298.86
314.945	348.01
315.401	322.26
315.857	359.71
316.313	310.56
316.769	294.18
317.225	310.56
317.681	305.88
318.136	273.11
318.592	273.11
319.048	296.52
319.503	357.37
319.959	331.62
320.414	315.24
320.869	315.24
321.325	312.9
321.78	301.2
322.235	254.39
322.691	350.35
323.146	308.22
323.601	277.79
324.056	362.05
324.511	315.24
324.966	301.2
325.421	326.94
325.875	266.09
326.33	308.22
326.785	252.05
327.24	249.71
327.694	331.62
328.149	380.78
328.603	261.41
329.058	373.75
329.512	345.67
329.966	315.24
330.421	308.22
330.875	275.45
331.329	317.58
331.783	238
332.237	294.18
332.691	298.86
333.145	310.56
333.599	312.9
334.053	310.56
334.507	277.79
334.96	378.44
335.414	277.79
335.868	263.75
336.321	273.11
336.775	355.03
337.228	319.92
337.682	294.18
338.135	287.15
338.588	277.79
339.042	331.62
339.495	296.52
339.948	380.78
340.401	326.94
340.854	312.9
341.307	324.6
341.76	266.09
342.213	317.58
342.666	261.41
343.119	249.71
343.571	326.94
344.024	291.84
344.477	322.26
344.929	261.41
345.382	294.18
345.834	312.9
346.287	259.07
346.739	249.71
347.191	364.39
347.644	315.24
348.096	296.52
348.548	340.99
349	270.77
349.452	308.22
349.904	242.68
350.356	350.35
350.808	282.47
351.26	223.96
351.711	397.16
352.163	350.35
352.615	352.69
353.066	338.65
353.518	326.94
353.969	282.47
354.421	291.84
354.872	270.77
355.324	324.6
355.775	308.22
356.226	371.41
356.677	319.92
357.128	331.62
357.579	326.94
358.03	308.22
358.481	350.35
358.932	315.24
359.383	315.24
359.834	284.81
360.285	266.09
360.735	319.92
361.186	317.58
361.637	355.03
362.087	315.24
362.538	315.24
362.988	371.41
363.438	331.62
363.889	303.54
364.339	205.24
364.789	326.94
365.239	284.81
365.689	329.28
366.139	240.34
366.589	303.54
367.039	284.81
367.489	380.78
367.939	366.73
368.389	373.75
368.839	324.6
369.288	305.88
369.738	317.58
370.187	291.84
370.637	266.09
371.086	312.9
371.536	266.09
371.985	294.18
372.434	305.88
372.884	333.97
373.333	319.92
373.782	310.56
374.231	315.24
374.68	312.9
375.129	336.31
375.578	291.84
376.027	287.15
376.475	280.13
376.924	371.41
377.373	289.5
377.822	324.6
378.27	340.99
378.719	326.94
379.167	359.71
379.616	355.03
380.064	266.09
380.512	235.66
380.961	312.9
381.409	249.71
381.857	308.22
382.305	282.47
382.753	319.92
383.201	305.88
383.649	294.18
384.097	336.31
384.545	259.07
384.992	301.2
385.44	350.35
385.888	273.11
386.335	336.31
386.783	284.81
387.231	315.24
387.678	352.69
388.125	338.65
388.573	326.94
389.02	254.39
389.467	256.73
389.914	387.8
390.362	333.97
390.809	303.54
391.256	348.01
391.703	366.73
392.15	333.97
392.596	294.18
393.043	315.24
393.49	287.15
393.937	291.84
394.383	298.86
394.83	324.6
395.276	350.35
395.723	312.9
396.169	282.47
396.616	298.86
397.062	331.62
397.508	315.24
397.954	362.05
398.401	333.97
398.847	284.81
399.293	296.52
399.739	359.71
400.185	322.26
400.631	298.86
401.076	259.07
401.522	322.26
401.968	319.92
402.414	315.24
402.859	359.71
403.305	336.31
403.75	277.79
404.196	399.5
404.641	392.48
405.086	259.07
405.532	312.9
405.977	284.81
406.422	294.18
406.867	420.57
407.312	303.54
407.757	343.33
408.202	301.2
408.647	310.56
409.092	242.68
409.537	310.56
409.982	289.5
410.426	352.69
410.871	376.09
411.316	317.58
411.76	282.47
412.205	336.31
412.649	298.86
413.093	338.65
413.538	326.94
413.982	273.11
414.426	336.31
414.87	317.58
415.314	291.84
415.758	312.9
416.202	263.75
416.646	340.99
417.09	308.22
417.534	329.28
417.978	319.92
418.421	277.79
418.865	371.41
419.309	317.58
419.752	329.28
420.196	333.97
420.639	345.67
421.083	308.22
421.526	312.9
421.969	282.47
422.412	336.31
422.856	326.94
423.299	308.22
423.742	319.92
424.185	310.56
424.628	280.13
425.071	298.86
425.513	350.35
425.956	291.84
426.399	371.41
426.842	350.35
427.284	261.41
427.727	324.6
428.169	277.79
428.612	331.62
429.054	291.84
429.497	331.62
429.939	280.13
430.381	355.03
430.823	348.01
431.265	357.37
431.707	310.56
432.149	336.31
432.591	294.18
433.033	329.28
433.475	310.56
433.917	329.28
434.359	280.13
434.8	319.92
435.242	305.88
435.684	348.01
436.125	287.15
436.567	355.03
437.008	301.2
437.449	289.5
437.891	310.56
438.332	331.62
438.773	284.81
439.214	357.37
439.656	294.18
440.097	319.92
440.538	324.6
440.978	357.37
441.419	282.47
441.86	291.84
442.301	277.79
442.742	326.94
443.182	301.2
443.623	259.07
444.063	310.56
444.504	326.94
444.944	275.45
445.385	376.09
445.825	312.9
446.265	287.15
446.706	298.86
447.146	296.52
447.586	263.75
448.026	296.52
448.466	322.26
448.906	326.94
449.346	308.22
449.786	259.07
450.225	256.73
450.665	296.52
451.105	345.67
451.544	340.99
451.984	294.18
452.424	310.56
452.863	392.48
453.302	317.58
453.742	282.47
454.181	291.84
454.62	282.47
455.059	336.31
455.499	284.81
455.938	254.39
456.377	329.28
456.816	291.84
457.254	312.9
457.693	305.88
458.132	319.92
458.571	394.82
459.01	315.24
459.448	338.65
459.887	350.35
460.325	352.69
460.764	249.71
461.202	345.67
461.641	310.56
462.079	338.65
462.517	294.18
462.955	303.54
463.393	289.5
463.832	366.73
464.27	348.01
464.708	366.73
465.145	390.14
465.583	289.5
466.021	273.11
466.459	352.69
466.897	305.88
467.334	322.26
467.772	261.41
468.209	249.71
468.647	261.41
469.084	326.94
469.522	324.6
469.959	345.67
470.396	397.16
470.833	275.45
471.271	359.71
471.708	284.81
472.145	256.73
472.582	305.88
473.019	291.84
473.456	324.6
473.892	268.43
474.329	273.11
474.766	247.37
475.202	310.56
475.639	289.5
476.076	336.31
476.512	315.24
476.949	362.05
477.385	296.52
477.821	270.77
478.258	331.62
478.694	326.94
479.13	308.22
479.566	326.94
480.002	322.26
480.438	348.01
480.874	275.45
481.31	317.58
481.746	308.22
482.181	301.2
482.617	305.88
483.053	329.28
483.488	289.5
483.924	280.13
484.36	357.37
484.795	359.71
485.23	291.84
485.666	312.9
486.101	359.71
486.536	343.33
486.971	371.41
487.407	305.88
487.842	329.28
488.277	315.24
488.712	336.31
489.146	256.73
489.581	331.62
490.016	348.01
490.451	340.99
490.885	303.54
491.32	301.2
491.755	371.41
492.189	296.52
492.624	319.92
493.058	338.65
493.492	296.52
493.927	317.58
494.361	322.26
494.795	254.39
495.229	315.24
495.663	317.58
496.097	322.26
496.531	291.84
496.965	348.01
497.399	275.45
497.833	345.67
498.266	371.41
498.7	390.14
499.134	301.2
499.567	319.92
500.001	261.41
500.434	326.94
500.868	298.86
501.301	235.66
501.734	301.2
502.168	336.31
502.601	294.18
503.034	252.05
503.467	338.65
503.9	296.52
504.333	369.07
504.766	343.33
505.199	331.62
505.632	277.79
506.064	294.18
506.497	338.65
506.93	280.13
507.362	254.39
507.795	340.99
508.227	338.65
508.66	348.01
509.092	238
509.524	305.88
509.956	338.65
510.389	329.28
510.821	366.73
511.253	329.28
511.685	317.58
512.117	305.88
512.549	348.01
512.981	310.56
513.412	310.56
513.844	322.26
514.276	350.35
514.707	357.37
515.139	291.84
515.571	348.01
516.002	324.6
516.433	305.88
516.865	287.15
517.296	324.6
517.727	273.11
518.159	298.86
518.59	261.41
519.021	312.9
519.452	326.94
519.883	371.41
520.314	312.9
520.744	355.03
521.175	329.28
521.606	331.62
522.037	364.39
522.467	291.84
522.898	303.54
523.328	287.15
523.759	324.6
524.189	308.22
524.62	333.97
525.05	324.6
525.48	350.35
525.91	303.54
526.341	303.54
526.771	308.22
527.201	322.26
527.631	371.41
528.061	343.33
528.49	268.43
528.92	326.94
529.35	305.88
529.78	308.22
530.209	355.03
530.639	284.81
531.068	373.75
531.498	317.58
531.927	355.03
532.357	336.31
532.786	268.43
533.215	322.26
533.644	378.44
534.074	298.86
534.503	298.86
534.932	350.35
535.361	301.2
535.79	310.56
536.218	312.9
536.647	317.58
537.076	329.28
537.505	277.79
537.933	329.28
538.362	352.69
538.79	280.13
539.219	287.15
539.647	308.22
540.076	329.28
540.504	289.5
540.932	308.22
541.36	359.71
541.788	383.12
542.217	371.41
542.645	275.45
543.073	256.73
543.5	371.41
543.928	369.07
544.356	326.94
544.784	282.47
545.211	273.11
545.639	298.86
546.067	385.46
546.494	317.58
546.922	319.92
547.349	310.56
547.776	312.9
548.204	305.88
548.631	322.26
549.058	380.78
549.485	385.46
549.912	259.07
550.339	252.05
550.766	315.24
551.193	326.94
551.62	296.52
552.047	298.86
552.474	322.26
552.9	308.22
553.327	364.39
553.754	284.81
554.18	294.18
554.607	315.24
555.033	270.77
555.459	317.58
555.886	329.28
556.312	319.92
556.738	326.94
557.164	275.45
557.59	284.81
558.016	296.52
558.442	310.56
558.868	284.81
559.294	319.92
559.72	277.79
560.145	284.81
560.571	287.15
560.997	259.07
561.422	333.97
561.848	312.9
562.273	287.15
562.699	308.22
563.124	270.77
563.549	294.18
563.974	324.6
564.4	331.62
564.825	275.45
565.25	284.81
565.675	338.65
566.1	280.13
566.525	352.69
566.95	324.6
567.374	305.88
567.799	343.33
568.224	289.5
568.648	284.81
569.073	256.73
569.497	326.94
569.922	266.09
570.346	336.31
570.771	301.2
571.195	263.75
571.619	326.94
572.043	343.33
572.467	284.81
572.891	319.92
573.315	296.52
573.739	294.18
574.163	280.13
574.587	301.2
575.011	277.79
575.435	294.18
575.858	348.01
576.282	303.54
576.705	296.52
577.129	270.77
577.552	399.5
577.976	348.01
578.399	319.92
578.822	298.86
579.245	364.39
579.669	256.73
580.092	319.92
580.515	315.24
580.938	345.67
581.361	266.09
581.784	324.6
582.206	319.92
582.629	289.5
583.052	355.03
583.474	404.18
583.897	331.62
584.32	301.2
584.742	331.62
585.165	317.58
585.587	329.28
586.009	338.65
586.431	263.75
586.854	338.65
587.276	322.26
587.698	338.65
588.12	343.33
588.542	301.2
588.964	287.15
589.386	357.37
589.807	343.33
590.229	284.81
590.651	343.33
591.073	326.94
591.494	329.28
591.916	275.45
592.337	333.97
592.759	289.5
593.18	350.35
593.601	291.84
594.022	324.6
594.444	359.71
594.865	317.58
595.286	333.97
595.707	301.2
596.128	373.75
596.549	305.88
596.97	280.13
597.39	275.45
597.811	333.97
598.232	340.99
598.652	266.09
599.073	294.18
599.494	329.28
599.914	284.81
600.334	333.97
600.755	352.69
601.175	348.01
601.595	277.79
602.015	235.66
602.436	355.03
602.856	490.78
603.276	343.33
603.696	355.03
604.115	329.28
604.535	345.67
604.955	259.07
605.375	373.75
605.794	336.31
606.214	291.84
606.634	369.07
607.053	298.86
607.473	322.26
607.892	298.86
608.311	319.92
608.731	277.79
609.15	298.86
609.569	376.09
609.988	294.18
610.407	315.24
610.826	270.77
611.245	322.26
611.664	338.65
612.083	348.01
612.501	312.9
612.92	326.94
613.339	249.71
613.757	324.6
614.176	324.6
614.594	301.2
615.013	336.31
615.431	303.54
615.85	284.81
616.268	242.68
616.686	343.33
617.104	312.9
617.522	366.73
617.94	376.09
618.358	345.67
618.776	355.03
619.194	348.01
619.612	333.97
620.03	329.28
620.447	345.67
620.865	331.62
621.282	348.01
621.7	298.86
622.117	329.28
622.535	322.26
622.952	301.2
623.369	324.6
623.787	350.35
624.204	380.78
624.621	319.92
625.038	296.52
625.455	308.22
625.872	357.37
626.289	326.94
626.706	310.56
627.123	275.45
627.539	266.09
627.956	263.75
628.373	280.13
628.789	305.88
629.206	357.37
629.622	273.11
630.038	310.56
630.455	261.41
630.871	317.58
631.287	277.79
631.703	296.52
632.12	376.09
632.536	350.35
632.952	317.58
633.368	312.9
633.783	294.18
634.199	329.28
634.615	380.78
635.031	308.22
635.446	296.52
635.862	338.65
636.277	277.79
636.693	312.9
637.108	308.22
637.524	350.35
637.939	282.47
638.354	317.58
638.77	348.01
639.185	350.35
639.6	357.37
640.015	357.37
640.43	303.54
640.845	362.05
641.259	291.84
641.674	301.2
642.089	277.79
642.504	305.88
642.918	280.13
643.333	404.18
643.747	376.09
644.162	303.54
644.576	275.45
644.991	284.81
645.405	324.6
645.819	319.92
646.233	310.56
646.647	263.75
647.061	380.78
647.475	373.75
647.889	343.33
648.303	296.52
648.717	263.75
649.131	308.22
649.545	289.5
649.958	303.54
650.372	364.39
650.785	296.52
651.199	308.22
651.612	275.45
652.026	301.2
652.439	322.26
652.852	303.54
653.266	303.54
653.679	268.43
654.092	446.31
654.505	301.2
654.918	296.52
655.331	259.07
655.744	331.62
656.156	238
656.569	310.56
656.982	340.99
657.394	336.31
657.807	329.28
658.22	315.24
658.632	371.41
659.044	362.05
659.457	308.22
659.869	324.6
660.281	331.62
660.693	294.18
661.106	331.62
661.518	359.71
661.93	280.13
662.342	315.24
662.754	319.92
663.165	291.84
663.577	259.07
663.989	373.75
664.401	289.5
664.812	333.97
665.224	357.37
665.635	294.18
666.047	326.94
666.458	275.45
666.869	364.39
667.281	329.28
667.692	324.6
668.103	359.71
668.514	352.69
668.925	308.22
669.336	394.82
669.747	312.9
670.158	338.65
670.569	364.39
670.979	340.99
671.39	338.65
671.801	343.33
672.211	291.84
672.622	289.5
673.032	338.65
673.443	338.65
673.853	308.22
674.263	310.56
674.674	312.9
675.084	305.88
675.494	333.97
675.904	303.54
676.314	357.37
676.724	310.56
677.134	303.54
677.544	284.81
677.953	296.52
678.363	296.52
678.773	338.65
679.182	254.39
679.592	310.56
680.001	298.86
680.411	308.22
680.82	324.6
681.23	324.6
681.639	319.92
682.048	369.07
682.457	326.94
682.866	298.86
683.275	270.77
683.684	324.6
684.093	268.43
684.502	294.18
684.911	355.03
685.32	359.71
685.728	340.99
686.137	317.58
686.546	324.6
686.954	312.9
687.363	263.75
687.771	305.88
688.179	322.26
688.588	275.45
688.996	301.2
689.404	348.01
689.812	397.16
690.22	315.24
690.628	254.39
691.036	319.92
691.444	287.15
691.852	301.2
692.26	340.99
692.667	315.24
693.075	287.15
693.483	322.26
693.89	315.24
694.298	319.92
694.705	280.13
695.112	373.75
695.52	310.56
695.927	317.58
696.334	376.09
696.741	345.67
697.148	345.67
697.555	287.15
697.962	312.9
698.369	296.52
698.776	308.22
699.183	284.81
699.59	326.94
699.996	333.97
700.403	345.67
700.81	336.31
701.216	240.34
701.623	317.58
702.029	294.18
702.435	289.5
702.842	289.5
703.248	359.71
703.654	322.26
704.06	305.88
704.466	355.03
704.872	373.75
705.278	282.47
705.684	273.11
706.09	336.31
706.496	294.18
706.901	369.07
707.307	305.88
707.712	315.24
708.118	345.67
708.523	343.33
708.929	315.24
709.334	340.99
709.74	289.5
710.145	326.94
710.55	289.5
710.955	303.54
711.36	343.33
711.765	308.22
712.17	373.75
712.575	359.71
712.98	830.16
713.385	322.26
713.789	312.9
714.194	312.9
714.599	310.56
715.003	364.39
715.408	268.43
715.812	315.24
716.217	277.79
716.621	301.2
717.025	340.99
717.429	355.03
717.833	336.31
718.238	266.09
718.642	352.69
719.046	277.79
719.449	378.44
719.853	294.18
720.257	333.97
720.661	270.77
721.065	275.45
721.468	348.01
721.872	343.33
722.275	312.9
722.679	383.12
723.082	329.28
723.485	315.24
723.889	247.37
724.292	319.92
724.695	294.18
725.098	305.88
725.501	228.64
725.904	338.65
726.307	343.33
726.71	301.2
727.113	326.94
727.516	296.52
727.918	333.97
728.321	298.86
728.724	273.11
729.126	336.31
729.529	303.54
729.931	261.41
730.333	350.35
730.736	315.24
731.138	317.58
731.54	329.28
731.942	359.71
732.344	357.37
732.746	294.18
733.148	317.58
733.55	263.75
733.952	301.2
734.354	324.6
734.756	305.88
735.157	308.22
735.559	277.79
735.96	357.37
736.362	355.03
736.763	322.26
737.165	289.5
737.566	303.54
737.967	212.26
738.368	359.71
738.77	338.65
739.171	303.54
739.572	310.56
739.973	317.58
740.374	343.33
740.774	273.11
741.175	282.47
741.576	268.43
741.977	238
742.377	317.58
742.778	315.24
743.178	343.33
743.579	303.54
743.979	301.2
744.379	326.94
744.78	312.9
745.18	355.03
745.58	310.56
745.98	366.73
746.38	266.09
746.78	282.47
747.18	266.09
747.58	324.6
747.98	310.56
748.38	352.69
748.779	348.01
749.179	310.56
749.578	345.67
749.978	319.92
750.377	308.22
750.777	259.07
751.176	263.75
751.575	336.31
751.975	273.11
752.374	275.45
752.773	312.9
753.172	305.88
753.571	308.22
753.97	301.2
754.369	245.02
754.768	333.97
755.166	322.26
755.565	280.13
755.964	277.79
756.362	301.2
756.761	308.22
757.159	291.84
757.558	266.09
757.956	242.68
758.354	333.97
758.753	298.86
759.151	338.65
759.549	287.15
759.947	280.13
760.345	298.86
760.743	275.45
761.141	352.69
761.539	303.54
761.936	284.81
762.334	303.54
762.732	296.52
763.129	303.54
763.527	343.33
763.924	343.33
764.322	319.92
764.719	308.22
765.117	352.69
765.514	308.22
765.911	397.16
766.308	324.6
766.705	261.41
767.102	312.9
767.499	275.45
767.896	319.92
768.293	326.94
768.69	317.58
769.086	348.01
769.483	301.2
769.88	362.05
770.276	294.18
770.673	252.05
771.069	348.01
771.466	263.75
771.862	345.67
772.258	357.37
772.654	326.94
773.05	287.15
773.447	343.33
773.843	298.86
774.239	329.28
774.634	303.54
775.03	345.67
775.426	242.68
775.822	345.67
776.218	376.09
776.613	310.56
777.009	303.54
777.404	294.18
777.8	298.86
778.195	357.37
778.59	324.6
778.986	268.43
779.381	301.2
779.776	275.45
780.171	305.88
780.566	289.5
780.961	317.58
781.356	319.92
781.751	343.33
782.146	331.62
782.54	270.77
782.935	359.71
783.33	338.65
783.724	383.12
784.119	245.02
784.513	303.54
784.908	329.28
785.302	310.56
785.696	303.54
786.09	230.98
786.485	310.56
786.879	305.88
787.273	301.2
787.667	399.5
788.061	345.67
788.454	301.2
788.848	336.31
789.242	385.46
789.636	312.9
790.029	303.54
790.423	324.6
790.816	275.45
791.21	291.84
791.603	329.28
791.997	268.43
792.39	289.5
792.783	333.97
793.176	305.88
793.569	310.56
793.962	336.31
794.355	326.94
794.748	322.26
795.141	326.94
795.534	301.2
795.927	312.9
796.319	294.18
796.712	249.71
797.105	261.41
797.497	305.88
797.89	273.11
798.282	296.52
798.674	350.35
799.067	350.35
799.459	345.67
799.851	296.52
800.243	284.81
800.635	329.28
801.027	310.56
801.419	350.35
801.811	270.77
802.203	338.65
802.594	343.33
802.986	287.15
803.378	371.41
803.769	280.13
804.161	357.37
804.552	308.22
804.944	331.62
805.335	275.45
805.726	303.54
806.118	319.92
806.509	294.18
806.9	324.6
807.291	273.11
807.682	287.15
808.073	296.52
808.464	338.65
808.855	270.77
809.245	254.39
809.636	350.35
810.027	336.31
810.417	310.56
810.808	252.05
811.198	282.47
811.589	305.88
811.979	294.18
812.369	315.24
812.759	340.99
813.15	315.24
813.54	312.9
813.93	268.43
814.32	303.54
814.71	362.05
815.1	289.5
815.489	310.56
815.879	326.94
816.269	319.92
816.658	298.86
817.048	280.13
817.438	333.97
817.827	322.26
818.216	296.52
818.606	252.05
818.995	308.22
819.384	312.9
819.773	245.02
820.163	294.18
820.552	303.54
820.941	312.9
821.33	301.2
821.718	245.02
822.107	301.2
822.496	310.56
822.885	319.92
823.273	338.65
823.662	305.88
824.05	305.88
824.439	259.07
824.827	263.75
825.216	273.11
825.604	336.31
825.992	303.54
826.38	275.45
826.768	277.79
827.156	287.15
827.544	294.18
827.932	282.47
828.32	282.47
828.708	294.18
829.096	308.22
829.483	287.15
829.871	296.52
830.259	333.97
830.646	240.34
831.034	298.86
831.421	308.22
831.808	280.13
832.196	369.07
832.583	340.99
832.97	340.99
833.357	312.9
833.744	294.18
834.131	305.88
834.518	343.33
834.905	315.24
835.292	343.33
835.678	235.66
836.065	298.86
836.452	266.09
836.838	322.26
837.225	289.5
837.611	348.01
837.998	284.81
838.384	263.75
838.77	277.79
839.157	336.31
839.543	268.43
839.929	287.15
840.315	259.07
840.701	312.9
841.087	284.81
841.473	294.18
841.858	261.41
842.244	298.86
842.63	226.3
843.015	301.2
843.401	619.51
843.787	289.5
844.172	350.35
844.557	324.6
844.943	301.2
845.328	305.88
845.713	298.86
846.098	315.24
846.483	308.22
846.868	319.92
847.253	247.37
847.638	340.99
848.023	369.07
848.408	355.03
848.793	287.15
849.177	273.11
849.562	319.92
849.947	301.2
850.331	256.73
850.715	256.73
851.1	305.88
851.484	273.11
851.868	273.11
852.253	310.56
852.637	240.34
853.021	256.73
853.405	245.02
853.789	273.11
854.173	277.79
854.557	275.45
854.94	277.79
855.324	291.84
855.708	291.84
856.091	340.99
856.475	249.71
856.858	284.81
857.242	282.47
857.625	333.97
858.009	245.02
858.392	350.35
858.775	315.24
859.158	296.52
859.541	312.9
859.924	277.79
860.307	240.34
860.69	340.99
861.073	322.26
861.456	333.97
861.838	289.5
862.221	284.81
862.604	348.01
862.986	268.43
863.369	303.54
863.751	331.62
864.133	305.88
864.516	319.92
864.898	238
865.28	296.52
865.662	305.88
866.044	317.58
866.426	305.88
866.808	362.05
867.19	355.03
867.572	303.54
867.954	308.22
868.336	326.94
868.717	298.86
869.099	252.05
869.48	282.47
869.862	298.86
870.243	303.54
870.625	289.5
871.006	275.45
871.387	315.24
871.768	336.31
872.149	343.33
872.53	355.03
872.911	193.53
873.292	345.67
873.673	298.86
874.054	303.54
874.435	284.81
874.815	289.5
875.196	280.13
875.577	308.22
875.957	319.92
876.338	259.07
876.718	336.31
877.098	387.8
877.479	345.67
877.859	376.09
878.239	317.58
878.619	350.35
878.999	301.2
879.379	322.26
879.759	291.84
880.139	317.58
880.519	282.47
880.898	352.69
881.278	296.52
881.658	315.24
882.037	364.39
882.417	263.75
882.796	303.54
883.176	326.94
883.555	312.9
883.934	256.73
884.313	348.01
884.693	305.88
885.072	401.84
885.451	296.52
885.83	352.69
886.209	301.2
886.587	284.81
886.966	275.45
887.345	345.67
887.724	294.18
888.102	324.6
888.481	385.46
888.859	362.05
889.238	350.35
889.616	333.97
889.994	322.26
890.373	352.69
890.751	350.35
891.129	282.47
891.507	308.22
891.885	259.07
892.263	308.22
892.641	263.75
893.019	329.28
893.396	322.26
893.774	387.8
894.152	280.13
894.529	235.66
894.907	263.75
895.284	310.56
895.662	282.47
896.039	383.12
896.416	245.02
896.794	291.84
897.171	310.56
897.548	301.2
897.925	340.99
898.302	301.2
898.679	348.01
899.056	301.2
899.433	249.71
899.809	305.88
900.186	263.75
900.563	216.94
900.939	348.01
901.316	303.54
901.692	331.62
902.069	296.52
902.445	291.84
902.821	333.97
903.197	324.6
903.574	338.65
903.95	317.58
904.326	291.84
904.702	280.13
905.078	289.5
905.454	329.28
905.829	373.75
906.205	277.79
906.581	308.22
906.956	298.86
907.332	287.15
907.707	340.99
908.083	303.54
908.458	289.5
908.833	247.37
909.209	303.54
909.584	315.24
909.959	268.43
910.334	294.18
910.709	343.33
911.084	254.39
911.459	280.13
911.834	289.5
912.209	259.07
912.583	359.71
912.958	338.65
913.333	289.5
913.707	317.58
914.082	252.05
914.456	259.07
914.83	245.02
915.205	317.58
915.579	289.5
915.953	303.54
916.327	312.9
916.701	371.41
917.075	308.22
917.449	270.77
917.823	333.97
918.197	310.56
918.571	336.31
918.944	289.5
919.318	312.9
919.692	284.81
920.065	324.6
920.438	359.71
920.812	256.73
921.185	273.11
921.558	296.52
921.932	275.45
922.305	329.28
922.678	305.88
923.051	329.28
923.424	336.31
923.797	324.6
924.17	305.88
924.542	340.99
924.915	362.05
925.288	350.35
925.661	247.37
926.033	317.58
926.406	310.56
926.778	289.5
927.15	315.24
927.523	352.69
927.895	294.18
928.267	305.88
928.639	345.67
929.011	261.41
929.383	331.62
929.755	329.28
930.127	280.13
930.499	317.58
930.871	317.58
931.242	296.52
931.614	338.65
931.986	317.58
932.357	340.99
932.729	350.35
933.1	280.13
933.471	273.11
933.843	345.67
934.214	315.24
934.585	305.88
934.956	228.64
935.327	287.15
935.698	303.54
936.069	350.35
936.44	355.03
936.811	343.33
937.182	294.18
937.552	310.56
937.923	319.92
938.293	345.67
938.664	322.26
939.034	338.65
939.405	333.97
939.775	301.2
940.145	280.13
940.516	319.92
940.886	259.07
941.256	289.5
941.626	380.78
941.996	312.9
942.366	296.52
942.735	340.99
943.105	256.73
943.475	364.39
943.845	376.09
944.214	308.22
944.584	315.24
944.953	291.84
945.323	289.5
945.692	291.84
946.061	284.81
946.43	284.81
946.8	315.24
947.169	289.5
947.538	315.24
947.907	296.52
948.276	310.56
948.645	331.62
949.013	303.54
949.382	317.58
949.751	294.18
950.119	273.11
950.488	296.52
950.857	291.84
951.225	298.86
951.593	259.07
951.962	230.98
952.33	303.54
952.698	249.71
953.066	289.5
953.434	308.22
953.802	303.54
954.17	315.24
954.538	312.9
954.906	340.99
955.274	322.26
955.642	348.01
956.009	355.03
956.377	291.84
956.744	263.75
957.112	301.2
957.479	282.47
957.847	261.41
958.214	296.52
958.581	315.24
958.948	333.97
959.315	282.47
959.683	326.94
960.05	303.54
960.416	312.9
960.783	308.22
961.15	315.24
961.517	322.26
961.884	310.56
962.25	277.79
962.617	303.54
962.983	280.13
963.35	338.65
963.716	352.69
964.082	266.09
964.449	296.52
964.815	270.77
965.181	385.46
965.547	261.41
965.913	263.75
966.279	238
966.645	322.26
967.011	240.34
967.377	312.9
967.742	352.69
968.108	254.39
968.474	268.43
968.839	252.05
969.205	282.47
969.57	317.58
969.935	254.39
970.301	252.05
970.666	308.22
971.031	282.47
971.396	275.45
971.761	338.65
972.126	284.81
972.491	322.26
972.856	296.52
973.221	343.33
973.586	352.69
973.95	319.92
974.315	333.97
974.679	303.54
975.044	322.26
975.408	289.5
975.773	282.47
976.137	322.26
976.501	329.28
976.866	296.52
977.23	326.94
977.594	277.79
977.958	319.92
978.322	245.02
978.686	326.94
979.049	336.31
979.413	294.18
979.777	338.65
980.141	352.69
980.504	345.67
980.868	284.81
981.231	319.92
981.595	301.2
981.958	369.07
982.321	280.13
982.684	291.84
983.048	240.34
983.411	287.15
983.774	296.52
984.137	270.77
984.5	310.56
984.862	331.62
985.225	284.81
985.588	331.62
985.951	312.9
986.313	329.28
986.676	277.79
987.038	291.84
987.401	259.07
987.763	291.84
988.125	305.88
988.488	312.9
988.85	333.97
989.212	350.35
989.574	329.28
989.936	345.67
990.298	338.65
990.66	298.86
991.022	338.65
991.383	287.15
991.745	256.73
992.107	343.33
992.468	331.62
992.83	319.92
993.191	284.81
993.553	296.52
993.914	326.94
994.275	315.24
994.637	357.37
994.998	324.6
995.359	284.81
995.72	284.81
996.081	294.18
996.442	394.82
996.803	312.9
997.163	282.47
997.524	333.97
997.885	277.79
998.245	343.33
998.606	357.37
998.966	282.47
999.327	266.09
999.687	266.09
1000.047	228.64
1000.408	338.65
1000.768	296.52
1001.128	301.2
1001.488	338.65
1001.848	319.92
1002.208	263.75
1002.568	294.18
1002.927	333.97
1003.287	329.28
1003.647	305.88
1004.007	273.11
1004.366	324.6
1004.726	261.41
1005.085	277.79
1005.444	247.37
1005.804	273.11
1006.163	294.18
1006.522	275.45
1006.881	303.54
1007.24	385.46
1007.599	277.79
1007.958	305.88
1008.317	352.69
1008.676	338.65
1009.035	315.24
1009.393	308.22
1009.752	312.9
1010.111	280.13
1010.469	315.24
1010.828	275.45
1011.186	308.22
1011.544	319.92
1011.903	284.81
1012.261	322.26
1012.619	249.71
1012.977	312.9
1013.335	245.02
1013.693	310.56
1014.051	310.56
1014.409	308.22
1014.767	277.79
1015.124	268.43
1015.482	282.47
1015.84	301.2
1016.197	266.09
1016.555	322.26
1016.912	252.05
1017.269	287.15
1017.627	333.97
1017.984	315.24
1018.341	277.79
1018.698	298.86
1019.055	252.05
1019.412	275.45
1019.769	317.58
1020.126	322.26
1020.483	312.9
1020.84	326.94
1021.196	362.05
1021.553	331.62
1021.909	324.6
1022.266	310.56
1022.622	266.09
1022.979	303.54
1023.335	291.84
1023.691	359.71
1024.047	338.65
1024.404	333.97
1024.76	254.39
1025.116	301.2
1025.472	263.75
1025.827	277.79
1026.183	308.22
1026.539	324.6
1026.895	277.79
1027.25	291.84
1027.606	289.5
1027.961	247.37
1028.317	289.5
1028.672	270.77
1029.028	348.01
1029.383	336.31
1029.738	324.6
1030.093	284.81
1030.448	308.22
1030.803	348.01
1031.158	326.94
1031.513	308.22
1031.868	324.6
1032.223	275.45
1032.577	343.33
1032.932	326.94
1033.287	294.18
1033.641	275.45
1033.996	291.84
1034.35	331.62
1034.704	270.77
1035.059	282.47
1035.413	333.97
1035.767	333.97
1036.121	333.97
