Data from Al_FLMS009871__677__15-05-09-409.txt Node

Date: Fri Mar 08 15:05:09 CST 2024
User: pe5414po
Spectrometer: FLMS00987
Trigger mode: 0
Integration Time (sec): 1.000000E-1
Scans to average: 1
Electric dark correction enabled: true
Nonlinearity correction enabled: false
Boxcar width: 0
XAxis mode: Wavelengths
Number of Pixels in Spectrum: 2048
>>>>>Begin Spectral Data<<<<<
188.938	-92.01
189.409	-92.01
189.879	-92.01
190.349	-68.61
190.819	-148.19
191.29	-113.08
191.76	-106.06
192.23	-42.86
192.7	-82.65
193.17	-52.22
193.64	-61.59
194.109	-77.97
194.579	-59.24
195.049	-66.27
195.519	48.42
195.988	43.74
196.458	71.83
196.927	76.51
197.397	200.55
197.866	139.7
198.336	81.19
198.805	118.64
199.274	186.51
199.744	71.83
200.213	158.43
200.682	151.4
201.151	132.68
201.62	209.92
202.089	249.71
202.558	223.96
203.027	219.28
203.495	275.45
203.964	324.6
204.433	301.2
204.902	247.37
205.37	273.11
205.839	310.56
206.307	324.6
206.776	392.48
207.244	333.97
207.712	312.9
208.181	298.86
208.649	245.02
209.117	331.62
209.585	324.6
210.053	277.79
210.521	214.6
210.989	369.07
211.457	291.84
211.925	376.09
212.393	329.28
212.861	294.18
213.328	277.79
213.796	266.09
214.264	289.5
214.731	261.41
215.199	315.24
215.666	282.47
216.133	249.71
216.601	322.26
217.068	238
217.535	216.94
218.003	228.64
218.47	277.79
218.937	319.92
219.404	240.34
219.871	242.68
220.338	273.11
220.805	245.02
221.271	256.73
221.738	319.92
222.205	228.64
222.671	261.41
223.138	233.32
223.605	226.3
224.071	233.32
224.538	301.2
225.004	242.68
225.47	312.9
225.937	284.81
226.403	298.86
226.869	238
227.335	261.41
227.801	273.11
228.267	315.24
228.733	303.54
229.199	277.79
229.665	247.37
230.131	298.86
230.597	240.34
231.062	291.84
231.528	310.56
231.994	287.15
232.459	223.96
232.925	319.92
233.39	219.28
233.856	205.24
234.321	240.34
234.786	238
235.252	312.9
235.717	301.2
236.182	252.05
236.647	268.43
237.112	333.97
237.577	245.02
238.042	247.37
238.507	275.45
238.972	348.01
239.436	282.47
239.901	275.45
240.366	348.01
240.83	277.79
241.295	252.05
241.76	266.09
242.224	296.52
242.688	238
243.153	287.15
243.617	294.18
244.081	221.62
244.545	226.3
245.01	259.07
245.474	263.75
245.938	310.56
246.402	235.66
246.866	219.28
247.33	273.11
247.793	303.54
248.257	284.81
248.721	238
249.185	249.71
249.648	270.77
250.112	259.07
250.575	296.52
251.039	216.94
251.502	273.11
251.965	326.94
252.429	305.88
252.892	273.11
253.355	331.62
253.818	238
254.281	350.35
254.744	254.39
255.207	294.18
255.67	310.56
256.133	259.07
256.596	216.94
257.059	233.32
257.522	296.52
257.984	270.77
258.447	287.15
258.909	223.96
259.372	312.9
259.834	329.28
260.297	294.18
260.759	343.33
261.221	275.45
261.684	301.2
262.146	280.13
262.608	338.65
263.07	287.15
263.532	226.3
263.994	340.99
264.456	317.58
264.918	345.67
265.38	230.98
265.842	317.58
266.303	282.47
266.765	289.5
267.227	350.35
267.688	324.6
268.15	294.18
268.611	289.5
269.072	270.77
269.534	357.37
269.995	310.56
270.456	282.47
270.918	219.28
271.379	326.94
271.84	345.67
272.301	223.96
272.762	270.77
273.223	291.84
273.684	238
274.144	289.5
274.605	317.58
275.066	340.99
275.527	275.45
275.987	296.52
276.448	331.62
276.908	270.77
277.369	329.28
277.829	329.28
278.289	338.65
278.75	310.56
279.21	223.96
279.67	280.13
280.13	331.62
280.59	322.26
281.05	289.5
281.51	275.45
281.97	256.73
282.43	319.92
282.89	287.15
283.35	331.62
283.809	282.47
284.269	287.15
284.729	284.81
285.188	315.24
285.648	319.92
286.107	280.13
286.567	277.79
287.026	273.11
287.485	235.66
287.944	270.77
288.404	238
288.863	315.24
289.322	294.18
289.781	350.35
290.24	308.22
290.699	291.84
291.158	315.24
291.616	305.88
292.075	296.52
292.534	322.26
292.992	275.45
293.451	268.43
293.91	287.15
294.368	296.52
294.827	287.15
295.285	310.56
295.743	254.39
296.202	282.47
296.66	277.79
297.118	315.24
297.576	303.54
298.034	298.86
298.492	317.58
298.95	310.56
299.408	291.84
299.866	296.52
300.324	326.94
300.781	298.86
301.239	294.18
301.697	270.77
302.154	301.2
302.612	322.26
303.069	303.54
303.527	333.97
303.984	312.9
304.441	340.99
304.899	287.15
305.356	263.75
305.813	310.56
306.27	282.47
306.727	301.2
307.184	357.37
307.641	326.94
308.098	280.13
308.555	289.5
309.012	308.22
309.468	294.18
309.925	298.86
310.382	303.54
310.838	275.45
311.295	294.18
311.751	277.79
312.208	303.54
312.664	287.15
313.12	329.28
313.577	319.92
314.033	259.07
314.489	324.6
314.945	380.78
315.401	373.75
315.857	336.31
316.313	357.37
316.769	324.6
317.225	324.6
317.681	312.9
318.136	266.09
318.592	266.09
319.048	305.88
319.503	301.2
319.959	296.52
320.414	319.92
320.869	268.43
321.325	254.39
321.78	284.81
322.235	324.6
322.691	303.54
323.146	329.28
323.601	270.77
324.056	296.52
324.511	263.75
324.966	348.01
325.421	214.6
325.875	317.58
326.33	338.65
326.785	298.86
327.24	326.94
327.694	289.5
328.149	275.45
328.603	312.9
329.058	331.62
329.512	289.5
329.966	359.71
330.421	329.28
330.875	310.56
331.329	329.28
331.783	280.13
332.237	287.15
332.691	317.58
333.145	280.13
333.599	392.48
334.053	275.45
334.507	287.15
334.96	331.62
335.414	298.86
335.868	331.62
336.321	315.24
336.775	324.6
337.228	277.79
337.682	247.37
338.135	282.47
338.588	329.28
339.042	263.75
339.495	245.02
339.948	305.88
340.401	336.31
340.854	275.45
341.307	298.86
341.76	303.54
342.213	348.01
342.666	303.54
343.119	352.69
343.571	270.77
344.024	329.28
344.477	308.22
344.929	282.47
345.382	301.2
345.834	331.62
346.287	284.81
346.739	345.67
347.191	275.45
347.644	322.26
348.096	291.84
348.548	291.84
349	298.86
349.452	352.69
349.904	291.84
350.356	312.9
350.808	308.22
351.26	242.68
351.711	282.47
352.163	336.31
352.615	319.92
353.066	359.71
353.518	378.44
353.969	252.05
354.421	345.67
354.872	350.35
355.324	305.88
355.775	348.01
356.226	252.05
356.677	359.71
357.128	277.79
357.579	287.15
358.03	284.81
358.481	317.58
358.932	301.2
359.383	366.73
359.834	305.88
360.285	310.56
360.735	289.5
361.186	378.44
361.637	326.94
362.087	352.69
362.538	340.99
362.988	289.5
363.438	366.73
363.889	350.35
364.339	357.37
364.789	296.52
365.239	280.13
365.689	303.54
366.139	310.56
366.589	340.99
367.039	301.2
367.489	308.22
367.939	324.6
368.389	326.94
368.839	226.3
369.288	270.77
369.738	298.86
370.187	324.6
370.637	284.81
371.086	322.26
371.536	266.09
371.985	298.86
372.434	305.88
372.884	362.05
373.333	273.11
373.782	333.97
374.231	247.37
374.68	310.56
375.129	263.75
375.578	345.67
376.027	282.47
376.475	301.2
376.924	289.5
377.373	387.8
377.822	284.81
378.27	294.18
378.719	322.26
379.167	317.58
379.616	324.6
380.064	376.09
380.512	376.09
380.961	366.73
381.409	228.64
381.857	263.75
382.305	275.45
382.753	275.45
383.201	266.09
383.649	324.6
384.097	331.62
384.545	390.14
384.992	310.56
385.44	319.92
385.888	343.33
386.335	296.52
386.783	371.41
387.231	345.67
387.678	289.5
388.125	301.2
388.573	277.79
389.02	291.84
389.467	350.35
389.914	289.5
390.362	359.71
390.809	329.28
391.256	280.13
391.703	287.15
392.15	308.22
392.596	380.78
393.043	345.67
393.49	303.54
393.937	287.15
394.383	350.35
394.83	329.28
395.276	298.86
395.723	315.24
396.169	319.92
396.616	301.2
397.062	326.94
397.508	252.05
397.954	291.84
398.401	364.39
398.847	331.62
399.293	289.5
399.739	336.31
400.185	355.03
400.631	326.94
401.076	324.6
401.522	294.18
401.968	294.18
402.414	345.67
402.859	326.94
403.305	348.01
403.75	315.24
404.196	329.28
404.641	317.58
405.086	317.58
405.532	322.26
405.977	277.79
406.422	312.9
406.867	308.22
407.312	378.44
407.757	305.88
408.202	362.05
408.647	291.84
409.092	340.99
409.537	380.78
409.982	338.65
410.426	277.79
410.871	298.86
411.316	310.56
411.76	263.75
412.205	317.58
412.649	301.2
413.093	355.03
413.538	280.13
413.982	312.9
414.426	238
414.87	364.39
415.314	336.31
415.758	252.05
416.202	357.37
416.646	310.56
417.09	359.71
417.534	303.54
417.978	280.13
418.421	345.67
418.865	294.18
419.309	305.88
419.752	315.24
420.196	322.26
420.639	308.22
421.083	324.6
421.526	245.02
421.969	324.6
422.412	296.52
422.856	284.81
423.299	315.24
423.742	308.22
424.185	301.2
424.628	371.41
425.071	245.02
425.513	357.37
425.956	312.9
426.399	266.09
426.842	301.2
427.284	355.03
427.727	369.07
428.169	310.56
428.612	296.52
429.054	345.67
429.497	280.13
429.939	343.33
430.381	355.03
430.823	305.88
431.265	298.86
431.707	298.86
432.149	305.88
432.591	317.58
433.033	352.69
433.475	270.77
433.917	364.39
434.359	315.24
434.8	322.26
435.242	315.24
435.684	359.71
436.125	345.67
436.567	343.33
437.008	432.27
437.449	296.52
437.891	277.79
438.332	373.75
438.773	282.47
439.214	294.18
439.656	287.15
440.097	324.6
440.538	317.58
440.978	336.31
441.419	268.43
441.86	259.07
442.301	324.6
442.742	280.13
443.182	298.86
443.623	287.15
444.063	343.33
444.504	282.47
444.944	345.67
445.385	284.81
445.825	310.56
446.265	296.52
446.706	345.67
447.146	383.12
447.586	324.6
448.026	359.71
448.466	338.65
448.906	303.54
449.346	326.94
449.786	291.84
450.225	319.92
450.665	336.31
451.105	268.43
451.544	345.67
451.984	270.77
452.424	298.86
452.863	252.05
453.302	277.79
453.742	223.96
454.181	284.81
454.62	308.22
455.059	359.71
455.499	390.14
455.938	355.03
456.377	357.37
456.816	369.07
457.254	371.41
457.693	366.73
458.132	322.26
458.571	340.99
459.01	310.56
459.448	305.88
459.887	326.94
460.325	343.33
460.764	338.65
461.202	331.62
461.641	418.22
462.079	326.94
462.517	268.43
462.955	298.86
463.393	305.88
463.832	310.56
464.27	364.39
464.708	348.01
465.145	275.45
465.583	277.79
466.021	289.5
466.459	294.18
466.897	383.12
467.334	315.24
467.772	315.24
468.209	331.62
468.647	268.43
469.084	312.9
469.522	291.84
469.959	291.84
470.396	235.66
470.833	319.92
471.271	296.52
471.708	331.62
472.145	275.45
472.582	280.13
473.019	336.31
473.456	301.2
473.892	371.41
474.329	245.02
474.766	336.31
475.202	355.03
475.639	266.09
476.076	315.24
476.512	308.22
476.949	336.31
477.385	359.71
477.821	301.2
478.258	352.69
478.694	312.9
479.13	336.31
479.566	273.11
480.002	364.39
480.438	371.41
480.874	357.37
481.31	252.05
481.746	317.58
482.181	252.05
482.617	263.75
483.053	336.31
483.488	326.94
483.924	312.9
484.36	312.9
484.795	317.58
485.23	355.03
485.666	345.67
486.101	324.6
486.536	310.56
486.971	284.81
487.407	350.35
487.842	336.31
488.277	249.71
488.712	322.26
489.146	357.37
489.581	310.56
490.016	317.58
490.451	305.88
490.885	352.69
491.32	317.58
491.755	294.18
492.189	322.26
492.624	324.6
493.058	268.43
493.492	326.94
493.927	235.66
494.361	324.6
494.795	291.84
495.229	329.28
495.663	308.22
496.097	266.09
496.531	385.46
496.965	294.18
497.399	322.26
497.833	387.8
498.266	305.88
498.7	275.45
499.134	282.47
499.567	338.65
500.001	301.2
500.434	338.65
500.868	296.52
501.301	340.99
501.734	284.81
502.168	317.58
502.601	340.99
503.034	245.02
503.467	348.01
503.9	268.43
504.333	322.26
504.766	305.88
505.199	355.03
505.632	308.22
506.064	324.6
506.497	273.11
506.93	362.05
507.362	326.94
507.795	322.26
508.227	268.43
508.66	317.58
509.092	348.01
509.524	345.67
509.956	315.24
510.389	319.92
510.821	336.31
511.253	298.86
511.685	252.05
512.117	287.15
512.549	345.67
512.981	350.35
513.412	340.99
513.844	270.77
514.276	338.65
514.707	355.03
515.139	348.01
515.571	268.43
516.002	294.18
516.433	289.5
516.865	326.94
517.296	308.22
517.727	296.52
518.159	305.88
518.59	317.58
519.021	261.41
519.452	289.5
519.883	315.24
520.314	287.15
520.744	364.39
521.175	303.54
521.606	326.94
522.037	287.15
522.467	319.92
522.898	312.9
523.328	343.33
523.759	317.58
524.189	319.92
524.62	284.81
525.05	310.56
525.48	404.18
525.91	340.99
526.341	326.94
526.771	329.28
527.201	317.58
527.631	280.13
528.061	343.33
528.49	326.94
528.92	336.31
529.35	289.5
529.78	383.12
530.209	315.24
530.639	284.81
531.068	289.5
531.498	223.96
531.927	308.22
532.357	385.46
532.786	315.24
533.215	350.35
533.644	336.31
534.074	331.62
534.503	275.45
534.932	315.24
535.361	287.15
535.79	340.99
536.218	287.15
536.647	319.92
537.076	305.88
537.505	282.47
537.933	287.15
538.362	371.41
538.79	270.77
539.219	296.52
539.647	298.86
540.076	291.84
540.504	333.97
540.932	308.22
541.36	338.65
541.788	294.18
542.217	317.58
542.645	273.11
543.073	322.26
543.5	331.62
543.928	324.6
544.356	308.22
544.784	284.81
545.211	315.24
545.639	333.97
546.067	357.37
546.494	312.9
546.922	357.37
547.349	329.28
547.776	333.97
548.204	340.99
548.631	305.88
549.058	336.31
549.485	312.9
549.912	352.69
550.339	362.05
550.766	324.6
551.193	340.99
551.62	333.97
552.047	371.41
552.474	305.88
552.9	338.65
553.327	366.73
553.754	301.2
554.18	333.97
554.607	324.6
555.033	345.67
555.459	326.94
555.886	303.54
556.312	338.65
556.738	352.69
557.164	294.18
557.59	364.39
558.016	301.2
558.442	233.32
558.868	259.07
559.294	305.88
559.72	280.13
560.145	219.28
560.571	359.71
560.997	287.15
561.422	324.6
561.848	303.54
562.273	319.92
562.699	301.2
563.124	319.92
563.549	319.92
563.974	357.37
564.4	294.18
564.825	345.67
565.25	350.35
565.675	350.35
566.1	373.75
566.525	324.6
566.95	350.35
567.374	319.92
567.799	338.65
568.224	289.5
568.648	310.56
569.073	315.24
569.497	359.71
569.922	275.45
570.346	326.94
570.771	322.26
571.195	259.07
571.619	310.56
572.043	338.65
572.467	326.94
572.891	305.88
573.315	305.88
573.739	317.58
574.163	312.9
574.587	336.31
575.011	287.15
575.435	305.88
575.858	294.18
576.282	287.15
576.705	284.81
577.129	301.2
577.552	291.84
577.976	296.52
578.399	301.2
578.822	319.92
579.245	364.39
579.669	345.67
580.092	287.15
580.515	322.26
580.938	340.99
581.361	317.58
581.784	383.12
582.206	338.65
582.629	329.28
583.052	305.88
583.474	294.18
583.897	289.5
584.32	308.22
584.742	256.73
585.165	404.18
585.587	362.05
586.009	266.09
586.431	345.67
586.854	291.84
587.276	294.18
587.698	296.52
588.12	333.97
588.542	233.32
588.964	322.26
589.386	310.56
589.807	245.02
590.229	338.65
590.651	270.77
591.073	310.56
591.494	280.13
591.916	359.71
592.337	336.31
592.759	289.5
593.18	284.81
593.601	317.58
594.022	324.6
594.444	350.35
594.865	317.58
595.286	333.97
595.707	369.07
596.128	376.09
596.549	333.97
596.97	373.75
597.39	291.84
597.811	329.28
598.232	340.99
598.652	273.11
599.073	284.81
599.494	298.86
599.914	350.35
600.334	305.88
600.755	266.09
601.175	348.01
601.595	340.99
602.015	333.97
602.436	333.97
602.856	465.04
603.276	308.22
603.696	324.6
604.115	287.15
604.535	315.24
604.955	324.6
605.375	359.71
605.794	362.05
606.214	273.11
606.634	296.52
607.053	319.92
607.473	310.56
607.892	343.33
608.311	270.77
608.731	329.28
609.15	289.5
609.569	331.62
609.988	310.56
610.407	326.94
610.826	369.07
611.245	303.54
611.664	319.92
612.083	284.81
612.501	289.5
612.92	315.24
613.339	315.24
613.757	326.94
614.176	315.24
614.594	340.99
615.013	296.52
615.431	338.65
615.85	340.99
616.268	338.65
616.686	315.24
617.104	333.97
617.522	331.62
617.94	352.69
618.358	289.5
618.776	282.47
619.194	305.88
619.612	333.97
620.03	343.33
620.447	280.13
620.865	303.54
621.282	268.43
621.7	310.56
622.117	282.47
622.535	312.9
622.952	268.43
623.369	287.15
623.787	359.71
624.204	336.31
624.621	385.46
625.038	390.14
625.455	263.75
625.872	338.65
626.289	247.37
626.706	326.94
627.123	268.43
627.539	270.77
627.956	383.12
628.373	277.79
628.789	317.58
629.206	301.2
629.622	355.03
630.038	331.62
630.455	287.15
630.871	331.62
631.287	336.31
631.703	284.81
632.12	291.84
632.536	348.01
632.952	287.15
633.368	308.22
633.783	319.92
634.199	331.62
634.615	303.54
635.031	371.41
635.446	312.9
635.862	303.54
636.277	366.73
636.693	310.56
637.108	277.79
637.524	362.05
637.939	287.15
638.354	294.18
638.77	289.5
639.185	338.65
639.6	263.75
640.015	282.47
640.43	273.11
640.845	350.35
641.259	298.86
641.674	303.54
642.089	294.18
642.504	350.35
642.918	296.52
643.333	294.18
643.747	357.37
644.162	310.56
644.576	333.97
644.991	240.34
645.405	263.75
645.819	308.22
646.233	359.71
646.647	282.47
647.061	366.73
647.475	322.26
647.889	298.86
648.303	329.28
648.717	364.39
649.131	340.99
649.545	343.33
649.958	289.5
650.372	303.54
650.785	261.41
651.199	240.34
651.612	319.92
652.026	340.99
652.439	371.41
652.852	308.22
653.266	357.37
653.679	322.26
654.092	301.2
654.505	371.41
654.918	298.86
655.331	294.18
655.744	268.43
656.156	303.54
656.569	259.07
656.982	303.54
657.394	296.52
657.807	291.84
658.22	291.84
658.632	348.01
659.044	324.6
659.457	315.24
659.869	289.5
660.281	326.94
660.693	317.58
661.106	329.28
661.518	296.52
661.93	322.26
662.342	345.67
662.754	238
663.165	340.99
663.577	366.73
663.989	254.39
664.401	326.94
664.812	277.79
665.224	301.2
665.635	303.54
666.047	312.9
666.458	350.35
666.869	254.39
667.281	298.86
667.692	338.65
668.103	310.56
668.514	301.2
668.925	331.62
669.336	308.22
669.747	252.05
670.158	331.62
670.569	317.58
670.979	282.47
671.39	303.54
671.801	331.62
672.211	305.88
672.622	256.73
673.032	336.31
673.443	329.28
673.853	310.56
674.263	277.79
674.674	357.37
675.084	350.35
675.494	317.58
675.904	336.31
676.314	245.02
676.724	373.75
677.134	305.88
677.544	247.37
677.953	317.58
678.363	266.09
678.773	340.99
679.182	277.79
679.592	305.88
680.001	303.54
680.411	343.33
680.82	329.28
681.23	273.11
681.639	305.88
682.048	310.56
682.457	301.2
682.866	355.03
683.275	355.03
683.684	277.79
684.093	270.77
684.502	336.31
684.911	284.81
685.32	289.5
685.728	296.52
686.137	289.5
686.546	261.41
686.954	362.05
687.363	331.62
687.771	277.79
688.179	317.58
688.588	303.54
688.996	352.69
689.404	277.79
689.812	319.92
690.22	317.58
690.628	287.15
691.036	259.07
691.444	315.24
691.852	298.86
692.26	350.35
692.667	319.92
693.075	352.69
693.483	296.52
693.89	322.26
694.298	324.6
694.705	355.03
695.112	282.47
695.52	287.15
695.927	343.33
696.334	319.92
696.741	336.31
697.148	308.22
697.555	268.43
697.962	352.69
698.369	326.94
698.776	326.94
699.183	308.22
699.59	333.97
699.996	338.65
700.403	364.39
700.81	298.86
701.216	303.54
701.623	301.2
702.029	289.5
702.435	312.9
702.842	270.77
703.248	277.79
703.654	317.58
704.06	336.31
704.466	296.52
704.872	336.31
705.278	287.15
705.684	298.86
706.09	308.22
706.496	338.65
706.901	345.67
707.307	333.97
707.712	298.86
708.118	252.05
708.523	308.22
708.929	322.26
709.334	287.15
709.74	308.22
710.145	289.5
710.55	294.18
710.955	315.24
711.36	315.24
711.765	256.73
712.17	355.03
712.575	319.92
712.98	848.88
713.385	333.97
713.789	296.52
714.194	317.58
714.599	336.31
715.003	296.52
715.408	273.11
715.812	315.24
716.217	317.58
716.621	340.99
717.025	324.6
717.429	280.13
717.833	329.28
718.238	242.68
718.642	315.24
719.046	301.2
719.449	331.62
719.853	308.22
720.257	317.58
720.661	324.6
721.065	326.94
721.468	348.01
721.872	331.62
722.275	326.94
722.679	348.01
723.082	336.31
723.485	308.22
723.889	333.97
724.292	303.54
724.695	364.39
725.098	336.31
725.501	336.31
725.904	296.52
726.307	333.97
726.71	355.03
727.113	298.86
727.516	252.05
727.918	333.97
728.321	310.56
728.724	326.94
729.126	369.07
729.529	284.81
729.931	305.88
730.333	303.54
730.736	359.71
731.138	296.52
731.54	315.24
731.942	282.47
732.344	343.33
732.746	329.28
733.148	282.47
733.55	268.43
733.952	326.94
734.354	301.2
734.756	242.68
735.157	345.67
735.559	287.15
735.96	336.31
736.362	355.03
736.763	364.39
737.165	312.9
737.566	315.24
737.967	322.26
738.368	326.94
738.77	336.31
739.171	362.05
739.572	333.97
739.973	352.69
740.374	312.9
740.774	298.86
741.175	352.69
741.576	310.56
741.977	352.69
742.377	268.43
742.778	238
743.178	315.24
743.579	336.31
743.979	287.15
744.379	329.28
744.78	324.6
745.18	305.88
745.58	317.58
745.98	319.92
746.38	345.67
746.78	329.28
747.18	273.11
747.58	336.31
747.98	322.26
748.38	336.31
748.779	270.77
749.179	284.81
749.578	270.77
749.978	315.24
750.377	326.94
750.777	345.67
751.176	324.6
751.575	308.22
751.975	287.15
752.374	270.77
752.773	350.35
753.172	273.11
753.571	289.5
753.97	287.15
754.369	350.35
754.768	366.73
755.166	280.13
755.565	284.81
755.964	287.15
756.362	352.69
756.761	317.58
757.159	322.26
757.558	287.15
757.956	296.52
758.354	287.15
758.753	345.67
759.151	329.28
759.549	287.15
759.947	277.79
760.345	352.69
760.743	355.03
761.141	326.94
761.539	348.01
761.936	348.01
762.334	249.71
762.732	294.18
763.129	308.22
763.527	275.45
763.924	373.75
764.322	315.24
764.719	310.56
765.117	355.03
765.514	291.84
765.911	312.9
766.308	287.15
766.705	289.5
767.102	228.64
767.499	308.22
767.896	273.11
768.293	268.43
768.69	280.13
769.086	226.3
769.483	345.67
769.88	373.75
770.276	291.84
770.673	359.71
771.069	317.58
771.466	317.58
771.862	303.54
772.258	294.18
772.654	301.2
773.05	298.86
773.447	317.58
773.843	315.24
774.239	301.2
774.634	308.22
775.03	289.5
775.426	322.26
775.822	352.69
776.218	289.5
776.613	294.18
777.009	303.54
777.404	362.05
777.8	296.52
778.195	317.58
778.59	240.34
778.986	305.88
779.381	282.47
779.776	221.62
780.171	322.26
780.566	259.07
780.961	301.2
781.356	275.45
781.751	366.73
782.146	263.75
782.54	329.28
782.935	312.9
783.33	324.6
783.724	289.5
784.119	308.22
784.513	326.94
784.908	277.79
785.302	259.07
785.696	275.45
786.09	308.22
786.485	340.99
786.879	301.2
787.273	343.33
787.667	324.6
788.061	303.54
788.454	277.79
788.848	303.54
789.242	291.84
789.636	348.01
790.029	315.24
790.423	376.09
790.816	333.97
791.21	336.31
791.603	326.94
791.997	235.66
792.39	238
792.783	282.47
793.176	308.22
793.569	270.77
793.962	336.31
794.355	329.28
794.748	326.94
795.141	303.54
795.534	280.13
795.927	355.03
796.319	312.9
796.712	383.12
797.105	333.97
797.497	340.99
797.89	289.5
798.282	357.37
798.674	294.18
799.067	221.62
799.459	338.65
799.851	289.5
800.243	312.9
800.635	273.11
801.027	291.84
801.419	340.99
801.811	331.62
802.203	273.11
802.594	312.9
802.986	284.81
803.378	287.15
803.769	319.92
804.161	294.18
804.552	324.6
804.944	305.88
805.335	249.71
805.726	336.31
806.118	315.24
806.509	324.6
806.9	329.28
807.291	268.43
807.682	289.5
808.073	268.43
808.464	338.65
808.855	312.9
809.245	352.69
809.636	294.18
810.027	305.88
810.417	355.03
810.808	296.52
811.198	259.07
811.589	287.15
811.979	282.47
812.369	233.32
812.759	212.26
813.15	315.24
813.54	348.01
813.93	369.07
814.32	345.67
814.71	324.6
815.1	305.88
815.489	359.71
815.879	352.69
816.269	298.86
816.658	301.2
817.048	366.73
817.438	348.01
817.827	333.97
818.216	280.13
818.606	312.9
818.995	317.58
819.384	322.26
819.773	277.79
820.163	289.5
820.552	263.75
820.941	308.22
821.33	362.05
821.718	310.56
822.107	340.99
822.496	294.18
822.885	261.41
823.273	338.65
823.662	275.45
824.05	310.56
824.439	315.24
824.827	270.77
825.216	364.39
825.604	263.75
825.992	256.73
826.38	291.84
826.768	294.18
827.156	326.94
827.544	355.03
827.932	310.56
828.32	266.09
828.708	305.88
829.096	298.86
829.483	317.58
829.871	298.86
830.259	277.79
830.646	291.84
831.034	275.45
831.421	359.71
831.808	298.86
832.196	333.97
832.583	369.07
832.97	319.92
833.357	319.92
833.744	238
834.131	273.11
834.518	338.65
834.905	340.99
835.292	345.67
835.678	357.37
836.065	312.9
836.452	317.58
836.838	291.84
837.225	336.31
837.611	312.9
837.998	310.56
838.384	373.75
838.77	242.68
839.157	303.54
839.543	319.92
839.929	312.9
840.315	312.9
840.701	275.45
841.087	268.43
841.473	340.99
841.858	291.84
842.244	315.24
842.63	343.33
843.015	324.6
843.401	586.74
843.787	303.54
844.172	287.15
844.557	277.79
844.943	380.78
845.328	277.79
845.713	338.65
846.098	235.66
846.483	324.6
846.868	324.6
847.253	348.01
847.638	289.5
848.023	322.26
848.408	329.28
848.793	352.69
849.177	355.03
849.562	331.62
849.947	287.15
850.331	392.48
850.715	343.33
851.1	350.35
851.484	216.94
851.868	287.15
852.253	350.35
852.637	259.07
853.021	399.5
853.405	415.88
853.789	324.6
854.173	329.28
854.557	366.73
854.94	305.88
855.324	329.28
855.708	287.15
856.091	308.22
856.475	312.9
856.858	305.88
857.242	345.67
857.625	329.28
858.009	242.68
858.392	287.15
858.775	324.6
859.158	350.35
859.541	303.54
859.924	322.26
860.307	362.05
860.69	333.97
861.073	291.84
861.456	333.97
861.838	305.88
862.221	287.15
862.604	357.37
862.986	336.31
863.369	240.34
863.751	296.52
864.133	282.47
864.516	336.31
864.898	289.5
865.28	287.15
865.662	249.71
866.044	308.22
866.426	298.86
866.808	317.58
867.19	357.37
867.572	385.46
867.954	340.99
868.336	294.18
868.717	303.54
869.099	266.09
869.48	289.5
869.862	343.33
870.243	333.97
870.625	273.11
871.006	273.11
871.387	289.5
871.768	277.79
872.149	310.56
872.53	322.26
872.911	364.39
873.292	252.05
873.673	338.65
874.054	317.58
874.435	333.97
874.815	298.86
875.196	280.13
875.577	294.18
875.957	331.62
876.338	273.11
876.718	317.58
877.098	280.13
877.479	287.15
877.859	319.92
878.239	256.73
878.619	312.9
878.999	303.54
879.379	366.73
879.759	336.31
880.139	385.46
880.519	249.71
880.898	301.2
881.278	289.5
881.658	350.35
882.037	317.58
882.417	315.24
882.796	280.13
883.176	340.99
883.555	333.97
883.934	322.26
884.313	357.37
884.693	303.54
885.072	301.2
885.451	376.09
885.83	301.2
886.209	312.9
886.587	310.56
886.966	340.99
887.345	355.03
887.724	317.58
888.102	357.37
888.481	364.39
888.859	338.65
889.238	312.9
889.616	340.99
889.994	294.18
890.373	340.99
890.751	308.22
891.129	310.56
891.507	301.2
891.885	315.24
892.263	329.28
892.641	298.86
893.019	303.54
893.396	317.58
893.774	315.24
894.152	298.86
894.529	326.94
894.907	333.97
895.284	308.22
895.662	291.84
896.039	294.18
896.416	345.67
896.794	259.07
897.171	275.45
897.548	298.86
897.925	263.75
898.302	280.13
898.679	305.88
899.056	282.47
899.433	298.86
899.809	223.96
900.186	336.31
900.563	305.88
900.939	294.18
901.316	284.81
901.692	284.81
902.069	317.58
902.445	413.54
902.821	343.33
903.197	315.24
903.574	277.79
903.95	294.18
904.326	284.81
904.702	352.69
905.078	348.01
905.454	296.52
905.829	362.05
906.205	254.39
906.581	329.28
906.956	242.68
907.332	333.97
907.707	305.88
908.083	261.41
908.458	312.9
908.833	289.5
909.209	310.56
909.584	366.73
909.959	331.62
910.334	357.37
910.709	401.84
911.084	350.35
911.459	280.13
911.834	357.37
912.209	340.99
912.583	387.8
912.958	287.15
913.333	336.31
913.707	303.54
914.082	324.6
914.456	268.43
914.83	282.47
915.205	345.67
915.579	282.47
915.953	263.75
916.327	259.07
916.701	303.54
917.075	298.86
917.449	369.07
917.823	289.5
918.197	301.2
918.571	277.79
918.944	247.37
919.318	371.41
919.692	350.35
920.065	303.54
920.438	296.52
920.812	329.28
921.185	282.47
921.558	291.84
921.932	371.41
922.305	315.24
922.678	298.86
923.051	298.86
923.424	355.03
923.797	282.47
924.17	333.97
924.542	308.22
924.915	223.96
925.288	284.81
925.661	331.62
926.033	282.47
926.406	266.09
926.778	256.73
927.15	329.28
927.523	348.01
927.895	312.9
928.267	333.97
928.639	315.24
929.011	270.77
929.383	317.58
929.755	385.46
930.127	329.28
930.499	301.2
930.871	266.09
931.242	298.86
931.614	242.68
931.986	312.9
932.357	317.58
932.729	287.15
933.1	387.8
933.471	369.07
933.843	310.56
934.214	331.62
934.585	277.79
934.956	277.79
935.327	324.6
935.698	326.94
936.069	268.43
936.44	310.56
936.811	273.11
937.182	329.28
937.552	355.03
937.923	301.2
938.293	266.09
938.664	284.81
939.034	355.03
939.405	284.81
939.775	294.18
940.145	287.15
940.516	277.79
940.886	308.22
941.256	249.71
941.626	319.92
941.996	263.75
942.366	362.05
942.735	294.18
943.105	338.65
943.475	331.62
943.845	326.94
944.214	324.6
944.584	282.47
944.953	266.09
945.323	254.39
945.692	331.62
946.061	296.52
946.43	326.94
946.8	310.56
947.169	331.62
947.538	277.79
947.907	305.88
948.276	252.05
948.645	303.54
949.013	291.84
949.382	333.97
949.751	310.56
950.119	256.73
950.488	277.79
950.857	252.05
951.225	277.79
951.593	275.45
951.962	273.11
952.33	254.39
952.698	308.22
953.066	319.92
953.434	319.92
953.802	345.67
954.17	256.73
954.538	322.26
954.906	270.77
955.274	294.18
955.642	289.5
956.009	310.56
956.377	310.56
956.744	219.28
957.112	329.28
957.479	214.6
957.847	317.58
958.214	233.32
958.581	296.52
958.948	350.35
959.315	322.26
959.683	359.71
960.05	312.9
960.416	348.01
960.783	282.47
961.15	305.88
961.517	296.52
961.884	315.24
962.25	326.94
962.617	355.03
962.983	287.15
963.35	324.6
963.716	329.28
964.082	275.45
964.449	298.86
964.815	366.73
965.181	259.07
965.547	322.26
965.913	348.01
966.279	284.81
966.645	223.96
967.011	282.47
967.377	282.47
967.742	219.28
968.108	333.97
968.474	289.5
968.839	364.39
969.205	350.35
969.57	263.75
969.935	291.84
970.301	326.94
970.666	317.58
971.031	305.88
971.396	289.5
971.761	312.9
972.126	340.99
972.491	280.13
972.856	305.88
973.221	247.37
973.586	385.46
973.95	305.88
974.315	275.45
974.679	291.84
975.044	315.24
975.408	270.77
975.773	338.65
976.137	282.47
976.501	322.26
976.866	310.56
977.23	238
977.594	331.62
977.958	378.44
978.322	413.54
978.686	284.81
979.049	254.39
979.413	333.97
979.777	254.39
980.141	294.18
980.504	287.15
980.868	256.73
981.231	249.71
981.595	322.26
981.958	287.15
982.321	277.79
982.684	371.41
983.048	352.69
983.411	301.2
983.774	305.88
984.137	348.01
984.5	282.47
984.862	249.71
985.225	308.22
985.588	315.24
985.951	364.39
986.313	289.5
986.676	324.6
987.038	308.22
987.401	338.65
987.763	345.67
988.125	280.13
988.488	315.24
988.85	364.39
989.212	303.54
989.574	303.54
989.936	359.71
990.298	296.52
990.66	294.18
991.022	259.07
991.383	263.75
991.745	362.05
992.107	310.56
992.468	315.24
992.83	277.79
993.191	340.99
993.553	273.11
993.914	326.94
994.275	230.98
994.637	343.33
994.998	333.97
995.359	312.9
995.72	308.22
996.081	315.24
996.442	319.92
996.803	324.6
997.163	254.39
997.524	266.09
997.885	310.56
998.245	294.18
998.606	333.97
998.966	331.62
999.327	329.28
999.687	266.09
1000.047	319.92
1000.408	310.56
1000.768	296.52
1001.128	308.22
1001.488	310.56
1001.848	364.39
1002.208	238
1002.568	226.3
1002.927	308.22
1003.287	340.99
1003.647	298.86
1004.007	352.69
1004.366	345.67
1004.726	270.77
1005.085	301.2
1005.444	383.12
1005.804	226.3
1006.163	317.58
1006.522	322.26
1006.881	261.41
1007.24	326.94
1007.599	312.9
1007.958	308.22
1008.317	287.15
1008.676	294.18
1009.035	331.62
1009.393	296.52
1009.752	280.13
1010.111	235.66
1010.469	371.41
1010.828	343.33
1011.186	259.07
1011.544	322.26
1011.903	223.96
1012.261	310.56
1012.619	305.88
1012.977	301.2
1013.335	362.05
1013.693	312.9
1014.051	303.54
1014.409	385.46
1014.767	256.73
1015.124	268.43
1015.482	352.69
1015.84	268.43
1016.197	317.58
1016.555	315.24
1016.912	329.28
1017.269	371.41
1017.627	319.92
1017.984	317.58
1018.341	296.52
1018.698	252.05
1019.055	329.28
1019.412	294.18
1019.769	270.77
1020.126	282.47
1020.483	294.18
1020.84	238
1021.196	338.65
1021.553	312.9
1021.909	252.05
1022.266	282.47
1022.622	296.52
1022.979	322.26
1023.335	319.92
1023.691	340.99
1024.047	252.05
1024.404	268.43
1024.76	273.11
1025.116	308.22
1025.472	319.92
1025.827	359.71
1026.183	305.88
1026.539	303.54
1026.895	284.81
1027.25	312.9
1027.606	259.07
1027.961	315.24
1028.317	324.6
1028.672	329.28
1029.028	324.6
1029.383	315.24
1029.738	291.84
1030.093	296.52
1030.448	256.73
1030.803	319.92
1031.158	287.15
1031.513	303.54
1031.868	385.46
1032.223	329.28
1032.577	289.5
1032.932	305.88
1033.287	282.47
1033.641	392.48
1033.996	345.67
1034.35	280.13
1034.704	277.79
1035.059	294.18
1035.413	284.81
1035.767	284.81
1036.121	284.81
