Data from Al_FLMS009871__669__15-05-08-609.txt Node

Date: Fri Mar 08 15:05:08 CST 2024
User: pe5414po
Spectrometer: FLMS00987
Trigger mode: 0
Integration Time (sec): 1.000000E-1
Scans to average: 1
Electric dark correction enabled: true
Nonlinearity correction enabled: false
Boxcar width: 0
XAxis mode: Wavelengths
Number of Pixels in Spectrum: 2048
>>>>>Begin Spectral Data<<<<<
188.938	-91.13
189.409	-91.13
189.879	-91.13
190.349	-123.9
190.819	-81.77
191.29	-161.35
191.76	-91.13
192.23	-109.86
192.7	-93.48
193.17	-58.37
193.64	-88.79
194.109	-123.9
194.579	25.89
195.049	14.19
195.519	70.36
195.988	16.53
196.458	65.68
196.927	107.81
197.397	77.38
197.866	161.64
198.336	187.39
198.805	163.98
199.274	138.24
199.744	166.32
200.213	259.95
200.682	266.97
201.151	316.12
201.62	304.42
202.089	266.97
202.558	281.01
203.027	400.38
203.495	323.14
203.964	409.74
204.433	362.93
204.902	337.18
205.37	374.63
205.839	405.06
206.307	374.63
206.776	482.3
207.244	486.98
207.712	426.12
208.181	461.23
208.649	491.66
209.117	475.28
209.585	407.4
210.053	522.09
210.521	582.94
210.989	526.77
211.457	543.15
211.925	657.84
212.393	646.13
212.861	737.42
213.328	685.92
213.796	655.5
214.264	625.07
214.731	692.94
215.199	781.89
215.666	849.76
216.133	1062.75
216.601	1067.43
217.068	1128.28
217.535	1350.64
218.003	1540.22
218.47	1430.21
218.937	1474.68
219.404	1369.36
219.871	1561.28
220.338	1556.6
220.805	1615.12
221.271	1654.91
221.738	1617.46
222.205	1610.43
222.671	1790.66
223.138	2113.65
223.605	1994.28
224.071	1910.02
224.538	1872.57
225.004	1884.28
225.47	2027.05
225.937	2013.01
226.403	1942.79
226.869	1774.27
227.335	1603.41
227.801	1654.91
228.267	1708.74
228.733	1575.33
229.199	1739.16
229.665	1879.6
230.131	2125.35
230.597	2169.82
231.062	2094.93
231.528	2013.01
231.994	1727.46
232.459	1690.01
232.925	1830.45
233.39	1844.49
233.856	2050.46
234.321	2399.2
234.786	3152.85
235.252	4224.81
235.717	5247.63
236.182	5757.86
236.647	5006.55
237.112	3651.38
237.577	2502.18
238.042	2165.14
238.507	1891.3
238.972	1797.68
239.436	1816.4
239.901	1706.4
240.366	1612.78
240.83	1732.14
241.295	1694.69
241.76	1732.14
242.224	1846.83
242.688	1912.36
243.153	1942.79
243.617	1643.2
244.081	1802.36
244.545	1907.68
245.01	1982.58
245.474	2258.76
245.938	2076.2
246.402	1917.05
246.866	1933.43
247.33	1783.63
247.793	1771.93
248.257	1821.08
248.721	1872.57
249.185	1790.66
249.648	1837.47
250.112	1921.73
250.575	1940.45
251.039	1928.75
251.502	1865.55
251.965	2015.35
252.429	1996.62
252.892	2052.8
253.355	2045.77
253.818	2001.3
254.281	2141.74
254.744	2221.31
255.207	2548.99
255.67	3021.78
256.133	3754.37
256.596	4334.82
257.059	3939.27
257.522	3335.41
257.984	2916.45
258.447	2771.34
258.909	2747.94
259.372	2761.98
259.834	2628.57
260.297	2623.89
260.759	2715.17
261.221	2923.48
261.684	3473.5
262.146	4419.08
262.608	4402.69
263.07	3988.42
263.532	3358.82
263.994	3038.16
264.456	2897.73
264.918	2881.35
265.38	2897.73
265.842	2584.1
266.303	2417.92
266.765	2090.24
267.227	2031.73
267.688	2024.71
268.15	2017.69
268.611	1963.86
269.072	1917.05
269.534	2017.69
269.995	2001.3
270.456	1973.22
270.918	1938.11
271.379	1858.53
271.84	1884.28
272.301	1835.13
272.762	1910.02
273.223	1872.57
273.684	1879.6
274.144	1870.23
274.605	1989.6
275.066	1994.28
275.527	2031.73
275.987	2130.03
276.448	2467.07
276.908	2862.62
277.369	3660.74
277.829	5645.52
278.289	10183.82
278.75	14640.2
279.21	15705.14
279.67	12910.54
280.13	9493.36
280.59	7536.67
281.05	6839.19
281.51	5675.95
281.97	4170.98
282.43	2996.03
282.89	2392.17
283.35	2211.95
283.809	2263.44
284.269	2506.86
284.729	2476.43
285.188	2282.17
285.648	1982.58
286.107	1807.04
286.567	1811.72
287.026	1757.89
287.485	1727.46
287.944	1764.91
288.404	1760.23
288.863	1654.91
289.322	1652.56
289.781	1720.44
290.24	1729.8
290.699	1821.08
291.158	1924.07
291.616	2024.71
292.075	2223.66
292.534	2317.28
292.992	2619.21
293.451	2497.5
293.91	2319.62
294.368	2071.52
294.827	1907.68
295.285	1657.25
295.743	1601.07
296.202	1652.56
296.66	1528.52
297.118	1572.99
297.576	1549.58
298.034	1582.35
298.492	1608.09
298.95	1509.79
299.408	1638.52
299.866	1654.91
300.324	1563.62
300.781	1647.88
301.239	1678.31
301.697	1755.55
302.154	1713.42
302.612	1853.85
303.069	1980.24
303.527	1977.9
303.984	2249.4
304.441	2673.04
304.899	3239.45
305.356	3742.66
305.813	3784.79
306.27	3503.93
306.727	3775.43
307.184	4999.53
307.641	7003.03
308.098	8456.5
308.555	9565.92
309.012	8966.74
309.468	7199.63
309.925	4475.25
310.382	2792.41
310.838	2368.77
311.295	1980.24
311.751	1961.52
312.208	1891.3
312.664	1734.48
313.12	1601.07
313.577	1631.5
314.033	1612.78
314.489	1526.18
314.945	1575.33
315.401	1521.49
315.857	1561.28
316.313	1481.71
316.769	1474.68
317.225	1509.79
317.681	1434.89
318.136	1423.19
318.592	1392.77
319.048	1420.85
319.503	1491.07
319.959	1345.95
320.414	1465.32
320.869	1432.55
321.325	1343.61
321.78	1430.21
322.235	1357.66
322.691	1402.13
323.146	1455.96
323.601	1575.33
324.056	1788.32
324.511	1975.56
324.966	1872.57
325.421	1692.35
325.875	1467.66
326.33	1460.64
326.785	1750.87
327.24	1680.65
327.694	1694.69
328.149	1493.41
328.603	1324.89
329.058	1315.53
329.512	1247.65
329.966	1432.55
330.421	1453.62
330.875	1331.91
331.329	1425.53
331.783	1434.89
332.237	1441.92
332.691	1537.88
333.145	1622.14
333.599	1603.41
334.053	1673.63
334.507	1568.31
334.96	1631.5
335.414	1477.02
335.868	1514.47
336.321	1479.36
336.775	1430.21
337.228	1584.69
337.682	1432.55
338.135	1493.41
338.588	1357.66
339.042	1371.7
339.495	1430.21
339.948	1465.32
340.401	1411.49
340.854	1357.66
341.307	1453.62
341.76	1310.85
342.213	1406.81
342.666	1488.73
343.119	1526.18
343.571	1481.71
344.024	1493.41
344.477	1495.75
344.929	1516.81
345.382	1479.36
345.834	1397.45
346.287	1491.07
346.739	1554.26
347.191	1558.94
347.644	1582.35
348.096	1453.62
348.548	1519.15
349	1465.32
349.452	1547.24
349.904	1521.49
350.356	1584.69
350.808	1626.82
351.26	1570.65
351.711	1608.09
352.163	1640.86
352.615	1622.14
353.066	1816.4
353.518	1750.87
353.969	1867.89
354.421	1879.6
354.872	1977.9
355.324	2261.1
355.775	2354.73
356.226	2623.89
356.677	3061.57
357.128	3723.94
357.579	4805.27
358.03	6144.05
358.481	7141.12
358.932	6970.26
359.383	5757.86
359.834	4697.6
360.285	4248.22
360.735	3693.51
361.186	3344.77
361.637	3038.16
362.087	2644.95
362.538	2364.09
362.988	2123.01
363.438	2005.99
363.889	1870.23
364.339	1748.53
364.789	1612.78
365.239	1675.97
365.689	1556.6
366.139	1554.26
366.589	1577.67
367.039	1491.07
367.489	1582.35
367.939	1519.15
368.389	1460.64
368.839	1439.58
369.288	1528.52
369.738	1432.55
370.187	1481.71
370.637	1549.58
371.086	1549.58
371.536	1528.52
371.985	1610.43
372.434	1570.65
372.884	1640.86
373.333	1561.28
373.782	1556.6
374.231	1507.45
374.68	1498.09
375.129	1542.56
375.578	1484.05
376.027	1537.88
376.475	1324.89
376.924	1376.38
377.373	1488.73
377.822	1486.39
378.27	1397.45
378.719	1420.85
379.167	1348.29
379.616	1395.11
380.064	1409.15
380.512	1467.66
380.961	1558.94
381.409	1470
381.857	1615.12
382.305	1762.57
382.753	1844.49
383.201	1963.86
383.649	2092.59
384.097	2043.43
384.545	1673.63
384.992	1661.93
385.44	1596.39
385.888	1462.98
386.335	1481.71
386.783	1493.41
387.231	1481.71
387.678	1537.88
388.125	1519.15
388.573	1561.28
389.02	1448.94
389.467	1537.88
389.914	1481.71
390.362	1617.46
390.809	1671.29
391.256	1615.12
391.703	1622.14
392.15	1692.35
392.596	1769.59
393.043	1940.45
393.49	2394.51
393.937	3625.64
394.383	5336.57
394.83	6497.47
395.276	5549.56
395.723	5809.36
396.169	7637.31
396.616	8192.02
397.062	5608.07
397.508	3286.26
397.954	2338.34
398.401	1933.43
398.847	1886.62
399.293	2031.73
399.739	1961.52
400.185	1844.49
400.631	1682.99
401.076	1598.73
401.522	1690.01
401.968	1725.12
402.414	1718.1
402.859	1760.23
403.305	1797.68
403.75	1697.03
404.196	1650.22
404.641	1636.18
405.086	1633.84
405.532	1558.94
405.977	1664.27
406.422	1523.84
406.867	1652.56
407.312	1673.63
407.757	1711.08
408.202	1671.29
408.647	1596.39
409.092	1645.54
409.537	1619.8
409.982	1746.19
410.426	1505.11
410.871	1631.5
411.316	1624.48
411.76	1558.94
412.205	1519.15
412.649	1521.49
413.093	1416.17
413.538	1495.75
413.982	1528.52
414.426	1495.75
414.87	1514.47
415.314	1617.46
415.758	1516.81
416.202	1519.15
416.646	1460.64
417.09	1572.99
417.534	1470
417.978	1470
418.421	1528.52
418.865	1535.54
419.309	1455.96
419.752	1451.28
420.196	1544.9
420.639	1509.79
421.083	1470
421.526	1472.34
421.969	1441.92
422.412	1507.45
422.856	1448.94
423.299	1465.32
423.742	1551.92
424.185	1568.31
424.628	1516.81
425.071	1521.49
425.513	1467.66
425.956	1343.61
426.399	1355.32
426.842	1423.19
427.284	1425.53
427.727	1320.21
428.169	1378.72
428.612	1282.76
429.054	1352.98
429.497	1294.46
429.939	1348.29
430.381	1308.51
430.823	1273.4
431.265	1275.74
431.707	1285.1
432.149	1367.02
432.591	1381.06
433.033	1352.98
433.475	1289.78
433.917	1378.72
434.359	1324.89
434.8	1416.17
435.242	1500.43
435.684	1409.15
436.125	1397.45
436.567	1336.59
437.008	1317.87
437.449	1317.87
437.891	1313.19
438.332	1228.93
438.773	1352.98
439.214	1357.66
439.656	1357.66
440.097	1378.72
440.538	1303.82
440.978	1397.45
441.419	1343.61
441.86	1544.9
442.301	1551.92
442.742	1486.39
443.182	1448.94
443.623	1514.47
444.063	1470
444.504	1549.58
444.944	1638.52
445.385	1769.59
445.825	1732.14
446.265	1624.48
446.706	1668.95
447.146	1746.19
447.586	1652.56
448.026	1811.72
448.466	1771.93
448.906	1790.66
449.346	1753.21
449.786	1692.35
450.225	1528.52
450.665	1678.31
451.105	1664.27
451.544	1828.1
451.984	1755.55
452.424	1781.29
452.863	1870.23
453.302	1872.57
453.742	1804.7
454.181	1884.28
454.62	1823.42
455.059	1704.06
455.499	1652.56
455.938	1549.58
456.377	1500.43
456.816	1437.24
457.254	1526.18
457.693	1495.75
458.132	1542.56
458.571	1402.13
459.01	1448.94
459.448	1484.05
459.887	1413.83
460.325	1423.19
460.764	1470
461.202	1413.83
461.641	1486.39
462.079	1502.77
462.517	1596.39
462.955	1587.03
463.393	1568.31
463.832	1615.12
464.27	1608.09
464.708	1551.92
465.145	1664.27
465.583	1678.31
466.021	1846.83
466.459	1891.3
466.897	2036.41
467.334	2111.31
467.772	1874.92
468.209	1795.34
468.647	1638.52
469.084	1547.24
469.522	1439.58
469.959	1430.21
470.396	1437.24
470.833	1432.55
471.271	1327.23
471.708	1512.13
472.145	1409.15
472.582	1406.81
473.019	1357.66
473.456	1413.83
473.892	1350.64
474.329	1369.36
474.766	1397.45
475.202	1315.53
475.639	1381.06
476.076	1317.87
476.512	1411.49
476.949	1430.21
477.385	1360
477.821	1406.81
478.258	1493.41
478.694	1376.38
479.13	1488.73
479.566	1486.39
480.002	1570.65
480.438	1467.66
480.874	1488.73
481.31	1460.64
481.746	1512.13
482.181	1427.87
482.617	1502.77
483.053	1484.05
483.488	1404.47
483.924	1453.62
484.36	1434.89
484.795	1439.58
485.23	1495.75
485.666	1446.6
486.101	1406.81
486.536	1575.33
486.971	1521.49
487.407	1540.22
487.842	1537.88
488.277	1491.07
488.712	1472.34
489.146	1491.07
489.581	1486.39
490.016	1467.66
490.451	1533.2
490.885	1542.56
491.32	1434.89
491.755	1446.6
492.189	1446.6
492.624	1423.19
493.058	1455.96
493.492	1589.37
493.927	1495.75
494.361	1514.47
494.795	1465.32
495.229	1495.75
495.663	1530.86
496.097	1521.49
496.531	1507.45
496.965	1514.47
497.399	1507.45
497.833	1505.11
498.266	1720.44
498.7	1713.42
499.134	1867.89
499.567	1802.36
500.001	2055.14
500.434	2247.06
500.868	2392.17
501.301	2352.38
501.734	2361.75
502.168	2193.23
502.601	1900.66
503.034	1809.38
503.467	1711.08
503.9	1678.31
504.333	1631.5
504.766	1797.68
505.199	1977.9
505.632	1910.02
506.064	1982.58
506.497	1734.48
506.93	1746.19
507.362	1888.96
507.795	1778.95
508.227	1535.54
508.66	1519.15
509.092	1547.24
509.524	1465.32
509.956	1465.32
510.389	1544.9
510.821	1561.28
511.253	1509.79
511.685	1448.94
512.117	1528.52
512.549	1441.92
512.981	1474.68
513.412	1547.24
513.844	1554.26
514.276	1458.3
514.707	1629.16
515.139	1650.22
515.571	1608.09
516.002	1741.5
516.433	1727.46
516.865	1760.23
517.296	1846.83
517.727	1886.62
518.159	2027.05
518.59	2099.61
519.021	2036.41
519.452	2029.39
519.883	2090.24
520.314	1912.36
520.744	1757.89
521.175	1917.05
521.606	1849.17
522.037	1996.62
522.467	2108.97
522.898	2069.18
523.328	2003.64
523.759	2090.24
524.189	2108.97
524.62	2296.21
525.05	2218.97
525.48	2509.2
525.91	2609.84
526.341	2731.55
526.771	2904.75
527.201	3323.71
527.631	3553.08
528.061	4035.23
528.49	4634.41
528.92	5554.24
529.35	7620.93
529.78	15567.05
530.209	62511.17
530.639	63049.5
531.068	63049.5
531.498	63049.5
531.927	63049.5
532.357	63049.5
532.786	63049.5
533.215	63049.5
533.644	63049.5
534.074	63049.5
534.503	39791.59
534.932	18183.77
535.361	10424.89
535.79	7487.52
536.218	5938.09
536.647	5015.91
537.076	4196.73
537.505	3672.45
537.933	3183.27
538.362	2740.91
538.79	2396.85
539.219	2169.82
539.647	1893.64
540.076	1811.72
540.504	1666.61
540.932	1577.67
541.36	1629.16
541.788	1678.31
542.217	1505.11
542.645	1596.39
543.073	1448.94
543.5	1488.73
543.928	1491.07
544.356	1498.09
544.784	1420.85
545.211	1437.24
545.639	1423.19
546.067	1378.72
546.494	1287.44
546.922	1254.67
547.349	1299.14
547.776	1249.99
548.204	1360
548.631	1374.04
549.058	1259.35
549.485	1268.72
549.912	1327.23
550.339	1186.8
550.766	1221.91
551.193	1238.29
551.62	1266.38
552.047	1128.28
552.474	1259.35
552.9	1233.61
553.327	1168.07
553.754	1317.87
554.18	1168.07
554.607	1252.33
555.033	1245.31
555.459	1175.1
555.886	1226.59
556.312	1189.14
556.738	1278.08
557.164	1207.86
557.59	1266.38
558.016	1226.59
558.442	1142.33
558.868	1186.8
559.294	1235.95
559.72	1247.65
560.145	1329.57
560.571	1334.25
560.997	1334.25
561.422	1235.95
561.848	1196.16
562.273	1212.54
562.699	1163.39
563.124	1266.38
563.549	1226.59
563.974	1170.41
564.4	1233.61
564.825	1294.46
565.25	1364.68
565.675	1395.11
566.1	1329.57
566.525	1395.11
566.95	1425.53
567.374	1465.32
567.799	1498.09
568.224	1615.12
568.648	1629.16
569.073	1640.86
569.497	1561.28
569.922	1493.41
570.346	1580.01
570.771	1629.16
571.195	1453.62
571.619	1441.92
572.043	1481.71
572.467	1268.72
572.891	1352.98
573.315	1341.27
573.739	1184.46
574.163	1135.31
574.587	1168.07
575.011	1083.81
575.435	1032.32
575.858	1065.09
576.282	1004.24
576.705	959.77
577.129	992.53
577.552	896.57
577.976	884.87
578.399	1013.6
578.822	910.61
579.245	903.59
579.669	1025.3
580.092	915.3
580.515	971.47
580.938	774.86
581.361	891.89
581.784	905.93
582.206	912.96
582.629	795.93
583.052	898.91
583.474	924.66
583.897	866.14
584.32	863.8
584.742	908.27
585.165	814.65
585.587	819.33
586.009	812.31
586.431	934.02
586.854	875.51
587.276	936.36
587.698	854.44
588.12	856.78
588.542	889.55
588.964	793.59
589.386	809.97
589.807	816.99
590.229	779.54
590.651	903.59
591.073	786.57
591.494	788.91
591.916	816.99
592.337	952.74
592.759	863.8
593.18	819.33
593.601	882.53
594.022	868.49
594.444	903.59
594.865	915.3
595.286	896.57
595.707	952.74
596.128	870.83
596.549	934.02
596.97	791.25
597.39	842.74
597.811	795.93
598.232	894.23
598.652	814.65
599.073	807.63
599.494	819.33
599.914	814.65
600.334	807.63
600.755	795.93
601.175	821.67
601.595	746.78
602.015	805.29
602.436	802.95
602.856	959.77
603.276	809.97
603.696	805.29
604.115	744.44
604.535	805.29
604.955	760.82
605.375	840.4
605.794	758.48
606.214	826.36
606.634	777.2
607.053	831.04
607.473	795.93
607.892	805.29
608.311	807.63
608.731	852.1
609.15	795.93
609.569	795.93
609.988	903.59
610.407	877.85
610.826	856.78
611.245	777.2
611.664	842.74
612.083	807.63
612.501	912.96
612.92	793.59
613.339	833.38
613.757	875.51
614.176	873.17
614.594	770.18
615.013	795.93
615.431	814.65
615.85	774.86
616.268	877.85
616.686	788.91
617.104	795.93
617.522	884.87
617.94	880.19
618.358	833.38
618.776	816.99
619.194	847.42
619.612	905.93
620.03	819.33
620.447	847.42
620.865	896.57
621.282	849.76
621.7	903.59
622.117	905.93
622.535	985.51
622.952	1001.9
623.369	1006.58
623.787	1013.6
624.204	1147.01
624.621	1116.58
625.038	1203.18
625.455	1327.23
625.872	1257.01
626.289	1233.61
626.706	1172.75
627.123	1172.75
627.539	1142.33
627.956	1037
628.373	1006.58
628.789	980.83
629.206	877.85
629.622	786.57
630.038	880.19
630.455	854.44
630.871	786.57
631.287	908.27
631.703	838.06
632.12	800.61
632.536	723.37
632.952	767.84
633.368	753.8
633.783	793.59
634.199	784.23
634.615	760.82
635.031	730.39
635.446	723.37
635.862	706.99
636.277	692.94
636.693	746.78
637.108	725.71
637.524	671.88
637.939	662.52
638.354	664.86
638.77	706.99
639.185	718.69
639.6	688.26
640.015	646.13
640.43	664.86
640.845	662.52
641.259	622.73
641.674	601.66
642.089	632.09
642.504	674.22
642.918	613.37
643.333	568.9
643.747	662.52
644.162	615.71
644.576	622.73
644.991	606.35
645.405	636.77
645.819	669.54
646.233	683.58
646.647	728.05
647.061	608.69
647.475	641.45
647.889	582.94
648.303	627.41
648.717	604
649.131	650.82
649.545	653.16
649.958	648.47
650.372	632.09
650.785	601.66
651.199	629.75
651.612	622.73
652.026	653.16
652.439	564.22
652.852	671.88
653.266	611.03
653.679	554.85
654.092	636.77
654.505	587.62
654.918	608.69
655.331	653.16
655.744	596.98
656.156	650.82
656.569	697.63
656.982	688.26
657.394	618.05
657.807	683.58
658.22	559.53
658.632	671.88
659.044	662.52
659.457	627.41
659.869	660.18
660.281	655.5
660.693	571.24
661.106	585.28
661.518	618.05
661.93	564.22
662.342	706.99
662.754	561.87
663.165	578.26
663.577	594.64
663.989	554.85
664.401	550.17
664.812	599.32
665.224	538.47
665.635	573.58
666.047	554.85
666.458	594.64
666.869	613.37
667.281	601.66
667.692	559.53
668.103	625.07
668.514	559.53
668.925	470.59
669.336	550.17
669.747	627.41
670.158	561.87
670.569	646.13
670.979	573.58
671.39	571.24
671.801	580.6
672.211	575.92
672.622	627.41
673.032	564.22
673.443	533.79
673.853	529.11
674.263	559.53
674.674	538.47
675.084	498.68
675.494	580.6
675.904	540.81
676.314	496.34
676.724	498.68
677.134	498.68
677.544	510.38
677.953	501.02
678.363	449.53
678.773	550.17
679.182	479.96
679.592	503.36
680.001	498.68
680.411	533.79
680.82	486.98
681.23	494
681.639	543.15
682.048	545.49
682.457	529.11
682.866	622.73
683.275	491.66
683.684	529.11
684.093	540.81
684.502	596.98
684.911	470.59
685.32	517.4
685.728	498.68
686.137	547.83
686.546	557.19
686.954	503.36
687.363	461.23
687.771	536.13
688.179	447.19
688.588	494
688.996	501.02
689.404	489.32
689.812	475.28
690.22	463.57
690.628	515.06
691.036	508.04
691.444	470.59
691.852	501.02
692.26	540.81
692.667	580.6
693.075	498.68
693.483	508.04
693.89	503.36
694.298	472.93
694.705	472.93
695.112	503.36
695.52	494
695.927	472.93
696.334	494
696.741	503.36
697.148	515.06
697.555	538.47
697.962	522.09
698.369	491.66
698.776	468.25
699.183	515.06
699.59	564.22
699.996	538.47
700.403	550.17
700.81	463.57
701.216	575.92
701.623	536.13
702.029	522.09
702.435	632.09
702.842	606.35
703.248	596.98
703.654	643.79
704.06	711.67
704.466	760.82
704.872	814.65
705.278	749.12
705.684	739.76
706.09	716.35
706.496	685.92
706.901	655.5
707.307	519.75
707.712	557.19
708.118	531.45
708.523	512.72
708.929	547.83
709.334	494
709.74	512.72
710.145	440.17
710.55	435.49
710.955	414.42
711.36	458.89
711.765	426.12
712.17	458.89
712.575	470.59
712.98	1008.92
713.385	444.85
713.789	456.55
714.194	496.34
714.599	433.15
715.003	463.57
715.408	414.42
715.812	477.62
716.217	468.25
716.621	428.46
717.025	437.83
717.429	405.06
717.833	421.44
718.238	374.63
718.642	486.98
719.046	435.49
719.449	386.33
719.853	416.76
720.257	468.25
720.661	374.63
721.065	395.7
721.468	442.51
721.872	423.78
722.275	416.76
722.679	398.04
723.082	409.74
723.485	465.91
723.889	433.15
724.292	451.87
724.695	423.78
725.098	435.49
725.501	444.85
725.904	447.19
726.307	461.23
726.71	391.02
727.113	381.65
727.516	395.7
727.918	388.68
728.321	395.7
728.724	463.57
729.126	351.23
729.529	433.15
729.931	400.38
730.333	330.16
730.736	386.33
731.138	362.93
731.54	465.91
731.942	407.4
732.344	395.7
732.746	409.74
733.148	398.04
733.55	416.76
733.952	409.74
734.354	447.19
734.756	407.4
735.157	344.21
735.559	386.33
735.96	365.27
736.362	412.08
736.763	311.44
737.165	398.04
737.566	372.29
737.967	365.27
738.368	477.62
738.77	358.25
739.171	391.02
739.572	365.27
739.973	440.17
740.374	369.95
740.774	419.1
741.175	379.31
741.576	449.53
741.977	440.17
742.377	391.02
742.778	421.44
743.178	405.06
743.579	449.53
743.979	430.8
744.379	463.57
744.78	435.49
745.18	437.83
745.58	430.8
745.98	454.21
746.38	409.74
746.78	405.06
747.18	454.21
747.58	491.66
747.98	447.19
748.38	486.98
748.779	479.96
749.179	414.42
749.578	437.83
749.978	435.49
750.377	379.31
750.777	409.74
751.176	386.33
751.575	440.17
751.975	442.51
752.374	419.1
752.773	421.44
753.172	381.65
753.571	388.68
753.97	400.38
754.369	407.4
754.768	346.55
755.166	346.55
755.565	339.52
755.964	337.18
756.362	376.97
756.761	332.5
757.159	416.76
757.558	391.02
757.956	416.76
758.354	353.57
758.753	400.38
759.151	381.65
759.549	421.44
759.947	419.1
760.345	341.86
760.743	332.5
761.141	323.14
761.539	393.36
761.936	416.76
762.334	339.52
762.732	362.93
763.129	348.89
763.527	304.42
763.924	325.48
764.322	334.84
764.719	412.08
765.117	358.25
765.514	353.57
765.911	369.95
766.308	323.14
766.705	402.72
767.102	330.16
767.499	346.55
767.896	348.89
768.293	372.29
768.69	355.91
769.086	273.99
769.483	369.95
769.88	376.97
770.276	323.14
770.673	383.99
771.069	325.48
771.466	353.57
771.862	353.57
772.258	334.84
772.654	346.55
773.05	360.59
773.447	360.59
773.843	416.76
774.239	393.36
774.634	407.4
775.03	381.65
775.426	362.93
775.822	419.1
776.218	360.59
776.613	386.33
777.009	491.66
777.404	505.7
777.8	412.08
778.195	433.15
778.59	339.52
778.986	344.21
779.381	407.4
779.776	379.31
780.171	386.33
780.566	325.48
780.961	346.55
781.356	306.76
781.751	292.71
782.146	311.44
782.54	323.14
782.935	369.95
783.33	383.99
783.724	461.23
784.119	306.76
784.513	367.61
784.908	414.42
785.302	313.78
785.696	376.97
786.09	379.31
786.485	367.61
786.879	391.02
787.273	348.89
787.667	362.93
788.061	353.57
788.454	400.38
788.848	332.5
789.242	367.61
789.636	351.23
790.029	295.05
790.423	323.14
790.816	311.44
791.21	330.16
791.603	362.93
791.997	320.8
792.39	400.38
792.783	292.71
793.176	367.61
793.569	355.91
793.962	386.33
794.355	365.27
794.748	372.29
795.141	353.57
795.534	304.42
795.927	344.21
796.319	388.68
796.712	337.18
797.105	351.23
797.497	311.44
797.89	360.59
798.282	414.42
798.674	346.55
799.067	334.84
799.459	362.93
799.851	437.83
800.243	302.08
800.635	355.91
801.027	332.5
801.419	369.95
801.811	271.65
802.203	241.22
802.594	365.27
802.986	339.52
803.378	306.76
803.769	295.05
804.161	398.04
804.552	327.82
804.944	376.97
805.335	332.5
805.726	311.44
806.118	344.21
806.509	341.86
806.9	334.84
807.291	367.61
807.682	311.44
808.073	295.05
808.464	428.46
808.855	341.86
809.245	288.03
809.636	283.35
810.027	288.03
810.417	290.37
810.808	367.61
811.198	388.68
811.589	348.89
811.979	327.82
812.369	379.31
812.759	325.48
813.15	306.76
813.54	372.29
813.93	346.55
814.32	283.35
814.71	285.69
815.1	262.29
815.489	313.78
815.879	304.42
816.269	325.48
816.658	367.61
817.048	360.59
817.438	306.76
817.827	330.16
818.216	323.14
818.606	320.8
818.995	372.29
819.384	346.55
819.773	283.35
820.163	386.33
820.552	358.25
820.941	327.82
821.33	369.95
821.718	362.93
822.107	339.52
822.496	372.29
822.885	323.14
823.273	339.52
823.662	383.99
824.05	362.93
824.439	383.99
824.827	391.02
825.216	316.12
825.604	318.46
825.992	290.37
826.38	383.99
826.768	346.55
827.156	332.5
827.544	323.14
827.932	285.69
828.32	355.91
828.708	369.95
829.096	292.71
829.483	358.25
829.871	334.84
830.259	313.78
830.646	320.8
831.034	339.52
831.421	320.8
831.808	337.18
832.196	278.67
832.583	367.61
832.97	292.71
833.357	297.39
833.744	346.55
834.131	346.55
834.518	316.12
834.905	306.76
835.292	309.1
835.678	313.78
836.065	285.69
836.452	304.42
836.838	351.23
837.225	346.55
837.611	259.95
837.998	339.52
838.384	376.97
838.77	344.21
839.157	290.37
839.543	332.5
839.929	297.39
840.315	348.89
840.701	295.05
841.087	346.55
841.473	348.89
841.858	355.91
842.244	302.08
842.63	330.16
843.015	318.46
843.401	653.16
843.787	290.37
844.172	339.52
844.557	292.71
844.943	313.78
845.328	262.29
845.713	304.42
846.098	311.44
846.483	334.84
846.868	311.44
847.253	337.18
847.638	302.08
848.023	344.21
848.408	318.46
848.793	320.8
849.177	309.1
849.562	334.84
849.947	355.91
850.331	341.86
850.715	367.61
851.1	346.55
851.484	365.27
851.868	332.5
852.253	292.71
852.637	302.08
853.021	295.05
853.405	341.86
853.789	348.89
854.173	362.93
854.557	288.03
854.94	316.12
855.324	353.57
855.708	358.25
856.091	266.97
856.475	313.78
856.858	346.55
857.242	262.29
857.625	344.21
858.009	325.48
858.392	292.71
858.775	323.14
859.158	295.05
859.541	318.46
859.924	295.05
860.307	344.21
860.69	348.89
861.073	330.16
861.456	309.1
861.838	269.31
862.221	327.82
862.604	311.44
862.986	358.25
863.369	351.23
863.751	374.63
864.133	313.78
864.516	320.8
864.898	358.25
865.28	348.89
865.662	341.86
866.044	330.16
866.426	344.21
866.808	311.44
867.19	339.52
867.572	339.52
867.954	339.52
868.336	318.46
868.717	339.52
869.099	320.8
869.48	334.84
869.862	353.57
870.243	313.78
870.625	330.16
871.006	283.35
871.387	369.95
871.768	285.69
872.149	339.52
872.53	297.39
872.911	269.31
873.292	330.16
873.673	362.93
874.054	372.29
874.435	337.18
874.815	276.33
875.196	344.21
875.577	262.29
875.957	369.95
876.338	327.82
876.718	311.44
877.098	309.1
877.479	346.55
877.859	316.12
878.239	360.59
878.619	278.67
878.999	323.14
879.379	295.05
879.759	281.01
880.139	288.03
880.519	355.91
880.898	330.16
881.278	358.25
881.658	281.01
882.037	337.18
882.417	365.27
882.796	320.8
883.176	320.8
883.555	252.92
883.934	346.55
884.313	318.46
884.693	316.12
885.072	320.8
885.451	276.33
885.83	309.1
886.209	341.86
886.587	304.42
886.966	334.84
887.345	292.71
887.724	355.91
888.102	353.57
888.481	255.26
888.859	276.33
889.238	358.25
889.616	313.78
889.994	271.65
890.373	302.08
890.751	302.08
891.129	376.97
891.507	358.25
891.885	299.73
892.263	320.8
892.641	292.71
893.019	334.84
893.396	302.08
893.774	323.14
894.152	381.65
894.529	362.93
894.907	327.82
895.284	297.39
895.662	381.65
896.039	257.61
896.416	299.73
896.794	318.46
897.171	313.78
897.548	276.33
897.925	259.95
898.302	313.78
898.679	337.18
899.056	353.57
899.433	320.8
899.809	318.46
900.186	283.35
900.563	271.65
900.939	290.37
901.316	316.12
901.692	365.27
902.069	334.84
902.445	355.91
902.821	285.69
903.197	351.23
903.574	374.63
903.95	299.73
904.326	313.78
904.702	325.48
905.078	241.22
905.454	374.63
905.829	341.86
906.205	297.39
906.581	290.37
906.956	285.69
907.332	309.1
907.707	306.76
908.083	299.73
908.458	332.5
908.833	320.8
909.209	318.46
909.584	257.61
909.959	281.01
910.334	288.03
910.709	250.58
911.084	323.14
911.459	320.8
911.834	309.1
912.209	313.78
912.583	290.37
912.958	316.12
913.333	344.21
913.707	248.24
914.082	311.44
914.456	290.37
914.83	327.82
915.205	290.37
915.579	278.67
915.953	306.76
916.327	351.23
916.701	295.05
917.075	266.97
917.449	374.63
917.823	318.46
918.197	311.44
918.571	278.67
918.944	302.08
919.318	323.14
919.692	313.78
920.065	334.84
920.438	290.37
920.812	302.08
921.185	353.57
921.558	348.89
921.932	313.78
922.305	369.95
922.678	344.21
923.051	304.42
923.424	348.89
923.797	344.21
924.17	409.74
924.542	266.97
924.915	311.44
925.288	339.52
925.661	313.78
926.033	341.86
926.406	250.58
926.778	344.21
927.15	348.89
927.523	250.58
927.895	283.35
928.267	332.5
928.639	276.33
929.011	353.57
929.383	383.99
929.755	283.35
930.127	269.31
930.499	302.08
930.871	238.88
931.242	309.1
931.614	344.21
931.986	290.37
932.357	320.8
932.729	325.48
933.1	304.42
933.471	388.68
933.843	337.18
934.214	325.48
934.585	332.5
934.956	320.8
935.327	316.12
935.698	383.99
936.069	313.78
936.44	306.76
936.811	302.08
937.182	341.86
937.552	323.14
937.923	259.95
938.293	309.1
938.664	283.35
939.034	306.76
939.405	362.93
939.775	332.5
940.145	266.97
940.516	348.89
940.886	252.92
941.256	276.33
941.626	362.93
941.996	306.76
942.366	358.25
942.735	355.91
943.105	330.16
943.475	355.91
943.845	285.69
944.214	344.21
944.584	262.29
944.953	273.99
945.323	290.37
945.692	283.35
946.061	332.5
946.43	332.5
946.8	334.84
947.169	290.37
947.538	334.84
947.907	231.86
948.276	320.8
948.645	323.14
949.013	304.42
949.382	318.46
949.751	313.78
950.119	334.84
950.488	250.58
950.857	297.39
951.225	323.14
951.593	302.08
951.962	332.5
952.33	323.14
952.698	299.73
953.066	306.76
953.434	334.84
953.802	273.99
954.17	316.12
954.538	313.78
954.906	313.78
955.274	369.95
955.642	386.33
956.009	337.18
956.377	339.52
956.744	292.71
957.112	395.7
957.479	320.8
957.847	281.01
958.214	320.8
958.581	334.84
958.948	302.08
959.315	358.25
959.683	332.5
960.05	348.89
960.416	271.65
960.783	311.44
961.15	339.52
961.517	367.61
961.884	330.16
962.25	327.82
962.617	292.71
962.983	362.93
963.35	320.8
963.716	306.76
964.082	238.88
964.449	269.31
964.815	271.65
965.181	273.99
965.547	393.36
965.913	330.16
966.279	281.01
966.645	313.78
967.011	320.8
967.377	346.55
967.742	311.44
968.108	327.82
968.474	358.25
968.839	334.84
969.205	327.82
969.57	292.71
969.935	290.37
970.301	255.26
970.666	327.82
971.031	360.59
971.396	302.08
971.761	304.42
972.126	330.16
972.491	248.24
972.856	231.86
973.221	297.39
973.586	400.38
973.95	273.99
974.315	358.25
974.679	313.78
975.044	290.37
975.408	281.01
975.773	334.84
976.137	367.61
976.501	236.54
976.866	276.33
977.23	374.63
977.594	281.01
977.958	288.03
978.322	339.52
978.686	320.8
979.049	313.78
979.413	309.1
979.777	351.23
980.141	325.48
980.504	344.21
980.868	302.08
981.231	276.33
981.595	358.25
981.958	276.33
982.321	276.33
982.684	330.16
983.048	302.08
983.411	273.99
983.774	339.52
984.137	283.35
984.5	330.16
984.862	302.08
985.225	320.8
985.588	320.8
985.951	245.9
986.313	376.97
986.676	283.35
987.038	283.35
987.401	311.44
987.763	297.39
988.125	320.8
988.488	288.03
988.85	325.48
989.212	292.71
989.574	266.97
989.936	288.03
990.298	290.37
990.66	309.1
991.022	344.21
991.383	269.31
991.745	374.63
992.107	355.91
992.468	262.29
992.83	318.46
993.191	374.63
993.553	337.18
993.914	346.55
994.275	243.56
994.637	327.82
994.998	299.73
995.359	346.55
995.72	276.33
996.081	327.82
996.442	257.61
996.803	299.73
997.163	309.1
997.524	245.9
997.885	309.1
998.245	283.35
998.606	341.86
998.966	281.01
999.327	250.58
999.687	309.1
1000.047	306.76
1000.408	362.93
1000.768	327.82
1001.128	318.46
1001.488	365.27
1001.848	327.82
1002.208	271.65
1002.568	355.91
1002.927	327.82
1003.287	327.82
1003.647	341.86
1004.007	309.1
1004.366	341.86
1004.726	351.23
1005.085	337.18
1005.444	353.57
1005.804	355.91
1006.163	311.44
1006.522	250.58
1006.881	299.73
1007.24	369.95
1007.599	276.33
1007.958	306.76
1008.317	299.73
1008.676	299.73
1009.035	334.84
1009.393	316.12
1009.752	299.73
1010.111	337.18
1010.469	337.18
1010.828	299.73
1011.186	271.65
1011.544	351.23
1011.903	327.82
1012.261	276.33
1012.619	337.18
1012.977	299.73
1013.335	283.35
1013.693	323.14
1014.051	227.18
1014.409	355.91
1014.767	243.56
1015.124	306.76
1015.482	311.44
1015.84	297.39
1016.197	323.14
1016.555	341.86
1016.912	262.29
1017.269	325.48
1017.627	290.37
1017.984	325.48
1018.341	325.48
1018.698	262.29
1019.055	281.01
1019.412	276.33
1019.769	374.63
1020.126	304.42
1020.483	295.05
1020.84	337.18
1021.196	334.84
1021.553	351.23
1021.909	348.89
1022.266	330.16
1022.622	323.14
1022.979	341.86
1023.335	348.89
1023.691	316.12
1024.047	311.44
1024.404	306.76
1024.76	306.76
1025.116	320.8
1025.472	248.24
1025.827	259.95
1026.183	318.46
1026.539	299.73
1026.895	297.39
1027.25	292.71
1027.606	309.1
1027.961	369.95
1028.317	318.46
1028.672	318.46
1029.028	367.61
1029.383	327.82
1029.738	283.35
1030.093	341.86
1030.448	327.82
1030.803	334.84
1031.158	327.82
1031.513	330.16
1031.868	353.57
1032.223	266.97
1032.577	318.46
1032.932	337.18
1033.287	330.16
1033.641	318.46
1033.996	264.63
1034.35	313.78
1034.704	309.1
1035.059	217.82
1035.413	337.18
1035.767	337.18
1036.121	337.18
