Data from Al_FLMS009871__666__15-05-08-309.txt Node

Date: Fri Mar 08 15:05:08 CST 2024
User: pe5414po
Spectrometer: FLMS00987
Trigger mode: 0
Integration Time (sec): 1.000000E-1
Scans to average: 1
Electric dark correction enabled: true
Nonlinearity correction enabled: false
Boxcar width: 0
XAxis mode: Wavelengths
Number of Pixels in Spectrum: 2048
>>>>>Begin Spectral Data<<<<<
188.938	-126.68
189.409	-126.68
189.879	-126.68
190.349	-131.36
190.819	-161.79
191.29	-119.66
191.76	-84.55
192.23	-86.89
192.7	-65.83
193.17	-26.04
193.64	-19.02
194.109	-9.65
194.579	-44.76
195.049	-4.97
195.519	18.43
195.988	32.47
196.458	18.43
196.927	107.37
197.397	95.67
197.866	79.29
198.336	109.71
198.805	158.86
199.274	217.38
199.744	200.99
200.213	250.14
200.682	198.65
201.151	205.67
201.62	224.4
202.089	175.25
202.558	296.96
203.027	229.08
203.495	210.36
203.964	224.4
204.433	381.21
204.902	259.51
205.37	311
205.839	296.96
206.307	299.3
206.776	292.27
207.244	311
207.712	280.57
208.181	301.64
208.649	303.98
209.117	303.98
209.585	243.12
210.053	285.25
210.521	308.66
210.989	278.23
211.457	339.09
211.925	271.21
212.393	282.91
212.861	261.85
213.328	282.91
213.796	303.98
214.264	289.93
214.731	322.7
215.199	219.72
215.666	229.08
216.133	259.51
216.601	243.12
217.068	287.59
217.535	264.19
218.003	315.68
218.47	325.04
218.937	280.57
219.404	292.27
219.871	229.08
220.338	259.51
220.805	329.72
221.271	261.85
221.738	261.85
222.205	306.32
222.671	236.1
223.138	313.34
223.605	285.25
224.071	289.93
224.538	268.87
225.004	271.21
225.47	268.87
225.937	245.46
226.403	275.89
226.869	311
227.335	247.8
227.801	217.38
228.267	186.95
228.733	353.13
229.199	229.08
229.665	245.46
230.131	275.89
230.597	271.21
231.062	231.42
231.528	208.02
231.994	271.21
232.459	245.46
232.925	200.99
233.39	301.64
233.856	313.34
234.321	275.89
234.786	266.53
235.252	273.55
235.717	289.93
236.182	264.19
236.647	273.55
237.112	273.55
237.577	261.85
238.042	233.76
238.507	266.53
238.972	294.61
239.436	336.74
239.901	238.44
240.366	257.17
240.83	236.1
241.295	273.55
241.76	280.57
242.224	250.14
242.688	254.83
243.153	215.04
243.617	303.98
244.081	299.3
244.545	287.59
245.01	280.57
245.474	261.85
245.938	329.72
246.402	327.38
246.866	240.78
247.33	313.34
247.793	313.34
248.257	294.61
248.721	252.49
249.185	357.81
249.648	315.68
250.112	268.87
250.575	296.96
251.039	247.8
251.502	299.3
251.965	311
252.429	348.45
252.892	306.32
253.355	315.68
253.818	229.08
254.281	285.25
254.744	289.93
255.207	367.17
255.67	306.32
256.133	301.64
256.596	296.96
257.059	261.85
257.522	261.85
257.984	273.55
258.447	322.7
258.909	301.64
259.372	308.66
259.834	341.43
260.297	252.49
260.759	273.55
261.221	303.98
261.684	289.93
262.146	292.27
262.608	271.21
263.07	318.02
263.532	301.64
263.994	271.21
264.456	275.89
264.918	289.93
265.38	374.19
265.842	341.43
266.303	257.17
266.765	264.19
267.227	327.38
267.688	247.8
268.15	273.55
268.611	273.55
269.072	332.06
269.534	350.79
269.995	334.4
270.456	266.53
270.918	341.43
271.379	268.87
271.84	287.59
272.301	278.23
272.762	282.91
273.223	306.32
273.684	259.51
274.144	268.87
274.605	301.64
275.066	294.61
275.527	343.77
275.987	296.96
276.448	311
276.908	322.7
277.369	339.09
277.829	287.59
278.289	315.68
278.75	285.25
279.21	325.04
279.67	308.66
280.13	348.45
280.59	268.87
281.05	278.23
281.51	278.23
281.97	350.79
282.43	247.8
282.89	311
283.35	315.68
283.809	353.13
284.269	301.64
284.729	254.83
285.188	275.89
285.648	296.96
286.107	226.74
286.567	280.57
287.026	294.61
287.485	236.1
287.944	226.74
288.404	247.8
288.863	299.3
289.322	259.51
289.781	289.93
290.24	346.11
290.699	381.21
291.158	289.93
291.616	273.55
292.075	257.17
292.534	294.61
292.992	292.27
293.451	294.61
293.91	322.7
294.368	278.23
294.827	245.46
295.285	275.89
295.743	301.64
296.202	306.32
296.66	376.53
297.118	294.61
297.576	362.49
298.034	313.34
298.492	287.59
298.95	303.98
299.408	273.55
299.866	320.36
300.324	334.4
300.781	362.49
301.239	325.04
301.697	332.06
302.154	266.53
302.612	282.91
303.069	278.23
303.527	362.49
303.984	296.96
304.441	320.36
304.899	271.21
305.356	315.68
305.813	282.91
306.27	367.17
306.727	346.11
307.184	318.02
307.641	268.87
308.098	308.66
308.555	294.61
309.012	285.25
309.468	299.3
309.925	376.53
310.382	332.06
310.838	282.91
311.295	367.17
311.751	313.34
312.208	303.98
312.664	264.19
313.12	313.34
313.577	285.25
314.033	329.72
314.489	385.9
314.945	289.93
315.401	278.23
315.857	278.23
316.313	303.98
316.769	308.66
317.225	350.79
317.681	254.83
318.136	306.32
318.592	339.09
319.048	397.6
319.503	306.32
319.959	383.56
320.414	362.49
320.869	341.43
321.325	296.96
321.78	353.13
322.235	318.02
322.691	287.59
323.146	296.96
323.601	315.68
324.056	268.87
324.511	271.21
324.966	348.45
325.421	320.36
325.875	320.36
326.33	320.36
326.785	346.11
327.24	294.61
327.694	346.11
328.149	336.74
328.603	364.83
329.058	289.93
329.512	353.13
329.966	303.98
330.421	275.89
330.875	294.61
331.329	318.02
331.783	296.96
332.237	311
332.691	268.87
333.145	287.59
333.599	280.57
334.053	325.04
334.507	355.47
334.96	292.27
335.414	367.17
335.868	341.43
336.321	287.59
336.775	350.79
337.228	383.56
337.682	294.61
338.135	287.59
338.588	329.72
339.042	334.4
339.495	318.02
339.948	320.36
340.401	357.81
340.854	303.98
341.307	301.64
341.76	313.34
342.213	261.85
342.666	318.02
343.119	334.4
343.571	322.7
344.024	353.13
344.477	355.47
344.929	303.98
345.382	320.36
345.834	320.36
346.287	348.45
346.739	318.02
347.191	339.09
347.644	322.7
348.096	341.43
348.548	332.06
349	303.98
349.452	336.74
349.904	287.59
350.356	273.55
350.808	301.64
351.26	353.13
351.711	392.92
352.163	301.64
352.615	332.06
353.066	332.06
353.518	329.72
353.969	355.47
354.421	271.21
354.872	296.96
355.324	329.72
355.775	303.98
356.226	289.93
356.677	313.34
357.128	306.32
357.579	355.47
358.03	348.45
358.481	336.74
358.932	296.96
359.383	245.46
359.834	294.61
360.285	327.38
360.735	378.87
361.186	334.4
361.637	397.6
362.087	325.04
362.538	350.79
362.988	339.09
363.438	315.68
363.889	301.64
364.339	301.64
364.789	348.45
365.239	285.25
365.689	348.45
366.139	327.38
366.589	355.47
367.039	266.53
367.489	315.68
367.939	355.47
368.389	327.38
368.839	327.38
369.288	325.04
369.738	301.64
370.187	318.02
370.637	299.3
371.086	313.34
371.536	282.91
371.985	294.61
372.434	350.79
372.884	364.83
373.333	325.04
373.782	271.21
374.231	306.32
374.68	320.36
375.129	308.66
375.578	287.59
376.027	322.7
376.475	329.72
376.924	327.38
377.373	299.3
377.822	315.68
378.27	339.09
378.719	336.74
379.167	336.74
379.616	332.06
380.064	343.77
380.512	364.83
380.961	299.3
381.409	332.06
381.857	245.46
382.305	399.94
382.753	313.34
383.201	322.7
383.649	311
384.097	336.74
384.545	348.45
384.992	362.49
385.44	343.77
385.888	355.47
386.335	294.61
386.783	346.11
387.231	339.09
387.678	339.09
388.125	360.15
388.573	296.96
389.02	355.47
389.467	392.92
389.914	299.3
390.362	315.68
390.809	339.09
391.256	303.98
391.703	322.7
392.15	421
392.596	353.13
393.043	336.74
393.49	311
393.937	329.72
394.383	346.11
394.83	339.09
395.276	364.83
395.723	303.98
396.169	285.25
396.616	364.83
397.062	369.51
397.508	327.38
397.954	254.83
398.401	301.64
398.847	294.61
399.293	311
399.739	280.57
400.185	280.57
400.631	313.34
401.076	348.45
401.522	303.98
401.968	303.98
402.414	285.25
402.859	292.27
403.305	285.25
403.75	357.81
404.196	343.77
404.641	325.04
405.086	360.15
405.532	320.36
405.977	308.66
406.422	259.51
406.867	240.78
407.312	395.26
407.757	341.43
408.202	299.3
408.647	320.36
409.092	334.4
409.537	285.25
409.982	282.91
410.426	336.74
410.871	285.25
411.316	311
411.76	362.49
412.205	289.93
412.649	318.02
413.093	325.04
413.538	243.12
413.982	301.64
414.426	294.61
414.87	318.02
415.314	357.81
415.758	271.21
416.202	303.98
416.646	320.36
417.09	294.61
417.534	275.89
417.978	327.38
418.421	306.32
418.865	350.79
419.309	339.09
419.752	334.4
420.196	364.83
420.639	306.32
421.083	353.13
421.526	280.57
421.969	339.09
422.412	350.79
422.856	325.04
423.299	334.4
423.742	294.61
424.185	285.25
424.628	343.77
425.071	371.85
425.513	292.27
425.956	329.72
426.399	306.32
426.842	357.81
427.284	278.23
427.727	350.79
428.169	341.43
428.612	315.68
429.054	341.43
429.497	371.85
429.939	348.45
430.381	329.72
430.823	334.4
431.265	362.49
431.707	273.55
432.149	350.79
432.591	318.02
433.033	329.72
433.475	343.77
433.917	303.98
434.359	296.96
434.8	360.15
435.242	364.83
435.684	311
436.125	381.21
436.567	315.68
437.008	320.36
437.449	266.53
437.891	355.47
438.332	325.04
438.773	343.77
439.214	360.15
439.656	264.19
440.097	336.74
440.538	259.51
440.978	329.72
441.419	287.59
441.86	303.98
442.301	318.02
442.742	325.04
443.182	360.15
443.623	320.36
444.063	301.64
444.504	285.25
444.944	292.27
445.385	348.45
445.825	303.98
446.265	299.3
446.706	306.32
447.146	303.98
447.586	327.38
448.026	357.81
448.466	275.89
448.906	320.36
449.346	254.83
449.786	327.38
450.225	322.7
450.665	287.59
451.105	336.74
451.544	285.25
451.984	313.34
452.424	371.85
452.863	399.94
453.302	322.7
453.742	329.72
454.181	353.13
454.62	353.13
455.059	278.23
455.499	371.85
455.938	322.7
456.377	329.72
456.816	315.68
457.254	353.13
457.693	385.9
458.132	315.68
458.571	341.43
459.01	287.59
459.448	273.55
459.887	308.66
460.325	311
460.764	381.21
461.202	306.32
461.641	313.34
462.079	346.11
462.517	303.98
462.955	268.87
463.393	357.81
463.832	306.32
464.27	322.7
464.708	282.91
465.145	371.85
465.583	322.7
466.021	376.53
466.459	315.68
466.897	322.7
467.334	287.59
467.772	315.68
468.209	332.06
468.647	339.09
469.084	273.55
469.522	273.55
469.959	339.09
470.396	254.83
470.833	280.57
471.271	308.66
471.708	336.74
472.145	388.24
472.582	341.43
473.019	322.7
473.456	388.24
473.892	247.8
474.329	371.85
474.766	381.21
475.202	371.85
475.639	343.77
476.076	362.49
476.512	334.4
476.949	339.09
477.385	306.32
477.821	259.51
478.258	329.72
478.694	264.19
479.13	336.74
479.566	343.77
480.002	296.96
480.438	303.98
480.874	313.34
481.31	369.51
481.746	348.45
482.181	282.91
482.617	339.09
483.053	362.49
483.488	315.68
483.924	294.61
484.36	247.8
484.795	332.06
485.23	325.04
485.666	334.4
486.101	343.77
486.536	282.91
486.971	268.87
487.407	315.68
487.842	306.32
488.277	264.19
488.712	271.21
489.146	320.36
489.581	320.36
490.016	264.19
490.451	322.7
490.885	257.17
491.32	355.47
491.755	318.02
492.189	308.66
492.624	348.45
493.058	385.9
493.492	355.47
493.927	313.34
494.361	266.53
494.795	303.98
495.229	332.06
495.663	360.15
496.097	292.27
496.531	315.68
496.965	334.4
497.399	348.45
497.833	367.17
498.266	327.38
498.7	311
499.134	353.13
499.567	322.7
500.001	346.11
500.434	299.3
500.868	322.7
501.301	385.9
501.734	320.36
502.168	266.53
502.601	341.43
503.034	334.4
503.467	364.83
503.9	261.85
504.333	292.27
504.766	343.77
505.199	334.4
505.632	346.11
506.064	294.61
506.497	341.43
506.93	278.23
507.362	292.27
507.795	271.21
508.227	315.68
508.66	311
509.092	301.64
509.524	303.98
509.956	346.11
510.389	334.4
510.821	350.79
511.253	303.98
511.685	362.49
512.117	346.11
512.549	357.81
512.981	329.72
513.412	301.64
513.844	329.72
514.276	289.93
514.707	346.11
515.139	341.43
515.571	341.43
516.002	322.7
516.433	252.49
516.865	318.02
517.296	311
517.727	287.59
518.159	296.96
518.59	285.25
519.021	369.51
519.452	369.51
519.883	348.45
520.314	306.32
520.744	282.91
521.175	306.32
521.606	301.64
522.037	280.57
522.467	329.72
522.898	341.43
523.328	268.87
523.759	332.06
524.189	360.15
524.62	271.21
525.05	329.72
525.48	311
525.91	329.72
526.341	301.64
526.771	336.74
527.201	327.38
527.631	336.74
528.061	336.74
528.49	303.98
528.92	238.44
529.35	252.49
529.78	303.98
530.209	336.74
530.639	282.91
531.068	339.09
531.498	294.61
531.927	320.36
532.357	327.38
532.786	327.38
533.215	280.57
533.644	306.32
534.074	280.57
534.503	336.74
534.932	402.28
535.361	285.25
535.79	334.4
536.218	303.98
536.647	313.34
537.076	294.61
537.505	315.68
537.933	311
538.362	301.64
538.79	325.04
539.219	343.77
539.647	385.9
540.076	275.89
540.504	346.11
540.932	282.91
541.36	334.4
541.788	350.79
542.217	385.9
542.645	360.15
543.073	346.11
543.5	353.13
543.928	315.68
544.356	364.83
544.784	339.09
545.211	355.47
545.639	357.81
546.067	325.04
546.494	397.6
546.922	303.98
547.349	299.3
547.776	308.66
548.204	306.32
548.631	282.91
549.058	325.04
549.485	322.7
549.912	336.74
550.339	334.4
550.766	322.7
551.193	329.72
551.62	334.4
552.047	332.06
552.474	301.64
552.9	311
553.327	322.7
553.754	268.87
554.18	348.45
554.607	261.85
555.033	294.61
555.459	245.46
555.886	301.64
556.312	336.74
556.738	271.21
557.164	329.72
557.59	303.98
558.016	285.25
558.442	327.38
558.868	350.79
559.294	257.17
559.72	315.68
560.145	353.13
560.571	332.06
560.997	296.96
561.422	325.04
561.848	343.77
562.273	320.36
562.699	353.13
563.124	320.36
563.549	278.23
563.974	292.27
564.4	350.79
564.825	418.66
565.25	294.61
565.675	339.09
566.1	350.79
566.525	306.32
566.95	301.64
567.374	320.36
567.799	313.34
568.224	343.77
568.648	315.68
569.073	318.02
569.497	322.7
569.922	306.32
570.346	296.96
570.771	353.13
571.195	360.15
571.619	292.27
572.043	390.58
572.467	329.72
572.891	273.55
573.315	311
573.739	392.92
574.163	334.4
574.587	327.38
575.011	336.74
575.435	332.06
575.858	313.34
576.282	315.68
576.705	299.3
577.129	322.7
577.552	320.36
577.976	329.72
578.399	357.81
578.822	416.32
579.245	315.68
579.669	327.38
580.092	257.17
580.515	322.7
580.938	311
581.361	334.4
581.784	261.85
582.206	250.14
582.629	413.98
583.052	350.79
583.474	376.53
583.897	313.34
584.32	371.85
584.742	294.61
585.165	348.45
585.587	355.47
586.009	311
586.431	399.94
586.854	348.45
587.276	332.06
587.698	346.11
588.12	289.93
588.542	348.45
588.964	313.34
589.386	278.23
589.807	341.43
590.229	350.79
590.651	341.43
591.073	329.72
591.494	311
591.916	292.27
592.337	339.09
592.759	320.36
593.18	327.38
593.601	360.15
594.022	299.3
594.444	336.74
594.865	261.85
595.286	355.47
595.707	273.55
596.128	275.89
596.549	327.38
596.97	392.92
597.39	378.87
597.811	346.11
598.232	311
598.652	299.3
599.073	336.74
599.494	315.68
599.914	350.79
600.334	308.66
600.755	261.85
601.175	364.83
601.595	325.04
602.015	306.32
602.436	322.7
602.856	458.45
603.276	313.34
603.696	278.23
604.115	311
604.535	334.4
604.955	350.79
605.375	329.72
605.794	353.13
606.214	303.98
606.634	343.77
607.053	240.78
607.473	332.06
607.892	301.64
608.311	315.68
608.731	254.83
609.15	329.72
609.569	371.85
609.988	318.02
610.407	339.09
610.826	355.47
611.245	402.28
611.664	329.72
612.083	364.83
612.501	294.61
612.92	341.43
613.339	378.87
613.757	322.7
614.176	294.61
614.594	353.13
615.013	315.68
615.431	306.32
615.85	282.91
616.268	390.58
616.686	325.04
617.104	292.27
617.522	315.68
617.94	327.38
618.358	362.49
618.776	287.59
619.194	341.43
619.612	306.32
620.03	336.74
620.447	334.4
620.865	287.59
621.282	334.4
621.7	357.81
622.117	346.11
622.535	282.91
622.952	334.4
623.369	353.13
623.787	369.51
624.204	341.43
624.621	378.87
625.038	282.91
625.455	325.04
625.872	325.04
626.289	296.96
626.706	334.4
627.123	318.02
627.539	301.64
627.956	371.85
628.373	367.17
628.789	325.04
629.206	299.3
629.622	322.7
630.038	287.59
630.455	336.74
630.871	329.72
631.287	299.3
631.703	282.91
632.12	301.64
632.536	336.74
632.952	336.74
633.368	275.89
633.783	303.98
634.199	327.38
634.615	369.51
635.031	341.43
635.446	282.91
635.862	362.49
636.277	299.3
636.693	282.91
637.108	306.32
637.524	285.25
637.939	320.36
638.354	364.83
638.77	289.93
639.185	390.58
639.6	306.32
640.015	355.47
640.43	402.28
640.845	332.06
641.259	296.96
641.674	362.49
642.089	322.7
642.504	289.93
642.918	311
643.333	362.49
643.747	362.49
644.162	296.96
644.576	341.43
644.991	341.43
645.405	357.81
645.819	268.87
646.233	315.68
646.647	329.72
647.061	250.14
647.475	327.38
647.889	236.1
648.303	301.64
648.717	318.02
649.131	240.78
649.545	261.85
649.958	294.61
650.372	318.02
650.785	336.74
651.199	325.04
651.612	271.21
652.026	320.36
652.439	322.7
652.852	318.02
653.266	311
653.679	294.61
654.092	275.89
654.505	301.64
654.918	341.43
655.331	294.61
655.744	268.87
656.156	306.32
656.569	336.74
656.982	296.96
657.394	301.64
657.807	390.58
658.22	348.45
658.632	266.53
659.044	273.55
659.457	318.02
659.869	343.77
660.281	341.43
660.693	315.68
661.106	303.98
661.518	285.25
661.93	390.58
662.342	287.59
662.754	296.96
663.165	320.36
663.577	287.59
663.989	343.77
664.401	306.32
664.812	395.26
665.224	332.06
665.635	301.64
666.047	296.96
666.458	301.64
666.869	318.02
667.281	320.36
667.692	355.47
668.103	329.72
668.514	303.98
668.925	332.06
669.336	383.56
669.747	336.74
670.158	341.43
670.569	362.49
670.979	362.49
671.39	322.7
671.801	313.34
672.211	311
672.622	371.85
673.032	306.32
673.443	311
673.853	339.09
674.263	350.79
674.674	385.9
675.084	301.64
675.494	374.19
675.904	313.34
676.314	339.09
676.724	294.61
677.134	266.53
677.544	318.02
677.953	348.45
678.363	350.79
678.773	376.53
679.182	306.32
679.592	346.11
680.001	336.74
680.411	306.32
680.82	322.7
681.23	329.72
681.639	350.79
682.048	322.7
682.457	334.4
682.866	301.64
683.275	341.43
683.684	250.14
684.093	306.32
684.502	348.45
684.911	318.02
685.32	362.49
685.728	348.45
686.137	334.4
686.546	360.15
686.954	271.21
687.363	296.96
687.771	332.06
688.179	357.81
688.588	329.72
688.996	313.34
689.404	306.32
689.812	320.36
690.22	332.06
690.628	322.7
691.036	371.85
691.444	320.36
691.852	318.02
692.26	315.68
692.667	306.32
693.075	301.64
693.483	336.74
693.89	299.3
694.298	287.59
694.705	325.04
695.112	308.66
695.52	313.34
695.927	313.34
696.334	362.49
696.741	278.23
697.148	294.61
697.555	311
697.962	362.49
698.369	301.64
698.776	315.68
699.183	315.68
699.59	322.7
699.996	348.45
700.403	327.38
700.81	348.45
701.216	334.4
701.623	320.36
702.029	332.06
702.435	308.66
702.842	336.74
703.248	282.91
703.654	318.02
704.06	325.04
704.466	397.6
704.872	294.61
705.278	346.11
705.684	341.43
706.09	278.23
706.496	311
706.901	325.04
707.307	271.21
707.712	385.9
708.118	334.4
708.523	327.38
708.929	357.81
709.334	280.57
709.74	327.38
710.145	348.45
710.55	332.06
710.955	308.66
711.36	318.02
711.765	332.06
712.17	336.74
712.575	381.21
712.98	842.3
713.385	336.74
713.789	311
714.194	318.02
714.599	296.96
715.003	332.06
715.408	322.7
715.812	285.25
716.217	383.56
716.621	343.77
717.025	343.77
717.429	259.51
717.833	362.49
718.238	327.38
718.642	306.32
719.046	287.59
719.449	357.81
719.853	315.68
720.257	275.89
720.661	334.4
721.065	296.96
721.468	336.74
721.872	329.72
722.275	259.51
722.679	357.81
723.082	306.32
723.485	374.19
723.889	402.28
724.292	301.64
724.695	360.15
725.098	311
725.501	360.15
725.904	341.43
726.307	308.66
726.71	296.96
727.113	336.74
727.516	325.04
727.918	353.13
728.321	247.8
728.724	287.59
729.126	285.25
729.529	339.09
729.931	268.87
730.333	348.45
730.736	367.17
731.138	325.04
731.54	332.06
731.942	348.45
732.344	346.11
732.746	303.98
733.148	339.09
733.55	348.45
733.952	229.08
734.354	299.3
734.756	296.96
735.157	369.51
735.559	294.61
735.96	292.27
736.362	289.93
736.763	362.49
737.165	273.55
737.566	268.87
737.967	313.34
738.368	289.93
738.77	240.78
739.171	271.21
739.572	353.13
739.973	334.4
740.374	280.57
740.774	250.14
741.175	289.93
741.576	325.04
741.977	306.32
742.377	275.89
742.778	287.59
743.178	275.89
743.579	273.55
743.979	296.96
744.379	348.45
744.78	348.45
745.18	329.72
745.58	266.53
745.98	343.77
746.38	336.74
746.78	257.17
747.18	360.15
747.58	315.68
747.98	264.19
748.38	374.19
748.779	222.06
749.179	325.04
749.578	325.04
749.978	280.57
750.377	327.38
750.777	250.14
751.176	367.17
751.575	334.4
751.975	303.98
752.374	336.74
752.773	268.87
753.172	261.85
753.571	259.51
753.97	320.36
754.369	308.66
754.768	292.27
755.166	369.51
755.565	325.04
755.964	341.43
756.362	346.11
756.761	318.02
757.159	282.91
757.558	353.13
757.956	339.09
758.354	308.66
758.753	327.38
759.151	318.02
759.549	381.21
759.947	322.7
760.345	336.74
760.743	247.8
761.141	303.98
761.539	343.77
761.936	320.36
762.334	346.11
762.732	329.72
763.129	287.59
763.527	311
763.924	336.74
764.322	336.74
764.719	318.02
765.117	320.36
765.514	336.74
765.911	289.93
766.308	346.11
766.705	313.34
767.102	350.79
767.499	289.93
767.896	303.98
768.293	289.93
768.69	329.72
769.086	343.77
769.483	369.51
769.88	353.13
770.276	355.47
770.673	327.38
771.069	320.36
771.466	339.09
771.862	301.64
772.258	313.34
772.654	341.43
773.05	327.38
773.447	341.43
773.843	341.43
774.239	334.4
774.634	259.51
775.03	294.61
775.426	273.55
775.822	311
776.218	306.32
776.613	334.4
777.009	348.45
777.404	303.98
777.8	350.79
778.195	301.64
778.59	254.83
778.986	327.38
779.381	329.72
779.776	254.83
780.171	303.98
780.566	378.87
780.961	280.57
781.356	280.57
781.751	303.98
782.146	362.49
782.54	343.77
782.935	261.85
783.33	303.98
783.724	278.23
784.119	320.36
784.513	311
784.908	303.98
785.302	385.9
785.696	296.96
786.09	332.06
786.485	341.43
786.879	278.23
787.273	346.11
787.667	301.64
788.061	325.04
788.454	296.96
788.848	264.19
789.242	308.66
789.636	341.43
790.029	311
790.423	296.96
790.816	318.02
791.21	318.02
791.603	339.09
791.997	341.43
792.39	287.59
792.783	313.34
793.176	318.02
793.569	322.7
793.962	343.77
794.355	273.55
794.748	278.23
795.141	308.66
795.534	268.87
795.927	273.55
796.319	346.11
796.712	353.13
797.105	299.3
797.497	259.51
797.89	392.92
798.282	313.34
798.674	343.77
799.067	308.66
799.459	357.81
799.851	322.7
800.243	357.81
800.635	320.36
801.027	289.93
801.419	318.02
801.811	320.36
802.203	303.98
802.594	294.61
802.986	229.08
803.378	303.98
803.769	374.19
804.161	301.64
804.552	320.36
804.944	278.23
805.335	334.4
805.726	360.15
806.118	318.02
806.509	299.3
806.9	339.09
807.291	353.13
807.682	287.59
808.073	289.93
808.464	275.89
808.855	313.34
809.245	315.68
809.636	367.17
810.027	350.79
810.417	306.32
810.808	292.27
811.198	311
811.589	364.83
811.979	381.21
812.369	320.36
812.759	271.21
813.15	355.47
813.54	346.11
813.93	367.17
814.32	308.66
814.71	327.38
815.1	299.3
815.489	289.93
815.879	364.83
816.269	355.47
816.658	294.61
817.048	275.89
817.438	332.06
817.827	336.74
818.216	308.66
818.606	362.49
818.995	315.68
819.384	343.77
819.773	261.85
820.163	261.85
820.552	311
820.941	296.96
821.33	259.51
821.718	280.57
822.107	369.51
822.496	303.98
822.885	268.87
823.273	315.68
823.662	406.96
824.05	325.04
824.439	296.96
824.827	296.96
825.216	301.64
825.604	320.36
825.992	385.9
826.38	329.72
826.768	329.72
827.156	313.34
827.544	374.19
827.932	271.21
828.32	327.38
828.708	327.38
829.096	339.09
829.483	299.3
829.871	299.3
830.259	369.51
830.646	303.98
831.034	313.34
831.421	308.66
831.808	294.61
832.196	343.77
832.583	315.68
832.97	353.13
833.357	341.43
833.744	254.83
834.131	301.64
834.518	208.02
834.905	334.4
835.292	334.4
835.678	308.66
836.065	285.25
836.452	313.34
836.838	348.45
837.225	259.51
837.611	275.89
837.998	362.49
838.384	315.68
838.77	280.57
839.157	282.91
839.543	339.09
839.929	320.36
840.315	343.77
840.701	266.53
841.087	299.3
841.473	285.25
841.858	294.61
842.244	329.72
842.63	320.36
843.015	318.02
843.401	573.14
843.787	385.9
844.172	332.06
844.557	303.98
844.943	378.87
845.328	275.89
845.713	322.7
846.098	306.32
846.483	348.45
846.868	259.51
847.253	320.36
847.638	348.45
848.023	329.72
848.408	341.43
848.793	301.64
849.177	299.3
849.562	303.98
849.947	350.79
850.331	362.49
850.715	332.06
851.1	327.38
851.484	357.81
851.868	325.04
852.253	371.85
852.637	292.27
853.021	327.38
853.405	280.57
853.789	287.59
854.173	296.96
854.557	369.51
854.94	346.11
855.324	322.7
855.708	320.36
856.091	315.68
856.475	329.72
856.858	318.02
857.242	343.77
857.625	303.98
858.009	306.32
858.392	271.21
858.775	327.38
859.158	334.4
859.541	442.07
859.924	282.91
860.307	332.06
860.69	318.02
861.073	381.21
861.456	346.11
861.838	289.93
862.221	292.27
862.604	308.66
862.986	357.81
863.369	364.83
863.751	378.87
864.133	336.74
864.516	318.02
864.898	318.02
865.28	313.34
865.662	325.04
866.044	327.38
866.426	346.11
866.808	355.47
867.19	311
867.572	334.4
867.954	313.34
868.336	332.06
868.717	257.17
869.099	332.06
869.48	236.1
869.862	320.36
870.243	287.59
870.625	339.09
871.006	334.4
871.387	341.43
871.768	378.87
872.149	367.17
872.53	275.89
872.911	306.32
873.292	320.36
873.673	320.36
874.054	289.93
874.435	296.96
874.815	311
875.196	327.38
875.577	322.7
875.957	289.93
876.338	339.09
876.718	327.38
877.098	303.98
877.479	353.13
877.859	318.02
878.239	336.74
878.619	257.17
878.999	334.4
879.379	320.36
879.759	313.34
880.139	271.21
880.519	226.74
880.898	343.77
881.278	341.43
881.658	353.13
882.037	327.38
882.417	299.3
882.796	311
883.176	259.51
883.555	306.32
883.934	388.24
884.313	332.06
884.693	341.43
885.072	273.55
885.451	264.19
885.83	282.91
886.209	334.4
886.587	292.27
886.966	378.87
887.345	318.02
887.724	313.34
888.102	306.32
888.481	308.66
888.859	278.23
889.238	266.53
889.616	292.27
889.994	357.81
890.373	299.3
890.751	329.72
891.129	320.36
891.507	336.74
891.885	318.02
892.263	308.66
892.641	322.7
893.019	322.7
893.396	336.74
893.774	271.21
894.152	374.19
894.529	367.17
894.907	315.68
895.284	280.57
895.662	243.12
896.039	271.21
896.416	285.25
896.794	268.87
897.171	266.53
897.548	313.34
897.925	303.98
898.302	404.62
898.679	311
899.056	259.51
899.433	334.4
899.809	268.87
900.186	332.06
900.563	341.43
900.939	357.81
901.316	329.72
901.692	296.96
902.069	320.36
902.445	357.81
902.821	313.34
903.197	289.93
903.574	287.59
903.95	303.98
904.326	299.3
904.702	329.72
905.078	318.02
905.454	273.55
905.829	296.96
906.205	350.79
906.581	299.3
906.956	252.49
907.332	257.17
907.707	273.55
908.083	311
908.458	322.7
908.833	303.98
909.209	348.45
909.584	327.38
909.959	369.51
910.334	315.68
910.709	306.32
911.084	322.7
911.459	313.34
911.834	395.26
912.209	240.78
912.583	287.59
912.958	329.72
913.333	301.64
913.707	285.25
914.082	254.83
914.456	273.55
914.83	322.7
915.205	299.3
915.579	268.87
915.953	303.98
916.327	257.17
916.701	268.87
917.075	327.38
917.449	268.87
917.823	320.36
918.197	306.32
918.571	329.72
918.944	280.57
919.318	343.77
919.692	378.87
920.065	367.17
920.438	322.7
920.812	341.43
921.185	278.23
921.558	339.09
921.932	303.98
922.305	296.96
922.678	343.77
923.051	296.96
923.424	266.53
923.797	367.17
924.17	296.96
924.542	329.72
924.915	306.32
925.288	367.17
925.661	378.87
926.033	357.81
926.406	346.11
926.778	282.91
927.15	303.98
927.523	278.23
927.895	336.74
928.267	369.51
928.639	294.61
929.011	371.85
929.383	339.09
929.755	318.02
930.127	287.59
930.499	325.04
930.871	339.09
931.242	360.15
931.614	313.34
931.986	292.27
932.357	325.04
932.729	346.11
933.1	339.09
933.471	292.27
933.843	327.38
934.214	254.83
934.585	285.25
934.956	327.38
935.327	318.02
935.698	346.11
936.069	360.15
936.44	315.68
936.811	285.25
937.182	346.11
937.552	289.93
937.923	292.27
938.293	259.51
938.664	320.36
939.034	322.7
939.405	275.89
939.775	238.44
940.145	315.68
940.516	313.34
940.886	292.27
941.256	362.49
941.626	273.55
941.996	353.13
942.366	353.13
942.735	318.02
943.105	390.58
943.475	303.98
943.845	282.91
944.214	311
944.584	327.38
944.953	339.09
945.323	348.45
945.692	336.74
946.061	318.02
946.43	308.66
946.8	313.34
947.169	261.85
947.538	350.79
947.907	336.74
948.276	322.7
948.645	306.32
949.013	299.3
949.382	371.85
949.751	308.66
950.119	320.36
950.488	325.04
950.857	350.79
951.225	296.96
951.593	313.34
951.962	313.34
952.33	311
952.698	348.45
953.066	259.51
953.434	362.49
953.802	259.51
954.17	369.51
954.538	322.7
954.906	282.91
955.274	334.4
955.642	311
956.009	320.36
956.377	311
956.744	294.61
957.112	278.23
957.479	303.98
957.847	271.21
958.214	303.98
958.581	362.49
958.948	357.81
959.315	264.19
959.683	313.34
960.05	259.51
960.416	282.91
960.783	289.93
961.15	350.79
961.517	217.38
961.884	329.72
962.25	285.25
962.617	294.61
962.983	367.17
963.35	303.98
963.716	355.47
964.082	278.23
964.449	376.53
964.815	336.74
965.181	301.64
965.547	336.74
965.913	367.17
966.279	303.98
966.645	313.34
967.011	275.89
967.377	355.47
967.742	303.98
968.108	357.81
968.474	343.77
968.839	357.81
969.205	332.06
969.57	334.4
969.935	294.61
970.301	306.32
970.666	271.21
971.031	353.13
971.396	296.96
971.761	282.91
972.126	301.64
972.491	327.38
972.856	287.59
973.221	329.72
973.586	322.7
973.95	313.34
974.315	336.74
974.679	311
975.044	355.47
975.408	367.17
975.773	315.68
976.137	299.3
976.501	318.02
976.866	336.74
977.23	318.02
977.594	315.68
977.958	346.11
978.322	294.61
978.686	299.3
979.049	294.61
979.413	315.68
979.777	266.53
980.141	301.64
980.504	308.66
980.868	311
981.231	325.04
981.595	320.36
981.958	378.87
982.321	294.61
982.684	327.38
983.048	367.17
983.411	303.98
983.774	282.91
984.137	306.32
984.5	266.53
984.862	318.02
985.225	296.96
985.588	271.21
985.951	334.4
986.313	292.27
986.676	280.57
987.038	320.36
987.401	322.7
987.763	292.27
988.125	299.3
988.488	336.74
988.85	327.38
989.212	329.72
989.574	313.34
989.936	336.74
990.298	341.43
990.66	294.61
991.022	336.74
991.383	296.96
991.745	266.53
992.107	348.45
992.468	240.78
992.83	332.06
993.191	296.96
993.553	264.19
993.914	411.64
994.275	329.72
994.637	334.4
994.998	282.91
995.359	271.21
995.72	313.34
996.081	303.98
996.442	357.81
996.803	350.79
997.163	350.79
997.524	292.27
997.885	334.4
998.245	355.47
998.606	315.68
998.966	306.32
999.327	294.61
999.687	315.68
1000.047	350.79
1000.408	268.87
1000.768	287.59
1001.128	329.72
1001.488	348.45
1001.848	348.45
1002.208	339.09
1002.568	292.27
1002.927	322.7
1003.287	332.06
1003.647	285.25
1004.007	411.64
1004.366	341.43
1004.726	334.4
1005.085	278.23
1005.444	362.49
1005.804	322.7
1006.163	245.46
1006.522	329.72
1006.881	334.4
1007.24	376.53
1007.599	287.59
1007.958	341.43
1008.317	313.34
1008.676	325.04
1009.035	327.38
1009.393	357.81
1009.752	320.36
1010.111	362.49
1010.469	296.96
1010.828	355.47
1011.186	252.49
1011.544	299.3
1011.903	339.09
1012.261	278.23
1012.619	341.43
1012.977	261.85
1013.335	350.79
1013.693	294.61
1014.051	329.72
1014.409	273.55
1014.767	294.61
1015.124	278.23
1015.482	320.36
1015.84	332.06
1016.197	346.11
1016.555	343.77
1016.912	329.72
1017.269	252.49
1017.627	273.55
1017.984	355.47
1018.341	339.09
1018.698	303.98
1019.055	355.47
1019.412	336.74
1019.769	285.25
1020.126	280.57
1020.483	301.64
1020.84	257.17
1021.196	285.25
1021.553	315.68
1021.909	313.34
1022.266	280.57
1022.622	296.96
1022.979	357.81
1023.335	343.77
1023.691	287.59
1024.047	346.11
1024.404	339.09
1024.76	374.19
1025.116	325.04
1025.472	329.72
1025.827	350.79
1026.183	266.53
1026.539	336.74
1026.895	287.59
1027.25	285.25
1027.606	287.59
1027.961	268.87
1028.317	294.61
1028.672	353.13
1029.028	226.74
1029.383	311
1029.738	343.77
1030.093	282.91
1030.448	287.59
1030.803	308.66
1031.158	327.38
1031.513	315.68
1031.868	303.98
1032.223	282.91
1032.577	243.12
1032.932	355.47
1033.287	334.4
1033.641	339.09
1033.996	303.98
1034.35	322.7
1034.704	247.8
1035.059	268.87
1035.413	327.38
1035.767	327.38
1036.121	327.38
