Data from Al_FLMS009871__901__16-18-07-823.txt Node

Date: Fri Mar 08 16:18:07 CST 2024
User: pe5414po
Spectrometer: FLMS00987
Trigger mode: 0
Integration Time (sec): 1.000000E-1
Scans to average: 1
Electric dark correction enabled: true
Nonlinearity correction enabled: false
Boxcar width: 0
XAxis mode: Wavelengths
Number of Pixels in Spectrum: 2048
>>>>>Begin Spectral Data<<<<<
188.938	-56.76
189.409	-56.76
189.879	-56.76
190.349	-70.8
190.819	-77.82
191.29	-91.87
191.76	-115.27
192.23	-38.03
192.7	-56.76
193.17	-19.31
193.64	-77.82
194.109	-80.16
194.579	-16.97
195.049	-7.61
195.519	-7.61
195.988	-47.4
196.458	97.72
196.927	123.46
197.397	62.61
197.866	114.1
198.336	160.91
198.805	111.76
199.274	146.87
199.744	163.25
200.213	146.87
200.682	212.4
201.151	287.3
201.62	219.43
202.089	261.55
202.558	294.32
203.027	308.37
203.495	294.32
203.964	322.41
204.433	231.13
204.902	261.55
205.37	287.3
205.839	238.15
206.307	233.47
206.776	275.6
207.244	282.62
207.712	247.51
208.181	313.05
208.649	301.34
209.117	275.6
209.585	277.94
210.053	322.41
210.521	275.6
210.989	226.45
211.457	270.92
211.925	289.64
212.393	303.68
212.861	261.55
213.328	296.66
213.796	296.66
214.264	235.81
214.731	275.6
215.199	240.49
215.666	270.92
216.133	289.64
216.601	282.62
217.068	299
217.535	247.51
218.003	324.75
218.47	291.98
218.937	245.17
219.404	282.62
219.871	299
220.338	350.5
220.805	301.34
221.271	287.3
221.738	324.75
222.205	296.66
222.671	247.51
223.138	320.07
223.605	350.5
224.071	242.83
224.538	289.64
225.004	270.92
225.47	235.81
225.937	299
226.403	184.32
226.869	203.04
227.335	282.62
227.801	306.03
228.267	259.21
228.733	261.55
229.199	284.96
229.665	306.03
230.131	261.55
230.597	322.41
231.062	273.26
231.528	275.6
231.994	317.73
232.459	296.66
232.925	214.74
233.39	296.66
233.856	317.73
234.321	324.75
234.786	252.19
235.252	203.04
235.717	336.45
236.182	245.17
236.647	266.24
237.112	306.03
237.577	242.83
238.042	301.34
238.507	245.17
238.972	280.28
239.436	327.09
239.901	348.15
240.366	310.71
240.83	301.34
241.295	249.85
241.76	296.66
242.224	352.84
242.688	296.66
243.153	212.4
243.617	313.05
244.081	256.87
244.545	284.96
245.01	256.87
245.474	303.68
245.938	350.5
246.402	280.28
246.866	252.19
247.33	331.77
247.793	355.18
248.257	350.5
248.721	287.3
249.185	273.26
249.648	270.92
250.112	310.71
250.575	355.18
251.039	233.47
251.502	296.66
251.965	306.03
252.429	249.85
252.892	357.52
253.355	301.34
253.818	308.37
254.281	270.92
254.744	299
255.207	348.15
255.67	254.53
256.133	263.9
256.596	277.94
257.059	306.03
257.522	291.98
257.984	320.07
258.447	380.92
258.909	261.55
259.372	289.64
259.834	259.21
260.297	324.75
260.759	252.19
261.221	282.62
261.684	277.94
262.146	256.87
262.608	275.6
263.07	324.75
263.532	334.11
263.994	322.41
264.456	252.19
264.918	299
265.38	280.28
265.842	242.83
266.303	299
266.765	277.94
267.227	240.49
267.688	301.34
268.15	324.75
268.611	329.43
269.072	299
269.534	317.73
269.995	320.07
270.456	275.6
270.918	310.71
271.379	343.47
271.84	291.98
272.301	306.03
272.762	247.51
273.223	301.34
273.684	336.45
274.144	329.43
274.605	322.41
275.066	266.24
275.527	324.75
275.987	357.52
276.448	301.34
276.908	322.41
277.369	247.51
277.829	308.37
278.289	291.98
278.75	287.3
279.21	280.28
279.67	331.77
280.13	263.9
280.59	324.75
281.05	327.09
281.51	380.92
281.97	247.51
282.43	343.47
282.89	355.18
283.35	348.15
283.809	275.6
284.269	284.96
284.729	313.05
285.188	334.11
285.648	343.47
286.107	256.87
286.567	313.05
287.026	280.28
287.485	341.13
287.944	345.81
288.404	294.32
288.863	308.37
289.322	291.98
289.781	341.13
290.24	287.3
290.699	331.77
291.158	315.39
291.616	259.21
292.075	289.64
292.534	313.05
292.992	303.68
293.451	313.05
293.91	317.73
294.368	315.39
294.827	284.96
295.285	289.64
295.743	280.28
296.202	254.53
296.66	299
297.118	294.32
297.576	348.15
298.034	315.39
298.492	287.3
298.95	277.94
299.408	280.28
299.866	273.26
300.324	341.13
300.781	331.77
301.239	336.45
301.697	282.62
302.154	259.21
302.612	252.19
303.069	355.18
303.527	324.75
303.984	277.94
304.441	308.37
304.899	310.71
305.356	320.07
305.813	303.68
306.27	284.96
306.727	291.98
307.184	324.75
307.641	254.53
308.098	350.5
308.555	355.18
309.012	399.65
309.468	322.41
309.925	277.94
310.382	317.73
310.838	296.66
311.295	308.37
311.751	275.6
312.208	327.09
312.664	273.26
313.12	261.55
313.577	320.07
314.033	313.05
314.489	235.81
314.945	306.03
315.401	268.58
315.857	334.11
316.313	322.41
316.769	301.34
317.225	364.54
317.681	378.58
318.136	284.96
318.592	322.41
319.048	352.84
319.503	282.62
319.959	322.41
320.414	341.13
320.869	355.18
321.325	369.22
321.78	352.84
322.235	294.32
322.691	317.73
323.146	362.2
323.601	270.92
324.056	313.05
324.511	289.64
324.966	324.75
325.421	233.47
325.875	334.11
326.33	308.37
326.785	306.03
327.24	313.05
327.694	310.71
328.149	341.13
328.603	324.75
329.058	327.09
329.512	256.87
329.966	263.9
330.421	299
330.875	345.81
331.329	320.07
331.783	242.83
332.237	371.56
332.691	324.75
333.145	348.15
333.599	306.03
334.053	296.66
334.507	341.13
334.96	341.13
335.414	296.66
335.868	284.96
336.321	322.41
336.775	313.05
337.228	355.18
337.682	411.35
338.135	289.64
338.588	308.37
339.042	280.28
339.495	273.26
339.948	380.92
340.401	348.15
340.854	343.47
341.307	366.88
341.76	320.07
342.213	238.15
342.666	306.03
343.119	317.73
343.571	338.79
344.024	338.79
344.477	313.05
344.929	317.73
345.382	310.71
345.834	329.43
346.287	357.52
346.739	345.81
347.191	334.11
347.644	334.11
348.096	343.47
348.548	245.17
349	329.43
349.452	392.62
349.904	313.05
350.356	317.73
350.808	324.75
351.26	324.75
351.711	301.34
352.163	327.09
352.615	380.92
353.066	336.45
353.518	322.41
353.969	334.11
354.421	287.3
354.872	299
355.324	254.53
355.775	369.22
356.226	317.73
356.677	308.37
357.128	306.03
357.579	259.21
358.03	369.22
358.481	334.11
358.932	334.11
359.383	341.13
359.834	313.05
360.285	299
360.735	313.05
361.186	317.73
361.637	317.73
362.087	350.5
362.538	320.07
362.988	392.62
363.438	343.47
363.889	282.62
364.339	378.58
364.789	277.94
365.239	324.75
365.689	345.81
366.139	329.43
366.589	317.73
367.039	280.28
367.489	397.31
367.939	343.47
368.389	310.71
368.839	348.15
369.288	348.15
369.738	308.37
370.187	322.41
370.637	273.26
371.086	259.21
371.536	273.26
371.985	310.71
372.434	261.55
372.884	310.71
373.333	308.37
373.782	282.62
374.231	296.66
374.68	348.15
375.129	343.47
375.578	306.03
376.027	362.2
376.475	294.32
376.924	385.6
377.373	284.96
377.822	284.96
378.27	336.45
378.719	322.41
379.167	352.84
379.616	289.64
380.064	369.22
380.512	310.71
380.961	303.68
381.409	369.22
381.857	366.88
382.305	322.41
382.753	338.79
383.201	336.45
383.649	299
384.097	306.03
384.545	345.81
384.992	343.47
385.44	301.34
385.888	352.84
386.335	308.37
386.783	296.66
387.231	327.09
387.678	348.15
388.125	317.73
388.573	291.98
389.02	317.73
389.467	366.88
389.914	357.52
390.362	343.47
390.809	324.75
391.256	404.33
391.703	329.43
392.15	329.43
392.596	341.13
393.043	364.54
393.49	296.66
393.937	371.56
394.383	263.9
394.83	284.96
395.276	352.84
395.723	350.5
396.169	313.05
396.616	259.21
397.062	313.05
397.508	289.64
397.954	331.77
398.401	355.18
398.847	336.45
399.293	345.81
399.739	310.71
400.185	387.94
400.631	249.85
401.076	320.07
401.522	315.39
401.968	380.92
402.414	284.96
402.859	280.28
403.305	287.3
403.75	373.9
404.196	336.45
404.641	299
405.086	310.71
405.532	359.86
405.977	338.79
406.422	310.71
406.867	282.62
407.312	362.2
407.757	299
408.202	324.75
408.647	376.24
409.092	352.84
409.537	261.55
409.982	324.75
410.426	322.41
410.871	310.71
411.316	364.54
411.76	338.79
412.205	313.05
412.649	303.68
413.093	282.62
413.538	343.47
413.982	320.07
414.426	266.24
414.87	308.37
415.314	371.56
415.758	336.45
416.202	301.34
416.646	341.13
417.09	315.39
417.534	345.81
417.978	334.11
418.421	343.47
418.865	303.68
419.309	369.22
419.752	362.2
420.196	308.37
420.639	308.37
421.083	294.32
421.526	331.77
421.969	303.68
422.412	352.84
422.856	320.07
423.299	355.18
423.742	350.5
424.185	322.41
424.628	313.05
425.071	343.47
425.513	362.2
425.956	355.18
426.399	299
426.842	350.5
427.284	345.81
427.727	317.73
428.169	376.24
428.612	315.39
429.054	289.64
429.497	320.07
429.939	249.85
430.381	287.3
430.823	373.9
431.265	277.94
431.707	334.11
432.149	336.45
432.591	341.13
433.033	343.47
433.475	327.09
433.917	294.32
434.359	343.47
434.8	299
435.242	392.62
435.684	352.84
436.125	359.86
436.567	280.28
437.008	385.6
437.449	357.52
437.891	256.87
438.332	322.41
438.773	273.26
439.214	329.43
439.656	376.24
440.097	397.31
440.538	327.09
440.978	338.79
441.419	357.52
441.86	357.52
442.301	336.45
442.742	338.79
443.182	320.07
443.623	366.88
444.063	282.62
444.504	348.15
444.944	296.66
445.385	273.26
445.825	334.11
446.265	320.07
446.706	324.75
447.146	331.77
447.586	287.3
448.026	322.41
448.466	273.26
448.906	350.5
449.346	331.77
449.786	331.77
450.225	308.37
450.665	310.71
451.105	303.68
451.544	336.45
451.984	317.73
452.424	338.79
452.863	329.43
453.302	317.73
453.742	385.6
454.181	263.9
454.62	380.92
455.059	320.07
455.499	324.75
455.938	362.2
456.377	306.03
456.816	308.37
457.254	277.94
457.693	289.64
458.132	331.77
458.571	308.37
459.01	366.88
459.448	359.86
459.887	380.92
460.325	341.13
460.764	329.43
461.202	329.43
461.641	336.45
462.079	331.77
462.517	299
462.955	301.34
463.393	301.34
463.832	310.71
464.27	397.31
464.708	320.07
465.145	306.03
465.583	348.15
466.021	362.2
466.459	313.05
466.897	338.79
467.334	313.05
467.772	334.11
468.209	331.77
468.647	355.18
469.084	357.52
469.522	397.31
469.959	369.22
470.396	313.05
470.833	306.03
471.271	306.03
471.708	313.05
472.145	327.09
472.582	317.73
473.019	378.58
473.456	336.45
473.892	313.05
474.329	282.62
474.766	306.03
475.202	359.86
475.639	315.39
476.076	327.09
476.512	348.15
476.949	336.45
477.385	364.54
477.821	350.5
478.258	324.75
478.694	296.66
479.13	320.07
479.566	324.75
480.002	359.86
480.438	392.62
480.874	355.18
481.31	348.15
481.746	350.5
482.181	341.13
482.617	348.15
483.053	320.07
483.488	296.66
483.924	303.68
484.36	303.68
484.795	329.43
485.23	352.84
485.666	350.5
486.101	359.86
486.536	294.32
486.971	301.34
487.407	359.86
487.842	341.13
488.277	359.86
488.712	294.32
489.146	338.79
489.581	364.54
490.016	336.45
490.451	369.22
490.885	294.32
491.32	296.66
491.755	287.3
492.189	282.62
492.624	350.5
493.058	280.28
493.492	350.5
493.927	359.86
494.361	277.94
494.795	299
495.229	291.98
495.663	359.86
496.097	327.09
496.531	322.41
496.965	376.24
497.399	273.26
497.833	369.22
498.266	376.24
498.7	266.24
499.134	334.11
499.567	418.37
500.001	359.86
500.434	380.92
500.868	331.77
501.301	317.73
501.734	341.13
502.168	280.28
502.601	341.13
503.034	266.24
503.467	282.62
503.9	322.41
504.333	287.3
504.766	341.13
505.199	364.54
505.632	301.34
506.064	313.05
506.497	322.41
506.93	345.81
507.362	282.62
507.795	282.62
508.227	350.5
508.66	327.09
509.092	371.56
509.524	291.98
509.956	366.88
510.389	327.09
510.821	390.28
511.253	280.28
511.685	352.84
512.117	315.39
512.549	282.62
512.981	280.28
513.412	338.79
513.844	373.9
514.276	359.86
514.707	343.47
515.139	343.47
515.571	338.79
516.002	306.03
516.433	317.73
516.865	303.68
517.296	331.77
517.727	343.47
518.159	355.18
518.59	399.65
519.021	341.13
519.452	308.37
519.883	294.32
520.314	352.84
520.744	289.64
521.175	341.13
521.606	348.15
522.037	345.81
522.467	369.22
522.898	343.47
523.328	336.45
523.759	362.2
524.189	315.39
524.62	247.51
525.05	294.32
525.48	404.33
525.91	313.05
526.341	284.96
526.771	364.54
527.201	322.41
527.631	352.84
528.061	299
528.49	355.18
528.92	366.88
529.35	355.18
529.78	327.09
530.209	301.34
530.639	301.34
531.068	268.58
531.498	291.98
531.927	320.07
532.357	315.39
532.786	291.98
533.215	289.64
533.644	338.79
534.074	287.3
534.503	364.54
534.932	399.65
535.361	320.07
535.79	366.88
536.218	355.18
536.647	310.71
537.076	299
537.505	291.98
537.933	296.66
538.362	324.75
538.79	338.79
539.219	329.43
539.647	385.6
540.076	345.81
540.504	294.32
540.932	329.43
541.36	310.71
541.788	291.98
542.217	254.53
542.645	336.45
543.073	277.94
543.5	343.47
543.928	338.79
544.356	334.11
544.784	380.92
545.211	317.73
545.639	341.13
546.067	310.71
546.494	327.09
546.922	299
547.349	287.3
547.776	313.05
548.204	301.34
548.631	296.66
549.058	296.66
549.485	280.28
549.912	331.77
550.339	320.07
550.766	355.18
551.193	303.68
551.62	348.15
552.047	336.45
552.474	343.47
552.9	277.94
553.327	280.28
553.754	338.79
554.18	320.07
554.607	317.73
555.033	308.37
555.459	362.2
555.886	282.62
556.312	362.2
556.738	315.39
557.164	390.28
557.59	317.73
558.016	338.79
558.442	364.54
558.868	373.9
559.294	299
559.72	334.11
560.145	329.43
560.571	338.79
560.997	338.79
561.422	357.52
561.848	345.81
562.273	352.84
562.699	310.71
563.124	334.11
563.549	287.3
563.974	282.62
564.4	317.73
564.825	334.11
565.25	308.37
565.675	275.6
566.1	263.9
566.525	277.94
566.95	303.68
567.374	362.2
567.799	313.05
568.224	338.79
568.648	364.54
569.073	378.58
569.497	270.92
569.922	270.92
570.346	287.3
570.771	376.24
571.195	336.45
571.619	343.47
572.043	329.43
572.467	284.96
572.891	385.6
573.315	348.15
573.739	313.05
574.163	357.52
574.587	327.09
575.011	296.66
575.435	362.2
575.858	284.96
576.282	310.71
576.705	343.47
577.129	327.09
577.552	369.22
577.976	313.05
578.399	273.26
578.822	392.62
579.245	291.98
579.669	336.45
580.092	280.28
580.515	366.88
580.938	338.79
581.361	329.43
581.784	268.58
582.206	277.94
582.629	348.15
583.052	291.98
583.474	291.98
583.897	364.54
584.32	345.81
584.742	380.92
585.165	352.84
585.587	362.2
586.009	338.79
586.431	334.11
586.854	303.68
587.276	289.64
587.698	327.09
588.12	362.2
588.542	322.41
588.964	336.45
589.386	338.79
589.807	329.43
590.229	308.37
590.651	336.45
591.073	399.65
591.494	315.39
591.916	366.88
592.337	306.03
592.759	240.49
593.18	317.73
593.601	317.73
594.022	352.84
594.444	341.13
594.865	341.13
595.286	324.75
595.707	301.34
596.128	364.54
596.549	317.73
596.97	303.68
597.39	289.64
597.811	371.56
598.232	357.52
598.652	249.85
599.073	284.96
599.494	320.07
599.914	364.54
600.334	343.47
600.755	331.77
601.175	308.37
601.595	310.71
602.015	310.71
602.436	270.92
602.856	490.93
603.276	245.17
603.696	324.75
604.115	296.66
604.535	338.79
604.955	369.22
605.375	380.92
605.794	378.58
606.214	341.13
606.634	357.52
607.053	313.05
607.473	359.86
607.892	313.05
608.311	345.81
608.731	291.98
609.15	369.22
609.569	383.26
609.988	331.77
610.407	329.43
610.826	315.39
611.245	378.58
611.664	357.52
612.083	359.86
612.501	320.07
612.92	359.86
613.339	308.37
613.757	254.53
614.176	355.18
614.594	338.79
615.013	313.05
615.431	310.71
615.85	296.66
616.268	301.34
616.686	348.15
617.104	350.5
617.522	315.39
617.94	331.77
618.358	320.07
618.776	245.17
619.194	350.5
619.612	303.68
620.03	331.77
620.447	320.07
620.865	348.15
621.282	327.09
621.7	341.13
622.117	397.31
622.535	362.2
622.952	338.79
623.369	334.11
623.787	336.45
624.204	341.13
624.621	270.92
625.038	362.2
625.455	369.22
625.872	301.34
626.289	345.81
626.706	315.39
627.123	284.96
627.539	378.58
627.956	268.58
628.373	338.79
628.789	350.5
629.206	331.77
629.622	284.96
630.038	322.41
630.455	371.56
630.871	378.58
631.287	256.87
631.703	341.13
632.12	378.58
632.536	401.99
632.952	331.77
633.368	303.68
633.783	322.41
634.199	294.32
634.615	357.52
635.031	373.9
635.446	341.13
635.862	420.71
636.277	359.86
636.693	352.84
637.108	301.34
637.524	425.39
637.939	376.24
638.354	308.37
638.77	359.86
639.185	394.97
639.6	308.37
640.015	329.43
640.43	310.71
640.845	373.9
641.259	320.07
641.674	315.39
642.089	376.24
642.504	320.07
642.918	324.75
643.333	329.43
643.747	303.68
644.162	259.21
644.576	273.26
644.991	345.81
645.405	334.11
645.819	355.18
646.233	383.26
646.647	291.98
647.061	343.47
647.475	327.09
647.889	291.98
648.303	329.43
648.717	329.43
649.131	313.05
649.545	301.34
649.958	329.43
650.372	320.07
650.785	306.03
651.199	392.62
651.612	348.15
652.026	273.26
652.439	357.52
652.852	284.96
653.266	348.15
653.679	282.62
654.092	277.94
654.505	348.15
654.918	327.09
655.331	348.15
655.744	343.47
656.156	397.31
656.569	301.34
656.982	273.26
657.394	352.84
657.807	345.81
658.22	341.13
658.632	338.79
659.044	282.62
659.457	341.13
659.869	315.39
660.281	392.62
660.693	320.07
661.106	306.03
661.518	345.81
661.93	341.13
662.342	338.79
662.754	320.07
663.165	336.45
663.577	310.71
663.989	317.73
664.401	352.84
664.812	343.47
665.224	277.94
665.635	263.9
666.047	371.56
666.458	280.28
666.869	308.37
667.281	331.77
667.692	334.11
668.103	327.09
668.514	291.98
668.925	306.03
669.336	327.09
669.747	303.68
670.158	329.43
670.569	301.34
670.979	350.5
671.39	296.66
671.801	345.81
672.211	334.11
672.622	301.34
673.032	355.18
673.443	303.68
673.853	287.3
674.263	256.87
674.674	277.94
675.084	348.15
675.494	303.68
675.904	280.28
676.314	364.54
676.724	266.24
677.134	376.24
677.544	378.58
677.953	310.71
678.363	338.79
678.773	359.86
679.182	315.39
679.592	401.99
680.001	320.07
680.411	352.84
680.82	289.64
681.23	383.26
681.639	315.39
682.048	338.79
682.457	355.18
682.866	371.56
683.275	418.37
683.684	364.54
684.093	306.03
684.502	273.26
684.911	322.41
685.32	373.9
685.728	366.88
686.137	336.45
686.546	306.03
686.954	378.58
687.363	329.43
687.771	338.79
688.179	324.75
688.588	336.45
688.996	359.86
689.404	301.34
689.812	263.9
690.22	336.45
690.628	376.24
691.036	364.54
691.444	338.79
691.852	310.71
692.26	371.56
692.667	357.52
693.075	282.62
693.483	306.03
693.89	315.39
694.298	359.86
694.705	301.34
695.112	343.47
695.52	341.13
695.927	331.77
696.334	364.54
696.741	334.11
697.148	327.09
697.555	308.37
697.962	294.32
698.369	296.66
698.776	270.92
699.183	306.03
699.59	348.15
699.996	336.45
700.403	327.09
700.81	320.07
701.216	331.77
701.623	301.34
702.029	310.71
702.435	385.6
702.842	352.84
703.248	359.86
703.654	296.66
704.06	291.98
704.466	320.07
704.872	322.41
705.278	341.13
705.684	336.45
706.09	352.84
706.496	301.34
706.901	327.09
707.307	341.13
707.712	348.15
708.118	336.45
708.523	343.47
708.929	348.15
709.334	350.5
709.74	320.07
710.145	315.39
710.55	299
710.955	329.43
711.36	359.86
711.765	287.3
712.17	331.77
712.575	315.39
712.98	849.03
713.385	303.68
713.789	336.45
714.194	350.5
714.599	327.09
715.003	299
715.408	294.32
715.812	320.07
716.217	317.73
716.621	320.07
717.025	320.07
717.429	317.73
717.833	226.45
718.238	306.03
718.642	306.03
719.046	287.3
719.449	296.66
719.853	320.07
720.257	336.45
720.661	331.77
721.065	331.77
721.468	317.73
721.872	338.79
722.275	329.43
722.679	294.32
723.082	270.92
723.485	277.94
723.889	320.07
724.292	338.79
724.695	327.09
725.098	320.07
725.501	313.05
725.904	338.79
726.307	291.98
726.71	301.34
727.113	324.75
727.516	303.68
727.918	315.39
728.321	348.15
728.724	296.66
729.126	322.41
729.529	327.09
729.931	303.68
730.333	301.34
730.736	303.68
731.138	303.68
731.54	343.47
731.942	336.45
732.344	240.49
732.746	331.77
733.148	364.54
733.55	322.41
733.952	254.53
734.354	275.6
734.756	289.64
735.157	320.07
735.559	313.05
735.96	287.3
736.362	322.41
736.763	334.11
737.165	334.11
737.566	289.64
737.967	317.73
738.368	317.73
738.77	336.45
739.171	284.96
739.572	306.03
739.973	357.52
740.374	352.84
740.774	315.39
741.175	327.09
741.576	252.19
741.977	301.34
742.377	373.9
742.778	266.24
743.178	362.2
743.579	296.66
743.979	310.71
744.379	348.15
744.78	284.96
745.18	303.68
745.58	327.09
745.98	291.98
746.38	324.75
746.78	284.96
747.18	228.79
747.58	291.98
747.98	296.66
748.38	322.41
748.779	364.54
749.179	345.81
749.578	348.15
749.978	345.81
750.377	350.5
750.777	277.94
751.176	273.26
751.575	249.85
751.975	362.2
752.374	341.13
752.773	266.24
753.172	334.11
753.571	299
753.97	284.96
754.369	345.81
754.768	322.41
755.166	317.73
755.565	362.2
755.964	303.68
756.362	334.11
756.761	280.28
757.159	376.24
757.558	308.37
757.956	313.05
758.354	359.86
758.753	376.24
759.151	324.75
759.549	362.2
759.947	345.81
760.345	355.18
760.743	348.15
761.141	331.77
761.539	299
761.936	366.88
762.334	334.11
762.732	394.97
763.129	322.41
763.527	362.2
763.924	343.47
764.322	284.96
764.719	413.69
765.117	350.5
765.514	275.6
765.911	322.41
766.308	322.41
766.705	277.94
767.102	331.77
767.499	327.09
767.896	373.9
768.293	336.45
768.69	336.45
769.086	294.32
769.483	296.66
769.88	315.39
770.276	310.71
770.673	301.34
771.069	327.09
771.466	308.37
771.862	266.24
772.258	273.26
772.654	352.84
773.05	245.17
773.447	399.65
773.843	280.28
774.239	329.43
774.634	331.77
775.03	348.15
775.426	327.09
775.822	366.88
776.218	371.56
776.613	359.86
777.009	352.84
777.404	357.52
777.8	343.47
778.195	322.41
778.59	341.13
778.986	284.96
779.381	306.03
779.776	256.87
780.171	317.73
780.566	247.51
780.961	383.26
781.356	331.77
781.751	294.32
782.146	343.47
782.54	350.5
782.935	301.34
783.33	280.28
783.724	289.64
784.119	327.09
784.513	303.68
784.908	315.39
785.302	352.84
785.696	277.94
786.09	306.03
786.485	308.37
786.879	373.9
787.273	303.68
787.667	289.64
788.061	327.09
788.454	291.98
788.848	371.56
789.242	317.73
789.636	306.03
790.029	306.03
790.423	245.17
790.816	284.96
791.21	310.71
791.603	369.22
791.997	294.32
792.39	324.75
792.783	336.45
793.176	277.94
793.569	331.77
793.962	331.77
794.355	336.45
794.748	291.98
795.141	341.13
795.534	275.6
795.927	280.28
796.319	291.98
796.712	329.43
797.105	228.79
797.497	341.13
797.89	263.9
798.282	343.47
798.674	291.98
799.067	308.37
799.459	383.26
799.851	296.66
800.243	322.41
800.635	376.24
801.027	418.37
801.419	334.11
801.811	364.54
802.203	327.09
802.594	268.58
802.986	303.68
803.378	350.5
803.769	310.71
804.161	334.11
804.552	373.9
804.944	331.77
805.335	369.22
805.726	343.47
806.118	275.6
806.509	320.07
806.9	355.18
807.291	341.13
807.682	299
808.073	313.05
808.464	315.39
808.855	343.47
809.245	299
809.636	310.71
810.027	308.37
810.417	280.28
810.808	266.24
811.198	310.71
811.589	334.11
811.979	334.11
812.369	380.92
812.759	289.64
813.15	296.66
813.54	322.41
813.93	280.28
814.32	303.68
814.71	320.07
815.1	247.51
815.489	369.22
815.879	376.24
816.269	327.09
816.658	334.11
817.048	317.73
817.438	331.77
817.827	380.92
818.216	362.2
818.606	294.32
818.995	282.62
819.384	303.68
819.773	345.81
820.163	256.87
820.552	252.19
820.941	315.39
821.33	359.86
821.718	273.26
822.107	308.37
822.496	338.79
822.885	299
823.273	331.77
823.662	277.94
824.05	338.79
824.439	282.62
824.827	315.39
825.216	280.28
825.604	336.45
825.992	352.84
826.38	338.79
826.768	303.68
827.156	357.52
827.544	306.03
827.932	336.45
828.32	362.2
828.708	350.5
829.096	343.47
829.483	369.22
829.871	291.98
830.259	317.73
830.646	322.41
831.034	303.68
831.421	345.81
831.808	324.75
832.196	296.66
832.583	261.55
832.97	331.77
833.357	301.34
833.744	355.18
834.131	327.09
834.518	320.07
834.905	336.45
835.292	334.11
835.678	306.03
836.065	352.84
836.452	324.75
836.838	268.58
837.225	299
837.611	256.87
837.998	270.92
838.384	341.13
838.77	294.32
839.157	310.71
839.543	369.22
839.929	254.53
840.315	355.18
840.701	355.18
841.087	376.24
841.473	336.45
841.858	343.47
842.244	273.26
842.63	315.39
843.015	301.34
843.401	526.04
843.787	313.05
844.172	324.75
844.557	294.32
844.943	291.98
845.328	357.52
845.713	275.6
846.098	364.54
846.483	331.77
846.868	334.11
847.253	254.53
847.638	308.37
848.023	338.79
848.408	341.13
848.793	289.64
849.177	352.84
849.562	291.98
849.947	338.79
850.331	284.96
850.715	376.24
851.1	331.77
851.484	306.03
851.868	282.62
852.253	317.73
852.637	362.2
853.021	275.6
853.405	322.41
853.789	306.03
854.173	348.15
854.557	364.54
854.94	378.58
855.324	355.18
855.708	383.26
856.091	362.2
856.475	306.03
856.858	359.86
857.242	338.79
857.625	315.39
858.009	313.05
858.392	327.09
858.775	308.37
859.158	376.24
859.541	322.41
859.924	252.19
860.307	320.07
860.69	296.66
861.073	338.79
861.456	322.41
861.838	287.3
862.221	310.71
862.604	284.96
862.986	315.39
863.369	345.81
863.751	327.09
864.133	310.71
864.516	270.92
864.898	331.77
865.28	315.39
865.662	240.49
866.044	282.62
866.426	310.71
866.808	345.81
867.19	322.41
867.572	313.05
867.954	259.21
868.336	282.62
868.717	310.71
869.099	299
869.48	373.9
869.862	341.13
870.243	357.52
870.625	366.88
871.006	301.34
871.387	273.26
871.768	355.18
872.149	315.39
872.53	371.56
872.911	329.43
873.292	296.66
873.673	259.21
874.054	247.51
874.435	369.22
874.815	324.75
875.196	313.05
875.577	331.77
875.957	359.86
876.338	350.5
876.718	350.5
877.098	416.03
877.479	350.5
877.859	308.37
878.239	322.41
878.619	317.73
878.999	392.62
879.379	341.13
879.759	366.88
880.139	373.9
880.519	306.03
880.898	324.75
881.278	336.45
881.658	310.71
882.037	282.62
882.417	341.13
882.796	317.73
883.176	301.34
883.555	338.79
883.934	310.71
884.313	345.81
884.693	291.98
885.072	338.79
885.451	357.52
885.83	282.62
886.209	324.75
886.587	291.98
886.966	418.37
887.345	301.34
887.724	329.43
888.102	280.28
888.481	291.98
888.859	242.83
889.238	240.49
889.616	329.43
889.994	315.39
890.373	352.84
890.751	287.3
891.129	308.37
891.507	273.26
891.885	378.58
892.263	317.73
892.641	336.45
893.019	329.43
893.396	329.43
893.774	289.64
894.152	394.97
894.529	362.2
894.907	301.34
895.284	315.39
895.662	306.03
896.039	348.15
896.416	387.94
896.794	254.53
897.171	233.47
897.548	313.05
897.925	338.79
898.302	350.5
898.679	338.79
899.056	334.11
899.433	247.51
899.809	287.3
900.186	308.37
900.563	254.53
900.939	364.54
901.316	331.77
901.692	252.19
902.069	338.79
902.445	329.43
902.821	371.56
903.197	401.99
903.574	287.3
903.95	301.34
904.326	301.34
904.702	270.92
905.078	362.2
905.454	252.19
905.829	301.34
906.205	291.98
906.581	324.75
906.956	284.96
907.332	380.92
907.707	320.07
908.083	334.11
908.458	341.13
908.833	247.51
909.209	369.22
909.584	315.39
909.959	364.54
910.334	336.45
910.709	322.41
911.084	322.41
911.459	252.19
911.834	352.84
912.209	277.94
912.583	345.81
912.958	341.13
913.333	277.94
913.707	289.64
914.082	327.09
914.456	334.11
914.83	266.24
915.205	359.86
915.579	352.84
915.953	352.84
916.327	317.73
916.701	317.73
917.075	331.77
917.449	270.92
917.823	252.19
918.197	399.65
918.571	268.58
918.944	327.09
919.318	296.66
919.692	235.81
920.065	355.18
920.438	364.54
920.812	329.43
921.185	364.54
921.558	338.79
921.932	301.34
922.305	334.11
922.678	301.34
923.051	362.2
923.424	296.66
923.797	320.07
924.17	252.19
924.542	343.47
924.915	341.13
925.288	299
925.661	301.34
926.033	338.79
926.406	289.64
926.778	331.77
927.15	385.6
927.523	320.07
927.895	287.3
928.267	282.62
928.639	378.58
929.011	254.53
929.383	320.07
929.755	364.54
930.127	291.98
930.499	303.68
930.871	320.07
931.242	390.28
931.614	282.62
931.986	291.98
932.357	266.24
932.729	357.52
933.1	341.13
933.471	310.71
933.843	287.3
934.214	331.77
934.585	329.43
934.956	275.6
935.327	282.62
935.698	355.18
936.069	308.37
936.44	320.07
936.811	313.05
937.182	287.3
937.552	291.98
937.923	343.47
938.293	301.34
938.664	275.6
939.034	373.9
939.405	371.56
939.775	341.13
940.145	320.07
940.516	327.09
940.886	320.07
941.256	294.32
941.626	322.41
941.996	306.03
942.366	291.98
942.735	282.62
943.105	317.73
943.475	313.05
943.845	308.37
944.214	306.03
944.584	320.07
944.953	296.66
945.323	341.13
945.692	310.71
946.061	308.37
946.43	296.66
946.8	275.6
947.169	341.13
947.538	334.11
947.907	310.71
948.276	355.18
948.645	322.41
949.013	313.05
949.382	294.32
949.751	334.11
950.119	343.47
950.488	303.68
950.857	331.77
951.225	322.41
951.593	331.77
951.962	336.45
952.33	284.96
952.698	341.13
953.066	406.67
953.434	317.73
953.802	348.15
954.17	275.6
954.538	317.73
954.906	266.24
955.274	315.39
955.642	301.34
956.009	294.32
956.377	352.84
956.744	299
957.112	369.22
957.479	315.39
957.847	317.73
958.214	327.09
958.581	366.88
958.948	364.54
959.315	289.64
959.683	273.26
960.05	343.47
960.416	338.79
960.783	329.43
961.15	343.47
961.517	343.47
961.884	359.86
962.25	348.15
962.617	338.79
962.983	313.05
963.35	327.09
963.716	261.55
964.082	320.07
964.449	348.15
964.815	299
965.181	310.71
965.547	301.34
965.913	263.9
966.279	249.85
966.645	306.03
967.011	320.07
967.377	348.15
967.742	310.71
968.108	275.6
968.474	308.37
968.839	282.62
969.205	329.43
969.57	306.03
969.935	331.77
970.301	287.3
970.666	306.03
971.031	338.79
971.396	289.64
971.761	336.45
972.126	284.96
972.491	280.28
972.856	282.62
973.221	338.79
973.586	282.62
973.95	355.18
974.315	268.58
974.679	287.3
975.044	310.71
975.408	324.75
975.773	296.66
976.137	275.6
976.501	308.37
976.866	348.15
977.23	331.77
977.594	331.77
977.958	284.96
978.322	296.66
978.686	348.15
979.049	331.77
979.413	313.05
979.777	341.13
980.141	303.68
980.504	348.15
980.868	345.81
981.231	275.6
981.595	364.54
981.958	280.28
982.321	315.39
982.684	296.66
983.048	345.81
983.411	338.79
983.774	338.79
984.137	284.96
984.5	313.05
984.862	296.66
985.225	357.52
985.588	352.84
985.951	313.05
986.313	355.18
986.676	369.22
987.038	320.07
987.401	345.81
987.763	350.5
988.125	282.62
988.488	341.13
988.85	380.92
989.212	282.62
989.574	327.09
989.936	357.52
990.298	327.09
990.66	350.5
991.022	320.07
991.383	324.75
991.745	324.75
992.107	352.84
992.468	266.24
992.83	352.84
993.191	359.86
993.553	364.54
993.914	261.55
994.275	327.09
994.637	317.73
994.998	359.86
995.359	338.79
995.72	404.33
996.081	282.62
996.442	371.56
996.803	299
997.163	282.62
997.524	306.03
997.885	306.03
998.245	336.45
998.606	324.75
998.966	282.62
999.327	341.13
999.687	280.28
1000.047	324.75
1000.408	280.28
1000.768	310.71
1001.128	336.45
1001.488	306.03
1001.848	303.68
1002.208	306.03
1002.568	291.98
1002.927	362.2
1003.287	205.38
1003.647	317.73
1004.007	294.32
1004.366	324.75
1004.726	280.28
1005.085	254.53
1005.444	357.52
1005.804	284.96
1006.163	336.45
1006.522	310.71
1006.881	315.39
1007.24	203.04
1007.599	378.58
1007.958	334.11
1008.317	315.39
1008.676	327.09
1009.035	350.5
1009.393	350.5
1009.752	331.77
1010.111	303.68
1010.469	315.39
1010.828	299
1011.186	331.77
1011.544	308.37
1011.903	327.09
1012.261	322.41
1012.619	291.98
1012.977	294.32
1013.335	352.84
1013.693	352.84
1014.051	355.18
1014.409	282.62
1014.767	317.73
1015.124	313.05
1015.482	294.32
1015.84	329.43
1016.197	273.26
1016.555	362.2
1016.912	317.73
1017.269	299
1017.627	296.66
1017.984	320.07
1018.341	345.81
1018.698	324.75
1019.055	310.71
1019.412	359.86
1019.769	273.26
1020.126	301.34
1020.483	345.81
1020.84	259.21
1021.196	299
1021.553	399.65
1021.909	334.11
1022.266	277.94
1022.622	303.68
1022.979	334.11
1023.335	331.77
1023.691	327.09
1024.047	256.87
1024.404	345.81
1024.76	317.73
1025.116	289.64
1025.472	338.79
1025.827	327.09
1026.183	291.98
1026.539	357.52
1026.895	348.15
1027.25	203.04
1027.606	362.2
1027.961	366.88
1028.317	268.58
1028.672	259.21
1029.028	289.64
1029.383	341.13
1029.738	357.52
1030.093	369.22
1030.448	345.81
1030.803	329.43
1031.158	336.45
1031.513	240.49
1031.868	327.09
1032.223	315.39
1032.577	245.17
1032.932	306.03
1033.287	317.73
1033.641	366.88
1033.996	327.09
1034.35	310.71
1034.704	317.73
1035.059	334.11
1035.413	306.03
1035.767	306.03
1036.121	306.03
