Data from Al_FLMS009871__911__16-18-08-823.txt Node

Date: Fri Mar 08 16:18:08 CST 2024
User: pe5414po
Spectrometer: FLMS00987
Trigger mode: 0
Integration Time (sec): 1.000000E-1
Scans to average: 1
Electric dark correction enabled: true
Nonlinearity correction enabled: false
Boxcar width: 0
XAxis mode: Wavelengths
Number of Pixels in Spectrum: 2048
>>>>>Begin Spectral Data<<<<<
188.938	-31.45
189.409	-31.45
189.879	-31.45
190.349	-99.33
190.819	-153.16
191.29	-40.81
191.76	-104.01
192.23	-80.6
192.7	-80.6
193.17	-68.9
193.64	-54.86
194.109	-22.09
194.579	-47.83
195.049	3.66
195.519	-17.41
195.988	-5.71
196.458	108.98
196.927	29.4
197.397	92.6
197.866	167.49
198.336	120.68
198.805	113.66
199.274	204.94
199.744	151.11
200.213	230.69
200.682	211.96
201.151	223.67
201.62	249.41
202.089	176.86
202.558	174.52
203.027	277.5
203.495	291.54
203.964	244.73
204.433	230.69
204.902	244.73
205.37	282.18
205.839	279.84
206.307	261.12
206.776	296.22
207.244	256.43
207.712	270.48
208.181	263.46
208.649	286.86
209.117	314.95
209.585	340.69
210.053	249.41
210.521	242.39
210.989	310.27
211.457	221.33
211.925	293.88
212.393	291.54
212.861	263.46
213.328	321.97
213.796	296.22
214.264	270.48
214.731	237.71
215.199	256.43
215.666	237.71
216.133	272.82
216.601	277.5
217.068	251.75
217.535	270.48
218.003	284.52
218.47	242.39
218.937	240.05
219.404	226.01
219.871	300.91
220.338	256.43
220.805	291.54
221.271	263.46
221.738	209.62
222.205	242.39
222.671	190.9
223.138	270.48
223.605	293.88
224.071	279.84
224.538	268.14
225.004	275.16
225.47	268.14
225.937	270.48
226.403	197.92
226.869	230.69
227.335	223.67
227.801	296.22
228.267	221.33
228.733	293.88
229.199	254.09
229.665	254.09
230.131	249.41
230.597	249.41
231.062	200.26
231.528	218.99
231.994	256.43
232.459	268.14
232.925	310.27
233.39	364.1
233.856	261.12
234.321	279.84
234.786	282.18
235.252	275.16
235.717	244.73
236.182	244.73
236.647	300.91
237.112	284.52
237.577	265.8
238.042	270.48
238.507	256.43
238.972	307.93
239.436	223.67
239.901	307.93
240.366	286.86
240.83	251.75
241.295	235.37
241.76	314.95
242.224	221.33
242.688	268.14
243.153	282.18
243.617	251.75
244.081	254.09
244.545	240.05
245.01	324.31
245.474	298.56
245.938	202.6
246.402	256.43
246.866	300.91
247.33	310.27
247.793	263.46
248.257	286.86
248.721	275.16
249.185	279.84
249.648	247.07
250.112	223.67
250.575	226.01
251.039	228.35
251.502	305.59
251.965	312.61
252.429	272.82
252.892	317.29
253.355	336.01
253.818	216.65
254.281	298.56
254.744	364.1
255.207	291.54
255.67	277.5
256.133	228.35
256.596	296.22
257.059	343.03
257.522	270.48
257.984	272.82
258.447	298.56
258.909	216.65
259.372	221.33
259.834	240.05
260.297	214.31
260.759	305.59
261.221	312.61
261.684	310.27
262.146	310.27
262.608	197.92
263.07	235.37
263.532	279.84
263.994	237.71
264.456	312.61
264.918	284.52
265.38	284.52
265.842	310.27
266.303	251.75
266.765	279.84
267.227	303.25
267.688	307.93
268.15	233.03
268.611	282.18
269.072	286.86
269.534	298.56
269.995	272.82
270.456	249.41
270.918	303.25
271.379	305.59
271.84	230.69
272.301	307.93
272.762	226.01
273.223	303.25
273.684	258.78
274.144	300.91
274.605	291.54
275.066	233.03
275.527	321.97
275.987	310.27
276.448	289.2
276.908	279.84
277.369	328.99
277.829	321.97
278.289	321.97
278.75	282.18
279.21	282.18
279.67	247.07
280.13	350.06
280.59	321.97
281.05	336.01
281.51	307.93
281.97	275.16
282.43	307.93
282.89	326.65
283.35	314.95
283.809	328.99
284.269	303.25
284.729	310.27
285.188	319.63
285.648	291.54
286.107	284.52
286.567	275.16
287.026	326.65
287.485	284.52
287.944	223.67
288.404	223.67
288.863	275.16
289.322	300.91
289.781	256.43
290.24	310.27
290.699	291.54
291.158	251.75
291.616	289.2
292.075	275.16
292.534	284.52
292.992	321.97
293.451	286.86
293.91	249.41
294.368	298.56
294.827	345.38
295.285	312.61
295.743	328.99
296.202	310.27
296.66	282.18
297.118	305.59
297.576	284.52
298.034	242.39
298.492	303.25
298.95	265.8
299.408	277.5
299.866	345.38
300.324	347.72
300.781	275.16
301.239	233.03
301.697	268.14
302.154	291.54
302.612	270.48
303.069	251.75
303.527	314.95
303.984	268.14
304.441	326.65
304.899	310.27
305.356	258.78
305.813	314.95
306.27	361.76
306.727	282.18
307.184	223.67
307.641	282.18
308.098	268.14
308.555	268.14
309.012	340.69
309.468	328.99
309.925	298.56
310.382	338.35
310.838	277.5
311.295	247.07
311.751	317.29
312.208	347.72
312.664	284.52
313.12	319.63
313.577	298.56
314.033	347.72
314.489	331.33
314.945	298.56
315.401	293.88
315.857	300.91
316.313	251.75
316.769	261.12
317.225	347.72
317.681	270.48
318.136	270.48
318.592	291.54
319.048	291.54
319.503	261.12
319.959	263.46
320.414	347.72
320.869	279.84
321.325	251.75
321.78	249.41
322.235	261.12
322.691	312.61
323.146	343.03
323.601	258.78
324.056	338.35
324.511	235.37
324.966	331.33
325.421	300.91
325.875	263.46
326.33	303.25
326.785	298.56
327.24	275.16
327.694	265.8
328.149	228.35
328.603	312.61
329.058	352.4
329.512	265.8
329.966	331.33
330.421	275.16
330.875	340.69
331.329	314.95
331.783	289.2
332.237	265.8
332.691	336.01
333.145	265.8
333.599	357.08
334.053	338.35
334.507	261.12
334.96	296.22
335.414	293.88
335.868	378.14
336.321	293.88
336.775	268.14
337.228	254.09
337.682	350.06
338.135	317.29
338.588	303.25
339.042	296.22
339.495	247.07
339.948	293.88
340.401	286.86
340.854	284.52
341.307	296.22
341.76	345.38
342.213	293.88
342.666	226.01
343.119	354.74
343.571	310.27
344.024	296.22
344.477	307.93
344.929	336.01
345.382	319.63
345.834	289.2
346.287	352.4
346.739	268.14
347.191	328.99
347.644	284.52
348.096	282.18
348.548	272.82
349	268.14
349.452	317.29
349.904	321.97
350.356	256.43
350.808	312.61
351.26	314.95
351.711	291.54
352.163	256.43
352.615	298.56
353.066	303.25
353.518	319.63
353.969	326.65
354.421	209.62
354.872	371.12
355.324	307.93
355.775	237.71
356.226	300.91
356.677	298.56
357.128	249.41
357.579	305.59
358.03	307.93
358.481	265.8
358.932	314.95
359.383	305.59
359.834	282.18
360.285	296.22
360.735	251.75
361.186	305.59
361.637	244.73
362.087	256.43
362.538	282.18
362.988	282.18
363.438	282.18
363.889	265.8
364.339	312.61
364.789	242.39
365.239	303.25
365.689	303.25
366.139	354.74
366.589	256.43
367.039	314.95
367.489	279.84
367.939	284.52
368.389	268.14
368.839	265.8
369.288	375.8
369.738	300.91
370.187	350.06
370.637	310.27
371.086	317.29
371.536	317.29
371.985	298.56
372.434	336.01
372.884	321.97
373.333	282.18
373.782	319.63
374.231	282.18
374.68	324.31
375.129	331.33
375.578	312.61
376.027	359.42
376.475	312.61
376.924	380.48
377.373	321.97
377.822	340.69
378.27	350.06
378.719	242.39
379.167	357.08
379.616	382.82
380.064	321.97
380.512	293.88
380.961	286.86
381.409	289.2
381.857	324.31
382.305	284.52
382.753	214.31
383.201	249.41
383.649	314.95
384.097	310.27
384.545	270.48
384.992	328.99
385.44	338.35
385.888	277.5
386.335	284.52
386.783	314.95
387.231	247.07
387.678	275.16
388.125	305.59
388.573	354.74
389.02	310.27
389.467	345.38
389.914	364.1
390.362	366.44
390.809	347.72
391.256	336.01
391.703	314.95
392.15	305.59
392.596	256.43
393.043	331.33
393.49	286.86
393.937	324.31
394.383	338.35
394.83	307.93
395.276	321.97
395.723	300.91
396.169	300.91
396.616	345.38
397.062	277.5
397.508	284.52
397.954	340.69
398.401	336.01
398.847	310.27
399.293	282.18
399.739	321.97
400.185	293.88
400.631	277.5
401.076	312.61
401.522	289.2
401.968	336.01
402.414	251.75
402.859	324.31
403.305	275.16
403.75	343.03
404.196	310.27
404.641	310.27
405.086	258.78
405.532	350.06
405.977	268.14
406.422	270.48
406.867	317.29
407.312	291.54
407.757	298.56
408.202	244.73
408.647	291.54
409.092	300.91
409.537	354.74
409.982	282.18
410.426	233.03
410.871	312.61
411.316	223.67
411.76	319.63
412.205	326.65
412.649	244.73
413.093	364.1
413.538	300.91
413.982	317.29
414.426	338.35
414.87	312.61
415.314	263.46
415.758	289.2
416.202	347.72
416.646	326.65
417.09	326.65
417.534	321.97
417.978	286.86
418.421	359.42
418.865	314.95
419.309	277.5
419.752	359.42
420.196	333.67
420.639	298.56
421.083	277.5
421.526	296.22
421.969	317.29
422.412	361.76
422.856	240.05
423.299	296.22
423.742	249.41
424.185	314.95
424.628	291.54
425.071	361.76
425.513	249.41
425.956	300.91
426.399	324.31
426.842	331.33
427.284	300.91
427.727	272.82
428.169	354.74
428.612	324.31
429.054	331.33
429.497	284.52
429.939	303.25
430.381	300.91
430.823	258.78
431.265	312.61
431.707	265.8
432.149	284.52
432.591	303.25
433.033	272.82
433.475	340.69
433.917	321.97
434.359	298.56
434.8	331.33
435.242	340.69
435.684	312.61
436.125	350.06
436.567	305.59
437.008	378.14
437.449	307.93
437.891	270.48
438.332	354.74
438.773	310.27
439.214	382.82
439.656	333.67
440.097	300.91
440.538	277.5
440.978	284.52
441.419	347.72
441.86	314.95
442.301	303.25
442.742	282.18
443.182	293.88
443.623	303.25
444.063	371.12
444.504	284.52
444.944	293.88
445.385	270.48
445.825	331.33
446.265	286.86
446.706	368.78
447.146	336.01
447.586	291.54
448.026	354.74
448.466	296.22
448.906	312.61
449.346	338.35
449.786	340.69
450.225	347.72
450.665	333.67
451.105	312.61
451.544	275.16
451.984	312.61
452.424	378.14
452.863	221.33
453.302	378.14
453.742	326.65
454.181	293.88
454.62	275.16
455.059	328.99
455.499	265.8
455.938	249.41
456.377	289.2
456.816	270.48
457.254	307.93
457.693	298.56
458.132	282.18
458.571	347.72
459.01	240.05
459.448	352.4
459.887	272.82
460.325	326.65
460.764	340.69
461.202	338.35
461.641	296.22
462.079	284.52
462.517	314.95
462.955	312.61
463.393	298.56
463.832	314.95
464.27	303.25
464.708	314.95
465.145	303.25
465.583	333.67
466.021	343.03
466.459	289.2
466.897	310.27
467.334	359.42
467.772	343.03
468.209	352.4
468.647	319.63
469.084	326.65
469.522	331.33
469.959	235.37
470.396	324.31
470.833	312.61
471.271	328.99
471.708	312.61
472.145	270.48
472.582	277.5
473.019	317.29
473.456	321.97
473.892	293.88
474.329	328.99
474.766	333.67
475.202	333.67
475.639	350.06
476.076	392.19
476.512	336.01
476.949	258.78
477.385	300.91
477.821	279.84
478.258	291.54
478.694	319.63
479.13	333.67
479.566	275.16
480.002	357.08
480.438	293.88
480.874	350.06
481.31	258.78
481.746	373.46
482.181	317.29
482.617	307.93
483.053	298.56
483.488	333.67
483.924	361.76
484.36	343.03
484.795	333.67
485.23	319.63
485.666	338.35
486.101	347.72
486.536	277.5
486.971	268.14
487.407	256.43
487.842	373.46
488.277	275.16
488.712	328.99
489.146	291.54
489.581	275.16
490.016	296.22
490.451	331.33
490.885	317.29
491.32	326.65
491.755	298.56
492.189	328.99
492.624	284.52
493.058	282.18
493.492	263.46
493.927	291.54
494.361	256.43
494.795	270.48
495.229	289.2
495.663	382.82
496.097	345.38
496.531	270.48
496.965	319.63
497.399	347.72
497.833	240.05
498.266	319.63
498.7	296.22
499.134	331.33
499.567	307.93
500.001	263.46
500.434	242.39
500.868	347.72
501.301	298.56
501.734	286.86
502.168	298.56
502.601	333.67
503.034	331.33
503.467	254.09
503.9	291.54
504.333	305.59
504.766	305.59
505.199	382.82
505.632	284.52
506.064	303.25
506.497	343.03
506.93	286.86
507.362	357.08
507.795	293.88
508.227	279.84
508.66	324.31
509.092	324.31
509.524	298.56
509.956	270.48
510.389	324.31
510.821	305.59
511.253	300.91
511.685	314.95
512.117	385.16
512.549	286.86
512.981	371.12
513.412	307.93
513.844	296.22
514.276	307.93
514.707	361.76
515.139	305.59
515.571	286.86
516.002	328.99
516.433	314.95
516.865	272.82
517.296	277.5
517.727	282.18
518.159	336.01
518.59	371.12
519.021	265.8
519.452	291.54
519.883	312.61
520.314	319.63
520.744	296.22
521.175	293.88
521.606	298.56
522.037	317.29
522.467	312.61
522.898	389.85
523.328	350.06
523.759	319.63
524.189	347.72
524.62	340.69
525.05	254.09
525.48	317.29
525.91	303.25
526.341	289.2
526.771	270.48
527.201	307.93
527.631	286.86
528.061	284.52
528.49	328.99
528.92	296.22
529.35	314.95
529.78	244.73
530.209	382.82
530.639	331.33
531.068	324.31
531.498	300.91
531.927	256.43
532.357	310.27
532.786	261.12
533.215	282.18
533.644	373.46
534.074	321.97
534.503	321.97
534.932	361.76
535.361	312.61
535.79	268.14
536.218	275.16
536.647	373.46
537.076	357.08
537.505	242.39
537.933	249.41
538.362	331.33
538.79	333.67
539.219	312.61
539.647	319.63
540.076	286.86
540.504	354.74
540.932	305.59
541.36	265.8
541.788	336.01
542.217	352.4
542.645	282.18
543.073	258.78
543.5	270.48
543.928	254.09
544.356	357.08
544.784	303.25
545.211	361.76
545.639	324.31
546.067	382.82
546.494	279.84
546.922	307.93
547.349	357.08
547.776	394.53
548.204	291.54
548.631	277.5
549.058	272.82
549.485	293.88
549.912	261.12
550.339	317.29
550.766	305.59
551.193	312.61
551.62	312.61
552.047	310.27
552.474	338.35
552.9	282.18
553.327	340.69
553.754	307.93
554.18	345.38
554.607	298.56
555.033	345.38
555.459	289.2
555.886	291.54
556.312	366.44
556.738	343.03
557.164	277.5
557.59	314.95
558.016	242.39
558.442	284.52
558.868	291.54
559.294	347.72
559.72	211.96
560.145	333.67
560.571	298.56
560.997	279.84
561.422	261.12
561.848	338.35
562.273	272.82
562.699	366.44
563.124	286.86
563.549	324.31
563.974	336.01
564.4	284.52
564.825	293.88
565.25	296.22
565.675	296.22
566.1	300.91
566.525	298.56
566.95	270.48
567.374	357.08
567.799	324.31
568.224	307.93
568.648	277.5
569.073	371.12
569.497	336.01
569.922	314.95
570.346	244.73
570.771	300.91
571.195	343.03
571.619	296.22
572.043	333.67
572.467	307.93
572.891	270.48
573.315	324.31
573.739	333.67
574.163	305.59
574.587	357.08
575.011	230.69
575.435	300.91
575.858	310.27
576.282	291.54
576.705	275.16
577.129	328.99
577.552	256.43
577.976	326.65
578.399	331.33
578.822	275.16
579.245	321.97
579.669	336.01
580.092	296.22
580.515	293.88
580.938	289.2
581.361	345.38
581.784	338.35
582.206	385.16
582.629	321.97
583.052	254.09
583.474	319.63
583.897	364.1
584.32	293.88
584.742	279.84
585.165	284.52
585.587	317.29
586.009	338.35
586.431	350.06
586.854	263.46
587.276	336.01
587.698	272.82
588.12	247.07
588.542	270.48
588.964	298.56
589.386	268.14
589.807	293.88
590.229	293.88
590.651	338.35
591.073	291.54
591.494	258.78
591.916	298.56
592.337	331.33
592.759	303.25
593.18	279.84
593.601	319.63
594.022	296.22
594.444	279.84
594.865	354.74
595.286	314.95
595.707	256.43
596.128	343.03
596.549	268.14
596.97	263.46
597.39	300.91
597.811	293.88
598.232	314.95
598.652	399.21
599.073	317.29
599.494	242.39
599.914	279.84
600.334	310.27
600.755	277.5
601.175	343.03
601.595	310.27
602.015	314.95
602.436	265.8
602.856	422.61
603.276	296.22
603.696	284.52
604.115	277.5
604.535	209.62
604.955	279.84
605.375	319.63
605.794	340.69
606.214	319.63
606.634	307.93
607.053	305.59
607.473	345.38
607.892	298.56
608.311	317.29
608.731	291.54
609.15	347.72
609.569	305.59
609.988	272.82
610.407	244.73
610.826	293.88
611.245	303.25
611.664	286.86
612.083	350.06
612.501	331.33
612.92	293.88
613.339	345.38
613.757	380.48
614.176	279.84
614.594	270.48
615.013	321.97
615.431	305.59
615.85	333.67
616.268	333.67
616.686	314.95
617.104	247.07
617.522	328.99
617.94	286.86
618.358	296.22
618.776	310.27
619.194	293.88
619.612	331.33
620.03	343.03
620.447	300.91
620.865	251.75
621.282	359.42
621.7	293.88
622.117	314.95
622.535	317.29
622.952	277.5
623.369	298.56
623.787	265.8
624.204	343.03
624.621	338.35
625.038	272.82
625.455	296.22
625.872	284.52
626.289	305.59
626.706	336.01
627.123	387.5
627.539	286.86
627.956	396.87
628.373	333.67
628.789	277.5
629.206	326.65
629.622	310.27
630.038	289.2
630.455	277.5
630.871	338.35
631.287	282.18
631.703	307.93
632.12	352.4
632.536	291.54
632.952	317.29
633.368	293.88
633.783	277.5
634.199	291.54
634.615	284.52
635.031	272.82
635.446	261.12
635.862	282.18
636.277	284.52
636.693	265.8
637.108	279.84
637.524	333.67
637.939	359.42
638.354	336.01
638.77	261.12
639.185	291.54
639.6	282.18
640.015	256.43
640.43	324.31
640.845	282.18
641.259	261.12
641.674	340.69
642.089	321.97
642.504	286.86
642.918	317.29
643.333	296.22
643.747	247.07
644.162	279.84
644.576	296.22
644.991	319.63
645.405	291.54
645.819	204.94
646.233	314.95
646.647	333.67
647.061	303.25
647.475	368.78
647.889	244.73
648.303	319.63
648.717	305.59
649.131	261.12
649.545	317.29
649.958	312.61
650.372	326.65
650.785	389.85
651.199	310.27
651.612	338.35
652.026	317.29
652.439	324.31
652.852	333.67
653.266	321.97
653.679	312.61
654.092	357.08
654.505	314.95
654.918	272.82
655.331	354.74
655.744	279.84
656.156	317.29
656.569	305.59
656.982	307.93
657.394	272.82
657.807	343.03
658.22	296.22
658.632	333.67
659.044	314.95
659.457	293.88
659.869	291.54
660.281	282.18
660.693	333.67
661.106	310.27
661.518	307.93
661.93	261.12
662.342	307.93
662.754	314.95
663.165	261.12
663.577	333.67
663.989	291.54
664.401	352.4
664.812	272.82
665.224	268.14
665.635	319.63
666.047	340.69
666.458	296.22
666.869	303.25
667.281	254.09
667.692	373.46
668.103	293.88
668.514	324.31
668.925	233.03
669.336	270.48
669.747	343.03
670.158	331.33
670.569	305.59
670.979	263.46
671.39	286.86
671.801	319.63
672.211	331.33
672.622	282.18
673.032	326.65
673.443	338.35
673.853	326.65
674.263	345.38
674.674	401.55
675.084	263.46
675.494	247.07
675.904	338.35
676.314	319.63
676.724	235.37
677.134	321.97
677.544	298.56
677.953	284.52
678.363	307.93
678.773	303.25
679.182	261.12
679.592	300.91
680.001	289.2
680.411	352.4
680.82	307.93
681.23	282.18
681.639	345.38
682.048	343.03
682.457	291.54
682.866	268.14
683.275	378.14
683.684	314.95
684.093	296.22
684.502	279.84
684.911	333.67
685.32	284.52
685.728	300.91
686.137	300.91
686.546	361.76
686.954	282.18
687.363	270.48
687.771	279.84
688.179	298.56
688.588	352.4
688.996	289.2
689.404	347.72
689.812	296.22
690.22	240.05
690.628	357.08
691.036	328.99
691.444	303.25
691.852	300.91
692.26	296.22
692.667	223.67
693.075	312.61
693.483	279.84
693.89	265.8
694.298	305.59
694.705	277.5
695.112	279.84
695.52	305.59
695.927	303.25
696.334	277.5
696.741	310.27
697.148	305.59
697.555	319.63
697.962	284.52
698.369	296.22
698.776	275.16
699.183	328.99
699.59	312.61
699.996	289.2
700.403	371.12
700.81	321.97
701.216	298.56
701.623	270.48
702.029	366.44
702.435	254.09
702.842	270.48
703.248	305.59
703.654	272.82
704.06	354.74
704.466	359.42
704.872	249.41
705.278	310.27
705.684	298.56
706.09	296.22
706.496	298.56
706.901	272.82
707.307	237.71
707.712	272.82
708.118	291.54
708.523	296.22
708.929	336.01
709.334	298.56
709.74	340.69
710.145	256.43
710.55	310.27
710.955	300.91
711.36	249.41
711.765	321.97
712.17	261.12
712.575	359.42
712.98	761.99
713.385	380.48
713.789	233.03
714.194	268.14
714.599	298.56
715.003	265.8
715.408	305.59
715.812	352.4
716.217	305.59
716.621	314.95
717.025	275.16
717.429	352.4
717.833	286.86
718.238	314.95
718.642	305.59
719.046	298.56
719.449	305.59
719.853	272.82
720.257	258.78
720.661	328.99
721.065	343.03
721.468	361.76
721.872	321.97
722.275	282.18
722.679	270.48
723.082	314.95
723.485	263.46
723.889	373.46
724.292	331.33
724.695	338.35
725.098	268.14
725.501	359.42
725.904	286.86
726.307	321.97
726.71	321.97
727.113	286.86
727.516	237.71
727.918	263.46
728.321	275.16
728.724	242.39
729.126	319.63
729.529	242.39
729.931	289.2
730.333	284.52
730.736	366.44
731.138	279.84
731.54	291.54
731.942	343.03
732.344	312.61
732.746	312.61
733.148	314.95
733.55	265.8
733.952	310.27
734.354	350.06
734.756	317.29
735.157	343.03
735.559	303.25
735.96	256.43
736.362	284.52
736.763	328.99
737.165	240.05
737.566	298.56
737.967	256.43
738.368	261.12
738.77	247.07
739.171	347.72
739.572	305.59
739.973	293.88
740.374	254.09
740.774	336.01
741.175	317.29
741.576	254.09
741.977	284.52
742.377	331.33
742.778	310.27
743.178	240.05
743.579	270.48
743.979	289.2
744.379	284.52
744.78	270.48
745.18	305.59
745.58	291.54
745.98	343.03
746.38	270.48
746.78	366.44
747.18	319.63
747.58	298.56
747.98	272.82
748.38	235.37
748.779	293.88
749.179	275.16
749.578	347.72
749.978	289.2
750.377	331.33
750.777	336.01
751.176	326.65
751.575	303.25
751.975	314.95
752.374	345.38
752.773	314.95
753.172	268.14
753.571	331.33
753.97	357.08
754.369	357.08
754.768	207.28
755.166	291.54
755.565	303.25
755.964	279.84
756.362	284.52
756.761	340.69
757.159	396.87
757.558	289.2
757.956	338.35
758.354	284.52
758.753	270.48
759.151	368.78
759.549	361.76
759.947	303.25
760.345	340.69
760.743	235.37
761.141	312.61
761.539	296.22
761.936	284.52
762.334	307.93
762.732	289.2
763.129	289.2
763.527	254.09
763.924	331.33
764.322	357.08
764.719	324.31
765.117	319.63
765.514	359.42
765.911	279.84
766.308	289.2
766.705	291.54
767.102	265.8
767.499	293.88
767.896	244.73
768.293	371.12
768.69	251.75
769.086	312.61
769.483	307.93
769.88	378.14
770.276	277.5
770.673	291.54
771.069	279.84
771.466	272.82
771.862	307.93
772.258	380.48
772.654	307.93
773.05	221.33
773.447	336.01
773.843	319.63
774.239	282.18
774.634	328.99
775.03	305.59
775.426	338.35
775.822	270.48
776.218	345.38
776.613	331.33
777.009	380.48
777.404	336.01
777.8	300.91
778.195	300.91
778.59	336.01
778.986	343.03
779.381	155.79
779.776	373.46
780.171	298.56
780.566	286.86
780.961	263.46
781.356	361.76
781.751	310.27
782.146	328.99
782.54	333.67
782.935	261.12
783.33	286.86
783.724	270.48
784.119	350.06
784.513	296.22
784.908	300.91
785.302	328.99
785.696	338.35
786.09	359.42
786.485	338.35
786.879	307.93
787.273	359.42
787.667	289.2
788.061	261.12
788.454	321.97
788.848	263.46
789.242	350.06
789.636	277.5
790.029	328.99
790.423	261.12
790.816	321.97
791.21	256.43
791.603	277.5
791.997	270.48
792.39	310.27
792.783	279.84
793.176	293.88
793.569	268.14
793.962	272.82
794.355	289.2
794.748	263.46
795.141	350.06
795.534	305.59
795.927	293.88
796.319	352.4
796.712	312.61
797.105	284.52
797.497	286.86
797.89	373.46
798.282	343.03
798.674	312.61
799.067	317.29
799.459	305.59
799.851	338.35
800.243	394.53
800.635	270.48
801.027	310.27
801.419	263.46
801.811	233.03
802.203	336.01
802.594	305.59
802.986	307.93
803.378	270.48
803.769	272.82
804.161	328.99
804.552	226.01
804.944	296.22
805.335	314.95
805.726	312.61
806.118	303.25
806.509	279.84
806.9	268.14
807.291	286.86
807.682	303.25
808.073	312.61
808.464	291.54
808.855	296.22
809.245	300.91
809.636	293.88
810.027	321.97
810.417	303.25
810.808	324.31
811.198	317.29
811.589	218.99
811.979	256.43
812.369	317.29
812.759	305.59
813.15	333.67
813.54	298.56
813.93	289.2
814.32	385.16
814.71	343.03
815.1	282.18
815.489	352.4
815.879	343.03
816.269	326.65
816.658	343.03
817.048	270.48
817.438	305.59
817.827	357.08
818.216	291.54
818.606	296.22
818.995	282.18
819.384	324.31
819.773	354.74
820.163	350.06
820.552	305.59
820.941	284.52
821.33	286.86
821.718	249.41
822.107	293.88
822.496	310.27
822.885	279.84
823.273	282.18
823.662	268.14
824.05	345.38
824.439	265.8
824.827	314.95
825.216	256.43
825.604	291.54
825.992	338.35
826.38	345.38
826.768	305.59
827.156	284.52
827.544	237.71
827.932	307.93
828.32	394.53
828.708	310.27
829.096	293.88
829.483	326.65
829.871	268.14
830.259	331.33
830.646	312.61
831.034	298.56
831.421	328.99
831.808	282.18
832.196	279.84
832.583	256.43
832.97	272.82
833.357	350.06
833.744	298.56
834.131	263.46
834.518	317.29
834.905	307.93
835.292	289.2
835.678	319.63
836.065	279.84
836.452	272.82
836.838	319.63
837.225	319.63
837.611	270.48
837.998	296.22
838.384	298.56
838.77	293.88
839.157	298.56
839.543	300.91
839.929	282.18
840.315	254.09
840.701	331.33
841.087	357.08
841.473	312.61
841.858	336.01
842.244	298.56
842.63	303.25
843.015	261.12
843.401	565.39
843.787	296.22
844.172	268.14
844.557	293.88
844.943	286.86
845.328	284.52
845.713	324.31
846.098	268.14
846.483	289.2
846.868	268.14
847.253	289.2
847.638	282.18
848.023	324.31
848.408	291.54
848.793	296.22
849.177	244.73
849.562	368.78
849.947	300.91
850.331	326.65
850.715	286.86
851.1	368.78
851.484	387.5
851.868	289.2
852.253	286.86
852.637	291.54
853.021	303.25
853.405	303.25
853.789	296.22
854.173	352.4
854.557	312.61
854.94	373.46
855.324	359.42
855.708	357.08
856.091	277.5
856.475	340.69
856.858	343.03
857.242	307.93
857.625	298.56
858.009	263.46
858.392	251.75
858.775	296.22
859.158	268.14
859.541	319.63
859.924	251.75
860.307	338.35
860.69	324.31
861.073	254.09
861.456	298.56
861.838	352.4
862.221	307.93
862.604	324.31
862.986	387.5
863.369	235.37
863.751	333.67
864.133	300.91
864.516	347.72
864.898	303.25
865.28	345.38
865.662	310.27
866.044	233.03
866.426	261.12
866.808	378.14
867.19	300.91
867.572	270.48
867.954	268.14
868.336	328.99
868.717	364.1
869.099	298.56
869.48	333.67
869.862	305.59
870.243	284.52
870.625	314.95
871.006	328.99
871.387	268.14
871.768	249.41
872.149	312.61
872.53	328.99
872.911	293.88
873.292	277.5
873.673	286.86
874.054	228.35
874.435	326.65
874.815	275.16
875.196	338.35
875.577	314.95
875.957	312.61
876.338	314.95
876.718	350.06
877.098	350.06
877.479	291.54
877.859	298.56
878.239	347.72
878.619	307.93
878.999	303.25
879.379	354.74
879.759	268.14
880.139	312.61
880.519	300.91
880.898	270.48
881.278	249.41
881.658	286.86
882.037	336.01
882.417	247.07
882.796	310.27
883.176	314.95
883.555	244.73
883.934	328.99
884.313	312.61
884.693	289.2
885.072	296.22
885.451	293.88
885.83	289.2
886.209	336.01
886.587	291.54
886.966	305.59
887.345	289.2
887.724	361.76
888.102	319.63
888.481	303.25
888.859	305.59
889.238	319.63
889.616	305.59
889.994	261.12
890.373	284.52
890.751	333.67
891.129	354.74
891.507	226.01
891.885	254.09
892.263	284.52
892.641	258.78
893.019	314.95
893.396	279.84
893.774	293.88
894.152	275.16
894.529	357.08
894.907	263.46
895.284	310.27
895.662	340.69
896.039	279.84
896.416	336.01
896.794	279.84
897.171	312.61
897.548	303.25
897.925	286.86
898.302	263.46
898.679	300.91
899.056	284.52
899.433	237.71
899.809	272.82
900.186	289.2
900.563	289.2
900.939	298.56
901.316	289.2
901.692	279.84
902.069	268.14
902.445	324.31
902.821	258.78
903.197	319.63
903.574	272.82
903.95	300.91
904.326	343.03
904.702	305.59
905.078	307.93
905.454	326.65
905.829	251.75
906.205	328.99
906.581	282.18
906.956	310.27
907.332	221.33
907.707	282.18
908.083	293.88
908.458	373.46
908.833	354.74
909.209	296.22
909.584	340.69
909.959	321.97
910.334	291.54
910.709	310.27
911.084	272.82
911.459	326.65
911.834	270.48
912.209	223.67
912.583	279.84
912.958	307.93
913.333	286.86
913.707	291.54
914.082	291.54
914.456	314.95
914.83	296.22
915.205	324.31
915.579	251.75
915.953	228.35
916.327	282.18
916.701	338.35
917.075	361.76
917.449	258.78
917.823	326.65
918.197	307.93
918.571	326.65
918.944	328.99
919.318	282.18
919.692	305.59
920.065	296.22
920.438	343.03
920.812	312.61
921.185	303.25
921.558	244.73
921.932	343.03
922.305	333.67
922.678	275.16
923.051	270.48
923.424	345.38
923.797	300.91
924.17	352.4
924.542	317.29
924.915	333.67
925.288	296.22
925.661	326.65
926.033	399.21
926.406	319.63
926.778	310.27
927.15	286.86
927.523	258.78
927.895	338.35
928.267	345.38
928.639	336.01
929.011	352.4
929.383	277.5
929.755	326.65
930.127	324.31
930.499	296.22
930.871	310.27
931.242	272.82
931.614	272.82
931.986	357.08
932.357	282.18
932.729	303.25
933.1	326.65
933.471	359.42
933.843	275.16
934.214	293.88
934.585	307.93
934.956	286.86
935.327	293.88
935.698	270.48
936.069	303.25
936.44	263.46
936.811	328.99
937.182	270.48
937.552	319.63
937.923	247.07
938.293	303.25
938.664	303.25
939.034	305.59
939.405	326.65
939.775	336.01
940.145	340.69
940.516	321.97
940.886	291.54
941.256	296.22
941.626	319.63
941.996	350.06
942.366	270.48
942.735	261.12
943.105	286.86
943.475	293.88
943.845	303.25
944.214	314.95
944.584	319.63
944.953	286.86
945.323	336.01
945.692	331.33
946.061	244.73
946.43	251.75
946.8	300.91
947.169	305.59
947.538	242.39
947.907	270.48
948.276	286.86
948.645	307.93
949.013	314.95
949.382	305.59
949.751	328.99
950.119	282.18
950.488	338.35
950.857	305.59
951.225	333.67
951.593	279.84
951.962	242.39
952.33	350.06
952.698	226.01
953.066	343.03
953.434	319.63
953.802	282.18
954.17	345.38
954.538	293.88
954.906	254.09
955.274	392.19
955.642	284.52
956.009	286.86
956.377	256.43
956.744	256.43
957.112	235.37
957.479	256.43
957.847	221.33
958.214	261.12
958.581	336.01
958.948	270.48
959.315	242.39
959.683	286.86
960.05	319.63
960.416	343.03
960.783	324.31
961.15	300.91
961.517	282.18
961.884	312.61
962.25	282.18
962.617	328.99
962.983	312.61
963.35	303.25
963.716	284.52
964.082	326.65
964.449	317.29
964.815	312.61
965.181	373.46
965.547	293.88
965.913	183.88
966.279	268.14
966.645	307.93
967.011	263.46
967.377	340.69
967.742	254.09
968.108	286.86
968.474	328.99
968.839	275.16
969.205	340.69
969.57	279.84
969.935	286.86
970.301	331.33
970.666	275.16
971.031	303.25
971.396	272.82
971.761	328.99
972.126	317.29
972.491	354.74
972.856	312.61
973.221	284.52
973.586	336.01
973.95	258.78
974.315	300.91
974.679	223.67
975.044	307.93
975.408	268.14
975.773	286.86
976.137	317.29
976.501	282.18
976.866	254.09
977.23	343.03
977.594	305.59
977.958	399.21
978.322	293.88
978.686	223.67
979.049	268.14
979.413	347.72
979.777	300.91
980.141	298.56
980.504	333.67
980.868	244.73
981.231	317.29
981.595	275.16
981.958	352.4
982.321	319.63
982.684	303.25
983.048	347.72
983.411	345.38
983.774	254.09
984.137	265.8
984.5	279.84
984.862	298.56
985.225	385.16
985.588	298.56
985.951	317.29
986.313	277.5
986.676	385.16
987.038	275.16
987.401	282.18
987.763	249.41
988.125	300.91
988.488	279.84
988.85	256.43
989.212	293.88
989.574	361.76
989.936	326.65
990.298	240.05
990.66	331.33
991.022	392.19
991.383	314.95
991.745	272.82
992.107	226.01
992.468	247.07
992.83	286.86
993.191	282.18
993.553	293.88
993.914	331.33
994.275	261.12
994.637	305.59
994.998	279.84
995.359	326.65
995.72	289.2
996.081	291.54
996.442	305.59
996.803	314.95
997.163	310.27
997.524	310.27
997.885	317.29
998.245	277.5
998.606	296.22
998.966	265.8
999.327	293.88
999.687	226.01
1000.047	277.5
1000.408	380.48
1000.768	307.93
1001.128	303.25
1001.488	293.88
1001.848	305.59
1002.208	314.95
1002.568	314.95
1002.927	261.12
1003.287	312.61
1003.647	272.82
1004.007	305.59
1004.366	319.63
1004.726	254.09
1005.085	434.32
1005.444	382.82
1005.804	300.91
1006.163	298.56
1006.522	307.93
1006.881	307.93
1007.24	249.41
1007.599	270.48
1007.958	314.95
1008.317	343.03
1008.676	268.14
1009.035	277.5
1009.393	324.31
1009.752	385.16
1010.111	324.31
1010.469	258.78
1010.828	244.73
1011.186	314.95
1011.544	289.2
1011.903	282.18
1012.261	357.08
1012.619	312.61
1012.977	240.05
1013.335	324.31
1013.693	293.88
1014.051	270.48
1014.409	256.43
1014.767	221.33
1015.124	338.35
1015.482	359.42
1015.84	244.73
1016.197	331.33
1016.555	300.91
1016.912	293.88
1017.269	359.42
1017.627	289.2
1017.984	359.42
1018.341	284.52
1018.698	340.69
1019.055	293.88
1019.412	263.46
1019.769	293.88
1020.126	270.48
1020.483	317.29
1020.84	279.84
1021.196	307.93
1021.553	293.88
1021.909	244.73
1022.266	296.22
1022.622	249.41
1022.979	240.05
1023.335	265.8
1023.691	261.12
1024.047	263.46
1024.404	254.09
1024.76	254.09
1025.116	275.16
1025.472	305.59
1025.827	265.8
1026.183	303.25
1026.539	326.65
1026.895	265.8
1027.25	300.91
1027.606	321.97
1027.961	317.29
1028.317	296.22
1028.672	364.1
1029.028	359.42
1029.383	279.84
1029.738	333.67
1030.093	291.54
1030.448	240.05
1030.803	270.48
1031.158	286.86
1031.513	254.09
1031.868	289.2
1032.223	272.82
1032.577	314.95
1032.932	300.91
1033.287	326.65
1033.641	319.63
1033.996	265.8
1034.35	254.09
1034.704	312.61
1035.059	300.91
1035.413	270.48
1035.767	270.48
1036.121	270.48
