Data from Al_FLMS009871__902__16-18-07-923.txt Node

Date: Fri Mar 08 16:18:07 CST 2024
User: pe5414po
Spectrometer: FLMS00987
Trigger mode: 0
Integration Time (sec): 1.000000E-1
Scans to average: 1
Electric dark correction enabled: true
Nonlinearity correction enabled: false
Boxcar width: 0
XAxis mode: Wavelengths
Number of Pixels in Spectrum: 2048
>>>>>Begin Spectral Data<<<<<
188.938	-120.68
189.409	-120.68
189.879	-120.68
190.349	-92.6
190.819	-106.64
191.29	-123.02
191.76	-76.21
192.23	-87.92
192.7	-71.53
193.17	-92.6
193.64	-64.51
194.109	-17.7
194.579	52.52
195.049	12.73
195.519	45.49
195.988	40.81
196.458	-10.68
196.927	1.02
197.397	106.35
197.866	169.54
198.336	115.71
198.805	155.5
199.274	185.93
199.744	111.03
200.213	143.8
200.682	181.25
201.151	267.85
201.62	263.16
202.089	230.4
202.558	256.14
203.027	279.55
203.495	277.21
203.964	232.74
204.433	225.72
204.902	242.1
205.37	263.16
205.839	277.21
206.307	267.85
206.776	307.63
207.244	249.12
207.712	302.95
208.181	286.57
208.649	291.25
209.117	305.29
209.585	305.29
210.053	288.91
210.521	249.12
210.989	251.46
211.457	281.89
211.925	225.72
212.393	249.12
212.861	258.48
213.328	295.93
213.796	265.5
214.264	232.74
214.731	286.57
215.199	291.25
215.666	277.21
216.133	251.46
216.601	253.8
217.068	230.4
217.535	274.87
218.003	192.95
218.47	291.25
218.937	288.91
219.404	277.21
219.871	246.78
220.338	183.59
220.805	274.87
221.271	244.44
221.738	239.76
222.205	232.74
222.671	216.35
223.138	242.1
223.605	288.91
224.071	249.12
224.538	225.72
225.004	274.87
225.47	178.9
225.937	309.97
226.403	253.8
226.869	284.23
227.335	246.78
227.801	223.37
228.267	242.1
228.733	326.36
229.199	279.55
229.665	246.78
230.131	206.99
230.597	338.06
231.062	239.76
231.528	347.42
231.994	274.87
232.459	214.01
232.925	228.06
233.39	272.53
233.856	228.06
234.321	317
234.786	267.85
235.252	232.74
235.717	298.27
236.182	265.5
236.647	291.25
237.112	235.08
237.577	263.16
238.042	295.93
238.507	251.46
238.972	307.63
239.436	209.33
239.901	298.27
240.366	249.12
240.83	277.21
241.295	230.4
241.76	199.97
242.224	216.35
242.688	309.97
243.153	281.89
243.617	272.53
244.081	279.55
244.545	260.82
245.01	279.55
245.474	251.46
245.938	228.06
246.402	295.93
246.866	305.29
247.33	230.4
247.793	328.7
248.257	326.36
248.721	258.48
249.185	267.85
249.648	286.57
250.112	274.87
250.575	272.53
251.039	352.1
251.502	244.44
251.965	211.67
252.429	232.74
252.892	260.82
253.355	225.72
253.818	293.59
254.281	286.57
254.744	305.29
255.207	230.4
255.67	293.59
256.133	251.46
256.596	272.53
257.059	291.25
257.522	230.4
257.984	298.27
258.447	281.89
258.909	340.4
259.372	307.63
259.834	281.89
260.297	333.38
260.759	270.19
261.221	284.23
261.684	291.25
262.146	335.72
262.608	263.16
263.07	267.85
263.532	260.82
263.994	298.27
264.456	216.35
264.918	335.72
265.38	295.93
265.842	305.29
266.303	263.16
266.765	270.19
267.227	253.8
267.688	281.89
268.15	258.48
268.611	237.42
269.072	295.93
269.534	274.87
269.995	246.78
270.456	305.29
270.918	312.32
271.379	319.34
271.84	242.1
272.301	228.06
272.762	309.97
273.223	288.91
273.684	302.95
274.144	305.29
274.605	288.91
275.066	228.06
275.527	309.97
275.987	260.82
276.448	221.03
276.908	244.44
277.369	195.29
277.829	228.06
278.289	356.79
278.75	235.08
279.21	270.19
279.67	249.12
280.13	302.95
280.59	265.5
281.05	312.32
281.51	281.89
281.97	338.06
282.43	321.68
282.89	302.95
283.35	331.04
283.809	312.32
284.269	317
284.729	237.42
285.188	293.59
285.648	317
286.107	256.14
286.567	314.66
287.026	340.4
287.485	228.06
287.944	286.57
288.404	293.59
288.863	295.93
289.322	307.63
289.781	345.08
290.24	309.97
290.699	270.19
291.158	277.21
291.616	300.61
292.075	281.89
292.534	312.32
292.992	272.53
293.451	309.97
293.91	190.61
294.368	317
294.827	256.14
295.285	293.59
295.743	293.59
296.202	340.4
296.66	258.48
297.118	317
297.576	284.23
298.034	237.42
298.492	284.23
298.95	314.66
299.408	300.61
299.866	251.46
300.324	214.01
300.781	331.04
301.239	328.7
301.697	312.32
302.154	202.31
302.612	249.12
303.069	302.95
303.527	256.14
303.984	331.04
304.441	277.21
304.899	319.34
305.356	284.23
305.813	317
306.27	349.76
306.727	258.48
307.184	288.91
307.641	321.68
308.098	305.29
308.555	335.72
309.012	305.29
309.468	319.34
309.925	270.19
310.382	366.15
310.838	319.34
311.295	277.21
311.751	251.46
312.208	324.02
312.664	326.36
313.12	293.59
313.577	277.21
314.033	267.85
314.489	314.66
314.945	291.25
315.401	321.68
315.857	253.8
316.313	338.06
316.769	314.66
317.225	312.32
317.681	274.87
318.136	368.49
318.592	302.95
319.048	333.38
319.503	270.19
319.959	256.14
320.414	298.27
320.869	312.32
321.325	281.89
321.78	314.66
322.235	298.27
322.691	309.97
323.146	260.82
323.601	302.95
324.056	291.25
324.511	295.93
324.966	317
325.421	314.66
325.875	279.55
326.33	302.95
326.785	314.66
327.24	291.25
327.694	263.16
328.149	295.93
328.603	349.76
329.058	305.29
329.512	317
329.966	237.42
330.421	309.97
330.875	288.91
331.329	272.53
331.783	291.25
332.237	307.63
332.691	284.23
333.145	244.44
333.599	260.82
334.053	274.87
334.507	291.25
334.96	279.55
335.414	270.19
335.868	328.7
336.321	317
336.775	302.95
337.228	333.38
337.682	309.97
338.135	256.14
338.588	309.97
339.042	354.44
339.495	300.61
339.948	331.04
340.401	345.08
340.854	218.69
341.307	235.08
341.76	284.23
342.213	312.32
342.666	272.53
343.119	274.87
343.571	312.32
344.024	293.59
344.477	284.23
344.929	359.13
345.382	214.01
345.834	302.95
346.287	265.5
346.739	242.1
347.191	335.72
347.644	305.29
348.096	246.78
348.548	214.01
349	286.57
349.452	263.16
349.904	309.97
350.356	331.04
350.808	319.34
351.26	263.16
351.711	335.72
352.163	293.59
352.615	396.57
353.066	284.23
353.518	312.32
353.969	319.34
354.421	265.5
354.872	256.14
355.324	335.72
355.775	265.5
356.226	274.87
356.677	302.95
357.128	242.1
357.579	267.85
358.03	307.63
358.481	284.23
358.932	387.21
359.383	356.79
359.834	295.93
360.285	305.29
360.735	293.59
361.186	293.59
361.637	270.19
362.087	272.53
362.538	272.53
362.988	401.26
363.438	331.04
363.889	366.15
364.339	331.04
364.789	293.59
365.239	342.74
365.689	274.87
366.139	256.14
366.589	223.37
367.039	288.91
367.489	286.57
367.939	279.55
368.389	279.55
368.839	389.55
369.288	286.57
369.738	267.85
370.187	333.38
370.637	281.89
371.086	221.03
371.536	291.25
371.985	309.97
372.434	309.97
372.884	293.59
373.333	319.34
373.782	321.68
374.231	279.55
374.68	368.49
375.129	232.74
375.578	284.23
376.027	331.04
376.475	347.42
376.924	270.19
377.373	305.29
377.822	321.68
378.27	302.95
378.719	312.32
379.167	319.34
379.616	300.61
380.064	340.4
380.512	279.55
380.961	274.87
381.409	382.53
381.857	321.68
382.305	317
382.753	347.42
383.201	312.32
383.649	300.61
384.097	307.63
384.545	309.97
384.992	307.63
385.44	326.36
385.888	312.32
386.335	230.4
386.783	288.91
387.231	295.93
387.678	309.97
388.125	326.36
388.573	314.66
389.02	309.97
389.467	272.53
389.914	359.13
390.362	295.93
390.809	338.06
391.256	317
391.703	335.72
392.15	279.55
392.596	295.93
393.043	265.5
393.49	324.02
393.937	352.1
394.383	328.7
394.83	352.1
395.276	368.49
395.723	263.16
396.169	300.61
396.616	256.14
397.062	286.57
397.508	223.37
397.954	349.76
398.401	265.5
398.847	284.23
399.293	333.38
399.739	314.66
400.185	288.91
400.631	321.68
401.076	326.36
401.522	281.89
401.968	342.74
402.414	338.06
402.859	345.08
403.305	309.97
403.75	256.14
404.196	300.61
404.641	321.68
405.086	333.38
405.532	293.59
405.977	270.19
406.422	302.95
406.867	335.72
407.312	314.66
407.757	265.5
408.202	389.55
408.647	288.91
409.092	324.02
409.537	314.66
409.982	298.27
410.426	324.02
410.871	347.42
411.316	286.57
411.76	267.85
412.205	352.1
412.649	314.66
413.093	307.63
413.538	366.15
413.982	249.12
414.426	338.06
414.87	277.21
415.314	366.15
415.758	270.19
416.202	277.21
416.646	288.91
417.09	291.25
417.534	312.32
417.978	338.06
418.421	319.34
418.865	333.38
419.309	331.04
419.752	359.13
420.196	321.68
420.639	363.81
421.083	244.44
421.526	302.95
421.969	279.55
422.412	293.59
422.856	309.97
423.299	307.63
423.742	293.59
424.185	286.57
424.628	251.46
425.071	335.72
425.513	277.21
425.956	256.14
426.399	361.47
426.842	305.29
427.284	305.29
427.727	305.29
428.169	312.32
428.612	342.74
429.054	300.61
429.497	291.25
429.939	361.47
430.381	288.91
430.823	281.89
431.265	274.87
431.707	331.04
432.149	309.97
432.591	263.16
433.033	331.04
433.475	349.76
433.917	298.27
434.359	265.5
434.8	307.63
435.242	312.32
435.684	373.17
436.125	338.06
436.567	312.32
437.008	333.38
437.449	302.95
437.891	305.29
438.332	284.23
438.773	298.27
439.214	300.61
439.656	284.23
440.097	389.55
440.538	274.87
440.978	286.57
441.419	279.55
441.86	265.5
442.301	309.97
442.742	237.42
443.182	244.44
443.623	324.02
444.063	349.76
444.504	298.27
444.944	270.19
445.385	317
445.825	324.02
446.265	321.68
446.706	281.89
447.146	338.06
447.586	305.29
448.026	286.57
448.466	335.72
448.906	279.55
449.346	312.32
449.786	338.06
450.225	263.16
450.665	314.66
451.105	244.44
451.544	302.95
451.984	298.27
452.424	391.89
452.863	309.97
453.302	345.08
453.742	302.95
454.181	277.21
454.62	291.25
455.059	279.55
455.499	309.97
455.938	345.08
456.377	324.02
456.816	317
457.254	324.02
457.693	335.72
458.132	324.02
458.571	328.7
459.01	249.12
459.448	333.38
459.887	267.85
460.325	342.74
460.764	228.06
461.202	300.61
461.641	291.25
462.079	267.85
462.517	309.97
462.955	237.42
463.393	326.36
463.832	317
464.27	305.29
464.708	288.91
465.145	270.19
465.583	305.29
466.021	338.06
466.459	295.93
466.897	300.61
467.334	319.34
467.772	309.97
468.209	335.72
468.647	309.97
469.084	340.4
469.522	279.55
469.959	312.32
470.396	277.21
470.833	335.72
471.271	345.08
471.708	305.29
472.145	368.49
472.582	253.8
473.019	356.79
473.456	324.02
473.892	305.29
474.329	331.04
474.766	293.59
475.202	312.32
475.639	314.66
476.076	309.97
476.512	335.72
476.949	274.87
477.385	260.82
477.821	305.29
478.258	284.23
478.694	272.53
479.13	284.23
479.566	253.8
480.002	342.74
480.438	293.59
480.874	298.27
481.31	274.87
481.746	260.82
482.181	314.66
482.617	288.91
483.053	286.57
483.488	345.08
483.924	347.42
484.36	286.57
484.795	305.29
485.23	305.29
485.666	319.34
486.101	260.82
486.536	305.29
486.971	324.02
487.407	319.34
487.842	284.23
488.277	286.57
488.712	277.21
489.146	281.89
489.581	326.36
490.016	349.76
490.451	295.93
490.885	258.48
491.32	326.36
491.755	272.53
492.189	345.08
492.624	338.06
493.058	291.25
493.492	342.74
493.927	321.68
494.361	328.7
494.795	307.63
495.229	307.63
495.663	328.7
496.097	302.95
496.531	345.08
496.965	286.57
497.399	286.57
497.833	331.04
498.266	288.91
498.7	281.89
499.134	319.34
499.567	333.38
500.001	288.91
500.434	300.61
500.868	298.27
501.301	317
501.734	281.89
502.168	258.48
502.601	274.87
503.034	272.53
503.467	281.89
503.9	331.04
504.333	366.15
504.766	307.63
505.199	340.4
505.632	298.27
506.064	312.32
506.497	335.72
506.93	295.93
507.362	260.82
507.795	338.06
508.227	326.36
508.66	328.7
509.092	272.53
509.524	286.57
509.956	312.32
510.389	300.61
510.821	293.59
511.253	256.14
511.685	300.61
512.117	223.37
512.549	340.4
512.981	363.81
513.412	284.23
513.844	312.32
514.276	342.74
514.707	302.95
515.139	333.38
515.571	354.44
516.002	279.55
516.433	263.16
516.865	242.1
517.296	258.48
517.727	281.89
518.159	314.66
518.59	321.68
519.021	253.8
519.452	338.06
519.883	284.23
520.314	295.93
520.744	293.59
521.175	293.59
521.606	298.27
522.037	340.4
522.467	361.47
522.898	326.36
523.328	340.4
523.759	291.25
524.189	331.04
524.62	192.95
525.05	309.97
525.48	307.63
525.91	317
526.341	293.59
526.771	291.25
527.201	349.76
527.631	291.25
528.061	286.57
528.49	321.68
528.92	251.46
529.35	228.06
529.78	270.19
530.209	309.97
530.639	368.49
531.068	281.89
531.498	284.23
531.927	324.02
532.357	284.23
532.786	256.14
533.215	345.08
533.644	354.44
534.074	324.02
534.503	321.68
534.932	363.81
535.361	281.89
535.79	291.25
536.218	333.38
536.647	317
537.076	328.7
537.505	270.19
537.933	293.59
538.362	333.38
538.79	342.74
539.219	317
539.647	305.29
540.076	377.85
540.504	305.29
540.932	347.42
541.36	314.66
541.788	300.61
542.217	274.87
542.645	281.89
543.073	288.91
543.5	286.57
543.928	326.36
544.356	284.23
544.784	298.27
545.211	309.97
545.639	272.53
546.067	239.76
546.494	293.59
546.922	291.25
547.349	317
547.776	260.82
548.204	253.8
548.631	326.36
549.058	321.68
549.485	295.93
549.912	300.61
550.339	260.82
550.766	314.66
551.193	298.27
551.62	338.06
552.047	260.82
552.474	370.83
552.9	295.93
553.327	342.74
553.754	326.36
554.18	328.7
554.607	305.29
555.033	328.7
555.459	347.42
555.886	319.34
556.312	349.76
556.738	309.97
557.164	307.63
557.59	331.04
558.016	284.23
558.442	298.27
558.868	298.27
559.294	258.48
559.72	242.1
560.145	302.95
560.571	249.12
560.997	324.02
561.422	300.61
561.848	291.25
562.273	373.17
562.699	300.61
563.124	356.79
563.549	326.36
563.974	368.49
564.4	267.85
564.825	331.04
565.25	345.08
565.675	291.25
566.1	331.04
566.525	333.38
566.95	321.68
567.374	319.34
567.799	284.23
568.224	335.72
568.648	258.48
569.073	256.14
569.497	354.44
569.922	340.4
570.346	253.8
570.771	319.34
571.195	307.63
571.619	300.61
572.043	340.4
572.467	312.32
572.891	340.4
573.315	328.7
573.739	326.36
574.163	317
574.587	307.63
575.011	223.37
575.435	321.68
575.858	253.8
576.282	253.8
576.705	347.42
577.129	305.29
577.552	307.63
577.976	260.82
578.399	284.23
578.822	331.04
579.245	314.66
579.669	291.25
580.092	352.1
580.515	307.63
580.938	331.04
581.361	356.79
581.784	242.1
582.206	347.42
582.629	319.34
583.052	307.63
583.474	232.74
583.897	267.85
584.32	312.32
584.742	335.72
585.165	305.29
585.587	305.29
586.009	281.89
586.431	354.44
586.854	333.38
587.276	258.48
587.698	258.48
588.12	373.17
588.542	338.06
588.964	356.79
589.386	277.21
589.807	356.79
590.229	347.42
590.651	326.36
591.073	312.32
591.494	253.8
591.916	274.87
592.337	274.87
592.759	314.66
593.18	335.72
593.601	317
594.022	349.76
594.444	284.23
594.865	314.66
595.286	305.29
595.707	309.97
596.128	331.04
596.549	335.72
596.97	309.97
597.39	338.06
597.811	326.36
598.232	354.44
598.652	272.53
599.073	228.06
599.494	340.4
599.914	281.89
600.334	263.16
600.755	256.14
601.175	345.08
601.595	274.87
602.015	307.63
602.436	270.19
602.856	382.53
603.276	314.66
603.696	279.55
604.115	272.53
604.535	267.85
604.955	272.53
605.375	305.29
605.794	253.8
606.214	321.68
606.634	309.97
607.053	246.78
607.473	370.83
607.892	265.5
608.311	298.27
608.731	279.55
609.15	312.32
609.569	375.51
609.988	302.95
610.407	361.47
610.826	338.06
611.245	345.08
611.664	302.95
612.083	242.1
612.501	300.61
612.92	284.23
613.339	342.74
613.757	331.04
614.176	305.29
614.594	317
615.013	288.91
615.431	319.34
615.85	317
616.268	291.25
616.686	370.83
617.104	300.61
617.522	317
617.94	235.08
618.358	246.78
618.776	286.57
619.194	326.36
619.612	333.38
620.03	274.87
620.447	317
620.865	249.12
621.282	267.85
621.7	333.38
622.117	293.59
622.535	328.7
622.952	300.61
623.369	258.48
623.787	328.7
624.204	307.63
624.621	288.91
625.038	312.32
625.455	314.66
625.872	251.46
626.289	249.12
626.706	342.74
627.123	345.08
627.539	272.53
627.956	272.53
628.373	324.02
628.789	249.12
629.206	361.47
629.622	340.4
630.038	256.14
630.455	286.57
630.871	291.25
631.287	314.66
631.703	242.1
632.12	242.1
632.536	295.93
632.952	265.5
633.368	305.29
633.783	263.16
634.199	291.25
634.615	319.34
635.031	368.49
635.446	342.74
635.862	228.06
636.277	321.68
636.693	326.36
637.108	326.36
637.524	309.97
637.939	335.72
638.354	279.55
638.77	342.74
639.185	314.66
639.6	284.23
640.015	328.7
640.43	277.21
640.845	263.16
641.259	342.74
641.674	312.32
642.089	279.55
642.504	300.61
642.918	279.55
643.333	281.89
643.747	345.08
644.162	281.89
644.576	307.63
644.991	347.42
645.405	246.78
645.819	253.8
646.233	270.19
646.647	347.42
647.061	256.14
647.475	321.68
647.889	335.72
648.303	300.61
648.717	345.08
649.131	298.27
649.545	274.87
649.958	328.7
650.372	307.63
650.785	324.02
651.199	333.38
651.612	317
652.026	298.27
652.439	192.95
652.852	295.93
653.266	361.47
653.679	277.21
654.092	333.38
654.505	319.34
654.918	249.12
655.331	277.21
655.744	272.53
656.156	300.61
656.569	279.55
656.982	286.57
657.394	309.97
657.807	298.27
658.22	312.32
658.632	300.61
659.044	305.29
659.457	321.68
659.869	352.1
660.281	335.72
660.693	293.59
661.106	300.61
661.518	331.04
661.93	328.7
662.342	272.53
662.754	368.49
663.165	312.32
663.577	326.36
663.989	321.68
664.401	331.04
664.812	302.95
665.224	232.74
665.635	366.15
666.047	279.55
666.458	340.4
666.869	368.49
667.281	324.02
667.692	274.87
668.103	272.53
668.514	368.49
668.925	260.82
669.336	366.15
669.747	331.04
670.158	335.72
670.569	345.08
670.979	253.8
671.39	274.87
671.801	246.78
672.211	328.7
672.622	352.1
673.032	331.04
673.443	246.78
673.853	326.36
674.263	270.19
674.674	272.53
675.084	279.55
675.494	298.27
675.904	356.79
676.314	309.97
676.724	274.87
677.134	272.53
677.544	305.29
677.953	335.72
678.363	340.4
678.773	331.04
679.182	293.59
679.592	230.4
680.001	216.35
680.411	288.91
680.82	326.36
681.23	256.14
681.639	277.21
682.048	321.68
682.457	263.16
682.866	300.61
683.275	260.82
683.684	319.34
684.093	284.23
684.502	284.23
684.911	265.5
685.32	286.57
685.728	260.82
686.137	321.68
686.546	288.91
686.954	251.46
687.363	338.06
687.771	361.47
688.179	345.08
688.588	221.03
688.996	291.25
689.404	326.36
689.812	319.34
690.22	328.7
690.628	328.7
691.036	288.91
691.444	356.79
691.852	317
692.26	279.55
692.667	359.13
693.075	300.61
693.483	270.19
693.89	338.06
694.298	314.66
694.705	307.63
695.112	312.32
695.52	328.7
695.927	331.04
696.334	281.89
696.741	291.25
697.148	302.95
697.555	307.63
697.962	307.63
698.369	331.04
698.776	270.19
699.183	284.23
699.59	333.38
699.996	342.74
700.403	284.23
700.81	295.93
701.216	340.4
701.623	291.25
702.029	258.48
702.435	274.87
702.842	291.25
703.248	317
703.654	302.95
704.06	300.61
704.466	288.91
704.872	288.91
705.278	319.34
705.684	246.78
706.09	246.78
706.496	258.48
706.901	305.29
707.307	293.59
707.712	349.76
708.118	298.27
708.523	314.66
708.929	300.61
709.334	274.87
709.74	284.23
710.145	324.02
710.55	300.61
710.955	237.42
711.36	349.76
711.765	340.4
712.17	328.7
712.575	302.95
712.98	827.23
713.385	349.76
713.789	326.36
714.194	302.95
714.599	260.82
715.003	317
715.408	345.08
715.812	314.66
716.217	274.87
716.621	305.29
717.025	291.25
717.429	295.93
717.833	328.7
718.238	335.72
718.642	305.29
719.046	242.1
719.449	281.89
719.853	274.87
720.257	305.29
720.661	309.97
721.065	291.25
721.468	331.04
721.872	312.32
722.275	291.25
722.679	335.72
723.082	321.68
723.485	317
723.889	349.76
724.292	298.27
724.695	347.42
725.098	326.36
725.501	384.87
725.904	326.36
726.307	314.66
726.71	373.17
727.113	286.57
727.516	302.95
727.918	239.76
728.321	305.29
728.724	314.66
729.126	272.53
729.529	331.04
729.931	338.06
730.333	305.29
730.736	319.34
731.138	321.68
731.54	298.27
731.942	321.68
732.344	267.85
732.746	288.91
733.148	317
733.55	342.74
733.952	335.72
734.354	249.12
734.756	352.1
735.157	309.97
735.559	314.66
735.96	300.61
736.362	267.85
736.763	328.7
737.165	274.87
737.566	277.21
737.967	317
738.368	277.21
738.77	242.1
739.171	298.27
739.572	338.06
739.973	272.53
740.374	319.34
740.774	309.97
741.175	286.57
741.576	265.5
741.977	317
742.377	293.59
742.778	284.23
743.178	347.42
743.579	312.32
743.979	342.74
744.379	246.78
744.78	307.63
745.18	345.08
745.58	326.36
745.98	300.61
746.38	331.04
746.78	314.66
747.18	295.93
747.58	319.34
747.98	331.04
748.38	279.55
748.779	324.02
749.179	239.76
749.578	331.04
749.978	279.55
750.377	309.97
750.777	314.66
751.176	295.93
751.575	312.32
751.975	295.93
752.374	302.95
752.773	239.76
753.172	300.61
753.571	260.82
753.97	328.7
754.369	307.63
754.768	361.47
755.166	279.55
755.565	309.97
755.964	326.36
756.362	375.51
756.761	258.48
757.159	366.15
757.558	335.72
757.956	286.57
758.354	326.36
758.753	338.06
759.151	326.36
759.549	314.66
759.947	319.34
760.345	347.42
760.743	321.68
761.141	305.29
761.539	324.02
761.936	279.55
762.334	270.19
762.732	242.1
763.129	286.57
763.527	281.89
763.924	314.66
764.322	267.85
764.719	347.42
765.117	305.29
765.514	335.72
765.911	324.02
766.308	333.38
766.705	237.42
767.102	342.74
767.499	286.57
767.896	319.34
768.293	319.34
768.69	302.95
769.086	286.57
769.483	295.93
769.88	260.82
770.276	298.27
770.673	335.72
771.069	263.16
771.466	300.61
771.862	281.89
772.258	295.93
772.654	328.7
773.05	312.32
773.447	312.32
773.843	274.87
774.239	319.34
774.634	317
775.03	218.69
775.426	298.27
775.822	312.32
776.218	293.59
776.613	356.79
777.009	232.74
777.404	361.47
777.8	279.55
778.195	279.55
778.59	317
778.986	309.97
779.381	272.53
779.776	352.1
780.171	277.21
780.566	267.85
780.961	317
781.356	274.87
781.751	272.53
782.146	333.38
782.54	366.15
782.935	403.6
783.33	363.81
783.724	228.06
784.119	305.29
784.513	317
784.908	312.32
785.302	286.57
785.696	298.27
786.09	324.02
786.485	314.66
786.879	331.04
787.273	328.7
787.667	324.02
788.061	314.66
788.454	309.97
788.848	251.46
789.242	298.27
789.636	281.89
790.029	333.38
790.423	270.19
790.816	319.34
791.21	319.34
791.603	321.68
791.997	244.44
792.39	309.97
792.783	307.63
793.176	321.68
793.569	396.57
793.962	331.04
794.355	312.32
794.748	295.93
795.141	312.32
795.534	419.98
795.927	279.55
796.319	293.59
796.712	286.57
797.105	331.04
797.497	263.16
797.89	319.34
798.282	293.59
798.674	328.7
799.067	284.23
799.459	321.68
799.851	326.36
800.243	260.82
800.635	340.4
801.027	312.32
801.419	326.36
801.811	375.51
802.203	309.97
802.594	270.19
802.986	368.49
803.378	295.93
803.769	274.87
804.161	335.72
804.552	225.72
804.944	293.59
805.335	263.16
805.726	335.72
806.118	253.8
806.509	298.27
806.9	237.42
807.291	302.95
807.682	253.8
808.073	302.95
808.464	239.76
808.855	307.63
809.245	331.04
809.636	260.82
810.027	265.5
810.417	309.97
810.808	366.15
811.198	368.49
811.589	291.25
811.979	298.27
812.369	317
812.759	251.46
813.15	279.55
813.54	312.32
813.93	286.57
814.32	295.93
814.71	300.61
815.1	286.57
815.489	307.63
815.879	384.87
816.269	342.74
816.658	387.21
817.048	333.38
817.438	295.93
817.827	293.59
818.216	300.61
818.606	270.19
818.995	281.89
819.384	267.85
819.773	265.5
820.163	302.95
820.552	305.29
820.941	288.91
821.33	314.66
821.718	293.59
822.107	345.08
822.496	328.7
822.885	309.97
823.273	347.42
823.662	312.32
824.05	328.7
824.439	274.87
824.827	293.59
825.216	270.19
825.604	223.37
825.992	349.76
826.38	256.14
826.768	279.55
827.156	328.7
827.544	319.34
827.932	345.08
828.32	279.55
828.708	309.97
829.096	302.95
829.483	298.27
829.871	277.21
830.259	333.38
830.646	246.78
831.034	307.63
831.421	253.8
831.808	333.38
832.196	272.53
832.583	293.59
832.97	291.25
833.357	331.04
833.744	352.1
834.131	288.91
834.518	274.87
834.905	307.63
835.292	312.32
835.678	300.61
836.065	253.8
836.452	302.95
836.838	324.02
837.225	274.87
837.611	298.27
837.998	293.59
838.384	317
838.77	314.66
839.157	251.46
839.543	291.25
839.929	317
840.315	295.93
840.701	267.85
841.087	300.61
841.473	288.91
841.858	328.7
842.244	277.21
842.63	305.29
843.015	265.5
843.401	544.03
843.787	288.91
844.172	319.34
844.557	249.12
844.943	256.14
845.328	251.46
845.713	263.16
846.098	288.91
846.483	277.21
846.868	326.36
847.253	347.42
847.638	288.91
848.023	277.21
848.408	272.53
848.793	244.44
849.177	251.46
849.562	277.21
849.947	291.25
850.331	317
850.715	307.63
851.1	328.7
851.484	300.61
851.868	260.82
852.253	291.25
852.637	281.89
853.021	326.36
853.405	307.63
853.789	324.02
854.173	317
854.557	410.62
854.94	263.16
855.324	314.66
855.708	370.83
856.091	366.15
856.475	225.72
856.858	302.95
857.242	230.4
857.625	328.7
858.009	317
858.392	293.59
858.775	293.59
859.158	319.34
859.541	302.95
859.924	295.93
860.307	377.85
860.69	340.4
861.073	387.21
861.456	302.95
861.838	333.38
862.221	317
862.604	284.23
862.986	274.87
863.369	391.89
863.751	366.15
864.133	338.06
864.516	331.04
864.898	298.27
865.28	267.85
865.662	317
866.044	349.76
866.426	270.19
866.808	333.38
867.19	263.16
867.572	239.76
867.954	321.68
868.336	398.92
868.717	300.61
869.099	302.95
869.48	258.48
869.862	340.4
870.243	249.12
870.625	270.19
871.006	321.68
871.387	370.83
871.768	265.5
872.149	347.42
872.53	272.53
872.911	288.91
873.292	267.85
873.673	307.63
874.054	260.82
874.435	223.37
874.815	263.16
875.196	338.06
875.577	309.97
875.957	338.06
876.338	305.29
876.718	326.36
877.098	260.82
877.479	293.59
877.859	293.59
878.239	263.16
878.619	314.66
878.999	281.89
879.379	274.87
879.759	359.13
880.139	298.27
880.519	366.15
880.898	326.36
881.278	335.72
881.658	345.08
882.037	277.21
882.417	377.85
882.796	281.89
883.176	277.21
883.555	277.21
883.934	267.85
884.313	293.59
884.693	307.63
885.072	286.57
885.451	333.38
885.83	286.57
886.209	317
886.587	249.12
886.966	258.48
887.345	291.25
887.724	253.8
888.102	333.38
888.481	324.02
888.859	291.25
889.238	326.36
889.616	274.87
889.994	277.21
890.373	281.89
890.751	354.44
891.129	380.19
891.507	331.04
891.885	295.93
892.263	335.72
892.641	239.76
893.019	281.89
893.396	274.87
893.774	342.74
894.152	281.89
894.529	328.7
894.907	284.23
895.284	293.59
895.662	258.48
896.039	345.08
896.416	293.59
896.794	307.63
897.171	218.69
897.548	291.25
897.925	314.66
898.302	298.27
898.679	314.66
899.056	326.36
899.433	340.4
899.809	291.25
900.186	272.53
900.563	319.34
900.939	314.66
901.316	232.74
901.692	279.55
902.069	340.4
902.445	321.68
902.821	291.25
903.197	305.29
903.574	253.8
903.95	354.44
904.326	317
904.702	340.4
905.078	291.25
905.454	288.91
905.829	225.72
906.205	300.61
906.581	354.44
906.956	363.81
907.332	366.15
907.707	345.08
908.083	326.36
908.458	277.21
908.833	244.44
909.209	279.55
909.584	352.1
909.959	370.83
910.334	295.93
910.709	298.27
911.084	267.85
911.459	295.93
911.834	309.97
912.209	295.93
912.583	328.7
912.958	272.53
913.333	286.57
913.707	274.87
914.082	244.44
914.456	256.14
914.83	377.85
915.205	286.57
915.579	302.95
915.953	302.95
916.327	359.13
916.701	279.55
917.075	333.38
917.449	284.23
917.823	246.78
918.197	298.27
918.571	253.8
918.944	338.06
919.318	293.59
919.692	321.68
920.065	305.29
920.438	349.76
920.812	288.91
921.185	312.32
921.558	293.59
921.932	319.34
922.305	302.95
922.678	305.29
923.051	331.04
923.424	345.08
923.797	293.59
924.17	284.23
924.542	324.02
924.915	354.44
925.288	267.85
925.661	349.76
926.033	270.19
926.406	338.06
926.778	225.72
927.15	328.7
927.523	326.36
927.895	309.97
928.267	260.82
928.639	293.59
929.011	270.19
929.383	295.93
929.755	256.14
930.127	249.12
930.499	321.68
930.871	333.38
931.242	291.25
931.614	307.63
931.986	258.48
932.357	284.23
932.729	328.7
933.1	232.74
933.471	295.93
933.843	324.02
934.214	340.4
934.585	317
934.956	309.97
935.327	333.38
935.698	286.57
936.069	349.76
936.44	324.02
936.811	242.1
937.182	258.48
937.552	319.34
937.923	246.78
938.293	281.89
938.664	295.93
939.034	230.4
939.405	279.55
939.775	298.27
940.145	246.78
940.516	375.51
940.886	305.29
941.256	309.97
941.626	295.93
941.996	307.63
942.366	214.01
942.735	309.97
943.105	326.36
943.475	239.76
943.845	291.25
944.214	300.61
944.584	302.95
944.953	309.97
945.323	324.02
945.692	288.91
946.061	335.72
946.43	214.01
946.8	298.27
947.169	342.74
947.538	286.57
947.907	235.08
948.276	258.48
948.645	295.93
949.013	347.42
949.382	291.25
949.751	232.74
950.119	328.7
950.488	324.02
950.857	279.55
951.225	284.23
951.593	291.25
951.962	265.5
952.33	314.66
952.698	352.1
953.066	293.59
953.434	298.27
953.802	270.19
954.17	314.66
954.538	291.25
954.906	321.68
955.274	291.25
955.642	281.89
956.009	305.29
956.377	218.69
956.744	359.13
957.112	321.68
957.479	335.72
957.847	263.16
958.214	265.5
958.581	298.27
958.948	293.59
959.315	300.61
959.683	345.08
960.05	307.63
960.416	342.74
960.783	260.82
961.15	293.59
961.517	281.89
961.884	300.61
962.25	286.57
962.617	324.02
962.983	270.19
963.35	298.27
963.716	293.59
964.082	286.57
964.449	309.97
964.815	244.44
965.181	295.93
965.547	223.37
965.913	281.89
966.279	284.23
966.645	274.87
967.011	309.97
967.377	300.61
967.742	246.78
968.108	298.27
968.474	288.91
968.839	284.23
969.205	307.63
969.57	260.82
969.935	230.4
970.301	333.38
970.666	307.63
971.031	370.83
971.396	375.51
971.761	314.66
972.126	319.34
972.491	286.57
972.856	291.25
973.221	331.04
973.586	324.02
973.95	368.49
974.315	324.02
974.679	288.91
975.044	302.95
975.408	300.61
975.773	359.13
976.137	305.29
976.501	267.85
976.866	302.95
977.23	256.14
977.594	302.95
977.958	277.21
978.322	309.97
978.686	274.87
979.049	312.32
979.413	345.08
979.777	319.34
980.141	270.19
980.504	317
980.868	298.27
981.231	319.34
981.595	246.78
981.958	291.25
982.321	324.02
982.684	263.16
983.048	312.32
983.411	354.44
983.774	317
984.137	305.29
984.5	307.63
984.862	256.14
985.225	295.93
985.588	380.19
985.951	295.93
986.313	384.87
986.676	284.23
987.038	342.74
987.401	267.85
987.763	347.42
988.125	307.63
988.488	312.32
988.85	333.38
989.212	258.48
989.574	279.55
989.936	277.21
990.298	298.27
990.66	356.79
991.022	375.51
991.383	328.7
991.745	295.93
992.107	333.38
992.468	302.95
992.83	335.72
993.191	246.78
993.553	263.16
993.914	258.48
994.275	317
994.637	333.38
994.998	265.5
995.359	363.81
995.72	366.15
996.081	263.16
996.442	267.85
996.803	251.46
997.163	263.16
997.524	345.08
997.885	274.87
998.245	338.06
998.606	324.02
998.966	270.19
999.327	267.85
999.687	335.72
1000.047	270.19
1000.408	366.15
1000.768	244.44
1001.128	305.29
1001.488	272.53
1001.848	281.89
1002.208	279.55
1002.568	288.91
1002.927	286.57
1003.287	302.95
1003.647	242.1
1004.007	309.97
1004.366	263.16
1004.726	267.85
1005.085	302.95
1005.444	338.06
1005.804	335.72
1006.163	246.78
1006.522	291.25
1006.881	298.27
1007.24	288.91
1007.599	263.16
1007.958	359.13
1008.317	354.44
1008.676	258.48
1009.035	291.25
1009.393	321.68
1009.752	312.32
1010.111	291.25
1010.469	333.38
1010.828	298.27
1011.186	242.1
1011.544	265.5
1011.903	354.44
1012.261	309.97
1012.619	244.44
1012.977	225.72
1013.335	349.76
1013.693	328.7
1014.051	265.5
1014.409	293.59
1014.767	368.49
1015.124	232.74
1015.482	284.23
1015.84	288.91
1016.197	312.32
1016.555	279.55
1016.912	253.8
1017.269	335.72
1017.627	314.66
1017.984	377.85
1018.341	277.21
1018.698	373.17
1019.055	305.29
1019.412	314.66
1019.769	293.59
1020.126	286.57
1020.483	366.15
1020.84	305.29
1021.196	319.34
1021.553	368.49
1021.909	319.34
1022.266	293.59
1022.622	263.16
1022.979	279.55
1023.335	218.69
1023.691	251.46
1024.047	307.63
1024.404	279.55
1024.76	295.93
1025.116	260.82
1025.472	281.89
1025.827	263.16
1026.183	291.25
1026.539	319.34
1026.895	277.21
1027.25	274.87
1027.606	279.55
1027.961	340.4
1028.317	270.19
1028.672	295.93
1029.028	270.19
1029.383	319.34
1029.738	317
1030.093	244.44
1030.448	319.34
1030.803	286.57
1031.158	340.4
1031.513	249.12
1031.868	246.78
1032.223	298.27
1032.577	253.8
1032.932	284.23
1033.287	267.85
1033.641	326.36
1033.996	258.48
1034.35	284.23
1034.704	251.46
1035.059	244.44
1035.413	314.66
1035.767	314.66
1036.121	314.66
