Data from Al_FLMS009871__903__16-18-08-023.txt Node

Date: Fri Mar 08 16:18:08 CST 2024
User: pe5414po
Spectrometer: FLMS00987
Trigger mode: 0
Integration Time (sec): 1.000000E-1
Scans to average: 1
Electric dark correction enabled: true
Nonlinearity correction enabled: false
Boxcar width: 0
XAxis mode: Wavelengths
Number of Pixels in Spectrum: 2048
>>>>>Begin Spectral Data<<<<<
188.938	-64.22
189.409	-64.22
189.879	-64.22
190.349	-43.15
190.819	-45.49
191.29	-89.96
191.76	-64.22
192.23	-160.18
192.7	-57.2
193.17	-85.28
193.64	-29.11
194.109	-52.52
194.579	-17.41
195.049	10.68
195.519	71.53
195.988	-3.36
196.458	41.11
196.927	78.55
197.397	73.87
197.866	174.52
198.336	108.98
198.805	167.49
199.274	148.77
199.744	155.79
200.213	165.15
200.682	197.92
201.151	240.05
201.62	272.82
202.089	263.46
202.558	277.5
203.027	242.39
203.495	230.69
203.964	303.25
204.433	298.56
204.902	268.14
205.37	333.67
205.839	352.4
206.307	242.39
206.776	300.91
207.244	286.86
207.712	300.91
208.181	296.22
208.649	249.41
209.117	228.35
209.585	310.27
210.053	312.61
210.521	300.91
210.989	333.67
211.457	256.43
211.925	317.29
212.393	275.16
212.861	331.33
213.328	268.14
213.796	289.2
214.264	277.5
214.731	256.43
215.199	303.25
215.666	193.24
216.133	272.82
216.601	310.27
217.068	279.84
217.535	303.25
218.003	305.59
218.47	289.2
218.937	256.43
219.404	291.54
219.871	336.01
220.338	240.05
220.805	291.54
221.271	261.12
221.738	284.52
222.205	268.14
222.671	286.86
223.138	265.8
223.605	282.18
224.071	298.56
224.538	221.33
225.004	240.05
225.47	289.2
225.937	247.07
226.403	235.37
226.869	319.63
227.335	207.28
227.801	235.37
228.267	214.31
228.733	350.06
229.199	321.97
229.665	233.03
230.131	293.88
230.597	221.33
231.062	247.07
231.528	312.61
231.994	314.95
232.459	326.65
232.925	216.65
233.39	237.71
233.856	289.2
234.321	272.82
234.786	286.86
235.252	270.48
235.717	265.8
236.182	296.22
236.647	223.67
237.112	305.59
237.577	272.82
238.042	321.97
238.507	286.86
238.972	263.46
239.436	263.46
239.901	293.88
240.366	265.8
240.83	343.03
241.295	326.65
241.76	275.16
242.224	256.43
242.688	261.12
243.153	291.54
243.617	305.59
244.081	293.88
244.545	265.8
245.01	230.69
245.474	303.25
245.938	347.72
246.402	303.25
246.866	293.88
247.33	268.14
247.793	317.29
248.257	251.75
248.721	265.8
249.185	284.52
249.648	235.37
250.112	286.86
250.575	272.82
251.039	317.29
251.502	289.2
251.965	312.61
252.429	277.5
252.892	265.8
253.355	263.46
253.818	249.41
254.281	289.2
254.744	263.46
255.207	293.88
255.67	312.61
256.133	319.63
256.596	277.5
257.059	340.69
257.522	289.2
257.984	261.12
258.447	270.48
258.909	352.4
259.372	279.84
259.834	286.86
260.297	352.4
260.759	272.82
261.221	240.05
261.684	282.18
262.146	282.18
262.608	319.63
263.07	289.2
263.532	272.82
263.994	284.52
264.456	298.56
264.918	275.16
265.38	258.78
265.842	307.93
266.303	284.52
266.765	314.95
267.227	265.8
267.688	277.5
268.15	338.35
268.611	298.56
269.072	300.91
269.534	321.97
269.995	310.27
270.456	303.25
270.918	296.22
271.379	312.61
271.84	279.84
272.301	265.8
272.762	242.39
273.223	296.22
273.684	303.25
274.144	272.82
274.605	247.07
275.066	291.54
275.527	286.86
275.987	303.25
276.448	321.97
276.908	303.25
277.369	307.93
277.829	296.22
278.289	261.12
278.75	242.39
279.21	289.2
279.67	197.92
280.13	333.67
280.59	263.46
281.05	314.95
281.51	272.82
281.97	298.56
282.43	314.95
282.89	279.84
283.35	226.01
283.809	256.43
284.269	305.59
284.729	258.78
285.188	282.18
285.648	317.29
286.107	275.16
286.567	319.63
287.026	314.95
287.485	336.01
287.944	296.22
288.404	223.67
288.863	247.07
289.322	300.91
289.781	286.86
290.24	244.73
290.699	258.78
291.158	307.93
291.616	336.01
292.075	296.22
292.534	237.71
292.992	286.86
293.451	314.95
293.91	286.86
294.368	282.18
294.827	289.2
295.285	291.54
295.743	282.18
296.202	296.22
296.66	331.33
297.118	291.54
297.576	270.48
298.034	298.56
298.492	328.99
298.95	317.29
299.408	298.56
299.866	272.82
300.324	319.63
300.781	270.48
301.239	272.82
301.697	286.86
302.154	303.25
302.612	336.01
303.069	357.08
303.527	275.16
303.984	314.95
304.441	317.29
304.899	338.35
305.356	279.84
305.813	321.97
306.27	338.35
306.727	300.91
307.184	256.43
307.641	282.18
308.098	326.65
308.555	284.52
309.012	293.88
309.468	350.06
309.925	284.52
310.382	268.14
310.838	321.97
311.295	312.61
311.751	326.65
312.208	307.93
312.664	277.5
313.12	336.01
313.577	312.61
314.033	338.35
314.489	324.31
314.945	357.08
315.401	357.08
315.857	298.56
316.313	275.16
316.769	286.86
317.225	359.42
317.681	275.16
318.136	305.59
318.592	209.62
319.048	282.18
319.503	261.12
319.959	331.33
320.414	286.86
320.869	340.69
321.325	218.99
321.78	366.44
322.235	392.19
322.691	333.67
323.146	312.61
323.601	317.29
324.056	233.03
324.511	244.73
324.966	291.54
325.421	312.61
325.875	300.91
326.33	319.63
326.785	345.38
327.24	279.84
327.694	265.8
328.149	312.61
328.603	265.8
329.058	244.73
329.512	272.82
329.966	312.61
330.421	317.29
330.875	298.56
331.329	265.8
331.783	289.2
332.237	223.67
332.691	277.5
333.145	310.27
333.599	275.16
334.053	375.8
334.507	347.72
334.96	286.86
335.414	317.29
335.868	359.42
336.321	284.52
336.775	289.2
337.228	324.31
337.682	310.27
338.135	279.84
338.588	336.01
339.042	291.54
339.495	310.27
339.948	284.52
340.401	324.31
340.854	296.22
341.307	321.97
341.76	293.88
342.213	312.61
342.666	277.5
343.119	343.03
343.571	326.65
344.024	317.29
344.477	312.61
344.929	343.03
345.382	361.76
345.834	263.46
346.287	305.59
346.739	321.97
347.191	324.31
347.644	282.18
348.096	312.61
348.548	300.91
349	303.25
349.452	333.67
349.904	307.93
350.356	354.74
350.808	326.65
351.26	340.69
351.711	277.5
352.163	221.33
352.615	305.59
353.066	286.86
353.518	345.38
353.969	282.18
354.421	296.22
354.872	347.72
355.324	282.18
355.775	338.35
356.226	293.88
356.677	296.22
357.128	298.56
357.579	317.29
358.03	275.16
358.481	289.2
358.932	338.35
359.383	305.59
359.834	268.14
360.285	317.29
360.735	328.99
361.186	336.01
361.637	347.72
362.087	310.27
362.538	314.95
362.988	331.33
363.438	328.99
363.889	317.29
364.339	247.07
364.789	305.59
365.239	331.33
365.689	298.56
366.139	310.27
366.589	279.84
367.039	286.86
367.489	336.01
367.939	314.95
368.389	275.16
368.839	324.31
369.288	324.31
369.738	319.63
370.187	286.86
370.637	345.38
371.086	310.27
371.536	305.59
371.985	312.61
372.434	310.27
372.884	319.63
373.333	321.97
373.782	328.99
374.231	340.69
374.68	307.93
375.129	261.12
375.578	336.01
376.027	317.29
376.475	298.56
376.924	413.25
377.373	333.67
377.822	319.63
378.27	343.03
378.719	328.99
379.167	340.69
379.616	347.72
380.064	265.8
380.512	300.91
380.961	331.33
381.409	350.06
381.857	298.56
382.305	293.88
382.753	317.29
383.201	331.33
383.649	350.06
384.097	347.72
384.545	326.65
384.992	286.86
385.44	317.29
385.888	350.06
386.335	228.35
386.783	333.67
387.231	319.63
387.678	371.12
388.125	307.93
388.573	317.29
389.02	291.54
389.467	317.29
389.914	338.35
390.362	338.35
390.809	310.27
391.256	284.52
391.703	343.03
392.15	321.97
392.596	326.65
393.043	382.82
393.49	312.61
393.937	314.95
394.383	298.56
394.83	277.5
395.276	371.12
395.723	336.01
396.169	314.95
396.616	300.91
397.062	347.72
397.508	324.31
397.954	300.91
398.401	268.14
398.847	317.29
399.293	312.61
399.739	296.22
400.185	284.52
400.631	277.5
401.076	300.91
401.522	261.12
401.968	291.54
402.414	289.2
402.859	291.54
403.305	331.33
403.75	319.63
404.196	256.43
404.641	277.5
405.086	265.8
405.532	312.61
405.977	265.8
406.422	336.01
406.867	230.69
407.312	293.88
407.757	293.88
408.202	326.65
408.647	328.99
409.092	300.91
409.537	303.25
409.982	279.84
410.426	408.57
410.871	345.38
411.316	364.1
411.76	289.2
412.205	408.57
412.649	343.03
413.093	328.99
413.538	343.03
413.982	357.08
414.426	343.03
414.87	291.54
415.314	284.52
415.758	305.59
416.202	307.93
416.646	324.31
417.09	303.25
417.534	336.01
417.978	357.08
418.421	338.35
418.865	272.82
419.309	364.1
419.752	286.86
420.196	336.01
420.639	279.84
421.083	340.69
421.526	216.65
421.969	357.08
422.412	310.27
422.856	361.76
423.299	331.33
423.742	298.56
424.185	317.29
424.628	298.56
425.071	291.54
425.513	312.61
425.956	277.5
426.399	399.21
426.842	305.59
427.284	340.69
427.727	364.1
428.169	263.46
428.612	333.67
429.054	352.4
429.497	326.65
429.939	314.95
430.381	321.97
430.823	333.67
431.265	324.31
431.707	324.31
432.149	310.27
432.591	326.65
433.033	272.82
433.475	286.86
433.917	300.91
434.359	345.38
434.8	389.85
435.242	326.65
435.684	310.27
436.125	326.65
436.567	324.31
437.008	343.03
437.449	357.08
437.891	279.84
438.332	399.21
438.773	282.18
439.214	343.03
439.656	293.88
440.097	408.57
440.538	328.99
440.978	312.61
441.419	333.67
441.86	364.1
442.301	357.08
442.742	317.29
443.182	261.12
443.623	314.95
444.063	296.22
444.504	378.14
444.944	333.67
445.385	249.41
445.825	291.54
446.265	300.91
446.706	354.74
447.146	314.95
447.586	310.27
448.026	303.25
448.466	359.42
448.906	366.44
449.346	305.59
449.786	336.01
450.225	307.93
450.665	303.25
451.105	312.61
451.544	296.22
451.984	375.8
452.424	328.99
452.863	265.8
453.302	298.56
453.742	338.35
454.181	307.93
454.62	312.61
455.059	303.25
455.499	310.27
455.938	270.48
456.377	328.99
456.816	289.2
457.254	378.14
457.693	354.74
458.132	268.14
458.571	331.33
459.01	324.31
459.448	336.01
459.887	296.22
460.325	371.12
460.764	279.84
461.202	254.09
461.641	319.63
462.079	347.72
462.517	324.31
462.955	333.67
463.393	378.14
463.832	326.65
464.27	298.56
464.708	366.44
465.145	296.22
465.583	270.48
466.021	319.63
466.459	324.31
466.897	364.1
467.334	296.22
467.772	347.72
468.209	359.42
468.647	338.35
469.084	328.99
469.522	361.76
469.959	284.52
470.396	303.25
470.833	307.93
471.271	270.48
471.708	296.22
472.145	298.56
472.582	336.01
473.019	357.08
473.456	328.99
473.892	282.18
474.329	310.27
474.766	254.09
475.202	275.16
475.639	321.97
476.076	321.97
476.512	293.88
476.949	336.01
477.385	307.93
477.821	289.2
478.258	364.1
478.694	265.8
479.13	277.5
479.566	319.63
480.002	254.09
480.438	328.99
480.874	354.74
481.31	305.59
481.746	321.97
482.181	340.69
482.617	289.2
483.053	408.57
483.488	286.86
483.924	293.88
484.36	321.97
484.795	310.27
485.23	310.27
485.666	291.54
486.101	275.16
486.536	317.29
486.971	317.29
487.407	298.56
487.842	293.88
488.277	364.1
488.712	282.18
489.146	361.76
489.581	328.99
490.016	373.46
490.451	286.86
490.885	364.1
491.32	319.63
491.755	410.91
492.189	328.99
492.624	296.22
493.058	324.31
493.492	289.2
493.927	352.4
494.361	289.2
494.795	357.08
495.229	338.35
495.663	319.63
496.097	314.95
496.531	268.14
496.965	373.46
497.399	317.29
497.833	331.33
498.266	371.12
498.7	314.95
499.134	361.76
499.567	249.41
500.001	321.97
500.434	352.4
500.868	361.76
501.301	357.08
501.734	305.59
502.168	364.1
502.601	300.91
503.034	296.22
503.467	275.16
503.9	254.09
504.333	314.95
504.766	364.1
505.199	286.86
505.632	382.82
506.064	326.65
506.497	324.31
506.93	328.99
507.362	361.76
507.795	310.27
508.227	328.99
508.66	352.4
509.092	284.52
509.524	324.31
509.956	275.16
510.389	312.61
510.821	385.16
511.253	321.97
511.685	282.18
512.117	350.06
512.549	312.61
512.981	336.01
513.412	350.06
513.844	293.88
514.276	373.46
514.707	364.1
515.139	310.27
515.571	284.52
516.002	312.61
516.433	408.57
516.865	282.18
517.296	373.46
517.727	331.33
518.159	293.88
518.59	366.44
519.021	298.56
519.452	361.76
519.883	256.43
520.314	336.01
520.744	303.25
521.175	385.16
521.606	319.63
522.037	387.5
522.467	296.22
522.898	275.16
523.328	331.33
523.759	350.06
524.189	317.29
524.62	291.54
525.05	345.38
525.48	317.29
525.91	336.01
526.341	300.91
526.771	326.65
527.201	314.95
527.631	300.91
528.061	333.67
528.49	289.2
528.92	277.5
529.35	328.99
529.78	284.52
530.209	286.86
530.639	282.18
531.068	333.67
531.498	340.69
531.927	317.29
532.357	310.27
532.786	256.43
533.215	324.31
533.644	317.29
534.074	338.35
534.503	233.03
534.932	359.42
535.361	277.5
535.79	314.95
536.218	303.25
536.647	300.91
537.076	303.25
537.505	300.91
537.933	272.82
538.362	326.65
538.79	317.29
539.219	382.82
539.647	350.06
540.076	303.25
540.504	352.4
540.932	333.67
541.36	343.03
541.788	336.01
542.217	293.88
542.645	310.27
543.073	343.03
543.5	338.35
543.928	300.91
544.356	307.93
544.784	307.93
545.211	272.82
545.639	312.61
546.067	289.2
546.494	352.4
546.922	338.35
547.349	321.97
547.776	223.67
548.204	277.5
548.631	343.03
549.058	289.2
549.485	317.29
549.912	375.8
550.339	268.14
550.766	286.86
551.193	328.99
551.62	305.59
552.047	364.1
552.474	338.35
552.9	319.63
553.327	312.61
553.754	291.54
554.18	305.59
554.607	312.61
555.033	317.29
555.459	284.52
555.886	270.48
556.312	291.54
556.738	298.56
557.164	291.54
557.59	336.01
558.016	230.69
558.442	321.97
558.868	272.82
559.294	307.93
559.72	366.44
560.145	328.99
560.571	331.33
560.997	265.8
561.422	272.82
561.848	312.61
562.273	364.1
562.699	289.2
563.124	350.06
563.549	345.38
563.974	303.25
564.4	371.12
564.825	324.31
565.25	345.38
565.675	314.95
566.1	317.29
566.525	305.59
566.95	408.57
567.374	347.72
567.799	291.54
568.224	352.4
568.648	338.35
569.073	319.63
569.497	293.88
569.922	336.01
570.346	375.8
570.771	321.97
571.195	359.42
571.619	336.01
572.043	268.14
572.467	284.52
572.891	293.88
573.315	307.93
573.739	268.14
574.163	328.99
574.587	345.38
575.011	378.14
575.435	347.72
575.858	338.35
576.282	359.42
576.705	352.4
577.129	364.1
577.552	293.88
577.976	350.06
578.399	303.25
578.822	314.95
579.245	258.78
579.669	321.97
580.092	303.25
580.515	270.48
580.938	314.95
581.361	230.69
581.784	321.97
582.206	317.29
582.629	282.18
583.052	314.95
583.474	310.27
583.897	312.61
584.32	305.59
584.742	321.97
585.165	296.22
585.587	303.25
586.009	336.01
586.431	324.31
586.854	293.88
587.276	296.22
587.698	317.29
588.12	296.22
588.542	343.03
588.964	303.25
589.386	333.67
589.807	328.99
590.229	333.67
590.651	277.5
591.073	354.74
591.494	291.54
591.916	307.93
592.337	389.85
592.759	249.41
593.18	375.8
593.601	368.78
594.022	291.54
594.444	221.33
594.865	305.59
595.286	326.65
595.707	312.61
596.128	378.14
596.549	347.72
596.97	300.91
597.39	371.12
597.811	284.52
598.232	270.48
598.652	293.88
599.073	317.29
599.494	361.76
599.914	265.8
600.334	371.12
600.755	279.84
601.175	328.99
601.595	319.63
602.015	289.2
602.436	314.95
602.856	520.92
603.276	298.56
603.696	336.01
604.115	296.22
604.535	286.86
604.955	314.95
605.375	305.59
605.794	324.31
606.214	310.27
606.634	343.03
607.053	366.44
607.473	268.14
607.892	324.31
608.311	373.46
608.731	328.99
609.15	350.06
609.569	328.99
609.988	263.46
610.407	357.08
610.826	289.2
611.245	378.14
611.664	307.93
612.083	270.48
612.501	256.43
612.92	272.82
613.339	265.8
613.757	319.63
614.176	244.73
614.594	284.52
615.013	275.16
615.431	279.84
615.85	359.42
616.268	307.93
616.686	326.65
617.104	275.16
617.522	324.31
617.94	326.65
618.358	333.67
618.776	314.95
619.194	350.06
619.612	431.98
620.03	314.95
620.447	357.08
620.865	268.14
621.282	303.25
621.7	321.97
622.117	296.22
622.535	373.46
622.952	300.91
623.369	312.61
623.787	340.69
624.204	319.63
624.621	343.03
625.038	284.52
625.455	317.29
625.872	406.23
626.289	284.52
626.706	357.08
627.123	293.88
627.539	333.67
627.956	368.78
628.373	307.93
628.789	345.38
629.206	387.5
629.622	338.35
630.038	382.82
630.455	324.31
630.871	300.91
631.287	275.16
631.703	270.48
632.12	338.35
632.536	305.59
632.952	317.29
633.368	350.06
633.783	296.22
634.199	293.88
634.615	314.95
635.031	305.59
635.446	368.78
635.862	333.67
636.277	331.33
636.693	314.95
637.108	328.99
637.524	279.84
637.939	319.63
638.354	284.52
638.77	305.59
639.185	284.52
639.6	305.59
640.015	331.33
640.43	307.93
640.845	291.54
641.259	303.25
641.674	305.59
642.089	284.52
642.504	300.91
642.918	340.69
643.333	307.93
643.747	277.5
644.162	312.61
644.576	368.78
644.991	293.88
645.405	324.31
645.819	352.4
646.233	317.29
646.647	307.93
647.061	307.93
647.475	282.18
647.889	263.46
648.303	338.35
648.717	352.4
649.131	314.95
649.545	326.65
649.958	364.1
650.372	293.88
650.785	310.27
651.199	319.63
651.612	338.35
652.026	314.95
652.439	382.82
652.852	307.93
653.266	293.88
653.679	354.74
654.092	352.4
654.505	324.31
654.918	296.22
655.331	317.29
655.744	263.46
656.156	366.44
656.569	343.03
656.982	249.41
657.394	296.22
657.807	279.84
658.22	364.1
658.632	352.4
659.044	319.63
659.457	324.31
659.869	296.22
660.281	221.33
660.693	310.27
661.106	336.01
661.518	314.95
661.93	314.95
662.342	240.05
662.754	284.52
663.165	310.27
663.577	305.59
663.989	319.63
664.401	263.46
664.812	336.01
665.224	373.46
665.635	319.63
666.047	298.56
666.458	261.12
666.869	375.8
667.281	291.54
667.692	350.06
668.103	305.59
668.514	282.18
668.925	321.97
669.336	307.93
669.747	298.56
670.158	272.82
670.569	265.8
670.979	289.2
671.39	357.08
671.801	333.67
672.211	317.29
672.622	368.78
673.032	319.63
673.443	303.25
673.853	282.18
674.263	361.76
674.674	265.8
675.084	312.61
675.494	312.61
675.904	284.52
676.314	324.31
676.724	354.74
677.134	364.1
677.544	293.88
677.953	359.42
678.363	338.35
678.773	399.21
679.182	300.91
679.592	289.2
680.001	396.87
680.411	303.25
680.82	296.22
681.23	265.8
681.639	385.16
682.048	270.48
682.457	233.03
682.866	300.91
683.275	307.93
683.684	321.97
684.093	338.35
684.502	314.95
684.911	331.33
685.32	333.67
685.728	354.74
686.137	326.65
686.546	371.12
686.954	373.46
687.363	343.03
687.771	333.67
688.179	338.35
688.588	296.22
688.996	361.76
689.404	366.44
689.812	319.63
690.22	293.88
690.628	244.73
691.036	328.99
691.444	345.38
691.852	321.97
692.26	303.25
692.667	354.74
693.075	284.52
693.483	319.63
693.89	265.8
694.298	307.93
694.705	282.18
695.112	317.29
695.52	368.78
695.927	331.33
696.334	347.72
696.741	321.97
697.148	324.31
697.555	331.33
697.962	350.06
698.369	312.61
698.776	317.29
699.183	343.03
699.59	368.78
699.996	284.52
700.403	261.12
700.81	310.27
701.216	300.91
701.623	275.16
702.029	256.43
702.435	291.54
702.842	345.38
703.248	233.03
703.654	293.88
704.06	261.12
704.466	336.01
704.872	328.99
705.278	305.59
705.684	331.33
706.09	296.22
706.496	347.72
706.901	368.78
707.307	333.67
707.712	382.82
708.118	268.14
708.523	293.88
708.929	336.01
709.334	226.01
709.74	319.63
710.145	272.82
710.55	354.74
710.955	254.09
711.36	331.33
711.765	326.65
712.17	439
712.575	300.91
712.98	836.89
713.385	275.16
713.789	319.63
714.194	328.99
714.599	336.01
715.003	326.65
715.408	307.93
715.812	321.97
716.217	368.78
716.621	324.31
717.025	258.78
717.429	324.31
717.833	312.61
718.238	279.84
718.642	328.99
719.046	314.95
719.449	258.78
719.853	312.61
720.257	328.99
720.661	321.97
721.065	277.5
721.468	347.72
721.872	289.2
722.275	392.19
722.679	247.07
723.082	357.08
723.485	354.74
723.889	268.14
724.292	371.12
724.695	326.65
725.098	373.46
725.501	319.63
725.904	305.59
726.307	296.22
726.71	286.86
727.113	300.91
727.516	317.29
727.918	305.59
728.321	300.91
728.724	357.08
729.126	373.46
729.529	352.4
729.931	324.31
730.333	312.61
730.736	307.93
731.138	347.72
731.54	375.8
731.942	343.03
732.344	350.06
732.746	277.5
733.148	270.48
733.55	340.69
733.952	300.91
734.354	326.65
734.756	310.27
735.157	300.91
735.559	289.2
735.96	326.65
736.362	338.35
736.763	275.16
737.165	331.33
737.566	361.76
737.967	357.08
738.368	270.48
738.77	307.93
739.171	336.01
739.572	282.18
739.973	345.38
740.374	366.44
740.774	300.91
741.175	338.35
741.576	364.1
741.977	338.35
742.377	312.61
742.778	373.46
743.178	321.97
743.579	319.63
743.979	303.25
744.379	312.61
744.78	286.86
745.18	340.69
745.58	270.48
745.98	298.56
746.38	307.93
746.78	291.54
747.18	298.56
747.58	338.35
747.98	333.67
748.38	343.03
748.779	350.06
749.179	286.86
749.578	340.69
749.978	314.95
750.377	352.4
750.777	321.97
751.176	347.72
751.575	331.33
751.975	319.63
752.374	375.8
752.773	364.1
753.172	265.8
753.571	336.01
753.97	331.33
754.369	345.38
754.768	328.99
755.166	298.56
755.565	305.59
755.964	284.52
756.362	333.67
756.761	289.2
757.159	282.18
757.558	291.54
757.956	321.97
758.354	296.22
758.753	371.12
759.151	256.43
759.549	350.06
759.947	354.74
760.345	277.5
760.743	272.82
761.141	312.61
761.539	382.82
761.936	347.72
762.334	314.95
762.732	279.84
763.129	336.01
763.527	296.22
763.924	354.74
764.322	282.18
764.719	347.72
765.117	300.91
765.514	328.99
765.911	328.99
766.308	336.01
766.705	326.65
767.102	307.93
767.499	317.29
767.896	275.16
768.293	305.59
768.69	300.91
769.086	352.4
769.483	366.44
769.88	354.74
770.276	272.82
770.673	293.88
771.069	305.59
771.466	312.61
771.862	249.41
772.258	312.61
772.654	350.06
773.05	380.48
773.447	289.2
773.843	371.12
774.239	265.8
774.634	303.25
775.03	389.85
775.426	343.03
775.822	343.03
776.218	312.61
776.613	354.74
777.009	338.35
777.404	296.22
777.8	314.95
778.195	261.12
778.59	296.22
778.986	345.38
779.381	310.27
779.776	282.18
780.171	254.09
780.566	314.95
780.961	305.59
781.356	331.33
781.751	293.88
782.146	317.29
782.54	277.5
782.935	314.95
783.33	307.93
783.724	331.33
784.119	286.86
784.513	277.5
784.908	296.22
785.302	328.99
785.696	336.01
786.09	305.59
786.485	263.46
786.879	249.41
787.273	218.99
787.667	347.72
788.061	305.59
788.454	317.29
788.848	314.95
789.242	336.01
789.636	307.93
790.029	300.91
790.423	314.95
790.816	319.63
791.21	305.59
791.603	286.86
791.997	321.97
792.39	361.76
792.783	256.43
793.176	319.63
793.569	361.76
793.962	289.2
794.355	375.8
794.748	312.61
795.141	350.06
795.534	319.63
795.927	286.86
796.319	312.61
796.712	321.97
797.105	317.29
797.497	326.65
797.89	319.63
798.282	303.25
798.674	279.84
799.067	272.82
799.459	333.67
799.851	317.29
800.243	387.5
800.635	347.72
801.027	340.69
801.419	333.67
801.811	310.27
802.203	312.61
802.594	345.38
802.986	340.69
803.378	305.59
803.769	270.48
804.161	293.88
804.552	352.4
804.944	284.52
805.335	319.63
805.726	357.08
806.118	345.38
806.509	319.63
806.9	270.48
807.291	303.25
807.682	321.97
808.073	324.31
808.464	256.43
808.855	328.99
809.245	242.39
809.636	279.84
810.027	314.95
810.417	359.42
810.808	331.33
811.198	328.99
811.589	328.99
811.979	277.5
812.369	350.06
812.759	256.43
813.15	331.33
813.54	307.93
813.93	319.63
814.32	289.2
814.71	261.12
815.1	368.78
815.489	277.5
815.879	326.65
816.269	357.08
816.658	300.91
817.048	359.42
817.438	300.91
817.827	291.54
818.216	279.84
818.606	298.56
818.995	307.93
819.384	345.38
819.773	354.74
820.163	319.63
820.552	324.31
820.941	310.27
821.33	291.54
821.718	221.33
822.107	307.93
822.496	254.09
822.885	336.01
823.273	350.06
823.662	347.72
824.05	328.99
824.439	293.88
824.827	319.63
825.216	364.1
825.604	307.93
825.992	321.97
826.38	256.43
826.768	345.38
827.156	314.95
827.544	296.22
827.932	331.33
828.32	303.25
828.708	268.14
829.096	319.63
829.483	333.67
829.871	303.25
830.259	275.16
830.646	352.4
831.034	340.69
831.421	328.99
831.808	298.56
832.196	350.06
832.583	296.22
832.97	359.42
833.357	303.25
833.744	268.14
834.131	279.84
834.518	263.46
834.905	270.48
835.292	331.33
835.678	305.59
836.065	324.31
836.452	298.56
836.838	333.67
837.225	312.61
837.611	282.18
837.998	399.21
838.384	305.59
838.77	338.35
839.157	331.33
839.543	321.97
839.929	300.91
840.315	291.54
840.701	321.97
841.087	298.56
841.473	326.65
841.858	265.8
842.244	275.16
842.63	317.29
843.015	319.63
843.401	572.41
843.787	364.1
844.172	261.12
844.557	263.46
844.943	326.65
845.328	331.33
845.713	389.85
846.098	361.76
846.483	284.52
846.868	324.31
847.253	218.99
847.638	296.22
848.023	371.12
848.408	265.8
848.793	338.35
849.177	340.69
849.562	305.59
849.947	268.14
850.331	331.33
850.715	307.93
851.1	275.16
851.484	319.63
851.868	310.27
852.253	284.52
852.637	324.31
853.021	321.97
853.405	331.33
853.789	279.84
854.173	261.12
854.557	263.46
854.94	293.88
855.324	293.88
855.708	286.86
856.091	352.4
856.475	275.16
856.858	284.52
857.242	251.75
857.625	286.86
858.009	408.57
858.392	298.56
858.775	331.33
859.158	338.35
859.541	324.31
859.924	272.82
860.307	324.31
860.69	312.61
861.073	242.39
861.456	310.27
861.838	312.61
862.221	282.18
862.604	298.56
862.986	338.35
863.369	242.39
863.751	289.2
864.133	317.29
864.516	314.95
864.898	303.25
865.28	296.22
865.662	328.99
866.044	286.86
866.426	361.76
866.808	275.16
867.19	305.59
867.572	392.19
867.954	282.18
868.336	291.54
868.717	317.29
869.099	296.22
869.48	286.86
869.862	289.2
870.243	275.16
870.625	296.22
871.006	371.12
871.387	394.53
871.768	333.67
872.149	321.97
872.53	314.95
872.911	263.46
873.292	270.48
873.673	328.99
874.054	373.46
874.435	249.41
874.815	312.61
875.196	338.35
875.577	321.97
875.957	291.54
876.338	310.27
876.718	317.29
877.098	321.97
877.479	270.48
877.859	298.56
878.239	303.25
878.619	305.59
878.999	321.97
879.379	357.08
879.759	319.63
880.139	321.97
880.519	286.86
880.898	326.65
881.278	345.38
881.658	317.29
882.037	373.46
882.417	258.78
882.796	291.54
883.176	291.54
883.555	324.31
883.934	268.14
884.313	347.72
884.693	312.61
885.072	298.56
885.451	300.91
885.83	240.05
886.209	275.16
886.587	247.07
886.966	328.99
887.345	279.84
887.724	300.91
888.102	307.93
888.481	275.16
888.859	307.93
889.238	333.67
889.616	401.55
889.994	328.99
890.373	284.52
890.751	328.99
891.129	333.67
891.507	314.95
891.885	303.25
892.263	326.65
892.641	284.52
893.019	314.95
893.396	272.82
893.774	265.8
894.152	371.12
894.529	326.65
894.907	328.99
895.284	345.38
895.662	326.65
896.039	300.91
896.416	324.31
896.794	233.03
897.171	296.22
897.548	254.09
897.925	382.82
898.302	258.78
898.679	324.31
899.056	286.86
899.433	242.39
899.809	268.14
900.186	366.44
900.563	291.54
900.939	277.5
901.316	286.86
901.692	286.86
902.069	265.8
902.445	265.8
902.821	286.86
903.197	319.63
903.574	272.82
903.95	303.25
904.326	331.33
904.702	300.91
905.078	256.43
905.454	289.2
905.829	261.12
906.205	284.52
906.581	312.61
906.956	261.12
907.332	272.82
907.707	291.54
908.083	368.78
908.458	317.29
908.833	314.95
909.209	284.52
909.584	307.93
909.959	326.65
910.334	277.5
910.709	343.03
911.084	321.97
911.459	291.54
911.834	254.09
912.209	305.59
912.583	310.27
912.958	303.25
913.333	284.52
913.707	317.29
914.082	324.31
914.456	312.61
914.83	298.56
915.205	321.97
915.579	328.99
915.953	328.99
916.327	382.82
916.701	333.67
917.075	345.38
917.449	293.88
917.823	284.52
918.197	366.44
918.571	343.03
918.944	310.27
919.318	270.48
919.692	279.84
920.065	345.38
920.438	296.22
920.812	368.78
921.185	235.37
921.558	305.59
921.932	305.59
922.305	268.14
922.678	331.33
923.051	275.16
923.424	333.67
923.797	422.61
924.17	249.41
924.542	298.56
924.915	364.1
925.288	286.86
925.661	289.2
926.033	343.03
926.406	361.76
926.778	296.22
927.15	328.99
927.523	268.14
927.895	282.18
928.267	305.59
928.639	282.18
929.011	364.1
929.383	305.59
929.755	312.61
930.127	333.67
930.499	298.56
930.871	324.31
931.242	314.95
931.614	331.33
931.986	300.91
932.357	333.67
932.729	291.54
933.1	333.67
933.471	368.78
933.843	256.43
934.214	394.53
934.585	293.88
934.956	300.91
935.327	317.29
935.698	293.88
936.069	307.93
936.44	307.93
936.811	307.93
937.182	305.59
937.552	284.52
937.923	272.82
938.293	310.27
938.664	272.82
939.034	268.14
939.405	275.16
939.775	345.38
940.145	261.12
940.516	312.61
940.886	300.91
941.256	298.56
941.626	277.5
941.996	366.44
942.366	336.01
942.735	340.69
943.105	338.35
943.475	221.33
943.845	284.52
944.214	268.14
944.584	293.88
944.953	307.93
945.323	263.46
945.692	326.65
946.061	333.67
946.43	364.1
946.8	244.73
947.169	326.65
947.538	254.09
947.907	296.22
948.276	347.72
948.645	237.71
949.013	268.14
949.382	284.52
949.751	268.14
950.119	340.69
950.488	293.88
950.857	343.03
951.225	293.88
951.593	319.63
951.962	293.88
952.33	307.93
952.698	324.31
953.066	270.48
953.434	279.84
953.802	326.65
954.17	300.91
954.538	343.03
954.906	277.5
955.274	328.99
955.642	324.31
956.009	317.29
956.377	314.95
956.744	300.91
957.112	321.97
957.479	310.27
957.847	343.03
958.214	324.31
958.581	321.97
958.948	303.25
959.315	312.61
959.683	319.63
960.05	268.14
960.416	298.56
960.783	289.2
961.15	289.2
961.517	293.88
961.884	328.99
962.25	305.59
962.617	319.63
962.983	310.27
963.35	275.16
963.716	331.33
964.082	319.63
964.449	354.74
964.815	317.29
965.181	345.38
965.547	233.03
965.913	307.93
966.279	324.31
966.645	263.46
967.011	286.86
967.377	343.03
967.742	319.63
968.108	296.22
968.474	336.01
968.839	324.31
969.205	300.91
969.57	261.12
969.935	277.5
970.301	300.91
970.666	328.99
971.031	275.16
971.396	305.59
971.761	319.63
972.126	368.78
972.491	364.1
972.856	307.93
973.221	324.31
973.586	321.97
973.95	321.97
974.315	300.91
974.679	314.95
975.044	319.63
975.408	312.61
975.773	378.14
976.137	321.97
976.501	357.08
976.866	242.39
977.23	289.2
977.594	293.88
977.958	275.16
978.322	312.61
978.686	352.4
979.049	389.85
979.413	307.93
979.777	368.78
980.141	406.23
980.504	310.27
980.868	305.59
981.231	324.31
981.595	289.2
981.958	326.65
982.321	289.2
982.684	352.4
983.048	282.18
983.411	375.8
983.774	296.22
984.137	319.63
984.5	282.18
984.862	345.38
985.225	261.12
985.588	347.72
985.951	345.38
986.313	289.2
986.676	314.95
987.038	343.03
987.401	261.12
987.763	305.59
988.125	314.95
988.488	361.76
988.85	296.22
989.212	324.31
989.574	286.86
989.936	347.72
990.298	235.37
990.66	272.82
991.022	314.95
991.383	277.5
991.745	312.61
992.107	321.97
992.468	275.16
992.83	291.54
993.191	305.59
993.553	359.42
993.914	303.25
994.275	256.43
994.637	336.01
994.998	319.63
995.359	350.06
995.72	312.61
996.081	340.69
996.442	328.99
996.803	284.52
997.163	350.06
997.524	265.8
997.885	345.38
998.245	261.12
998.606	326.65
998.966	382.82
999.327	354.74
999.687	310.27
1000.047	268.14
1000.408	343.03
1000.768	319.63
1001.128	361.76
1001.488	256.43
1001.848	291.54
1002.208	333.67
1002.568	317.29
1002.927	328.99
1003.287	303.25
1003.647	345.38
1004.007	319.63
1004.366	338.35
1004.726	321.97
1005.085	284.52
1005.444	300.91
1005.804	345.38
1006.163	279.84
1006.522	270.48
1006.881	284.52
1007.24	256.43
1007.599	286.86
1007.958	282.18
1008.317	226.01
1008.676	312.61
1009.035	359.42
1009.393	277.5
1009.752	293.88
1010.111	359.42
1010.469	345.38
1010.828	340.69
1011.186	258.78
1011.544	312.61
1011.903	293.88
1012.261	328.99
1012.619	326.65
1012.977	291.54
1013.335	340.69
1013.693	279.84
1014.051	307.93
1014.409	305.59
1014.767	298.56
1015.124	270.48
1015.482	300.91
1015.84	282.18
1016.197	244.73
1016.555	286.86
1016.912	282.18
1017.269	298.56
1017.627	265.8
1017.984	312.61
1018.341	375.8
1018.698	293.88
1019.055	305.59
1019.412	336.01
1019.769	331.33
1020.126	307.93
1020.483	336.01
1020.84	300.91
1021.196	338.35
1021.553	340.69
1021.909	352.4
1022.266	371.12
1022.622	331.33
1022.979	368.78
1023.335	373.46
1023.691	333.67
1024.047	305.59
1024.404	279.84
1024.76	340.69
1025.116	333.67
1025.472	352.4
1025.827	338.35
1026.183	371.12
1026.539	312.61
1026.895	286.86
1027.25	324.31
1027.606	340.69
1027.961	319.63
1028.317	350.06
1028.672	282.18
1029.028	286.86
1029.383	336.01
1029.738	298.56
1030.093	270.48
1030.448	331.33
1030.803	343.03
1031.158	385.16
1031.513	258.78
1031.868	296.22
1032.223	284.52
1032.577	343.03
1032.932	340.69
1033.287	254.09
1033.641	235.37
1033.996	359.42
1034.35	333.67
1034.704	336.01
1035.059	312.61
1035.413	312.61
1035.767	312.61
1036.121	312.61
