Data from Al_FLMS009871__917__16-18-09-423.txt Node

Date: Fri Mar 08 16:18:09 CST 2024
User: pe5414po
Spectrometer: FLMS00987
Trigger mode: 0
Integration Time (sec): 1.000000E-1
Scans to average: 1
Electric dark correction enabled: true
Nonlinearity correction enabled: false
Boxcar width: 0
XAxis mode: Wavelengths
Number of Pixels in Spectrum: 2048
>>>>>Begin Spectral Data<<<<<
188.938	-69.78
189.409	-69.78
189.879	-69.78
190.349	-37.01
190.819	-67.44
191.29	-107.23
191.76	-111.91
192.23	-100.2
192.7	-48.71
193.17	-34.67
193.64	-55.73
194.109	-39.35
194.579	-13.6
195.049	-67.44
195.519	-22.97
195.988	101.08
196.458	54.27
196.927	37.89
197.397	119.81
197.866	173.64
198.336	115.13
198.805	199.38
199.274	143.21
199.744	180.66
200.213	173.64
200.682	253.22
201.151	271.94
201.62	262.58
202.089	276.62
202.558	168.96
203.027	250.88
203.495	288.32
203.964	278.96
204.433	304.71
204.902	264.92
205.37	302.37
205.839	241.51
206.307	269.6
206.776	370.24
207.244	290.67
207.712	323.43
208.181	307.05
208.649	307.05
209.117	309.39
209.585	349.18
210.053	304.71
210.521	283.64
210.989	260.24
211.457	335.14
211.925	328.11
212.393	281.3
212.861	276.62
213.328	302.37
213.796	278.96
214.264	246.2
214.731	260.24
215.199	356.2
215.666	290.67
216.133	241.51
216.601	271.94
217.068	255.56
217.535	255.56
218.003	269.6
218.47	316.41
218.937	302.37
219.404	346.84
219.871	243.85
220.338	278.96
220.805	325.77
221.271	290.67
221.738	241.51
222.205	241.51
222.671	274.28
223.138	222.79
223.605	175.98
224.071	283.64
224.538	199.38
225.004	262.58
225.47	274.28
225.937	269.6
226.403	267.26
226.869	267.26
227.335	297.69
227.801	253.22
228.267	264.92
228.733	318.75
229.199	248.54
229.665	274.28
230.131	199.38
230.597	234.49
231.062	246.2
231.528	285.98
231.994	304.71
232.459	323.43
232.925	269.6
233.39	276.62
233.856	295.35
234.321	276.62
234.786	318.75
235.252	349.18
235.717	285.98
236.182	300.03
236.647	290.67
237.112	321.09
237.577	276.62
238.042	318.75
238.507	367.9
238.972	311.73
239.436	309.39
239.901	267.26
240.366	307.05
240.83	281.3
241.295	295.35
241.76	264.92
242.224	318.75
242.688	274.28
243.153	307.05
243.617	304.71
244.081	257.9
244.545	278.96
245.01	318.75
245.474	274.28
245.938	257.9
246.402	304.71
246.866	307.05
247.33	339.82
247.793	225.13
248.257	304.71
248.721	220.45
249.185	293.01
249.648	285.98
250.112	227.47
250.575	290.67
251.039	285.98
251.502	314.07
251.965	300.03
252.429	295.35
252.892	302.37
253.355	290.67
253.818	309.39
254.281	311.73
254.744	239.17
255.207	346.84
255.67	302.37
256.133	269.6
256.596	290.67
257.059	225.13
257.522	293.01
257.984	281.3
258.447	316.41
258.909	367.9
259.372	278.96
259.834	342.16
260.297	283.64
260.759	316.41
261.221	285.98
261.684	293.01
262.146	267.26
262.608	332.79
263.07	321.09
263.532	295.35
263.994	309.39
264.456	360.88
264.918	271.94
265.38	314.07
265.842	332.79
266.303	297.69
266.765	332.79
267.227	288.32
267.688	290.67
268.15	295.35
268.611	358.54
269.072	314.07
269.534	283.64
269.995	335.14
270.456	267.26
270.918	332.79
271.379	323.43
271.84	323.43
272.301	297.69
272.762	314.07
273.223	257.9
273.684	342.16
274.144	234.49
274.605	311.73
275.066	309.39
275.527	262.58
275.987	351.52
276.448	339.82
276.908	276.62
277.369	269.6
277.829	358.54
278.289	257.9
278.75	356.2
279.21	290.67
279.67	311.73
280.13	318.75
280.59	239.17
281.05	339.82
281.51	269.6
281.97	332.79
282.43	307.05
282.89	342.16
283.35	267.26
283.809	278.96
284.269	337.48
284.729	274.28
285.188	309.39
285.648	276.62
286.107	311.73
286.567	307.05
287.026	328.11
287.485	269.6
287.944	295.35
288.404	314.07
288.863	293.01
289.322	288.32
289.781	358.54
290.24	257.9
290.699	318.75
291.158	351.52
291.616	311.73
292.075	332.79
292.534	356.2
292.992	363.22
293.451	285.98
293.91	276.62
294.368	346.84
294.827	321.09
295.285	330.45
295.743	309.39
296.202	314.07
296.66	302.37
297.118	290.67
297.576	243.85
298.034	335.14
298.492	318.75
298.95	300.03
299.408	269.6
299.866	293.01
300.324	377.27
300.781	274.28
301.239	321.09
301.697	349.18
302.154	356.2
302.612	384.29
303.069	337.48
303.527	342.16
303.984	309.39
304.441	302.37
304.899	339.82
305.356	246.2
305.813	351.52
306.27	330.45
306.727	304.71
307.184	314.07
307.641	262.58
308.098	262.58
308.555	332.79
309.012	314.07
309.468	304.71
309.925	307.05
310.382	353.86
310.838	318.75
311.295	285.98
311.751	295.35
312.208	316.41
312.664	325.77
313.12	307.05
313.577	318.75
314.033	304.71
314.489	278.96
314.945	311.73
315.401	297.69
315.857	246.2
316.313	351.52
316.769	358.54
317.225	370.24
317.681	325.77
318.136	374.92
318.592	323.43
319.048	281.3
319.503	290.67
319.959	400.67
320.414	325.77
320.869	281.3
321.325	288.32
321.78	325.77
322.235	339.82
322.691	260.24
323.146	363.22
323.601	349.18
324.056	344.5
324.511	323.43
324.966	307.05
325.421	335.14
325.875	290.67
326.33	321.09
326.785	281.3
327.24	321.09
327.694	335.14
328.149	335.14
328.603	276.62
329.058	283.64
329.512	332.79
329.966	278.96
330.421	339.82
330.875	332.79
331.329	295.35
331.783	276.62
332.237	400.67
332.691	417.05
333.145	285.98
333.599	314.07
334.053	379.61
334.507	400.67
334.96	337.48
335.414	332.79
335.868	337.48
336.321	262.58
336.775	330.45
337.228	325.77
337.682	337.48
338.135	283.64
338.588	349.18
339.042	300.03
339.495	288.32
339.948	325.77
340.401	332.79
340.854	314.07
341.307	260.24
341.76	218.11
342.213	400.67
342.666	314.07
343.119	342.16
343.571	260.24
344.024	314.07
344.477	372.58
344.929	300.03
345.382	314.07
345.834	283.64
346.287	304.71
346.739	339.82
347.191	311.73
347.644	398.33
348.096	295.35
348.548	356.2
349	388.97
349.452	290.67
349.904	262.58
350.356	328.11
350.808	344.5
351.26	323.43
351.711	339.82
352.163	344.5
352.615	353.86
353.066	311.73
353.518	351.52
353.969	239.17
354.421	363.22
354.872	330.45
355.324	295.35
355.775	365.56
356.226	300.03
356.677	283.64
357.128	332.79
357.579	332.79
358.03	311.73
358.481	307.05
358.932	351.52
359.383	328.11
359.834	379.61
360.285	281.3
360.735	367.9
361.186	309.39
361.637	372.58
362.087	323.43
362.538	335.14
362.988	323.43
363.438	288.32
363.889	325.77
364.339	281.3
364.789	349.18
365.239	360.88
365.689	339.82
366.139	297.69
366.589	358.54
367.039	318.75
367.489	300.03
367.939	332.79
368.389	344.5
368.839	379.61
369.288	325.77
369.738	372.58
370.187	346.84
370.637	353.86
371.086	281.3
371.536	339.82
371.985	349.18
372.434	367.9
372.884	307.05
373.333	335.14
373.782	295.35
374.231	318.75
374.68	365.56
375.129	344.5
375.578	325.77
376.027	300.03
376.475	330.45
376.924	344.5
377.373	339.82
377.822	349.18
378.27	358.54
378.719	281.3
379.167	372.58
379.616	267.26
380.064	309.39
380.512	370.24
380.961	330.45
381.409	353.86
381.857	309.39
382.305	381.95
382.753	328.11
383.201	271.94
383.649	311.73
384.097	311.73
384.545	274.28
384.992	288.32
385.44	283.64
385.888	332.79
386.335	403.01
386.783	332.79
387.231	363.22
387.678	295.35
388.125	300.03
388.573	307.05
389.02	290.67
389.467	321.09
389.914	304.71
390.362	335.14
390.809	321.09
391.256	330.45
391.703	328.11
392.15	346.84
392.596	311.73
393.043	285.98
393.49	356.2
393.937	316.41
394.383	335.14
394.83	346.84
395.276	342.16
395.723	293.01
396.169	283.64
396.616	386.63
397.062	363.22
397.508	318.75
397.954	346.84
398.401	388.97
398.847	337.48
399.293	325.77
399.739	297.69
400.185	367.9
400.631	323.43
401.076	330.45
401.522	321.09
401.968	297.69
402.414	314.07
402.859	318.75
403.305	351.52
403.75	337.48
404.196	381.95
404.641	351.52
405.086	381.95
405.532	318.75
405.977	372.58
406.422	274.28
406.867	309.39
407.312	325.77
407.757	391.31
408.202	353.86
408.647	379.61
409.092	321.09
409.537	307.05
409.982	307.05
410.426	297.69
410.871	328.11
411.316	360.88
411.76	288.32
412.205	311.73
412.649	335.14
413.093	335.14
413.538	365.56
413.982	321.09
414.426	370.24
414.87	358.54
415.314	321.09
415.758	269.6
416.202	346.84
416.646	360.88
417.09	342.16
417.534	309.39
417.978	274.28
418.421	391.31
418.865	300.03
419.309	304.71
419.752	381.95
420.196	300.03
420.639	302.37
421.083	381.95
421.526	332.79
421.969	297.69
422.412	353.86
422.856	295.35
423.299	307.05
423.742	328.11
424.185	344.5
424.628	400.67
425.071	407.69
425.513	325.77
425.956	344.5
426.399	311.73
426.842	335.14
427.284	351.52
427.727	274.28
428.169	307.05
428.612	295.35
429.054	330.45
429.497	285.98
429.939	360.88
430.381	264.92
430.823	314.07
431.265	356.2
431.707	271.94
432.149	332.79
432.591	332.79
433.033	314.07
433.475	339.82
433.917	297.69
434.359	351.52
434.8	300.03
435.242	332.79
435.684	314.07
436.125	330.45
436.567	304.71
437.008	410.03
437.449	323.43
437.891	220.45
438.332	342.16
438.773	332.79
439.214	260.24
439.656	314.07
440.097	332.79
440.538	332.79
440.978	393.65
441.419	335.14
441.86	332.79
442.301	412.37
442.742	328.11
443.182	330.45
443.623	372.58
444.063	351.52
444.504	316.41
444.944	363.22
445.385	314.07
445.825	241.51
446.265	379.61
446.706	344.5
447.146	321.09
447.586	285.98
448.026	297.69
448.466	351.52
448.906	344.5
449.346	332.79
449.786	323.43
450.225	372.58
450.665	337.48
451.105	400.67
451.544	295.35
451.984	314.07
452.424	358.54
452.863	358.54
453.302	377.27
453.742	309.39
454.181	309.39
454.62	314.07
455.059	360.88
455.499	314.07
455.938	344.5
456.377	381.95
456.816	356.2
457.254	360.88
457.693	379.61
458.132	330.45
458.571	288.32
459.01	410.03
459.448	379.61
459.887	351.52
460.325	290.67
460.764	344.5
461.202	335.14
461.641	309.39
462.079	281.3
462.517	246.2
462.955	367.9
463.393	316.41
463.832	344.5
464.27	311.73
464.708	337.48
465.145	346.84
465.583	288.32
466.021	335.14
466.459	328.11
466.897	353.86
467.334	335.14
467.772	353.86
468.209	278.96
468.647	335.14
469.084	358.54
469.522	353.86
469.959	321.09
470.396	363.22
470.833	344.5
471.271	351.52
471.708	349.18
472.145	328.11
472.582	222.79
473.019	293.01
473.456	300.03
473.892	360.88
474.329	321.09
474.766	358.54
475.202	346.84
475.639	302.37
476.076	332.79
476.512	379.61
476.949	267.26
477.385	293.01
477.821	285.98
478.258	370.24
478.694	281.3
479.13	388.97
479.566	393.65
480.002	253.22
480.438	342.16
480.874	339.82
481.31	374.92
481.746	358.54
482.181	325.77
482.617	370.24
483.053	360.88
483.488	363.22
483.924	314.07
484.36	288.32
484.795	309.39
485.23	398.33
485.666	302.37
486.101	365.56
486.536	293.01
486.971	395.99
487.407	360.88
487.842	314.07
488.277	335.14
488.712	314.07
489.146	337.48
489.581	370.24
490.016	407.69
490.451	335.14
490.885	304.71
491.32	293.01
491.755	384.29
492.189	290.67
492.624	302.37
493.058	379.61
493.492	304.71
493.927	325.77
494.361	302.37
494.795	285.98
495.229	318.75
495.663	360.88
496.097	302.37
496.531	323.43
496.965	356.2
497.399	302.37
497.833	356.2
498.266	332.79
498.7	318.75
499.134	335.14
499.567	351.52
500.001	321.09
500.434	332.79
500.868	293.01
501.301	339.82
501.734	309.39
502.168	295.35
502.601	337.48
503.034	393.65
503.467	346.84
503.9	311.73
504.333	398.33
504.766	349.18
505.199	330.45
505.632	358.54
506.064	356.2
506.497	300.03
506.93	323.43
507.362	300.03
507.795	412.37
508.227	363.22
508.66	358.54
509.092	351.52
509.524	278.96
509.956	344.5
510.389	293.01
510.821	360.88
511.253	262.58
511.685	339.82
512.117	325.77
512.549	314.07
512.981	309.39
513.412	381.95
513.844	374.92
514.276	391.31
514.707	417.05
515.139	283.64
515.571	400.67
516.002	353.86
516.433	321.09
516.865	342.16
517.296	332.79
517.727	316.41
518.159	335.14
518.59	356.2
519.021	351.52
519.452	309.39
519.883	358.54
520.314	363.22
520.744	321.09
521.175	332.79
521.606	307.05
522.037	328.11
522.467	325.77
522.898	332.79
523.328	337.48
523.759	330.45
524.189	391.31
524.62	325.77
525.05	332.79
525.48	363.22
525.91	323.43
526.341	307.05
526.771	344.5
527.201	384.29
527.631	288.32
528.061	300.03
528.49	260.24
528.92	311.73
529.35	335.14
529.78	335.14
530.209	307.05
530.639	424.08
531.068	304.71
531.498	353.86
531.927	344.5
532.357	288.32
532.786	295.35
533.215	337.48
533.644	344.5
534.074	339.82
534.503	330.45
534.932	285.98
535.361	391.31
535.79	344.5
536.218	342.16
536.647	328.11
537.076	332.79
537.505	302.37
537.933	283.64
538.362	328.11
538.79	293.01
539.219	370.24
539.647	318.75
540.076	337.48
540.504	288.32
540.932	257.9
541.36	300.03
541.788	307.05
542.217	363.22
542.645	358.54
543.073	407.69
543.5	302.37
543.928	307.05
544.356	307.05
544.784	281.3
545.211	318.75
545.639	285.98
546.067	358.54
546.494	297.69
546.922	274.28
547.349	344.5
547.776	365.56
548.204	323.43
548.631	330.45
549.058	332.79
549.485	278.96
549.912	353.86
550.339	318.75
550.766	257.9
551.193	304.71
551.62	335.14
552.047	288.32
552.474	372.58
552.9	243.85
553.327	328.11
553.754	307.05
554.18	372.58
554.607	339.82
555.033	353.86
555.459	363.22
555.886	339.82
556.312	293.01
556.738	318.75
557.164	339.82
557.59	274.28
558.016	365.56
558.442	403.01
558.868	353.86
559.294	374.92
559.72	309.39
560.145	269.6
560.571	325.77
560.997	330.45
561.422	353.86
561.848	297.69
562.273	330.45
562.699	386.63
563.124	314.07
563.549	349.18
563.974	353.86
564.4	360.88
564.825	276.62
565.25	351.52
565.675	318.75
566.1	349.18
566.525	342.16
566.95	332.79
567.374	323.43
567.799	344.5
568.224	365.56
568.648	323.43
569.073	351.52
569.497	314.07
569.922	283.64
570.346	353.86
570.771	342.16
571.195	342.16
571.619	323.43
572.043	309.39
572.467	288.32
572.891	398.33
573.315	421.74
573.739	388.97
574.163	302.37
574.587	316.41
575.011	346.84
575.435	339.82
575.858	342.16
576.282	290.67
576.705	367.9
577.129	325.77
577.552	309.39
577.976	379.61
578.399	297.69
578.822	262.58
579.245	311.73
579.669	297.69
580.092	323.43
580.515	321.09
580.938	325.77
581.361	328.11
581.784	372.58
582.206	314.07
582.629	342.16
583.052	335.14
583.474	330.45
583.897	358.54
584.32	262.58
584.742	342.16
585.165	363.22
585.587	304.71
586.009	314.07
586.431	325.77
586.854	342.16
587.276	349.18
587.698	417.05
588.12	323.43
588.542	302.37
588.964	295.35
589.386	365.56
589.807	370.24
590.229	314.07
590.651	337.48
591.073	365.56
591.494	316.41
591.916	300.03
592.337	285.98
592.759	349.18
593.18	255.56
593.601	358.54
594.022	358.54
594.444	337.48
594.865	393.65
595.286	304.71
595.707	360.88
596.128	370.24
596.549	358.54
596.97	335.14
597.39	248.54
597.811	342.16
598.232	342.16
598.652	309.39
599.073	414.71
599.494	323.43
599.914	360.88
600.334	384.29
600.755	316.41
601.175	304.71
601.595	374.92
602.015	300.03
602.436	335.14
602.856	414.71
603.276	360.88
603.696	316.41
604.115	288.32
604.535	293.01
604.955	374.92
605.375	346.84
605.794	330.45
606.214	269.6
606.634	342.16
607.053	321.09
607.473	372.58
607.892	328.11
608.311	293.01
608.731	332.79
609.15	300.03
609.569	297.69
609.988	363.22
610.407	398.33
610.826	342.16
611.245	339.82
611.664	316.41
612.083	335.14
612.501	337.48
612.92	304.71
613.339	300.03
613.757	349.18
614.176	386.63
614.594	349.18
615.013	351.52
615.431	339.82
615.85	346.84
616.268	351.52
616.686	351.52
617.104	346.84
617.522	295.35
617.94	316.41
618.358	285.98
618.776	337.48
619.194	335.14
619.612	318.75
620.03	288.32
620.447	271.94
620.865	260.24
621.282	297.69
621.7	325.77
622.117	316.41
622.535	367.9
622.952	325.77
623.369	377.27
623.787	316.41
624.204	386.63
624.621	342.16
625.038	307.05
625.455	360.88
625.872	283.64
626.289	342.16
626.706	342.16
627.123	381.95
627.539	356.2
627.956	346.84
628.373	360.88
628.789	337.48
629.206	274.28
629.622	339.82
630.038	330.45
630.455	370.24
630.871	293.01
631.287	295.35
631.703	384.29
632.12	342.16
632.536	309.39
632.952	300.03
633.368	365.56
633.783	274.28
634.199	304.71
634.615	311.73
635.031	321.09
635.446	297.69
635.862	360.88
636.277	356.2
636.693	412.37
637.108	309.39
637.524	391.31
637.939	407.69
638.354	316.41
638.77	358.54
639.185	381.95
639.6	377.27
640.015	295.35
640.43	405.35
640.845	328.11
641.259	358.54
641.674	328.11
642.089	304.71
642.504	300.03
642.918	325.77
643.333	290.67
643.747	344.5
644.162	342.16
644.576	410.03
644.991	321.09
645.405	353.86
645.819	283.64
646.233	309.39
646.647	283.64
647.061	309.39
647.475	293.01
647.889	290.67
648.303	335.14
648.717	281.3
649.131	349.18
649.545	412.37
649.958	344.5
650.372	377.27
650.785	316.41
651.199	281.3
651.612	316.41
652.026	302.37
652.439	337.48
652.852	311.73
653.266	363.22
653.679	339.82
654.092	356.2
654.505	335.14
654.918	318.75
655.331	344.5
655.744	346.84
656.156	325.77
656.569	297.69
656.982	288.32
657.394	330.45
657.807	335.14
658.22	372.58
658.632	274.28
659.044	367.9
659.457	417.05
659.869	330.45
660.281	349.18
660.693	309.39
661.106	309.39
661.518	257.9
661.93	328.11
662.342	262.58
662.754	307.05
663.165	344.5
663.577	323.43
663.989	325.77
664.401	339.82
664.812	339.82
665.224	302.37
665.635	370.24
666.047	330.45
666.458	328.11
666.869	332.79
667.281	351.52
667.692	285.98
668.103	281.3
668.514	297.69
668.925	295.35
669.336	351.52
669.747	309.39
670.158	344.5
670.569	321.09
670.979	332.79
671.39	323.43
671.801	288.32
672.211	367.9
672.622	356.2
673.032	314.07
673.443	346.84
673.853	330.45
674.263	337.48
674.674	339.82
675.084	276.62
675.494	325.77
675.904	342.16
676.314	386.63
676.724	262.58
677.134	365.56
677.544	288.32
677.953	351.52
678.363	300.03
678.773	414.71
679.182	344.5
679.592	349.18
680.001	346.84
680.411	372.58
680.82	300.03
681.23	302.37
681.639	309.39
682.048	278.96
682.457	297.69
682.866	335.14
683.275	356.2
683.684	363.22
684.093	377.27
684.502	349.18
684.911	283.64
685.32	358.54
685.728	367.9
686.137	337.48
686.546	300.03
686.954	290.67
687.363	407.69
687.771	346.84
688.179	381.95
688.588	335.14
688.996	316.41
689.404	342.16
689.812	316.41
690.22	372.58
690.628	349.18
691.036	293.01
691.444	262.58
691.852	330.45
692.26	311.73
692.667	323.43
693.075	300.03
693.483	325.77
693.89	253.22
694.298	351.52
694.705	332.79
695.112	363.22
695.52	307.05
695.927	363.22
696.334	328.11
696.741	332.79
697.148	293.01
697.555	325.77
697.962	321.09
698.369	325.77
698.776	314.07
699.183	379.61
699.59	255.56
699.996	271.94
700.403	349.18
700.81	323.43
701.216	304.71
701.623	365.56
702.029	335.14
702.435	337.48
702.842	365.56
703.248	346.84
703.654	381.95
704.06	255.56
704.466	344.5
704.872	260.24
705.278	367.9
705.684	307.05
706.09	309.39
706.496	349.18
706.901	330.45
707.307	346.84
707.712	344.5
708.118	339.82
708.523	309.39
708.929	300.03
709.334	302.37
709.74	302.37
710.145	356.2
710.55	344.5
710.955	325.77
711.36	356.2
711.765	370.24
712.17	321.09
712.575	349.18
712.98	765.79
713.385	321.09
713.789	351.52
714.194	360.88
714.599	314.07
715.003	330.45
715.408	314.07
715.812	356.2
716.217	351.52
716.621	290.67
717.025	257.9
717.429	351.52
717.833	321.09
718.238	342.16
718.642	335.14
719.046	351.52
719.449	318.75
719.853	309.39
720.257	323.43
720.661	372.58
721.065	309.39
721.468	353.86
721.872	363.22
722.275	304.71
722.679	293.01
723.082	307.05
723.485	274.28
723.889	283.64
724.292	342.16
724.695	309.39
725.098	321.09
725.501	337.48
725.904	356.2
726.307	314.07
726.71	316.41
727.113	295.35
727.516	325.77
727.918	321.09
728.321	337.48
728.724	302.37
729.126	323.43
729.529	321.09
729.931	314.07
730.333	335.14
730.736	360.88
731.138	309.39
731.54	309.39
731.942	342.16
732.344	283.64
732.746	332.79
733.148	344.5
733.55	344.5
733.952	276.62
734.354	290.67
734.756	276.62
735.157	274.28
735.559	311.73
735.96	271.94
736.362	297.69
736.763	337.48
737.165	318.75
737.566	356.2
737.967	330.45
738.368	353.86
738.77	293.01
739.171	260.24
739.572	330.45
739.973	328.11
740.374	311.73
740.774	295.35
741.175	297.69
741.576	346.84
741.977	381.95
742.377	337.48
742.778	276.62
743.178	339.82
743.579	344.5
743.979	377.27
744.379	307.05
744.78	374.92
745.18	318.75
745.58	353.86
745.98	323.43
746.38	321.09
746.78	344.5
747.18	330.45
747.58	344.5
747.98	309.39
748.38	346.84
748.779	307.05
749.179	300.03
749.578	274.28
749.978	339.82
750.377	307.05
750.777	316.41
751.176	349.18
751.575	337.48
751.975	318.75
752.374	274.28
752.773	293.01
753.172	234.49
753.571	330.45
753.97	316.41
754.369	267.26
754.768	262.58
755.166	335.14
755.565	351.52
755.964	293.01
756.362	300.03
756.761	274.28
757.159	288.32
757.558	360.88
757.956	332.79
758.354	288.32
758.753	318.75
759.151	321.09
759.549	281.3
759.947	314.07
760.345	311.73
760.743	377.27
761.141	285.98
761.539	353.86
761.936	342.16
762.334	285.98
762.732	356.2
763.129	346.84
763.527	363.22
763.924	370.24
764.322	323.43
764.719	344.5
765.117	339.82
765.514	414.71
765.911	300.03
766.308	337.48
766.705	330.45
767.102	314.07
767.499	300.03
767.896	321.09
768.293	339.82
768.69	328.11
769.086	314.07
769.483	307.05
769.88	323.43
770.276	328.11
770.673	293.01
771.069	332.79
771.466	367.9
771.862	309.39
772.258	363.22
772.654	328.11
773.05	365.56
773.447	314.07
773.843	330.45
774.239	358.54
774.634	293.01
775.03	335.14
775.426	314.07
775.822	374.92
776.218	360.88
776.613	332.79
777.009	358.54
777.404	285.98
777.8	386.63
778.195	309.39
778.59	356.2
778.986	271.94
779.381	262.58
779.776	314.07
780.171	307.05
780.566	353.86
780.961	297.69
781.356	325.77
781.751	239.17
782.146	316.41
782.54	316.41
782.935	316.41
783.33	339.82
783.724	356.2
784.119	321.09
784.513	232.15
784.908	353.86
785.302	379.61
785.696	260.24
786.09	314.07
786.485	339.82
786.879	316.41
787.273	365.56
787.667	316.41
788.061	314.07
788.454	346.84
788.848	293.01
789.242	302.37
789.636	363.22
790.029	370.24
790.423	353.86
790.816	285.98
791.21	342.16
791.603	325.77
791.997	356.2
792.39	321.09
792.783	337.48
793.176	225.13
793.569	264.92
793.962	358.54
794.355	314.07
794.748	325.77
795.141	377.27
795.534	351.52
795.927	346.84
796.319	365.56
796.712	372.58
797.105	342.16
797.497	318.75
797.89	311.73
798.282	311.73
798.674	367.9
799.067	253.22
799.459	344.5
799.851	295.35
800.243	370.24
800.635	346.84
801.027	293.01
801.419	311.73
801.811	314.07
802.203	314.07
802.594	307.05
802.986	309.39
803.378	328.11
803.769	332.79
804.161	267.26
804.552	321.09
804.944	344.5
805.335	307.05
805.726	271.94
806.118	314.07
806.509	346.84
806.9	264.92
807.291	363.22
807.682	353.86
808.073	337.48
808.464	330.45
808.855	318.75
809.245	358.54
809.636	321.09
810.027	367.9
810.417	384.29
810.808	302.37
811.198	346.84
811.589	328.11
811.979	346.84
812.369	344.5
812.759	356.2
813.15	316.41
813.54	316.41
813.93	316.41
814.32	316.41
814.71	363.22
815.1	293.01
815.489	363.22
815.879	316.41
816.269	264.92
816.658	307.05
817.048	309.39
817.438	321.09
817.827	381.95
818.216	342.16
818.606	278.96
818.995	307.05
819.384	342.16
819.773	288.32
820.163	360.88
820.552	325.77
820.941	321.09
821.33	351.52
821.718	367.9
822.107	304.71
822.496	330.45
822.885	360.88
823.273	304.71
823.662	318.75
824.05	398.33
824.439	360.88
824.827	379.61
825.216	342.16
825.604	311.73
825.992	239.17
826.38	398.33
826.768	328.11
827.156	356.2
827.544	257.9
827.932	267.26
828.32	248.54
828.708	335.14
829.096	353.86
829.483	356.2
829.871	351.52
830.259	309.39
830.646	339.82
831.034	302.37
831.421	339.82
831.808	379.61
832.196	335.14
832.583	332.79
832.97	295.35
833.357	337.48
833.744	323.43
834.131	395.99
834.518	314.07
834.905	342.16
835.292	278.96
835.678	300.03
836.065	323.43
836.452	290.67
836.838	393.65
837.225	325.77
837.611	363.22
837.998	318.75
838.384	307.05
838.77	311.73
839.157	232.15
839.543	293.01
839.929	335.14
840.315	311.73
840.701	337.48
841.087	339.82
841.473	323.43
841.858	283.64
842.244	276.62
842.63	321.09
843.015	346.84
843.401	548.12
843.787	393.65
844.172	300.03
844.557	304.71
844.943	264.92
845.328	351.52
845.713	410.03
846.098	339.82
846.483	323.43
846.868	398.33
847.253	365.56
847.638	367.9
848.023	271.94
848.408	290.67
848.793	365.56
849.177	325.77
849.562	328.11
849.947	321.09
850.331	316.41
850.715	330.45
851.1	321.09
851.484	297.69
851.868	304.71
852.253	325.77
852.637	351.52
853.021	360.88
853.405	325.77
853.789	328.11
854.173	344.5
854.557	267.26
854.94	323.43
855.324	363.22
855.708	344.5
856.091	274.28
856.475	243.85
856.858	229.81
857.242	353.86
857.625	330.45
858.009	351.52
858.392	278.96
858.775	342.16
859.158	353.86
859.541	398.33
859.924	314.07
860.307	311.73
860.69	300.03
861.073	325.77
861.456	323.43
861.838	285.98
862.221	318.75
862.604	325.77
862.986	353.86
863.369	337.48
863.751	332.79
864.133	288.32
864.516	302.37
864.898	405.35
865.28	372.58
865.662	403.01
866.044	297.69
866.426	351.52
866.808	351.52
867.19	367.9
867.572	307.05
867.954	297.69
868.336	304.71
868.717	271.94
869.099	290.67
869.48	297.69
869.862	246.2
870.243	281.3
870.625	283.64
871.006	288.32
871.387	363.22
871.768	398.33
872.149	344.5
872.53	370.24
872.911	269.6
873.292	386.63
873.673	285.98
874.054	381.95
874.435	309.39
874.815	316.41
875.196	318.75
875.577	337.48
875.957	335.14
876.338	316.41
876.718	302.37
877.098	367.9
877.479	339.82
877.859	307.05
878.239	335.14
878.619	342.16
878.999	300.03
879.379	262.58
879.759	330.45
880.139	367.9
880.519	276.62
880.898	297.69
881.278	297.69
881.658	318.75
882.037	314.07
882.417	398.33
882.796	381.95
883.176	269.6
883.555	330.45
883.934	360.88
884.313	285.98
884.693	274.28
885.072	297.69
885.451	300.03
885.83	300.03
886.209	356.2
886.587	309.39
886.966	293.01
887.345	367.9
887.724	330.45
888.102	293.01
888.481	307.05
888.859	393.65
889.238	356.2
889.616	384.29
889.994	309.39
890.373	363.22
890.751	353.86
891.129	321.09
891.507	335.14
891.885	321.09
892.263	307.05
892.641	288.32
893.019	314.07
893.396	297.69
893.774	318.75
894.152	269.6
894.529	293.01
894.907	370.24
895.284	250.88
895.662	269.6
896.039	335.14
896.416	257.9
896.794	384.29
897.171	363.22
897.548	307.05
897.925	330.45
898.302	370.24
898.679	349.18
899.056	330.45
899.433	372.58
899.809	295.35
900.186	346.84
900.563	337.48
900.939	370.24
901.316	311.73
901.692	370.24
902.069	274.28
902.445	372.58
902.821	356.2
903.197	281.3
903.574	332.79
903.95	403.01
904.326	363.22
904.702	307.05
905.078	302.37
905.454	323.43
905.829	344.5
906.205	428.76
906.581	307.05
906.956	365.56
907.332	332.79
907.707	391.31
908.083	349.18
908.458	307.05
908.833	377.27
909.209	314.07
909.584	353.86
909.959	262.58
910.334	311.73
910.709	356.2
911.084	309.39
911.459	288.32
911.834	363.22
912.209	332.79
912.583	302.37
912.958	325.77
913.333	307.05
913.707	297.69
914.082	398.33
914.456	318.75
914.83	363.22
915.205	293.01
915.579	335.14
915.953	295.35
916.327	325.77
916.701	241.51
917.075	356.2
917.449	367.9
917.823	332.79
918.197	335.14
918.571	283.64
918.944	339.82
919.318	342.16
919.692	356.2
920.065	367.9
920.438	337.48
920.812	328.11
921.185	257.9
921.558	325.77
921.932	328.11
922.305	335.14
922.678	274.28
923.051	323.43
923.424	330.45
923.797	349.18
924.17	297.69
924.542	412.37
924.915	295.35
925.288	346.84
925.661	271.94
926.033	363.22
926.406	293.01
926.778	285.98
927.15	330.45
927.523	288.32
927.895	288.32
928.267	360.88
928.639	290.67
929.011	379.61
929.383	311.73
929.755	264.92
930.127	379.61
930.499	307.05
930.871	281.3
931.242	374.92
931.614	328.11
931.986	360.88
932.357	363.22
932.729	353.86
933.1	264.92
933.471	349.18
933.843	351.52
934.214	353.86
934.585	363.22
934.956	365.56
935.327	337.48
935.698	374.92
936.069	269.6
936.44	386.63
936.811	330.45
937.182	288.32
937.552	330.45
937.923	344.5
938.293	304.71
938.664	337.48
939.034	316.41
939.405	309.39
939.775	386.63
940.145	365.56
940.516	293.01
940.886	293.01
941.256	321.09
941.626	337.48
941.996	372.58
942.366	309.39
942.735	346.84
943.105	290.67
943.475	302.37
943.845	274.28
944.214	311.73
944.584	288.32
944.953	269.6
945.323	276.62
945.692	314.07
946.061	393.65
946.43	353.86
946.8	260.24
947.169	342.16
947.538	262.58
947.907	344.5
948.276	330.45
948.645	269.6
949.013	342.16
949.382	297.69
949.751	316.41
950.119	356.2
950.488	344.5
950.857	314.07
951.225	339.82
951.593	335.14
951.962	335.14
952.33	325.77
952.698	318.75
953.066	393.65
953.434	330.45
953.802	316.41
954.17	367.9
954.538	363.22
954.906	288.32
955.274	318.75
955.642	358.54
956.009	314.07
956.377	264.92
956.744	311.73
957.112	288.32
957.479	337.48
957.847	360.88
958.214	281.3
958.581	360.88
958.948	335.14
959.315	297.69
959.683	379.61
960.05	344.5
960.416	356.2
960.783	321.09
961.15	293.01
961.517	384.29
961.884	330.45
962.25	391.31
962.617	384.29
962.983	304.71
963.35	353.86
963.716	337.48
964.082	297.69
964.449	410.03
964.815	267.26
965.181	325.77
965.547	278.96
965.913	330.45
966.279	339.82
966.645	309.39
967.011	288.32
967.377	367.9
967.742	332.79
968.108	332.79
968.474	339.82
968.839	358.54
969.205	374.92
969.57	304.71
969.935	323.43
970.301	346.84
970.666	257.9
971.031	311.73
971.396	370.24
971.761	332.79
972.126	344.5
972.491	332.79
972.856	300.03
973.221	295.35
973.586	295.35
973.95	283.64
974.315	318.75
974.679	358.54
975.044	300.03
975.408	323.43
975.773	374.92
976.137	325.77
976.501	388.97
976.866	358.54
977.23	328.11
977.594	321.09
977.958	283.64
978.322	314.07
978.686	342.16
979.049	330.45
979.413	318.75
979.777	332.79
980.141	300.03
980.504	314.07
980.868	356.2
981.231	363.22
981.595	295.35
981.958	353.86
982.321	403.01
982.684	349.18
983.048	400.67
983.411	328.11
983.774	297.69
984.137	377.27
984.5	267.26
984.862	363.22
985.225	321.09
985.588	311.73
985.951	314.07
986.313	384.29
986.676	302.37
987.038	276.62
987.401	403.01
987.763	351.52
988.125	269.6
988.488	290.67
988.85	253.22
989.212	293.01
989.574	323.43
989.936	302.37
990.298	330.45
990.66	339.82
991.022	323.43
991.383	370.24
991.745	253.22
992.107	271.94
992.468	337.48
992.83	332.79
993.191	323.43
993.553	367.9
993.914	297.69
994.275	344.5
994.637	360.88
994.998	304.71
995.359	342.16
995.72	293.01
996.081	363.22
996.442	257.9
996.803	374.92
997.163	337.48
997.524	356.2
997.885	297.69
998.245	314.07
998.606	339.82
998.966	330.45
999.327	321.09
999.687	325.77
1000.047	318.75
1000.408	309.39
1000.768	309.39
1001.128	318.75
1001.488	307.05
1001.848	372.58
1002.208	353.86
1002.568	321.09
1002.927	344.5
1003.287	335.14
1003.647	377.27
1004.007	288.32
1004.366	323.43
1004.726	316.41
1005.085	349.18
1005.444	328.11
1005.804	283.64
1006.163	318.75
1006.522	316.41
1006.881	374.92
1007.24	321.09
1007.599	262.58
1007.958	316.41
1008.317	288.32
1008.676	302.37
1009.035	388.97
1009.393	321.09
1009.752	321.09
1010.111	283.64
1010.469	290.67
1010.828	314.07
1011.186	304.71
1011.544	323.43
1011.903	304.71
1012.261	307.05
1012.619	356.2
1012.977	346.84
1013.335	318.75
1013.693	225.13
1014.051	307.05
1014.409	358.54
1014.767	316.41
1015.124	241.51
1015.482	311.73
1015.84	321.09
1016.197	346.84
1016.555	278.96
1016.912	297.69
1017.269	374.92
1017.627	295.35
1017.984	321.09
1018.341	363.22
1018.698	293.01
1019.055	311.73
1019.412	309.39
1019.769	351.52
1020.126	325.77
1020.483	318.75
1020.84	262.58
1021.196	311.73
1021.553	276.62
1021.909	293.01
1022.266	325.77
1022.622	339.82
1022.979	388.97
1023.335	360.88
1023.691	337.48
1024.047	293.01
1024.404	337.48
1024.76	365.56
1025.116	257.9
1025.472	278.96
1025.827	318.75
1026.183	293.01
1026.539	330.45
1026.895	295.35
1027.25	349.18
1027.606	264.92
1027.961	253.22
1028.317	360.88
1028.672	281.3
1029.028	309.39
1029.383	290.67
1029.738	344.5
1030.093	300.03
1030.448	358.54
1030.803	349.18
1031.158	335.14
1031.513	307.05
1031.868	349.18
1032.223	356.2
1032.577	323.43
1032.932	321.09
1033.287	255.56
1033.641	370.24
1033.996	330.45
1034.35	300.03
1034.704	309.39
1035.059	257.9
1035.413	295.35
1035.767	295.35
1036.121	295.35
