Data from Al_FLMS009871__915__16-18-09-223.txt Node

Date: Fri Mar 08 16:18:09 CST 2024
User: pe5414po
Spectrometer: FLMS00987
Trigger mode: 0
Integration Time (sec): 1.000000E-1
Scans to average: 1
Electric dark correction enabled: true
Nonlinearity correction enabled: false
Boxcar width: 0
XAxis mode: Wavelengths
Number of Pixels in Spectrum: 2048
>>>>>Begin Spectral Data<<<<<
188.938	-21.65
189.409	-21.65
189.879	-21.65
190.349	-87.18
190.819	-63.78
191.29	-145.7
191.76	-77.82
192.23	-7.61
192.7	-103.57
193.17	-68.46
193.64	-82.5
194.109	-70.8
194.579	-16.97
195.049	13.46
195.519	55.59
195.988	48.57
196.458	67.29
196.927	160.91
197.397	15.8
197.866	93.04
198.336	118.78
198.805	146.87
199.274	100.06
199.744	167.93
200.213	186.66
200.682	252.19
201.151	158.57
201.62	224.11
202.089	233.47
202.558	158.57
203.027	210.06
203.495	299
203.964	224.11
204.433	219.43
204.902	387.94
205.37	296.66
205.839	350.5
206.307	289.64
206.776	306.03
207.244	329.43
207.712	228.79
208.181	310.71
208.649	341.13
209.117	289.64
209.585	306.03
210.053	324.75
210.521	296.66
210.989	334.11
211.457	261.55
211.925	317.73
212.393	336.45
212.861	224.11
213.328	256.87
213.796	280.28
214.264	261.55
214.731	261.55
215.199	313.05
215.666	193.68
216.133	261.55
216.601	238.15
217.068	242.83
217.535	296.66
218.003	266.24
218.47	228.79
218.937	296.66
219.404	341.13
219.871	266.24
220.338	263.9
220.805	306.03
221.271	214.74
221.738	221.77
222.205	259.21
222.671	277.94
223.138	261.55
223.605	238.15
224.071	233.47
224.538	224.11
225.004	228.79
225.47	284.96
225.937	324.75
226.403	270.92
226.869	233.47
227.335	212.4
227.801	240.49
228.267	261.55
228.733	303.68
229.199	280.28
229.665	233.47
230.131	252.19
230.597	247.51
231.062	226.45
231.528	275.6
231.994	294.32
232.459	270.92
232.925	315.39
233.39	296.66
233.856	226.45
234.321	212.4
234.786	289.64
235.252	280.28
235.717	247.51
236.182	259.21
236.647	275.6
237.112	228.79
237.577	242.83
238.042	287.3
238.507	242.83
238.972	301.34
239.436	287.3
239.901	261.55
240.366	294.32
240.83	238.15
241.295	273.26
241.76	247.51
242.224	233.47
242.688	245.17
243.153	282.62
243.617	310.71
244.081	263.9
244.545	270.92
245.01	268.58
245.474	273.26
245.938	348.15
246.402	268.58
246.866	303.68
247.33	289.64
247.793	287.3
248.257	226.45
248.721	256.87
249.185	273.26
249.648	289.64
250.112	270.92
250.575	231.13
251.039	282.62
251.502	282.62
251.965	261.55
252.429	228.79
252.892	261.55
253.355	277.94
253.818	301.34
254.281	289.64
254.744	235.81
255.207	266.24
255.67	299
256.133	291.98
256.596	317.73
257.059	259.21
257.522	320.07
257.984	317.73
258.447	268.58
258.909	266.24
259.372	303.68
259.834	301.34
260.297	238.15
260.759	369.22
261.221	320.07
261.684	291.98
262.146	306.03
262.608	287.3
263.07	357.52
263.532	259.21
263.994	259.21
264.456	308.37
264.918	256.87
265.38	240.49
265.842	242.83
266.303	280.28
266.765	350.5
267.227	277.94
267.688	261.55
268.15	280.28
268.611	308.37
269.072	306.03
269.534	284.96
269.995	359.86
270.456	308.37
270.918	270.92
271.379	280.28
271.84	315.39
272.301	282.62
272.762	256.87
273.223	289.64
273.684	327.09
274.144	252.19
274.605	282.62
275.066	282.62
275.527	308.37
275.987	280.28
276.448	341.13
276.908	226.45
277.369	362.2
277.829	261.55
278.289	275.6
278.75	268.58
279.21	212.4
279.67	275.6
280.13	284.96
280.59	306.03
281.05	313.05
281.51	350.5
281.97	221.77
282.43	263.9
282.89	275.6
283.35	268.58
283.809	254.53
284.269	341.13
284.729	254.53
285.188	310.71
285.648	327.09
286.107	301.34
286.567	334.11
287.026	235.81
287.485	296.66
287.944	322.41
288.404	249.85
288.863	327.09
289.322	277.94
289.781	252.19
290.24	282.62
290.699	252.19
291.158	289.64
291.616	317.73
292.075	280.28
292.534	287.3
292.992	270.92
293.451	261.55
293.91	299
294.368	261.55
294.827	256.87
295.285	261.55
295.743	303.68
296.202	327.09
296.66	294.32
297.118	301.34
297.576	294.32
298.034	254.53
298.492	350.5
298.95	315.39
299.408	245.17
299.866	315.39
300.324	263.9
300.781	296.66
301.239	280.28
301.697	394.97
302.154	299
302.612	324.75
303.069	308.37
303.527	261.55
303.984	287.3
304.441	270.92
304.899	228.79
305.356	308.37
305.813	284.96
306.27	331.77
306.727	322.41
307.184	352.84
307.641	247.51
308.098	212.4
308.555	315.39
309.012	301.34
309.468	308.37
309.925	273.26
310.382	266.24
310.838	247.51
311.295	296.66
311.751	373.9
312.208	240.49
312.664	259.21
313.12	263.9
313.577	299
314.033	383.26
314.489	327.09
314.945	369.22
315.401	306.03
315.857	313.05
316.313	242.83
316.769	313.05
317.225	207.72
317.681	317.73
318.136	291.98
318.592	299
319.048	277.94
319.503	259.21
319.959	238.15
320.414	277.94
320.869	303.68
321.325	313.05
321.78	284.96
322.235	273.26
322.691	364.54
323.146	320.07
323.601	287.3
324.056	324.75
324.511	301.34
324.966	284.96
325.421	268.58
325.875	275.6
326.33	331.77
326.785	273.26
327.24	324.75
327.694	270.92
328.149	287.3
328.603	301.34
329.058	277.94
329.512	359.86
329.966	378.58
330.421	280.28
330.875	263.9
331.329	317.73
331.783	329.43
332.237	287.3
332.691	322.41
333.145	427.73
333.599	322.41
334.053	296.66
334.507	317.73
334.96	329.43
335.414	317.73
335.868	352.84
336.321	308.37
336.775	322.41
337.228	320.07
337.682	294.32
338.135	275.6
338.588	303.68
339.042	287.3
339.495	320.07
339.948	362.2
340.401	334.11
340.854	296.66
341.307	294.32
341.76	320.07
342.213	313.05
342.666	303.68
343.119	341.13
343.571	291.98
344.024	338.79
344.477	324.75
344.929	306.03
345.382	315.39
345.834	352.84
346.287	310.71
346.739	303.68
347.191	359.86
347.644	266.24
348.096	270.92
348.548	306.03
349	357.52
349.452	296.66
349.904	301.34
350.356	355.18
350.808	256.87
351.26	291.98
351.711	341.13
352.163	291.98
352.615	261.55
353.066	306.03
353.518	268.58
353.969	296.66
354.421	310.71
354.872	256.87
355.324	322.41
355.775	317.73
356.226	313.05
356.677	254.53
357.128	385.6
357.579	334.11
358.03	294.32
358.481	310.71
358.932	296.66
359.383	296.66
359.834	322.41
360.285	301.34
360.735	301.34
361.186	355.18
361.637	313.05
362.087	240.49
362.538	320.07
362.988	282.62
363.438	331.77
363.889	334.11
364.339	284.96
364.789	301.34
365.239	282.62
365.689	254.53
366.139	289.64
366.589	287.3
367.039	263.9
367.489	329.43
367.939	343.47
368.389	289.64
368.839	280.28
369.288	301.34
369.738	268.58
370.187	294.32
370.637	294.32
371.086	313.05
371.536	306.03
371.985	294.32
372.434	357.52
372.884	306.03
373.333	366.88
373.782	359.86
374.231	306.03
374.68	268.58
375.129	294.32
375.578	334.11
376.027	301.34
376.475	322.41
376.924	289.64
377.373	357.52
377.822	355.18
378.27	310.71
378.719	291.98
379.167	256.87
379.616	268.58
380.064	313.05
380.512	249.85
380.961	263.9
381.409	338.79
381.857	299
382.305	362.2
382.753	308.37
383.201	296.66
383.649	352.84
384.097	308.37
384.545	303.68
384.992	336.45
385.44	261.55
385.888	341.13
386.335	299
386.783	306.03
387.231	327.09
387.678	359.86
388.125	291.98
388.573	345.81
389.02	322.41
389.467	331.77
389.914	334.11
390.362	310.71
390.809	294.32
391.256	259.21
391.703	212.4
392.15	275.6
392.596	301.34
393.043	249.85
393.49	327.09
393.937	327.09
394.383	310.71
394.83	324.75
395.276	327.09
395.723	280.28
396.169	317.73
396.616	277.94
397.062	341.13
397.508	266.24
397.954	284.96
398.401	383.26
398.847	261.55
399.293	315.39
399.739	334.11
400.185	287.3
400.631	336.45
401.076	336.45
401.522	294.32
401.968	327.09
402.414	266.24
402.859	299
403.305	294.32
403.75	263.9
404.196	247.51
404.641	268.58
405.086	345.81
405.532	329.43
405.977	315.39
406.422	259.21
406.867	313.05
407.312	331.77
407.757	310.71
408.202	275.6
408.647	294.32
409.092	338.79
409.537	352.84
409.982	334.11
410.426	390.28
410.871	287.3
411.316	291.98
411.76	327.09
412.205	350.5
412.649	313.05
413.093	284.96
413.538	268.58
413.982	397.31
414.426	338.79
414.87	357.52
415.314	334.11
415.758	289.64
416.202	315.39
416.646	343.47
417.09	291.98
417.534	284.96
417.978	336.45
418.421	299
418.865	355.18
419.309	338.79
419.752	329.43
420.196	341.13
420.639	299
421.083	350.5
421.526	343.47
421.969	282.62
422.412	334.11
422.856	331.77
423.299	338.79
423.742	327.09
424.185	371.56
424.628	350.5
425.071	366.88
425.513	254.53
425.956	322.41
426.399	364.54
426.842	291.98
427.284	320.07
427.727	315.39
428.169	320.07
428.612	322.41
429.054	282.62
429.497	357.52
429.939	341.13
430.381	273.26
430.823	343.47
431.265	348.15
431.707	291.98
432.149	394.97
432.591	291.98
433.033	317.73
433.475	315.39
433.917	254.53
434.359	324.75
434.8	338.79
435.242	350.5
435.684	317.73
436.125	301.34
436.567	299
437.008	287.3
437.449	362.2
437.891	252.19
438.332	287.3
438.773	275.6
439.214	317.73
439.656	327.09
440.097	308.37
440.538	284.96
440.978	343.47
441.419	289.64
441.86	303.68
442.301	364.54
442.742	338.79
443.182	322.41
443.623	327.09
444.063	315.39
444.504	266.24
444.944	268.58
445.385	334.11
445.825	289.64
446.265	341.13
446.706	277.94
447.146	369.22
447.586	289.64
448.026	327.09
448.466	329.43
448.906	355.18
449.346	362.2
449.786	266.24
450.225	294.32
450.665	324.75
451.105	327.09
451.544	327.09
451.984	334.11
452.424	310.71
452.863	327.09
453.302	280.28
453.742	322.41
454.181	345.81
454.62	259.21
455.059	270.92
455.499	266.24
455.938	310.71
456.377	280.28
456.816	275.6
457.254	331.77
457.693	306.03
458.132	287.3
458.571	299
459.01	324.75
459.448	277.94
459.887	350.5
460.325	270.92
460.764	266.24
461.202	369.22
461.641	233.47
462.079	273.26
462.517	327.09
462.955	296.66
463.393	277.94
463.832	392.62
464.27	362.2
464.708	369.22
465.145	266.24
465.583	275.6
466.021	308.37
466.459	261.55
466.897	352.84
467.334	315.39
467.772	310.71
468.209	294.32
468.647	280.28
469.084	270.92
469.522	294.32
469.959	334.11
470.396	310.71
470.833	355.18
471.271	373.9
471.708	334.11
472.145	331.77
472.582	306.03
473.019	322.41
473.456	308.37
473.892	327.09
474.329	235.81
474.766	331.77
475.202	301.34
475.639	313.05
476.076	275.6
476.512	301.34
476.949	334.11
477.385	329.43
477.821	235.81
478.258	296.66
478.694	310.71
479.13	401.99
479.566	259.21
480.002	320.07
480.438	350.5
480.874	306.03
481.31	341.13
481.746	322.41
482.181	362.2
482.617	320.07
483.053	266.24
483.488	306.03
483.924	259.21
484.36	294.32
484.795	329.43
485.23	296.66
485.666	345.81
486.101	355.18
486.536	348.15
486.971	334.11
487.407	336.45
487.842	252.19
488.277	317.73
488.712	329.43
489.146	355.18
489.581	308.37
490.016	387.94
490.451	308.37
490.885	315.39
491.32	345.81
491.755	252.19
492.189	362.2
492.624	336.45
493.058	355.18
493.492	359.86
493.927	242.83
494.361	303.68
494.795	345.81
495.229	294.32
495.663	366.88
496.097	303.68
496.531	296.66
496.965	345.81
497.399	301.34
497.833	221.77
498.266	310.71
498.7	299
499.134	327.09
499.567	334.11
500.001	383.26
500.434	362.2
500.868	341.13
501.301	327.09
501.734	317.73
502.168	364.54
502.601	317.73
503.034	291.98
503.467	308.37
503.9	397.31
504.333	256.87
504.766	331.77
505.199	371.56
505.632	294.32
506.064	310.71
506.497	301.34
506.93	296.66
507.362	364.54
507.795	320.07
508.227	291.98
508.66	324.75
509.092	294.32
509.524	280.28
509.956	259.21
510.389	282.62
510.821	317.73
511.253	334.11
511.685	247.51
512.117	317.73
512.549	301.34
512.981	373.9
513.412	266.24
513.844	352.84
514.276	294.32
514.707	282.62
515.139	299
515.571	352.84
516.002	284.96
516.433	329.43
516.865	291.98
517.296	345.81
517.727	284.96
518.159	296.66
518.59	362.2
519.021	320.07
519.452	317.73
519.883	287.3
520.314	289.64
520.744	336.45
521.175	306.03
521.606	270.92
522.037	350.5
522.467	341.13
522.898	256.87
523.328	266.24
523.759	350.5
524.189	334.11
524.62	268.58
525.05	338.79
525.48	380.92
525.91	310.71
526.341	303.68
526.771	303.68
527.201	306.03
527.631	359.86
528.061	343.47
528.49	296.66
528.92	249.85
529.35	327.09
529.78	301.34
530.209	345.81
530.639	317.73
531.068	280.28
531.498	247.51
531.927	310.71
532.357	284.96
532.786	261.55
533.215	289.64
533.644	329.43
534.074	320.07
534.503	343.47
534.932	289.64
535.361	247.51
535.79	343.47
536.218	320.07
536.647	284.96
537.076	317.73
537.505	301.34
537.933	336.45
538.362	310.71
538.79	343.47
539.219	294.32
539.647	324.75
540.076	299
540.504	376.24
540.932	294.32
541.36	301.34
541.788	331.77
542.217	275.6
542.645	273.26
543.073	334.11
543.5	263.9
543.928	315.39
544.356	357.52
544.784	352.84
545.211	336.45
545.639	207.72
546.067	289.64
546.494	287.3
546.922	317.73
547.349	322.41
547.776	338.79
548.204	266.24
548.631	303.68
549.058	247.51
549.485	296.66
549.912	287.3
550.339	376.24
550.766	348.15
551.193	334.11
551.62	336.45
552.047	308.37
552.474	320.07
552.9	277.94
553.327	303.68
553.754	303.68
554.18	322.41
554.607	371.56
555.033	317.73
555.459	306.03
555.886	334.11
556.312	348.15
556.738	294.32
557.164	322.41
557.59	313.05
558.016	317.73
558.442	306.03
558.868	301.34
559.294	366.88
559.72	343.47
560.145	275.6
560.571	289.64
560.997	320.07
561.422	338.79
561.848	284.96
562.273	231.13
562.699	247.51
563.124	315.39
563.549	320.07
563.974	301.34
564.4	275.6
564.825	291.98
565.25	308.37
565.675	320.07
566.1	357.52
566.525	301.34
566.95	315.39
567.374	341.13
567.799	329.43
568.224	371.56
568.648	301.34
569.073	289.64
569.497	277.94
569.922	291.98
570.346	275.6
570.771	371.56
571.195	303.68
571.619	387.94
572.043	343.47
572.467	329.43
572.891	313.05
573.315	352.84
573.739	338.79
574.163	289.64
574.587	329.43
575.011	306.03
575.435	308.37
575.858	357.52
576.282	294.32
576.705	352.84
577.129	299
577.552	317.73
577.976	380.92
578.399	207.72
578.822	336.45
579.245	317.73
579.669	266.24
580.092	261.55
580.515	296.66
580.938	336.45
581.361	355.18
581.784	352.84
582.206	345.81
582.629	308.37
583.052	336.45
583.474	322.41
583.897	303.68
584.32	322.41
584.742	336.45
585.165	289.64
585.587	329.43
586.009	287.3
586.431	310.71
586.854	322.41
587.276	261.55
587.698	263.9
588.12	345.81
588.542	259.21
588.964	296.66
589.386	261.55
589.807	277.94
590.229	294.32
590.651	317.73
591.073	280.28
591.494	261.55
591.916	280.28
592.337	249.85
592.759	369.22
593.18	294.32
593.601	331.77
594.022	313.05
594.444	294.32
594.865	315.39
595.286	315.39
595.707	282.62
596.128	343.47
596.549	334.11
596.97	327.09
597.39	322.41
597.811	287.3
598.232	219.43
598.652	299
599.073	308.37
599.494	273.26
599.914	270.92
600.334	334.11
600.755	303.68
601.175	345.81
601.595	296.66
602.015	331.77
602.436	303.68
602.856	441.78
603.276	336.45
603.696	299
604.115	291.98
604.535	273.26
604.955	324.75
605.375	336.45
605.794	261.55
606.214	273.26
606.634	301.34
607.053	299
607.473	331.77
607.892	313.05
608.311	352.84
608.731	259.21
609.15	373.9
609.569	334.11
609.988	296.66
610.407	280.28
610.826	336.45
611.245	336.45
611.664	284.96
612.083	387.94
612.501	294.32
612.92	275.6
613.339	308.37
613.757	329.43
614.176	324.75
614.594	338.79
615.013	301.34
615.431	359.86
615.85	301.34
616.268	289.64
616.686	277.94
617.104	315.39
617.522	343.47
617.94	282.62
618.358	331.77
618.776	270.92
619.194	336.45
619.612	336.45
620.03	277.94
620.447	268.58
620.865	313.05
621.282	369.22
621.7	387.94
622.117	336.45
622.535	303.68
622.952	287.3
623.369	301.34
623.787	348.15
624.204	336.45
624.621	301.34
625.038	308.37
625.455	320.07
625.872	338.79
626.289	294.32
626.706	277.94
627.123	322.41
627.539	310.71
627.956	287.3
628.373	385.6
628.789	200.7
629.206	287.3
629.622	296.66
630.038	341.13
630.455	282.62
630.871	320.07
631.287	350.5
631.703	401.99
632.12	329.43
632.536	263.9
632.952	315.39
633.368	277.94
633.783	280.28
634.199	291.98
634.615	310.71
635.031	289.64
635.446	387.94
635.862	369.22
636.277	249.85
636.693	296.66
637.108	289.64
637.524	334.11
637.939	343.47
638.354	280.28
638.77	247.51
639.185	289.64
639.6	322.41
640.015	341.13
640.43	345.81
640.845	329.43
641.259	317.73
641.674	324.75
642.089	277.94
642.504	294.32
642.918	291.98
643.333	350.5
643.747	313.05
644.162	317.73
644.576	277.94
644.991	380.92
645.405	343.47
645.819	301.34
646.233	294.32
646.647	289.64
647.061	280.28
647.475	336.45
647.889	348.15
648.303	343.47
648.717	303.68
649.131	317.73
649.545	224.11
649.958	343.47
650.372	294.32
650.785	306.03
651.199	313.05
651.612	294.32
652.026	322.41
652.439	273.26
652.852	299
653.266	282.62
653.679	301.34
654.092	310.71
654.505	315.39
654.918	247.51
655.331	376.24
655.744	277.94
656.156	310.71
656.569	275.6
656.982	320.07
657.394	268.58
657.807	256.87
658.22	385.6
658.632	324.75
659.044	254.53
659.457	331.77
659.869	296.66
660.281	329.43
660.693	252.19
661.106	263.9
661.518	334.11
661.93	266.24
662.342	334.11
662.754	289.64
663.165	291.98
663.577	313.05
663.989	334.11
664.401	299
664.812	336.45
665.224	287.3
665.635	306.03
666.047	313.05
666.458	350.5
666.869	308.37
667.281	355.18
667.692	261.55
668.103	334.11
668.514	249.85
668.925	299
669.336	233.47
669.747	359.86
670.158	350.5
670.569	303.68
670.979	294.32
671.39	256.87
671.801	315.39
672.211	362.2
672.622	291.98
673.032	259.21
673.443	338.79
673.853	275.6
674.263	308.37
674.674	362.2
675.084	238.15
675.494	245.17
675.904	343.47
676.314	303.68
676.724	294.32
677.134	343.47
677.544	287.3
677.953	336.45
678.363	324.75
678.773	357.52
679.182	341.13
679.592	331.77
680.001	345.81
680.411	327.09
680.82	329.43
681.23	357.52
681.639	324.75
682.048	299
682.457	303.68
682.866	277.94
683.275	287.3
683.684	313.05
684.093	261.55
684.502	282.62
684.911	280.28
685.32	270.92
685.728	306.03
686.137	280.28
686.546	273.26
686.954	322.41
687.363	289.64
687.771	397.31
688.179	266.24
688.588	282.62
688.996	263.9
689.404	378.58
689.812	334.11
690.22	291.98
690.628	324.75
691.036	263.9
691.444	343.47
691.852	233.47
692.26	306.03
692.667	289.64
693.075	334.11
693.483	341.13
693.89	294.32
694.298	336.45
694.705	322.41
695.112	308.37
695.52	301.34
695.927	366.88
696.334	317.73
696.741	352.84
697.148	289.64
697.555	320.07
697.962	324.75
698.369	280.28
698.776	266.24
699.183	317.73
699.59	310.71
699.996	322.41
700.403	341.13
700.81	324.75
701.216	294.32
701.623	315.39
702.029	371.56
702.435	282.62
702.842	303.68
703.248	296.66
703.654	336.45
704.06	350.5
704.466	329.43
704.872	418.37
705.278	308.37
705.684	313.05
706.09	366.88
706.496	320.07
706.901	289.64
707.307	261.55
707.712	296.66
708.118	287.3
708.523	357.52
708.929	299
709.334	266.24
709.74	313.05
710.145	280.28
710.55	320.07
710.955	289.64
711.36	287.3
711.765	291.98
712.17	317.73
712.575	310.71
712.98	804.56
713.385	313.05
713.789	315.39
714.194	294.32
714.599	240.49
715.003	322.41
715.408	273.26
715.812	303.68
716.217	310.71
716.621	313.05
717.025	296.66
717.429	348.15
717.833	277.94
718.238	282.62
718.642	306.03
719.046	355.18
719.449	259.21
719.853	322.41
720.257	306.03
720.661	280.28
721.065	261.55
721.468	369.22
721.872	301.34
722.275	313.05
722.679	359.86
723.082	266.24
723.485	320.07
723.889	273.26
724.292	343.47
724.695	282.62
725.098	306.03
725.501	399.65
725.904	291.98
726.307	280.28
726.71	273.26
727.113	303.68
727.516	303.68
727.918	380.92
728.321	341.13
728.724	338.79
729.126	324.75
729.529	306.03
729.931	322.41
730.333	310.71
730.736	273.26
731.138	350.5
731.54	392.62
731.942	268.58
732.344	334.11
732.746	306.03
733.148	338.79
733.55	327.09
733.952	238.15
734.354	289.64
734.756	317.73
735.157	315.39
735.559	341.13
735.96	268.58
736.362	313.05
736.763	331.77
737.165	280.28
737.566	268.58
737.967	280.28
738.368	310.71
738.77	277.94
739.171	313.05
739.572	341.13
739.973	317.73
740.374	282.62
740.774	341.13
741.175	301.34
741.576	268.58
741.977	350.5
742.377	371.56
742.778	291.98
743.178	366.88
743.579	355.18
743.979	348.15
744.379	322.41
744.78	334.11
745.18	310.71
745.58	327.09
745.98	287.3
746.38	301.34
746.78	275.6
747.18	291.98
747.58	289.64
747.98	284.96
748.38	277.94
748.779	315.39
749.179	334.11
749.578	327.09
749.978	282.62
750.377	303.68
750.777	289.64
751.176	294.32
751.575	303.68
751.975	315.39
752.374	343.47
752.773	327.09
753.172	240.49
753.571	343.47
753.97	355.18
754.369	284.96
754.768	308.37
755.166	345.81
755.565	247.51
755.964	341.13
756.362	263.9
756.761	317.73
757.159	266.24
757.558	277.94
757.956	291.98
758.354	334.11
758.753	322.41
759.151	263.9
759.549	252.19
759.947	277.94
760.345	317.73
760.743	296.66
761.141	301.34
761.539	359.86
761.936	373.9
762.334	280.28
762.732	327.09
763.129	235.81
763.527	324.75
763.924	317.73
764.322	224.11
764.719	284.96
765.117	310.71
765.514	266.24
765.911	308.37
766.308	294.32
766.705	329.43
767.102	329.43
767.499	310.71
767.896	289.64
768.293	315.39
768.69	282.62
769.086	348.15
769.483	268.58
769.88	275.6
770.276	275.6
770.673	277.94
771.069	348.15
771.466	200.7
771.862	338.79
772.258	212.4
772.654	317.73
773.05	310.71
773.447	301.34
773.843	282.62
774.239	303.68
774.634	303.68
775.03	371.56
775.426	277.94
775.822	385.6
776.218	334.11
776.613	235.81
777.009	359.86
777.404	355.18
777.8	263.9
778.195	317.73
778.59	240.49
778.986	343.47
779.381	299
779.776	315.39
780.171	299
780.566	303.68
780.961	331.77
781.356	303.68
781.751	317.73
782.146	322.41
782.54	263.9
782.935	306.03
783.33	296.66
783.724	266.24
784.119	310.71
784.513	277.94
784.908	224.11
785.302	275.6
785.696	390.28
786.09	306.03
786.485	299
786.879	303.68
787.273	268.58
787.667	322.41
788.061	308.37
788.454	270.92
788.848	315.39
789.242	313.05
789.636	320.07
790.029	266.24
790.423	266.24
790.816	373.9
791.21	287.3
791.603	315.39
791.997	310.71
792.39	343.47
792.783	350.5
793.176	364.54
793.569	331.77
793.962	324.75
794.355	252.19
794.748	324.75
795.141	313.05
795.534	291.98
795.927	355.18
796.319	331.77
796.712	322.41
797.105	268.58
797.497	254.53
797.89	397.31
798.282	310.71
798.674	282.62
799.067	317.73
799.459	273.26
799.851	254.53
800.243	310.71
800.635	291.98
801.027	336.45
801.419	310.71
801.811	291.98
802.203	245.17
802.594	348.15
802.986	308.37
803.378	338.79
803.769	301.34
804.161	310.71
804.552	371.56
804.944	308.37
805.335	287.3
805.726	334.11
806.118	259.21
806.509	280.28
806.9	294.32
807.291	327.09
807.682	341.13
808.073	280.28
808.464	355.18
808.855	338.79
809.245	308.37
809.636	320.07
810.027	261.55
810.417	317.73
810.808	338.79
811.198	270.92
811.589	282.62
811.979	299
812.369	280.28
812.759	310.71
813.15	378.58
813.54	348.15
813.93	256.87
814.32	252.19
814.71	277.94
815.1	287.3
815.489	254.53
815.879	371.56
816.269	294.32
816.658	303.68
817.048	336.45
817.438	249.85
817.827	280.28
818.216	226.45
818.606	310.71
818.995	364.54
819.384	355.18
819.773	373.9
820.163	282.62
820.552	291.98
820.941	345.81
821.33	289.64
821.718	294.32
822.107	273.26
822.496	315.39
822.885	369.22
823.273	266.24
823.662	320.07
824.05	282.62
824.439	289.64
824.827	301.34
825.216	315.39
825.604	306.03
825.992	254.53
826.38	322.41
826.768	329.43
827.156	303.68
827.544	289.64
827.932	320.07
828.32	291.98
828.708	254.53
829.096	357.52
829.483	336.45
829.871	282.62
830.259	277.94
830.646	310.71
831.034	343.47
831.421	270.92
831.808	296.66
832.196	303.68
832.583	343.47
832.97	247.51
833.357	308.37
833.744	322.41
834.131	277.94
834.518	373.9
834.905	254.53
835.292	256.87
835.678	306.03
836.065	284.96
836.452	364.54
836.838	249.85
837.225	385.6
837.611	317.73
837.998	320.07
838.384	214.74
838.77	350.5
839.157	310.71
839.543	275.6
839.929	296.66
840.315	359.86
840.701	310.71
841.087	343.47
841.473	376.24
841.858	275.6
842.244	273.26
842.63	320.07
843.015	317.73
843.401	633.7
843.787	320.07
844.172	277.94
844.557	343.47
844.943	294.32
845.328	308.37
845.713	221.77
846.098	299
846.483	266.24
846.868	310.71
847.253	284.96
847.638	289.64
848.023	284.96
848.408	310.71
848.793	249.85
849.177	315.39
849.562	270.92
849.947	343.47
850.331	324.75
850.715	331.77
851.1	317.73
851.484	378.58
851.868	247.51
852.253	355.18
852.637	315.39
853.021	289.64
853.405	296.66
853.789	231.13
854.173	327.09
854.557	303.68
854.94	275.6
855.324	303.68
855.708	387.94
856.091	322.41
856.475	343.47
856.858	268.58
857.242	306.03
857.625	310.71
858.009	338.79
858.392	373.9
858.775	270.92
859.158	294.32
859.541	306.03
859.924	273.26
860.307	299
860.69	308.37
861.073	329.43
861.456	350.5
861.838	343.47
862.221	327.09
862.604	373.9
862.986	310.71
863.369	329.43
863.751	322.41
864.133	308.37
864.516	252.19
864.898	338.79
865.28	320.07
865.662	310.71
866.044	294.32
866.426	322.41
866.808	315.39
867.19	320.07
867.572	315.39
867.954	306.03
868.336	301.34
868.717	294.32
869.099	352.84
869.48	336.45
869.862	322.41
870.243	306.03
870.625	282.62
871.006	331.77
871.387	303.68
871.768	310.71
872.149	341.13
872.53	301.34
872.911	301.34
873.292	259.21
873.673	329.43
874.054	320.07
874.435	324.75
874.815	371.56
875.196	387.94
875.577	324.75
875.957	301.34
876.338	289.64
876.718	355.18
877.098	301.34
877.479	270.92
877.859	338.79
878.239	308.37
878.619	317.73
878.999	310.71
879.379	280.28
879.759	310.71
880.139	336.45
880.519	299
880.898	334.11
881.278	317.73
881.658	301.34
882.037	289.64
882.417	289.64
882.796	327.09
883.176	275.6
883.555	306.03
883.934	364.54
884.313	322.41
884.693	266.24
885.072	306.03
885.451	327.09
885.83	280.28
886.209	348.15
886.587	320.07
886.966	317.73
887.345	308.37
887.724	336.45
888.102	310.71
888.481	263.9
888.859	270.92
889.238	313.05
889.616	299
889.994	310.71
890.373	324.75
890.751	308.37
891.129	348.15
891.507	303.68
891.885	324.75
892.263	308.37
892.641	308.37
893.019	301.34
893.396	306.03
893.774	341.13
894.152	313.05
894.529	350.5
894.907	282.62
895.284	280.28
895.662	301.34
896.039	348.15
896.416	291.98
896.794	357.52
897.171	308.37
897.548	343.47
897.925	291.98
898.302	357.52
898.679	301.34
899.056	317.73
899.433	242.83
899.809	254.53
900.186	296.66
900.563	329.43
900.939	313.05
901.316	294.32
901.692	306.03
902.069	303.68
902.445	362.2
902.821	282.62
903.197	287.3
903.574	341.13
903.95	362.2
904.326	317.73
904.702	329.43
905.078	336.45
905.454	348.15
905.829	303.68
906.205	280.28
906.581	273.26
906.956	303.68
907.332	385.6
907.707	254.53
908.083	327.09
908.458	380.92
908.833	338.79
909.209	315.39
909.584	263.9
909.959	284.96
910.334	214.74
910.709	291.98
911.084	341.13
911.459	301.34
911.834	310.71
912.209	284.96
912.583	259.21
912.958	268.58
913.333	324.75
913.707	291.98
914.082	259.21
914.456	280.28
914.83	252.19
915.205	280.28
915.579	254.53
915.953	308.37
916.327	313.05
916.701	350.5
917.075	355.18
917.449	287.3
917.823	322.41
918.197	315.39
918.571	296.66
918.944	327.09
919.318	289.64
919.692	320.07
920.065	289.64
920.438	289.64
920.812	284.96
921.185	341.13
921.558	273.26
921.932	303.68
922.305	261.55
922.678	324.75
923.051	338.79
923.424	268.58
923.797	301.34
924.17	317.73
924.542	275.6
924.915	306.03
925.288	345.81
925.661	282.62
926.033	308.37
926.406	352.84
926.778	299
927.15	294.32
927.523	324.75
927.895	331.77
928.267	261.55
928.639	327.09
929.011	315.39
929.383	228.79
929.755	263.9
930.127	252.19
930.499	303.68
930.871	331.77
931.242	315.39
931.614	334.11
931.986	322.41
932.357	282.62
932.729	320.07
933.1	303.68
933.471	299
933.843	287.3
934.214	287.3
934.585	287.3
934.956	329.43
935.327	313.05
935.698	299
936.069	341.13
936.44	303.68
936.811	287.3
937.182	310.71
937.552	313.05
937.923	245.17
938.293	315.39
938.664	299
939.034	287.3
939.405	277.94
939.775	273.26
940.145	317.73
940.516	331.77
940.886	294.32
941.256	327.09
941.626	263.9
941.996	294.32
942.366	329.43
942.735	334.11
943.105	369.22
943.475	366.88
943.845	221.77
944.214	324.75
944.584	401.99
944.953	287.3
945.323	277.94
945.692	317.73
946.061	341.13
946.43	284.96
946.8	266.24
947.169	275.6
947.538	308.37
947.907	301.34
948.276	240.49
948.645	263.9
949.013	427.73
949.382	383.26
949.751	306.03
950.119	327.09
950.488	301.34
950.857	303.68
951.225	261.55
951.593	289.64
951.962	317.73
952.33	291.98
952.698	301.34
953.066	280.28
953.434	242.83
953.802	299
954.17	320.07
954.538	263.9
954.906	322.41
955.274	252.19
955.642	322.41
956.009	287.3
956.377	329.43
956.744	291.98
957.112	266.24
957.479	287.3
957.847	369.22
958.214	315.39
958.581	394.97
958.948	282.62
959.315	327.09
959.683	301.34
960.05	303.68
960.416	329.43
960.783	282.62
961.15	280.28
961.517	254.53
961.884	348.15
962.25	310.71
962.617	301.34
962.983	275.6
963.35	301.34
963.716	315.39
964.082	366.88
964.449	357.52
964.815	240.49
965.181	291.98
965.547	238.15
965.913	231.13
966.279	320.07
966.645	313.05
967.011	259.21
967.377	296.66
967.742	261.55
968.108	268.58
968.474	282.62
968.839	327.09
969.205	341.13
969.57	270.92
969.935	327.09
970.301	273.26
970.666	317.73
971.031	296.66
971.396	317.73
971.761	341.13
972.126	296.66
972.491	280.28
972.856	336.45
973.221	252.19
973.586	240.49
973.95	280.28
974.315	327.09
974.679	327.09
975.044	336.45
975.408	331.77
975.773	266.24
976.137	345.81
976.501	294.32
976.866	317.73
977.23	263.9
977.594	245.17
977.958	317.73
978.322	315.39
978.686	252.19
979.049	240.49
979.413	338.79
979.777	331.77
980.141	308.37
980.504	299
980.868	294.32
981.231	287.3
981.595	240.49
981.958	270.92
982.321	336.45
982.684	259.21
983.048	270.92
983.411	313.05
983.774	313.05
984.137	289.64
984.5	327.09
984.862	350.5
985.225	376.24
985.588	277.94
985.951	355.18
986.313	303.68
986.676	291.98
987.038	352.84
987.401	359.86
987.763	359.86
988.125	334.11
988.488	254.53
988.85	261.55
989.212	259.21
989.574	296.66
989.936	369.22
990.298	296.66
990.66	336.45
991.022	280.28
991.383	331.77
991.745	282.62
992.107	214.74
992.468	313.05
992.83	299
993.191	245.17
993.553	268.58
993.914	284.96
994.275	334.11
994.637	303.68
994.998	240.49
995.359	299
995.72	277.94
996.081	317.73
996.442	334.11
996.803	303.68
997.163	345.81
997.524	350.5
997.885	313.05
998.245	261.55
998.606	352.84
998.966	313.05
999.327	348.15
999.687	320.07
1000.047	308.37
1000.408	270.92
1000.768	282.62
1001.128	320.07
1001.488	291.98
1001.848	219.43
1002.208	256.87
1002.568	254.53
1002.927	366.88
1003.287	306.03
1003.647	254.53
1004.007	287.3
1004.366	249.85
1004.726	320.07
1005.085	261.55
1005.444	310.71
1005.804	327.09
1006.163	270.92
1006.522	301.34
1006.881	317.73
1007.24	301.34
1007.599	341.13
1007.958	322.41
1008.317	282.62
1008.676	336.45
1009.035	291.98
1009.393	329.43
1009.752	306.03
1010.111	287.3
1010.469	345.81
1010.828	343.47
1011.186	282.62
1011.544	252.19
1011.903	303.68
1012.261	289.64
1012.619	345.81
1012.977	352.84
1013.335	256.87
1013.693	310.71
1014.051	252.19
1014.409	270.92
1014.767	336.45
1015.124	282.62
1015.482	277.94
1015.84	284.96
1016.197	317.73
1016.555	359.86
1016.912	306.03
1017.269	317.73
1017.627	221.77
1017.984	284.96
1018.341	273.26
1018.698	364.54
1019.055	341.13
1019.412	355.18
1019.769	273.26
1020.126	282.62
1020.483	308.37
1020.84	263.9
1021.196	303.68
1021.553	235.81
1021.909	306.03
1022.266	219.43
1022.622	348.15
1022.979	310.71
1023.335	287.3
1023.691	275.6
1024.047	376.24
1024.404	263.9
1024.76	263.9
1025.116	252.19
1025.472	366.88
1025.827	338.79
1026.183	357.52
1026.539	221.77
1026.895	308.37
1027.25	329.43
1027.606	263.9
1027.961	306.03
1028.317	364.54
1028.672	317.73
1029.028	287.3
1029.383	254.53
1029.738	256.87
1030.093	308.37
1030.448	270.92
1030.803	303.68
1031.158	310.71
1031.513	315.39
1031.868	289.64
1032.223	294.32
1032.577	287.3
1032.932	338.79
1033.287	317.73
1033.641	336.45
1033.996	329.43
1034.35	350.5
1034.704	338.79
1035.059	299
1035.413	294.32
1035.767	294.32
1036.121	294.32
