Data from Al_FLMS009871__714__15-09-06-134.txt Node

Date: Fri Mar 08 15:09:06 CST 2024
User: pe5414po
Spectrometer: FLMS00987
Trigger mode: 0
Integration Time (sec): 1.000000E-1
Scans to average: 1
Electric dark correction enabled: true
Nonlinearity correction enabled: false
Boxcar width: 0
XAxis mode: Wavelengths
Number of Pixels in Spectrum: 2048
>>>>>Begin Spectral Data<<<<<
188.938	-65.53
189.409	-65.53
189.879	-65.53
190.349	-149.79
190.819	-37.45
191.29	-49.15
191.76	-95.96
192.23	0
192.7	-86.6
193.17	-67.88
193.64	-110.01
194.109	2.34
194.579	-67.88
195.049	16.38
195.519	7.02
195.988	23.41
196.458	60.85
196.927	39.79
197.397	110.01
197.866	119.37
198.336	98.3
198.805	117.03
199.274	145.11
199.744	184.9
200.213	227.03
200.682	220.01
201.151	191.92
201.62	280.86
202.089	217.67
202.558	201.29
203.027	229.37
203.495	304.27
203.964	259.8
204.433	280.86
204.902	285.55
205.37	271.5
205.839	318.31
206.307	297.25
206.776	334.7
207.244	299.59
207.712	269.16
208.181	259.8
208.649	283.2
209.117	287.89
209.585	241.08
210.053	241.08
210.521	255.12
210.989	220.01
211.457	231.71
211.925	297.25
212.393	283.2
212.861	257.46
213.328	327.68
213.796	208.31
214.264	278.52
214.731	299.59
215.199	294.91
215.666	264.48
216.133	229.37
216.601	315.97
217.068	311.29
217.535	248.1
218.003	238.73
218.47	285.55
218.937	259.8
219.404	182.56
219.871	285.55
220.338	205.97
220.805	271.5
221.271	287.89
221.738	266.82
222.205	243.42
222.671	320.65
223.138	241.08
223.605	208.31
224.071	229.37
224.538	222.35
225.004	191.92
225.47	245.76
225.937	280.86
226.403	224.69
226.869	222.35
227.335	257.46
227.801	257.46
228.267	203.63
228.733	245.76
229.199	231.71
229.665	248.1
230.131	276.18
230.597	227.03
231.062	290.23
231.528	278.52
231.994	262.14
232.459	248.1
232.925	252.78
233.39	278.52
233.856	166.18
234.321	245.76
234.786	285.55
235.252	320.65
235.717	255.12
236.182	255.12
236.647	271.5
237.112	243.42
237.577	215.33
238.042	337.04
238.507	229.37
238.972	255.12
239.436	231.71
239.901	241.08
240.366	320.65
240.83	262.14
241.295	290.23
241.76	278.52
242.224	269.16
242.688	215.33
243.153	255.12
243.617	217.67
244.081	315.97
244.545	269.16
245.01	250.44
245.474	308.95
245.938	276.18
246.402	245.76
246.866	306.61
247.33	203.63
247.793	241.08
248.257	210.65
248.721	271.5
249.185	222.35
249.648	283.2
250.112	269.16
250.575	229.37
251.039	292.57
251.502	255.12
251.965	337.04
252.429	320.65
252.892	238.73
253.355	393.21
253.818	215.33
254.281	358.1
254.744	327.68
255.207	224.69
255.67	264.48
256.133	184.9
256.596	224.69
257.059	236.39
257.522	250.44
257.984	308.95
258.447	315.97
258.909	283.2
259.372	266.82
259.834	245.76
260.297	227.03
260.759	269.16
261.221	294.91
261.684	299.59
262.146	280.86
262.608	210.65
263.07	292.57
263.532	257.46
263.994	212.99
264.456	301.93
264.918	276.18
265.38	276.18
265.842	294.91
266.303	292.57
266.765	304.27
267.227	294.91
267.688	248.1
268.15	229.37
268.611	196.61
269.072	234.05
269.534	346.4
269.995	280.86
270.456	257.46
270.918	269.16
271.379	301.93
271.84	287.89
272.301	227.03
272.762	220.01
273.223	287.89
273.684	327.68
274.144	203.63
274.605	220.01
275.066	360.44
275.527	259.8
275.987	292.57
276.448	292.57
276.908	248.1
277.369	332.36
277.829	311.29
278.289	304.27
278.75	308.95
279.21	299.59
279.67	308.95
280.13	313.63
280.59	290.23
281.05	273.84
281.51	278.52
281.97	269.16
282.43	299.59
282.89	339.38
283.35	229.37
283.809	287.89
284.269	334.7
284.729	231.71
285.188	327.68
285.648	276.18
286.107	245.76
286.567	283.2
287.026	287.89
287.485	255.12
287.944	266.82
288.404	322.99
288.863	308.95
289.322	269.16
289.781	280.86
290.24	318.31
290.699	285.55
291.158	315.97
291.616	287.89
292.075	301.93
292.534	259.8
292.992	243.42
293.451	325.33
293.91	255.12
294.368	290.23
294.827	287.89
295.285	273.84
295.743	250.44
296.202	299.59
296.66	297.25
297.118	250.44
297.576	313.63
298.034	292.57
298.492	306.61
298.95	297.25
299.408	222.35
299.866	252.78
300.324	257.46
300.781	250.44
301.239	264.48
301.697	245.76
302.154	273.84
302.612	285.55
303.069	330.02
303.527	327.68
303.984	318.31
304.441	276.18
304.899	285.55
305.356	285.55
305.813	330.02
306.27	273.84
306.727	271.5
307.184	304.27
307.641	262.14
308.098	299.59
308.555	238.73
309.012	269.16
309.468	308.95
309.925	236.39
310.382	250.44
310.838	322.99
311.295	269.16
311.751	273.84
312.208	280.86
312.664	311.29
313.12	322.99
313.577	269.16
314.033	290.23
314.489	273.84
314.945	299.59
315.401	299.59
315.857	330.02
316.313	283.2
316.769	337.04
317.225	292.57
317.681	241.08
318.136	332.36
318.592	294.91
319.048	217.67
319.503	294.91
319.959	264.48
320.414	341.72
320.869	308.95
321.325	224.69
321.78	337.04
322.235	280.86
322.691	308.95
323.146	301.93
323.601	358.1
324.056	287.89
324.511	273.84
324.966	348.74
325.421	285.55
325.875	341.72
326.33	269.16
326.785	341.72
327.24	294.91
327.694	262.14
328.149	280.86
328.603	330.02
329.058	280.86
329.512	294.91
329.966	301.93
330.421	264.48
330.875	327.68
331.329	344.06
331.783	290.23
332.237	341.72
332.691	285.55
333.145	259.8
333.599	297.25
334.053	255.12
334.507	220.01
334.96	294.91
335.414	344.06
335.868	245.76
336.321	299.59
336.775	294.91
337.228	285.55
337.682	320.65
338.135	299.59
338.588	273.84
339.042	313.63
339.495	280.86
339.948	322.99
340.401	278.52
340.854	299.59
341.307	262.14
341.76	269.16
342.213	308.95
342.666	250.44
343.119	330.02
343.571	278.52
344.024	283.2
344.477	344.06
344.929	259.8
345.382	280.86
345.834	292.57
346.287	308.95
346.739	250.44
347.191	283.2
347.644	269.16
348.096	299.59
348.548	311.29
349	283.2
349.452	266.82
349.904	339.38
350.356	315.97
350.808	322.99
351.26	337.04
351.711	266.82
352.163	360.44
352.615	358.1
353.066	224.69
353.518	358.1
353.969	290.23
354.421	308.95
354.872	266.82
355.324	325.33
355.775	252.78
356.226	301.93
356.677	255.12
357.128	304.27
357.579	292.57
358.03	301.93
358.481	266.82
358.932	299.59
359.383	327.68
359.834	313.63
360.285	327.68
360.735	322.99
361.186	306.61
361.637	250.44
362.087	313.63
362.538	259.8
362.988	243.42
363.438	339.38
363.889	259.8
364.339	257.46
364.789	386.19
365.239	264.48
365.689	332.36
366.139	273.84
366.589	308.95
367.039	243.42
367.489	332.36
367.939	313.63
368.389	322.99
368.839	353.42
369.288	297.25
369.738	313.63
370.187	285.55
370.637	327.68
371.086	297.25
371.536	292.57
371.985	248.1
372.434	276.18
372.884	264.48
373.333	330.02
373.782	276.18
374.231	271.5
374.68	238.73
375.129	318.31
375.578	257.46
376.027	304.27
376.475	315.97
376.924	290.23
377.373	264.48
377.822	308.95
378.27	299.59
378.719	297.25
379.167	287.89
379.616	360.44
380.064	297.25
380.512	301.93
380.961	315.97
381.409	301.93
381.857	280.86
382.305	287.89
382.753	276.18
383.201	339.38
383.649	379.17
384.097	306.61
384.545	273.84
384.992	318.31
385.44	337.04
385.888	248.1
386.335	292.57
386.783	271.5
387.231	320.65
387.678	255.12
388.125	304.27
388.573	355.76
389.02	283.2
389.467	327.68
389.914	304.27
390.362	337.04
390.809	334.7
391.256	280.86
391.703	353.42
392.15	332.36
392.596	245.76
393.043	372.15
393.49	250.44
393.937	334.7
394.383	229.37
394.83	290.23
395.276	292.57
395.723	283.2
396.169	297.25
396.616	322.99
397.062	292.57
397.508	294.91
397.954	252.78
398.401	362.78
398.847	294.91
399.293	299.59
399.739	318.31
400.185	297.25
400.631	301.93
401.076	280.86
401.522	301.93
401.968	306.61
402.414	315.97
402.859	266.82
403.305	269.16
403.75	252.78
404.196	344.06
404.641	311.29
405.086	290.23
405.532	273.84
405.977	245.76
406.422	320.65
406.867	294.91
407.312	362.78
407.757	337.04
408.202	318.31
408.647	341.72
409.092	285.55
409.537	301.93
409.982	306.61
410.426	325.33
410.871	360.44
411.316	308.95
411.76	234.05
412.205	339.38
412.649	348.74
413.093	294.91
413.538	283.2
413.982	325.33
414.426	308.95
414.87	332.36
415.314	318.31
415.758	304.27
416.202	297.25
416.646	330.02
417.09	318.31
417.534	334.7
417.978	243.42
418.421	325.33
418.865	299.59
419.309	259.8
419.752	278.52
420.196	344.06
420.639	330.02
421.083	292.57
421.526	311.29
421.969	227.03
422.412	325.33
422.856	308.95
423.299	332.36
423.742	262.14
424.185	308.95
424.628	311.29
425.071	301.93
425.513	271.5
425.956	325.33
426.399	278.52
426.842	299.59
427.284	285.55
427.727	372.15
428.169	330.02
428.612	311.29
429.054	273.84
429.497	313.63
429.939	255.12
430.381	234.05
430.823	280.86
431.265	308.95
431.707	285.55
432.149	290.23
432.591	315.97
433.033	348.74
433.475	311.29
433.917	322.99
434.359	273.84
434.8	287.89
435.242	304.27
435.684	393.21
436.125	299.59
436.567	285.55
437.008	259.8
437.449	341.72
437.891	297.25
438.332	311.29
438.773	299.59
439.214	301.93
439.656	322.99
440.097	306.61
440.538	290.23
440.978	287.89
441.419	308.95
441.86	294.91
442.301	273.84
442.742	311.29
443.182	250.44
443.623	306.61
444.063	285.55
444.504	383.85
444.944	266.82
445.385	297.25
445.825	273.84
446.265	285.55
446.706	311.29
447.146	308.95
447.586	362.78
448.026	327.68
448.466	290.23
448.906	318.31
449.346	273.84
449.786	330.02
450.225	269.16
450.665	334.7
451.105	330.02
451.544	337.04
451.984	337.04
452.424	269.16
452.863	259.8
453.302	243.42
453.742	348.74
454.181	330.02
454.62	306.61
455.059	278.52
455.499	269.16
455.938	313.63
456.377	346.4
456.816	334.7
457.254	278.52
457.693	334.7
458.132	313.63
458.571	236.39
459.01	278.52
459.448	250.44
459.887	292.57
460.325	327.68
460.764	294.91
461.202	273.84
461.641	330.02
462.079	318.31
462.517	292.57
462.955	313.63
463.393	327.68
463.832	290.23
464.27	358.1
464.708	365.12
465.145	346.4
465.583	344.06
466.021	273.84
466.459	360.44
466.897	278.52
467.334	358.1
467.772	297.25
468.209	318.31
468.647	341.72
469.084	325.33
469.522	332.36
469.959	320.65
470.396	344.06
470.833	322.99
471.271	297.25
471.708	224.69
472.145	322.99
472.582	320.65
473.019	313.63
473.456	315.97
473.892	339.38
474.329	313.63
474.766	294.91
475.202	290.23
475.639	344.06
476.076	355.76
476.512	266.82
476.949	294.91
477.385	325.33
477.821	264.48
478.258	264.48
478.694	257.46
479.13	299.59
479.566	283.2
480.002	257.46
480.438	276.18
480.874	365.12
481.31	264.48
481.746	266.82
482.181	327.68
482.617	308.95
483.053	306.61
483.488	248.1
483.924	257.46
484.36	231.71
484.795	287.89
485.23	325.33
485.666	299.59
486.101	337.04
486.536	297.25
486.971	264.48
487.407	283.2
487.842	301.93
488.277	297.25
488.712	306.61
489.146	257.46
489.581	322.99
490.016	327.68
490.451	259.8
490.885	311.29
491.32	294.91
491.755	248.1
492.189	241.08
492.624	306.61
493.058	290.23
493.492	252.78
493.927	360.44
494.361	297.25
494.795	259.8
495.229	273.84
495.663	292.57
496.097	266.82
496.531	287.89
496.965	325.33
497.399	337.04
497.833	271.5
498.266	383.85
498.7	301.93
499.134	297.25
499.567	330.02
500.001	381.51
500.434	311.29
500.868	271.5
501.301	315.97
501.734	271.5
502.168	278.52
502.601	299.59
503.034	358.1
503.467	250.44
503.9	245.76
504.333	283.2
504.766	367.46
505.199	280.86
505.632	297.25
506.064	327.68
506.497	252.78
506.93	252.78
507.362	301.93
507.795	358.1
508.227	278.52
508.66	330.02
509.092	334.7
509.524	234.05
509.956	271.5
510.389	306.61
510.821	276.18
511.253	315.97
511.685	283.2
512.117	320.65
512.549	353.42
512.981	304.27
513.412	315.97
513.844	294.91
514.276	271.5
514.707	334.7
515.139	262.14
515.571	250.44
516.002	276.18
516.433	330.02
516.865	372.15
517.296	315.97
517.727	320.65
518.159	313.63
518.59	346.4
519.021	301.93
519.452	372.15
519.883	351.08
520.314	299.59
520.744	301.93
521.175	280.86
521.606	311.29
522.037	341.72
522.467	311.29
522.898	308.95
523.328	325.33
523.759	243.42
524.189	322.99
524.62	271.5
525.05	301.93
525.48	362.78
525.91	306.61
526.341	313.63
526.771	306.61
527.201	341.72
527.631	297.25
528.061	386.19
528.49	360.44
528.92	287.89
529.35	252.78
529.78	278.52
530.209	252.78
530.639	234.05
531.068	250.44
531.498	283.2
531.927	269.16
532.357	306.61
532.786	390.87
533.215	306.61
533.644	318.31
534.074	311.29
534.503	325.33
534.932	297.25
535.361	292.57
535.79	283.2
536.218	322.99
536.647	231.71
537.076	269.16
537.505	252.78
537.933	313.63
538.362	322.99
538.79	325.33
539.219	250.44
539.647	264.48
540.076	266.82
540.504	341.72
540.932	250.44
541.36	320.65
541.788	276.18
542.217	290.23
542.645	257.46
543.073	292.57
543.5	290.23
543.928	294.91
544.356	301.93
544.784	341.72
545.211	355.76
545.639	297.25
546.067	318.31
546.494	337.04
546.922	374.49
547.349	259.8
547.776	315.97
548.204	423.64
548.631	241.08
549.058	264.48
549.485	362.78
549.912	353.42
550.339	290.23
550.766	301.93
551.193	276.18
551.62	339.38
552.047	255.12
552.474	376.83
552.9	285.55
553.327	341.72
553.754	266.82
554.18	243.42
554.607	355.76
555.033	355.76
555.459	337.04
555.886	294.91
556.312	311.29
556.738	264.48
557.164	320.65
557.59	241.08
558.016	304.27
558.442	271.5
558.868	243.42
559.294	294.91
559.72	269.16
560.145	355.76
560.571	278.52
560.997	278.52
561.422	285.55
561.848	301.93
562.273	311.29
562.699	283.2
563.124	292.57
563.549	262.14
563.974	299.59
564.4	327.68
564.825	341.72
565.25	280.86
565.675	372.15
566.1	344.06
566.525	358.1
566.95	271.5
567.374	301.93
567.799	278.52
568.224	245.76
568.648	313.63
569.073	311.29
569.497	322.99
569.922	381.51
570.346	294.91
570.771	393.21
571.195	271.5
571.619	290.23
572.043	283.2
572.467	341.72
572.891	250.44
573.315	315.97
573.739	315.97
574.163	290.23
574.587	294.91
575.011	348.74
575.435	344.06
575.858	315.97
576.282	283.2
576.705	280.86
577.129	327.68
577.552	287.89
577.976	227.03
578.399	346.4
578.822	292.57
579.245	259.8
579.669	311.29
580.092	318.31
580.515	320.65
580.938	299.59
581.361	315.97
581.784	234.05
582.206	255.12
582.629	290.23
583.052	287.89
583.474	320.65
583.897	418.96
584.32	290.23
584.742	283.2
585.165	269.16
585.587	257.46
586.009	208.31
586.431	301.93
586.854	271.5
587.276	334.7
587.698	294.91
588.12	365.12
588.542	355.76
588.964	297.25
589.386	297.25
589.807	318.31
590.229	259.8
590.651	292.57
591.073	269.16
591.494	250.44
591.916	292.57
592.337	283.2
592.759	313.63
593.18	264.48
593.601	283.2
594.022	229.37
594.444	304.27
594.865	299.59
595.286	285.55
595.707	271.5
596.128	290.23
596.549	365.12
596.97	358.1
597.39	304.27
597.811	301.93
598.232	390.87
598.652	301.93
599.073	341.72
599.494	341.72
599.914	280.86
600.334	320.65
600.755	322.99
601.175	351.08
601.595	318.31
602.015	297.25
602.436	257.46
602.856	407.25
603.276	332.36
603.696	283.2
604.115	287.89
604.535	313.63
604.955	355.76
605.375	248.1
605.794	299.59
606.214	325.33
606.634	318.31
607.053	287.89
607.473	299.59
607.892	264.48
608.311	386.19
608.731	334.7
609.15	297.25
609.569	311.29
609.988	304.27
610.407	355.76
610.826	315.97
611.245	278.52
611.664	304.27
612.083	327.68
612.501	269.16
612.92	283.2
613.339	353.42
613.757	304.27
614.176	306.61
614.594	325.33
615.013	280.86
615.431	330.02
615.85	252.78
616.268	264.48
616.686	339.38
617.104	315.97
617.522	318.31
617.94	330.02
618.358	243.42
618.776	313.63
619.194	297.25
619.612	358.1
620.03	308.95
620.447	278.52
620.865	308.95
621.282	311.29
621.7	276.18
622.117	292.57
622.535	339.38
622.952	222.35
623.369	243.42
623.787	304.27
624.204	299.59
624.621	308.95
625.038	283.2
625.455	353.42
625.872	285.55
626.289	311.29
626.706	325.33
627.123	276.18
627.539	311.29
627.956	290.23
628.373	318.31
628.789	344.06
629.206	280.86
629.622	360.44
630.038	315.97
630.455	241.08
630.871	241.08
631.287	334.7
631.703	341.72
632.12	287.89
632.536	287.89
632.952	320.65
633.368	320.65
633.783	313.63
634.199	339.38
634.615	311.29
635.031	308.95
635.446	266.82
635.862	313.63
636.277	285.55
636.693	351.08
637.108	283.2
637.524	280.86
637.939	290.23
638.354	276.18
638.77	290.23
639.185	341.72
639.6	311.29
640.015	334.7
640.43	276.18
640.845	344.06
641.259	304.27
641.674	313.63
642.089	367.46
642.504	243.42
642.918	344.06
643.333	257.46
643.747	276.18
644.162	365.12
644.576	301.93
644.991	283.2
645.405	318.31
645.819	257.46
646.233	311.29
646.647	271.5
647.061	262.14
647.475	292.57
647.889	248.1
648.303	290.23
648.717	264.48
649.131	264.48
649.545	285.55
649.958	308.95
650.372	334.7
650.785	276.18
651.199	290.23
651.612	308.95
652.026	344.06
652.439	330.02
652.852	271.5
653.266	217.67
653.679	273.84
654.092	376.83
654.505	341.72
654.918	348.74
655.331	304.27
655.744	360.44
656.156	337.04
656.569	322.99
656.982	318.31
657.394	360.44
657.807	304.27
658.22	292.57
658.632	280.86
659.044	250.44
659.457	252.78
659.869	332.36
660.281	313.63
660.693	311.29
661.106	334.7
661.518	241.08
661.93	248.1
662.342	308.95
662.754	360.44
663.165	306.61
663.577	283.2
663.989	266.82
664.401	367.46
664.812	332.36
665.224	278.52
665.635	266.82
666.047	234.05
666.458	280.86
666.869	388.53
667.281	259.8
667.692	271.5
668.103	353.42
668.514	315.97
668.925	215.33
669.336	344.06
669.747	241.08
670.158	269.16
670.569	250.44
670.979	236.39
671.39	311.29
671.801	372.15
672.211	231.71
672.622	278.52
673.032	304.27
673.443	318.31
673.853	255.12
674.263	278.52
674.674	320.65
675.084	271.5
675.494	292.57
675.904	238.73
676.314	292.57
676.724	229.37
677.134	269.16
677.544	294.91
677.953	285.55
678.363	266.82
678.773	313.63
679.182	273.84
679.592	294.91
680.001	280.86
680.411	308.95
680.82	304.27
681.23	308.95
681.639	271.5
682.048	278.52
682.457	292.57
682.866	327.68
683.275	306.61
683.684	315.97
684.093	306.61
684.502	299.59
684.911	264.48
685.32	372.15
685.728	264.48
686.137	306.61
686.546	273.84
686.954	285.55
687.363	287.89
687.771	238.73
688.179	348.74
688.588	294.91
688.996	327.68
689.404	325.33
689.812	294.91
690.22	341.72
690.628	248.1
691.036	306.61
691.444	297.25
691.852	248.1
692.26	332.36
692.667	308.95
693.075	255.12
693.483	311.29
693.89	308.95
694.298	351.08
694.705	297.25
695.112	299.59
695.52	318.31
695.927	301.93
696.334	341.72
696.741	320.65
697.148	245.76
697.555	231.71
697.962	299.59
698.369	337.04
698.776	369.8
699.183	299.59
699.59	287.89
699.996	250.44
700.403	325.33
700.81	304.27
701.216	306.61
701.623	330.02
702.029	311.29
702.435	236.39
702.842	266.82
703.248	283.2
703.654	365.12
704.06	285.55
704.466	290.23
704.872	327.68
705.278	299.59
705.684	325.33
706.09	313.63
706.496	315.97
706.901	269.16
707.307	259.8
707.712	278.52
708.118	313.63
708.523	301.93
708.929	297.25
709.334	292.57
709.74	306.61
710.145	313.63
710.55	280.86
710.955	292.57
711.36	290.23
711.765	292.57
712.17	304.27
712.575	250.44
712.98	922.17
713.385	334.7
713.789	313.63
714.194	365.12
714.599	320.65
715.003	271.5
715.408	273.84
715.812	294.91
716.217	381.51
716.621	285.55
717.025	306.61
717.429	318.31
717.833	257.46
718.238	283.2
718.642	346.4
719.046	287.89
719.449	353.42
719.853	337.04
720.257	327.68
720.661	250.44
721.065	311.29
721.468	292.57
721.872	320.65
722.275	287.89
722.679	306.61
723.082	262.14
723.485	299.59
723.889	290.23
724.292	287.89
724.695	198.95
725.098	358.1
725.501	330.02
725.904	315.97
726.307	339.38
726.71	229.37
727.113	243.42
727.516	304.27
727.918	315.97
728.321	318.31
728.724	322.99
729.126	245.76
729.529	294.91
729.931	362.78
730.333	315.97
730.736	262.14
731.138	299.59
731.54	327.68
731.942	334.7
732.344	273.84
732.746	311.29
733.148	330.02
733.55	306.61
733.952	362.78
734.354	308.95
734.756	299.59
735.157	294.91
735.559	301.93
735.96	311.29
736.362	330.02
736.763	297.25
737.165	294.91
737.566	294.91
737.967	299.59
738.368	243.42
738.77	259.8
739.171	308.95
739.572	308.95
739.973	292.57
740.374	367.46
740.774	311.29
741.175	315.97
741.576	297.25
741.977	318.31
742.377	308.95
742.778	252.78
743.178	203.63
743.579	330.02
743.979	297.25
744.379	231.71
744.78	315.97
745.18	301.93
745.58	280.86
745.98	301.93
746.38	255.12
746.78	301.93
747.18	327.68
747.58	231.71
747.98	266.82
748.38	276.18
748.779	337.04
749.179	325.33
749.578	325.33
749.978	327.68
750.377	318.31
750.777	297.25
751.176	311.29
751.575	311.29
751.975	311.29
752.374	287.89
752.773	292.57
753.172	285.55
753.571	290.23
753.97	299.59
754.369	320.65
754.768	299.59
755.166	266.82
755.565	306.61
755.964	362.78
756.362	318.31
756.761	283.2
757.159	252.78
757.558	255.12
757.956	344.06
758.354	344.06
758.753	379.17
759.151	330.02
759.549	313.63
759.947	344.06
760.345	325.33
760.743	299.59
761.141	280.86
761.539	341.72
761.936	367.46
762.334	330.02
762.732	297.25
763.129	292.57
763.527	313.63
763.924	337.04
764.322	318.31
764.719	348.74
765.117	393.21
765.514	327.68
765.911	273.84
766.308	325.33
766.705	290.23
767.102	301.93
767.499	283.2
767.896	243.42
768.293	278.52
768.69	297.25
769.086	327.68
769.483	271.5
769.88	348.74
770.276	325.33
770.673	297.25
771.069	287.89
771.466	306.61
771.862	294.91
772.258	255.12
772.654	236.39
773.05	297.25
773.447	339.38
773.843	351.08
774.239	294.91
774.634	341.72
775.03	348.74
775.426	294.91
775.822	313.63
776.218	318.31
776.613	276.18
777.009	280.86
777.404	243.42
777.8	276.18
778.195	339.38
778.59	299.59
778.986	255.12
779.381	301.93
779.776	337.04
780.171	285.55
780.566	315.97
780.961	337.04
781.356	355.76
781.751	306.61
782.146	276.18
782.54	376.83
782.935	278.52
783.33	301.93
783.724	273.84
784.119	257.46
784.513	304.27
784.908	334.7
785.302	285.55
785.696	262.14
786.09	285.55
786.485	266.82
786.879	269.16
787.273	229.37
787.667	264.48
788.061	229.37
788.454	322.99
788.848	320.65
789.242	271.5
789.636	341.72
790.029	290.23
790.423	276.18
790.816	252.78
791.21	306.61
791.603	210.65
791.997	283.2
792.39	294.91
792.783	278.52
793.176	320.65
793.569	327.68
793.962	238.73
794.355	262.14
794.748	269.16
795.141	294.91
795.534	301.93
795.927	285.55
796.319	283.2
796.712	278.52
797.105	266.82
797.497	341.72
797.89	318.31
798.282	304.27
798.674	344.06
799.067	271.5
799.459	280.86
799.851	330.02
800.243	332.36
800.635	362.78
801.027	381.51
801.419	306.61
801.811	294.91
802.203	290.23
802.594	269.16
802.986	269.16
803.378	330.02
803.769	294.91
804.161	250.44
804.552	278.52
804.944	339.38
805.335	327.68
805.726	351.08
806.118	264.48
806.509	301.93
806.9	313.63
807.291	222.35
807.682	313.63
808.073	327.68
808.464	299.59
808.855	290.23
809.245	330.02
809.636	299.59
810.027	287.89
810.417	353.42
810.808	255.12
811.198	266.82
811.589	241.08
811.979	297.25
812.369	259.8
812.759	294.91
813.15	318.31
813.54	330.02
813.93	292.57
814.32	287.89
814.71	294.91
815.1	259.8
815.489	285.55
815.879	337.04
816.269	339.38
816.658	299.59
817.048	320.65
817.438	327.68
817.827	325.33
818.216	257.46
818.606	255.12
818.995	299.59
819.384	315.97
819.773	315.97
820.163	248.1
820.552	337.04
820.941	306.61
821.33	344.06
821.718	292.57
822.107	337.04
822.496	245.76
822.885	330.02
823.273	339.38
823.662	224.69
824.05	297.25
824.439	262.14
824.827	290.23
825.216	290.23
825.604	306.61
825.992	297.25
826.38	292.57
826.768	330.02
827.156	353.42
827.544	283.2
827.932	287.89
828.32	280.86
828.708	318.31
829.096	283.2
829.483	294.91
829.871	362.78
830.259	306.61
830.646	273.84
831.034	308.95
831.421	276.18
831.808	315.97
832.196	297.25
832.583	252.78
832.97	315.97
833.357	285.55
833.744	292.57
834.131	311.29
834.518	311.29
834.905	269.16
835.292	308.95
835.678	313.63
836.065	266.82
836.452	224.69
836.838	320.65
837.225	259.8
837.611	299.59
837.998	299.59
838.384	273.84
838.77	327.68
839.157	245.76
839.543	301.93
839.929	250.44
840.315	374.49
840.701	311.29
841.087	234.05
841.473	248.1
841.858	269.16
842.244	287.89
842.63	308.95
843.015	339.38
843.401	571.09
843.787	315.97
844.172	292.57
844.557	315.97
844.943	294.91
845.328	311.29
845.713	269.16
846.098	304.27
846.483	278.52
846.868	252.78
847.253	351.08
847.638	334.7
848.023	276.18
848.408	330.02
848.793	287.89
849.177	304.27
849.562	283.2
849.947	308.95
850.331	215.33
850.715	339.38
851.1	327.68
851.484	224.69
851.868	330.02
852.253	283.2
852.637	294.91
853.021	367.46
853.405	297.25
853.789	266.82
854.173	313.63
854.557	313.63
854.94	271.5
855.324	367.46
855.708	313.63
856.091	229.37
856.475	327.68
856.858	283.2
857.242	313.63
857.625	322.99
858.009	304.27
858.392	301.93
858.775	252.78
859.158	304.27
859.541	294.91
859.924	248.1
860.307	276.18
860.69	306.61
861.073	318.31
861.456	285.55
861.838	346.4
862.221	322.99
862.604	301.93
862.986	241.08
863.369	299.59
863.751	339.38
864.133	266.82
864.516	252.78
864.898	269.16
865.28	255.12
865.662	285.55
866.044	346.4
866.426	236.39
866.808	292.57
867.19	290.23
867.572	294.91
867.954	330.02
868.336	346.4
868.717	238.73
869.099	259.8
869.48	271.5
869.862	294.91
870.243	311.29
870.625	252.78
871.006	236.39
871.387	292.57
871.768	355.76
872.149	285.55
872.53	362.78
872.911	266.82
873.292	327.68
873.673	255.12
874.054	224.69
874.435	245.76
874.815	322.99
875.196	264.48
875.577	266.82
875.957	292.57
876.338	257.46
876.718	304.27
877.098	276.18
877.479	308.95
877.859	276.18
878.239	266.82
878.619	308.95
878.999	341.72
879.379	311.29
879.759	257.46
880.139	248.1
880.519	273.84
880.898	234.05
881.278	308.95
881.658	271.5
882.037	337.04
882.417	308.95
882.796	241.08
883.176	301.93
883.555	297.25
883.934	255.12
884.313	320.65
884.693	255.12
885.072	257.46
885.451	255.12
885.83	252.78
886.209	191.92
886.587	322.99
886.966	322.99
887.345	332.36
887.724	311.29
888.102	308.95
888.481	332.36
888.859	322.99
889.238	280.86
889.616	318.31
889.994	372.15
890.373	248.1
890.751	266.82
891.129	292.57
891.507	269.16
891.885	255.12
892.263	290.23
892.641	285.55
893.019	355.76
893.396	311.29
893.774	266.82
894.152	315.97
894.529	266.82
894.907	301.93
895.284	271.5
895.662	294.91
896.039	255.12
896.416	290.23
896.794	285.55
897.171	273.84
897.548	313.63
897.925	346.4
898.302	325.33
898.679	308.95
899.056	262.14
899.433	308.95
899.809	278.52
900.186	292.57
900.563	287.89
900.939	259.8
901.316	315.97
901.692	315.97
902.069	332.36
902.445	283.2
902.821	273.84
903.197	311.29
903.574	283.2
903.95	285.55
904.326	313.63
904.702	313.63
905.078	322.99
905.454	276.18
905.829	290.23
906.205	215.33
906.581	355.76
906.956	215.33
907.332	266.82
907.707	330.02
908.083	264.48
908.458	334.7
908.833	320.65
909.209	276.18
909.584	280.86
909.959	276.18
910.334	287.89
910.709	327.68
911.084	262.14
911.459	292.57
911.834	304.27
912.209	358.1
912.583	339.38
912.958	339.38
913.333	285.55
913.707	313.63
914.082	308.95
914.456	271.5
914.83	355.76
915.205	276.18
915.579	290.23
915.953	325.33
916.327	287.89
916.701	334.7
917.075	304.27
917.449	339.38
917.823	273.84
918.197	330.02
918.571	269.16
918.944	229.37
919.318	243.42
919.692	308.95
920.065	308.95
920.438	241.08
920.812	248.1
921.185	283.2
921.558	311.29
921.932	320.65
922.305	315.97
922.678	271.5
923.051	299.59
923.424	290.23
923.797	351.08
924.17	320.65
924.542	297.25
924.915	311.29
925.288	278.52
925.661	299.59
926.033	299.59
926.406	330.02
926.778	337.04
927.15	330.02
927.523	250.44
927.895	348.74
928.267	327.68
928.639	320.65
929.011	262.14
929.383	269.16
929.755	224.69
930.127	255.12
930.499	327.68
930.871	334.7
931.242	297.25
931.614	273.84
931.986	290.23
932.357	306.61
932.729	208.31
933.1	283.2
933.471	262.14
933.843	330.02
934.214	306.61
934.585	318.31
934.956	322.99
935.327	315.97
935.698	346.4
936.069	297.25
936.44	269.16
936.811	262.14
937.182	259.8
937.552	292.57
937.923	250.44
938.293	278.52
938.664	255.12
939.034	330.02
939.405	299.59
939.775	306.61
940.145	311.29
940.516	266.82
940.886	294.91
941.256	315.97
941.626	376.83
941.996	351.08
942.366	308.95
942.735	248.1
943.105	311.29
943.475	360.44
943.845	285.55
944.214	269.16
944.584	304.27
944.953	360.44
945.323	257.46
945.692	327.68
946.061	301.93
946.43	294.91
946.8	285.55
947.169	327.68
947.538	245.76
947.907	252.78
948.276	341.72
948.645	308.95
949.013	241.08
949.382	224.69
949.751	255.12
950.119	276.18
950.488	348.74
950.857	367.46
951.225	273.84
951.593	290.23
951.962	285.55
952.33	262.14
952.698	313.63
953.066	313.63
953.434	344.06
953.802	299.59
954.17	273.84
954.538	397.89
954.906	355.76
955.274	315.97
955.642	330.02
956.009	252.78
956.377	290.23
956.744	250.44
957.112	283.2
957.479	355.76
957.847	325.33
958.214	325.33
958.581	362.78
958.948	229.37
959.315	348.74
959.683	372.15
960.05	386.19
960.416	306.61
960.783	243.42
961.15	266.82
961.517	301.93
961.884	365.12
962.25	283.2
962.617	287.89
962.983	360.44
963.35	318.31
963.716	264.48
964.082	332.36
964.449	320.65
964.815	290.23
965.181	297.25
965.547	332.36
965.913	313.63
966.279	252.78
966.645	292.57
967.011	278.52
967.377	318.31
967.742	341.72
968.108	236.39
968.474	327.68
968.839	292.57
969.205	283.2
969.57	271.5
969.935	360.44
970.301	255.12
970.666	262.14
971.031	308.95
971.396	315.97
971.761	337.04
972.126	257.46
972.491	334.7
972.856	269.16
973.221	222.35
973.586	264.48
973.95	290.23
974.315	301.93
974.679	311.29
975.044	259.8
975.408	266.82
975.773	292.57
976.137	318.31
976.501	313.63
976.866	311.29
977.23	294.91
977.594	304.27
977.958	273.84
978.322	285.55
978.686	351.08
979.049	280.86
979.413	262.14
979.777	332.36
980.141	346.4
980.504	322.99
980.868	236.39
981.231	306.61
981.595	318.31
981.958	273.84
982.321	318.31
982.684	294.91
983.048	311.29
983.411	273.84
983.774	229.37
984.137	320.65
984.5	220.01
984.862	304.27
985.225	290.23
985.588	304.27
985.951	332.36
986.313	304.27
986.676	360.44
987.038	344.06
987.401	290.23
987.763	294.91
988.125	276.18
988.488	252.78
988.85	301.93
989.212	320.65
989.574	271.5
989.936	257.46
990.298	292.57
990.66	252.78
991.022	313.63
991.383	344.06
991.745	276.18
992.107	313.63
992.468	301.93
992.83	313.63
993.191	315.97
993.553	332.36
993.914	294.91
994.275	262.14
994.637	257.46
994.998	344.06
995.359	252.78
995.72	322.99
996.081	297.25
996.442	304.27
996.803	255.12
997.163	273.84
997.524	313.63
997.885	311.29
998.245	294.91
998.606	257.46
998.966	201.29
999.327	262.14
999.687	290.23
1000.047	257.46
1000.408	365.12
1000.768	313.63
1001.128	287.89
1001.488	292.57
1001.848	257.46
1002.208	236.39
1002.568	266.82
1002.927	297.25
1003.287	304.27
1003.647	313.63
1004.007	285.55
1004.366	308.95
1004.726	292.57
1005.085	280.86
1005.444	294.91
1005.804	322.99
1006.163	273.84
1006.522	294.91
1006.881	320.65
1007.24	271.5
1007.599	318.31
1007.958	304.27
1008.317	341.72
1008.676	234.05
1009.035	278.52
1009.393	269.16
1009.752	285.55
1010.111	299.59
1010.469	273.84
1010.828	306.61
1011.186	311.29
1011.544	285.55
1011.903	297.25
1012.261	243.42
1012.619	301.93
1012.977	252.78
1013.335	299.59
1013.693	320.65
1014.051	297.25
1014.409	341.72
1014.767	283.2
1015.124	334.7
1015.482	271.5
1015.84	348.74
1016.197	318.31
1016.555	322.99
1016.912	315.97
1017.269	334.7
1017.627	318.31
1017.984	320.65
1018.341	365.12
1018.698	297.25
1019.055	278.52
1019.412	283.2
1019.769	304.27
1020.126	306.61
1020.483	301.93
1020.84	273.84
1021.196	294.91
1021.553	369.8
1021.909	301.93
1022.266	252.78
1022.622	304.27
1022.979	304.27
1023.335	290.23
1023.691	304.27
1024.047	395.55
1024.404	280.86
1024.76	271.5
1025.116	255.12
1025.472	365.12
1025.827	290.23
1026.183	273.84
1026.539	292.57
1026.895	346.4
1027.25	315.97
1027.606	325.33
1027.961	285.55
1028.317	332.36
1028.672	320.65
1029.028	306.61
1029.383	255.12
1029.738	238.73
1030.093	299.59
1030.448	248.1
1030.803	311.29
1031.158	257.46
1031.513	266.82
1031.868	273.84
1032.223	285.55
1032.577	252.78
1032.932	276.18
1033.287	257.46
1033.641	341.72
1033.996	351.08
1034.35	269.16
1034.704	285.55
1035.059	374.49
1035.413	299.59
1035.767	299.59
1036.121	299.59
