Data from Al_FLMS009871__705__15-09-05-234.txt Node

Date: Fri Mar 08 15:09:05 CST 2024
User: pe5414po
Spectrometer: FLMS00987
Trigger mode: 0
Integration Time (sec): 1.000000E-1
Scans to average: 1
Electric dark correction enabled: true
Nonlinearity correction enabled: false
Boxcar width: 0
XAxis mode: Wavelengths
Number of Pixels in Spectrum: 2048
>>>>>Begin Spectral Data<<<<<
188.938	-60.27
189.409	-60.27
189.879	-60.27
190.349	-123.46
190.819	-81.33
191.29	-97.72
191.76	-165.59
192.23	-100.06
192.7	-71.97
193.17	-93.04
193.64	-64.95
194.109	-55.59
194.579	23.99
195.049	-32.18
195.519	2.93
195.988	96.55
196.458	68.46
196.927	75.48
197.397	103.57
197.866	178.47
198.336	131.66
198.805	131.66
199.274	115.27
199.744	162.08
200.213	143.36
200.682	194.85
201.151	297.83
201.62	272.09
202.089	215.91
202.558	267.41
203.027	208.89
203.495	251.02
203.964	279.11
204.433	297.83
204.902	309.54
205.37	337.62
205.839	335.28
206.307	321.24
206.776	339.96
207.244	288.47
207.712	288.47
208.181	297.83
208.649	276.77
209.117	314.22
209.585	251.02
210.053	325.92
210.521	279.11
210.989	281.45
211.457	234.64
211.925	297.83
212.393	321.24
212.861	232.3
213.328	251.02
213.796	255.7
214.264	251.02
214.731	253.36
215.199	274.43
215.666	227.62
216.133	239.32
216.601	194.85
217.068	307.2
217.535	295.49
218.003	225.28
218.47	262.73
218.937	222.94
219.404	279.11
219.871	276.77
220.338	260.38
220.805	251.02
221.271	227.62
221.738	246.34
222.205	192.51
222.671	251.02
223.138	236.98
223.605	267.41
224.071	229.96
224.538	304.85
225.004	236.98
225.47	276.77
225.937	225.28
226.403	234.64
226.869	300.17
227.335	262.73
227.801	295.49
228.267	311.88
228.733	311.88
229.199	260.38
229.665	246.34
230.131	309.54
230.597	220.6
231.062	229.96
231.528	246.34
231.994	244
232.459	279.11
232.925	234.64
233.39	286.13
233.856	314.22
234.321	251.02
234.786	255.7
235.252	274.43
235.717	267.41
236.182	253.36
236.647	241.66
237.112	206.55
237.577	342.3
238.042	253.36
238.507	382.09
238.972	232.3
239.436	288.47
239.901	304.85
240.366	297.83
240.83	297.83
241.295	218.25
241.76	288.47
242.224	272.09
242.688	260.38
243.153	222.94
243.617	290.81
244.081	213.57
244.545	293.15
245.01	330.6
245.474	293.15
245.938	269.75
246.402	307.2
246.866	244
247.33	309.54
247.793	309.54
248.257	255.7
248.721	274.43
249.185	297.83
249.648	246.34
250.112	288.47
250.575	248.68
251.039	276.77
251.502	302.51
251.965	295.49
252.429	321.24
252.892	290.81
253.355	267.41
253.818	276.77
254.281	304.85
254.744	253.36
255.207	260.38
255.67	290.81
256.133	300.17
256.596	281.45
257.059	307.2
257.522	208.89
257.984	255.7
258.447	288.47
258.909	269.75
259.372	274.43
259.834	229.96
260.297	262.73
260.759	288.47
261.221	274.43
261.684	290.81
262.146	248.68
262.608	293.15
263.07	316.56
263.532	304.85
263.994	293.15
264.456	309.54
264.918	272.09
265.38	307.2
265.842	234.64
266.303	258.04
266.765	293.15
267.227	321.24
267.688	279.11
268.15	176.13
268.611	304.85
269.072	253.36
269.534	286.13
269.995	251.02
270.456	302.51
270.918	300.17
271.379	283.79
271.84	286.13
272.301	288.47
272.762	286.13
273.223	311.88
273.684	304.85
274.144	276.77
274.605	302.51
275.066	309.54
275.527	234.64
275.987	258.04
276.448	281.45
276.908	328.26
277.369	325.92
277.829	251.02
278.289	244
278.75	265.07
279.21	265.07
279.67	297.83
280.13	335.28
280.59	307.2
281.05	318.9
281.51	300.17
281.97	358.69
282.43	302.51
282.89	255.7
283.35	255.7
283.809	288.47
284.269	286.13
284.729	332.94
285.188	290.81
285.648	300.17
286.107	246.34
286.567	379.75
287.026	314.22
287.485	297.83
287.944	227.62
288.404	258.04
288.863	272.09
289.322	290.81
289.781	265.07
290.24	253.36
290.699	281.45
291.158	265.07
291.616	274.43
292.075	281.45
292.534	269.75
292.992	288.47
293.451	314.22
293.91	300.17
294.368	302.51
294.827	255.7
295.285	321.24
295.743	356.35
296.202	293.15
296.66	300.17
297.118	300.17
297.576	309.54
298.034	330.6
298.492	314.22
298.95	255.7
299.408	269.75
299.866	330.6
300.324	276.77
300.781	323.58
301.239	332.94
301.697	260.38
302.154	314.22
302.612	290.81
303.069	346.98
303.527	262.73
303.984	246.34
304.441	262.73
304.899	293.15
305.356	307.2
305.813	279.11
306.27	314.22
306.727	288.47
307.184	323.58
307.641	288.47
308.098	251.02
308.555	253.36
309.012	307.2
309.468	337.62
309.925	274.43
310.382	293.15
310.838	297.83
311.295	321.24
311.751	279.11
312.208	211.23
312.664	300.17
313.12	265.07
313.577	328.26
314.033	307.2
314.489	323.58
314.945	316.56
315.401	262.73
315.857	293.15
316.313	330.6
316.769	295.49
317.225	288.47
317.681	297.83
318.136	323.58
318.592	337.62
319.048	304.85
319.503	255.7
319.959	288.47
320.414	337.62
320.869	218.25
321.325	314.22
321.78	318.9
322.235	316.56
322.691	241.66
323.146	309.54
323.601	356.35
324.056	339.96
324.511	311.88
324.966	377.41
325.421	349.32
325.875	246.34
326.33	346.98
326.785	272.09
327.24	290.81
327.694	337.62
328.149	342.3
328.603	302.51
329.058	279.11
329.512	349.32
329.966	265.07
330.421	290.81
330.875	323.58
331.329	260.38
331.783	267.41
332.237	365.71
332.691	297.83
333.145	323.58
333.599	302.51
334.053	281.45
334.507	363.37
334.96	251.02
335.414	332.94
335.868	323.58
336.321	297.83
336.775	307.2
337.228	269.75
337.682	276.77
338.135	300.17
338.588	288.47
339.042	255.7
339.495	293.15
339.948	295.49
340.401	246.34
340.854	302.51
341.307	300.17
341.76	309.54
342.213	309.54
342.666	267.41
343.119	314.22
343.571	325.92
344.024	274.43
344.477	251.02
344.929	309.54
345.382	318.9
345.834	260.38
346.287	370.39
346.739	269.75
347.191	307.2
347.644	307.2
348.096	293.15
348.548	314.22
349	255.7
349.452	269.75
349.904	269.75
350.356	248.68
350.808	314.22
351.26	337.62
351.711	335.28
352.163	307.2
352.615	328.26
353.066	365.71
353.518	246.34
353.969	321.24
354.421	325.92
354.872	311.88
355.324	363.37
355.775	314.22
356.226	234.64
356.677	349.32
357.128	314.22
357.579	307.2
358.03	290.81
358.481	269.75
358.932	356.35
359.383	309.54
359.834	316.56
360.285	255.7
360.735	335.28
361.186	339.96
361.637	307.2
362.087	316.56
362.538	286.13
362.988	330.6
363.438	300.17
363.889	344.64
364.339	311.88
364.789	286.13
365.239	244
365.689	325.92
366.139	316.56
366.589	328.26
367.039	304.85
367.489	321.24
367.939	307.2
368.389	325.92
368.839	274.43
369.288	258.04
369.738	276.77
370.187	288.47
370.637	358.69
371.086	290.81
371.536	309.54
371.985	304.85
372.434	302.51
372.884	337.62
373.333	321.24
373.782	288.47
374.231	342.3
374.68	281.45
375.129	311.88
375.578	300.17
376.027	344.64
376.475	267.41
376.924	307.2
377.373	300.17
377.822	293.15
378.27	307.2
378.719	332.94
379.167	344.64
379.616	335.28
380.064	272.09
380.512	311.88
380.961	281.45
381.409	321.24
381.857	339.96
382.305	325.92
382.753	248.68
383.201	311.88
383.649	272.09
384.097	318.9
384.545	288.47
384.992	318.9
385.44	300.17
385.888	349.32
386.335	368.05
386.783	283.79
387.231	368.05
387.678	293.15
388.125	286.13
388.573	272.09
389.02	318.9
389.467	351.67
389.914	290.81
390.362	318.9
390.809	236.98
391.256	241.66
391.703	314.22
392.15	349.32
392.596	321.24
393.043	314.22
393.49	311.88
393.937	281.45
394.383	337.62
394.83	332.94
395.276	342.3
395.723	281.45
396.169	269.75
396.616	288.47
397.062	389.11
397.508	361.03
397.954	293.15
398.401	344.64
398.847	354.01
399.293	295.49
399.739	276.77
400.185	314.22
400.631	274.43
401.076	330.6
401.522	318.9
401.968	361.03
402.414	290.81
402.859	314.22
403.305	361.03
403.75	354.01
404.196	300.17
404.641	311.88
405.086	328.26
405.532	351.67
405.977	325.92
406.422	316.56
406.867	346.98
407.312	344.64
407.757	309.54
408.202	297.83
408.647	279.11
409.092	283.79
409.537	251.02
409.982	297.83
410.426	330.6
410.871	293.15
411.316	337.62
411.76	321.24
412.205	288.47
412.649	281.45
413.093	314.22
413.538	293.15
413.982	328.26
414.426	302.51
414.87	293.15
415.314	300.17
415.758	215.91
416.202	293.15
416.646	262.73
417.09	342.3
417.534	339.96
417.978	302.51
418.421	323.58
418.865	288.47
419.309	248.68
419.752	342.3
420.196	267.41
420.639	309.54
421.083	339.96
421.526	361.03
421.969	318.9
422.412	379.75
422.856	293.15
423.299	328.26
423.742	314.22
424.185	339.96
424.628	267.41
425.071	370.39
425.513	354.01
425.956	342.3
426.399	295.49
426.842	375.07
427.284	314.22
427.727	307.2
428.169	267.41
428.612	281.45
429.054	293.15
429.497	267.41
429.939	316.56
430.381	262.73
430.823	433.58
431.265	323.58
431.707	323.58
432.149	283.79
432.591	330.6
433.033	286.13
433.475	314.22
433.917	276.77
434.359	318.9
434.8	286.13
435.242	281.45
435.684	295.49
436.125	370.39
436.567	349.32
437.008	314.22
437.449	288.47
437.891	281.45
438.332	281.45
438.773	290.81
439.214	286.13
439.656	321.24
440.097	316.56
440.538	358.69
440.978	251.02
441.419	272.09
441.86	304.85
442.301	330.6
442.742	304.85
443.182	311.88
443.623	293.15
444.063	300.17
444.504	267.41
444.944	281.45
445.385	272.09
445.825	295.49
446.265	288.47
446.706	351.67
447.146	344.64
447.586	297.83
448.026	337.62
448.466	283.79
448.906	346.98
449.346	297.83
449.786	302.51
450.225	349.32
450.665	421.88
451.105	311.88
451.544	321.24
451.984	328.26
452.424	337.62
452.863	265.07
453.302	361.03
453.742	309.54
454.181	302.51
454.62	241.66
455.059	332.94
455.499	267.41
455.938	339.96
456.377	244
456.816	335.28
457.254	248.68
457.693	346.98
458.132	328.26
458.571	358.69
459.01	368.05
459.448	286.13
459.887	354.01
460.325	283.79
460.764	389.11
461.202	286.13
461.641	332.94
462.079	316.56
462.517	286.13
462.955	309.54
463.393	295.49
463.832	332.94
464.27	410.18
464.708	290.81
465.145	349.32
465.583	365.71
466.021	384.43
466.459	344.64
466.897	377.41
467.334	304.85
467.772	311.88
468.209	255.7
468.647	354.01
469.084	281.45
469.522	318.9
469.959	239.32
470.396	323.58
470.833	260.38
471.271	302.51
471.708	279.11
472.145	351.67
472.582	318.9
473.019	363.37
473.456	258.04
473.892	227.62
474.329	281.45
474.766	386.77
475.202	293.15
475.639	361.03
476.076	356.35
476.512	335.28
476.949	328.26
477.385	309.54
477.821	332.94
478.258	344.64
478.694	354.01
479.13	297.83
479.566	325.92
480.002	300.17
480.438	246.34
480.874	349.32
481.31	419.54
481.746	344.64
482.181	335.28
482.617	239.32
483.053	286.13
483.488	297.83
483.924	321.24
484.36	339.96
484.795	351.67
485.23	290.81
485.666	307.2
486.101	346.98
486.536	281.45
486.971	332.94
487.407	251.02
487.842	330.6
488.277	274.43
488.712	269.75
489.146	304.85
489.581	321.24
490.016	262.73
490.451	318.9
490.885	368.05
491.32	318.9
491.755	337.62
492.189	279.11
492.624	316.56
493.058	351.67
493.492	321.24
493.927	293.15
494.361	354.01
494.795	297.83
495.229	365.71
495.663	309.54
496.097	304.85
496.531	288.47
496.965	339.96
497.399	325.92
497.833	293.15
498.266	342.3
498.7	377.41
499.134	351.67
499.567	377.41
500.001	346.98
500.434	267.41
500.868	276.77
501.301	351.67
501.734	309.54
502.168	349.32
502.601	365.71
503.034	244
503.467	328.26
503.9	260.38
504.333	365.71
504.766	297.83
505.199	339.96
505.632	269.75
506.064	293.15
506.497	325.92
506.93	307.2
507.362	290.81
507.795	293.15
508.227	384.43
508.66	330.6
509.092	311.88
509.524	335.28
509.956	389.11
510.389	274.43
510.821	244
511.253	346.98
511.685	274.43
512.117	300.17
512.549	323.58
512.981	279.11
513.412	321.24
513.844	267.41
514.276	246.34
514.707	290.81
515.139	339.96
515.571	272.09
516.002	244
516.433	276.77
516.865	288.47
517.296	281.45
517.727	274.43
518.159	307.2
518.59	351.67
519.021	311.88
519.452	302.51
519.883	314.22
520.314	302.51
520.744	337.62
521.175	389.11
521.606	304.85
522.037	281.45
522.467	309.54
522.898	325.92
523.328	304.85
523.759	356.35
524.189	316.56
524.62	302.51
525.05	297.83
525.48	342.3
525.91	265.07
526.341	283.79
526.771	361.03
527.201	255.7
527.631	267.41
528.061	365.71
528.49	286.13
528.92	337.62
529.35	370.39
529.78	314.22
530.209	307.2
530.639	314.22
531.068	321.24
531.498	276.77
531.927	328.26
532.357	325.92
532.786	309.54
533.215	267.41
533.644	304.85
534.074	302.51
534.503	255.7
534.932	316.56
535.361	361.03
535.79	309.54
536.218	370.39
536.647	379.75
537.076	377.41
537.505	309.54
537.933	311.88
538.362	318.9
538.79	262.73
539.219	332.94
539.647	339.96
540.076	258.04
540.504	386.77
540.932	344.64
541.36	300.17
541.788	393.8
542.217	346.98
542.645	328.26
543.073	419.54
543.5	297.83
543.928	321.24
544.356	325.92
544.784	283.79
545.211	307.2
545.639	325.92
546.067	351.67
546.494	325.92
546.922	356.35
547.349	321.24
547.776	316.56
548.204	332.94
548.631	368.05
549.058	335.28
549.485	290.81
549.912	265.07
550.339	318.9
550.766	356.35
551.193	400.82
551.62	255.7
552.047	286.13
552.474	274.43
552.9	246.34
553.327	325.92
553.754	304.85
554.18	328.26
554.607	225.28
555.033	286.13
555.459	349.32
555.886	370.39
556.312	358.69
556.738	311.88
557.164	314.22
557.59	356.35
558.016	295.49
558.442	323.58
558.868	281.45
559.294	314.22
559.72	330.6
560.145	304.85
560.571	412.52
560.997	363.37
561.422	328.26
561.848	272.09
562.273	342.3
562.699	354.01
563.124	330.6
563.549	316.56
563.974	302.51
564.4	351.67
564.825	316.56
565.25	318.9
565.675	339.96
566.1	304.85
566.525	323.58
566.95	288.47
567.374	339.96
567.799	332.94
568.224	286.13
568.648	295.49
569.073	311.88
569.497	337.62
569.922	281.45
570.346	328.26
570.771	300.17
571.195	323.58
571.619	279.11
572.043	321.24
572.467	307.2
572.891	307.2
573.315	300.17
573.739	368.05
574.163	314.22
574.587	325.92
575.011	311.88
575.435	325.92
575.858	318.9
576.282	318.9
576.705	302.51
577.129	267.41
577.552	288.47
577.976	339.96
578.399	283.79
578.822	281.45
579.245	328.26
579.669	354.01
580.092	332.94
580.515	365.71
580.938	236.98
581.361	344.64
581.784	269.75
582.206	295.49
582.629	279.11
583.052	290.81
583.474	251.02
583.897	349.32
584.32	332.94
584.742	269.75
585.165	255.7
585.587	316.56
586.009	337.62
586.431	318.9
586.854	274.43
587.276	323.58
587.698	293.15
588.12	302.51
588.542	316.56
588.964	281.45
589.386	318.9
589.807	314.22
590.229	318.9
590.651	335.28
591.073	321.24
591.494	339.96
591.916	304.85
592.337	311.88
592.759	344.64
593.18	290.81
593.601	300.17
594.022	332.94
594.444	295.49
594.865	269.75
595.286	302.51
595.707	307.2
596.128	365.71
596.549	328.26
596.97	325.92
597.39	267.41
597.811	325.92
598.232	251.02
598.652	241.66
599.073	325.92
599.494	229.96
599.914	321.24
600.334	368.05
600.755	344.64
601.175	307.2
601.595	276.77
602.015	281.45
602.436	300.17
602.856	447.63
603.276	307.2
603.696	328.26
604.115	311.88
604.535	311.88
604.955	297.83
605.375	330.6
605.794	251.02
606.214	258.04
606.634	300.17
607.053	330.6
607.473	314.22
607.892	260.38
608.311	361.03
608.731	288.47
609.15	328.26
609.569	309.54
609.988	307.2
610.407	337.62
610.826	283.79
611.245	302.51
611.664	377.41
612.083	297.83
612.501	339.96
612.92	370.39
613.339	272.09
613.757	356.35
614.176	302.51
614.594	258.04
615.013	328.26
615.431	288.47
615.85	260.38
616.268	300.17
616.686	314.22
617.104	321.24
617.522	274.43
617.94	213.57
618.358	302.51
618.776	309.54
619.194	304.85
619.612	276.77
620.03	307.2
620.447	318.9
620.865	269.75
621.282	309.54
621.7	323.58
622.117	302.51
622.535	321.24
622.952	335.28
623.369	311.88
623.787	318.9
624.204	295.49
624.621	262.73
625.038	269.75
625.455	304.85
625.872	279.11
626.289	262.73
626.706	269.75
627.123	391.45
627.539	304.85
627.956	232.3
628.373	288.47
628.789	339.96
629.206	321.24
629.622	262.73
630.038	372.73
630.455	302.51
630.871	309.54
631.287	272.09
631.703	288.47
632.12	307.2
632.536	351.67
632.952	297.83
633.368	279.11
633.783	269.75
634.199	293.15
634.615	342.3
635.031	283.79
635.446	283.79
635.862	344.64
636.277	314.22
636.693	346.98
637.108	286.13
637.524	332.94
637.939	368.05
638.354	215.91
638.77	321.24
639.185	253.36
639.6	286.13
640.015	286.13
640.43	311.88
640.845	281.45
641.259	330.6
641.674	234.64
642.089	304.85
642.504	332.94
642.918	307.2
643.333	375.07
643.747	316.56
644.162	244
644.576	304.85
644.991	279.11
645.405	311.88
645.819	325.92
646.233	288.47
646.647	323.58
647.061	335.28
647.475	337.62
647.889	321.24
648.303	354.01
648.717	346.98
649.131	283.79
649.545	288.47
649.958	328.26
650.372	358.69
650.785	260.38
651.199	328.26
651.612	330.6
652.026	339.96
652.439	375.07
652.852	288.47
653.266	274.43
653.679	318.9
654.092	267.41
654.505	288.47
654.918	269.75
655.331	276.77
655.744	330.6
656.156	370.39
656.569	293.15
656.982	330.6
657.394	286.13
657.807	342.3
658.22	314.22
658.632	332.94
659.044	276.77
659.457	286.13
659.869	370.39
660.281	295.49
660.693	248.68
661.106	337.62
661.518	323.58
661.93	337.62
662.342	258.04
662.754	342.3
663.165	382.09
663.577	337.62
663.989	330.6
664.401	351.67
664.812	272.09
665.224	288.47
665.635	274.43
666.047	304.85
666.458	351.67
666.869	339.96
667.281	321.24
667.692	351.67
668.103	267.41
668.514	342.3
668.925	276.77
669.336	351.67
669.747	314.22
670.158	318.9
670.569	304.85
670.979	346.98
671.39	281.45
671.801	342.3
672.211	311.88
672.622	318.9
673.032	321.24
673.443	344.64
673.853	276.77
674.263	318.9
674.674	349.32
675.084	328.26
675.494	316.56
675.904	304.85
676.314	311.88
676.724	361.03
677.134	274.43
677.544	311.88
677.953	314.22
678.363	295.49
678.773	389.11
679.182	365.71
679.592	332.94
680.001	365.71
680.411	304.85
680.82	276.77
681.23	297.83
681.639	332.94
682.048	358.69
682.457	309.54
682.866	290.81
683.275	325.92
683.684	318.9
684.093	309.54
684.502	321.24
684.911	283.79
685.32	354.01
685.728	307.2
686.137	302.51
686.546	304.85
686.954	342.3
687.363	302.51
687.771	265.07
688.179	328.26
688.588	267.41
688.996	328.26
689.404	318.9
689.812	361.03
690.22	321.24
690.628	314.22
691.036	311.88
691.444	339.96
691.852	328.26
692.26	337.62
692.667	248.68
693.075	314.22
693.483	309.54
693.89	288.47
694.298	311.88
694.705	356.35
695.112	361.03
695.52	307.2
695.927	363.37
696.334	351.67
696.741	293.15
697.148	290.81
697.555	311.88
697.962	354.01
698.369	267.41
698.776	304.85
699.183	279.11
699.59	328.26
699.996	349.32
700.403	323.58
700.81	281.45
701.216	307.2
701.623	293.15
702.029	337.62
702.435	361.03
702.842	354.01
703.248	246.34
703.654	286.13
704.06	325.92
704.466	281.45
704.872	265.07
705.278	351.67
705.684	262.73
706.09	321.24
706.496	339.96
706.901	290.81
707.307	272.09
707.712	283.79
708.118	314.22
708.523	356.35
708.929	311.88
709.334	335.28
709.74	332.94
710.145	337.62
710.55	302.51
710.955	361.03
711.36	307.2
711.765	234.64
712.17	335.28
712.575	258.04
712.98	885.31
713.385	372.73
713.789	377.41
714.194	344.64
714.599	342.3
715.003	276.77
715.408	283.79
715.812	286.13
716.217	288.47
716.621	314.22
717.025	262.73
717.429	314.22
717.833	304.85
718.238	354.01
718.642	346.98
719.046	372.73
719.449	356.35
719.853	276.77
720.257	386.77
720.661	279.11
721.065	260.38
721.468	279.11
721.872	244
722.275	239.32
722.679	358.69
723.082	279.11
723.485	269.75
723.889	255.7
724.292	281.45
724.695	323.58
725.098	269.75
725.501	321.24
725.904	309.54
726.307	288.47
726.71	258.04
727.113	302.51
727.516	318.9
727.918	325.92
728.321	339.96
728.724	300.17
729.126	328.26
729.529	330.6
729.931	354.01
730.333	290.81
730.736	302.51
731.138	279.11
731.54	281.45
731.942	330.6
732.344	363.37
732.746	304.85
733.148	302.51
733.55	344.64
733.952	281.45
734.354	260.38
734.756	300.17
735.157	314.22
735.559	321.24
735.96	344.64
736.362	339.96
736.763	307.2
737.165	304.85
737.566	323.58
737.967	293.15
738.368	314.22
738.77	302.51
739.171	351.67
739.572	295.49
739.973	351.67
740.374	342.3
740.774	304.85
741.175	286.13
741.576	318.9
741.977	323.58
742.377	258.04
742.778	309.54
743.178	328.26
743.579	293.15
743.979	318.9
744.379	318.9
744.78	311.88
745.18	302.51
745.58	290.81
745.98	316.56
746.38	311.88
746.78	290.81
747.18	351.67
747.58	255.7
747.98	265.07
748.38	304.85
748.779	339.96
749.179	361.03
749.578	286.13
749.978	351.67
750.377	318.9
750.777	351.67
751.176	295.49
751.575	295.49
751.975	281.45
752.374	302.51
752.773	314.22
753.172	295.49
753.571	361.03
753.97	325.92
754.369	276.77
754.768	281.45
755.166	342.3
755.565	351.67
755.964	288.47
756.362	332.94
756.761	307.2
757.159	304.85
757.558	332.94
757.956	302.51
758.354	258.04
758.753	321.24
759.151	272.09
759.549	286.13
759.947	314.22
760.345	318.9
760.743	272.09
761.141	311.88
761.539	342.3
761.936	337.62
762.334	311.88
762.732	335.28
763.129	286.13
763.527	272.09
763.924	316.56
764.322	267.41
764.719	311.88
765.117	389.11
765.514	354.01
765.911	325.92
766.308	342.3
766.705	337.62
767.102	342.3
767.499	302.51
767.896	316.56
768.293	351.67
768.69	330.6
769.086	276.77
769.483	300.17
769.88	283.79
770.276	328.26
770.673	323.58
771.069	295.49
771.466	279.11
771.862	337.62
772.258	316.56
772.654	332.94
773.05	304.85
773.447	297.83
773.843	279.11
774.239	269.75
774.634	290.81
775.03	248.68
775.426	302.51
775.822	316.56
776.218	321.24
776.613	255.7
777.009	295.49
777.404	304.85
777.8	316.56
778.195	393.8
778.59	248.68
778.986	309.54
779.381	290.81
779.776	283.79
780.171	302.51
780.566	356.35
780.961	279.11
781.356	307.2
781.751	281.45
782.146	258.04
782.54	279.11
782.935	307.2
783.33	293.15
783.724	316.56
784.119	309.54
784.513	302.51
784.908	339.96
785.302	286.13
785.696	297.83
786.09	311.88
786.485	365.71
786.879	290.81
787.273	342.3
787.667	283.79
788.061	295.49
788.454	339.96
788.848	307.2
789.242	351.67
789.636	244
790.029	309.54
790.423	323.58
790.816	222.94
791.21	267.41
791.603	330.6
791.997	339.96
792.39	295.49
792.783	283.79
793.176	295.49
793.569	337.62
793.962	300.17
794.355	309.54
794.748	351.67
795.141	290.81
795.534	236.98
795.927	274.43
796.319	363.37
796.712	318.9
797.105	368.05
797.497	318.9
797.89	342.3
798.282	316.56
798.674	349.32
799.067	248.68
799.459	321.24
799.851	356.35
800.243	311.88
800.635	328.26
801.027	276.77
801.419	332.94
801.811	293.15
802.203	272.09
802.594	279.11
802.986	346.98
803.378	309.54
803.769	276.77
804.161	316.56
804.552	339.96
804.944	246.34
805.335	307.2
805.726	267.41
806.118	265.07
806.509	290.81
806.9	318.9
807.291	279.11
807.682	314.22
808.073	272.09
808.464	241.66
808.855	330.6
809.245	335.28
809.636	309.54
810.027	208.89
810.417	288.47
810.808	356.35
811.198	307.2
811.589	344.64
811.979	276.77
812.369	297.83
812.759	302.51
813.15	316.56
813.54	368.05
813.93	248.68
814.32	339.96
814.71	295.49
815.1	283.79
815.489	290.81
815.879	281.45
816.269	318.9
816.658	258.04
817.048	342.3
817.438	349.32
817.827	293.15
818.216	311.88
818.606	332.94
818.995	276.77
819.384	286.13
819.773	337.62
820.163	323.58
820.552	253.36
820.941	276.77
821.33	328.26
821.718	260.38
822.107	318.9
822.496	283.79
822.885	290.81
823.273	349.32
823.662	368.05
824.05	307.2
824.439	328.26
824.827	325.92
825.216	309.54
825.604	281.45
825.992	400.82
826.38	321.24
826.768	218.25
827.156	339.96
827.544	349.32
827.932	302.51
828.32	281.45
828.708	286.13
829.096	318.9
829.483	356.35
829.871	328.26
830.259	330.6
830.646	346.98
831.034	194.85
831.421	283.79
831.808	288.47
832.196	342.3
832.583	321.24
832.97	335.28
833.357	346.98
833.744	321.24
834.131	323.58
834.518	276.77
834.905	241.66
835.292	269.75
835.678	206.55
836.065	295.49
836.452	342.3
836.838	279.11
837.225	358.69
837.611	316.56
837.998	276.77
838.384	346.98
838.77	288.47
839.157	304.85
839.543	255.7
839.929	323.58
840.315	377.41
840.701	279.11
841.087	286.13
841.473	379.75
841.858	253.36
842.244	314.22
842.63	363.37
843.015	328.26
843.401	534.23
843.787	288.47
844.172	309.54
844.557	288.47
844.943	372.73
845.328	358.69
845.713	274.43
846.098	325.92
846.483	325.92
846.868	335.28
847.253	342.3
847.638	323.58
848.023	297.83
848.408	288.47
848.793	321.24
849.177	234.64
849.562	304.85
849.947	339.96
850.331	274.43
850.715	342.3
851.1	288.47
851.484	370.39
851.868	346.98
852.253	258.04
852.637	276.77
853.021	358.69
853.405	361.03
853.789	297.83
854.173	290.81
854.557	342.3
854.94	281.45
855.324	365.71
855.708	288.47
856.091	316.56
856.475	276.77
856.858	279.11
857.242	330.6
857.625	302.51
858.009	269.75
858.392	304.85
858.775	307.2
859.158	276.77
859.541	309.54
859.924	311.88
860.307	300.17
860.69	316.56
861.073	286.13
861.456	232.3
861.838	314.22
862.221	279.11
862.604	232.3
862.986	276.77
863.369	274.43
863.751	286.13
864.133	269.75
864.516	246.34
864.898	262.73
865.28	342.3
865.662	328.26
866.044	302.51
866.426	295.49
866.808	349.32
867.19	384.43
867.572	297.83
867.954	290.81
868.336	318.9
868.717	290.81
869.099	368.05
869.48	302.51
869.862	311.88
870.243	325.92
870.625	288.47
871.006	220.6
871.387	286.13
871.768	272.09
872.149	307.2
872.53	251.02
872.911	286.13
873.292	328.26
873.673	222.94
874.054	241.66
874.435	288.47
874.815	286.13
875.196	241.66
875.577	241.66
875.957	354.01
876.338	260.38
876.718	286.13
877.098	321.24
877.479	279.11
877.859	344.64
878.239	307.2
878.619	253.36
878.999	290.81
879.379	349.32
879.759	316.56
880.139	255.7
880.519	363.37
880.898	307.2
881.278	337.62
881.658	274.43
882.037	295.49
882.417	232.3
882.796	265.07
883.176	251.02
883.555	248.68
883.934	295.49
884.313	344.64
884.693	342.3
885.072	297.83
885.451	318.9
885.83	295.49
886.209	307.2
886.587	272.09
886.966	302.51
887.345	311.88
887.724	318.9
888.102	330.6
888.481	279.11
888.859	262.73
889.238	323.58
889.616	288.47
889.994	300.17
890.373	288.47
890.751	302.51
891.129	370.39
891.507	279.11
891.885	325.92
892.263	321.24
892.641	286.13
893.019	258.04
893.396	297.83
893.774	255.7
894.152	276.77
894.529	267.41
894.907	295.49
895.284	293.15
895.662	356.35
896.039	248.68
896.416	332.94
896.794	262.73
897.171	267.41
897.548	293.15
897.925	323.58
898.302	295.49
898.679	297.83
899.056	281.45
899.433	337.62
899.809	276.77
900.186	281.45
900.563	302.51
900.939	260.38
901.316	316.56
901.692	262.73
902.069	330.6
902.445	314.22
902.821	316.56
903.197	339.96
903.574	311.88
903.95	225.28
904.326	314.22
904.702	311.88
905.078	258.04
905.454	295.49
905.829	311.88
906.205	272.09
906.581	248.68
906.956	365.71
907.332	300.17
907.707	309.54
908.083	251.02
908.458	276.77
908.833	204.21
909.209	391.45
909.584	339.96
909.959	325.92
910.334	290.81
910.709	316.56
911.084	349.32
911.459	332.94
911.834	255.7
912.209	293.15
912.583	330.6
912.958	295.49
913.333	253.36
913.707	295.49
914.082	351.67
914.456	328.26
914.83	323.58
915.205	335.28
915.579	304.85
915.953	290.81
916.327	283.79
916.701	309.54
917.075	349.32
917.449	304.85
917.823	265.07
918.197	295.49
918.571	339.96
918.944	272.09
919.318	337.62
919.692	290.81
920.065	272.09
920.438	314.22
920.812	255.7
921.185	293.15
921.558	307.2
921.932	274.43
922.305	389.11
922.678	258.04
923.051	342.3
923.424	269.75
923.797	290.81
924.17	337.62
924.542	300.17
924.915	309.54
925.288	316.56
925.661	265.07
926.033	297.83
926.406	283.79
926.778	293.15
927.15	297.83
927.523	318.9
927.895	316.56
928.267	295.49
928.639	309.54
929.011	316.56
929.383	269.75
929.755	316.56
930.127	361.03
930.499	246.34
930.871	307.2
931.242	274.43
931.614	260.38
931.986	318.9
932.357	328.26
932.729	302.51
933.1	323.58
933.471	330.6
933.843	316.56
934.214	246.34
934.585	365.71
934.956	332.94
935.327	276.77
935.698	344.64
936.069	346.98
936.44	335.28
936.811	304.85
937.182	267.41
937.552	251.02
937.923	293.15
938.293	297.83
938.664	328.26
939.034	267.41
939.405	405.5
939.775	337.62
940.145	349.32
940.516	335.28
940.886	262.73
941.256	346.98
941.626	344.64
941.996	309.54
942.366	265.07
942.735	297.83
943.105	325.92
943.475	283.79
943.845	302.51
944.214	290.81
944.584	344.64
944.953	325.92
945.323	337.62
945.692	286.13
946.061	321.24
946.43	307.2
946.8	293.15
947.169	339.96
947.538	262.73
947.907	286.13
948.276	339.96
948.645	309.54
949.013	314.22
949.382	382.09
949.751	304.85
950.119	248.68
950.488	307.2
950.857	304.85
951.225	283.79
951.593	267.41
951.962	281.45
952.33	283.79
952.698	328.26
953.066	318.9
953.434	332.94
953.802	241.66
954.17	328.26
954.538	302.51
954.906	302.51
955.274	342.3
955.642	302.51
956.009	358.69
956.377	267.41
956.744	323.58
957.112	286.13
957.479	272.09
957.847	272.09
958.214	276.77
958.581	351.67
958.948	304.85
959.315	255.7
959.683	363.37
960.05	262.73
960.416	323.58
960.783	253.36
961.15	314.22
961.517	293.15
961.884	283.79
962.25	342.3
962.617	339.96
962.983	309.54
963.35	309.54
963.716	332.94
964.082	286.13
964.449	276.77
964.815	302.51
965.181	330.6
965.547	272.09
965.913	300.17
966.279	286.13
966.645	309.54
967.011	234.64
967.377	255.7
967.742	316.56
968.108	328.26
968.474	358.69
968.839	293.15
969.205	337.62
969.57	283.79
969.935	335.28
970.301	323.58
970.666	295.49
971.031	297.83
971.396	272.09
971.761	283.79
972.126	337.62
972.491	365.71
972.856	274.43
973.221	339.96
973.586	300.17
973.95	260.38
974.315	368.05
974.679	332.94
975.044	248.68
975.408	358.69
975.773	339.96
976.137	276.77
976.501	314.22
976.866	309.54
977.23	276.77
977.594	361.03
977.958	346.98
978.322	337.62
978.686	293.15
979.049	295.49
979.413	318.9
979.777	302.51
980.141	339.96
980.504	370.39
980.868	276.77
981.231	307.2
981.595	258.04
981.958	356.35
982.321	286.13
982.684	290.81
983.048	344.64
983.411	323.58
983.774	339.96
984.137	267.41
984.5	283.79
984.862	316.56
985.225	332.94
985.588	239.32
985.951	286.13
986.313	346.98
986.676	274.43
987.038	309.54
987.401	276.77
987.763	304.85
988.125	311.88
988.488	356.35
988.85	321.24
989.212	346.98
989.574	342.3
989.936	262.73
990.298	344.64
990.66	309.54
991.022	330.6
991.383	295.49
991.745	297.83
992.107	241.66
992.468	293.15
992.83	300.17
993.191	314.22
993.553	274.43
993.914	372.73
994.275	253.36
994.637	274.43
994.998	300.17
995.359	244
995.72	321.24
996.081	307.2
996.442	337.62
996.803	293.15
997.163	260.38
997.524	337.62
997.885	307.2
998.245	246.34
998.606	262.73
998.966	279.11
999.327	307.2
999.687	246.34
1000.047	318.9
1000.408	311.88
1000.768	246.34
1001.128	325.92
1001.488	323.58
1001.848	339.96
1002.208	272.09
1002.568	304.85
1002.927	302.51
1003.287	314.22
1003.647	295.49
1004.007	321.24
1004.366	258.04
1004.726	304.85
1005.085	370.39
1005.444	351.67
1005.804	337.62
1006.163	337.62
1006.522	267.41
1006.881	295.49
1007.24	393.8
1007.599	307.2
1007.958	321.24
1008.317	262.73
1008.676	267.41
1009.035	358.69
1009.393	330.6
1009.752	314.22
1010.111	321.24
1010.469	314.22
1010.828	267.41
1011.186	337.62
1011.544	323.58
1011.903	295.49
1012.261	314.22
1012.619	314.22
1012.977	302.51
1013.335	211.23
1013.693	244
1014.051	328.26
1014.409	239.32
1014.767	328.26
1015.124	248.68
1015.482	297.83
1015.84	283.79
1016.197	342.3
1016.555	251.02
1016.912	286.13
1017.269	307.2
1017.627	286.13
1017.984	267.41
1018.341	236.98
1018.698	286.13
1019.055	307.2
1019.412	286.13
1019.769	332.94
1020.126	290.81
1020.483	258.04
1020.84	283.79
1021.196	351.67
1021.553	290.81
1021.909	297.83
1022.266	323.58
1022.622	258.04
1022.979	403.16
1023.335	325.92
1023.691	260.38
1024.047	342.3
1024.404	323.58
1024.76	321.24
1025.116	307.2
1025.472	391.45
1025.827	304.85
1026.183	253.36
1026.539	267.41
1026.895	344.64
1027.25	274.43
1027.606	332.94
1027.961	283.79
1028.317	239.32
1028.672	293.15
1029.028	262.73
1029.383	272.09
1029.738	281.45
1030.093	286.13
1030.448	337.62
1030.803	349.32
1031.158	335.28
1031.513	307.2
1031.868	253.36
1032.223	288.47
1032.577	300.17
1032.932	269.75
1033.287	269.75
1033.641	396.14
1033.996	311.88
1034.35	279.11
1034.704	316.56
1035.059	307.2
1035.413	295.49
1035.767	295.49
1036.121	295.49
