Data from Al_FLMS009871__711__15-09-05-836.txt Node

Date: Fri Mar 08 15:09:05 CST 2024
User: pe5414po
Spectrometer: FLMS00987
Trigger mode: 0
Integration Time (sec): 1.000000E-1
Scans to average: 1
Electric dark correction enabled: true
Nonlinearity correction enabled: false
Boxcar width: 0
XAxis mode: Wavelengths
Number of Pixels in Spectrum: 2048
>>>>>Begin Spectral Data<<<<<
188.938	-134.14
189.409	-134.14
189.879	-134.14
190.349	-120.1
190.819	-96.69
191.29	-150.53
191.76	-127.12
192.23	-68.61
192.7	-152.87
193.17	-42.86
193.64	29.7
194.109	-38.18
194.579	8.63
195.049	22.67
195.519	-38.18
195.988	34.38
196.458	57.78
196.927	142.04
197.397	144.38
197.866	113.95
198.336	64.8
198.805	142.04
199.274	235.66
199.744	181.83
200.213	170.13
200.682	249.71
201.151	226.3
201.62	207.58
202.089	247.37
202.558	282.47
203.027	256.73
203.495	235.66
203.964	259.07
204.433	256.73
204.902	277.79
205.37	294.18
205.839	282.47
206.307	294.18
206.776	275.45
207.244	326.94
207.712	317.58
208.181	273.11
208.649	355.03
209.117	322.26
209.585	282.47
210.053	296.52
210.521	348.01
210.989	259.07
211.457	247.37
211.925	301.2
212.393	308.22
212.861	273.11
213.328	350.35
213.796	256.73
214.264	296.52
214.731	310.56
215.199	287.15
215.666	308.22
216.133	256.73
216.601	280.13
217.068	310.56
217.535	270.77
218.003	343.33
218.47	294.18
218.937	282.47
219.404	249.71
219.871	301.2
220.338	256.73
220.805	266.09
221.271	287.15
221.738	289.5
222.205	301.2
222.671	256.73
223.138	340.99
223.605	331.62
224.071	230.98
224.538	277.79
225.004	266.09
225.47	289.5
225.937	322.26
226.403	191.19
226.869	303.54
227.335	261.41
227.801	259.07
228.267	340.99
228.733	284.81
229.199	233.32
229.665	291.84
230.131	303.54
230.597	275.45
231.062	280.13
231.528	240.34
231.994	259.07
232.459	209.92
232.925	242.68
233.39	249.71
233.856	303.54
234.321	252.05
234.786	270.77
235.252	319.92
235.717	275.45
236.182	270.77
236.647	319.92
237.112	249.71
237.577	305.88
238.042	280.13
238.507	245.02
238.972	249.71
239.436	266.09
239.901	275.45
240.366	263.75
240.83	315.24
241.295	270.77
241.76	261.41
242.224	280.13
242.688	287.15
243.153	256.73
243.617	263.75
244.081	245.02
244.545	282.47
245.01	266.09
245.474	303.54
245.938	305.88
246.402	273.11
246.866	282.47
247.33	223.96
247.793	256.73
248.257	280.13
248.721	296.52
249.185	282.47
249.648	249.71
250.112	350.35
250.575	230.98
251.039	345.67
251.502	287.15
251.965	242.68
252.429	294.18
252.892	303.54
253.355	333.97
253.818	242.68
254.281	352.69
254.744	247.37
255.207	294.18
255.67	331.62
256.133	287.15
256.596	350.35
257.059	284.81
257.522	294.18
257.984	266.09
258.447	280.13
258.909	247.37
259.372	256.73
259.834	312.9
260.297	270.77
260.759	287.15
261.221	219.28
261.684	270.77
262.146	256.73
262.608	343.33
263.07	308.22
263.532	322.26
263.994	268.43
264.456	233.32
264.918	317.58
265.38	343.33
265.842	280.13
266.303	298.86
266.765	329.28
267.227	338.65
267.688	289.5
268.15	254.39
268.611	277.79
269.072	310.56
269.534	310.56
269.995	343.33
270.456	333.97
270.918	270.77
271.379	319.92
271.84	301.2
272.301	270.77
272.762	336.31
273.223	282.47
273.684	338.65
274.144	301.2
274.605	338.65
275.066	362.05
275.527	263.75
275.987	310.56
276.448	245.02
276.908	296.52
277.369	345.67
277.829	282.47
278.289	329.28
278.75	287.15
279.21	308.22
279.67	291.84
280.13	338.65
280.59	296.52
281.05	280.13
281.51	315.24
281.97	268.43
282.43	310.56
282.89	242.68
283.35	291.84
283.809	223.96
284.269	280.13
284.729	245.02
285.188	305.88
285.648	366.73
286.107	385.46
286.567	343.33
287.026	352.69
287.485	289.5
287.944	310.56
288.404	305.88
288.863	369.07
289.322	373.75
289.781	282.47
290.24	333.97
290.699	294.18
291.158	252.05
291.616	305.88
292.075	245.02
292.534	289.5
292.992	275.45
293.451	287.15
293.91	289.5
294.368	254.39
294.827	310.56
295.285	275.45
295.743	364.39
296.202	329.28
296.66	291.84
297.118	315.24
297.576	364.39
298.034	380.78
298.492	291.84
298.95	277.79
299.408	336.31
299.866	315.24
300.324	261.41
300.781	230.98
301.239	308.22
301.697	329.28
302.154	303.54
302.612	329.28
303.069	298.86
303.527	343.33
303.984	348.01
304.441	294.18
304.899	287.15
305.356	315.24
305.813	233.32
306.27	310.56
306.727	312.9
307.184	322.26
307.641	289.5
308.098	343.33
308.555	315.24
309.012	284.81
309.468	238
309.925	315.24
310.382	256.73
310.838	256.73
311.295	322.26
311.751	298.86
312.208	326.94
312.664	280.13
313.12	261.41
313.577	355.03
314.033	273.11
314.489	296.52
314.945	291.84
315.401	343.33
315.857	287.15
316.313	380.78
316.769	270.77
317.225	305.88
317.681	289.5
318.136	298.86
318.592	233.32
319.048	343.33
319.503	326.94
319.959	348.01
320.414	291.84
320.869	291.84
321.325	326.94
321.78	315.24
322.235	315.24
322.691	362.05
323.146	273.11
323.601	254.39
324.056	336.31
324.511	303.54
324.966	308.22
325.421	333.97
325.875	216.94
326.33	296.52
326.785	284.81
327.24	310.56
327.694	369.07
328.149	376.09
328.603	322.26
329.058	284.81
329.512	282.47
329.966	308.22
330.421	399.5
330.875	345.67
331.329	345.67
331.783	296.52
332.237	324.6
332.691	303.54
333.145	333.97
333.599	287.15
334.053	228.64
334.507	312.9
334.96	345.67
335.414	378.44
335.868	303.54
336.321	275.45
336.775	345.67
337.228	291.84
337.682	298.86
338.135	303.54
338.588	331.62
339.042	301.2
339.495	263.75
339.948	333.97
340.401	326.94
340.854	270.77
341.307	357.37
341.76	310.56
342.213	340.99
342.666	296.52
343.119	282.47
343.571	310.56
344.024	301.2
344.477	317.58
344.929	331.62
345.382	319.92
345.834	319.92
346.287	343.33
346.739	296.52
347.191	275.45
347.644	315.24
348.096	343.33
348.548	303.54
349	308.22
349.452	303.54
349.904	355.03
350.356	355.03
350.808	345.67
351.26	343.33
351.711	392.48
352.163	362.05
352.615	352.69
353.066	329.28
353.518	294.18
353.969	371.41
354.421	364.39
354.872	340.99
355.324	329.28
355.775	364.39
356.226	355.03
356.677	268.43
357.128	397.16
357.579	291.84
358.03	301.2
358.481	348.01
358.932	303.54
359.383	326.94
359.834	296.52
360.285	338.65
360.735	315.24
361.186	303.54
361.637	310.56
362.087	294.18
362.538	310.56
362.988	280.13
363.438	336.31
363.889	282.47
364.339	242.68
364.789	319.92
365.239	259.07
365.689	310.56
366.139	296.52
366.589	277.79
367.039	333.97
367.489	317.58
367.939	371.41
368.389	303.54
368.839	312.9
369.288	308.22
369.738	408.86
370.187	303.54
370.637	303.54
371.086	252.05
371.536	319.92
371.985	270.77
372.434	331.62
372.884	326.94
373.333	315.24
373.782	338.65
374.231	338.65
374.68	355.03
375.129	296.52
375.578	298.86
376.027	277.79
376.475	376.09
376.924	296.52
377.373	350.35
377.822	376.09
378.27	364.39
378.719	277.79
379.167	275.45
379.616	317.58
380.064	394.82
380.512	352.69
380.961	369.07
381.409	322.26
381.857	324.6
382.305	296.52
382.753	336.31
383.201	303.54
383.649	322.26
384.097	326.94
384.545	340.99
384.992	315.24
385.44	373.75
385.888	331.62
386.335	324.6
386.783	350.35
387.231	336.31
387.678	357.37
388.125	294.18
388.573	252.05
389.02	312.9
389.467	357.37
389.914	296.52
390.362	298.86
390.809	268.43
391.256	322.26
391.703	348.01
392.15	345.67
392.596	333.97
393.043	326.94
393.49	336.31
393.937	366.73
394.383	282.47
394.83	345.67
395.276	329.28
395.723	366.73
396.169	310.56
396.616	230.98
397.062	352.69
397.508	352.69
397.954	291.84
398.401	357.37
398.847	294.18
399.293	340.99
399.739	350.35
400.185	315.24
400.631	371.41
401.076	326.94
401.522	355.03
401.968	303.54
402.414	298.86
402.859	345.67
403.305	319.92
403.75	315.24
404.196	392.48
404.641	357.37
405.086	329.28
405.532	263.75
405.977	326.94
406.422	287.15
406.867	324.6
407.312	315.24
407.757	380.78
408.202	240.34
408.647	317.58
409.092	312.9
409.537	312.9
409.982	317.58
410.426	373.75
410.871	343.33
411.316	228.64
411.76	317.58
412.205	357.37
412.649	376.09
413.093	359.71
413.538	340.99
413.982	329.28
414.426	319.92
414.87	333.97
415.314	280.13
415.758	373.75
416.202	343.33
416.646	296.52
417.09	350.35
417.534	338.65
417.978	310.56
418.421	312.9
418.865	345.67
419.309	336.31
419.752	301.2
420.196	296.52
420.639	355.03
421.083	315.24
421.526	338.65
421.969	324.6
422.412	275.45
422.856	333.97
423.299	303.54
423.742	366.73
424.185	378.44
424.628	326.94
425.071	373.75
425.513	355.03
425.956	338.65
426.399	359.71
426.842	277.79
427.284	296.52
427.727	287.15
428.169	366.73
428.612	326.94
429.054	373.75
429.497	350.35
429.939	303.54
430.381	329.28
430.823	408.86
431.265	362.05
431.707	312.9
432.149	336.31
432.591	352.69
433.033	317.58
433.475	331.62
433.917	336.31
434.359	324.6
434.8	345.67
435.242	343.33
435.684	308.22
436.125	343.33
436.567	331.62
437.008	352.69
437.449	373.75
437.891	362.05
438.332	369.07
438.773	359.71
439.214	219.28
439.656	315.24
440.097	345.67
440.538	355.03
440.978	326.94
441.419	312.9
441.86	331.62
442.301	329.28
442.742	324.6
443.182	380.78
443.623	322.26
444.063	247.37
444.504	324.6
444.944	340.99
445.385	284.81
445.825	312.9
446.265	345.67
446.706	369.07
447.146	294.18
447.586	345.67
448.026	383.12
448.466	371.41
448.906	298.86
449.346	252.05
449.786	390.14
450.225	333.97
450.665	294.18
451.105	371.41
451.544	362.05
451.984	270.77
452.424	308.22
452.863	373.75
453.302	359.71
453.742	355.03
454.181	301.2
454.62	310.56
455.059	291.84
455.499	326.94
455.938	343.33
456.377	338.65
456.816	329.28
457.254	348.01
457.693	352.69
458.132	326.94
458.571	319.92
459.01	319.92
459.448	329.28
459.887	266.09
460.325	305.88
460.764	394.82
461.202	338.65
461.641	333.97
462.079	256.73
462.517	369.07
462.955	287.15
463.393	263.75
463.832	364.39
464.27	322.26
464.708	308.22
465.145	336.31
465.583	324.6
466.021	338.65
466.459	355.03
466.897	324.6
467.334	343.33
467.772	317.58
468.209	348.01
468.647	287.15
469.084	252.05
469.522	303.54
469.959	324.6
470.396	348.01
470.833	331.62
471.271	329.28
471.708	331.62
472.145	322.26
472.582	376.09
473.019	369.07
473.456	352.69
473.892	336.31
474.329	336.31
474.766	310.56
475.202	317.58
475.639	326.94
476.076	366.73
476.512	216.94
476.949	324.6
477.385	329.28
477.821	324.6
478.258	348.01
478.694	310.56
479.13	322.26
479.566	329.28
480.002	317.58
480.438	263.75
480.874	277.79
481.31	284.81
481.746	301.2
482.181	348.01
482.617	366.73
483.053	364.39
483.488	345.67
483.924	333.97
484.36	315.24
484.795	338.65
485.23	338.65
485.666	385.46
486.101	336.31
486.536	284.81
486.971	319.92
487.407	399.5
487.842	343.33
488.277	310.56
488.712	317.58
489.146	301.2
489.581	364.39
490.016	322.26
490.451	315.24
490.885	305.88
491.32	301.2
491.755	343.33
492.189	350.35
492.624	345.67
493.058	261.41
493.492	305.88
493.927	378.44
494.361	280.13
494.795	408.86
495.229	315.24
495.663	308.22
496.097	359.71
496.531	348.01
496.965	369.07
497.399	326.94
497.833	329.28
498.266	294.18
498.7	352.69
499.134	298.86
499.567	333.97
500.001	371.41
500.434	331.62
500.868	294.18
501.301	394.82
501.734	261.41
502.168	317.58
502.601	284.81
503.034	289.5
503.467	296.52
503.9	319.92
504.333	319.92
504.766	336.31
505.199	348.01
505.632	373.75
506.064	259.07
506.497	277.79
506.93	362.05
507.362	319.92
507.795	319.92
508.227	340.99
508.66	355.03
509.092	242.68
509.524	366.73
509.956	333.97
510.389	364.39
510.821	333.97
511.253	371.41
511.685	333.97
512.117	397.16
512.549	310.56
512.981	294.18
513.412	312.9
513.844	308.22
514.276	340.99
514.707	282.47
515.139	326.94
515.571	312.9
516.002	315.24
516.433	340.99
516.865	296.52
517.296	315.24
517.727	392.48
518.159	280.13
518.59	345.67
519.021	294.18
519.452	340.99
519.883	273.11
520.314	249.71
520.744	404.18
521.175	350.35
521.606	383.12
522.037	371.41
522.467	355.03
522.898	273.11
523.328	298.86
523.759	319.92
524.189	266.09
524.62	329.28
525.05	301.2
525.48	352.69
525.91	268.43
526.341	308.22
526.771	301.2
527.201	296.52
527.631	312.9
528.061	340.99
528.49	333.97
528.92	296.52
529.35	308.22
529.78	336.31
530.209	369.07
530.639	359.71
531.068	369.07
531.498	343.33
531.927	287.15
532.357	336.31
532.786	378.44
533.215	355.03
533.644	266.09
534.074	326.94
534.503	310.56
534.932	345.67
535.361	352.69
535.79	326.94
536.218	315.24
536.647	329.28
537.076	305.88
537.505	294.18
537.933	282.47
538.362	298.86
538.79	287.15
539.219	303.54
539.647	298.86
540.076	343.33
540.504	277.79
540.932	355.03
541.36	345.67
541.788	277.79
542.217	298.86
542.645	369.07
543.073	380.78
543.5	390.14
543.928	326.94
544.356	315.24
544.784	312.9
545.211	298.86
545.639	312.9
546.067	296.52
546.494	350.35
546.922	326.94
547.349	376.09
547.776	340.99
548.204	326.94
548.631	275.45
549.058	291.84
549.485	338.65
549.912	345.67
550.339	301.2
550.766	350.35
551.193	301.2
551.62	319.92
552.047	371.41
552.474	319.92
552.9	378.44
553.327	371.41
553.754	348.01
554.18	355.03
554.607	329.28
555.033	308.22
555.459	336.31
555.886	268.43
556.312	287.15
556.738	324.6
557.164	329.28
557.59	366.73
558.016	284.81
558.442	369.07
558.868	383.12
559.294	305.88
559.72	338.65
560.145	350.35
560.571	326.94
560.997	245.02
561.422	317.58
561.848	348.01
562.273	331.62
562.699	329.28
563.124	338.65
563.549	380.78
563.974	343.33
564.4	289.5
564.825	376.09
565.25	305.88
565.675	369.07
566.1	331.62
566.525	352.69
566.95	305.88
567.374	336.31
567.799	294.18
568.224	336.31
568.648	364.39
569.073	359.71
569.497	380.78
569.922	350.35
570.346	263.75
570.771	333.97
571.195	298.86
571.619	387.8
572.043	355.03
572.467	291.84
572.891	298.86
573.315	333.97
573.739	355.03
574.163	333.97
574.587	348.01
575.011	362.05
575.435	340.99
575.858	319.92
576.282	317.58
576.705	343.33
577.129	326.94
577.552	294.18
577.976	338.65
578.399	329.28
578.822	294.18
579.245	390.14
579.669	425.25
580.092	366.73
580.515	343.33
580.938	331.62
581.361	359.71
581.784	280.13
582.206	315.24
582.629	387.8
583.052	326.94
583.474	294.18
583.897	305.88
584.32	331.62
584.742	308.22
585.165	329.28
585.587	322.26
586.009	336.31
586.431	308.22
586.854	296.52
587.276	315.24
587.698	336.31
588.12	301.2
588.542	333.97
588.964	359.71
589.386	312.9
589.807	291.84
590.229	329.28
590.651	322.26
591.073	284.81
591.494	336.31
591.916	282.47
592.337	348.01
592.759	326.94
593.18	270.77
593.601	277.79
594.022	296.52
594.444	333.97
594.865	376.09
595.286	348.01
595.707	280.13
596.128	345.67
596.549	322.26
596.97	357.37
597.39	240.34
597.811	301.2
598.232	305.88
598.652	322.26
599.073	305.88
599.494	369.07
599.914	319.92
600.334	378.44
600.755	317.58
601.175	359.71
601.595	284.81
602.015	366.73
602.436	270.77
602.856	418.22
603.276	284.81
603.696	331.62
604.115	305.88
604.535	277.79
604.955	331.62
605.375	289.5
605.794	303.54
606.214	308.22
606.634	331.62
607.053	294.18
607.473	296.52
607.892	383.12
608.311	333.97
608.731	345.67
609.15	312.9
609.569	252.05
609.988	352.69
610.407	322.26
610.826	291.84
611.245	317.58
611.664	324.6
612.083	308.22
612.501	303.54
612.92	343.33
613.339	301.2
613.757	336.31
614.176	385.46
614.594	359.71
615.013	289.5
615.431	315.24
615.85	277.79
616.268	329.28
616.686	331.62
617.104	287.15
617.522	280.13
617.94	378.44
618.358	333.97
618.776	266.09
619.194	340.99
619.612	310.56
620.03	373.75
620.447	312.9
620.865	326.94
621.282	420.57
621.7	362.05
622.117	310.56
622.535	336.31
622.952	287.15
623.369	305.88
623.787	284.81
624.204	357.37
624.621	324.6
625.038	280.13
625.455	317.58
625.872	317.58
626.289	291.84
626.706	336.31
627.123	301.2
627.539	348.01
627.956	305.88
628.373	338.65
628.789	362.05
629.206	333.97
629.622	291.84
630.038	270.77
630.455	348.01
630.871	336.31
631.287	298.86
631.703	338.65
632.12	245.02
632.536	277.79
632.952	333.97
633.368	362.05
633.783	319.92
634.199	324.6
634.615	364.39
635.031	350.35
635.446	345.67
635.862	310.56
636.277	336.31
636.693	310.56
637.108	284.81
637.524	413.54
637.939	296.52
638.354	273.11
638.77	357.37
639.185	350.35
639.6	343.33
640.015	355.03
640.43	273.11
640.845	432.27
641.259	317.58
641.674	369.07
642.089	324.6
642.504	371.41
642.918	277.79
643.333	301.2
643.747	303.54
644.162	331.62
644.576	331.62
644.991	345.67
645.405	324.6
645.819	355.03
646.233	331.62
646.647	355.03
647.061	362.05
647.475	331.62
647.889	357.37
648.303	298.86
648.717	352.69
649.131	270.77
649.545	350.35
649.958	333.97
650.372	329.28
650.785	322.26
651.199	277.79
651.612	340.99
652.026	308.22
652.439	390.14
652.852	336.31
653.266	289.5
653.679	340.99
654.092	324.6
654.505	326.94
654.918	352.69
655.331	287.15
655.744	303.54
656.156	247.37
656.569	319.92
656.982	308.22
657.394	284.81
657.807	289.5
658.22	289.5
658.632	287.15
659.044	385.46
659.457	336.31
659.869	338.65
660.281	319.92
660.693	303.54
661.106	287.15
661.518	310.56
661.93	343.33
662.342	329.28
662.754	345.67
663.165	350.35
663.577	366.73
663.989	298.86
664.401	282.47
664.812	371.41
665.224	298.86
665.635	324.6
666.047	362.05
666.458	310.56
666.869	336.31
667.281	329.28
667.692	345.67
668.103	383.12
668.514	310.56
668.925	277.79
669.336	348.01
669.747	305.88
670.158	296.52
670.569	348.01
670.979	326.94
671.39	287.15
671.801	401.84
672.211	336.31
672.622	329.28
673.032	357.37
673.443	303.54
673.853	333.97
674.263	282.47
674.674	287.15
675.084	291.84
675.494	261.41
675.904	294.18
676.314	221.62
676.724	298.86
677.134	319.92
677.544	329.28
677.953	294.18
678.363	308.22
678.773	371.41
679.182	310.56
679.592	310.56
680.001	340.99
680.411	273.11
680.82	280.13
681.23	282.47
681.639	324.6
682.048	364.39
682.457	352.69
682.866	249.71
683.275	310.56
683.684	261.41
684.093	362.05
684.502	317.58
684.911	261.41
685.32	305.88
685.728	319.92
686.137	331.62
686.546	305.88
686.954	324.6
687.363	270.77
687.771	249.71
688.179	369.07
688.588	308.22
688.996	298.86
689.404	348.01
689.812	289.5
690.22	284.81
690.628	352.69
691.036	301.2
691.444	333.97
691.852	376.09
692.26	326.94
692.667	331.62
693.075	348.01
693.483	326.94
693.89	357.37
694.298	310.56
694.705	317.58
695.112	324.6
695.52	376.09
695.927	333.97
696.334	287.15
696.741	282.47
697.148	326.94
697.555	216.94
697.962	359.71
698.369	369.07
698.776	319.92
699.183	343.33
699.59	305.88
699.996	364.39
700.403	364.39
700.81	315.24
701.216	336.31
701.623	308.22
702.029	310.56
702.435	291.84
702.842	331.62
703.248	376.09
703.654	338.65
704.06	333.97
704.466	338.65
704.872	284.81
705.278	376.09
705.684	319.92
706.09	397.16
706.496	380.78
706.901	387.8
707.307	371.41
707.712	282.47
708.118	270.77
708.523	289.5
708.929	345.67
709.334	359.71
709.74	319.92
710.145	329.28
710.55	338.65
710.955	296.52
711.36	336.31
711.765	333.97
712.17	319.92
712.575	357.37
712.98	888.67
713.385	357.37
713.789	331.62
714.194	305.88
714.599	273.11
715.003	319.92
715.408	362.05
715.812	266.09
716.217	280.13
716.621	362.05
717.025	343.33
717.429	340.99
717.833	308.22
718.238	296.52
718.642	401.84
719.046	326.94
719.449	340.99
719.853	343.33
720.257	326.94
720.661	305.88
721.065	343.33
721.468	289.5
721.872	387.8
722.275	329.28
722.679	322.26
723.082	303.54
723.485	376.09
723.889	284.81
724.292	338.65
724.695	294.18
725.098	411.2
725.501	329.28
725.904	308.22
726.307	333.97
726.71	331.62
727.113	273.11
727.516	296.52
727.918	273.11
728.321	317.58
728.724	387.8
729.126	291.84
729.529	355.03
729.931	329.28
730.333	291.84
730.736	355.03
731.138	352.69
731.54	333.97
731.942	319.92
732.344	366.73
732.746	291.84
733.148	312.9
733.55	312.9
733.952	315.24
734.354	301.2
734.756	315.24
735.157	303.54
735.559	275.45
735.96	289.5
736.362	348.01
736.763	397.16
737.165	317.58
737.566	336.31
737.967	254.39
738.368	376.09
738.77	340.99
739.171	254.39
739.572	357.37
739.973	287.15
740.374	343.33
740.774	308.22
741.175	371.41
741.576	343.33
741.977	331.62
742.377	284.81
742.778	259.07
743.178	303.54
743.579	355.03
743.979	345.67
744.379	312.9
744.78	350.35
745.18	331.62
745.58	301.2
745.98	348.01
746.38	298.86
746.78	322.26
747.18	317.58
747.58	277.79
747.98	366.73
748.38	348.01
748.779	326.94
749.179	343.33
749.578	345.67
749.978	319.92
750.377	291.84
750.777	324.6
751.176	289.5
751.575	301.2
751.975	291.84
752.374	352.69
752.773	247.37
753.172	366.73
753.571	268.43
753.97	324.6
754.369	331.62
754.768	294.18
755.166	315.24
755.565	303.54
755.964	336.31
756.362	284.81
756.761	312.9
757.159	345.67
757.558	340.99
757.956	343.33
758.354	280.13
758.753	326.94
759.151	362.05
759.549	312.9
759.947	345.67
760.345	273.11
760.743	362.05
761.141	294.18
761.539	266.09
761.936	329.28
762.334	291.84
762.732	345.67
763.129	331.62
763.527	308.22
763.924	310.56
764.322	329.28
764.719	315.24
765.117	336.31
765.514	301.2
765.911	319.92
766.308	319.92
766.705	298.86
767.102	348.01
767.499	324.6
767.896	282.47
768.293	240.34
768.69	394.82
769.086	324.6
769.483	336.31
769.88	343.33
770.276	284.81
770.673	305.88
771.069	359.71
771.466	296.52
771.862	275.45
772.258	308.22
772.654	298.86
773.05	256.73
773.447	359.71
773.843	355.03
774.239	338.65
774.634	277.79
775.03	261.41
775.426	308.22
775.822	338.65
776.218	296.52
776.613	326.94
777.009	418.22
777.404	408.86
777.8	324.6
778.195	322.26
778.59	333.97
778.986	298.86
779.381	312.9
779.776	308.22
780.171	326.94
780.566	242.68
780.961	343.33
781.356	369.07
781.751	338.65
782.146	315.24
782.54	404.18
782.935	275.45
783.33	336.31
783.724	348.01
784.119	308.22
784.513	249.71
784.908	369.07
785.302	357.37
785.696	343.33
786.09	282.47
786.485	294.18
786.879	326.94
787.273	404.18
787.667	294.18
788.061	357.37
788.454	322.26
788.848	357.37
789.242	352.69
789.636	284.81
790.029	277.79
790.423	336.31
790.816	254.39
791.21	378.44
791.603	331.62
791.997	350.35
792.39	310.56
792.783	296.52
793.176	350.35
793.569	322.26
793.962	364.39
794.355	282.47
794.748	350.35
795.141	359.71
795.534	340.99
795.927	338.65
796.319	329.28
796.712	355.03
797.105	340.99
797.497	359.71
797.89	268.43
798.282	319.92
798.674	333.97
799.067	294.18
799.459	322.26
799.851	326.94
800.243	305.88
800.635	256.73
801.027	312.9
801.419	326.94
801.811	291.84
802.203	312.9
802.594	331.62
802.986	340.99
803.378	282.47
803.769	352.69
804.161	350.35
804.552	275.45
804.944	331.62
805.335	371.41
805.726	350.35
806.118	369.07
806.509	284.81
806.9	275.45
807.291	336.31
807.682	317.58
808.073	359.71
808.464	303.54
808.855	280.13
809.245	291.84
809.636	362.05
810.027	256.73
810.417	359.71
810.808	338.65
811.198	296.52
811.589	294.18
811.979	340.99
812.369	345.67
812.759	348.01
813.15	312.9
813.54	308.22
813.93	308.22
814.32	273.11
814.71	404.18
815.1	326.94
815.489	348.01
815.879	333.97
816.269	333.97
816.658	310.56
817.048	315.24
817.438	301.2
817.827	340.99
818.216	298.86
818.606	315.24
818.995	303.54
819.384	315.24
819.773	252.05
820.163	282.47
820.552	350.35
820.941	312.9
821.33	331.62
821.718	273.11
822.107	319.92
822.496	355.03
822.885	294.18
823.273	364.39
823.662	291.84
824.05	301.2
824.439	315.24
824.827	387.8
825.216	310.56
825.604	291.84
825.992	259.07
826.38	340.99
826.768	294.18
827.156	324.6
827.544	319.92
827.932	322.26
828.32	312.9
828.708	359.71
829.096	308.22
829.483	315.24
829.871	294.18
830.259	312.9
830.646	369.07
831.034	315.24
831.421	331.62
831.808	298.86
832.196	298.86
832.583	350.35
832.97	340.99
833.357	322.26
833.744	338.65
834.131	352.69
834.518	326.94
834.905	303.54
835.292	275.45
835.678	357.37
836.065	322.26
836.452	348.01
836.838	345.67
837.225	340.99
837.611	418.22
837.998	336.31
838.384	329.28
838.77	259.07
839.157	317.58
839.543	336.31
839.929	310.56
840.315	249.71
840.701	322.26
841.087	348.01
841.473	315.24
841.858	343.33
842.244	247.37
842.63	298.86
843.015	315.24
843.401	565.68
843.787	280.13
844.172	317.58
844.557	348.01
844.943	331.62
845.328	298.86
845.713	338.65
846.098	399.5
846.483	348.01
846.868	331.62
847.253	319.92
847.638	329.28
848.023	270.77
848.408	296.52
848.793	303.54
849.177	277.79
849.562	366.73
849.947	282.47
850.331	280.13
850.715	369.07
851.1	303.54
851.484	310.56
851.868	338.65
852.253	310.56
852.637	275.45
853.021	303.54
853.405	305.88
853.789	338.65
854.173	348.01
854.557	336.31
854.94	336.31
855.324	322.26
855.708	324.6
856.091	357.37
856.475	324.6
856.858	324.6
857.242	350.35
857.625	322.26
858.009	268.43
858.392	312.9
858.775	303.54
859.158	322.26
859.541	294.18
859.924	317.58
860.307	266.09
860.69	266.09
861.073	284.81
861.456	322.26
861.838	315.24
862.221	303.54
862.604	350.35
862.986	284.81
863.369	355.03
863.751	350.35
864.133	312.9
864.516	317.58
864.898	289.5
865.28	319.92
865.662	303.54
866.044	308.22
866.426	301.2
866.808	263.75
867.19	291.84
867.572	373.75
867.954	329.28
868.336	268.43
868.717	319.92
869.099	319.92
869.48	352.69
869.862	273.11
870.243	289.5
870.625	301.2
871.006	291.84
871.387	317.58
871.768	315.24
872.149	319.92
872.53	319.92
872.911	301.2
873.292	277.79
873.673	350.35
874.054	333.97
874.435	310.56
874.815	348.01
875.196	284.81
875.577	364.39
875.957	345.67
876.338	366.73
876.718	305.88
877.098	326.94
877.479	310.56
877.859	319.92
878.239	301.2
878.619	308.22
878.999	287.15
879.379	263.75
879.759	329.28
880.139	296.52
880.519	338.65
880.898	298.86
881.278	343.33
881.658	287.15
882.037	294.18
882.417	333.97
882.796	287.15
883.176	331.62
883.555	355.03
883.934	326.94
884.313	270.77
884.693	247.37
885.072	284.81
885.451	310.56
885.83	207.58
886.209	240.34
886.587	298.86
886.966	355.03
887.345	352.69
887.724	282.47
888.102	326.94
888.481	310.56
888.859	273.11
889.238	298.86
889.616	329.28
889.994	343.33
890.373	324.6
890.751	301.2
891.129	366.73
891.507	376.09
891.885	340.99
892.263	294.18
892.641	296.52
893.019	352.69
893.396	324.6
893.774	364.39
894.152	322.26
894.529	261.41
894.907	336.31
895.284	317.58
895.662	329.28
896.039	383.12
896.416	310.56
896.794	305.88
897.171	245.02
897.548	329.28
897.925	329.28
898.302	315.24
898.679	350.35
899.056	310.56
899.433	333.97
899.809	315.24
900.186	350.35
900.563	331.62
900.939	324.6
901.316	233.32
901.692	298.86
902.069	303.54
902.445	364.39
902.821	340.99
903.197	263.75
903.574	352.69
903.95	326.94
904.326	291.84
904.702	308.22
905.078	333.97
905.454	317.58
905.829	348.01
906.205	305.88
906.581	362.05
906.956	266.09
907.332	319.92
907.707	338.65
908.083	289.5
908.458	303.54
908.833	317.58
909.209	329.28
909.584	343.33
909.959	305.88
910.334	317.58
910.709	348.01
911.084	343.33
911.459	322.26
911.834	284.81
912.209	315.24
912.583	310.56
912.958	322.26
913.333	266.09
913.707	298.86
914.082	317.58
914.456	319.92
914.83	312.9
915.205	322.26
915.579	333.97
915.953	268.43
916.327	296.52
916.701	266.09
917.075	308.22
917.449	326.94
917.823	270.77
918.197	294.18
918.571	298.86
918.944	277.79
919.318	245.02
919.692	315.24
920.065	303.54
920.438	273.11
920.812	284.81
921.185	357.37
921.558	336.31
921.932	336.31
922.305	333.97
922.678	387.8
923.051	333.97
923.424	287.15
923.797	324.6
924.17	317.58
924.542	280.13
924.915	336.31
925.288	312.9
925.661	275.45
926.033	324.6
926.406	296.52
926.778	310.56
927.15	284.81
927.523	331.62
927.895	294.18
928.267	298.86
928.639	348.01
929.011	289.5
929.383	266.09
929.755	298.86
930.127	371.41
930.499	305.88
930.871	305.88
931.242	359.71
931.614	329.28
931.986	280.13
932.357	275.45
932.729	350.35
933.1	359.71
933.471	305.88
933.843	268.43
934.214	359.71
934.585	280.13
934.956	275.45
935.327	280.13
935.698	345.67
936.069	322.26
936.44	324.6
936.811	266.09
937.182	408.86
937.552	287.15
937.923	383.12
938.293	312.9
938.664	345.67
939.034	322.26
939.405	345.67
939.775	371.41
940.145	275.45
940.516	329.28
940.886	340.99
941.256	296.52
941.626	289.5
941.996	364.39
942.366	319.92
942.735	359.71
943.105	373.75
943.475	315.24
943.845	301.2
944.214	301.2
944.584	359.71
944.953	315.24
945.323	298.86
945.692	273.11
946.061	371.41
946.43	289.5
946.8	331.62
947.169	324.6
947.538	362.05
947.907	312.9
948.276	273.11
948.645	298.86
949.013	355.03
949.382	345.67
949.751	345.67
950.119	296.52
950.488	333.97
950.857	352.69
951.225	329.28
951.593	324.6
951.962	284.81
952.33	308.22
952.698	308.22
953.066	324.6
953.434	326.94
953.802	340.99
954.17	301.2
954.538	310.56
954.906	294.18
955.274	329.28
955.642	378.44
956.009	338.65
956.377	287.15
956.744	340.99
957.112	343.33
957.479	317.58
957.847	282.47
958.214	359.71
958.581	322.26
958.948	266.09
959.315	333.97
959.683	319.92
960.05	252.05
960.416	345.67
960.783	294.18
961.15	326.94
961.517	319.92
961.884	287.15
962.25	343.33
962.617	317.58
962.983	348.01
963.35	329.28
963.716	284.81
964.082	322.26
964.449	362.05
964.815	301.2
965.181	371.41
965.547	312.9
965.913	340.99
966.279	298.86
966.645	315.24
967.011	284.81
967.377	308.22
967.742	322.26
968.108	287.15
968.474	350.35
968.839	284.81
969.205	310.56
969.57	364.39
969.935	317.58
970.301	350.35
970.666	336.31
971.031	324.6
971.396	362.05
971.761	333.97
972.126	294.18
972.491	352.69
972.856	312.9
973.221	326.94
973.586	345.67
973.95	303.54
974.315	322.26
974.679	326.94
975.044	263.75
975.408	291.84
975.773	336.31
976.137	364.39
976.501	305.88
976.866	357.37
977.23	371.41
977.594	380.78
977.958	324.6
978.322	340.99
978.686	329.28
979.049	369.07
979.413	326.94
979.777	359.71
980.141	345.67
980.504	348.01
980.868	261.41
981.231	362.05
981.595	331.62
981.958	301.2
982.321	287.15
982.684	282.47
983.048	340.99
983.411	322.26
983.774	319.92
984.137	289.5
984.5	324.6
984.862	280.13
985.225	331.62
985.588	376.09
985.951	324.6
986.313	298.86
986.676	296.52
987.038	345.67
987.401	240.34
987.763	294.18
988.125	343.33
988.488	308.22
988.85	296.52
989.212	312.9
989.574	294.18
989.936	308.22
990.298	338.65
990.66	322.26
991.022	340.99
991.383	336.31
991.745	263.75
992.107	362.05
992.468	317.58
992.83	326.94
993.191	333.97
993.553	287.15
993.914	359.71
994.275	315.24
994.637	305.88
994.998	294.18
995.359	378.44
995.72	345.67
996.081	238
996.442	331.62
996.803	270.77
997.163	326.94
997.524	333.97
997.885	331.62
998.245	359.71
998.606	310.56
998.966	277.79
999.327	355.03
999.687	312.9
1000.047	289.5
1000.408	282.47
1000.768	326.94
1001.128	329.28
1001.488	378.44
1001.848	343.33
1002.208	291.84
1002.568	357.37
1002.927	366.73
1003.287	317.58
1003.647	294.18
1004.007	319.92
1004.366	310.56
1004.726	329.28
1005.085	343.33
1005.444	308.22
1005.804	352.69
1006.163	371.41
1006.522	324.6
1006.881	317.58
1007.24	324.6
1007.599	256.73
1007.958	303.54
1008.317	355.03
1008.676	333.97
1009.035	317.58
1009.393	340.99
1009.752	303.54
1010.111	282.47
1010.469	322.26
1010.828	324.6
1011.186	289.5
1011.544	331.62
1011.903	310.56
1012.261	355.03
1012.619	340.99
1012.977	287.15
1013.335	326.94
1013.693	268.43
1014.051	245.02
1014.409	312.9
1014.767	238
1015.124	310.56
1015.482	252.05
1015.84	305.88
1016.197	275.45
1016.555	298.86
1016.912	287.15
1017.269	333.97
1017.627	298.86
1017.984	326.94
1018.341	245.02
1018.698	308.22
1019.055	373.75
1019.412	301.2
1019.769	380.78
1020.126	348.01
1020.483	319.92
1020.84	315.24
1021.196	310.56
1021.553	383.12
1021.909	324.6
1022.266	305.88
1022.622	326.94
1022.979	301.2
1023.335	343.33
1023.691	326.94
1024.047	322.26
1024.404	385.46
1024.76	348.01
1025.116	345.67
1025.472	338.65
1025.827	369.07
1026.183	296.52
1026.539	338.65
1026.895	291.84
1027.25	282.47
1027.606	275.45
1027.961	289.5
1028.317	310.56
1028.672	338.65
1029.028	319.92
1029.383	280.13
1029.738	348.01
1030.093	324.6
1030.448	329.28
1030.803	315.24
1031.158	385.46
1031.513	338.65
1031.868	331.62
1032.223	380.78
1032.577	355.03
1032.932	315.24
1033.287	357.37
1033.641	369.07
1033.996	303.54
1034.35	273.11
1034.704	275.45
1035.059	333.97
1035.413	387.8
1035.767	387.8
1036.121	387.8
