Data from Al_FLMS009871__708__15-09-05-534.txt Node

Date: Fri Mar 08 15:09:05 CST 2024
User: pe5414po
Spectrometer: FLMS00987
Trigger mode: 0
Integration Time (sec): 1.000000E-1
Scans to average: 1
Electric dark correction enabled: true
Nonlinearity correction enabled: false
Boxcar width: 0
XAxis mode: Wavelengths
Number of Pixels in Spectrum: 2048
>>>>>Begin Spectral Data<<<<<
188.938	-110.15
189.409	-110.15
189.879	-110.15
190.349	-112.49
190.819	-114.83
191.29	-98.45
191.76	-84.41
192.23	-89.09
192.7	-56.32
193.17	-44.62
193.64	-35.25
194.109	-32.91
194.579	-7.17
195.049	4.53
195.519	37.3
195.988	-28.23
196.458	53.69
196.927	46.66
197.397	86.45
197.866	116.88
198.336	130.92
198.805	137.95
199.274	116.88
199.744	182.42
200.213	170.71
200.682	191.78
201.151	180.07
201.62	217.52
202.089	269.02
202.558	182.42
203.027	245.61
203.495	238.59
203.964	252.63
204.433	254.97
204.902	278.38
205.37	336.89
205.839	339.23
206.307	257.31
206.776	313.49
207.244	334.55
207.712	247.95
208.181	276.04
208.649	259.65
209.117	301.78
209.585	297.1
210.053	311.14
210.521	217.52
210.989	259.65
211.457	280.72
211.925	278.38
212.393	238.59
212.861	233.91
213.328	231.57
213.796	313.49
214.264	264.33
214.731	297.1
215.199	285.4
215.666	269.02
216.133	315.83
216.601	257.31
217.068	254.97
217.535	301.78
218.003	250.29
218.47	259.65
218.937	269.02
219.404	308.8
219.871	276.04
220.338	301.78
220.805	222.2
221.271	231.57
221.738	304.12
222.205	264.33
222.671	257.31
223.138	250.29
223.605	297.1
224.071	240.93
224.538	247.95
225.004	269.02
225.47	297.1
225.937	198.8
226.403	222.2
226.869	240.93
227.335	208.16
227.801	283.06
228.267	229.23
228.733	273.7
229.199	301.78
229.665	261.99
230.131	247.95
230.597	189.44
231.062	327.53
231.528	210.5
231.994	308.8
232.459	283.06
232.925	304.12
233.39	304.12
233.856	245.61
234.321	285.4
234.786	247.95
235.252	222.2
235.717	287.74
236.182	290.08
236.647	269.02
237.112	203.48
237.577	259.65
238.042	264.33
238.507	266.67
238.972	287.74
239.436	269.02
239.901	311.14
240.366	271.36
240.83	278.38
241.295	287.74
241.76	240.93
242.224	266.67
242.688	247.95
243.153	250.29
243.617	329.87
244.081	222.2
244.545	222.2
245.01	306.46
245.474	292.42
245.938	257.31
246.402	311.14
246.866	325.19
247.33	297.1
247.793	261.99
248.257	301.78
248.721	257.31
249.185	325.19
249.648	264.33
250.112	233.91
250.575	261.99
251.039	231.57
251.502	236.25
251.965	224.55
252.429	266.67
252.892	238.59
253.355	269.02
253.818	280.72
254.281	257.31
254.744	306.46
255.207	236.25
255.67	264.33
256.133	229.23
256.596	283.06
257.059	226.89
257.522	332.21
257.984	201.14
258.447	264.33
258.909	285.4
259.372	205.82
259.834	325.19
260.297	273.7
260.759	327.53
261.221	264.33
261.684	210.5
262.146	222.2
262.608	276.04
263.07	280.72
263.532	252.63
263.994	273.7
264.456	287.74
264.918	269.02
265.38	276.04
265.842	308.8
266.303	201.14
266.765	269.02
267.227	325.19
267.688	240.93
268.15	290.08
268.611	334.55
269.072	287.74
269.534	292.42
269.995	254.97
270.456	271.36
270.918	287.74
271.379	311.14
271.84	243.27
272.301	261.99
272.762	233.91
273.223	301.78
273.684	336.89
274.144	290.08
274.605	374.34
275.066	346.25
275.527	290.08
275.987	346.25
276.448	266.67
276.908	285.4
277.369	318.17
277.829	276.04
278.289	280.72
278.75	278.38
279.21	297.1
279.67	285.4
280.13	273.7
280.59	308.8
281.05	301.78
281.51	315.83
281.97	269.02
282.43	346.25
282.89	285.4
283.35	304.12
283.809	222.2
284.269	287.74
284.729	247.95
285.188	250.29
285.648	250.29
286.107	315.83
286.567	217.52
287.026	283.06
287.485	278.38
287.944	325.19
288.404	273.7
288.863	261.99
289.322	313.49
289.781	264.33
290.24	273.7
290.699	299.44
291.158	280.72
291.616	311.14
292.075	271.36
292.534	229.23
292.992	285.4
293.451	276.04
293.91	290.08
294.368	229.23
294.827	353.27
295.285	259.65
295.743	240.93
296.202	313.49
296.66	283.06
297.118	376.68
297.576	297.1
298.034	245.61
298.492	269.02
298.95	290.08
299.408	322.85
299.866	287.74
300.324	313.49
300.781	226.89
301.239	266.67
301.697	343.91
302.154	259.65
302.612	301.78
303.069	243.27
303.527	311.14
303.984	301.78
304.441	287.74
304.899	313.49
305.356	327.53
305.813	285.4
306.27	294.76
306.727	320.51
307.184	283.06
307.641	304.12
308.098	306.46
308.555	245.61
309.012	271.36
309.468	261.99
309.925	297.1
310.382	273.7
310.838	299.44
311.295	313.49
311.751	304.12
312.208	198.8
312.664	299.44
313.12	290.08
313.577	311.14
314.033	297.1
314.489	364.98
314.945	261.99
315.401	341.57
315.857	285.4
316.313	315.83
316.769	285.4
317.225	233.91
317.681	315.83
318.136	292.42
318.592	222.2
319.048	301.78
319.503	243.27
319.959	301.78
320.414	266.67
320.869	297.1
321.325	322.85
321.78	280.72
322.235	360.3
322.691	329.87
323.146	311.14
323.601	306.46
324.056	290.08
324.511	334.55
324.966	276.04
325.421	276.04
325.875	292.42
326.33	261.99
326.785	287.74
327.24	292.42
327.694	240.93
328.149	374.34
328.603	280.72
329.058	339.23
329.512	276.04
329.966	339.23
330.421	271.36
330.875	280.72
331.329	233.91
331.783	311.14
332.237	276.04
332.691	308.8
333.145	332.21
333.599	332.21
334.053	247.95
334.507	292.42
334.96	304.12
335.414	254.97
335.868	254.97
336.321	348.59
336.775	294.76
337.228	278.38
337.682	290.08
338.135	261.99
338.588	313.49
339.042	254.97
339.495	320.51
339.948	313.49
340.401	322.85
340.854	292.42
341.307	257.31
341.76	238.59
342.213	273.7
342.666	259.65
343.119	252.63
343.571	269.02
344.024	283.06
344.477	271.36
344.929	269.02
345.382	271.36
345.834	325.19
346.287	336.89
346.739	243.27
347.191	311.14
347.644	304.12
348.096	273.7
348.548	257.31
349	313.49
349.452	350.93
349.904	287.74
350.356	336.89
350.808	325.19
351.26	250.29
351.711	269.02
352.163	362.64
352.615	276.04
353.066	245.61
353.518	311.14
353.969	254.97
354.421	269.02
354.872	334.55
355.324	294.76
355.775	355.62
356.226	336.89
356.677	315.83
357.128	254.97
357.579	283.06
358.03	322.85
358.481	280.72
358.932	278.38
359.383	346.25
359.834	266.67
360.285	283.06
360.735	266.67
361.186	372
361.637	280.72
362.087	287.74
362.538	266.67
362.988	339.23
363.438	301.78
363.889	280.72
364.339	367.32
364.789	264.33
365.239	290.08
365.689	318.17
366.139	318.17
366.589	304.12
367.039	247.95
367.489	322.85
367.939	341.57
368.389	313.49
368.839	339.23
369.288	264.33
369.738	254.97
370.187	292.42
370.637	367.32
371.086	313.49
371.536	313.49
371.985	332.21
372.434	276.04
372.884	276.04
373.333	301.78
373.782	292.42
374.231	287.74
374.68	353.27
375.129	231.57
375.578	257.31
376.027	266.67
376.475	329.87
376.924	301.78
377.373	264.33
377.822	315.83
378.27	306.46
378.719	290.08
379.167	318.17
379.616	290.08
380.064	334.55
380.512	297.1
380.961	318.17
381.409	299.44
381.857	271.36
382.305	297.1
382.753	325.19
383.201	271.36
383.649	308.8
384.097	369.66
384.545	329.87
384.992	292.42
385.44	276.04
385.888	322.85
386.335	283.06
386.783	364.98
387.231	299.44
387.678	301.78
388.125	320.51
388.573	304.12
389.02	243.27
389.467	280.72
389.914	374.34
390.362	318.17
390.809	287.74
391.256	308.8
391.703	299.44
392.15	290.08
392.596	336.89
393.043	297.1
393.49	290.08
393.937	285.4
394.383	294.76
394.83	247.95
395.276	325.19
395.723	318.17
396.169	297.1
396.616	264.33
397.062	329.87
397.508	287.74
397.954	304.12
398.401	329.87
398.847	304.12
399.293	276.04
399.739	245.61
400.185	287.74
400.631	243.27
401.076	334.55
401.522	269.02
401.968	261.99
402.414	278.38
402.859	327.53
403.305	278.38
403.75	348.59
404.196	285.4
404.641	311.14
405.086	379.02
405.532	264.33
405.977	388.38
406.422	404.77
406.867	285.4
407.312	222.2
407.757	308.8
408.202	362.64
408.647	332.21
409.092	306.46
409.537	315.83
409.982	313.49
410.426	283.06
410.871	329.87
411.316	287.74
411.76	259.65
412.205	278.38
412.649	346.25
413.093	336.89
413.538	283.06
413.982	329.87
414.426	254.97
414.87	290.08
415.314	299.44
415.758	318.17
416.202	355.62
416.646	346.25
417.09	341.57
417.534	304.12
417.978	304.12
418.421	294.76
418.865	299.44
419.309	297.1
419.752	297.1
420.196	320.51
420.639	292.42
421.083	294.76
421.526	283.06
421.969	348.59
422.412	318.17
422.856	346.25
423.299	273.7
423.742	276.04
424.185	219.86
424.628	332.21
425.071	276.04
425.513	332.21
425.956	315.83
426.399	278.38
426.842	339.23
427.284	273.7
427.727	320.51
428.169	287.74
428.612	301.78
429.054	266.67
429.497	313.49
429.939	294.76
430.381	292.42
430.823	304.12
431.265	315.83
431.707	325.19
432.149	273.7
432.591	304.12
433.033	259.65
433.475	254.97
433.917	329.87
434.359	290.08
434.8	334.55
435.242	334.55
435.684	304.12
436.125	247.95
436.567	318.17
437.008	386.04
437.449	329.87
437.891	283.06
438.332	315.83
438.773	271.36
439.214	313.49
439.656	383.7
440.097	299.44
440.538	269.02
440.978	350.93
441.419	292.42
441.86	336.89
442.301	304.12
442.742	287.74
443.182	269.02
443.623	411.79
444.063	290.08
444.504	264.33
444.944	301.78
445.385	273.7
445.825	322.85
446.265	290.08
446.706	299.44
447.146	336.89
447.586	341.57
448.026	320.51
448.466	238.59
448.906	336.89
449.346	290.08
449.786	287.74
450.225	332.21
450.665	320.51
451.105	294.76
451.544	336.89
451.984	269.02
452.424	320.51
452.863	308.8
453.302	311.14
453.742	327.53
454.181	386.04
454.62	304.12
455.059	219.86
455.499	318.17
455.938	304.12
456.377	276.04
456.816	348.59
457.254	292.42
457.693	313.49
458.132	301.78
458.571	329.87
459.01	322.85
459.448	313.49
459.887	301.78
460.325	304.12
460.764	294.76
461.202	292.42
461.641	273.7
462.079	308.8
462.517	278.38
462.955	320.51
463.393	322.85
463.832	360.3
464.27	327.53
464.708	292.42
465.145	257.31
465.583	250.29
466.021	315.83
466.459	350.93
466.897	364.98
467.334	315.83
467.772	306.46
468.209	334.55
468.647	372
469.084	318.17
469.522	343.91
469.959	325.19
470.396	325.19
470.833	325.19
471.271	355.62
471.708	292.42
472.145	301.78
472.582	325.19
473.019	301.78
473.456	276.04
473.892	313.49
474.329	318.17
474.766	315.83
475.202	318.17
475.639	264.33
476.076	353.27
476.512	299.44
476.949	278.38
477.385	294.76
477.821	308.8
478.258	334.55
478.694	299.44
479.13	315.83
479.566	343.91
480.002	318.17
480.438	353.27
480.874	205.82
481.31	329.87
481.746	292.42
482.181	290.08
482.617	269.02
483.053	318.17
483.488	294.76
483.924	294.76
484.36	294.76
484.795	245.61
485.23	266.67
485.666	343.91
486.101	297.1
486.536	357.96
486.971	369.66
487.407	269.02
487.842	315.83
488.277	320.51
488.712	271.36
489.146	287.74
489.581	325.19
490.016	343.91
490.451	280.72
490.885	285.4
491.32	357.96
491.755	362.64
492.189	367.32
492.624	266.67
493.058	329.87
493.492	266.67
493.927	301.78
494.361	308.8
494.795	315.83
495.229	341.57
495.663	357.96
496.097	374.34
496.531	285.4
496.965	278.38
497.399	283.06
497.833	252.63
498.266	261.99
498.7	334.55
499.134	301.78
499.567	308.8
500.001	271.36
500.434	313.49
500.868	339.23
501.301	318.17
501.734	355.62
502.168	299.44
502.601	329.87
503.034	336.89
503.467	243.27
503.9	294.76
504.333	294.76
504.766	318.17
505.199	276.04
505.632	346.25
506.064	343.91
506.497	283.06
506.93	238.59
507.362	264.33
507.795	224.55
508.227	283.06
508.66	341.57
509.092	325.19
509.524	327.53
509.956	261.99
510.389	285.4
510.821	343.91
511.253	301.78
511.685	313.49
512.117	266.67
512.549	287.74
512.981	250.29
513.412	290.08
513.844	292.42
514.276	334.55
514.707	287.74
515.139	311.14
515.571	318.17
516.002	290.08
516.433	320.51
516.865	301.78
517.296	350.93
517.727	290.08
518.159	318.17
518.59	336.89
519.021	285.4
519.452	301.78
519.883	276.04
520.314	261.99
520.744	285.4
521.175	343.91
521.606	304.12
522.037	311.14
522.467	322.85
522.898	301.78
523.328	339.23
523.759	334.55
524.189	383.7
524.62	315.83
525.05	299.44
525.48	355.62
525.91	325.19
526.341	285.4
526.771	311.14
527.201	341.57
527.631	350.93
528.061	301.78
528.49	386.04
528.92	313.49
529.35	292.42
529.78	348.59
530.209	271.36
530.639	360.3
531.068	320.51
531.498	308.8
531.927	313.49
532.357	318.17
532.786	334.55
533.215	322.85
533.644	313.49
534.074	320.51
534.503	336.89
534.932	353.27
535.361	343.91
535.79	273.7
536.218	276.04
536.647	304.12
537.076	362.64
537.505	297.1
537.933	290.08
538.362	259.65
538.79	278.38
539.219	343.91
539.647	292.42
540.076	261.99
540.504	278.38
540.932	306.46
541.36	306.46
541.788	304.12
542.217	336.89
542.645	343.91
543.073	311.14
543.5	311.14
543.928	348.59
544.356	313.49
544.784	339.23
545.211	266.67
545.639	266.67
546.067	257.31
546.494	283.06
546.922	276.04
547.349	348.59
547.776	343.91
548.204	287.74
548.631	364.98
549.058	301.78
549.485	336.89
549.912	390.72
550.339	283.06
550.766	327.53
551.193	294.76
551.62	318.17
552.047	269.02
552.474	318.17
552.9	322.85
553.327	320.51
553.754	346.25
554.18	353.27
554.607	290.08
555.033	334.55
555.459	299.44
555.886	318.17
556.312	287.74
556.738	299.44
557.164	292.42
557.59	332.21
558.016	257.31
558.442	273.7
558.868	318.17
559.294	299.44
559.72	269.02
560.145	325.19
560.571	313.49
560.997	341.57
561.422	308.8
561.848	273.7
562.273	292.42
562.699	273.7
563.124	315.83
563.549	379.02
563.974	332.21
564.4	308.8
564.825	243.27
565.25	343.91
565.675	240.93
566.1	297.1
566.525	304.12
566.95	266.67
567.374	311.14
567.799	287.74
568.224	311.14
568.648	292.42
569.073	311.14
569.497	271.36
569.922	264.33
570.346	294.76
570.771	290.08
571.195	299.44
571.619	299.44
572.043	379.02
572.467	320.51
572.891	346.25
573.315	364.98
573.739	318.17
574.163	367.32
574.587	276.04
575.011	336.89
575.435	336.89
575.858	257.31
576.282	313.49
576.705	320.51
577.129	332.21
577.552	336.89
577.976	297.1
578.399	311.14
578.822	294.76
579.245	297.1
579.669	327.53
580.092	306.46
580.515	257.31
580.938	320.51
581.361	329.87
581.784	285.4
582.206	297.1
582.629	292.42
583.052	266.67
583.474	294.76
583.897	329.87
584.32	278.38
584.742	360.3
585.165	343.91
585.587	273.7
586.009	257.31
586.431	325.19
586.854	311.14
587.276	339.23
587.698	271.36
588.12	339.23
588.542	343.91
588.964	257.31
589.386	266.67
589.807	266.67
590.229	322.85
590.651	320.51
591.073	306.46
591.494	301.78
591.916	297.1
592.337	334.55
592.759	285.4
593.18	315.83
593.601	313.49
594.022	278.38
594.444	348.59
594.865	301.78
595.286	334.55
595.707	278.38
596.128	306.46
596.549	280.72
596.97	280.72
597.39	315.83
597.811	292.42
598.232	320.51
598.652	318.17
599.073	332.21
599.494	269.02
599.914	280.72
600.334	294.76
600.755	224.55
601.175	236.25
601.595	325.19
602.015	280.72
602.436	278.38
602.856	416.47
603.276	313.49
603.696	348.59
604.115	346.25
604.535	343.91
604.955	301.78
605.375	264.33
605.794	299.44
606.214	290.08
606.634	315.83
607.053	304.12
607.473	350.93
607.892	308.8
608.311	299.44
608.731	245.61
609.15	334.55
609.569	269.02
609.988	346.25
610.407	332.21
610.826	313.49
611.245	334.55
611.664	301.78
612.083	341.57
612.501	348.59
612.92	301.78
613.339	245.61
613.757	313.49
614.176	287.74
614.594	285.4
615.013	336.89
615.431	332.21
615.85	283.06
616.268	292.42
616.686	348.59
617.104	280.72
617.522	320.51
617.94	261.99
618.358	318.17
618.776	327.53
619.194	322.85
619.612	304.12
620.03	276.04
620.447	327.53
620.865	308.8
621.282	306.46
621.7	339.23
622.117	372
622.535	308.8
622.952	318.17
623.369	273.7
623.787	393.06
624.204	367.32
624.621	369.66
625.038	346.25
625.455	266.67
625.872	271.36
626.289	257.31
626.706	343.91
627.123	332.21
627.539	334.55
627.956	313.49
628.373	329.87
628.789	292.42
629.206	311.14
629.622	348.59
630.038	329.87
630.455	341.57
630.871	332.21
631.287	318.17
631.703	280.72
632.12	350.93
632.536	320.51
632.952	334.55
633.368	341.57
633.783	271.36
634.199	343.91
634.615	374.34
635.031	320.51
635.446	301.78
635.862	369.66
636.277	320.51
636.693	322.85
637.108	276.04
637.524	336.89
637.939	301.78
638.354	271.36
638.77	287.74
639.185	306.46
639.6	252.63
640.015	299.44
640.43	332.21
640.845	283.06
641.259	343.91
641.674	266.67
642.089	280.72
642.504	297.1
642.918	285.4
643.333	315.83
643.747	273.7
644.162	266.67
644.576	311.14
644.991	245.61
645.405	381.36
645.819	299.44
646.233	306.46
646.647	313.49
647.061	299.44
647.475	292.42
647.889	299.44
648.303	329.87
648.717	306.46
649.131	299.44
649.545	276.04
649.958	304.12
650.372	261.99
650.785	315.83
651.199	247.95
651.612	325.19
652.026	325.19
652.439	280.72
652.852	329.87
653.266	297.1
653.679	301.78
654.092	381.36
654.505	313.49
654.918	332.21
655.331	311.14
655.744	322.85
656.156	278.38
656.569	376.68
656.982	292.42
657.394	210.5
657.807	292.42
658.22	353.27
658.632	261.99
659.044	322.85
659.457	287.74
659.869	266.67
660.281	278.38
660.693	261.99
661.106	278.38
661.518	264.33
661.93	329.87
662.342	278.38
662.754	257.31
663.165	292.42
663.577	304.12
663.989	299.44
664.401	348.59
664.812	315.83
665.224	276.04
665.635	287.74
666.047	261.99
666.458	276.04
666.869	334.55
667.281	264.33
667.692	320.51
668.103	364.98
668.514	353.27
668.925	348.59
669.336	304.12
669.747	299.44
670.158	322.85
670.569	301.78
670.979	294.76
671.39	259.65
671.801	271.36
672.211	240.93
672.622	322.85
673.032	357.96
673.443	315.83
673.853	322.85
674.263	311.14
674.674	320.51
675.084	233.91
675.494	315.83
675.904	297.1
676.314	247.95
676.724	374.34
677.134	327.53
677.544	320.51
677.953	306.46
678.363	357.96
678.773	327.53
679.182	374.34
679.592	346.25
680.001	311.14
680.411	341.57
680.82	332.21
681.23	304.12
681.639	285.4
682.048	285.4
682.457	259.65
682.866	343.91
683.275	212.84
683.684	254.97
684.093	301.78
684.502	301.78
684.911	348.59
685.32	301.78
685.728	271.36
686.137	374.34
686.546	318.17
686.954	280.72
687.363	322.85
687.771	313.49
688.179	280.72
688.588	294.76
688.996	369.66
689.404	301.78
689.812	329.87
690.22	299.44
690.628	334.55
691.036	306.46
691.444	294.76
691.852	285.4
692.26	276.04
692.667	292.42
693.075	283.06
693.483	320.51
693.89	250.29
694.298	278.38
694.705	285.4
695.112	379.02
695.52	313.49
695.927	297.1
696.334	254.97
696.741	292.42
697.148	269.02
697.555	240.93
697.962	297.1
698.369	285.4
698.776	271.36
699.183	329.87
699.59	254.97
699.996	283.06
700.403	329.87
700.81	276.04
701.216	285.4
701.623	327.53
702.029	355.62
702.435	271.36
702.842	283.06
703.248	301.78
703.654	318.17
704.06	238.59
704.466	285.4
704.872	341.57
705.278	280.72
705.684	327.53
706.09	259.65
706.496	301.78
706.901	357.96
707.307	313.49
707.712	336.89
708.118	357.96
708.523	290.08
708.929	285.4
709.334	334.55
709.74	327.53
710.145	346.25
710.55	322.85
710.955	311.14
711.36	254.97
711.765	313.49
712.17	304.12
712.575	306.46
712.98	823.72
713.385	336.89
713.789	329.87
714.194	339.23
714.599	320.51
715.003	322.85
715.408	350.93
715.812	294.76
716.217	304.12
716.621	266.67
717.025	315.83
717.429	301.78
717.833	254.97
718.238	311.14
718.642	353.27
719.046	311.14
719.449	276.04
719.853	294.76
720.257	266.67
720.661	278.38
721.065	280.72
721.468	264.33
721.872	283.06
722.275	395.4
722.679	292.42
723.082	266.67
723.485	350.93
723.889	261.99
724.292	318.17
724.695	308.8
725.098	240.93
725.501	325.19
725.904	360.3
726.307	318.17
726.71	346.25
727.113	273.7
727.516	236.25
727.918	315.83
728.321	336.89
728.724	332.21
729.126	318.17
729.529	304.12
729.931	329.87
730.333	383.7
730.736	311.14
731.138	313.49
731.54	269.02
731.942	318.17
732.344	336.89
732.746	257.31
733.148	245.61
733.55	301.78
733.952	346.25
734.354	308.8
734.756	311.14
735.157	327.53
735.559	318.17
735.96	280.72
736.362	304.12
736.763	355.62
737.165	294.76
737.566	299.44
737.967	327.53
738.368	264.33
738.77	271.36
739.171	269.02
739.572	290.08
739.973	318.17
740.374	318.17
740.774	341.57
741.175	301.78
741.576	304.12
741.977	229.23
742.377	313.49
742.778	301.78
743.178	285.4
743.579	259.65
743.979	222.2
744.379	240.93
744.78	294.76
745.18	264.33
745.58	353.27
745.98	292.42
746.38	292.42
746.78	269.02
747.18	252.63
747.58	287.74
747.98	271.36
748.38	247.95
748.779	315.83
749.179	308.8
749.578	329.87
749.978	266.67
750.377	273.7
750.777	334.55
751.176	280.72
751.575	318.17
751.975	325.19
752.374	313.49
752.773	339.23
753.172	285.4
753.571	276.04
753.97	320.51
754.369	297.1
754.768	308.8
755.166	297.1
755.565	306.46
755.964	285.4
756.362	357.96
756.761	308.8
757.159	386.04
757.558	315.83
757.956	372
758.354	402.43
758.753	304.12
759.151	285.4
759.549	264.33
759.947	283.06
760.345	285.4
760.743	343.91
761.141	386.04
761.539	313.49
761.936	322.85
762.334	343.91
762.732	343.91
763.129	341.57
763.527	329.87
763.924	283.06
764.322	315.83
764.719	311.14
765.117	292.42
765.514	299.44
765.911	318.17
766.308	217.52
766.705	299.44
767.102	304.12
767.499	313.49
767.896	332.21
768.293	276.04
768.69	299.44
769.086	287.74
769.483	254.97
769.88	353.27
770.276	306.46
770.673	379.02
771.069	348.59
771.466	304.12
771.862	278.38
772.258	301.78
772.654	348.59
773.05	341.57
773.447	315.83
773.843	315.83
774.239	261.99
774.634	294.76
775.03	325.19
775.426	315.83
775.822	283.06
776.218	346.25
776.613	357.96
777.009	325.19
777.404	348.59
777.8	294.76
778.195	383.7
778.59	346.25
778.986	325.19
779.381	299.44
779.776	348.59
780.171	294.76
780.566	407.11
780.961	334.55
781.356	252.63
781.751	322.85
782.146	320.51
782.54	254.97
782.935	283.06
783.33	266.67
783.724	259.65
784.119	308.8
784.513	308.8
784.908	308.8
785.302	264.33
785.696	273.7
786.09	313.49
786.485	299.44
786.879	299.44
787.273	322.85
787.667	266.67
788.061	306.46
788.454	322.85
788.848	285.4
789.242	311.14
789.636	376.68
790.029	245.61
790.423	353.27
790.816	283.06
791.21	313.49
791.603	318.17
791.997	299.44
792.39	311.14
792.783	322.85
793.176	292.42
793.569	280.72
793.962	360.3
794.355	313.49
794.748	273.7
795.141	304.12
795.534	247.95
795.927	287.74
796.319	292.42
796.712	318.17
797.105	287.74
797.497	287.74
797.89	301.78
798.282	308.8
798.674	299.44
799.067	348.59
799.459	297.1
799.851	280.72
800.243	364.98
800.635	304.12
801.027	336.89
801.419	283.06
801.811	266.67
802.203	257.31
802.594	343.91
802.986	336.89
803.378	350.93
803.769	250.29
804.161	287.74
804.552	320.51
804.944	336.89
805.335	245.61
805.726	306.46
806.118	254.97
806.509	285.4
806.9	299.44
807.291	299.44
807.682	343.91
808.073	308.8
808.464	325.19
808.855	322.85
809.245	294.76
809.636	334.55
810.027	332.21
810.417	325.19
810.808	301.78
811.198	311.14
811.589	301.78
811.979	306.46
812.369	315.83
812.759	355.62
813.15	243.27
813.54	336.89
813.93	273.7
814.32	283.06
814.71	238.59
815.1	271.36
815.489	261.99
815.879	276.04
816.269	285.4
816.658	325.19
817.048	308.8
817.438	332.21
817.827	367.32
818.216	381.36
818.606	297.1
818.995	322.85
819.384	311.14
819.773	290.08
820.163	292.42
820.552	264.33
820.941	283.06
821.33	276.04
821.718	336.89
822.107	308.8
822.496	294.76
822.885	313.49
823.273	339.23
823.662	322.85
824.05	304.12
824.439	315.83
824.827	320.51
825.216	299.44
825.604	339.23
825.992	325.19
826.38	283.06
826.768	252.63
827.156	210.5
827.544	271.36
827.932	301.78
828.32	308.8
828.708	290.08
829.096	306.46
829.483	285.4
829.871	327.53
830.259	238.59
830.646	313.49
831.034	297.1
831.421	329.87
831.808	285.4
832.196	278.38
832.583	287.74
832.97	301.78
833.357	327.53
833.744	339.23
834.131	292.42
834.518	339.23
834.905	294.76
835.292	266.67
835.678	313.49
836.065	257.31
836.452	285.4
836.838	301.78
837.225	343.91
837.611	301.78
837.998	292.42
838.384	362.64
838.77	294.76
839.157	287.74
839.543	299.44
839.929	346.25
840.315	334.55
840.701	343.91
841.087	283.06
841.473	411.79
841.858	261.99
842.244	292.42
842.63	269.02
843.015	332.21
843.401	617.76
843.787	346.25
844.172	346.25
844.557	315.83
844.943	203.48
845.328	346.25
845.713	238.59
846.098	355.62
846.483	231.57
846.868	287.74
847.253	318.17
847.638	236.25
848.023	299.44
848.408	329.87
848.793	334.55
849.177	346.25
849.562	360.3
849.947	271.36
850.331	355.62
850.715	306.46
851.1	346.25
851.484	283.06
851.868	294.76
852.253	327.53
852.637	320.51
853.021	280.72
853.405	290.08
853.789	269.02
854.173	266.67
854.557	327.53
854.94	299.44
855.324	276.04
855.708	343.91
856.091	245.61
856.475	252.63
856.858	369.66
857.242	320.51
857.625	353.27
858.009	252.63
858.392	290.08
858.775	250.29
859.158	229.23
859.541	287.74
859.924	257.31
860.307	313.49
860.69	278.38
861.073	297.1
861.456	264.33
861.838	269.02
862.221	254.97
862.604	273.7
862.986	287.74
863.369	318.17
863.751	334.55
864.133	327.53
864.516	350.93
864.898	414.13
865.28	350.93
865.662	306.46
866.044	271.36
866.426	283.06
866.808	313.49
867.19	315.83
867.572	339.23
867.954	336.89
868.336	266.67
868.717	315.83
869.099	334.55
869.48	360.3
869.862	346.25
870.243	325.19
870.625	283.06
871.006	278.38
871.387	222.2
871.768	304.12
872.149	367.32
872.53	346.25
872.911	283.06
873.292	320.51
873.673	283.06
874.054	266.67
874.435	304.12
874.815	318.17
875.196	285.4
875.577	271.36
875.957	269.02
876.338	283.06
876.718	257.31
877.098	376.68
877.479	290.08
877.859	334.55
878.239	318.17
878.619	269.02
878.999	308.8
879.379	374.34
879.759	315.83
880.139	280.72
880.519	301.78
880.898	261.99
881.278	224.55
881.658	297.1
882.037	294.76
882.417	243.27
882.796	290.08
883.176	304.12
883.555	306.46
883.934	292.42
884.313	308.8
884.693	243.27
885.072	301.78
885.451	311.14
885.83	350.93
886.209	332.21
886.587	332.21
886.966	308.8
887.345	271.36
887.724	315.83
888.102	278.38
888.481	325.19
888.859	332.21
889.238	318.17
889.616	306.46
889.994	329.87
890.373	311.14
890.751	259.65
891.129	252.63
891.507	343.91
891.885	243.27
892.263	304.12
892.641	264.33
893.019	261.99
893.396	259.65
893.774	313.49
894.152	245.61
894.529	327.53
894.907	261.99
895.284	311.14
895.662	348.59
896.039	294.76
896.416	327.53
896.794	280.72
897.171	304.12
897.548	336.89
897.925	306.46
898.302	271.36
898.679	238.59
899.056	240.93
899.433	266.67
899.809	264.33
900.186	299.44
900.563	254.97
900.939	245.61
901.316	269.02
901.692	304.12
902.069	252.63
902.445	304.12
902.821	327.53
903.197	283.06
903.574	269.02
903.95	276.04
904.326	292.42
904.702	285.4
905.078	313.49
905.454	315.83
905.829	269.02
906.205	290.08
906.581	245.61
906.956	245.61
907.332	315.83
907.707	273.7
908.083	318.17
908.458	271.36
908.833	261.99
909.209	259.65
909.584	318.17
909.959	271.36
910.334	332.21
910.709	276.04
911.084	311.14
911.459	285.4
911.834	266.67
912.209	283.06
912.583	250.29
912.958	350.93
913.333	250.29
913.707	273.7
914.082	285.4
914.456	301.78
914.83	292.42
915.205	264.33
915.579	336.89
915.953	315.83
916.327	341.57
916.701	280.72
917.075	276.04
917.449	290.08
917.823	231.57
918.197	297.1
918.571	276.04
918.944	273.7
919.318	322.85
919.692	250.29
920.065	278.38
920.438	353.27
920.812	285.4
921.185	250.29
921.558	217.52
921.932	301.78
922.305	325.19
922.678	208.16
923.051	297.1
923.424	346.25
923.797	294.76
924.17	301.78
924.542	355.62
924.915	278.38
925.288	397.74
925.661	273.7
926.033	308.8
926.406	294.76
926.778	320.51
927.15	273.7
927.523	313.49
927.895	294.76
928.267	283.06
928.639	304.12
929.011	313.49
929.383	306.46
929.755	283.06
930.127	290.08
930.499	297.1
930.871	297.1
931.242	339.23
931.614	290.08
931.986	299.44
932.357	283.06
932.729	278.38
933.1	257.31
933.471	224.55
933.843	313.49
934.214	318.17
934.585	334.55
934.956	334.55
935.327	304.12
935.698	306.46
936.069	290.08
936.44	297.1
936.811	259.65
937.182	259.65
937.552	348.59
937.923	308.8
938.293	329.87
938.664	287.74
939.034	311.14
939.405	322.85
939.775	327.53
940.145	252.63
940.516	297.1
940.886	346.25
941.256	283.06
941.626	341.57
941.996	350.93
942.366	329.87
942.735	271.36
943.105	341.57
943.475	320.51
943.845	250.29
944.214	299.44
944.584	341.57
944.953	315.83
945.323	271.36
945.692	236.25
946.061	346.25
946.43	273.7
946.8	292.42
947.169	285.4
947.538	261.99
947.907	308.8
948.276	322.85
948.645	266.67
949.013	269.02
949.382	285.4
949.751	266.67
950.119	301.78
950.488	306.46
950.857	292.42
951.225	325.19
951.593	334.55
951.962	346.25
952.33	254.97
952.698	318.17
953.066	269.02
953.434	278.38
953.802	308.8
954.17	346.25
954.538	247.95
954.906	278.38
955.274	283.06
955.642	266.67
956.009	304.12
956.377	287.74
956.744	292.42
957.112	318.17
957.479	306.46
957.847	278.38
958.214	320.51
958.581	350.93
958.948	299.44
959.315	236.25
959.683	278.38
960.05	247.95
960.416	273.7
960.783	290.08
961.15	290.08
961.517	320.51
961.884	269.02
962.25	299.44
962.617	247.95
962.983	261.99
963.35	332.21
963.716	315.83
964.082	322.85
964.449	283.06
964.815	308.8
965.181	273.7
965.547	306.46
965.913	283.06
966.279	238.59
966.645	407.11
967.011	308.8
967.377	269.02
967.742	322.85
968.108	329.87
968.474	315.83
968.839	243.27
969.205	283.06
969.57	325.19
969.935	327.53
970.301	240.93
970.666	308.8
971.031	308.8
971.396	283.06
971.761	304.12
972.126	320.51
972.491	327.53
972.856	290.08
973.221	308.8
973.586	254.97
973.95	350.93
974.315	336.89
974.679	294.76
975.044	341.57
975.408	313.49
975.773	343.91
976.137	332.21
976.501	278.38
976.866	264.33
977.23	315.83
977.594	353.27
977.958	334.55
978.322	208.16
978.686	271.36
979.049	259.65
979.413	273.7
979.777	283.06
980.141	247.95
980.504	294.76
980.868	301.78
981.231	350.93
981.595	294.76
981.958	273.7
982.321	297.1
982.684	299.44
983.048	315.83
983.411	226.89
983.774	332.21
984.137	343.91
984.5	350.93
984.862	311.14
985.225	238.59
985.588	250.29
985.951	254.97
986.313	301.78
986.676	280.72
987.038	297.1
987.401	315.83
987.763	304.12
988.125	285.4
988.488	261.99
988.85	315.83
989.212	250.29
989.574	306.46
989.936	278.38
990.298	285.4
990.66	357.96
991.022	283.06
991.383	245.61
991.745	311.14
992.107	325.19
992.468	290.08
992.83	318.17
993.191	294.76
993.553	285.4
993.914	259.65
994.275	308.8
994.637	280.72
994.998	339.23
995.359	311.14
995.72	311.14
996.081	266.67
996.442	290.08
996.803	313.49
997.163	294.76
997.524	299.44
997.885	259.65
998.245	322.85
998.606	311.14
998.966	283.06
999.327	233.91
999.687	269.02
1000.047	301.78
1000.408	285.4
1000.768	304.12
1001.128	276.04
1001.488	264.33
1001.848	299.44
1002.208	264.33
1002.568	236.25
1002.927	273.7
1003.287	294.76
1003.647	360.3
1004.007	280.72
1004.366	332.21
1004.726	308.8
1005.085	315.83
1005.444	306.46
1005.804	313.49
1006.163	297.1
1006.522	322.85
1006.881	273.7
1007.24	348.59
1007.599	348.59
1007.958	269.02
1008.317	329.87
1008.676	266.67
1009.035	346.25
1009.393	327.53
1009.752	311.14
1010.111	243.27
1010.469	231.57
1010.828	257.31
1011.186	280.72
1011.544	383.7
1011.903	313.49
1012.261	306.46
1012.619	320.51
1012.977	327.53
1013.335	341.57
1013.693	273.7
1014.051	231.57
1014.409	276.04
1014.767	290.08
1015.124	339.23
1015.482	336.89
1015.84	301.78
1016.197	315.83
1016.555	299.44
1016.912	252.63
1017.269	257.31
1017.627	346.25
1017.984	269.02
1018.341	290.08
1018.698	290.08
1019.055	315.83
1019.412	299.44
1019.769	297.1
1020.126	308.8
1020.483	247.95
1020.84	226.89
1021.196	276.04
1021.553	250.29
1021.909	299.44
1022.266	297.1
1022.622	313.49
1022.979	273.7
1023.335	254.97
1023.691	276.04
1024.047	273.7
1024.404	194.12
1024.76	257.31
1025.116	294.76
1025.472	353.27
1025.827	308.8
1026.183	283.06
1026.539	315.83
1026.895	334.55
1027.25	306.46
1027.606	327.53
1027.961	299.44
1028.317	320.51
1028.672	264.33
1029.028	273.7
1029.383	322.85
1029.738	304.12
1030.093	266.67
1030.448	313.49
1030.803	285.4
1031.158	311.14
1031.513	306.46
1031.868	315.83
1032.223	320.51
1032.577	203.48
1032.932	318.17
1033.287	287.74
1033.641	357.96
1033.996	299.44
1034.35	287.74
1034.704	299.44
1035.059	283.06
1035.413	271.36
1035.767	271.36
1036.121	271.36
