Data from Al_FLMS009871__707__15-09-05-434.txt Node

Date: Fri Mar 08 15:09:05 CST 2024
User: pe5414po
Spectrometer: FLMS00987
Trigger mode: 0
Integration Time (sec): 1.000000E-1
Scans to average: 1
Electric dark correction enabled: true
Nonlinearity correction enabled: false
Boxcar width: 0
XAxis mode: Wavelengths
Number of Pixels in Spectrum: 2048
>>>>>Begin Spectral Data<<<<<
188.938	-22.38
189.409	-22.38
189.879	-22.38
190.349	-57.49
190.819	-87.92
191.29	-101.96
191.76	-116
192.23	-62.17
192.7	-101.96
193.17	-73.87
193.64	-52.81
194.109	-50.47
194.579	3.36
195.049	40.81
195.519	36.13
195.988	50.18
196.458	43.15
196.927	111.03
197.397	96.99
197.866	94.65
198.336	82.94
198.805	136.78
199.274	235.08
199.744	204.65
200.213	251.46
200.682	272.53
201.151	253.8
201.62	209.33
202.089	244.44
202.558	305.29
203.027	302.95
203.495	270.19
203.964	228.06
204.433	260.82
204.902	291.25
205.37	265.5
205.839	338.06
206.307	274.87
206.776	324.02
207.244	293.59
207.712	293.59
208.181	307.63
208.649	302.95
209.117	352.1
209.585	302.95
210.053	274.87
210.521	319.34
210.989	331.04
211.457	295.93
211.925	307.63
212.393	312.32
212.861	354.44
213.328	274.87
213.796	305.29
214.264	267.85
214.731	242.1
215.199	230.4
215.666	228.06
216.133	295.93
216.601	300.61
217.068	305.29
217.535	225.72
218.003	218.69
218.47	263.16
218.937	274.87
219.404	324.02
219.871	251.46
220.338	265.5
220.805	279.55
221.271	359.13
221.738	239.76
222.205	295.93
222.671	265.5
223.138	281.89
223.605	317
224.071	239.76
224.538	225.72
225.004	232.74
225.47	209.33
225.937	267.85
226.403	309.97
226.869	354.44
227.335	324.02
227.801	363.81
228.267	338.06
228.733	270.19
229.199	319.34
229.665	258.48
230.131	230.4
230.597	274.87
231.062	235.08
231.528	279.55
231.994	295.93
232.459	244.44
232.925	284.23
233.39	251.46
233.856	309.97
234.321	295.93
234.786	321.68
235.252	265.5
235.717	267.85
236.182	298.27
236.647	295.93
237.112	288.91
237.577	340.4
238.042	286.57
238.507	314.66
238.972	272.53
239.436	305.29
239.901	279.55
240.366	309.97
240.83	291.25
241.295	279.55
241.76	291.25
242.224	361.47
242.688	302.95
243.153	317
243.617	244.44
244.081	368.49
244.545	267.85
245.01	298.27
245.474	309.97
245.938	256.14
246.402	270.19
246.866	239.76
247.33	300.61
247.793	270.19
248.257	284.23
248.721	244.44
249.185	225.72
249.648	209.33
250.112	338.06
250.575	274.87
251.039	260.82
251.502	293.59
251.965	321.68
252.429	251.46
252.892	288.91
253.355	333.38
253.818	279.55
254.281	274.87
254.744	338.06
255.207	267.85
255.67	300.61
256.133	295.93
256.596	340.4
257.059	232.74
257.522	300.61
257.984	218.69
258.447	277.21
258.909	274.87
259.372	258.48
259.834	349.76
260.297	321.68
260.759	347.42
261.221	326.36
261.684	291.25
262.146	302.95
262.608	274.87
263.07	326.36
263.532	286.57
263.994	218.69
264.456	335.72
264.918	260.82
265.38	384.87
265.842	281.89
266.303	298.27
266.765	295.93
267.227	324.02
267.688	317
268.15	321.68
268.611	366.15
269.072	263.16
269.534	295.93
269.995	277.21
270.456	256.14
270.918	260.82
271.379	307.63
271.84	253.8
272.301	338.06
272.762	345.08
273.223	342.74
273.684	324.02
274.144	274.87
274.605	293.59
275.066	244.44
275.527	328.7
275.987	305.29
276.448	302.95
276.908	288.91
277.369	307.63
277.829	265.5
278.289	295.93
278.75	307.63
279.21	295.93
279.67	277.21
280.13	326.36
280.59	244.44
281.05	281.89
281.51	338.06
281.97	319.34
282.43	342.74
282.89	340.4
283.35	345.08
283.809	307.63
284.269	335.72
284.729	286.57
285.188	317
285.648	309.97
286.107	230.4
286.567	309.97
287.026	295.93
287.485	300.61
287.944	302.95
288.404	291.25
288.863	265.5
289.322	286.57
289.781	312.32
290.24	293.59
290.699	298.27
291.158	345.08
291.616	333.38
292.075	246.78
292.534	335.72
292.992	338.06
293.451	192.95
293.91	272.53
294.368	326.36
294.827	319.34
295.285	368.49
295.743	333.38
296.202	349.76
296.66	352.1
297.118	317
297.576	317
298.034	319.34
298.492	298.27
298.95	319.34
299.408	333.38
299.866	272.53
300.324	377.85
300.781	291.25
301.239	317
301.697	342.74
302.154	335.72
302.612	274.87
303.069	270.19
303.527	333.38
303.984	314.66
304.441	342.74
304.899	317
305.356	300.61
305.813	281.89
306.27	319.34
306.727	342.74
307.184	319.34
307.641	288.91
308.098	335.72
308.555	302.95
309.012	295.93
309.468	335.72
309.925	277.21
310.382	281.89
310.838	298.27
311.295	352.1
311.751	258.48
312.208	324.02
312.664	298.27
313.12	338.06
313.577	319.34
314.033	305.29
314.489	281.89
314.945	319.34
315.401	317
315.857	345.08
316.313	352.1
316.769	288.91
317.225	293.59
317.681	370.83
318.136	328.7
318.592	263.16
319.048	300.61
319.503	377.85
319.959	305.29
320.414	317
320.869	293.59
321.325	368.49
321.78	326.36
322.235	272.53
322.691	319.34
323.146	298.27
323.601	242.1
324.056	263.16
324.511	321.68
324.966	331.04
325.421	281.89
325.875	314.66
326.33	298.27
326.785	302.95
327.24	354.44
327.694	256.14
328.149	295.93
328.603	272.53
329.058	317
329.512	309.97
329.966	335.72
330.421	333.38
330.875	302.95
331.329	324.02
331.783	368.49
332.237	319.34
332.691	384.87
333.145	331.04
333.599	324.02
334.053	340.4
334.507	317
334.96	326.36
335.414	302.95
335.868	267.85
336.321	317
336.775	272.53
337.228	356.79
337.682	373.17
338.135	305.29
338.588	342.74
339.042	232.74
339.495	307.63
339.948	370.83
340.401	328.7
340.854	319.34
341.307	319.34
341.76	333.38
342.213	281.89
342.666	345.08
343.119	387.21
343.571	326.36
344.024	309.97
344.477	345.08
344.929	300.61
345.382	321.68
345.834	366.15
346.287	312.32
346.739	300.61
347.191	373.17
347.644	321.68
348.096	270.19
348.548	317
349	321.68
349.452	328.7
349.904	424.66
350.356	314.66
350.808	286.57
351.26	354.44
351.711	251.46
352.163	359.13
352.615	305.29
353.066	305.29
353.518	333.38
353.969	305.29
354.421	335.72
354.872	361.47
355.324	281.89
355.775	305.29
356.226	366.15
356.677	291.25
357.128	380.19
357.579	340.4
358.03	305.29
358.481	331.04
358.932	331.04
359.383	333.38
359.834	382.53
360.285	333.38
360.735	326.36
361.186	335.72
361.637	244.44
362.087	370.83
362.538	328.7
362.988	309.97
363.438	361.47
363.889	387.21
364.339	328.7
364.789	284.23
365.239	307.63
365.689	347.42
366.139	345.08
366.589	321.68
367.039	331.04
367.489	366.15
367.939	260.82
368.389	314.66
368.839	331.04
369.288	284.23
369.738	373.17
370.187	286.57
370.637	309.97
371.086	228.06
371.536	232.74
371.985	338.06
372.434	333.38
372.884	265.5
373.333	302.95
373.782	328.7
374.231	302.95
374.68	314.66
375.129	326.36
375.578	321.68
376.027	307.63
376.475	326.36
376.924	309.97
377.373	342.74
377.822	335.72
378.27	361.47
378.719	281.89
379.167	335.72
379.616	291.25
380.064	239.76
380.512	309.97
380.961	242.1
381.409	291.25
381.857	359.13
382.305	342.74
382.753	345.08
383.201	319.34
383.649	382.53
384.097	340.4
384.545	352.1
384.992	370.83
385.44	331.04
385.888	319.34
386.335	302.95
386.783	300.61
387.231	356.79
387.678	359.13
388.125	317
388.573	270.19
389.02	321.68
389.467	298.27
389.914	345.08
390.362	324.02
390.809	324.02
391.256	326.36
391.703	291.25
392.15	309.97
392.596	314.66
393.043	291.25
393.49	347.42
393.937	317
394.383	326.36
394.83	309.97
395.276	349.76
395.723	326.36
396.169	333.38
396.616	338.06
397.062	284.23
397.508	302.95
397.954	333.38
398.401	324.02
398.847	340.4
399.293	359.13
399.739	368.49
400.185	324.02
400.631	309.97
401.076	359.13
401.522	326.36
401.968	326.36
402.414	338.06
402.859	349.76
403.305	359.13
403.75	356.79
404.196	342.74
404.641	321.68
405.086	326.36
405.532	387.21
405.977	382.53
406.422	366.15
406.867	326.36
407.312	370.83
407.757	363.81
408.202	258.48
408.647	293.59
409.092	352.1
409.537	324.02
409.982	333.38
410.426	319.34
410.871	331.04
411.316	338.06
411.76	324.02
412.205	338.06
412.649	270.19
413.093	345.08
413.538	302.95
413.982	361.47
414.426	387.21
414.87	333.38
415.314	342.74
415.758	391.89
416.202	342.74
416.646	307.63
417.09	309.97
417.534	333.38
417.978	375.51
418.421	324.02
418.865	328.7
419.309	284.23
419.752	380.19
420.196	251.46
420.639	370.83
421.083	317
421.526	270.19
421.969	319.34
422.412	267.85
422.856	319.34
423.299	338.06
423.742	309.97
424.185	288.91
424.628	361.47
425.071	293.59
425.513	288.91
425.956	396.57
426.399	403.6
426.842	314.66
427.284	349.76
427.727	239.76
428.169	270.19
428.612	363.81
429.054	319.34
429.497	312.32
429.939	286.57
430.381	324.02
430.823	319.34
431.265	340.4
431.707	335.72
432.149	328.7
432.591	370.83
433.033	377.85
433.475	298.27
433.917	277.21
434.359	373.17
434.8	319.34
435.242	312.32
435.684	258.48
436.125	253.8
436.567	338.06
437.008	331.04
437.449	279.55
437.891	309.97
438.332	326.36
438.773	298.27
439.214	391.89
439.656	338.06
440.097	317
440.538	338.06
440.978	324.02
441.419	300.61
441.86	359.13
442.301	342.74
442.742	391.89
443.182	324.02
443.623	302.95
444.063	345.08
444.504	295.93
444.944	305.29
445.385	394.23
445.825	293.59
446.265	338.06
446.706	295.93
447.146	314.66
447.586	359.13
448.026	363.81
448.466	312.32
448.906	370.83
449.346	314.66
449.786	302.95
450.225	286.57
450.665	345.08
451.105	314.66
451.544	403.6
451.984	331.04
452.424	314.66
452.863	305.29
453.302	305.29
453.742	312.32
454.181	340.4
454.62	277.21
455.059	305.29
455.499	352.1
455.938	382.53
456.377	345.08
456.816	305.29
457.254	309.97
457.693	263.16
458.132	314.66
458.571	342.74
459.01	338.06
459.448	284.23
459.887	387.21
460.325	300.61
460.764	295.93
461.202	326.36
461.641	345.08
462.079	246.78
462.517	298.27
462.955	342.74
463.393	370.83
463.832	324.02
464.27	405.94
464.708	352.1
465.145	277.21
465.583	328.7
466.021	338.06
466.459	340.4
466.897	380.19
467.334	342.74
467.772	349.76
468.209	354.44
468.647	331.04
469.084	352.1
469.522	295.93
469.959	321.68
470.396	277.21
470.833	307.63
471.271	324.02
471.708	370.83
472.145	377.85
472.582	319.34
473.019	342.74
473.456	394.23
473.892	342.74
474.329	349.76
474.766	387.21
475.202	338.06
475.639	363.81
476.076	333.38
476.512	326.36
476.949	354.44
477.385	302.95
477.821	366.15
478.258	324.02
478.694	380.19
479.13	319.34
479.566	368.49
480.002	387.21
480.438	281.89
480.874	267.85
481.31	377.85
481.746	382.53
482.181	345.08
482.617	359.13
483.053	347.42
483.488	419.98
483.924	361.47
484.36	328.7
484.795	307.63
485.23	279.55
485.666	361.47
486.101	295.93
486.536	321.68
486.971	324.02
487.407	333.38
487.842	356.79
488.277	352.1
488.712	359.13
489.146	324.02
489.581	324.02
490.016	293.59
490.451	277.21
490.885	340.4
491.32	314.66
491.755	300.61
492.189	331.04
492.624	305.29
493.058	349.76
493.492	389.55
493.927	340.4
494.361	312.32
494.795	384.87
495.229	317
495.663	338.06
496.097	363.81
496.531	368.49
496.965	302.95
497.399	263.16
497.833	340.4
498.266	314.66
498.7	317
499.134	321.68
499.567	274.87
500.001	434.02
500.434	333.38
500.868	380.19
501.301	410.62
501.734	302.95
502.168	340.4
502.601	291.25
503.034	277.21
503.467	295.93
503.9	312.32
504.333	307.63
504.766	298.27
505.199	394.23
505.632	324.02
506.064	354.44
506.497	356.79
506.93	333.38
507.362	321.68
507.795	314.66
508.227	295.93
508.66	312.32
509.092	361.47
509.524	354.44
509.956	333.38
510.389	333.38
510.821	335.72
511.253	352.1
511.685	305.29
512.117	380.19
512.549	361.47
512.981	333.38
513.412	300.61
513.844	338.06
514.276	338.06
514.707	328.7
515.139	347.42
515.571	321.68
516.002	387.21
516.433	349.76
516.865	354.44
517.296	335.72
517.727	340.4
518.159	359.13
518.59	349.76
519.021	309.97
519.452	324.02
519.883	349.76
520.314	349.76
520.744	349.76
521.175	387.21
521.606	328.7
522.037	265.5
522.467	302.95
522.898	345.08
523.328	363.81
523.759	363.81
524.189	321.68
524.62	256.14
525.05	300.61
525.48	347.42
525.91	281.89
526.341	317
526.771	354.44
527.201	293.59
527.631	326.36
528.061	298.27
528.49	366.15
528.92	342.74
529.35	284.23
529.78	347.42
530.209	370.83
530.639	293.59
531.068	309.97
531.498	312.32
531.927	331.04
532.357	324.02
532.786	307.63
533.215	354.44
533.644	335.72
534.074	317
534.503	314.66
534.932	366.15
535.361	281.89
535.79	324.02
536.218	314.66
536.647	300.61
537.076	321.68
537.505	368.49
537.933	347.42
538.362	347.42
538.79	373.17
539.219	312.32
539.647	331.04
540.076	321.68
540.504	331.04
540.932	333.38
541.36	312.32
541.788	335.72
542.217	335.72
542.645	363.81
543.073	281.89
543.5	302.95
543.928	338.06
544.356	370.83
544.784	286.57
545.211	340.4
545.639	363.81
546.067	312.32
546.494	333.38
546.922	314.66
547.349	312.32
547.776	356.79
548.204	345.08
548.631	338.06
549.058	375.51
549.485	307.63
549.912	359.13
550.339	333.38
550.766	387.21
551.193	317
551.62	300.61
552.047	270.19
552.474	352.1
552.9	270.19
553.327	314.66
553.754	373.17
554.18	324.02
554.607	300.61
555.033	300.61
555.459	286.57
555.886	314.66
556.312	319.34
556.738	349.76
557.164	345.08
557.59	319.34
558.016	338.06
558.442	312.32
558.868	312.32
559.294	328.7
559.72	288.91
560.145	279.55
560.571	401.26
560.997	317
561.422	298.27
561.848	375.51
562.273	295.93
562.699	347.42
563.124	328.7
563.549	319.34
563.974	251.46
564.4	333.38
564.825	387.21
565.25	317
565.675	312.32
566.1	380.19
566.525	347.42
566.95	293.59
567.374	347.42
567.799	335.72
568.224	319.34
568.648	340.4
569.073	298.27
569.497	326.36
569.922	314.66
570.346	321.68
570.771	331.04
571.195	295.93
571.619	384.87
572.043	305.29
572.467	321.68
572.891	363.81
573.315	305.29
573.739	335.72
574.163	253.8
574.587	321.68
575.011	361.47
575.435	342.74
575.858	408.28
576.282	312.32
576.705	391.89
577.129	333.38
577.552	366.15
577.976	366.15
578.399	284.23
578.822	361.47
579.245	324.02
579.669	419.98
580.092	251.46
580.515	321.68
580.938	338.06
581.361	389.55
581.784	286.57
582.206	324.02
582.629	293.59
583.052	317
583.474	324.02
583.897	324.02
584.32	300.61
584.742	298.27
585.165	305.29
585.587	380.19
586.009	347.42
586.431	312.32
586.854	309.97
587.276	314.66
587.698	333.38
588.12	307.63
588.542	363.81
588.964	410.62
589.386	338.06
589.807	361.47
590.229	361.47
590.651	366.15
591.073	389.55
591.494	307.63
591.916	314.66
592.337	375.51
592.759	274.87
593.18	352.1
593.601	314.66
594.022	356.79
594.444	284.23
594.865	363.81
595.286	352.1
595.707	286.57
596.128	335.72
596.549	335.72
596.97	314.66
597.39	258.48
597.811	366.15
598.232	356.79
598.652	249.12
599.073	375.51
599.494	309.97
599.914	331.04
600.334	377.85
600.755	272.53
601.175	307.63
601.595	345.08
602.015	317
602.436	368.49
602.856	494.88
603.276	319.34
603.696	314.66
604.115	338.06
604.535	335.72
604.955	295.93
605.375	331.04
605.794	338.06
606.214	302.95
606.634	300.61
607.053	305.29
607.473	363.81
607.892	293.59
608.311	312.32
608.731	312.32
609.15	305.29
609.569	356.79
609.988	321.68
610.407	363.81
610.826	335.72
611.245	370.83
611.664	345.08
612.083	302.95
612.501	324.02
612.92	370.83
613.339	361.47
613.757	342.74
614.176	331.04
614.594	441.04
615.013	314.66
615.431	324.02
615.85	272.53
616.268	326.36
616.686	345.08
617.104	328.7
617.522	277.21
617.94	307.63
618.358	314.66
618.776	263.16
619.194	312.32
619.612	309.97
620.03	314.66
620.447	305.29
620.865	331.04
621.282	363.81
621.7	331.04
622.117	328.7
622.535	267.85
622.952	246.78
623.369	305.29
623.787	373.17
624.204	321.68
624.621	342.74
625.038	302.95
625.455	338.06
625.872	235.08
626.289	256.14
626.706	347.42
627.123	340.4
627.539	288.91
627.956	298.27
628.373	288.91
628.789	354.44
629.206	298.27
629.622	352.1
630.038	328.7
630.455	328.7
630.871	277.21
631.287	356.79
631.703	328.7
632.12	274.87
632.536	391.89
632.952	309.97
633.368	274.87
633.783	293.59
634.199	307.63
634.615	263.16
635.031	326.36
635.446	340.4
635.862	293.59
636.277	272.53
636.693	382.53
637.108	352.1
637.524	345.08
637.939	293.59
638.354	321.68
638.77	338.06
639.185	295.93
639.6	333.38
640.015	340.4
640.43	312.32
640.845	331.04
641.259	305.29
641.674	305.29
642.089	293.59
642.504	377.85
642.918	317
643.333	305.29
643.747	366.15
644.162	363.81
644.576	307.63
644.991	356.79
645.405	361.47
645.819	288.91
646.233	333.38
646.647	342.74
647.061	345.08
647.475	286.57
647.889	286.57
648.303	286.57
648.717	305.29
649.131	300.61
649.545	333.38
649.958	286.57
650.372	267.85
650.785	314.66
651.199	387.21
651.612	370.83
652.026	291.25
652.439	305.29
652.852	309.97
653.266	359.13
653.679	291.25
654.092	359.13
654.505	347.42
654.918	312.32
655.331	298.27
655.744	265.5
656.156	340.4
656.569	284.23
656.982	340.4
657.394	300.61
657.807	340.4
658.22	288.91
658.632	387.21
659.044	274.87
659.457	288.91
659.869	331.04
660.281	295.93
660.693	312.32
661.106	317
661.518	295.93
661.93	298.27
662.342	263.16
662.754	345.08
663.165	375.51
663.577	338.06
663.989	328.7
664.401	345.08
664.812	366.15
665.224	331.04
665.635	326.36
666.047	312.32
666.458	281.89
666.869	302.95
667.281	307.63
667.692	319.34
668.103	368.49
668.514	302.95
668.925	396.57
669.336	333.38
669.747	307.63
670.158	326.36
670.569	321.68
670.979	345.08
671.39	333.38
671.801	366.15
672.211	324.02
672.622	396.57
673.032	352.1
673.443	286.57
673.853	274.87
674.263	347.42
674.674	340.4
675.084	384.87
675.494	384.87
675.904	335.72
676.314	326.36
676.724	405.94
677.134	312.32
677.544	419.98
677.953	347.42
678.363	370.83
678.773	326.36
679.182	335.72
679.592	333.38
680.001	274.87
680.411	366.15
680.82	319.34
681.23	272.53
681.639	324.02
682.048	335.72
682.457	312.32
682.866	340.4
683.275	326.36
683.684	342.74
684.093	319.34
684.502	321.68
684.911	307.63
685.32	267.85
685.728	347.42
686.137	326.36
686.546	331.04
686.954	328.7
687.363	352.1
687.771	293.59
688.179	324.02
688.588	331.04
688.996	363.81
689.404	305.29
689.812	307.63
690.22	356.79
690.628	345.08
691.036	333.38
691.444	309.97
691.852	333.38
692.26	284.23
692.667	324.02
693.075	319.34
693.483	326.36
693.89	328.7
694.298	298.27
694.705	319.34
695.112	331.04
695.52	286.57
695.927	349.76
696.334	366.15
696.741	349.76
697.148	335.72
697.555	324.02
697.962	260.82
698.369	321.68
698.776	307.63
699.183	249.12
699.59	319.34
699.996	356.79
700.403	359.13
700.81	309.97
701.216	380.19
701.623	335.72
702.029	363.81
702.435	363.81
702.842	373.17
703.248	305.29
703.654	249.12
704.06	328.7
704.466	347.42
704.872	338.06
705.278	309.97
705.684	389.55
706.09	279.55
706.496	260.82
706.901	326.36
707.307	335.72
707.712	366.15
708.118	347.42
708.523	328.7
708.929	361.47
709.334	249.12
709.74	368.49
710.145	279.55
710.55	317
710.955	295.93
711.36	366.15
711.765	312.32
712.17	403.6
712.575	375.51
712.98	895.11
713.385	382.53
713.789	326.36
714.194	312.32
714.599	363.81
715.003	239.76
715.408	324.02
715.812	281.89
716.217	312.32
716.621	342.74
717.025	324.02
717.429	333.38
717.833	419.98
718.238	288.91
718.642	356.79
719.046	300.61
719.449	300.61
719.853	286.57
720.257	352.1
720.661	279.55
721.065	326.36
721.468	340.4
721.872	380.19
722.275	314.66
722.679	389.55
723.082	361.47
723.485	349.76
723.889	300.61
724.292	333.38
724.695	286.57
725.098	389.55
725.501	331.04
725.904	270.19
726.307	342.74
726.71	338.06
727.113	300.61
727.516	298.27
727.918	342.74
728.321	333.38
728.724	317
729.126	335.72
729.529	314.66
729.931	309.97
730.333	314.66
730.736	309.97
731.138	300.61
731.54	333.38
731.942	312.32
732.344	352.1
732.746	317
733.148	340.4
733.55	333.38
733.952	354.44
734.354	314.66
734.756	225.72
735.157	293.59
735.559	347.42
735.96	352.1
736.362	356.79
736.763	317
737.165	354.44
737.566	331.04
737.967	356.79
738.368	368.49
738.77	314.66
739.171	356.79
739.572	354.44
739.973	331.04
740.374	302.95
740.774	338.06
741.175	335.72
741.576	356.79
741.977	302.95
742.377	396.57
742.778	331.04
743.178	314.66
743.579	401.26
743.979	326.36
744.379	373.17
744.78	345.08
745.18	375.51
745.58	305.29
745.98	375.51
746.38	422.32
746.78	258.48
747.18	307.63
747.58	314.66
747.98	349.76
748.38	373.17
748.779	370.83
749.179	319.34
749.578	333.38
749.978	298.27
750.377	366.15
750.777	309.97
751.176	251.46
751.575	291.25
751.975	258.48
752.374	326.36
752.773	260.82
753.172	338.06
753.571	312.32
753.97	267.85
754.369	281.89
754.768	427
755.166	368.49
755.565	321.68
755.964	342.74
756.362	373.17
756.761	342.74
757.159	349.76
757.558	293.59
757.956	338.06
758.354	291.25
758.753	375.51
759.151	256.14
759.549	288.91
759.947	293.59
760.345	331.04
760.743	288.91
761.141	312.32
761.539	314.66
761.936	307.63
762.334	326.36
762.732	356.79
763.129	349.76
763.527	267.85
763.924	361.47
764.322	291.25
764.719	359.13
765.117	345.08
765.514	277.21
765.911	295.93
766.308	335.72
766.705	279.55
767.102	338.06
767.499	328.7
767.896	338.06
768.293	305.29
768.69	291.25
769.086	321.68
769.483	340.4
769.88	331.04
770.276	314.66
770.673	312.32
771.069	326.36
771.466	307.63
771.862	307.63
772.258	347.42
772.654	335.72
773.05	328.7
773.447	314.66
773.843	338.06
774.239	307.63
774.634	314.66
775.03	302.95
775.426	281.89
775.822	373.17
776.218	361.47
776.613	333.38
777.009	363.81
777.404	265.5
777.8	253.8
778.195	286.57
778.59	309.97
778.986	324.02
779.381	293.59
779.776	298.27
780.171	291.25
780.566	335.72
780.961	305.29
781.356	349.76
781.751	286.57
782.146	345.08
782.54	342.74
782.935	352.1
783.33	368.49
783.724	309.97
784.119	324.02
784.513	319.34
784.908	286.57
785.302	326.36
785.696	321.68
786.09	305.29
786.485	288.91
786.879	366.15
787.273	384.87
787.667	401.26
788.061	314.66
788.454	361.47
788.848	298.27
789.242	326.36
789.636	319.34
790.029	300.61
790.423	319.34
790.816	272.53
791.21	370.83
791.603	340.4
791.997	279.55
792.39	288.91
792.783	312.32
793.176	300.61
793.569	307.63
793.962	281.89
794.355	291.25
794.748	387.21
795.141	340.4
795.534	309.97
795.927	317
796.319	368.49
796.712	260.82
797.105	326.36
797.497	321.68
797.89	328.7
798.282	335.72
798.674	324.02
799.067	352.1
799.459	293.59
799.851	260.82
800.243	300.61
800.635	324.02
801.027	263.16
801.419	340.4
801.811	305.29
802.203	349.76
802.594	356.79
802.986	377.85
803.378	326.36
803.769	347.42
804.161	349.76
804.552	298.27
804.944	340.4
805.335	295.93
805.726	312.32
806.118	349.76
806.509	295.93
806.9	284.23
807.291	408.28
807.682	382.53
808.073	326.36
808.464	328.7
808.855	345.08
809.245	333.38
809.636	277.21
810.027	309.97
810.417	284.23
810.808	356.79
811.198	319.34
811.589	361.47
811.979	354.44
812.369	312.32
812.759	293.59
813.15	377.85
813.54	225.72
813.93	295.93
814.32	335.72
814.71	387.21
815.1	284.23
815.489	321.68
815.879	333.38
816.269	309.97
816.658	345.08
817.048	354.44
817.438	331.04
817.827	384.87
818.216	307.63
818.606	361.47
818.995	352.1
819.384	279.55
819.773	340.4
820.163	314.66
820.552	324.02
820.941	253.8
821.33	324.02
821.718	382.53
822.107	272.53
822.496	361.47
822.885	335.72
823.273	384.87
823.662	295.93
824.05	335.72
824.439	361.47
824.827	309.97
825.216	288.91
825.604	356.79
825.992	375.51
826.38	267.85
826.768	293.59
827.156	305.29
827.544	335.72
827.932	302.95
828.32	361.47
828.708	312.32
829.096	291.25
829.483	281.89
829.871	349.76
830.259	375.51
830.646	321.68
831.034	359.13
831.421	284.23
831.808	368.49
832.196	293.59
832.583	293.59
832.97	326.36
833.357	317
833.744	368.49
834.131	298.27
834.518	331.04
834.905	347.42
835.292	300.61
835.678	317
836.065	272.53
836.452	405.94
836.838	387.21
837.225	270.19
837.611	347.42
837.998	279.55
838.384	293.59
838.77	368.49
839.157	394.23
839.543	349.76
839.929	309.97
840.315	340.4
840.701	321.68
841.087	340.4
841.473	354.44
841.858	307.63
842.244	302.95
842.63	359.13
843.015	345.08
843.401	609.56
843.787	333.38
844.172	288.91
844.557	274.87
844.943	328.7
845.328	298.27
845.713	324.02
846.098	319.34
846.483	345.08
846.868	298.27
847.253	347.42
847.638	258.48
848.023	331.04
848.408	291.25
848.793	300.61
849.177	274.87
849.562	328.7
849.947	391.89
850.331	354.44
850.715	377.85
851.1	363.81
851.484	340.4
851.868	309.97
852.253	314.66
852.637	312.32
853.021	291.25
853.405	288.91
853.789	302.95
854.173	342.74
854.557	359.13
854.94	293.59
855.324	328.7
855.708	312.32
856.091	347.42
856.475	363.81
856.858	302.95
857.242	288.91
857.625	312.32
858.009	274.87
858.392	277.21
858.775	354.44
859.158	281.89
859.541	284.23
859.924	401.26
860.307	366.15
860.69	347.42
861.073	387.21
861.456	340.4
861.838	347.42
862.221	302.95
862.604	307.63
862.986	382.53
863.369	340.4
863.751	317
864.133	340.4
864.516	328.7
864.898	333.38
865.28	284.23
865.662	342.74
866.044	335.72
866.426	246.78
866.808	281.89
867.19	307.63
867.572	309.97
867.954	277.21
868.336	349.76
868.717	349.76
869.099	244.44
869.48	382.53
869.862	328.7
870.243	349.76
870.625	312.32
871.006	317
871.387	342.74
871.768	331.04
872.149	284.23
872.53	307.63
872.911	309.97
873.292	272.53
873.673	321.68
874.054	335.72
874.435	338.06
874.815	368.49
875.196	317
875.577	265.5
875.957	338.06
876.338	373.17
876.718	373.17
877.098	319.34
877.479	335.72
877.859	354.44
878.239	272.53
878.619	300.61
878.999	270.19
879.379	314.66
879.759	352.1
880.139	293.59
880.519	382.53
880.898	319.34
881.278	300.61
881.658	319.34
882.037	270.19
882.417	352.1
882.796	312.32
883.176	302.95
883.555	293.59
883.934	347.42
884.313	356.79
884.693	377.85
885.072	326.36
885.451	331.04
885.83	312.32
886.209	293.59
886.587	321.68
886.966	333.38
887.345	349.76
887.724	317
888.102	307.63
888.481	307.63
888.859	356.79
889.238	270.19
889.616	338.06
889.994	314.66
890.373	295.93
890.751	298.27
891.129	281.89
891.507	354.44
891.885	314.66
892.263	328.7
892.641	356.79
893.019	293.59
893.396	370.83
893.774	356.79
894.152	256.14
894.529	335.72
894.907	293.59
895.284	305.29
895.662	340.4
896.039	307.63
896.416	319.34
896.794	354.44
897.171	324.02
897.548	302.95
897.925	352.1
898.302	335.72
898.679	272.53
899.056	361.47
899.433	317
899.809	328.7
900.186	347.42
900.563	331.04
900.939	286.57
901.316	398.92
901.692	307.63
902.069	349.76
902.445	312.32
902.821	319.34
903.197	375.51
903.574	249.12
903.95	326.36
904.326	288.91
904.702	345.08
905.078	354.44
905.454	347.42
905.829	291.25
906.205	375.51
906.581	309.97
906.956	366.15
907.332	331.04
907.707	368.49
908.083	321.68
908.458	288.91
908.833	363.81
909.209	317
909.584	317
909.959	260.82
910.334	324.02
910.709	295.93
911.084	324.02
911.459	319.34
911.834	333.38
912.209	295.93
912.583	370.83
912.958	319.34
913.333	359.13
913.707	324.02
914.082	398.92
914.456	314.66
914.83	331.04
915.205	377.85
915.579	300.61
915.953	338.06
916.327	300.61
916.701	298.27
917.075	354.44
917.449	279.55
917.823	368.49
918.197	312.32
918.571	328.7
918.944	338.06
919.318	328.7
919.692	345.08
920.065	331.04
920.438	274.87
920.812	326.36
921.185	279.55
921.558	314.66
921.932	331.04
922.305	317
922.678	324.02
923.051	370.83
923.424	314.66
923.797	317
924.17	263.16
924.542	328.7
924.915	380.19
925.288	249.12
925.661	286.57
926.033	288.91
926.406	251.46
926.778	324.02
927.15	319.34
927.523	328.7
927.895	380.19
928.267	309.97
928.639	253.8
929.011	321.68
929.383	335.72
929.755	380.19
930.127	345.08
930.499	349.76
930.871	312.32
931.242	230.4
931.614	319.34
931.986	272.53
932.357	335.72
932.729	270.19
933.1	309.97
933.471	307.63
933.843	382.53
934.214	328.7
934.585	309.97
934.956	424.66
935.327	352.1
935.698	286.57
936.069	331.04
936.44	331.04
936.811	349.76
937.182	352.1
937.552	305.29
937.923	279.55
938.293	317
938.664	335.72
939.034	286.57
939.405	356.79
939.775	328.7
940.145	319.34
940.516	309.97
940.886	324.02
941.256	293.59
941.626	321.68
941.996	340.4
942.366	284.23
942.735	267.85
943.105	354.44
943.475	335.72
943.845	335.72
944.214	265.5
944.584	286.57
944.953	258.48
945.323	286.57
945.692	230.4
946.061	354.44
946.43	328.7
946.8	244.44
947.169	319.34
947.538	305.29
947.907	342.74
948.276	298.27
948.645	312.32
949.013	270.19
949.382	291.25
949.751	272.53
950.119	333.38
950.488	246.78
950.857	314.66
951.225	279.55
951.593	298.27
951.962	356.79
952.33	307.63
952.698	328.7
953.066	328.7
953.434	352.1
953.802	349.76
954.17	291.25
954.538	270.19
954.906	260.82
955.274	370.83
955.642	307.63
956.009	279.55
956.377	305.29
956.744	398.92
957.112	272.53
957.479	314.66
957.847	347.42
958.214	338.06
958.581	319.34
958.948	298.27
959.315	338.06
959.683	326.36
960.05	298.27
960.416	312.32
960.783	305.29
961.15	228.06
961.517	328.7
961.884	291.25
962.25	274.87
962.617	300.61
962.983	326.36
963.35	382.53
963.716	293.59
964.082	274.87
964.449	265.5
964.815	272.53
965.181	286.57
965.547	274.87
965.913	232.74
966.279	302.95
966.645	326.36
967.011	342.74
967.377	377.85
967.742	352.1
968.108	368.49
968.474	300.61
968.839	281.89
969.205	288.91
969.57	319.34
969.935	335.72
970.301	377.85
970.666	340.4
971.031	305.29
971.396	288.91
971.761	309.97
972.126	335.72
972.491	382.53
972.856	291.25
973.221	324.02
973.586	321.68
973.95	314.66
974.315	342.74
974.679	345.08
975.044	347.42
975.408	312.32
975.773	375.51
976.137	295.93
976.501	366.15
976.866	307.63
977.23	298.27
977.594	359.13
977.958	352.1
978.322	317
978.686	309.97
979.049	281.89
979.413	326.36
979.777	338.06
980.141	319.34
980.504	321.68
980.868	265.5
981.231	272.53
981.595	317
981.958	317
982.321	312.32
982.684	279.55
983.048	317
983.411	352.1
983.774	314.66
984.137	317
984.5	319.34
984.862	361.47
985.225	309.97
985.588	356.79
985.951	356.79
986.313	359.13
986.676	366.15
987.038	363.81
987.401	302.95
987.763	368.49
988.125	359.13
988.488	345.08
988.85	347.42
989.212	331.04
989.574	354.44
989.936	288.91
990.298	263.16
990.66	265.5
991.022	209.33
991.383	333.38
991.745	347.42
992.107	349.76
992.468	345.08
992.83	256.14
993.191	324.02
993.553	293.59
993.914	279.55
994.275	347.42
994.637	331.04
994.998	305.29
995.359	368.49
995.72	309.97
996.081	307.63
996.442	288.91
996.803	347.42
997.163	312.32
997.524	321.68
997.885	361.47
998.245	281.89
998.606	326.36
998.966	317
999.327	317
999.687	328.7
1000.047	293.59
1000.408	328.7
1000.768	375.51
1001.128	324.02
1001.488	335.72
1001.848	298.27
1002.208	260.82
1002.568	274.87
1002.927	281.89
1003.287	338.06
1003.647	338.06
1004.007	338.06
1004.366	345.08
1004.726	331.04
1005.085	307.63
1005.444	326.36
1005.804	288.91
1006.163	253.8
1006.522	354.44
1006.881	291.25
1007.24	314.66
1007.599	277.21
1007.958	335.72
1008.317	370.83
1008.676	321.68
1009.035	333.38
1009.393	342.74
1009.752	352.1
1010.111	319.34
1010.469	326.36
1010.828	342.74
1011.186	352.1
1011.544	375.51
1011.903	293.59
1012.261	314.66
1012.619	263.16
1012.977	277.21
1013.335	302.95
1013.693	307.63
1014.051	333.38
1014.409	274.87
1014.767	286.57
1015.124	298.27
1015.482	309.97
1015.84	286.57
1016.197	331.04
1016.555	352.1
1016.912	319.34
1017.269	265.5
1017.627	295.93
1017.984	279.55
1018.341	328.7
1018.698	349.76
1019.055	288.91
1019.412	305.29
1019.769	221.03
1020.126	293.59
1020.483	359.13
1020.84	277.21
1021.196	324.02
1021.553	342.74
1021.909	312.32
1022.266	237.42
1022.622	384.87
1022.979	356.79
1023.335	328.7
1023.691	302.95
1024.047	307.63
1024.404	288.91
1024.76	251.46
1025.116	340.4
1025.472	359.13
1025.827	314.66
1026.183	309.97
1026.539	324.02
1026.895	256.14
1027.25	326.36
1027.606	380.19
1027.961	354.44
1028.317	249.12
1028.672	302.95
1029.028	305.29
1029.383	295.93
1029.738	333.38
1030.093	277.21
1030.448	307.63
1030.803	338.06
1031.158	347.42
1031.513	328.7
1031.868	361.47
1032.223	286.57
1032.577	345.08
1032.932	288.91
1033.287	326.36
1033.641	309.97
1033.996	300.61
1034.35	324.02
1034.704	295.93
1035.059	324.02
1035.413	274.87
1035.767	274.87
1036.121	274.87
