Data from Al_FLMS009871__710__15-09-05-734.txt Node

Date: Fri Mar 08 15:09:05 CST 2024
User: pe5414po
Spectrometer: FLMS00987
Trigger mode: 0
Integration Time (sec): 1.000000E-1
Scans to average: 1
Electric dark correction enabled: true
Nonlinearity correction enabled: false
Boxcar width: 0
XAxis mode: Wavelengths
Number of Pixels in Spectrum: 2048
>>>>>Begin Spectral Data<<<<<
188.938	-119.07
189.409	-119.07
189.879	-119.07
190.349	-105.03
190.819	-105.03
191.29	-69.92
191.76	-81.63
192.23	-121.42
192.7	-119.07
193.17	-67.58
193.64	-20.77
194.109	-41.84
194.579	14.34
195.049	-23.11
195.519	30.72
195.988	63.49
196.458	40.08
196.927	58.81
197.397	124.34
197.866	112.64
198.336	100.94
198.805	159.45
199.274	206.26
199.744	182.85
200.213	196.9
200.682	274.14
201.151	229.67
201.62	253.07
202.089	208.6
202.558	262.43
203.027	262.43
203.495	274.14
203.964	262.43
204.433	271.79
204.902	276.48
205.37	276.48
205.839	206.26
206.307	313.92
206.776	356.05
207.244	278.82
207.712	311.58
208.181	304.56
208.649	367.76
209.117	332.65
209.585	278.82
210.053	351.37
210.521	325.63
210.989	276.48
211.457	353.71
211.925	260.09
212.393	288.18
212.861	320.95
213.328	353.71
213.796	288.18
214.264	334.99
214.731	325.63
215.199	318.61
215.666	320.95
216.133	269.45
216.601	325.63
217.068	274.14
217.535	271.79
218.003	243.71
218.47	264.77
218.937	302.22
219.404	299.88
219.871	239.03
220.338	262.43
220.805	257.75
221.271	239.03
221.738	276.48
222.205	260.09
222.671	313.92
223.138	246.05
223.605	250.73
224.071	288.18
224.538	264.77
225.004	269.45
225.47	196.9
225.937	283.5
226.403	325.63
226.869	271.79
227.335	269.45
227.801	224.98
228.267	234.35
228.733	250.73
229.199	210.94
229.665	269.45
230.131	318.61
230.597	285.84
231.062	208.6
231.528	334.99
231.994	292.86
232.459	239.03
232.925	278.82
233.39	327.97
233.856	260.09
234.321	285.84
234.786	344.35
235.252	288.18
235.717	281.16
236.182	278.82
236.647	334.99
237.112	278.82
237.577	217.96
238.042	271.79
238.507	288.18
238.972	278.82
239.436	274.14
239.901	271.79
240.366	309.24
240.83	306.9
241.295	292.86
241.76	309.24
242.224	224.98
242.688	253.07
243.153	260.09
243.617	370.1
244.081	285.84
244.545	267.11
245.01	318.61
245.474	325.63
245.938	311.58
246.402	334.99
246.866	250.73
247.33	262.43
247.793	367.76
248.257	290.52
248.721	288.18
249.185	283.5
249.648	248.39
250.112	299.88
250.575	290.52
251.039	320.95
251.502	229.67
251.965	278.82
252.429	253.07
252.892	276.48
253.355	309.24
253.818	264.77
254.281	274.14
254.744	332.65
255.207	274.14
255.67	276.48
256.133	262.43
256.596	253.07
257.059	250.73
257.522	248.39
257.984	292.86
258.447	281.16
258.909	281.16
259.372	260.09
259.834	367.76
260.297	327.97
260.759	257.75
261.221	253.07
261.684	302.22
262.146	271.79
262.608	267.11
263.07	316.26
263.532	253.07
263.994	313.92
264.456	290.52
264.918	292.86
265.38	288.18
265.842	281.16
266.303	274.14
266.765	313.92
267.227	313.92
267.688	339.67
268.15	332.65
268.611	309.24
269.072	311.58
269.534	227.32
269.995	323.29
270.456	278.82
270.918	342.01
271.379	229.67
271.84	276.48
272.301	292.86
272.762	292.86
273.223	246.05
273.684	232.01
274.144	288.18
274.605	290.52
275.066	295.2
275.527	323.29
275.987	325.63
276.448	334.99
276.908	323.29
277.369	274.14
277.829	316.26
278.289	250.73
278.75	292.86
279.21	316.26
279.67	318.61
280.13	339.67
280.59	311.58
281.05	309.24
281.51	232.01
281.97	398.18
282.43	346.69
282.89	290.52
283.35	299.88
283.809	339.67
284.269	330.31
284.729	313.92
285.188	267.11
285.648	332.65
286.107	281.16
286.567	295.2
287.026	278.82
287.485	311.58
287.944	250.73
288.404	332.65
288.863	325.63
289.322	269.45
289.781	327.97
290.24	260.09
290.699	349.03
291.158	353.71
291.616	320.95
292.075	299.88
292.534	325.63
292.992	299.88
293.451	358.39
293.91	257.75
294.368	332.65
294.827	264.77
295.285	356.05
295.743	262.43
296.202	349.03
296.66	344.35
297.118	295.2
297.576	313.92
298.034	295.2
298.492	276.48
298.95	367.76
299.408	306.9
299.866	283.5
300.324	316.26
300.781	320.95
301.239	299.88
301.697	311.58
302.154	332.65
302.612	297.54
303.069	351.37
303.527	295.2
303.984	295.2
304.441	292.86
304.899	325.63
305.356	320.95
305.813	311.58
306.27	353.71
306.727	299.88
307.184	292.86
307.641	327.97
308.098	332.65
308.555	316.26
309.012	346.69
309.468	332.65
309.925	309.24
310.382	264.77
310.838	320.95
311.295	248.39
311.751	311.58
312.208	309.24
312.664	253.07
313.12	290.52
313.577	278.82
314.033	332.65
314.489	281.16
314.945	342.01
315.401	356.05
315.857	316.26
316.313	297.54
316.769	332.65
317.225	297.54
317.681	290.52
318.136	311.58
318.592	320.95
319.048	372.44
319.503	334.99
319.959	299.88
320.414	295.2
320.869	253.07
321.325	274.14
321.78	344.35
322.235	285.84
322.691	330.31
323.146	323.29
323.601	281.16
324.056	320.95
324.511	278.82
324.966	285.84
325.421	255.41
325.875	299.88
326.33	332.65
326.785	386.48
327.24	325.63
327.694	309.24
328.149	281.16
328.603	320.95
329.058	356.05
329.512	274.14
329.966	304.56
330.421	267.11
330.875	290.52
331.329	323.29
331.783	360.74
332.237	302.22
332.691	269.45
333.145	323.29
333.599	320.95
334.053	316.26
334.507	351.37
334.96	367.76
335.414	363.08
335.868	374.78
336.321	344.35
336.775	334.99
337.228	337.33
337.682	358.39
338.135	295.2
338.588	302.22
339.042	353.71
339.495	370.1
339.948	374.78
340.401	320.95
340.854	313.92
341.307	297.54
341.76	334.99
342.213	360.74
342.666	295.2
343.119	269.45
343.571	334.99
344.024	288.18
344.477	278.82
344.929	306.9
345.382	288.18
345.834	311.58
346.287	339.67
346.739	278.82
347.191	250.73
347.644	292.86
348.096	342.01
348.548	313.92
349	302.22
349.452	288.18
349.904	360.74
350.356	302.22
350.808	334.99
351.26	299.88
351.711	283.5
352.163	363.08
352.615	370.1
353.066	232.01
353.518	285.84
353.969	295.2
354.421	353.71
354.872	250.73
355.324	363.08
355.775	236.69
356.226	349.03
356.677	260.09
357.128	302.22
357.579	363.08
358.03	295.2
358.481	323.29
358.932	306.9
359.383	313.92
359.834	344.35
360.285	353.71
360.735	363.08
361.186	292.86
361.637	306.9
362.087	334.99
362.538	349.03
362.988	255.41
363.438	295.2
363.889	297.54
364.339	297.54
364.789	285.84
365.239	342.01
365.689	302.22
366.139	311.58
366.589	381.8
367.039	353.71
367.489	349.03
367.939	351.37
368.389	337.33
368.839	278.82
369.288	344.35
369.738	323.29
370.187	269.45
370.637	332.65
371.086	320.95
371.536	260.09
371.985	316.26
372.434	344.35
372.884	311.58
373.333	351.37
373.782	377.12
374.231	339.67
374.68	316.26
375.129	285.84
375.578	302.22
376.027	299.88
376.475	229.67
376.924	311.58
377.373	325.63
377.822	323.29
378.27	346.69
378.719	349.03
379.167	313.92
379.616	292.86
380.064	250.73
380.512	342.01
380.961	327.97
381.409	316.26
381.857	295.2
382.305	367.76
382.753	358.39
383.201	295.2
383.649	311.58
384.097	250.73
384.545	304.56
384.992	318.61
385.44	278.82
385.888	290.52
386.335	306.9
386.783	288.18
387.231	346.69
387.678	297.54
388.125	342.01
388.573	349.03
389.02	334.99
389.467	332.65
389.914	274.14
390.362	363.08
390.809	313.92
391.256	316.26
391.703	278.82
392.15	304.56
392.596	386.48
393.043	316.26
393.49	316.26
393.937	377.12
394.383	278.82
394.83	342.01
395.276	325.63
395.723	320.95
396.169	365.42
396.616	344.35
397.062	363.08
397.508	344.35
397.954	342.01
398.401	388.82
398.847	306.9
399.293	306.9
399.739	334.99
400.185	278.82
400.631	325.63
401.076	302.22
401.522	316.26
401.968	316.26
402.414	311.58
402.859	381.8
403.305	351.37
403.75	213.28
404.196	334.99
404.641	295.2
405.086	320.95
405.532	320.95
405.977	358.39
406.422	334.99
406.867	292.86
407.312	243.71
407.757	285.84
408.202	285.84
408.647	334.99
409.092	332.65
409.537	342.01
409.982	363.08
410.426	325.63
410.871	377.12
411.316	325.63
411.76	297.54
412.205	363.08
412.649	306.9
413.093	313.92
413.538	311.58
413.982	381.8
414.426	353.71
414.87	311.58
415.314	349.03
415.758	281.16
416.202	339.67
416.646	344.35
417.09	351.37
417.534	398.18
417.978	290.52
418.421	271.79
418.865	325.63
419.309	363.08
419.752	353.71
420.196	267.11
420.639	309.24
421.083	269.45
421.526	269.45
421.969	246.05
422.412	269.45
422.856	360.74
423.299	367.76
423.742	325.63
424.185	295.2
424.628	278.82
425.071	367.76
425.513	299.88
425.956	306.9
426.399	330.31
426.842	349.03
427.284	299.88
427.727	346.69
428.169	292.86
428.612	323.29
429.054	290.52
429.497	402.86
429.939	276.48
430.381	374.78
430.823	363.08
431.265	295.2
431.707	285.84
432.149	334.99
432.591	370.1
433.033	381.8
433.475	288.18
433.917	334.99
434.359	320.95
434.8	274.14
435.242	302.22
435.684	391.16
436.125	325.63
436.567	332.65
437.008	365.42
437.449	342.01
437.891	260.09
438.332	302.22
438.773	344.35
439.214	342.01
439.656	306.9
440.097	306.9
440.538	271.79
440.978	306.9
441.419	320.95
441.86	325.63
442.301	316.26
442.742	239.03
443.182	316.26
443.623	342.01
444.063	339.67
444.504	386.48
444.944	330.31
445.385	320.95
445.825	330.31
446.265	309.24
446.706	309.24
447.146	360.74
447.586	379.46
448.026	332.65
448.466	360.74
448.906	342.01
449.346	377.12
449.786	363.08
450.225	330.31
450.665	391.16
451.105	302.22
451.544	309.24
451.984	391.16
452.424	356.05
452.863	306.9
453.302	342.01
453.742	309.24
454.181	367.76
454.62	318.61
455.059	325.63
455.499	288.18
455.938	285.84
456.377	332.65
456.816	365.42
457.254	358.39
457.693	358.39
458.132	344.35
458.571	232.01
459.01	337.33
459.448	304.56
459.887	374.78
460.325	349.03
460.764	311.58
461.202	285.84
461.641	306.9
462.079	295.2
462.517	290.52
462.955	351.37
463.393	363.08
463.832	377.12
464.27	339.67
464.708	374.78
465.145	302.22
465.583	292.86
466.021	323.29
466.459	327.97
466.897	309.24
467.334	337.33
467.772	271.79
468.209	367.76
468.647	285.84
469.084	313.92
469.522	374.78
469.959	332.65
470.396	327.97
470.833	339.67
471.271	367.76
471.708	337.33
472.145	311.58
472.582	398.18
473.019	313.92
473.456	342.01
473.892	271.79
474.329	318.61
474.766	250.73
475.202	334.99
475.639	311.58
476.076	351.37
476.512	351.37
476.949	302.22
477.385	306.9
477.821	379.46
478.258	320.95
478.694	320.95
479.13	370.1
479.566	353.71
480.002	302.22
480.438	351.37
480.874	327.97
481.31	325.63
481.746	316.26
482.181	271.79
482.617	367.76
483.053	262.43
483.488	292.86
483.924	283.5
484.36	304.56
484.795	281.16
485.23	342.01
485.666	370.1
486.101	295.2
486.536	288.18
486.971	313.92
487.407	316.26
487.842	344.35
488.277	311.58
488.712	325.63
489.146	302.22
489.581	297.54
490.016	316.26
490.451	299.88
490.885	349.03
491.32	342.01
491.755	278.82
492.189	283.5
492.624	374.78
493.058	351.37
493.492	260.09
493.927	395.84
494.361	370.1
494.795	337.33
495.229	260.09
495.663	349.03
496.097	370.1
496.531	306.9
496.965	351.37
497.399	334.99
497.833	271.79
498.266	334.99
498.7	330.31
499.134	358.39
499.567	334.99
500.001	416.91
500.434	246.05
500.868	295.2
501.301	299.88
501.734	297.54
502.168	367.76
502.601	267.11
503.034	339.67
503.467	304.56
503.9	260.09
504.333	290.52
504.766	377.12
505.199	327.97
505.632	339.67
506.064	363.08
506.497	299.88
506.93	304.56
507.362	271.79
507.795	276.48
508.227	320.95
508.66	332.65
509.092	353.71
509.524	281.16
509.956	344.35
510.389	332.65
510.821	320.95
511.253	377.12
511.685	356.05
512.117	311.58
512.549	264.77
512.981	346.69
513.412	295.2
513.844	267.11
514.276	374.78
514.707	299.88
515.139	267.11
515.571	339.67
516.002	269.45
516.433	346.69
516.865	356.05
517.296	339.67
517.727	327.97
518.159	386.48
518.59	304.56
519.021	351.37
519.452	239.03
519.883	313.92
520.314	360.74
520.744	405.21
521.175	367.76
521.606	297.54
522.037	325.63
522.467	288.18
522.898	318.61
523.328	299.88
523.759	325.63
524.189	367.76
524.62	297.54
525.05	285.84
525.48	384.14
525.91	330.31
526.341	323.29
526.771	274.14
527.201	447.33
527.631	323.29
528.061	346.69
528.49	349.03
528.92	346.69
529.35	353.71
529.78	372.44
530.209	318.61
530.639	290.52
531.068	388.82
531.498	283.5
531.927	386.48
532.357	309.24
532.786	318.61
533.215	325.63
533.644	285.84
534.074	365.42
534.503	342.01
534.932	388.82
535.361	320.95
535.79	306.9
536.218	276.48
536.647	349.03
537.076	297.54
537.505	257.75
537.933	339.67
538.362	358.39
538.79	309.24
539.219	292.86
539.647	381.8
540.076	318.61
540.504	313.92
540.932	360.74
541.36	342.01
541.788	274.14
542.217	332.65
542.645	330.31
543.073	311.58
543.5	288.18
543.928	342.01
544.356	260.09
544.784	323.29
545.211	295.2
545.639	363.08
546.067	391.16
546.494	372.44
546.922	278.82
547.349	316.26
547.776	358.39
548.204	302.22
548.631	344.35
549.058	292.86
549.485	334.99
549.912	337.33
550.339	370.1
550.766	311.58
551.193	299.88
551.62	325.63
552.047	384.14
552.474	353.71
552.9	332.65
553.327	318.61
553.754	283.5
554.18	370.1
554.607	381.8
555.033	409.89
555.459	323.29
555.886	323.29
556.312	353.71
556.738	344.35
557.164	330.31
557.59	255.41
558.016	260.09
558.442	400.52
558.868	302.22
559.294	234.35
559.72	346.69
560.145	311.58
560.571	316.26
560.997	313.92
561.422	295.2
561.848	309.24
562.273	360.74
562.699	297.54
563.124	283.5
563.549	316.26
563.974	384.14
564.4	302.22
564.825	344.35
565.25	304.56
565.675	344.35
566.1	351.37
566.525	327.97
566.95	358.39
567.374	353.71
567.799	377.12
568.224	334.99
568.648	327.97
569.073	299.88
569.497	344.35
569.922	384.14
570.346	377.12
570.771	384.14
571.195	290.52
571.619	297.54
572.043	332.65
572.467	313.92
572.891	388.82
573.315	290.52
573.739	316.26
574.163	353.71
574.587	292.86
575.011	349.03
575.435	388.82
575.858	339.67
576.282	264.77
576.705	304.56
577.129	332.65
577.552	283.5
577.976	281.16
578.399	304.56
578.822	353.71
579.245	306.9
579.669	342.01
580.092	346.69
580.515	297.54
580.938	320.95
581.361	330.31
581.784	377.12
582.206	323.29
582.629	330.31
583.052	360.74
583.474	351.37
583.897	379.46
584.32	302.22
584.742	295.2
585.165	334.99
585.587	316.26
586.009	325.63
586.431	346.69
586.854	334.99
587.276	395.84
587.698	306.9
588.12	349.03
588.542	384.14
588.964	372.44
589.386	346.69
589.807	353.71
590.229	327.97
590.651	285.84
591.073	320.95
591.494	299.88
591.916	306.9
592.337	299.88
592.759	344.35
593.18	356.05
593.601	430.95
594.022	344.35
594.444	313.92
594.865	320.95
595.286	323.29
595.707	421.59
596.128	325.63
596.549	405.21
596.97	253.07
597.39	320.95
597.811	360.74
598.232	381.8
598.652	313.92
599.073	337.33
599.494	337.33
599.914	339.67
600.334	395.84
600.755	288.18
601.175	351.37
601.595	323.29
602.015	290.52
602.436	309.24
602.856	456.7
603.276	334.99
603.696	339.67
604.115	332.65
604.535	313.92
604.955	386.48
605.375	283.5
605.794	290.52
606.214	297.54
606.634	274.14
607.053	327.97
607.473	318.61
607.892	299.88
608.311	320.95
608.731	309.24
609.15	290.52
609.569	313.92
609.988	234.35
610.407	318.61
610.826	327.97
611.245	327.97
611.664	358.39
612.083	304.56
612.501	346.69
612.92	351.37
613.339	313.92
613.757	210.94
614.176	363.08
614.594	281.16
615.013	302.22
615.431	349.03
615.85	306.9
616.268	260.09
616.686	281.16
617.104	276.48
617.522	313.92
617.94	260.09
618.358	306.9
618.776	402.86
619.194	325.63
619.612	353.71
620.03	320.95
620.447	316.26
620.865	370.1
621.282	274.14
621.7	391.16
622.117	327.97
622.535	316.26
622.952	311.58
623.369	295.2
623.787	339.67
624.204	290.52
624.621	302.22
625.038	281.16
625.455	320.95
625.872	351.37
626.289	388.82
626.706	285.84
627.123	290.52
627.539	313.92
627.956	405.21
628.373	381.8
628.789	297.54
629.206	304.56
629.622	363.08
630.038	360.74
630.455	409.89
630.871	316.26
631.287	377.12
631.703	311.58
632.12	236.69
632.536	311.58
632.952	292.86
633.368	304.56
633.783	337.33
634.199	342.01
634.615	342.01
635.031	365.42
635.446	339.67
635.862	384.14
636.277	302.22
636.693	381.8
637.108	337.33
637.524	337.33
637.939	370.1
638.354	299.88
638.77	297.54
639.185	398.18
639.6	342.01
640.015	325.63
640.43	337.33
640.845	320.95
641.259	292.86
641.674	363.08
642.089	297.54
642.504	309.24
642.918	351.37
643.333	327.97
643.747	297.54
644.162	297.54
644.576	318.61
644.991	358.39
645.405	370.1
645.819	386.48
646.233	325.63
646.647	351.37
647.061	332.65
647.475	297.54
647.889	346.69
648.303	372.44
648.717	311.58
649.131	353.71
649.545	283.5
649.958	430.95
650.372	292.86
650.785	402.86
651.199	264.77
651.612	313.92
652.026	276.48
652.439	271.79
652.852	346.69
653.266	285.84
653.679	269.45
654.092	283.5
654.505	323.29
654.918	332.65
655.331	358.39
655.744	288.18
656.156	365.42
656.569	353.71
656.982	320.95
657.394	257.75
657.807	302.22
658.22	290.52
658.632	320.95
659.044	285.84
659.457	339.67
659.869	351.37
660.281	276.48
660.693	318.61
661.106	320.95
661.518	351.37
661.93	349.03
662.342	372.44
662.754	318.61
663.165	360.74
663.577	363.08
663.989	304.56
664.401	325.63
664.812	276.48
665.224	283.5
665.635	302.22
666.047	283.5
666.458	452.02
666.869	302.22
667.281	351.37
667.692	374.78
668.103	337.33
668.514	379.46
668.925	356.05
669.336	344.35
669.747	257.75
670.158	290.52
670.569	297.54
670.979	388.82
671.39	339.67
671.801	311.58
672.211	337.33
672.622	297.54
673.032	320.95
673.443	285.84
673.853	323.29
674.263	337.33
674.674	377.12
675.084	299.88
675.494	316.26
675.904	316.26
676.314	309.24
676.724	323.29
677.134	342.01
677.544	325.63
677.953	325.63
678.363	374.78
678.773	391.16
679.182	278.82
679.592	353.71
680.001	316.26
680.411	323.29
680.82	367.76
681.23	283.5
681.639	320.95
682.048	325.63
682.457	330.31
682.866	313.92
683.275	379.46
683.684	365.42
684.093	349.03
684.502	337.33
684.911	292.86
685.32	316.26
685.728	304.56
686.137	295.2
686.546	356.05
686.954	342.01
687.363	311.58
687.771	316.26
688.179	353.71
688.588	346.69
688.996	306.9
689.404	257.75
689.812	320.95
690.22	339.67
690.628	346.69
691.036	339.67
691.444	353.71
691.852	346.69
692.26	351.37
692.667	304.56
693.075	421.59
693.483	377.12
693.89	304.56
694.298	349.03
694.705	330.31
695.112	365.42
695.52	393.5
695.927	381.8
696.334	346.69
696.741	337.33
697.148	313.92
697.555	398.18
697.962	363.08
698.369	332.65
698.776	313.92
699.183	302.22
699.59	292.86
699.996	297.54
700.403	358.39
700.81	363.08
701.216	309.24
701.623	332.65
702.029	269.45
702.435	327.97
702.842	260.09
703.248	304.56
703.654	353.71
704.06	349.03
704.466	342.01
704.872	339.67
705.278	353.71
705.684	363.08
706.09	295.2
706.496	283.5
706.901	243.71
707.307	316.26
707.712	344.35
708.118	349.03
708.523	346.69
708.929	351.37
709.334	353.71
709.74	292.86
710.145	337.33
710.55	356.05
710.955	297.54
711.36	325.63
711.765	267.11
712.17	323.29
712.575	290.52
712.98	845.23
713.385	334.99
713.789	405.21
714.194	274.14
714.599	398.18
715.003	393.5
715.408	246.05
715.812	271.79
716.217	295.2
716.621	358.39
717.025	304.56
717.429	356.05
717.833	342.01
718.238	274.14
718.642	342.01
719.046	330.31
719.449	337.33
719.853	386.48
720.257	365.42
720.661	330.31
721.065	304.56
721.468	327.97
721.872	365.42
722.275	342.01
722.679	351.37
723.082	297.54
723.485	351.37
723.889	342.01
724.292	288.18
724.695	320.95
725.098	349.03
725.501	381.8
725.904	320.95
726.307	292.86
726.71	346.69
727.113	318.61
727.516	264.77
727.918	299.88
728.321	323.29
728.724	309.24
729.126	332.65
729.529	304.56
729.931	290.52
730.333	344.35
730.736	323.29
731.138	288.18
731.54	349.03
731.942	290.52
732.344	260.09
732.746	344.35
733.148	316.26
733.55	281.16
733.952	253.07
734.354	250.73
734.756	278.82
735.157	278.82
735.559	337.33
735.96	276.48
736.362	297.54
736.763	334.99
737.165	311.58
737.566	351.37
737.967	311.58
738.368	353.71
738.77	288.18
739.171	342.01
739.572	316.26
739.973	281.16
740.374	274.14
740.774	349.03
741.175	269.45
741.576	330.31
741.977	318.61
742.377	271.79
742.778	309.24
743.178	288.18
743.579	327.97
743.979	337.33
744.379	402.86
744.78	342.01
745.18	344.35
745.58	281.16
745.98	337.33
746.38	285.84
746.78	367.76
747.18	367.76
747.58	351.37
747.98	356.05
748.38	344.35
748.779	327.97
749.179	290.52
749.578	330.31
749.978	299.88
750.377	316.26
750.777	332.65
751.176	299.88
751.575	323.29
751.975	384.14
752.374	325.63
752.773	325.63
753.172	356.05
753.571	339.67
753.97	299.88
754.369	344.35
754.768	330.31
755.166	313.92
755.565	342.01
755.964	342.01
756.362	419.25
756.761	332.65
757.159	292.86
757.558	349.03
757.956	306.9
758.354	358.39
758.753	419.25
759.151	356.05
759.549	309.24
759.947	363.08
760.345	285.84
760.743	349.03
761.141	290.52
761.539	342.01
761.936	344.35
762.334	395.84
762.732	356.05
763.129	346.69
763.527	334.99
763.924	302.22
764.322	379.46
764.719	327.97
765.117	370.1
765.514	297.54
765.911	262.43
766.308	367.76
766.705	267.11
767.102	297.54
767.499	358.39
767.896	299.88
768.293	332.65
768.69	325.63
769.086	302.22
769.483	351.37
769.88	318.61
770.276	316.26
770.673	358.39
771.069	304.56
771.466	358.39
771.862	290.52
772.258	302.22
772.654	304.56
773.05	302.22
773.447	337.33
773.843	412.23
774.239	285.84
774.634	344.35
775.03	374.78
775.426	323.29
775.822	346.69
776.218	316.26
776.613	349.03
777.009	360.74
777.404	292.86
777.8	304.56
778.195	306.9
778.59	356.05
778.986	246.05
779.381	309.24
779.776	264.77
780.171	358.39
780.566	295.2
780.961	290.52
781.356	356.05
781.751	370.1
782.146	332.65
782.54	283.5
782.935	243.71
783.33	337.33
783.724	334.99
784.119	344.35
784.513	290.52
784.908	337.33
785.302	337.33
785.696	302.22
786.09	302.22
786.485	327.97
786.879	342.01
787.273	313.92
787.667	262.43
788.061	346.69
788.454	323.29
788.848	316.26
789.242	292.86
789.636	313.92
790.029	304.56
790.423	288.18
790.816	358.39
791.21	351.37
791.603	302.22
791.997	302.22
792.39	330.31
792.783	318.61
793.176	344.35
793.569	299.88
793.962	327.97
794.355	351.37
794.748	313.92
795.141	325.63
795.534	337.33
795.927	393.5
796.319	325.63
796.712	349.03
797.105	344.35
797.497	346.69
797.89	332.65
798.282	353.71
798.674	285.84
799.067	358.39
799.459	299.88
799.851	325.63
800.243	311.58
800.635	306.9
801.027	253.07
801.419	351.37
801.811	320.95
802.203	313.92
802.594	306.9
802.986	313.92
803.378	274.14
803.769	299.88
804.161	358.39
804.552	367.76
804.944	391.16
805.335	360.74
805.726	271.79
806.118	327.97
806.509	346.69
806.9	306.9
807.291	330.31
807.682	281.16
808.073	281.16
808.464	304.56
808.855	288.18
809.245	356.05
809.636	337.33
810.027	346.69
810.417	302.22
810.808	264.77
811.198	304.56
811.589	253.07
811.979	290.52
812.369	281.16
812.759	318.61
813.15	316.26
813.54	309.24
813.93	356.05
814.32	360.74
814.71	281.16
815.1	292.86
815.489	337.33
815.879	313.92
816.269	316.26
816.658	299.88
817.048	327.97
817.438	374.78
817.827	334.99
818.216	330.31
818.606	356.05
818.995	267.11
819.384	342.01
819.773	320.95
820.163	370.1
820.552	323.29
820.941	311.58
821.33	325.63
821.718	374.78
822.107	344.35
822.496	306.9
822.885	313.92
823.273	269.45
823.662	332.65
824.05	311.58
824.439	292.86
824.827	236.69
825.216	288.18
825.604	302.22
825.992	262.43
826.38	290.52
826.768	351.37
827.156	297.54
827.544	285.84
827.932	318.61
828.32	342.01
828.708	297.54
829.096	278.82
829.483	297.54
829.871	342.01
830.259	292.86
830.646	283.5
831.034	316.26
831.421	320.95
831.808	288.18
832.196	332.65
832.583	337.33
832.97	311.58
833.357	299.88
833.744	302.22
834.131	278.82
834.518	276.48
834.905	346.69
835.292	337.33
835.678	327.97
836.065	292.86
836.452	292.86
836.838	379.46
837.225	332.65
837.611	346.69
837.998	360.74
838.384	388.82
838.77	292.86
839.157	349.03
839.543	323.29
839.929	334.99
840.315	236.69
840.701	285.84
841.087	342.01
841.473	283.5
841.858	330.31
842.244	360.74
842.63	339.67
843.015	311.58
843.401	557.34
843.787	271.79
844.172	330.31
844.557	342.01
844.943	332.65
845.328	367.76
845.713	337.33
846.098	370.1
846.483	241.37
846.868	344.35
847.253	295.2
847.638	327.97
848.023	344.35
848.408	246.05
848.793	288.18
849.177	334.99
849.562	332.65
849.947	288.18
850.331	337.33
850.715	325.63
851.1	325.63
851.484	306.9
851.868	353.71
852.253	257.75
852.637	297.54
853.021	325.63
853.405	311.58
853.789	269.45
854.173	386.48
854.557	325.63
854.94	264.77
855.324	281.16
855.708	353.71
856.091	327.97
856.475	381.8
856.858	327.97
857.242	327.97
857.625	269.45
858.009	290.52
858.392	363.08
858.775	374.78
859.158	360.74
859.541	325.63
859.924	327.97
860.307	306.9
860.69	360.74
861.073	278.82
861.456	353.71
861.838	412.23
862.221	306.9
862.604	349.03
862.986	330.31
863.369	292.86
863.751	351.37
864.133	325.63
864.516	313.92
864.898	299.88
865.28	290.52
865.662	288.18
866.044	353.71
866.426	316.26
866.808	271.79
867.19	337.33
867.572	302.22
867.954	344.35
868.336	297.54
868.717	313.92
869.099	323.29
869.48	318.61
869.862	260.09
870.243	264.77
870.625	306.9
871.006	339.67
871.387	323.29
871.768	330.31
872.149	327.97
872.53	339.67
872.911	337.33
873.292	292.86
873.673	337.33
874.054	285.84
874.435	318.61
874.815	281.16
875.196	384.14
875.577	346.69
875.957	349.03
876.338	374.78
876.718	384.14
877.098	384.14
877.479	313.92
877.859	356.05
878.239	257.75
878.619	309.24
878.999	337.33
879.379	339.67
879.759	346.69
880.139	292.86
880.519	285.84
880.898	290.52
881.278	313.92
881.658	323.29
882.037	239.03
882.417	367.76
882.796	323.29
883.176	306.9
883.555	311.58
883.934	316.26
884.313	351.37
884.693	288.18
885.072	316.26
885.451	332.65
885.83	320.95
886.209	260.09
886.587	349.03
886.966	339.67
887.345	334.99
887.724	374.78
888.102	288.18
888.481	304.56
888.859	318.61
889.238	316.26
889.616	309.24
889.994	334.99
890.373	339.67
890.751	290.52
891.129	213.28
891.507	304.56
891.885	269.45
892.263	313.92
892.641	295.2
893.019	358.39
893.396	297.54
893.774	241.37
894.152	274.14
894.529	278.82
894.907	262.43
895.284	325.63
895.662	325.63
896.039	295.2
896.416	358.39
896.794	267.11
897.171	297.54
897.548	391.16
897.925	311.58
898.302	374.78
898.679	292.86
899.056	353.71
899.433	325.63
899.809	365.42
900.186	337.33
900.563	332.65
900.939	260.09
901.316	311.58
901.692	342.01
902.069	257.75
902.445	353.71
902.821	250.73
903.197	356.05
903.574	386.48
903.95	260.09
904.326	283.5
904.702	236.69
905.078	351.37
905.454	313.92
905.829	320.95
906.205	299.88
906.581	262.43
906.956	339.67
907.332	330.31
907.707	271.79
908.083	342.01
908.458	299.88
908.833	267.11
909.209	299.88
909.584	285.84
909.959	334.99
910.334	323.29
910.709	292.86
911.084	267.11
911.459	302.22
911.834	302.22
912.209	278.82
912.583	267.11
912.958	297.54
913.333	267.11
913.707	318.61
914.082	325.63
914.456	292.86
914.83	358.39
915.205	325.63
915.579	295.2
915.953	334.99
916.327	365.42
916.701	239.03
917.075	264.77
917.449	339.67
917.823	339.67
918.197	332.65
918.571	367.76
918.944	309.24
919.318	304.56
919.692	309.24
920.065	260.09
920.438	313.92
920.812	299.88
921.185	302.22
921.558	257.75
921.932	320.95
922.305	278.82
922.678	327.97
923.051	360.74
923.424	278.82
923.797	299.88
924.17	292.86
924.542	262.43
924.915	353.71
925.288	330.31
925.661	313.92
926.033	271.79
926.406	356.05
926.778	391.16
927.15	276.48
927.523	325.63
927.895	295.2
928.267	374.78
928.639	316.26
929.011	363.08
929.383	339.67
929.755	353.71
930.127	323.29
930.499	255.41
930.871	302.22
931.242	271.79
931.614	288.18
931.986	306.9
932.357	299.88
932.729	309.24
933.1	299.88
933.471	306.9
933.843	330.31
934.214	253.07
934.585	313.92
934.956	285.84
935.327	339.67
935.698	356.05
936.069	295.2
936.44	339.67
936.811	297.54
937.182	323.29
937.552	351.37
937.923	306.9
938.293	323.29
938.664	269.45
939.034	311.58
939.405	292.86
939.775	283.5
940.145	292.86
940.516	325.63
940.886	337.33
941.256	290.52
941.626	309.24
941.996	360.74
942.366	269.45
942.735	276.48
943.105	318.61
943.475	313.92
943.845	264.77
944.214	325.63
944.584	278.82
944.953	309.24
945.323	288.18
945.692	299.88
946.061	391.16
946.43	400.52
946.8	248.39
947.169	311.58
947.538	290.52
947.907	339.67
948.276	316.26
948.645	283.5
949.013	360.74
949.382	304.56
949.751	290.52
950.119	292.86
950.488	281.16
950.857	302.22
951.225	283.5
951.593	304.56
951.962	318.61
952.33	309.24
952.698	360.74
953.066	285.84
953.434	278.82
953.802	290.52
954.17	253.07
954.538	316.26
954.906	330.31
955.274	311.58
955.642	374.78
956.009	337.33
956.377	367.76
956.744	276.48
957.112	365.42
957.479	360.74
957.847	295.2
958.214	318.61
958.581	339.67
958.948	323.29
959.315	344.35
959.683	339.67
960.05	323.29
960.416	351.37
960.783	353.71
961.15	330.31
961.517	271.79
961.884	339.67
962.25	330.31
962.617	325.63
962.983	351.37
963.35	332.65
963.716	365.42
964.082	248.39
964.449	269.45
964.815	283.5
965.181	297.54
965.547	327.97
965.913	325.63
966.279	316.26
966.645	356.05
967.011	334.99
967.377	262.43
967.742	288.18
968.108	353.71
968.474	313.92
968.839	264.77
969.205	281.16
969.57	311.58
969.935	292.86
970.301	316.26
970.666	290.52
971.031	281.16
971.396	309.24
971.761	327.97
972.126	288.18
972.491	229.67
972.856	360.74
973.221	285.84
973.586	327.97
973.95	264.77
974.315	306.9
974.679	278.82
975.044	316.26
975.408	327.97
975.773	318.61
976.137	381.8
976.501	311.58
976.866	358.39
977.23	271.79
977.594	309.24
977.958	363.08
978.322	318.61
978.686	257.75
979.049	285.84
979.413	393.5
979.777	334.99
980.141	327.97
980.504	302.22
980.868	292.86
981.231	304.56
981.595	302.22
981.958	299.88
982.321	304.56
982.684	356.05
983.048	320.95
983.411	318.61
983.774	271.79
984.137	334.99
984.5	360.74
984.862	332.65
985.225	346.69
985.588	342.01
985.951	358.39
986.313	288.18
986.676	255.41
987.038	313.92
987.401	381.8
987.763	313.92
988.125	330.31
988.488	370.1
988.85	349.03
989.212	320.95
989.574	306.9
989.936	342.01
990.298	269.45
990.66	276.48
991.022	342.01
991.383	367.76
991.745	260.09
992.107	283.5
992.468	302.22
992.83	283.5
993.191	299.88
993.553	316.26
993.914	309.24
994.275	346.69
994.637	318.61
994.998	356.05
995.359	306.9
995.72	309.24
996.081	299.88
996.442	351.37
996.803	281.16
997.163	297.54
997.524	285.84
997.885	356.05
998.245	330.31
998.606	360.74
998.966	363.08
999.327	283.5
999.687	276.48
1000.047	327.97
1000.408	363.08
1000.768	311.58
1001.128	276.48
1001.488	339.67
1001.848	304.56
1002.208	316.26
1002.568	346.69
1002.927	353.71
1003.287	299.88
1003.647	344.35
1004.007	288.18
1004.366	323.29
1004.726	213.28
1005.085	337.33
1005.444	269.45
1005.804	306.9
1006.163	320.95
1006.522	316.26
1006.881	299.88
1007.24	306.9
1007.599	353.71
1007.958	290.52
1008.317	349.03
1008.676	271.79
1009.035	377.12
1009.393	311.58
1009.752	337.33
1010.111	332.65
1010.469	370.1
1010.828	295.2
1011.186	337.33
1011.544	318.61
1011.903	316.26
1012.261	320.95
1012.619	363.08
1012.977	309.24
1013.335	370.1
1013.693	250.73
1014.051	360.74
1014.409	306.9
1014.767	365.42
1015.124	330.31
1015.482	334.99
1015.84	306.9
1016.197	274.14
1016.555	337.33
1016.912	313.92
1017.269	288.18
1017.627	325.63
1017.984	356.05
1018.341	290.52
1018.698	330.31
1019.055	320.95
1019.412	311.58
1019.769	342.01
1020.126	276.48
1020.483	346.69
1020.84	356.05
1021.196	309.24
1021.553	325.63
1021.909	274.14
1022.266	351.37
1022.622	365.42
1022.979	290.52
1023.335	325.63
1023.691	337.33
1024.047	344.35
1024.404	224.98
1024.76	332.65
1025.116	330.31
1025.472	271.79
1025.827	302.22
1026.183	271.79
1026.539	292.86
1026.895	342.01
1027.25	342.01
1027.606	327.97
1027.961	356.05
1028.317	351.37
1028.672	320.95
1029.028	358.39
1029.383	346.69
1029.738	360.74
1030.093	274.14
1030.448	337.33
1030.803	313.92
1031.158	304.56
1031.513	306.9
1031.868	356.05
1032.223	309.24
1032.577	302.22
1032.932	302.22
1033.287	334.99
1033.641	281.16
1033.996	220.3
1034.35	351.37
1034.704	271.79
1035.059	330.31
1035.413	285.84
1035.767	285.84
1036.121	285.84
