Data from Al_FLMS009871__702__15-09-04-934.txt Node

Date: Fri Mar 08 15:09:04 CST 2024
User: pe5414po
Spectrometer: FLMS00987
Trigger mode: 0
Integration Time (sec): 1.000000E-1
Scans to average: 1
Electric dark correction enabled: true
Nonlinearity correction enabled: false
Boxcar width: 0
XAxis mode: Wavelengths
Number of Pixels in Spectrum: 2048
>>>>>Begin Spectral Data<<<<<
188.938	-80.46
189.409	-80.46
189.879	-80.46
190.349	-113.22
190.819	-94.5
191.29	-113.22
191.76	-87.48
192.23	-138.97
192.7	-78.12
193.17	-35.99
193.64	6.14
194.109	-24.28
194.579	-35.99
195.049	-38.33
195.519	1.46
195.988	78.7
196.458	13.17
196.927	109.13
197.397	90.4
197.866	104.45
198.336	148.92
198.805	134.87
199.274	125.51
199.744	106.79
200.213	174.66
200.682	193.39
201.151	242.54
201.62	223.81
202.089	256.58
202.558	205.09
203.027	228.49
203.495	268.28
203.964	277.65
204.433	279.99
204.902	282.33
205.37	275.31
205.839	303.39
206.307	275.31
206.776	212.11
207.244	221.47
207.712	223.81
208.181	303.39
208.649	247.22
209.117	308.07
209.585	265.94
210.053	268.28
210.521	261.26
210.989	214.45
211.457	240.2
211.925	247.22
212.393	242.54
212.861	207.43
213.328	268.28
213.796	270.62
214.264	350.2
214.731	221.47
215.199	202.75
215.666	270.62
216.133	230.84
216.601	237.86
217.068	270.62
217.535	270.62
218.003	287.01
218.47	279.99
218.937	289.35
219.404	188.71
219.871	244.88
220.338	242.54
220.805	235.52
221.271	296.37
221.738	235.52
222.205	287.01
222.671	291.69
223.138	230.84
223.605	233.18
224.071	216.79
224.538	237.86
225.004	282.33
225.47	275.31
225.937	240.2
226.403	254.24
226.869	233.18
227.335	179.34
227.801	247.22
228.267	261.26
228.733	254.24
229.199	226.15
229.665	230.84
230.131	298.71
230.597	244.88
231.062	207.43
231.528	221.47
231.994	251.9
232.459	352.54
232.925	240.2
233.39	230.84
233.856	275.31
234.321	254.24
234.786	261.26
235.252	223.81
235.717	256.58
236.182	326.8
236.647	301.05
237.112	221.47
237.577	277.65
238.042	219.13
238.507	151.26
238.972	226.15
239.436	294.03
239.901	256.58
240.366	242.54
240.83	282.33
241.295	240.2
241.76	303.39
242.224	251.9
242.688	240.2
243.153	291.69
243.617	303.39
244.081	289.35
244.545	174.66
245.01	228.49
245.474	174.66
245.938	265.94
246.402	254.24
246.866	298.71
247.33	214.45
247.793	237.86
248.257	350.2
248.721	202.75
249.185	258.92
249.648	272.96
250.112	247.22
250.575	242.54
251.039	275.31
251.502	233.18
251.965	258.92
252.429	233.18
252.892	291.69
253.355	265.94
253.818	296.37
254.281	322.12
254.744	287.01
255.207	272.96
255.67	237.86
256.133	251.9
256.596	284.67
257.059	284.67
257.522	324.46
257.984	284.67
258.447	249.56
258.909	265.94
259.372	223.81
259.834	294.03
260.297	270.62
260.759	294.03
261.221	275.31
261.684	193.39
262.146	265.94
262.608	249.56
263.07	279.99
263.532	289.35
263.994	247.22
264.456	265.94
264.918	308.07
265.38	249.56
265.842	263.6
266.303	247.22
266.765	265.94
267.227	347.86
267.688	312.75
268.15	235.52
268.611	279.99
269.072	195.73
269.534	221.47
269.995	261.26
270.456	296.37
270.918	324.46
271.379	310.41
271.84	331.48
272.301	272.96
272.762	261.26
273.223	284.67
273.684	305.73
274.144	308.07
274.605	277.65
275.066	291.69
275.527	195.73
275.987	275.31
276.448	296.37
276.908	317.44
277.369	263.6
277.829	310.41
278.289	237.86
278.75	308.07
279.21	277.65
279.67	315.09
280.13	254.24
280.59	256.58
281.05	310.41
281.51	261.26
281.97	279.99
282.43	287.01
282.89	326.8
283.35	301.05
283.809	212.11
284.269	226.15
284.729	242.54
285.188	268.28
285.648	282.33
286.107	242.54
286.567	277.65
287.026	310.41
287.485	294.03
287.944	240.2
288.404	324.46
288.863	279.99
289.322	240.2
289.781	270.62
290.24	233.18
290.699	308.07
291.158	258.92
291.616	298.71
292.075	240.2
292.534	315.09
292.992	244.88
293.451	261.26
293.91	310.41
294.368	261.26
294.827	251.9
295.285	254.24
295.743	235.52
296.202	310.41
296.66	254.24
297.118	235.52
297.576	333.82
298.034	235.52
298.492	277.65
298.95	305.73
299.408	282.33
299.866	322.12
300.324	357.22
300.781	294.03
301.239	228.49
301.697	282.33
302.154	275.31
302.612	329.14
303.069	289.35
303.527	247.22
303.984	324.46
304.441	308.07
304.899	282.33
305.356	282.33
305.813	345.52
306.27	261.26
306.727	319.78
307.184	301.05
307.641	324.46
308.098	272.96
308.555	287.01
309.012	235.52
309.468	254.24
309.925	308.07
310.382	268.28
310.838	312.75
311.295	301.05
311.751	310.41
312.208	357.22
312.664	312.75
313.12	298.71
313.577	226.15
314.033	249.56
314.489	347.86
314.945	247.22
315.401	315.09
315.857	310.41
316.313	279.99
316.769	310.41
317.225	223.81
317.681	265.94
318.136	263.6
318.592	315.09
319.048	240.2
319.503	244.88
319.959	331.48
320.414	277.65
320.869	294.03
321.325	336.16
321.78	268.28
322.235	237.86
322.691	219.13
323.146	326.8
323.601	301.05
324.056	279.99
324.511	308.07
324.966	294.03
325.421	301.05
325.875	301.05
326.33	221.47
326.785	296.37
327.24	298.71
327.694	287.01
328.149	329.14
328.603	294.03
329.058	317.44
329.512	291.69
329.966	317.44
330.421	207.43
330.875	331.48
331.329	249.56
331.783	216.79
332.237	319.78
332.691	287.01
333.145	312.75
333.599	312.75
334.053	296.37
334.507	310.41
334.96	303.39
335.414	345.52
335.868	214.45
336.321	317.44
336.775	315.09
337.228	308.07
337.682	216.79
338.135	212.11
338.588	343.18
339.042	322.12
339.495	319.78
339.948	305.73
340.401	251.9
340.854	275.31
341.307	294.03
341.76	254.24
342.213	265.94
342.666	254.24
343.119	294.03
343.571	237.86
344.024	272.96
344.477	350.2
344.929	310.41
345.382	275.31
345.834	345.52
346.287	315.09
346.739	294.03
347.191	310.41
347.644	345.52
348.096	338.5
348.548	284.67
349	294.03
349.452	287.01
349.904	338.5
350.356	240.2
350.808	256.58
351.26	308.07
351.711	261.26
352.163	338.5
352.615	294.03
353.066	275.31
353.518	291.69
353.969	301.05
354.421	301.05
354.872	312.75
355.324	322.12
355.775	324.46
356.226	268.28
356.677	319.78
357.128	270.62
357.579	322.12
358.03	256.58
358.481	265.94
358.932	258.92
359.383	296.37
359.834	247.22
360.285	270.62
360.735	251.9
361.186	242.54
361.637	331.48
362.087	350.2
362.538	287.01
362.988	287.01
363.438	310.41
363.889	350.2
364.339	228.49
364.789	294.03
365.239	237.86
365.689	305.73
366.139	298.71
366.589	322.12
367.039	275.31
367.489	308.07
367.939	247.22
368.389	333.82
368.839	242.54
369.288	289.35
369.738	301.05
370.187	247.22
370.637	303.39
371.086	296.37
371.536	305.73
371.985	315.09
372.434	322.12
372.884	298.71
373.333	284.67
373.782	233.18
374.231	308.07
374.68	256.58
375.129	310.41
375.578	242.54
376.027	324.46
376.475	347.86
376.924	242.54
377.373	319.78
377.822	282.33
378.27	289.35
378.719	301.05
379.167	287.01
379.616	305.73
380.064	305.73
380.512	268.28
380.961	296.37
381.409	308.07
381.857	364.25
382.305	308.07
382.753	294.03
383.201	289.35
383.649	305.73
384.097	291.69
384.545	282.33
384.992	336.16
385.44	319.78
385.888	242.54
386.335	282.33
386.783	244.88
387.231	371.27
387.678	329.14
388.125	319.78
388.573	263.6
389.02	296.37
389.467	256.58
389.914	324.46
390.362	291.69
390.809	235.52
391.256	340.84
391.703	312.75
392.15	275.31
392.596	305.73
393.043	319.78
393.49	378.29
393.937	275.31
394.383	308.07
394.83	284.67
395.276	272.96
395.723	289.35
396.169	298.71
396.616	310.41
397.062	340.84
397.508	263.6
397.954	319.78
398.401	324.46
398.847	277.65
399.293	294.03
399.739	324.46
400.185	277.65
400.631	275.31
401.076	279.99
401.522	284.67
401.968	275.31
402.414	364.25
402.859	294.03
403.305	357.22
403.75	345.52
404.196	298.71
404.641	329.14
405.086	340.84
405.532	357.22
405.977	249.56
406.422	310.41
406.867	268.28
407.312	261.26
407.757	301.05
408.202	345.52
408.647	361.91
409.092	331.48
409.537	319.78
409.982	282.33
410.426	272.96
410.871	265.94
411.316	270.62
411.76	282.33
412.205	329.14
412.649	291.69
413.093	303.39
413.538	291.69
413.982	296.37
414.426	263.6
414.87	296.37
415.314	298.71
415.758	352.54
416.202	256.58
416.646	324.46
417.09	294.03
417.534	319.78
417.978	331.48
418.421	303.39
418.865	284.67
419.309	317.44
419.752	324.46
420.196	284.67
420.639	350.2
421.083	308.07
421.526	319.78
421.969	275.31
422.412	279.99
422.856	303.39
423.299	329.14
423.742	212.11
424.185	275.31
424.628	249.56
425.071	350.2
425.513	333.82
425.956	251.9
426.399	340.84
426.842	214.45
427.284	209.77
427.727	336.16
428.169	310.41
428.612	322.12
429.054	277.65
429.497	336.16
429.939	310.41
430.381	305.73
430.823	312.75
431.265	275.31
431.707	338.5
432.149	329.14
432.591	303.39
433.033	294.03
433.475	322.12
433.917	272.96
434.359	361.91
434.8	279.99
435.242	279.99
435.684	322.12
436.125	357.22
436.567	303.39
437.008	287.01
437.449	296.37
437.891	270.62
438.332	329.14
438.773	275.31
439.214	298.71
439.656	265.94
440.097	263.6
440.538	249.56
440.978	294.03
441.419	230.84
441.86	265.94
442.301	207.43
442.742	284.67
443.182	322.12
443.623	275.31
444.063	279.99
444.504	296.37
444.944	326.8
445.385	317.44
445.825	354.88
446.265	287.01
446.706	261.26
447.146	333.82
447.586	296.37
448.026	277.65
448.466	317.44
448.906	282.33
449.346	275.31
449.786	294.03
450.225	294.03
450.665	301.05
451.105	287.01
451.544	298.71
451.984	265.94
452.424	326.8
452.863	301.05
453.302	237.86
453.742	277.65
454.181	298.71
454.62	305.73
455.059	338.5
455.499	294.03
455.938	331.48
456.377	282.33
456.816	312.75
457.254	329.14
457.693	265.94
458.132	219.13
458.571	305.73
459.01	317.44
459.448	389.99
459.887	303.39
460.325	331.48
460.764	279.99
461.202	305.73
461.641	284.67
462.079	331.48
462.517	298.71
462.955	291.69
463.393	284.67
463.832	279.99
464.27	233.18
464.708	296.37
465.145	343.18
465.583	345.52
466.021	272.96
466.459	244.88
466.897	275.31
467.334	303.39
467.772	263.6
468.209	361.91
468.647	315.09
469.084	298.71
469.522	317.44
469.959	287.01
470.396	331.48
470.833	373.61
471.271	282.33
471.708	277.65
472.145	312.75
472.582	378.29
473.019	357.22
473.456	338.5
473.892	261.26
474.329	279.99
474.766	247.22
475.202	310.41
475.639	268.28
476.076	380.63
476.512	305.73
476.949	387.65
477.385	319.78
477.821	289.35
478.258	223.81
478.694	251.9
479.13	275.31
479.566	338.5
480.002	324.46
480.438	338.5
480.874	287.01
481.31	326.8
481.746	333.82
482.181	265.94
482.617	296.37
483.053	294.03
483.488	268.28
483.924	279.99
484.36	228.49
484.795	270.62
485.23	284.67
485.666	317.44
486.101	277.65
486.536	223.81
486.971	277.65
487.407	312.75
487.842	315.09
488.277	261.26
488.712	258.92
489.146	308.07
489.581	312.75
490.016	294.03
490.451	287.01
490.885	265.94
491.32	277.65
491.755	279.99
492.189	294.03
492.624	326.8
493.058	308.07
493.492	322.12
493.927	301.05
494.361	312.75
494.795	343.18
495.229	361.91
495.663	368.93
496.097	315.09
496.531	331.48
496.965	326.8
497.399	322.12
497.833	256.58
498.266	336.16
498.7	303.39
499.134	333.82
499.567	308.07
500.001	359.56
500.434	310.41
500.868	279.99
501.301	303.39
501.734	310.41
502.168	368.93
502.601	291.69
503.034	301.05
503.467	289.35
503.9	296.37
504.333	317.44
504.766	296.37
505.199	347.86
505.632	329.14
506.064	317.44
506.497	287.01
506.93	345.52
507.362	338.5
507.795	310.41
508.227	291.69
508.66	289.35
509.092	254.24
509.524	272.96
509.956	268.28
510.389	272.96
510.821	301.05
511.253	272.96
511.685	305.73
512.117	303.39
512.549	282.33
512.981	287.01
513.412	315.09
513.844	354.88
514.276	228.49
514.707	277.65
515.139	298.71
515.571	247.22
516.002	343.18
516.433	364.25
516.865	298.71
517.296	352.54
517.727	289.35
518.159	298.71
518.59	301.05
519.021	310.41
519.452	275.31
519.883	235.52
520.314	282.33
520.744	305.73
521.175	287.01
521.606	368.93
522.037	301.05
522.467	272.96
522.898	326.8
523.328	298.71
523.759	317.44
524.189	272.96
524.62	282.33
525.05	319.78
525.48	310.41
525.91	310.41
526.341	343.18
526.771	310.41
527.201	319.78
527.631	263.6
528.061	184.02
528.49	298.71
528.92	333.82
529.35	282.33
529.78	272.96
530.209	251.9
530.639	277.65
531.068	331.48
531.498	315.09
531.927	296.37
532.357	258.92
532.786	270.62
533.215	261.26
533.644	354.88
534.074	308.07
534.503	298.71
534.932	272.96
535.361	301.05
535.79	315.09
536.218	310.41
536.647	329.14
537.076	249.56
537.505	287.01
537.933	317.44
538.362	305.73
538.79	324.46
539.219	345.52
539.647	331.48
540.076	305.73
540.504	275.31
540.932	340.84
541.36	263.6
541.788	326.8
542.217	368.93
542.645	312.75
543.073	387.65
543.5	329.14
543.928	291.69
544.356	270.62
544.784	317.44
545.211	294.03
545.639	254.24
546.067	291.69
546.494	329.14
546.922	268.28
547.349	298.71
547.776	282.33
548.204	254.24
548.631	272.96
549.058	317.44
549.485	282.33
549.912	333.82
550.339	263.6
550.766	343.18
551.193	287.01
551.62	338.5
552.047	294.03
552.474	315.09
552.9	294.03
553.327	284.67
553.754	324.46
554.18	261.26
554.607	340.84
555.033	354.88
555.459	289.35
555.886	322.12
556.312	296.37
556.738	317.44
557.164	319.78
557.59	324.46
558.016	233.18
558.442	289.35
558.868	319.78
559.294	399.35
559.72	279.99
560.145	296.37
560.571	244.88
560.997	235.52
561.422	364.25
561.848	329.14
562.273	303.39
562.699	263.6
563.124	301.05
563.549	268.28
563.974	301.05
564.4	294.03
564.825	310.41
565.25	310.41
565.675	322.12
566.1	254.24
566.525	284.67
566.95	319.78
567.374	329.14
567.799	317.44
568.224	305.73
568.648	322.12
569.073	244.88
569.497	240.2
569.922	296.37
570.346	298.71
570.771	331.48
571.195	244.88
571.619	312.75
572.043	317.44
572.467	319.78
572.891	308.07
573.315	301.05
573.739	247.22
574.163	315.09
574.587	310.41
575.011	310.41
575.435	319.78
575.858	340.84
576.282	275.31
576.705	357.22
577.129	287.01
577.552	324.46
577.976	256.58
578.399	289.35
578.822	301.05
579.245	326.8
579.669	233.18
580.092	298.71
580.515	324.46
580.938	343.18
581.361	305.73
581.784	347.86
582.206	249.56
582.629	317.44
583.052	340.84
583.474	294.03
583.897	272.96
584.32	294.03
584.742	315.09
585.165	312.75
585.587	303.39
586.009	272.96
586.431	336.16
586.854	279.99
587.276	294.03
587.698	265.94
588.12	287.01
588.542	287.01
588.964	235.52
589.386	308.07
589.807	237.86
590.229	265.94
590.651	284.67
591.073	296.37
591.494	301.05
591.916	275.31
592.337	294.03
592.759	289.35
593.18	326.8
593.601	310.41
594.022	242.54
594.444	312.75
594.865	310.41
595.286	277.65
595.707	305.73
596.128	305.73
596.549	322.12
596.97	305.73
597.39	275.31
597.811	279.99
598.232	322.12
598.652	378.29
599.073	317.44
599.494	265.94
599.914	296.37
600.334	242.54
600.755	312.75
601.175	310.41
601.595	298.71
602.015	251.9
602.436	361.91
602.856	434.46
603.276	301.05
603.696	324.46
604.115	301.05
604.535	322.12
604.955	298.71
605.375	287.01
605.794	270.62
606.214	357.22
606.634	308.07
607.053	343.18
607.473	289.35
607.892	272.96
608.311	263.6
608.731	263.6
609.15	326.8
609.569	263.6
609.988	319.78
610.407	296.37
610.826	319.78
611.245	305.73
611.664	258.92
612.083	249.56
612.501	317.44
612.92	272.96
613.339	265.94
613.757	331.48
614.176	322.12
614.594	324.46
615.013	268.28
615.431	279.99
615.85	275.31
616.268	312.75
616.686	261.26
617.104	279.99
617.522	324.46
617.94	289.35
618.358	279.99
618.776	338.5
619.194	301.05
619.612	322.12
620.03	347.86
620.447	287.01
620.865	272.96
621.282	249.56
621.7	219.13
622.117	315.09
622.535	317.44
622.952	287.01
623.369	340.84
623.787	345.52
624.204	317.44
624.621	343.18
625.038	317.44
625.455	289.35
625.872	347.86
626.289	287.01
626.706	289.35
627.123	207.43
627.539	226.15
627.956	249.56
628.373	279.99
628.789	305.73
629.206	301.05
629.622	315.09
630.038	284.67
630.455	315.09
630.871	326.8
631.287	287.01
631.703	322.12
632.12	308.07
632.536	279.99
632.952	226.15
633.368	275.31
633.783	308.07
634.199	272.96
634.615	235.52
635.031	249.56
635.446	247.22
635.862	310.41
636.277	291.69
636.693	258.92
637.108	322.12
637.524	345.52
637.939	277.65
638.354	268.28
638.77	284.67
639.185	354.88
639.6	258.92
640.015	294.03
640.43	317.44
640.845	317.44
641.259	310.41
641.674	228.49
642.089	350.2
642.504	333.82
642.918	338.5
643.333	329.14
643.747	303.39
644.162	284.67
644.576	312.75
644.991	291.69
645.405	305.73
645.819	298.71
646.233	425.1
646.647	317.44
647.061	291.69
647.475	270.62
647.889	315.09
648.303	275.31
648.717	310.41
649.131	291.69
649.545	301.05
649.958	228.49
650.372	265.94
650.785	268.28
651.199	305.73
651.612	287.01
652.026	275.31
652.439	294.03
652.852	233.18
653.266	322.12
653.679	284.67
654.092	322.12
654.505	279.99
654.918	287.01
655.331	284.67
655.744	284.67
656.156	279.99
656.569	324.46
656.982	284.67
657.394	322.12
657.807	317.44
658.22	296.37
658.632	322.12
659.044	350.2
659.457	228.49
659.869	305.73
660.281	279.99
660.693	261.26
661.106	317.44
661.518	279.99
661.93	256.58
662.342	319.78
662.754	366.59
663.165	315.09
663.577	287.01
663.989	289.35
664.401	319.78
664.812	240.2
665.224	294.03
665.635	289.35
666.047	366.59
666.458	296.37
666.869	359.56
667.281	289.35
667.692	375.95
668.103	324.46
668.514	279.99
668.925	308.07
669.336	324.46
669.747	296.37
670.158	265.94
670.569	357.22
670.979	315.09
671.39	251.9
671.801	242.54
672.211	233.18
672.622	296.37
673.032	345.52
673.443	305.73
673.853	291.69
674.263	315.09
674.674	326.8
675.084	277.65
675.494	354.88
675.904	343.18
676.314	279.99
676.724	305.73
677.134	308.07
677.544	357.22
677.953	326.8
678.363	282.33
678.773	312.75
679.182	333.82
679.592	315.09
680.001	338.5
680.411	258.92
680.82	336.16
681.23	294.03
681.639	228.49
682.048	319.78
682.457	247.22
682.866	249.56
683.275	265.94
683.684	284.67
684.093	230.84
684.502	237.86
684.911	275.31
685.32	284.67
685.728	322.12
686.137	284.67
686.546	289.35
686.954	331.48
687.363	336.16
687.771	275.31
688.179	294.03
688.588	333.82
688.996	256.58
689.404	319.78
689.812	340.84
690.22	265.94
690.628	326.8
691.036	326.8
691.444	254.24
691.852	298.71
692.26	312.75
692.667	301.05
693.075	263.6
693.483	282.33
693.89	226.15
694.298	326.8
694.705	244.88
695.112	404.03
695.52	361.91
695.927	338.5
696.334	315.09
696.741	287.01
697.148	319.78
697.555	303.39
697.962	254.24
698.369	275.31
698.776	317.44
699.183	254.24
699.59	345.52
699.996	287.01
700.403	237.86
700.81	254.24
701.216	333.82
701.623	263.6
702.029	336.16
702.435	312.75
702.842	319.78
703.248	336.16
703.654	301.05
704.06	310.41
704.466	331.48
704.872	291.69
705.278	277.65
705.684	319.78
706.09	282.33
706.496	336.16
706.901	333.82
707.307	275.31
707.712	287.01
708.118	329.14
708.523	343.18
708.929	265.94
709.334	256.58
709.74	298.71
710.145	291.69
710.55	340.84
710.955	298.71
711.36	326.8
711.765	272.96
712.17	357.22
712.575	294.03
712.98	853.42
713.385	380.63
713.789	310.41
714.194	277.65
714.599	265.94
715.003	291.69
715.408	237.86
715.812	268.28
716.217	294.03
716.621	275.31
717.025	305.73
717.429	317.44
717.833	279.99
718.238	303.39
718.642	275.31
719.046	247.22
719.449	282.33
719.853	301.05
720.257	289.35
720.661	303.39
721.065	270.62
721.468	277.65
721.872	291.69
722.275	343.18
722.679	312.75
723.082	371.27
723.485	205.09
723.889	291.69
724.292	251.9
724.695	308.07
725.098	294.03
725.501	291.69
725.904	310.41
726.307	361.91
726.71	268.28
727.113	261.26
727.516	315.09
727.918	287.01
728.321	219.13
728.724	303.39
729.126	333.82
729.529	331.48
729.931	308.07
730.333	284.67
730.736	303.39
731.138	303.39
731.54	336.16
731.942	296.37
732.344	350.2
732.746	368.93
733.148	284.67
733.55	310.41
733.952	284.67
734.354	242.54
734.756	242.54
735.157	233.18
735.559	249.56
735.96	270.62
736.362	310.41
736.763	272.96
737.165	333.82
737.566	251.9
737.967	282.33
738.368	291.69
738.77	287.01
739.171	336.16
739.572	319.78
739.973	324.46
740.374	277.65
740.774	195.73
741.175	319.78
741.576	287.01
741.977	279.99
742.377	256.58
742.778	235.52
743.178	333.82
743.579	298.71
743.979	324.46
744.379	303.39
744.78	310.41
745.18	298.71
745.58	371.27
745.98	284.67
746.38	279.99
746.78	338.5
747.18	268.28
747.58	284.67
747.98	298.71
748.38	282.33
748.779	235.52
749.179	331.48
749.578	308.07
749.978	287.01
750.377	319.78
750.777	319.78
751.176	294.03
751.575	268.28
751.975	303.39
752.374	315.09
752.773	277.65
753.172	317.44
753.571	270.62
753.97	312.75
754.369	289.35
754.768	247.22
755.166	263.6
755.565	268.28
755.964	270.62
756.362	352.54
756.761	354.88
757.159	249.56
757.558	275.31
757.956	305.73
758.354	261.26
758.753	287.01
759.151	303.39
759.549	354.88
759.947	364.25
760.345	324.46
760.743	256.58
761.141	298.71
761.539	366.59
761.936	315.09
762.334	331.48
762.732	345.52
763.129	347.86
763.527	287.01
763.924	275.31
764.322	265.94
764.719	296.37
765.117	296.37
765.514	265.94
765.911	247.22
766.308	270.62
766.705	256.58
767.102	340.84
767.499	298.71
767.896	364.25
768.293	319.78
768.69	294.03
769.086	279.99
769.483	296.37
769.88	301.05
770.276	277.65
770.673	326.8
771.069	296.37
771.466	279.99
771.862	268.28
772.258	345.52
772.654	296.37
773.05	303.39
773.447	272.96
773.843	317.44
774.239	338.5
774.634	373.61
775.03	294.03
775.426	291.69
775.822	244.88
776.218	319.78
776.613	268.28
777.009	294.03
777.404	324.46
777.8	357.22
778.195	287.01
778.59	275.31
778.986	265.94
779.381	294.03
779.776	277.65
780.171	275.31
780.566	312.75
780.961	322.12
781.356	368.93
781.751	270.62
782.146	289.35
782.54	284.67
782.935	284.67
783.33	298.71
783.724	352.54
784.119	282.33
784.513	336.16
784.908	350.2
785.302	249.56
785.696	284.67
786.09	268.28
786.485	305.73
786.879	308.07
787.273	261.26
787.667	256.58
788.061	298.71
788.454	308.07
788.848	329.14
789.242	310.41
789.636	308.07
790.029	291.69
790.423	268.28
790.816	324.46
791.21	375.95
791.603	240.2
791.997	226.15
792.39	251.9
792.783	265.94
793.176	329.14
793.569	345.52
793.962	258.92
794.355	315.09
794.748	279.99
795.141	254.24
795.534	287.01
795.927	294.03
796.319	289.35
796.712	291.69
797.105	319.78
797.497	265.94
797.89	270.62
798.282	357.22
798.674	291.69
799.067	268.28
799.459	312.75
799.851	347.86
800.243	319.78
800.635	287.01
801.027	242.54
801.419	298.71
801.811	291.69
802.203	272.96
802.594	270.62
802.986	305.73
803.378	338.5
803.769	287.01
804.161	301.05
804.552	277.65
804.944	279.99
805.335	240.2
805.726	415.74
806.118	343.18
806.509	233.18
806.9	338.5
807.291	340.84
807.682	265.94
808.073	322.12
808.464	375.95
808.855	277.65
809.245	223.81
809.636	298.71
810.027	261.26
810.417	258.92
810.808	326.8
811.198	319.78
811.589	221.47
811.979	301.05
812.369	275.31
812.759	287.01
813.15	296.37
813.54	294.03
813.93	315.09
814.32	317.44
814.71	322.12
815.1	331.48
815.489	284.67
815.879	345.52
816.269	230.84
816.658	275.31
817.048	312.75
817.438	308.07
817.827	333.82
818.216	308.07
818.606	340.84
818.995	275.31
819.384	291.69
819.773	298.71
820.163	301.05
820.552	289.35
820.941	265.94
821.33	310.41
821.718	249.56
822.107	272.96
822.496	235.52
822.885	284.67
823.273	301.05
823.662	289.35
824.05	221.47
824.439	305.73
824.827	270.62
825.216	319.78
825.604	287.01
825.992	284.67
826.38	326.8
826.768	352.54
827.156	221.47
827.544	279.99
827.932	298.71
828.32	315.09
828.708	228.49
829.096	261.26
829.483	343.18
829.871	375.95
830.259	247.22
830.646	350.2
831.034	263.6
831.421	261.26
831.808	272.96
832.196	326.8
832.583	326.8
832.97	277.65
833.357	254.24
833.744	343.18
834.131	226.15
834.518	324.46
834.905	364.25
835.292	282.33
835.678	298.71
836.065	272.96
836.452	284.67
836.838	226.15
837.225	324.46
837.611	310.41
837.998	338.5
838.384	219.13
838.77	324.46
839.157	242.54
839.543	329.14
839.929	277.65
840.315	228.49
840.701	317.44
841.087	263.6
841.473	277.65
841.858	354.88
842.244	284.67
842.63	230.84
843.015	268.28
843.401	593.62
843.787	319.78
844.172	209.77
844.557	270.62
844.943	322.12
845.328	336.16
845.713	324.46
846.098	303.39
846.483	263.6
846.868	261.26
847.253	287.01
847.638	326.8
848.023	265.94
848.408	301.05
848.793	324.46
849.177	261.26
849.562	333.82
849.947	205.09
850.331	329.14
850.715	322.12
851.1	301.05
851.484	322.12
851.868	347.86
852.253	277.65
852.637	279.99
853.021	277.65
853.405	368.93
853.789	287.01
854.173	265.94
854.557	347.86
854.94	242.54
855.324	303.39
855.708	308.07
856.091	289.35
856.475	343.18
856.858	296.37
857.242	284.67
857.625	296.37
858.009	287.01
858.392	284.67
858.775	317.44
859.158	298.71
859.541	279.99
859.924	294.03
860.307	265.94
860.69	287.01
861.073	333.82
861.456	277.65
861.838	279.99
862.221	303.39
862.604	270.62
862.986	284.67
863.369	294.03
863.751	319.78
864.133	308.07
864.516	263.6
864.898	270.62
865.28	340.84
865.662	249.56
866.044	301.05
866.426	338.5
866.808	282.33
867.19	284.67
867.572	284.67
867.954	277.65
868.336	268.28
868.717	249.56
869.099	368.93
869.48	298.71
869.862	289.35
870.243	256.58
870.625	270.62
871.006	256.58
871.387	212.11
871.768	301.05
872.149	289.35
872.53	343.18
872.911	256.58
873.292	326.8
873.673	268.28
874.054	287.01
874.435	270.62
874.815	322.12
875.196	240.2
875.577	256.58
875.957	265.94
876.338	324.46
876.718	382.97
877.098	308.07
877.479	317.44
877.859	265.94
878.239	359.56
878.619	310.41
878.999	244.88
879.379	333.82
879.759	326.8
880.139	242.54
880.519	240.2
880.898	329.14
881.278	275.31
881.658	385.31
882.037	329.14
882.417	270.62
882.796	282.33
883.176	317.44
883.555	301.05
883.934	371.27
884.313	357.22
884.693	319.78
885.072	268.28
885.451	258.92
885.83	275.31
886.209	287.01
886.587	258.92
886.966	364.25
887.345	368.93
887.724	298.71
888.102	308.07
888.481	289.35
888.859	263.6
889.238	373.61
889.616	296.37
889.994	343.18
890.373	282.33
890.751	268.28
891.129	282.33
891.507	279.99
891.885	289.35
892.263	296.37
892.641	382.97
893.019	272.96
893.396	282.33
893.774	343.18
894.152	265.94
894.529	338.5
894.907	272.96
895.284	277.65
895.662	251.9
896.039	247.22
896.416	319.78
896.794	277.65
897.171	289.35
897.548	329.14
897.925	350.2
898.302	333.82
898.679	326.8
899.056	282.33
899.433	315.09
899.809	242.54
900.186	275.31
900.563	296.37
900.939	347.86
901.316	242.54
901.692	315.09
902.069	322.12
902.445	340.84
902.821	272.96
903.197	324.46
903.574	354.88
903.95	326.8
904.326	340.84
904.702	305.73
905.078	284.67
905.454	277.65
905.829	282.33
906.205	317.44
906.581	303.39
906.956	223.81
907.332	322.12
907.707	272.96
908.083	254.24
908.458	294.03
908.833	291.69
909.209	326.8
909.584	305.73
909.959	291.69
910.334	312.75
910.709	277.65
911.084	249.56
911.459	298.71
911.834	268.28
912.209	270.62
912.583	298.71
912.958	322.12
913.333	277.65
913.707	336.16
914.082	296.37
914.456	258.92
914.83	326.8
915.205	289.35
915.579	333.82
915.953	303.39
916.327	251.9
916.701	338.5
917.075	263.6
917.449	270.62
917.823	289.35
918.197	338.5
918.571	258.92
918.944	263.6
919.318	230.84
919.692	268.28
920.065	329.14
920.438	265.94
920.812	235.52
921.185	317.44
921.558	284.67
921.932	263.6
922.305	289.35
922.678	301.05
923.051	319.78
923.424	312.75
923.797	375.95
924.17	240.2
924.542	301.05
924.915	305.73
925.288	303.39
925.661	282.33
926.033	223.81
926.406	310.41
926.778	284.67
927.15	251.9
927.523	315.09
927.895	347.86
928.267	235.52
928.639	279.99
929.011	277.65
929.383	251.9
929.755	319.78
930.127	263.6
930.499	329.14
930.871	303.39
931.242	291.69
931.614	268.28
931.986	235.52
932.357	249.56
932.729	219.13
933.1	315.09
933.471	223.81
933.843	338.5
934.214	322.12
934.585	340.84
934.956	284.67
935.327	254.24
935.698	315.09
936.069	303.39
936.44	298.71
936.811	303.39
937.182	240.2
937.552	298.71
937.923	373.61
938.293	305.73
938.664	308.07
939.034	237.86
939.405	216.79
939.775	296.37
940.145	359.56
940.516	324.46
940.886	308.07
941.256	333.82
941.626	294.03
941.996	331.48
942.366	326.8
942.735	287.01
943.105	228.49
943.475	378.29
943.845	364.25
944.214	319.78
944.584	317.44
944.953	345.52
945.323	336.16
945.692	319.78
946.061	315.09
946.43	291.69
946.8	263.6
947.169	296.37
947.538	305.73
947.907	284.67
948.276	244.88
948.645	315.09
949.013	331.48
949.382	317.44
949.751	308.07
950.119	230.84
950.488	340.84
950.857	298.71
951.225	244.88
951.593	352.54
951.962	275.31
952.33	294.03
952.698	296.37
953.066	272.96
953.434	289.35
953.802	354.88
954.17	312.75
954.538	317.44
954.906	272.96
955.274	291.69
955.642	240.2
956.009	284.67
956.377	287.01
956.744	291.69
957.112	310.41
957.479	364.25
957.847	294.03
958.214	326.8
958.581	352.54
958.948	282.33
959.315	287.01
959.683	317.44
960.05	324.46
960.416	359.56
960.783	272.96
961.15	256.58
961.517	315.09
961.884	284.67
962.25	284.67
962.617	254.24
962.983	289.35
963.35	256.58
963.716	265.94
964.082	237.86
964.449	296.37
964.815	333.82
965.181	228.49
965.547	312.75
965.913	275.31
966.279	298.71
966.645	312.75
967.011	294.03
967.377	294.03
967.742	284.67
968.108	380.63
968.474	308.07
968.839	308.07
969.205	223.81
969.57	317.44
969.935	331.48
970.301	282.33
970.666	315.09
971.031	277.65
971.396	291.69
971.761	209.77
972.126	277.65
972.491	289.35
972.856	336.16
973.221	301.05
973.586	298.71
973.95	308.07
974.315	296.37
974.679	329.14
975.044	319.78
975.408	249.56
975.773	319.78
976.137	289.35
976.501	305.73
976.866	324.46
977.23	350.2
977.594	244.88
977.958	296.37
978.322	326.8
978.686	237.86
979.049	336.16
979.413	338.5
979.777	270.62
980.141	282.33
980.504	308.07
980.868	296.37
981.231	193.39
981.595	254.24
981.958	282.33
982.321	287.01
982.684	326.8
983.048	289.35
983.411	375.95
983.774	254.24
984.137	336.16
984.5	263.6
984.862	296.37
985.225	315.09
985.588	305.73
985.951	301.05
986.313	305.73
986.676	322.12
987.038	331.48
987.401	261.26
987.763	221.47
988.125	279.99
988.488	289.35
988.85	340.84
989.212	287.01
989.574	289.35
989.936	240.2
990.298	263.6
990.66	279.99
991.022	289.35
991.383	296.37
991.745	289.35
992.107	301.05
992.468	329.14
992.83	324.46
993.191	275.31
993.553	305.73
993.914	258.92
994.275	282.33
994.637	317.44
994.998	228.49
995.359	275.31
995.72	317.44
996.081	277.65
996.442	282.33
996.803	317.44
997.163	312.75
997.524	282.33
997.885	317.44
998.245	277.65
998.606	319.78
998.966	256.58
999.327	277.65
999.687	282.33
1000.047	289.35
1000.408	315.09
1000.768	284.67
1001.128	331.48
1001.488	296.37
1001.848	319.78
1002.208	322.12
1002.568	294.03
1002.927	317.44
1003.287	275.31
1003.647	291.69
1004.007	317.44
1004.366	359.56
1004.726	301.05
1005.085	326.8
1005.444	301.05
1005.804	329.14
1006.163	326.8
1006.522	310.41
1006.881	268.28
1007.24	244.88
1007.599	282.33
1007.958	268.28
1008.317	282.33
1008.676	312.75
1009.035	324.46
1009.393	282.33
1009.752	340.84
1010.111	338.5
1010.469	298.71
1010.828	233.18
1011.186	235.52
1011.544	275.31
1011.903	263.6
1012.261	319.78
1012.619	282.33
1012.977	357.22
1013.335	284.67
1013.693	338.5
1014.051	282.33
1014.409	319.78
1014.767	315.09
1015.124	326.8
1015.482	282.33
1015.84	263.6
1016.197	207.43
1016.555	275.31
1016.912	338.5
1017.269	282.33
1017.627	254.24
1017.984	230.84
1018.341	298.71
1018.698	324.46
1019.055	291.69
1019.412	268.28
1019.769	251.9
1020.126	263.6
1020.483	284.67
1020.84	310.41
1021.196	247.22
1021.553	272.96
1021.909	310.41
1022.266	303.39
1022.622	324.46
1022.979	289.35
1023.335	319.78
1023.691	268.28
1024.047	298.71
1024.404	303.39
1024.76	263.6
1025.116	263.6
1025.472	340.84
1025.827	305.73
1026.183	233.18
1026.539	315.09
1026.895	277.65
1027.25	256.58
1027.606	275.31
1027.961	301.05
1028.317	261.26
1028.672	298.71
1029.028	350.2
1029.383	256.58
1029.738	319.78
1030.093	282.33
1030.448	361.91
1030.803	289.35
1031.158	294.03
1031.513	291.69
1031.868	291.69
1032.223	284.67
1032.577	287.01
1032.932	279.99
1033.287	272.96
1033.641	296.37
1033.996	345.52
1034.35	270.62
1034.704	244.88
1035.059	287.01
1035.413	354.88
1035.767	354.88
1036.121	354.88
