Data from Al_FLMS009871__1058__16-25-17-613.txt Node

Date: Fri Mar 08 16:25:17 CST 2024
User: pe5414po
Spectrometer: FLMS00987
Trigger mode: 0
Integration Time (sec): 1.000000E-1
Scans to average: 1
Electric dark correction enabled: true
Nonlinearity correction enabled: false
Boxcar width: 0
XAxis mode: Wavelengths
Number of Pixels in Spectrum: 2048
>>>>>Begin Spectral Data<<<<<
188.938	-143.36
189.409	-143.36
189.879	-143.36
190.349	-96.55
190.819	-108.25
191.29	-105.91
191.76	-63.78
192.23	-124.63
192.7	-68.46
193.17	-63.78
193.64	6.44
194.109	-75.48
194.579	-2.93
195.049	-26.33
195.519	-19.31
195.988	67.29
196.458	41.54
196.927	67.29
197.397	153.89
197.866	69.63
198.336	144.53
198.805	100.06
199.274	158.57
199.744	165.59
200.213	170.27
200.682	193.68
201.151	231.13
201.62	210.06
202.089	235.81
202.558	238.15
203.027	249.85
203.495	268.58
203.964	231.13
204.433	233.47
204.902	273.26
205.37	226.45
205.839	324.75
206.307	263.9
206.776	345.81
207.244	322.41
207.712	289.64
208.181	296.66
208.649	317.73
209.117	266.24
209.585	263.9
210.053	238.15
210.521	357.52
210.989	252.19
211.457	306.03
211.925	233.47
212.393	254.53
212.861	219.43
213.328	284.96
213.796	235.81
214.264	219.43
214.731	280.28
215.199	282.62
215.666	310.71
216.133	270.92
216.601	268.58
217.068	369.22
217.535	256.87
218.003	303.68
218.47	289.64
218.937	235.81
219.404	310.71
219.871	301.34
220.338	263.9
220.805	289.64
221.271	247.51
221.738	284.96
222.205	238.15
222.671	331.77
223.138	266.24
223.605	226.45
224.071	268.58
224.538	249.85
225.004	263.9
225.47	259.21
225.937	299
226.403	268.58
226.869	235.81
227.335	252.19
227.801	301.34
228.267	303.68
228.733	235.81
229.199	224.11
229.665	261.55
230.131	322.41
230.597	240.49
231.062	200.7
231.528	261.55
231.994	270.92
232.459	235.81
232.925	259.21
233.39	231.13
233.856	280.28
234.321	238.15
234.786	313.05
235.252	249.85
235.717	287.3
236.182	270.92
236.647	254.53
237.112	291.98
237.577	259.21
238.042	282.62
238.507	308.37
238.972	219.43
239.436	284.96
239.901	301.34
240.366	289.64
240.83	270.92
241.295	207.72
241.76	282.62
242.224	317.73
242.688	214.74
243.153	336.45
243.617	308.37
244.081	350.5
244.545	266.24
245.01	266.24
245.474	280.28
245.938	294.32
246.402	282.62
246.866	254.53
247.33	310.71
247.793	308.37
248.257	287.3
248.721	219.43
249.185	303.68
249.648	224.11
250.112	238.15
250.575	235.81
251.039	301.34
251.502	296.66
251.965	247.51
252.429	296.66
252.892	266.24
253.355	303.68
253.818	306.03
254.281	273.26
254.744	348.15
255.207	301.34
255.67	273.26
256.133	268.58
256.596	280.28
257.059	256.87
257.522	327.09
257.984	313.05
258.447	282.62
258.909	261.55
259.372	273.26
259.834	242.83
260.297	249.85
260.759	355.18
261.221	313.05
261.684	322.41
262.146	383.26
262.608	273.26
263.07	313.05
263.532	259.21
263.994	315.39
264.456	299
264.918	299
265.38	301.34
265.842	259.21
266.303	301.34
266.765	284.96
267.227	299
267.688	299
268.15	348.15
268.611	317.73
269.072	249.85
269.534	252.19
269.995	275.6
270.456	270.92
270.918	322.41
271.379	291.98
271.84	303.68
272.301	277.94
272.762	252.19
273.223	324.75
273.684	308.37
274.144	310.71
274.605	291.98
275.066	327.09
275.527	217.08
275.987	327.09
276.448	275.6
276.908	224.11
277.369	252.19
277.829	284.96
278.289	242.83
278.75	259.21
279.21	289.64
279.67	341.13
280.13	263.9
280.59	280.28
281.05	263.9
281.51	280.28
281.97	291.98
282.43	238.15
282.89	294.32
283.35	284.96
283.809	327.09
284.269	294.32
284.729	338.79
285.188	315.39
285.648	277.94
286.107	247.51
286.567	320.07
287.026	350.5
287.485	306.03
287.944	324.75
288.404	324.75
288.863	336.45
289.322	263.9
289.781	254.53
290.24	338.79
290.699	324.75
291.158	299
291.616	266.24
292.075	294.32
292.534	317.73
292.992	310.71
293.451	364.54
293.91	282.62
294.368	277.94
294.827	327.09
295.285	224.11
295.743	256.87
296.202	280.28
296.66	273.26
297.118	294.32
297.576	266.24
298.034	329.43
298.492	284.96
298.95	327.09
299.408	282.62
299.866	263.9
300.324	238.15
300.781	301.34
301.239	303.68
301.697	317.73
302.154	303.68
302.612	306.03
303.069	317.73
303.527	301.34
303.984	294.32
304.441	301.34
304.899	306.03
305.356	331.77
305.813	322.41
306.27	324.75
306.727	284.96
307.184	315.39
307.641	273.26
308.098	324.75
308.555	324.75
309.012	310.71
309.468	287.3
309.925	345.81
310.382	282.62
310.838	296.66
311.295	317.73
311.751	235.81
312.208	327.09
312.664	369.22
313.12	334.11
313.577	336.45
314.033	303.68
314.489	191.34
314.945	273.26
315.401	324.75
315.857	364.54
316.313	296.66
316.769	334.11
317.225	359.86
317.681	291.98
318.136	266.24
318.592	343.47
319.048	324.75
319.503	315.39
319.959	299
320.414	259.21
320.869	240.49
321.325	343.47
321.78	306.03
322.235	289.64
322.691	282.62
323.146	310.71
323.601	287.3
324.056	268.58
324.511	303.68
324.966	359.86
325.421	341.13
325.875	254.53
326.33	282.62
326.785	268.58
327.24	320.07
327.694	291.98
328.149	359.86
328.603	331.77
329.058	320.07
329.512	350.5
329.966	280.28
330.421	268.58
330.875	277.94
331.329	280.28
331.783	324.75
332.237	327.09
332.691	338.79
333.145	310.71
333.599	308.37
334.053	366.88
334.507	336.45
334.96	275.6
335.414	331.77
335.868	345.81
336.321	345.81
336.775	228.79
337.228	277.94
337.682	324.75
338.135	331.77
338.588	355.18
339.042	343.47
339.495	287.3
339.948	263.9
340.401	310.71
340.854	331.77
341.307	315.39
341.76	296.66
342.213	336.45
342.666	322.41
343.119	329.43
343.571	259.21
344.024	306.03
344.477	294.32
344.929	254.53
345.382	355.18
345.834	306.03
346.287	385.6
346.739	334.11
347.191	401.99
347.644	299
348.096	334.11
348.548	317.73
349	296.66
349.452	275.6
349.904	303.68
350.356	394.97
350.808	256.87
351.26	310.71
351.711	245.17
352.163	291.98
352.615	331.77
353.066	282.62
353.518	261.55
353.969	341.13
354.421	308.37
354.872	310.71
355.324	289.64
355.775	331.77
356.226	352.84
356.677	317.73
357.128	317.73
357.579	219.43
358.03	268.58
358.481	315.39
358.932	364.54
359.383	294.32
359.834	291.98
360.285	282.62
360.735	249.85
361.186	308.37
361.637	268.58
362.087	261.55
362.538	299
362.988	287.3
363.438	350.5
363.889	315.39
364.339	266.24
364.789	313.05
365.239	348.15
365.689	394.97
366.139	338.79
366.589	315.39
367.039	329.43
367.489	350.5
367.939	289.64
368.389	383.26
368.839	310.71
369.288	322.41
369.738	254.53
370.187	313.05
370.637	284.96
371.086	350.5
371.536	320.07
371.985	317.73
372.434	306.03
372.884	296.66
373.333	291.98
373.782	252.19
374.231	284.96
374.68	212.4
375.129	348.15
375.578	289.64
376.027	252.19
376.475	291.98
376.924	315.39
377.373	261.55
377.822	336.45
378.27	313.05
378.719	299
379.167	348.15
379.616	341.13
380.064	289.64
380.512	324.75
380.961	345.81
381.409	317.73
381.857	301.34
382.305	284.96
382.753	254.53
383.201	322.41
383.649	345.81
384.097	303.68
384.545	404.33
384.992	359.86
385.44	310.71
385.888	270.92
386.335	324.75
386.783	280.28
387.231	268.58
387.678	303.68
388.125	266.24
388.573	306.03
389.02	350.5
389.467	352.84
389.914	362.2
390.362	366.88
390.809	254.53
391.256	334.11
391.703	320.07
392.15	263.9
392.596	313.05
393.043	355.18
393.49	291.98
393.937	280.28
394.383	336.45
394.83	301.34
395.276	336.45
395.723	313.05
396.169	322.41
396.616	331.77
397.062	317.73
397.508	313.05
397.954	263.9
398.401	324.75
398.847	287.3
399.293	303.68
399.739	306.03
400.185	289.64
400.631	320.07
401.076	287.3
401.522	362.2
401.968	240.49
402.414	350.5
402.859	322.41
403.305	334.11
403.75	291.98
404.196	296.66
404.641	334.11
405.086	334.11
405.532	291.98
405.977	336.45
406.422	320.07
406.867	320.07
407.312	315.39
407.757	336.45
408.202	327.09
408.647	331.77
409.092	364.54
409.537	296.66
409.982	317.73
410.426	289.64
410.871	296.66
411.316	336.45
411.76	291.98
412.205	369.22
412.649	275.6
413.093	380.92
413.538	289.64
413.982	313.05
414.426	287.3
414.87	301.34
415.314	338.79
415.758	364.54
416.202	338.79
416.646	380.92
417.09	280.28
417.534	284.96
417.978	369.22
418.421	341.13
418.865	334.11
419.309	317.73
419.752	320.07
420.196	371.56
420.639	306.03
421.083	343.47
421.526	369.22
421.969	331.77
422.412	282.62
422.856	348.15
423.299	310.71
423.742	334.11
424.185	287.3
424.628	341.13
425.071	327.09
425.513	355.18
425.956	352.84
426.399	348.15
426.842	315.39
427.284	308.37
427.727	313.05
428.169	310.71
428.612	387.94
429.054	301.34
429.497	299
429.939	306.03
430.381	317.73
430.823	320.07
431.265	200.7
431.707	303.68
432.149	329.43
432.591	289.64
433.033	308.37
433.475	366.88
433.917	301.34
434.359	280.28
434.8	308.37
435.242	299
435.684	350.5
436.125	350.5
436.567	355.18
437.008	261.55
437.449	280.28
437.891	310.71
438.332	376.24
438.773	336.45
439.214	331.77
439.656	294.32
440.097	294.32
440.538	322.41
440.978	331.77
441.419	338.79
441.86	287.3
442.301	348.15
442.742	329.43
443.182	324.75
443.623	369.22
444.063	371.56
444.504	341.13
444.944	303.68
445.385	320.07
445.825	320.07
446.265	287.3
446.706	320.07
447.146	310.71
447.586	331.77
448.026	275.6
448.466	287.3
448.906	355.18
449.346	327.09
449.786	310.71
450.225	306.03
450.665	306.03
451.105	308.37
451.544	275.6
451.984	336.45
452.424	277.94
452.863	277.94
453.302	270.92
453.742	301.34
454.181	303.68
454.62	315.39
455.059	282.62
455.499	308.37
455.938	313.05
456.377	240.49
456.816	315.39
457.254	341.13
457.693	336.45
458.132	301.34
458.571	282.62
459.01	291.98
459.448	301.34
459.887	308.37
460.325	270.92
460.764	322.41
461.202	350.5
461.641	364.54
462.079	252.19
462.517	266.24
462.955	362.2
463.393	254.53
463.832	294.32
464.27	336.45
464.708	334.11
465.145	366.88
465.583	322.41
466.021	263.9
466.459	299
466.897	315.39
467.334	355.18
467.772	291.98
468.209	373.9
468.647	284.96
469.084	324.75
469.522	256.87
469.959	322.41
470.396	299
470.833	301.34
471.271	324.75
471.708	338.79
472.145	287.3
472.582	261.55
473.019	331.77
473.456	343.47
473.892	383.26
474.329	310.71
474.766	373.9
475.202	385.6
475.639	291.98
476.076	313.05
476.512	322.41
476.949	350.5
477.385	341.13
477.821	355.18
478.258	320.07
478.694	394.97
479.13	366.88
479.566	390.28
480.002	355.18
480.438	317.73
480.874	322.41
481.31	359.86
481.746	320.07
482.181	364.54
482.617	317.73
483.053	231.13
483.488	324.75
483.924	317.73
484.36	317.73
484.795	266.24
485.23	296.66
485.666	245.17
486.101	327.09
486.536	308.37
486.971	324.75
487.407	282.62
487.842	317.73
488.277	373.9
488.712	313.05
489.146	320.07
489.581	331.77
490.016	331.77
490.451	294.32
490.885	385.6
491.32	294.32
491.755	310.71
492.189	366.88
492.624	273.26
493.058	317.73
493.492	287.3
493.927	327.09
494.361	350.5
494.795	373.9
495.229	294.32
495.663	301.34
496.097	327.09
496.531	291.98
496.965	303.68
497.399	324.75
497.833	299
498.266	308.37
498.7	256.87
499.134	366.88
499.567	334.11
500.001	355.18
500.434	299
500.868	352.84
501.301	252.19
501.734	296.66
502.168	289.64
502.601	406.67
503.034	338.79
503.467	341.13
503.9	310.71
504.333	299
504.766	273.26
505.199	345.81
505.632	287.3
506.064	280.28
506.497	345.81
506.93	336.45
507.362	331.77
507.795	376.24
508.227	341.13
508.66	275.6
509.092	289.64
509.524	376.24
509.956	284.96
510.389	306.03
510.821	277.94
511.253	345.81
511.685	289.64
512.117	329.43
512.549	245.17
512.981	301.34
513.412	327.09
513.844	331.77
514.276	308.37
514.707	331.77
515.139	336.45
515.571	313.05
516.002	277.94
516.433	299
516.865	282.62
517.296	313.05
517.727	329.43
518.159	315.39
518.59	341.13
519.021	345.81
519.452	324.75
519.883	289.64
520.314	329.43
520.744	291.98
521.175	373.9
521.606	329.43
522.037	331.77
522.467	313.05
522.898	303.68
523.328	355.18
523.759	313.05
524.189	348.15
524.62	329.43
525.05	357.52
525.48	322.41
525.91	259.21
526.341	261.55
526.771	359.86
527.201	294.32
527.631	310.71
528.061	296.66
528.49	350.5
528.92	296.66
529.35	348.15
529.78	294.32
530.209	348.15
530.639	343.47
531.068	287.3
531.498	261.55
531.927	338.79
532.357	317.73
532.786	338.79
533.215	334.11
533.644	355.18
534.074	303.68
534.503	355.18
534.932	261.55
535.361	366.88
535.79	341.13
536.218	315.39
536.647	256.87
537.076	294.32
537.505	191.34
537.933	277.94
538.362	394.97
538.79	273.26
539.219	324.75
539.647	320.07
540.076	338.79
540.504	303.68
540.932	331.77
541.36	329.43
541.788	345.81
542.217	294.32
542.645	301.34
543.073	306.03
543.5	289.64
543.928	280.28
544.356	277.94
544.784	280.28
545.211	357.52
545.639	289.64
546.067	327.09
546.494	380.92
546.922	284.96
547.349	294.32
547.776	327.09
548.204	327.09
548.631	315.39
549.058	287.3
549.485	334.11
549.912	387.94
550.339	270.92
550.766	343.47
551.193	254.53
551.62	334.11
552.047	287.3
552.474	336.45
552.9	320.07
553.327	369.22
553.754	343.47
554.18	306.03
554.607	331.77
555.033	289.64
555.459	343.47
555.886	291.98
556.312	338.79
556.738	310.71
557.164	317.73
557.59	320.07
558.016	341.13
558.442	280.28
558.868	317.73
559.294	303.68
559.72	373.9
560.145	399.65
560.571	373.9
560.997	289.64
561.422	268.58
561.848	303.68
562.273	338.79
562.699	350.5
563.124	261.55
563.549	338.79
563.974	287.3
564.4	280.28
564.825	277.94
565.25	308.37
565.675	331.77
566.1	320.07
566.525	322.41
566.95	296.66
567.374	252.19
567.799	240.49
568.224	294.32
568.648	249.85
569.073	296.66
569.497	280.28
569.922	338.79
570.346	324.75
570.771	343.47
571.195	273.26
571.619	238.15
572.043	331.77
572.467	291.98
572.891	259.21
573.315	313.05
573.739	352.84
574.163	310.71
574.587	355.18
575.011	301.34
575.435	366.88
575.858	291.98
576.282	313.05
576.705	369.22
577.129	284.96
577.552	247.51
577.976	336.45
578.399	352.84
578.822	291.98
579.245	338.79
579.669	315.39
580.092	280.28
580.515	277.94
580.938	359.86
581.361	350.5
581.784	277.94
582.206	313.05
582.629	324.75
583.052	282.62
583.474	310.71
583.897	366.88
584.32	366.88
584.742	249.85
585.165	331.77
585.587	336.45
586.009	373.9
586.431	270.92
586.854	315.39
587.276	366.88
587.698	331.77
588.12	355.18
588.542	369.22
588.964	334.11
589.386	341.13
589.807	282.62
590.229	294.32
590.651	310.71
591.073	315.39
591.494	334.11
591.916	303.68
592.337	282.62
592.759	345.81
593.18	320.07
593.601	315.39
594.022	291.98
594.444	261.55
594.865	331.77
595.286	280.28
595.707	320.07
596.128	317.73
596.549	341.13
596.97	338.79
597.39	392.62
597.811	299
598.232	341.13
598.652	245.17
599.073	308.37
599.494	313.05
599.914	289.64
600.334	320.07
600.755	313.05
601.175	289.64
601.595	329.43
602.015	261.55
602.436	345.81
602.856	404.33
603.276	303.68
603.696	331.77
604.115	322.41
604.535	350.5
604.955	378.58
605.375	338.79
605.794	282.62
606.214	334.11
606.634	296.66
607.053	338.79
607.473	345.81
607.892	322.41
608.311	240.49
608.731	399.65
609.15	313.05
609.569	313.05
609.988	343.47
610.407	268.58
610.826	334.11
611.245	320.07
611.664	334.11
612.083	324.75
612.501	366.88
612.92	376.24
613.339	336.45
613.757	249.85
614.176	352.84
614.594	336.45
615.013	299
615.431	313.05
615.85	254.53
616.268	352.84
616.686	345.81
617.104	256.87
617.522	310.71
617.94	336.45
618.358	334.11
618.776	350.5
619.194	334.11
619.612	331.77
620.03	284.96
620.447	235.81
620.865	324.75
621.282	268.58
621.7	334.11
622.117	357.52
622.535	299
622.952	338.79
623.369	348.15
623.787	306.03
624.204	336.45
624.621	284.96
625.038	303.68
625.455	317.73
625.872	263.9
626.289	336.45
626.706	376.24
627.123	249.85
627.539	303.68
627.956	373.9
628.373	355.18
628.789	350.5
629.206	306.03
629.622	291.98
630.038	228.79
630.455	359.86
630.871	273.26
631.287	310.71
631.703	270.92
632.12	320.07
632.536	362.2
632.952	373.9
633.368	284.96
633.783	317.73
634.199	322.41
634.615	362.2
635.031	317.73
635.446	301.34
635.862	275.6
636.277	282.62
636.693	348.15
637.108	303.68
637.524	392.62
637.939	343.47
638.354	299
638.77	322.41
639.185	390.28
639.6	341.13
640.015	315.39
640.43	280.28
640.845	338.79
641.259	287.3
641.674	320.07
642.089	277.94
642.504	327.09
642.918	336.45
643.333	366.88
643.747	322.41
644.162	315.39
644.576	336.45
644.991	387.94
645.405	350.5
645.819	352.84
646.233	277.94
646.647	313.05
647.061	357.52
647.475	338.79
647.889	254.53
648.303	296.66
648.717	301.34
649.131	331.77
649.545	280.28
649.958	299
650.372	324.75
650.785	322.41
651.199	310.71
651.612	270.92
652.026	350.5
652.439	310.71
652.852	338.79
653.266	355.18
653.679	294.32
654.092	287.3
654.505	313.05
654.918	308.37
655.331	322.41
655.744	296.66
656.156	338.79
656.569	320.07
656.982	270.92
657.394	310.71
657.807	352.84
658.22	345.81
658.632	355.18
659.044	369.22
659.457	359.86
659.869	301.34
660.281	313.05
660.693	289.64
661.106	371.56
661.518	268.58
661.93	266.24
662.342	301.34
662.754	373.9
663.165	301.34
663.577	310.71
663.989	394.97
664.401	359.86
664.812	303.68
665.224	359.86
665.635	252.19
666.047	252.19
666.458	231.13
666.869	301.34
667.281	343.47
667.692	359.86
668.103	313.05
668.514	235.81
668.925	294.32
669.336	352.84
669.747	338.79
670.158	357.52
670.569	331.77
670.979	348.15
671.39	376.24
671.801	289.64
672.211	345.81
672.622	362.2
673.032	294.32
673.443	289.64
673.853	261.55
674.263	345.81
674.674	348.15
675.084	263.9
675.494	303.68
675.904	350.5
676.314	392.62
676.724	294.32
677.134	336.45
677.544	329.43
677.953	371.56
678.363	284.96
678.773	343.47
679.182	280.28
679.592	294.32
680.001	324.75
680.411	315.39
680.82	291.98
681.23	322.41
681.639	273.26
682.048	310.71
682.457	296.66
682.866	242.83
683.275	385.6
683.684	313.05
684.093	341.13
684.502	329.43
684.911	252.19
685.32	331.77
685.728	334.11
686.137	376.24
686.546	322.41
686.954	275.6
687.363	376.24
687.771	338.79
688.179	373.9
688.588	277.94
688.996	343.47
689.404	327.09
689.812	364.54
690.22	313.05
690.628	320.07
691.036	296.66
691.444	284.96
691.852	303.68
692.26	362.2
692.667	247.51
693.075	329.43
693.483	315.39
693.89	310.71
694.298	306.03
694.705	329.43
695.112	397.31
695.52	371.56
695.927	284.96
696.334	249.85
696.741	336.45
697.148	329.43
697.555	291.98
697.962	301.34
698.369	315.39
698.776	299
699.183	266.24
699.59	331.77
699.996	336.45
700.403	334.11
700.81	280.28
701.216	268.58
701.623	343.47
702.029	280.28
702.435	306.03
702.842	317.73
703.248	348.15
703.654	282.62
704.06	364.54
704.466	334.11
704.872	327.09
705.278	313.05
705.684	261.55
706.09	345.81
706.496	310.71
706.901	284.96
707.307	394.97
707.712	341.13
708.118	345.81
708.523	350.5
708.929	362.2
709.334	387.94
709.74	291.98
710.145	289.64
710.55	277.94
710.955	315.39
711.36	343.47
711.765	280.28
712.17	303.68
712.575	301.34
712.98	802.22
713.385	291.98
713.789	313.05
714.194	366.88
714.599	308.37
715.003	352.84
715.408	317.73
715.812	291.98
716.217	331.77
716.621	345.81
717.025	245.17
717.429	383.26
717.833	434.75
718.238	291.98
718.642	289.64
719.046	317.73
719.449	303.68
719.853	320.07
720.257	261.55
720.661	261.55
721.065	313.05
721.468	310.71
721.872	299
722.275	373.9
722.679	317.73
723.082	338.79
723.485	369.22
723.889	303.68
724.292	266.24
724.695	313.05
725.098	294.32
725.501	362.2
725.904	277.94
726.307	385.6
726.71	291.98
727.113	362.2
727.516	259.21
727.918	423.05
728.321	299
728.724	322.41
729.126	334.11
729.529	338.79
729.931	261.55
730.333	359.86
730.736	315.39
731.138	338.79
731.54	284.96
731.942	359.86
732.344	338.79
732.746	273.26
733.148	327.09
733.55	324.75
733.952	324.75
734.354	322.41
734.756	303.68
735.157	364.54
735.559	338.79
735.96	315.39
736.362	263.9
736.763	371.56
737.165	289.64
737.566	303.68
737.967	282.62
738.368	369.22
738.77	329.43
739.171	322.41
739.572	310.71
739.973	303.68
740.374	380.92
740.774	256.87
741.175	334.11
741.576	317.73
741.977	301.34
742.377	329.43
742.778	348.15
743.178	338.79
743.579	303.68
743.979	355.18
744.379	261.55
744.78	313.05
745.18	350.5
745.58	282.62
745.98	299
746.38	373.9
746.78	348.15
747.18	245.17
747.58	327.09
747.98	289.64
748.38	299
748.779	270.92
749.179	275.6
749.578	270.92
749.978	266.24
750.377	289.64
750.777	355.18
751.176	320.07
751.575	313.05
751.975	324.75
752.374	289.64
752.773	341.13
753.172	303.68
753.571	277.94
753.97	301.34
754.369	284.96
754.768	348.15
755.166	320.07
755.565	324.75
755.964	303.68
756.362	343.47
756.761	294.32
757.159	313.05
757.558	324.75
757.956	338.79
758.354	277.94
758.753	338.79
759.151	338.79
759.549	268.58
759.947	299
760.345	263.9
760.743	308.37
761.141	284.96
761.539	306.03
761.936	275.6
762.334	317.73
762.732	317.73
763.129	249.85
763.527	301.34
763.924	324.75
764.322	256.87
764.719	411.35
765.117	329.43
765.514	322.41
765.911	324.75
766.308	343.47
766.705	280.28
767.102	350.5
767.499	291.98
767.896	324.75
768.293	296.66
768.69	341.13
769.086	362.2
769.483	345.81
769.88	282.62
770.276	310.71
770.673	329.43
771.069	273.26
771.466	280.28
771.862	284.96
772.258	219.43
772.654	336.45
773.05	266.24
773.447	266.24
773.843	338.79
774.239	334.11
774.634	252.19
775.03	310.71
775.426	329.43
775.822	303.68
776.218	273.26
776.613	401.99
777.009	322.41
777.404	308.37
777.8	315.39
778.195	270.92
778.59	299
778.986	235.81
779.381	322.41
779.776	306.03
780.171	238.15
780.566	308.37
780.961	280.28
781.356	380.92
781.751	334.11
782.146	268.58
782.54	369.22
782.935	341.13
783.33	338.79
783.724	287.3
784.119	301.34
784.513	235.81
784.908	399.65
785.302	387.94
785.696	306.03
786.09	313.05
786.485	336.45
786.879	338.79
787.273	296.66
787.667	329.43
788.061	291.98
788.454	261.55
788.848	327.09
789.242	301.34
789.636	308.37
790.029	266.24
790.423	233.47
790.816	345.81
791.21	266.24
791.603	256.87
791.997	282.62
792.39	331.77
792.783	270.92
793.176	315.39
793.569	324.75
793.962	280.28
794.355	310.71
794.748	322.41
795.141	357.52
795.534	348.15
795.927	275.6
796.319	322.41
796.712	287.3
797.105	308.37
797.497	294.32
797.89	306.03
798.282	306.03
798.674	329.43
799.067	294.32
799.459	277.94
799.851	343.47
800.243	366.88
800.635	322.41
801.027	296.66
801.419	348.15
801.811	301.34
802.203	313.05
802.594	259.21
802.986	329.43
803.378	322.41
803.769	331.77
804.161	287.3
804.552	296.66
804.944	317.73
805.335	291.98
805.726	320.07
806.118	371.56
806.509	352.84
806.9	345.81
807.291	280.28
807.682	275.6
808.073	334.11
808.464	329.43
808.855	308.37
809.245	313.05
809.636	362.2
810.027	306.03
810.417	242.83
810.808	313.05
811.198	310.71
811.589	259.21
811.979	352.84
812.369	331.77
812.759	338.79
813.15	247.51
813.54	291.98
813.93	329.43
814.32	310.71
814.71	345.81
815.1	263.9
815.489	350.5
815.879	336.45
816.269	313.05
816.658	373.9
817.048	331.77
817.438	320.07
817.827	331.77
818.216	329.43
818.606	252.19
818.995	301.34
819.384	322.41
819.773	273.26
820.163	280.28
820.552	313.05
820.941	289.64
821.33	320.07
821.718	313.05
822.107	355.18
822.496	296.66
822.885	280.28
823.273	331.77
823.662	287.3
824.05	317.73
824.439	306.03
824.827	299
825.216	291.98
825.604	320.07
825.992	308.37
826.38	301.34
826.768	373.9
827.156	266.24
827.544	270.92
827.932	308.37
828.32	266.24
828.708	322.41
829.096	306.03
829.483	294.32
829.871	341.13
830.259	287.3
830.646	352.84
831.034	310.71
831.421	301.34
831.808	338.79
832.196	212.4
832.583	352.84
832.97	331.77
833.357	289.64
833.744	238.15
834.131	338.79
834.518	352.84
834.905	306.03
835.292	275.6
835.678	310.71
836.065	303.68
836.452	343.47
836.838	306.03
837.225	282.62
837.611	317.73
837.998	287.3
838.384	296.66
838.77	296.66
839.157	313.05
839.543	364.54
839.929	310.71
840.315	329.43
840.701	320.07
841.087	329.43
841.473	299
841.858	299
842.244	350.5
842.63	299
843.015	317.73
843.401	537.74
843.787	336.45
844.172	282.62
844.557	313.05
844.943	378.58
845.328	254.53
845.713	252.19
846.098	270.92
846.483	343.47
846.868	291.98
847.253	355.18
847.638	284.96
848.023	270.92
848.408	273.26
848.793	261.55
849.177	284.96
849.562	343.47
849.947	294.32
850.331	284.96
850.715	345.81
851.1	287.3
851.484	306.03
851.868	343.47
852.253	315.39
852.637	294.32
853.021	306.03
853.405	263.9
853.789	306.03
854.173	310.71
854.557	291.98
854.94	291.98
855.324	303.68
855.708	315.39
856.091	284.96
856.475	322.41
856.858	313.05
857.242	357.52
857.625	320.07
858.009	291.98
858.392	263.9
858.775	324.75
859.158	345.81
859.541	275.6
859.924	294.32
860.307	327.09
860.69	287.3
861.073	303.68
861.456	343.47
861.838	348.15
862.221	331.77
862.604	263.9
862.986	287.3
863.369	338.79
863.751	327.09
864.133	310.71
864.516	336.45
864.898	371.56
865.28	284.96
865.662	308.37
866.044	308.37
866.426	289.64
866.808	390.28
867.19	282.62
867.572	313.05
867.954	345.81
868.336	350.5
868.717	334.11
869.099	341.13
869.48	343.47
869.862	280.28
870.243	291.98
870.625	371.56
871.006	348.15
871.387	320.07
871.768	336.45
872.149	350.5
872.53	338.79
872.911	350.5
873.292	392.62
873.673	345.81
874.054	334.11
874.435	364.54
874.815	282.62
875.196	317.73
875.577	303.68
875.957	310.71
876.338	336.45
876.718	289.64
877.098	284.96
877.479	338.79
877.859	341.13
878.239	345.81
878.619	317.73
878.999	324.75
879.379	350.5
879.759	334.11
880.139	317.73
880.519	299
880.898	231.13
881.278	366.88
881.658	291.98
882.037	210.06
882.417	331.77
882.796	324.75
883.176	313.05
883.555	299
883.934	291.98
884.313	240.49
884.693	296.66
885.072	301.34
885.451	345.81
885.83	350.5
886.209	310.71
886.587	329.43
886.966	275.6
887.345	275.6
887.724	226.45
888.102	317.73
888.481	289.64
888.859	320.07
889.238	287.3
889.616	275.6
889.994	294.32
890.373	228.79
890.751	261.55
891.129	320.07
891.507	334.11
891.885	329.43
892.263	263.9
892.641	322.41
893.019	299
893.396	315.39
893.774	270.92
894.152	256.87
894.529	334.11
894.907	294.32
895.284	287.3
895.662	364.54
896.039	315.39
896.416	366.88
896.794	291.98
897.171	334.11
897.548	317.73
897.925	394.97
898.302	308.37
898.679	331.77
899.056	310.71
899.433	317.73
899.809	294.32
900.186	266.24
900.563	343.47
900.939	247.51
901.316	294.32
901.692	310.71
902.069	273.26
902.445	366.88
902.821	334.11
903.197	338.79
903.574	303.68
903.95	289.64
904.326	294.32
904.702	263.9
905.078	303.68
905.454	334.11
905.829	284.96
906.205	249.85
906.581	252.19
906.956	301.34
907.332	315.39
907.707	268.58
908.083	306.03
908.458	355.18
908.833	270.92
909.209	249.85
909.584	277.94
909.959	320.07
910.334	261.55
910.709	355.18
911.084	357.52
911.459	334.11
911.834	317.73
912.209	299
912.583	270.92
912.958	308.37
913.333	291.98
913.707	341.13
914.082	299
914.456	303.68
914.83	345.81
915.205	317.73
915.579	324.75
915.953	336.45
916.327	320.07
916.701	289.64
917.075	308.37
917.449	315.39
917.823	289.64
918.197	341.13
918.571	270.92
918.944	280.28
919.318	315.39
919.692	345.81
920.065	306.03
920.438	294.32
920.812	345.81
921.185	315.39
921.558	303.68
921.932	329.43
922.305	324.75
922.678	280.28
923.051	329.43
923.424	315.39
923.797	284.96
924.17	306.03
924.542	322.41
924.915	280.28
925.288	306.03
925.661	263.9
926.033	268.58
926.406	301.34
926.778	327.09
927.15	296.66
927.523	359.86
927.895	277.94
928.267	317.73
928.639	322.41
929.011	306.03
929.383	306.03
929.755	249.85
930.127	341.13
930.499	277.94
930.871	282.62
931.242	324.75
931.614	287.3
931.986	338.79
932.357	329.43
932.729	331.77
933.1	291.98
933.471	324.75
933.843	205.38
934.214	336.45
934.585	320.07
934.956	313.05
935.327	287.3
935.698	317.73
936.069	327.09
936.44	308.37
936.811	343.47
937.182	352.84
937.552	327.09
937.923	294.32
938.293	294.32
938.664	343.47
939.034	263.9
939.405	331.77
939.775	306.03
940.145	352.84
940.516	310.71
940.886	331.77
941.256	306.03
941.626	366.88
941.996	366.88
942.366	322.41
942.735	310.71
943.105	310.71
943.475	289.64
943.845	294.32
944.214	273.26
944.584	327.09
944.953	289.64
945.323	280.28
945.692	306.03
946.061	303.68
946.43	313.05
946.8	355.18
947.169	280.28
947.538	352.84
947.907	287.3
948.276	329.43
948.645	364.54
949.013	303.68
949.382	306.03
949.751	315.39
950.119	289.64
950.488	275.6
950.857	324.75
951.225	277.94
951.593	376.24
951.962	308.37
952.33	287.3
952.698	296.66
953.066	329.43
953.434	341.13
953.802	252.19
954.17	329.43
954.538	291.98
954.906	317.73
955.274	320.07
955.642	313.05
956.009	308.37
956.377	275.6
956.744	280.28
957.112	387.94
957.479	348.15
957.847	345.81
958.214	301.34
958.581	275.6
958.948	268.58
959.315	308.37
959.683	308.37
960.05	336.45
960.416	287.3
960.783	310.71
961.15	247.51
961.517	247.51
961.884	308.37
962.25	306.03
962.617	345.81
962.983	315.39
963.35	324.75
963.716	270.92
964.082	315.39
964.449	355.18
964.815	245.17
965.181	310.71
965.547	299
965.913	315.39
966.279	261.55
966.645	299
967.011	355.18
967.377	350.5
967.742	320.07
968.108	336.45
968.474	317.73
968.839	341.13
969.205	235.81
969.57	275.6
969.935	331.77
970.301	275.6
970.666	273.26
971.031	355.18
971.396	315.39
971.761	287.3
972.126	296.66
972.491	336.45
972.856	303.68
973.221	348.15
973.586	268.58
973.95	291.98
974.315	331.77
974.679	352.84
975.044	299
975.408	273.26
975.773	275.6
976.137	296.66
976.501	310.71
976.866	327.09
977.23	350.5
977.594	329.43
977.958	287.3
978.322	270.92
978.686	327.09
979.049	273.26
979.413	303.68
979.777	320.07
980.141	317.73
980.504	280.28
980.868	238.15
981.231	338.79
981.595	270.92
981.958	289.64
982.321	270.92
982.684	231.13
983.048	284.96
983.411	280.28
983.774	294.32
984.137	299
984.5	380.92
984.862	385.6
985.225	238.15
985.588	306.03
985.951	270.92
986.313	263.9
986.676	303.68
987.038	348.15
987.401	273.26
987.763	313.05
988.125	322.41
988.488	301.34
988.85	355.18
989.212	294.32
989.574	277.94
989.936	254.53
990.298	331.77
990.66	289.64
991.022	273.26
991.383	296.66
991.745	313.05
992.107	291.98
992.468	299
992.83	299
993.191	291.98
993.553	334.11
993.914	341.13
994.275	289.64
994.637	341.13
994.998	313.05
995.359	315.39
995.72	334.11
996.081	308.37
996.442	352.84
996.803	329.43
997.163	277.94
997.524	320.07
997.885	284.96
998.245	296.66
998.606	364.54
998.966	296.66
999.327	350.5
999.687	329.43
1000.047	249.85
1000.408	308.37
1000.768	366.88
1001.128	306.03
1001.488	345.81
1001.848	338.79
1002.208	294.32
1002.568	247.51
1002.927	315.39
1003.287	392.62
1003.647	378.58
1004.007	273.26
1004.366	306.03
1004.726	263.9
1005.085	224.11
1005.444	301.34
1005.804	299
1006.163	371.56
1006.522	303.68
1006.881	331.77
1007.24	284.96
1007.599	341.13
1007.958	259.21
1008.317	291.98
1008.676	249.85
1009.035	334.11
1009.393	277.94
1009.752	315.39
1010.111	275.6
1010.469	348.15
1010.828	282.62
1011.186	320.07
1011.544	277.94
1011.903	348.15
1012.261	270.92
1012.619	299
1012.977	322.41
1013.335	320.07
1013.693	275.6
1014.051	299
1014.409	327.09
1014.767	263.9
1015.124	322.41
1015.482	296.66
1015.84	284.96
1016.197	280.28
1016.555	266.24
1016.912	306.03
1017.269	320.07
1017.627	268.58
1017.984	247.51
1018.341	320.07
1018.698	291.98
1019.055	308.37
1019.412	301.34
1019.769	324.75
1020.126	303.68
1020.483	299
1020.84	242.83
1021.196	266.24
1021.553	357.52
1021.909	254.53
1022.266	294.32
1022.622	355.18
1022.979	310.71
1023.335	355.18
1023.691	373.9
1024.047	310.71
1024.404	294.32
1024.76	313.05
1025.116	275.6
1025.472	303.68
1025.827	303.68
1026.183	287.3
1026.539	301.34
1026.895	357.52
1027.25	259.21
1027.606	329.43
1027.961	348.15
1028.317	331.77
1028.672	317.73
1029.028	334.11
1029.383	294.32
1029.738	294.32
1030.093	343.47
1030.448	359.86
1030.803	334.11
1031.158	310.71
1031.513	277.94
1031.868	296.66
1032.223	282.62
1032.577	301.34
1032.932	364.54
1033.287	334.11
1033.641	296.66
1033.996	238.15
1034.35	299
1034.704	336.45
1035.059	334.11
1035.413	287.3
1035.767	287.3
1036.121	287.3
