Data from Al_FLMS009871__1056__16-25-17-413.txt Node

Date: Fri Mar 08 16:25:17 CST 2024
User: pe5414po
Spectrometer: FLMS00987
Trigger mode: 0
Integration Time (sec): 1.000000E-1
Scans to average: 1
Electric dark correction enabled: true
Nonlinearity correction enabled: false
Boxcar width: 0
XAxis mode: Wavelengths
Number of Pixels in Spectrum: 2048
>>>>>Begin Spectral Data<<<<<
188.938	-43.89
189.409	-43.89
189.879	-43.89
190.349	-64.95
190.819	-76.65
191.29	-100.06
191.76	-109.42
192.23	-74.31
192.7	-71.97
193.17	-88.36
193.64	-29.84
194.109	-29.84
194.579	12.29
195.049	-48.57
195.519	38.03
195.988	47.4
196.458	38.03
196.927	63.78
197.397	136.34
197.866	124.63
198.336	91.87
198.805	194.85
199.274	234.64
199.744	201.87
200.213	148.04
200.682	225.28
201.151	220.6
201.62	232.3
202.089	206.55
202.558	248.68
203.027	311.88
203.495	239.32
203.964	286.13
204.433	251.02
204.902	304.85
205.37	302.51
205.839	314.22
206.307	309.54
206.776	314.22
207.244	276.77
207.712	251.02
208.181	318.9
208.649	265.07
209.117	337.62
209.585	328.26
210.053	290.81
210.521	274.43
210.989	330.6
211.457	311.88
211.925	274.43
212.393	321.24
212.861	293.15
213.328	251.02
213.796	279.11
214.264	311.88
214.731	288.47
215.199	274.43
215.666	370.39
216.133	318.9
216.601	260.38
217.068	248.68
217.535	246.34
218.003	304.85
218.47	288.47
218.937	267.41
219.404	276.77
219.871	293.15
220.338	300.17
220.805	253.36
221.271	262.73
221.738	253.36
222.205	255.7
222.671	255.7
223.138	274.43
223.605	269.75
224.071	288.47
224.538	255.7
225.004	255.7
225.47	279.11
225.937	267.41
226.403	286.13
226.869	279.11
227.335	255.7
227.801	272.09
228.267	281.45
228.733	234.64
229.199	267.41
229.665	283.79
230.131	260.38
230.597	288.47
231.062	279.11
231.528	262.73
231.994	302.51
232.459	300.17
232.925	318.9
233.39	262.73
233.856	279.11
234.321	335.28
234.786	246.34
235.252	335.28
235.717	293.15
236.182	239.32
236.647	258.04
237.112	330.6
237.577	332.94
238.042	335.28
238.507	267.41
238.972	281.45
239.436	269.75
239.901	318.9
240.366	239.32
240.83	272.09
241.295	269.75
241.76	332.94
242.224	260.38
242.688	248.68
243.153	227.62
243.617	318.9
244.081	248.68
244.545	248.68
245.01	300.17
245.474	246.34
245.938	307.2
246.402	267.41
246.866	272.09
247.33	311.88
247.793	283.79
248.257	375.07
248.721	295.49
249.185	269.75
249.648	246.34
250.112	316.56
250.575	354.01
251.039	314.22
251.502	295.49
251.965	274.43
252.429	295.49
252.892	309.54
253.355	286.13
253.818	323.58
254.281	358.69
254.744	304.85
255.207	255.7
255.67	314.22
256.133	290.81
256.596	269.75
257.059	234.64
257.522	288.47
257.984	304.85
258.447	339.96
258.909	314.22
259.372	344.64
259.834	328.26
260.297	300.17
260.759	218.25
261.221	201.87
261.684	300.17
262.146	307.2
262.608	321.24
263.07	288.47
263.532	295.49
263.994	274.43
264.456	337.62
264.918	358.69
265.38	295.49
265.842	314.22
266.303	279.11
266.765	279.11
267.227	288.47
267.688	239.32
268.15	318.9
268.611	300.17
269.072	253.36
269.534	281.45
269.995	337.62
270.456	325.92
270.918	288.47
271.379	297.83
271.84	321.24
272.301	382.09
272.762	342.3
273.223	295.49
273.684	309.54
274.144	330.6
274.605	323.58
275.066	295.49
275.527	323.58
275.987	222.94
276.448	307.2
276.908	281.45
277.369	300.17
277.829	356.35
278.289	229.96
278.75	295.49
279.21	325.92
279.67	283.79
280.13	246.34
280.59	286.13
281.05	304.85
281.51	304.85
281.97	288.47
282.43	255.7
282.89	309.54
283.35	267.41
283.809	332.94
284.269	295.49
284.729	293.15
285.188	204.21
285.648	286.13
286.107	244
286.567	281.45
287.026	335.28
287.485	276.77
287.944	314.22
288.404	279.11
288.863	307.2
289.322	314.22
289.781	286.13
290.24	332.94
290.699	281.45
291.158	267.41
291.616	295.49
292.075	337.62
292.534	323.58
292.992	297.83
293.451	365.71
293.91	304.85
294.368	354.01
294.827	323.58
295.285	318.9
295.743	358.69
296.202	337.62
296.66	258.04
297.118	328.26
297.576	354.01
298.034	316.56
298.492	311.88
298.95	337.62
299.408	321.24
299.866	309.54
300.324	328.26
300.781	279.11
301.239	349.32
301.697	377.41
302.154	321.24
302.612	321.24
303.069	318.9
303.527	377.41
303.984	349.32
304.441	302.51
304.899	344.64
305.356	269.75
305.813	316.56
306.27	335.28
306.727	269.75
307.184	318.9
307.641	314.22
308.098	337.62
308.555	375.07
309.012	295.49
309.468	344.64
309.925	328.26
310.382	293.15
310.838	335.28
311.295	328.26
311.751	393.8
312.208	307.2
312.664	293.15
313.12	328.26
313.577	293.15
314.033	311.88
314.489	262.73
314.945	269.75
315.401	307.2
315.857	307.2
316.313	349.32
316.769	255.7
317.225	389.11
317.681	309.54
318.136	314.22
318.592	330.6
319.048	302.51
319.503	314.22
319.959	283.79
320.414	258.04
320.869	330.6
321.325	358.69
321.78	346.98
322.235	283.79
322.691	262.73
323.146	302.51
323.601	354.01
324.056	255.7
324.511	349.32
324.966	354.01
325.421	325.92
325.875	314.22
326.33	325.92
326.785	288.47
327.24	318.9
327.694	253.36
328.149	239.32
328.603	276.77
329.058	300.17
329.512	339.96
329.966	302.51
330.421	323.58
330.875	286.13
331.329	321.24
331.783	297.83
332.237	246.34
332.691	328.26
333.145	356.35
333.599	297.83
334.053	328.26
334.507	274.43
334.96	358.69
335.414	316.56
335.868	276.77
336.321	283.79
336.775	368.05
337.228	222.94
337.682	295.49
338.135	272.09
338.588	297.83
339.042	321.24
339.495	314.22
339.948	351.67
340.401	325.92
340.854	361.03
341.307	311.88
341.76	346.98
342.213	332.94
342.666	309.54
343.119	314.22
343.571	297.83
344.024	283.79
344.477	337.62
344.929	269.75
345.382	248.68
345.834	314.22
346.287	330.6
346.739	269.75
347.191	300.17
347.644	361.03
348.096	300.17
348.548	311.88
349	332.94
349.452	363.37
349.904	328.26
350.356	344.64
350.808	293.15
351.26	295.49
351.711	342.3
352.163	302.51
352.615	328.26
353.066	316.56
353.518	328.26
353.969	253.36
354.421	354.01
354.872	349.32
355.324	239.32
355.775	260.38
356.226	307.2
356.677	328.26
357.128	363.37
357.579	361.03
358.03	342.3
358.481	253.36
358.932	368.05
359.383	361.03
359.834	346.98
360.285	309.54
360.735	269.75
361.186	354.01
361.637	337.62
362.087	330.6
362.538	400.82
362.988	328.26
363.438	328.26
363.889	396.14
364.339	349.32
364.789	346.98
365.239	391.45
365.689	311.88
366.139	316.56
366.589	297.83
367.039	283.79
367.489	356.35
367.939	344.64
368.389	314.22
368.839	370.39
369.288	358.69
369.738	358.69
370.187	337.62
370.637	337.62
371.086	286.13
371.536	321.24
371.985	279.11
372.434	311.88
372.884	293.15
373.333	318.9
373.782	316.56
374.231	337.62
374.68	302.51
375.129	335.28
375.578	414.86
376.027	332.94
376.475	265.07
376.924	339.96
377.373	314.22
377.822	311.88
378.27	304.85
378.719	316.56
379.167	354.01
379.616	295.49
380.064	344.64
380.512	365.71
380.961	295.49
381.409	290.81
381.857	342.3
382.305	361.03
382.753	349.32
383.201	370.39
383.649	335.28
384.097	356.35
384.545	337.62
384.992	368.05
385.44	375.07
385.888	304.85
386.335	335.28
386.783	339.96
387.231	321.24
387.678	311.88
388.125	304.85
388.573	309.54
389.02	391.45
389.467	321.24
389.914	321.24
390.362	323.58
390.809	311.88
391.256	351.67
391.703	335.28
392.15	321.24
392.596	356.35
393.043	368.05
393.49	272.09
393.937	309.54
394.383	325.92
394.83	354.01
395.276	302.51
395.723	335.28
396.169	316.56
396.616	290.81
397.062	286.13
397.508	307.2
397.954	304.85
398.401	328.26
398.847	344.64
399.293	332.94
399.739	337.62
400.185	272.09
400.631	339.96
401.076	342.3
401.522	384.43
401.968	311.88
402.414	335.28
402.859	251.02
403.305	346.98
403.75	349.32
404.196	354.01
404.641	286.13
405.086	337.62
405.532	321.24
405.977	339.96
406.422	318.9
406.867	262.73
407.312	293.15
407.757	325.92
408.202	260.38
408.647	377.41
409.092	283.79
409.537	368.05
409.982	361.03
410.426	361.03
410.871	354.01
411.316	311.88
411.76	339.96
412.205	365.71
412.649	295.49
413.093	318.9
413.538	316.56
413.982	321.24
414.426	325.92
414.87	281.45
415.314	316.56
415.758	332.94
416.202	283.79
416.646	356.35
417.09	302.51
417.534	314.22
417.978	342.3
418.421	321.24
418.865	269.75
419.309	297.83
419.752	314.22
420.196	342.3
420.639	279.11
421.083	314.22
421.526	276.77
421.969	286.13
422.412	295.49
422.856	253.36
423.299	295.49
423.742	398.48
424.185	323.58
424.628	342.3
425.071	279.11
425.513	290.81
425.956	300.17
426.399	370.39
426.842	342.3
427.284	314.22
427.727	307.2
428.169	311.88
428.612	346.98
429.054	356.35
429.497	286.13
429.939	346.98
430.381	283.79
430.823	339.96
431.265	302.51
431.707	346.98
432.149	283.79
432.591	269.75
433.033	386.77
433.475	339.96
433.917	297.83
434.359	330.6
434.8	337.62
435.242	279.11
435.684	288.47
436.125	281.45
436.567	316.56
437.008	344.64
437.449	318.9
437.891	314.22
438.332	279.11
438.773	351.67
439.214	342.3
439.656	377.41
440.097	318.9
440.538	351.67
440.978	281.45
441.419	328.26
441.86	302.51
442.301	325.92
442.742	281.45
443.182	339.96
443.623	274.43
444.063	311.88
444.504	328.26
444.944	311.88
445.385	335.28
445.825	255.7
446.265	293.15
446.706	339.96
447.146	302.51
447.586	346.98
448.026	274.43
448.466	325.92
448.906	311.88
449.346	279.11
449.786	297.83
450.225	265.07
450.665	356.35
451.105	311.88
451.544	342.3
451.984	342.3
452.424	349.32
452.863	302.51
453.302	269.75
453.742	328.26
454.181	262.73
454.62	339.96
455.059	297.83
455.499	328.26
455.938	311.88
456.377	269.75
456.816	339.96
457.254	318.9
457.693	349.32
458.132	335.28
458.571	272.09
459.01	316.56
459.448	283.79
459.887	293.15
460.325	286.13
460.764	325.92
461.202	304.85
461.641	335.28
462.079	293.15
462.517	370.39
462.955	300.17
463.393	337.62
463.832	281.45
464.27	325.92
464.708	342.3
465.145	274.43
465.583	368.05
466.021	265.07
466.459	384.43
466.897	337.62
467.334	344.64
467.772	325.92
468.209	349.32
468.647	241.66
469.084	241.66
469.522	328.26
469.959	375.07
470.396	344.64
470.833	295.49
471.271	337.62
471.708	316.56
472.145	274.43
472.582	304.85
473.019	384.43
473.456	344.64
473.892	351.67
474.329	344.64
474.766	300.17
475.202	297.83
475.639	295.49
476.076	309.54
476.512	318.9
476.949	335.28
477.385	314.22
477.821	300.17
478.258	339.96
478.694	311.88
479.13	272.09
479.566	417.2
480.002	358.69
480.438	297.83
480.874	302.51
481.31	302.51
481.746	361.03
482.181	382.09
482.617	361.03
483.053	325.92
483.488	321.24
483.924	267.41
484.36	258.04
484.795	300.17
485.23	328.26
485.666	274.43
486.101	351.67
486.536	318.9
486.971	344.64
487.407	349.32
487.842	316.56
488.277	267.41
488.712	339.96
489.146	295.49
489.581	358.69
490.016	304.85
490.451	276.77
490.885	330.6
491.32	365.71
491.755	297.83
492.189	370.39
492.624	337.62
493.058	307.2
493.492	302.51
493.927	356.35
494.361	346.98
494.795	297.83
495.229	267.41
495.663	316.56
496.097	339.96
496.531	419.54
496.965	276.77
497.399	314.22
497.833	337.62
498.266	311.88
498.7	393.8
499.134	370.39
499.567	351.67
500.001	358.69
500.434	386.77
500.868	269.75
501.301	328.26
501.734	332.94
502.168	311.88
502.601	311.88
503.034	379.75
503.467	321.24
503.9	314.22
504.333	269.75
504.766	335.28
505.199	314.22
505.632	325.92
506.064	328.26
506.497	272.09
506.93	314.22
507.362	342.3
507.795	351.67
508.227	335.28
508.66	335.28
509.092	276.77
509.524	234.64
509.956	351.67
510.389	328.26
510.821	337.62
511.253	342.3
511.685	335.28
512.117	290.81
512.549	302.51
512.981	293.15
513.412	323.58
513.844	300.17
514.276	335.28
514.707	368.05
515.139	321.24
515.571	304.85
516.002	354.01
516.433	244
516.865	363.37
517.296	288.47
517.727	328.26
518.159	393.8
518.59	349.32
519.021	332.94
519.452	300.17
519.883	279.11
520.314	321.24
520.744	302.51
521.175	342.3
521.606	311.88
522.037	295.49
522.467	335.28
522.898	297.83
523.328	318.9
523.759	382.09
524.189	342.3
524.62	318.9
525.05	309.54
525.48	279.11
525.91	300.17
526.341	356.35
526.771	339.96
527.201	339.96
527.631	342.3
528.061	335.28
528.49	354.01
528.92	265.07
529.35	363.37
529.78	314.22
530.209	281.45
530.639	328.26
531.068	321.24
531.498	276.77
531.927	318.9
532.357	307.2
532.786	382.09
533.215	321.24
533.644	281.45
534.074	349.32
534.503	370.39
534.932	337.62
535.361	321.24
535.79	339.96
536.218	279.11
536.647	412.52
537.076	307.2
537.505	354.01
537.933	316.56
538.362	314.22
538.79	302.51
539.219	309.54
539.647	356.35
540.076	295.49
540.504	342.3
540.932	325.92
541.36	349.32
541.788	325.92
542.217	272.09
542.645	318.9
543.073	248.68
543.5	297.83
543.928	323.58
544.356	358.69
544.784	349.32
545.211	332.94
545.639	332.94
546.067	318.9
546.494	316.56
546.922	349.32
547.349	286.13
547.776	318.9
548.204	307.2
548.631	314.22
549.058	297.83
549.485	342.3
549.912	363.37
550.339	342.3
550.766	239.32
551.193	234.64
551.62	304.85
552.047	328.26
552.474	309.54
552.9	304.85
553.327	363.37
553.754	295.49
554.18	307.2
554.607	377.41
555.033	314.22
555.459	300.17
555.886	337.62
556.312	323.58
556.738	344.64
557.164	276.77
557.59	297.83
558.016	377.41
558.442	295.49
558.868	253.36
559.294	253.36
559.72	346.98
560.145	321.24
560.571	286.13
560.997	283.79
561.422	344.64
561.848	330.6
562.273	274.43
562.699	332.94
563.124	288.47
563.549	300.17
563.974	316.56
564.4	358.69
564.825	323.58
565.25	365.71
565.675	283.79
566.1	323.58
566.525	335.28
566.95	318.9
567.374	335.28
567.799	302.51
568.224	286.13
568.648	346.98
569.073	241.66
569.497	309.54
569.922	372.73
570.346	281.45
570.771	344.64
571.195	286.13
571.619	311.88
572.043	318.9
572.467	335.28
572.891	300.17
573.315	290.81
573.739	325.92
574.163	344.64
574.587	229.96
575.011	339.96
575.435	330.6
575.858	314.22
576.282	346.98
576.705	346.98
577.129	325.92
577.552	288.47
577.976	304.85
578.399	354.01
578.822	325.92
579.245	398.48
579.669	323.58
580.092	239.32
580.515	309.54
580.938	309.54
581.361	351.67
581.784	337.62
582.206	309.54
582.629	265.07
583.052	321.24
583.474	286.13
583.897	279.11
584.32	354.01
584.742	297.83
585.165	302.51
585.587	290.81
586.009	346.98
586.431	328.26
586.854	295.49
587.276	335.28
587.698	311.88
588.12	321.24
588.542	293.15
588.964	328.26
589.386	318.9
589.807	391.45
590.229	344.64
590.651	349.32
591.073	349.32
591.494	293.15
591.916	361.03
592.337	300.17
592.759	307.2
593.18	269.75
593.601	325.92
594.022	309.54
594.444	297.83
594.865	332.94
595.286	258.04
595.707	309.54
596.128	400.82
596.549	323.58
596.97	309.54
597.39	351.67
597.811	325.92
598.232	318.9
598.652	365.71
599.073	325.92
599.494	304.85
599.914	318.9
600.334	391.45
600.755	279.11
601.175	323.58
601.595	290.81
602.015	316.56
602.436	281.45
602.856	473.37
603.276	304.85
603.696	302.51
604.115	281.45
604.535	382.09
604.955	286.13
605.375	318.9
605.794	349.32
606.214	386.77
606.634	328.26
607.053	328.26
607.473	339.96
607.892	335.28
608.311	349.32
608.731	391.45
609.15	283.79
609.569	339.96
609.988	300.17
610.407	354.01
610.826	323.58
611.245	302.51
611.664	391.45
612.083	344.64
612.501	300.17
612.92	328.26
613.339	307.2
613.757	356.35
614.176	295.49
614.594	339.96
615.013	335.28
615.431	323.58
615.85	302.51
616.268	290.81
616.686	349.32
617.104	342.3
617.522	309.54
617.94	354.01
618.358	344.64
618.776	293.15
619.194	370.39
619.612	325.92
620.03	370.39
620.447	346.98
620.865	293.15
621.282	253.36
621.7	281.45
622.117	276.77
622.535	302.51
622.952	246.34
623.369	307.2
623.787	288.47
624.204	361.03
624.621	330.6
625.038	349.32
625.455	342.3
625.872	332.94
626.289	332.94
626.706	302.51
627.123	316.56
627.539	244
627.956	346.98
628.373	309.54
628.789	302.51
629.206	295.49
629.622	335.28
630.038	335.28
630.455	269.75
630.871	339.96
631.287	351.67
631.703	281.45
632.12	318.9
632.536	309.54
632.952	325.92
633.368	295.49
633.783	372.73
634.199	307.2
634.615	321.24
635.031	370.39
635.446	332.94
635.862	370.39
636.277	290.81
636.693	288.47
637.108	309.54
637.524	342.3
637.939	281.45
638.354	344.64
638.77	295.49
639.185	316.56
639.6	281.45
640.015	363.37
640.43	300.17
640.845	314.22
641.259	337.62
641.674	316.56
642.089	332.94
642.504	297.83
642.918	323.58
643.333	274.43
643.747	342.3
644.162	300.17
644.576	337.62
644.991	332.94
645.405	335.28
645.819	272.09
646.233	316.56
646.647	344.64
647.061	332.94
647.475	323.58
647.889	339.96
648.303	239.32
648.717	361.03
649.131	300.17
649.545	342.3
649.958	269.75
650.372	361.03
650.785	286.13
651.199	274.43
651.612	304.85
652.026	337.62
652.439	295.49
652.852	290.81
653.266	316.56
653.679	365.71
654.092	265.07
654.505	361.03
654.918	283.79
655.331	309.54
655.744	321.24
656.156	297.83
656.569	290.81
656.982	335.28
657.394	339.96
657.807	302.51
658.22	384.43
658.632	358.69
659.044	328.26
659.457	335.28
659.869	293.15
660.281	288.47
660.693	349.32
661.106	279.11
661.518	323.58
661.93	354.01
662.342	276.77
662.754	344.64
663.165	337.62
663.577	290.81
663.989	328.26
664.401	309.54
664.812	267.41
665.224	307.2
665.635	302.51
666.047	297.83
666.458	382.09
666.869	356.35
667.281	295.49
667.692	386.77
668.103	309.54
668.514	323.58
668.925	274.43
669.336	304.85
669.747	307.2
670.158	335.28
670.569	272.09
670.979	288.47
671.39	337.62
671.801	262.73
672.211	295.49
672.622	279.11
673.032	342.3
673.443	330.6
673.853	325.92
674.263	304.85
674.674	365.71
675.084	318.9
675.494	283.79
675.904	290.81
676.314	337.62
676.724	288.47
677.134	302.51
677.544	283.79
677.953	396.14
678.363	335.28
678.773	365.71
679.182	279.11
679.592	316.56
680.001	396.14
680.411	389.11
680.82	349.32
681.23	234.64
681.639	314.22
682.048	382.09
682.457	389.11
682.866	396.14
683.275	311.88
683.684	393.8
684.093	342.3
684.502	286.13
684.911	330.6
685.32	227.62
685.728	297.83
686.137	337.62
686.546	300.17
686.954	325.92
687.363	269.75
687.771	337.62
688.179	269.75
688.588	358.69
688.996	337.62
689.404	365.71
689.812	382.09
690.22	262.73
690.628	339.96
691.036	335.28
691.444	260.38
691.852	314.22
692.26	382.09
692.667	325.92
693.075	304.85
693.483	342.3
693.89	375.07
694.298	351.67
694.705	356.35
695.112	356.35
695.52	356.35
695.927	349.32
696.334	304.85
696.741	321.24
697.148	274.43
697.555	307.2
697.962	302.51
698.369	267.41
698.776	260.38
699.183	321.24
699.59	244
699.996	358.69
700.403	323.58
700.81	351.67
701.216	311.88
701.623	339.96
702.029	339.96
702.435	272.09
702.842	276.77
703.248	349.32
703.654	288.47
704.06	293.15
704.466	269.75
704.872	281.45
705.278	269.75
705.684	356.35
706.09	339.96
706.496	356.35
706.901	339.96
707.307	323.58
707.712	396.14
708.118	321.24
708.523	363.37
708.929	354.01
709.334	332.94
709.74	288.47
710.145	321.24
710.55	258.04
710.955	295.49
711.36	318.9
711.765	314.22
712.17	368.05
712.575	361.03
712.98	772.96
713.385	382.09
713.789	304.85
714.194	297.83
714.599	332.94
715.003	318.9
715.408	361.03
715.812	346.98
716.217	389.11
716.621	272.09
717.025	330.6
717.429	309.54
717.833	297.83
718.238	295.49
718.642	330.6
719.046	372.73
719.449	274.43
719.853	328.26
720.257	309.54
720.661	339.96
721.065	323.58
721.468	354.01
721.872	339.96
722.275	325.92
722.679	302.51
723.082	328.26
723.485	300.17
723.889	307.2
724.292	356.35
724.695	307.2
725.098	325.92
725.501	363.37
725.904	318.9
726.307	325.92
726.71	342.3
727.113	295.49
727.516	337.62
727.918	349.32
728.321	389.11
728.724	337.62
729.126	258.04
729.529	311.88
729.931	325.92
730.333	323.58
730.736	302.51
731.138	337.62
731.54	279.11
731.942	346.98
732.344	314.22
732.746	344.64
733.148	330.6
733.55	304.85
733.952	321.24
734.354	314.22
734.756	248.68
735.157	246.34
735.559	253.36
735.96	354.01
736.362	314.22
736.763	295.49
737.165	349.32
737.566	368.05
737.967	267.41
738.368	304.85
738.77	361.03
739.171	330.6
739.572	368.05
739.973	351.67
740.374	318.9
740.774	356.35
741.175	363.37
741.576	321.24
741.977	281.45
742.377	321.24
742.778	288.47
743.178	323.58
743.579	302.51
743.979	330.6
744.379	344.64
744.78	300.17
745.18	351.67
745.58	316.56
745.98	269.75
746.38	342.3
746.78	302.51
747.18	361.03
747.58	286.13
747.98	342.3
748.38	295.49
748.779	358.69
749.179	309.54
749.578	375.07
749.978	281.45
750.377	309.54
750.777	293.15
751.176	269.75
751.575	354.01
751.975	335.28
752.374	339.96
752.773	335.28
753.172	337.62
753.571	393.8
753.97	332.94
754.369	311.88
754.768	276.77
755.166	321.24
755.565	316.56
755.964	356.35
756.362	302.51
756.761	314.22
757.159	311.88
757.558	323.58
757.956	363.37
758.354	325.92
758.753	318.9
759.151	358.69
759.549	300.17
759.947	332.94
760.345	286.13
760.743	344.64
761.141	363.37
761.539	349.32
761.936	295.49
762.334	328.26
762.732	318.9
763.129	272.09
763.527	344.64
763.924	351.67
764.322	269.75
764.719	316.56
765.117	339.96
765.514	309.54
765.911	318.9
766.308	286.13
766.705	309.54
767.102	354.01
767.499	400.82
767.896	335.28
768.293	304.85
768.69	354.01
769.086	323.58
769.483	342.3
769.88	290.81
770.276	323.58
770.673	384.43
771.069	351.67
771.466	318.9
771.862	279.11
772.258	304.85
772.654	307.2
773.05	295.49
773.447	349.32
773.843	342.3
774.239	314.22
774.634	342.3
775.03	342.3
775.426	349.32
775.822	361.03
776.218	375.07
776.613	351.67
777.009	346.98
777.404	349.32
777.8	356.35
778.195	368.05
778.59	276.77
778.986	349.32
779.381	335.28
779.776	241.66
780.171	316.56
780.566	332.94
780.961	321.24
781.356	304.85
781.751	300.17
782.146	295.49
782.54	290.81
782.935	330.6
783.33	370.39
783.724	302.51
784.119	342.3
784.513	311.88
784.908	325.92
785.302	314.22
785.696	410.18
786.09	318.9
786.485	354.01
786.879	346.98
787.273	361.03
787.667	281.45
788.061	269.75
788.454	346.98
788.848	344.64
789.242	300.17
789.636	316.56
790.029	384.43
790.423	288.47
790.816	361.03
791.21	363.37
791.603	365.71
791.997	302.51
792.39	281.45
792.783	295.49
793.176	295.49
793.569	325.92
793.962	311.88
794.355	344.64
794.748	332.94
795.141	337.62
795.534	342.3
795.927	307.2
796.319	332.94
796.712	351.67
797.105	232.3
797.497	304.85
797.89	379.75
798.282	323.58
798.674	304.85
799.067	258.04
799.459	375.07
799.851	370.39
800.243	276.77
800.635	342.3
801.027	342.3
801.419	307.2
801.811	304.85
802.203	314.22
802.594	267.41
802.986	328.26
803.378	309.54
803.769	281.45
804.161	356.35
804.552	337.62
804.944	316.56
805.335	330.6
805.726	255.7
806.118	339.96
806.509	321.24
806.9	309.54
807.291	339.96
807.682	255.7
808.073	251.02
808.464	246.34
808.855	321.24
809.245	307.2
809.636	321.24
810.027	328.26
810.417	283.79
810.808	274.43
811.198	309.54
811.589	307.2
811.979	400.82
812.369	279.11
812.759	330.6
813.15	349.32
813.54	286.13
813.93	234.64
814.32	281.45
814.71	316.56
815.1	265.07
815.489	318.9
815.879	311.88
816.269	358.69
816.658	323.58
817.048	236.98
817.438	321.24
817.827	349.32
818.216	386.77
818.606	318.9
818.995	307.2
819.384	311.88
819.773	293.15
820.163	325.92
820.552	363.37
820.941	332.94
821.33	307.2
821.718	279.11
822.107	365.71
822.496	318.9
822.885	365.71
823.273	375.07
823.662	290.81
824.05	311.88
824.439	354.01
824.827	339.96
825.216	325.92
825.604	293.15
825.992	293.15
826.38	314.22
826.768	302.51
827.156	337.62
827.544	344.64
827.932	293.15
828.32	290.81
828.708	311.88
829.096	297.83
829.483	351.67
829.871	330.6
830.259	274.43
830.646	297.83
831.034	286.13
831.421	304.85
831.808	265.07
832.196	265.07
832.583	300.17
832.97	286.13
833.357	318.9
833.744	335.28
834.131	325.92
834.518	293.15
834.905	365.71
835.292	265.07
835.678	272.09
836.065	309.54
836.452	293.15
836.838	368.05
837.225	363.37
837.611	325.92
837.998	307.2
838.384	321.24
838.77	325.92
839.157	309.54
839.543	332.94
839.929	314.22
840.315	251.02
840.701	332.94
841.087	288.47
841.473	332.94
841.858	309.54
842.244	323.58
842.63	309.54
843.015	328.26
843.401	585.72
843.787	297.83
844.172	281.45
844.557	339.96
844.943	368.05
845.328	365.71
845.713	370.39
846.098	335.28
846.483	325.92
846.868	363.37
847.253	330.6
847.638	286.13
848.023	295.49
848.408	300.17
848.793	286.13
849.177	302.51
849.562	290.81
849.947	328.26
850.331	335.28
850.715	272.09
851.1	288.47
851.484	302.51
851.868	311.88
852.253	304.85
852.637	349.32
853.021	332.94
853.405	288.47
853.789	302.51
854.173	286.13
854.557	297.83
854.94	304.85
855.324	309.54
855.708	344.64
856.091	337.62
856.475	272.09
856.858	290.81
857.242	265.07
857.625	323.58
858.009	321.24
858.392	307.2
858.775	288.47
859.158	265.07
859.541	361.03
859.924	288.47
860.307	375.07
860.69	244
861.073	311.88
861.456	286.13
861.838	318.9
862.221	302.51
862.604	330.6
862.986	293.15
863.369	351.67
863.751	316.56
864.133	293.15
864.516	260.38
864.898	274.43
865.28	314.22
865.662	346.98
866.044	269.75
866.426	337.62
866.808	260.38
867.19	290.81
867.572	330.6
867.954	290.81
868.336	321.24
868.717	365.71
869.099	288.47
869.48	354.01
869.862	325.92
870.243	321.24
870.625	293.15
871.006	332.94
871.387	281.45
871.768	295.49
872.149	307.2
872.53	396.14
872.911	337.62
873.292	335.28
873.673	332.94
874.054	286.13
874.435	325.92
874.815	354.01
875.196	304.85
875.577	267.41
875.957	309.54
876.338	295.49
876.718	384.43
877.098	300.17
877.479	295.49
877.859	344.64
878.239	304.85
878.619	344.64
878.999	344.64
879.379	309.54
879.759	346.98
880.139	295.49
880.519	309.54
880.898	346.98
881.278	363.37
881.658	396.14
882.037	351.67
882.417	316.56
882.796	414.86
883.176	337.62
883.555	274.43
883.934	337.62
884.313	295.49
884.693	349.32
885.072	307.2
885.451	368.05
885.83	368.05
886.209	332.94
886.587	335.28
886.966	328.26
887.345	339.96
887.724	325.92
888.102	267.41
888.481	346.98
888.859	358.69
889.238	321.24
889.616	262.73
889.994	328.26
890.373	288.47
890.751	302.51
891.129	302.51
891.507	410.18
891.885	279.11
892.263	346.98
892.641	279.11
893.019	255.7
893.396	304.85
893.774	379.75
894.152	330.6
894.529	328.26
894.907	297.83
895.284	318.9
895.662	351.67
896.039	283.79
896.416	354.01
896.794	309.54
897.171	269.75
897.548	286.13
897.925	330.6
898.302	318.9
898.679	354.01
899.056	328.26
899.433	318.9
899.809	330.6
900.186	269.75
900.563	272.09
900.939	311.88
901.316	297.83
901.692	269.75
902.069	318.9
902.445	396.14
902.821	297.83
903.197	262.73
903.574	300.17
903.95	363.37
904.326	288.47
904.702	258.04
905.078	344.64
905.454	316.56
905.829	300.17
906.205	318.9
906.581	351.67
906.956	328.26
907.332	281.45
907.707	330.6
908.083	316.56
908.458	332.94
908.833	330.6
909.209	321.24
909.584	302.51
909.959	342.3
910.334	328.26
910.709	335.28
911.084	302.51
911.459	330.6
911.834	337.62
912.209	311.88
912.583	323.58
912.958	344.64
913.333	321.24
913.707	293.15
914.082	307.2
914.456	323.58
914.83	337.62
915.205	330.6
915.579	321.24
915.953	342.3
916.327	314.22
916.701	335.28
917.075	283.79
917.449	307.2
917.823	332.94
918.197	370.39
918.571	365.71
918.944	410.18
919.318	267.41
919.692	281.45
920.065	379.75
920.438	358.69
920.812	304.85
921.185	286.13
921.558	311.88
921.932	323.58
922.305	293.15
922.678	295.49
923.051	300.17
923.424	354.01
923.797	267.41
924.17	297.83
924.542	332.94
924.915	269.75
925.288	267.41
925.661	365.71
926.033	281.45
926.406	351.67
926.778	314.22
927.15	328.26
927.523	321.24
927.895	311.88
928.267	337.62
928.639	295.49
929.011	307.2
929.383	265.07
929.755	339.96
930.127	339.96
930.499	314.22
930.871	314.22
931.242	316.56
931.614	307.2
931.986	311.88
932.357	342.3
932.729	262.73
933.1	300.17
933.471	290.81
933.843	316.56
934.214	248.68
934.585	311.88
934.956	335.28
935.327	339.96
935.698	295.49
936.069	267.41
936.44	321.24
936.811	342.3
937.182	269.75
937.552	262.73
937.923	314.22
938.293	316.56
938.664	295.49
939.034	304.85
939.405	372.73
939.775	281.45
940.145	295.49
940.516	356.35
940.886	304.85
941.256	337.62
941.626	269.75
941.996	267.41
942.366	344.64
942.735	375.07
943.105	330.6
943.475	351.67
943.845	342.3
944.214	262.73
944.584	283.79
944.953	302.51
945.323	300.17
945.692	318.9
946.061	283.79
946.43	302.51
946.8	288.47
947.169	339.96
947.538	321.24
947.907	307.2
948.276	330.6
948.645	332.94
949.013	307.2
949.382	297.83
949.751	332.94
950.119	283.79
950.488	314.22
950.857	332.94
951.225	304.85
951.593	309.54
951.962	307.2
952.33	281.45
952.698	332.94
953.066	342.3
953.434	283.79
953.802	337.62
954.17	302.51
954.538	318.9
954.906	314.22
955.274	293.15
955.642	377.41
956.009	339.96
956.377	293.15
956.744	370.39
957.112	368.05
957.479	288.47
957.847	274.43
958.214	325.92
958.581	356.35
958.948	265.07
959.315	248.68
959.683	316.56
960.05	309.54
960.416	363.37
960.783	307.2
961.15	318.9
961.517	300.17
961.884	391.45
962.25	295.49
962.617	281.45
962.983	279.11
963.35	274.43
963.716	365.71
964.082	295.49
964.449	283.79
964.815	258.04
965.181	302.51
965.547	316.56
965.913	295.49
966.279	363.37
966.645	314.22
967.011	330.6
967.377	328.26
967.742	342.3
968.108	215.91
968.474	290.81
968.839	302.51
969.205	358.69
969.57	276.77
969.935	330.6
970.301	344.64
970.666	358.69
971.031	368.05
971.396	314.22
971.761	302.51
972.126	337.62
972.491	255.7
972.856	325.92
973.221	295.49
973.586	269.75
973.95	274.43
974.315	325.92
974.679	318.9
975.044	267.41
975.408	295.49
975.773	311.88
976.137	337.62
976.501	302.51
976.866	314.22
977.23	346.98
977.594	344.64
977.958	293.15
978.322	372.73
978.686	332.94
979.049	302.51
979.413	356.35
979.777	368.05
980.141	328.26
980.504	332.94
980.868	288.47
981.231	335.28
981.595	297.83
981.958	307.2
982.321	337.62
982.684	276.77
983.048	304.85
983.411	318.9
983.774	300.17
984.137	307.2
984.5	323.58
984.862	286.13
985.225	330.6
985.588	279.11
985.951	295.49
986.313	342.3
986.676	262.73
987.038	274.43
987.401	351.67
987.763	304.85
988.125	337.62
988.488	297.83
988.85	307.2
989.212	286.13
989.574	421.88
989.936	293.15
990.298	351.67
990.66	290.81
991.022	272.09
991.383	293.15
991.745	241.66
992.107	309.54
992.468	325.92
992.83	269.75
993.191	344.64
993.553	300.17
993.914	330.6
994.275	323.58
994.637	361.03
994.998	295.49
995.359	293.15
995.72	297.83
996.081	365.71
996.442	300.17
996.803	356.35
997.163	325.92
997.524	314.22
997.885	354.01
998.245	274.43
998.606	368.05
998.966	356.35
999.327	398.48
999.687	323.58
1000.047	302.51
1000.408	269.75
1000.768	302.51
1001.128	276.77
1001.488	276.77
1001.848	363.37
1002.208	309.54
1002.568	316.56
1002.927	304.85
1003.287	332.94
1003.647	346.98
1004.007	279.11
1004.366	337.62
1004.726	304.85
1005.085	314.22
1005.444	297.83
1005.804	332.94
1006.163	297.83
1006.522	295.49
1006.881	295.49
1007.24	342.3
1007.599	295.49
1007.958	365.71
1008.317	290.81
1008.676	276.77
1009.035	323.58
1009.393	300.17
1009.752	344.64
1010.111	335.28
1010.469	356.35
1010.828	356.35
1011.186	251.02
1011.544	314.22
1011.903	365.71
1012.261	325.92
1012.619	279.11
1012.977	384.43
1013.335	323.58
1013.693	368.05
1014.051	328.26
1014.409	375.07
1014.767	302.51
1015.124	337.62
1015.482	330.6
1015.84	260.38
1016.197	335.28
1016.555	339.96
1016.912	344.64
1017.269	321.24
1017.627	337.62
1017.984	356.35
1018.341	339.96
1018.698	379.75
1019.055	311.88
1019.412	335.28
1019.769	330.6
1020.126	358.69
1020.483	309.54
1020.84	302.51
1021.196	328.26
1021.553	269.75
1021.909	274.43
1022.266	297.83
1022.622	302.51
1022.979	358.69
1023.335	337.62
1023.691	307.2
1024.047	323.58
1024.404	321.24
1024.76	293.15
1025.116	316.56
1025.472	365.71
1025.827	323.58
1026.183	349.32
1026.539	269.75
1026.895	290.81
1027.25	251.02
1027.606	323.58
1027.961	368.05
1028.317	314.22
1028.672	265.07
1029.028	281.45
1029.383	192.51
1029.738	283.79
1030.093	286.13
1030.448	279.11
1030.803	349.32
1031.158	323.58
1031.513	269.75
1031.868	389.11
1032.223	318.9
1032.577	316.56
1032.932	356.35
1033.287	281.45
1033.641	389.11
1033.996	297.83
1034.35	314.22
1034.704	316.56
1035.059	232.3
1035.413	253.36
1035.767	253.36
1036.121	253.36
