Data from Al_FLMS009871__1054__16-25-17-215.txt Node

Date: Fri Mar 08 16:25:17 CST 2024
User: pe5414po
Spectrometer: FLMS00987
Trigger mode: 0
Integration Time (sec): 1.000000E-1
Scans to average: 1
Electric dark correction enabled: true
Nonlinearity correction enabled: false
Boxcar width: 0
XAxis mode: Wavelengths
Number of Pixels in Spectrum: 2048
>>>>>Begin Spectral Data<<<<<
188.938	-38.03
189.409	-38.03
189.879	-38.03
190.349	-87.18
190.819	-112.93
191.29	-63.78
191.76	-80.16
192.23	-47.4
192.7	-101.23
193.17	-96.55
193.64	-89.53
194.109	-52.08
194.579	25.16
195.049	4.1
195.519	15.8
195.988	55.59
196.458	83.67
196.927	34.52
197.397	78.99
197.866	123.46
198.336	109.42
198.805	235.81
199.274	170.27
199.744	224.11
200.213	191.34
200.682	226.45
201.151	252.19
201.62	163.25
202.089	203.04
202.558	228.79
203.027	238.15
203.495	306.03
203.964	261.55
204.433	273.26
204.902	256.87
205.37	284.96
205.839	324.75
206.307	320.07
206.776	327.09
207.244	275.6
207.712	289.64
208.181	315.39
208.649	303.68
209.117	245.17
209.585	275.6
210.053	310.71
210.521	310.71
210.989	266.24
211.457	322.41
211.925	247.51
212.393	252.19
212.861	308.37
213.328	256.87
213.796	266.24
214.264	261.55
214.731	273.26
215.199	240.49
215.666	252.19
216.133	233.47
216.601	291.98
217.068	336.45
217.535	277.94
218.003	277.94
218.47	320.07
218.937	256.87
219.404	259.21
219.871	240.49
220.338	282.62
220.805	228.79
221.271	247.51
221.738	273.26
222.205	320.07
222.671	280.28
223.138	261.55
223.605	294.32
224.071	317.73
224.538	275.6
225.004	291.98
225.47	315.39
225.937	247.51
226.403	259.21
226.869	252.19
227.335	294.32
227.801	310.71
228.267	242.83
228.733	240.49
229.199	221.77
229.665	247.51
230.131	336.45
230.597	235.81
231.062	315.39
231.528	287.3
231.994	256.87
232.459	301.34
232.925	252.19
233.39	193.68
233.856	320.07
234.321	275.6
234.786	280.28
235.252	273.26
235.717	207.72
236.182	275.6
236.647	299
237.112	338.79
237.577	266.24
238.042	308.37
238.507	247.51
238.972	249.85
239.436	270.92
239.901	242.83
240.366	282.62
240.83	233.47
241.295	221.77
241.76	254.53
242.224	254.53
242.688	299
243.153	310.71
243.617	231.13
244.081	238.15
244.545	280.28
245.01	263.9
245.474	294.32
245.938	301.34
246.402	280.28
246.866	249.85
247.33	247.51
247.793	303.68
248.257	294.32
248.721	301.34
249.185	268.58
249.648	256.87
250.112	270.92
250.575	252.19
251.039	266.24
251.502	310.71
251.965	294.32
252.429	240.49
252.892	245.17
253.355	303.68
253.818	242.83
254.281	289.64
254.744	231.13
255.207	233.47
255.67	247.51
256.133	296.66
256.596	306.03
257.059	277.94
257.522	179.64
257.984	270.92
258.447	287.3
258.909	273.26
259.372	296.66
259.834	303.68
260.297	277.94
260.759	291.98
261.221	266.24
261.684	249.85
262.146	308.37
262.608	268.58
263.07	331.77
263.532	266.24
263.994	245.17
264.456	296.66
264.918	287.3
265.38	294.32
265.842	233.47
266.303	331.77
266.765	254.53
267.227	212.4
267.688	242.83
268.15	320.07
268.611	284.96
269.072	284.96
269.534	301.34
269.995	296.66
270.456	242.83
270.918	308.37
271.379	256.87
271.84	247.51
272.301	259.21
272.762	287.3
273.223	259.21
273.684	280.28
274.144	252.19
274.605	231.13
275.066	249.85
275.527	245.17
275.987	245.17
276.448	249.85
276.908	310.71
277.369	310.71
277.829	364.54
278.289	238.15
278.75	324.75
279.21	214.74
279.67	284.96
280.13	277.94
280.59	289.64
281.05	315.39
281.51	380.92
281.97	270.92
282.43	320.07
282.89	259.21
283.35	259.21
283.809	263.9
284.269	245.17
284.729	313.05
285.188	310.71
285.648	287.3
286.107	252.19
286.567	313.05
287.026	303.68
287.485	228.79
287.944	245.17
288.404	282.62
288.863	299
289.322	303.68
289.781	331.77
290.24	322.41
290.699	266.24
291.158	296.66
291.616	313.05
292.075	322.41
292.534	289.64
292.992	303.68
293.451	263.9
293.91	219.43
294.368	327.09
294.827	268.58
295.285	303.68
295.743	345.81
296.202	327.09
296.66	338.79
297.118	315.39
297.576	289.64
298.034	273.26
298.492	320.07
298.95	336.45
299.408	263.9
299.866	235.81
300.324	345.81
300.781	341.13
301.239	277.94
301.697	341.13
302.154	331.77
302.612	282.62
303.069	313.05
303.527	301.34
303.984	317.73
304.441	289.64
304.899	270.92
305.356	266.24
305.813	313.05
306.27	301.34
306.727	291.98
307.184	301.34
307.641	303.68
308.098	294.32
308.555	336.45
309.012	369.22
309.468	350.5
309.925	219.43
310.382	247.51
310.838	310.71
311.295	327.09
311.751	308.37
312.208	303.68
312.664	317.73
313.12	266.24
313.577	254.53
314.033	306.03
314.489	233.47
314.945	343.47
315.401	289.64
315.857	280.28
316.313	296.66
316.769	263.9
317.225	310.71
317.681	301.34
318.136	254.53
318.592	277.94
319.048	294.32
319.503	256.87
319.959	299
320.414	359.86
320.869	291.98
321.325	242.83
321.78	308.37
322.235	329.43
322.691	266.24
323.146	345.81
323.601	273.26
324.056	273.26
324.511	308.37
324.966	308.37
325.421	320.07
325.875	331.77
326.33	294.32
326.785	277.94
327.24	268.58
327.694	280.28
328.149	303.68
328.603	383.26
329.058	320.07
329.512	310.71
329.966	291.98
330.421	266.24
330.875	291.98
331.329	294.32
331.783	270.92
332.237	294.32
332.691	280.28
333.145	294.32
333.599	275.6
334.053	310.71
334.507	350.5
334.96	362.2
335.414	313.05
335.868	261.55
336.321	364.54
336.775	270.92
337.228	306.03
337.682	336.45
338.135	287.3
338.588	338.79
339.042	334.11
339.495	310.71
339.948	334.11
340.401	291.98
340.854	294.32
341.307	291.98
341.76	252.19
342.213	320.07
342.666	336.45
343.119	345.81
343.571	397.31
344.024	352.84
344.477	256.87
344.929	296.66
345.382	320.07
345.834	317.73
346.287	273.26
346.739	299
347.191	329.43
347.644	313.05
348.096	329.43
348.548	289.64
349	301.34
349.452	289.64
349.904	327.09
350.356	355.18
350.808	273.26
351.26	261.55
351.711	352.84
352.163	282.62
352.615	287.3
353.066	322.41
353.518	291.98
353.969	310.71
354.421	308.37
354.872	352.84
355.324	270.92
355.775	289.64
356.226	252.19
356.677	287.3
357.128	324.75
357.579	338.79
358.03	287.3
358.481	324.75
358.932	338.79
359.383	315.39
359.834	387.94
360.285	296.66
360.735	277.94
361.186	322.41
361.637	254.53
362.087	331.77
362.538	357.52
362.988	362.2
363.438	247.51
363.889	299
364.339	299
364.789	317.73
365.239	334.11
365.689	313.05
366.139	394.97
366.589	357.52
367.039	301.34
367.489	362.2
367.939	322.41
368.389	359.86
368.839	322.41
369.288	350.5
369.738	249.85
370.187	308.37
370.637	331.77
371.086	284.96
371.536	289.64
371.985	296.66
372.434	301.34
372.884	299
373.333	331.77
373.782	277.94
374.231	357.52
374.68	336.45
375.129	348.15
375.578	289.64
376.027	324.75
376.475	317.73
376.924	310.71
377.373	289.64
377.822	320.07
378.27	310.71
378.719	315.39
379.167	331.77
379.616	324.75
380.064	345.81
380.512	303.68
380.961	352.84
381.409	266.24
381.857	380.92
382.305	310.71
382.753	350.5
383.201	315.39
383.649	280.28
384.097	352.84
384.545	336.45
384.992	327.09
385.44	277.94
385.888	291.98
386.335	306.03
386.783	352.84
387.231	273.26
387.678	324.75
388.125	341.13
388.573	423.05
389.02	282.62
389.467	289.64
389.914	282.62
390.362	331.77
390.809	369.22
391.256	345.81
391.703	352.84
392.15	289.64
392.596	369.22
393.043	275.6
393.49	287.3
393.937	240.49
394.383	357.52
394.83	378.58
395.276	313.05
395.723	343.47
396.169	301.34
396.616	359.86
397.062	369.22
397.508	303.68
397.954	315.39
398.401	350.5
398.847	317.73
399.293	242.83
399.739	322.41
400.185	282.62
400.631	299
401.076	306.03
401.522	287.3
401.968	261.55
402.414	299
402.859	315.39
403.305	385.6
403.75	334.11
404.196	301.34
404.641	390.28
405.086	334.11
405.532	317.73
405.977	282.62
406.422	275.6
406.867	240.49
407.312	301.34
407.757	380.92
408.202	341.13
408.647	355.18
409.092	329.43
409.537	210.06
409.982	352.84
410.426	331.77
410.871	371.56
411.316	401.99
411.76	322.41
412.205	301.34
412.649	322.41
413.093	324.75
413.538	273.26
413.982	317.73
414.426	317.73
414.87	341.13
415.314	362.2
415.758	327.09
416.202	306.03
416.646	291.98
417.09	303.68
417.534	334.11
417.978	334.11
418.421	306.03
418.865	308.37
419.309	331.77
419.752	301.34
420.196	291.98
420.639	315.39
421.083	310.71
421.526	313.05
421.969	289.64
422.412	280.28
422.856	315.39
423.299	294.32
423.742	308.37
424.185	357.52
424.628	366.88
425.071	263.9
425.513	275.6
425.956	296.66
426.399	317.73
426.842	373.9
427.284	350.5
427.727	345.81
428.169	380.92
428.612	301.34
429.054	315.39
429.497	327.09
429.939	343.47
430.381	277.94
430.823	313.05
431.265	329.43
431.707	226.45
432.149	380.92
432.591	259.21
433.033	289.64
433.475	284.96
433.917	383.26
434.359	263.9
434.8	287.3
435.242	310.71
435.684	261.55
436.125	315.39
436.567	327.09
437.008	296.66
437.449	313.05
437.891	282.62
438.332	245.17
438.773	348.15
439.214	301.34
439.656	308.37
440.097	331.77
440.538	270.92
440.978	317.73
441.419	308.37
441.86	371.56
442.301	289.64
442.742	362.2
443.182	315.39
443.623	245.17
444.063	362.2
444.504	380.92
444.944	343.47
445.385	306.03
445.825	322.41
446.265	324.75
446.706	376.24
447.146	315.39
447.586	343.47
448.026	308.37
448.466	282.62
448.906	387.94
449.346	315.39
449.786	263.9
450.225	296.66
450.665	275.6
451.105	289.64
451.544	338.79
451.984	350.5
452.424	301.34
452.863	294.32
453.302	259.21
453.742	322.41
454.181	266.24
454.62	317.73
455.059	322.41
455.499	287.3
455.938	313.05
456.377	327.09
456.816	362.2
457.254	359.86
457.693	324.75
458.132	336.45
458.571	277.94
459.01	348.15
459.448	322.41
459.887	249.85
460.325	334.11
460.764	259.21
461.202	261.55
461.641	284.96
462.079	334.11
462.517	338.79
462.955	315.39
463.393	291.98
463.832	303.68
464.27	291.98
464.708	350.5
465.145	296.66
465.583	317.73
466.021	345.81
466.459	341.13
466.897	322.41
467.334	291.98
467.772	263.9
468.209	296.66
468.647	327.09
469.084	317.73
469.522	266.24
469.959	299
470.396	268.58
470.833	320.07
471.271	362.2
471.708	341.13
472.145	324.75
472.582	324.75
473.019	317.73
473.456	310.71
473.892	280.28
474.329	291.98
474.766	343.47
475.202	343.47
475.639	308.37
476.076	352.84
476.512	299
476.949	315.39
477.385	282.62
477.821	277.94
478.258	287.3
478.694	371.56
479.13	306.03
479.566	341.13
480.002	282.62
480.438	310.71
480.874	310.71
481.31	324.75
481.746	289.64
482.181	359.86
482.617	308.37
483.053	355.18
483.488	282.62
483.924	287.3
484.36	299
484.795	385.6
485.23	315.39
485.666	359.86
486.101	263.9
486.536	310.71
486.971	270.92
487.407	291.98
487.842	275.6
488.277	327.09
488.712	322.41
489.146	324.75
489.581	327.09
490.016	327.09
490.451	348.15
490.885	299
491.32	287.3
491.755	366.88
492.189	329.43
492.624	313.05
493.058	357.52
493.492	310.71
493.927	350.5
494.361	256.87
494.795	313.05
495.229	280.28
495.663	294.32
496.097	299
496.531	289.64
496.965	331.77
497.399	282.62
497.833	341.13
498.266	282.62
498.7	306.03
499.134	331.77
499.567	355.18
500.001	364.54
500.434	313.05
500.868	320.07
501.301	313.05
501.734	296.66
502.168	306.03
502.601	303.68
503.034	313.05
503.467	313.05
503.9	310.71
504.333	291.98
504.766	233.47
505.199	275.6
505.632	270.92
506.064	350.5
506.497	322.41
506.93	352.84
507.362	299
507.795	320.07
508.227	308.37
508.66	303.68
509.092	352.84
509.524	273.26
509.956	313.05
510.389	315.39
510.821	336.45
511.253	362.2
511.685	270.92
512.117	303.68
512.549	259.21
512.981	306.03
513.412	291.98
513.844	329.43
514.276	299
514.707	348.15
515.139	371.56
515.571	401.99
516.002	322.41
516.433	301.34
516.865	336.45
517.296	338.79
517.727	282.62
518.159	270.92
518.59	299
519.021	334.11
519.452	294.32
519.883	294.32
520.314	259.21
520.744	324.75
521.175	310.71
521.606	336.45
522.037	284.96
522.467	329.43
522.898	226.45
523.328	345.81
523.759	385.6
524.189	341.13
524.62	411.35
525.05	378.58
525.48	329.43
525.91	308.37
526.341	303.68
526.771	291.98
527.201	266.24
527.631	341.13
528.061	306.03
528.49	270.92
528.92	327.09
529.35	270.92
529.78	247.51
530.209	334.11
530.639	366.88
531.068	357.52
531.498	334.11
531.927	331.77
532.357	315.39
532.786	261.55
533.215	294.32
533.644	273.26
534.074	294.32
534.503	291.98
534.932	301.34
535.361	341.13
535.79	313.05
536.218	341.13
536.647	317.73
537.076	303.68
537.505	317.73
537.933	289.64
538.362	345.81
538.79	273.26
539.219	327.09
539.647	291.98
540.076	371.56
540.504	291.98
540.932	331.77
541.36	301.34
541.788	383.26
542.217	329.43
542.645	369.22
543.073	289.64
543.5	327.09
543.928	282.62
544.356	303.68
544.784	256.87
545.211	254.53
545.639	263.9
546.067	308.37
546.494	303.68
546.922	289.64
547.349	369.22
547.776	317.73
548.204	296.66
548.631	341.13
549.058	315.39
549.485	299
549.912	296.66
550.339	329.43
550.766	364.54
551.193	352.84
551.62	329.43
552.047	320.07
552.474	378.58
552.9	352.84
553.327	282.62
553.754	364.54
554.18	317.73
554.607	303.68
555.033	320.07
555.459	383.26
555.886	348.15
556.312	315.39
556.738	308.37
557.164	336.45
557.59	301.34
558.016	303.68
558.442	301.34
558.868	329.43
559.294	296.66
559.72	289.64
560.145	303.68
560.571	322.41
560.997	256.87
561.422	343.47
561.848	249.85
562.273	289.64
562.699	359.86
563.124	299
563.549	329.43
563.974	338.79
564.4	343.47
564.825	322.41
565.25	301.34
565.675	280.28
566.1	331.77
566.525	287.3
566.95	336.45
567.374	336.45
567.799	231.13
568.224	294.32
568.648	277.94
569.073	296.66
569.497	348.15
569.922	315.39
570.346	364.54
570.771	277.94
571.195	259.21
571.619	336.45
572.043	306.03
572.467	329.43
572.891	343.47
573.315	329.43
573.739	273.26
574.163	320.07
574.587	266.24
575.011	310.71
575.435	313.05
575.858	317.73
576.282	284.96
576.705	308.37
577.129	256.87
577.552	327.09
577.976	338.79
578.399	378.58
578.822	273.26
579.245	313.05
579.669	301.34
580.092	355.18
580.515	294.32
580.938	313.05
581.361	275.6
581.784	280.28
582.206	291.98
582.629	270.92
583.052	322.41
583.474	299
583.897	254.53
584.32	322.41
584.742	282.62
585.165	345.81
585.587	301.34
586.009	317.73
586.431	345.81
586.854	327.09
587.276	287.3
587.698	275.6
588.12	268.58
588.542	301.34
588.964	376.24
589.386	343.47
589.807	331.77
590.229	385.6
590.651	317.73
591.073	345.81
591.494	320.07
591.916	336.45
592.337	383.26
592.759	306.03
593.18	334.11
593.601	284.96
594.022	296.66
594.444	296.66
594.865	254.53
595.286	324.75
595.707	275.6
596.128	277.94
596.549	254.53
596.97	327.09
597.39	329.43
597.811	270.92
598.232	310.71
598.652	294.32
599.073	245.17
599.494	275.6
599.914	301.34
600.334	364.54
600.755	294.32
601.175	313.05
601.595	294.32
602.015	308.37
602.436	282.62
602.856	439.44
603.276	313.05
603.696	275.6
604.115	329.43
604.535	303.68
604.955	324.75
605.375	270.92
605.794	345.81
606.214	299
606.634	364.54
607.053	296.66
607.473	343.47
607.892	301.34
608.311	277.94
608.731	226.45
609.15	301.34
609.569	306.03
609.988	359.86
610.407	348.15
610.826	317.73
611.245	280.28
611.664	329.43
612.083	299
612.501	289.64
612.92	394.97
613.339	268.58
613.757	313.05
614.176	343.47
614.594	287.3
615.013	373.9
615.431	320.07
615.85	266.24
616.268	273.26
616.686	282.62
617.104	277.94
617.522	275.6
617.94	327.09
618.358	322.41
618.776	303.68
619.194	301.34
619.612	331.77
620.03	310.71
620.447	261.55
620.865	341.13
621.282	350.5
621.7	284.96
622.117	284.96
622.535	329.43
622.952	233.47
623.369	289.64
623.787	350.5
624.204	327.09
624.621	289.64
625.038	296.66
625.455	306.03
625.872	331.77
626.289	287.3
626.706	357.52
627.123	306.03
627.539	343.47
627.956	275.6
628.373	334.11
628.789	294.32
629.206	320.07
629.622	343.47
630.038	303.68
630.455	310.71
630.871	345.81
631.287	378.58
631.703	310.71
632.12	308.37
632.536	336.45
632.952	291.98
633.368	331.77
633.783	387.94
634.199	343.47
634.615	282.62
635.031	280.28
635.446	294.32
635.862	270.92
636.277	287.3
636.693	275.6
637.108	291.98
637.524	425.39
637.939	315.39
638.354	301.34
638.77	266.24
639.185	331.77
639.6	313.05
640.015	338.79
640.43	313.05
640.845	294.32
641.259	331.77
641.674	336.45
642.089	294.32
642.504	383.26
642.918	270.92
643.333	345.81
643.747	301.34
644.162	355.18
644.576	334.11
644.991	306.03
645.405	301.34
645.819	369.22
646.233	343.47
646.647	277.94
647.061	287.3
647.475	331.77
647.889	294.32
648.303	343.47
648.717	282.62
649.131	329.43
649.545	303.68
649.958	303.68
650.372	282.62
650.785	317.73
651.199	294.32
651.612	280.28
652.026	256.87
652.439	355.18
652.852	296.66
653.266	266.24
653.679	329.43
654.092	364.54
654.505	334.11
654.918	362.2
655.331	387.94
655.744	270.92
656.156	334.11
656.569	334.11
656.982	334.11
657.394	322.41
657.807	320.07
658.22	348.15
658.632	315.39
659.044	320.07
659.457	322.41
659.869	299
660.281	284.96
660.693	315.39
661.106	308.37
661.518	392.62
661.93	291.98
662.342	266.24
662.754	268.58
663.165	357.52
663.577	315.39
663.989	308.37
664.401	327.09
664.812	245.17
665.224	331.77
665.635	296.66
666.047	329.43
666.458	315.39
666.869	327.09
667.281	327.09
667.692	315.39
668.103	303.68
668.514	291.98
668.925	291.98
669.336	357.52
669.747	306.03
670.158	294.32
670.569	280.28
670.979	364.54
671.39	224.11
671.801	310.71
672.211	331.77
672.622	287.3
673.032	291.98
673.443	324.75
673.853	289.64
674.263	299
674.674	263.9
675.084	322.41
675.494	296.66
675.904	329.43
676.314	306.03
676.724	266.24
677.134	345.81
677.544	334.11
677.953	336.45
678.363	376.24
678.773	345.81
679.182	348.15
679.592	362.2
680.001	273.26
680.411	317.73
680.82	249.85
681.23	224.11
681.639	301.34
682.048	350.5
682.457	380.92
682.866	273.26
683.275	334.11
683.684	289.64
684.093	299
684.502	291.98
684.911	275.6
685.32	315.39
685.728	268.58
686.137	306.03
686.546	341.13
686.954	299
687.363	249.85
687.771	320.07
688.179	362.2
688.588	336.45
688.996	296.66
689.404	306.03
689.812	284.96
690.22	380.92
690.628	315.39
691.036	390.28
691.444	348.15
691.852	294.32
692.26	277.94
692.667	320.07
693.075	296.66
693.483	299
693.89	280.28
694.298	273.26
694.705	252.19
695.112	315.39
695.52	334.11
695.927	329.43
696.334	275.6
696.741	282.62
697.148	301.34
697.555	282.62
697.962	373.9
698.369	322.41
698.776	317.73
699.183	350.5
699.59	266.24
699.996	324.75
700.403	270.92
700.81	306.03
701.216	303.68
701.623	256.87
702.029	352.84
702.435	338.79
702.842	296.66
703.248	327.09
703.654	238.15
704.06	348.15
704.466	261.55
704.872	409.01
705.278	343.47
705.684	345.81
706.09	359.86
706.496	291.98
706.901	324.75
707.307	301.34
707.712	268.58
708.118	336.45
708.523	313.05
708.929	273.26
709.334	317.73
709.74	324.75
710.145	287.3
710.55	345.81
710.955	350.5
711.36	310.71
711.765	277.94
712.17	357.52
712.575	207.72
712.98	842.01
713.385	313.05
713.789	296.66
714.194	289.64
714.599	322.41
715.003	306.03
715.408	336.45
715.812	301.34
716.217	348.15
716.621	345.81
717.025	301.34
717.429	366.88
717.833	327.09
718.238	331.77
718.642	296.66
719.046	261.55
719.449	322.41
719.853	287.3
720.257	299
720.661	348.15
721.065	263.9
721.468	219.43
721.872	263.9
722.275	329.43
722.679	289.64
723.082	359.86
723.485	350.5
723.889	294.32
724.292	228.79
724.695	329.43
725.098	327.09
725.501	341.13
725.904	341.13
726.307	341.13
726.71	284.96
727.113	348.15
727.516	327.09
727.918	359.86
728.321	359.86
728.724	266.24
729.126	303.68
729.529	282.62
729.931	308.37
730.333	270.92
730.736	350.5
731.138	303.68
731.54	364.54
731.942	301.34
732.344	301.34
732.746	289.64
733.148	378.58
733.55	338.79
733.952	280.28
734.354	256.87
734.756	282.62
735.157	317.73
735.559	303.68
735.96	254.53
736.362	355.18
736.763	294.32
737.165	301.34
737.566	317.73
737.967	369.22
738.368	320.07
738.77	345.81
739.171	327.09
739.572	329.43
739.973	289.64
740.374	350.5
740.774	282.62
741.175	301.34
741.576	303.68
741.977	282.62
742.377	303.68
742.778	294.32
743.178	313.05
743.579	350.5
743.979	294.32
744.379	322.41
744.78	331.77
745.18	322.41
745.58	275.6
745.98	341.13
746.38	275.6
746.78	313.05
747.18	313.05
747.58	238.15
747.98	242.83
748.38	303.68
748.779	331.77
749.179	355.18
749.578	322.41
749.978	343.47
750.377	313.05
750.777	313.05
751.176	301.34
751.575	313.05
751.975	282.62
752.374	266.24
752.773	303.68
753.172	350.5
753.571	378.58
753.97	284.96
754.369	313.05
754.768	284.96
755.166	275.6
755.565	303.68
755.964	284.96
756.362	313.05
756.761	401.99
757.159	397.31
757.558	341.13
757.956	294.32
758.354	313.05
758.753	315.39
759.151	336.45
759.549	331.77
759.947	308.37
760.345	341.13
760.743	291.98
761.141	301.34
761.539	266.24
761.936	320.07
762.334	359.86
762.732	322.41
763.129	294.32
763.527	275.6
763.924	313.05
764.322	313.05
764.719	313.05
765.117	331.77
765.514	280.28
765.911	247.51
766.308	322.41
766.705	308.37
767.102	322.41
767.499	296.66
767.896	233.47
768.293	303.68
768.69	385.6
769.086	401.99
769.483	329.43
769.88	324.75
770.276	322.41
770.673	313.05
771.069	320.07
771.466	350.5
771.862	273.26
772.258	331.77
772.654	294.32
773.05	341.13
773.447	294.32
773.843	303.68
774.239	289.64
774.634	322.41
775.03	303.68
775.426	359.86
775.822	313.05
776.218	343.47
776.613	359.86
777.009	275.6
777.404	327.09
777.8	303.68
778.195	310.71
778.59	345.81
778.986	364.54
779.381	301.34
779.776	317.73
780.171	322.41
780.566	282.62
780.961	254.53
781.356	369.22
781.751	320.07
782.146	303.68
782.54	359.86
782.935	308.37
783.33	266.24
783.724	294.32
784.119	327.09
784.513	284.96
784.908	268.58
785.302	359.86
785.696	313.05
786.09	320.07
786.485	294.32
786.879	301.34
787.273	228.79
787.667	336.45
788.061	303.68
788.454	322.41
788.848	289.64
789.242	294.32
789.636	306.03
790.029	294.32
790.423	303.68
790.816	282.62
791.21	341.13
791.603	277.94
791.997	313.05
792.39	341.13
792.783	266.24
793.176	303.68
793.569	334.11
793.962	336.45
794.355	341.13
794.748	317.73
795.141	228.79
795.534	273.26
795.927	310.71
796.319	317.73
796.712	310.71
797.105	331.77
797.497	275.6
797.89	294.32
798.282	315.39
798.674	345.81
799.067	284.96
799.459	327.09
799.851	303.68
800.243	268.58
800.635	320.07
801.027	275.6
801.419	287.3
801.811	303.68
802.203	259.21
802.594	345.81
802.986	294.32
803.378	320.07
803.769	327.09
804.161	263.9
804.552	334.11
804.944	364.54
805.335	256.87
805.726	254.53
806.118	261.55
806.509	376.24
806.9	277.94
807.291	280.28
807.682	247.51
808.073	348.15
808.464	364.54
808.855	315.39
809.245	268.58
809.636	284.96
810.027	341.13
810.417	291.98
810.808	315.39
811.198	291.98
811.589	284.96
811.979	214.74
812.369	284.96
812.759	235.81
813.15	308.37
813.54	275.6
813.93	291.98
814.32	299
814.71	331.77
815.1	320.07
815.489	299
815.879	284.96
816.269	301.34
816.658	280.28
817.048	284.96
817.438	324.75
817.827	336.45
818.216	345.81
818.606	315.39
818.995	336.45
819.384	296.66
819.773	282.62
820.163	310.71
820.552	254.53
820.941	310.71
821.33	301.34
821.718	313.05
822.107	350.5
822.496	256.87
822.885	275.6
823.273	322.41
823.662	350.5
824.05	303.68
824.439	294.32
824.827	238.15
825.216	284.96
825.604	359.86
825.992	345.81
826.38	387.94
826.768	299
827.156	284.96
827.544	416.03
827.932	329.43
828.32	317.73
828.708	277.94
829.096	308.37
829.483	359.86
829.871	294.32
830.259	338.79
830.646	291.98
831.034	254.53
831.421	284.96
831.808	303.68
832.196	303.68
832.583	341.13
832.97	322.41
833.357	266.24
833.744	322.41
834.131	256.87
834.518	327.09
834.905	331.77
835.292	252.19
835.678	308.37
836.065	266.24
836.452	334.11
836.838	261.55
837.225	324.75
837.611	268.58
837.998	317.73
838.384	306.03
838.77	306.03
839.157	357.52
839.543	329.43
839.929	310.71
840.315	310.71
840.701	357.52
841.087	313.05
841.473	313.05
841.858	369.22
842.244	313.05
842.63	331.77
843.015	308.37
843.401	659.45
843.787	336.45
844.172	266.24
844.557	247.51
844.943	273.26
845.328	313.05
845.713	324.75
846.098	322.41
846.483	303.68
846.868	303.68
847.253	341.13
847.638	277.94
848.023	289.64
848.408	345.81
848.793	350.5
849.177	275.6
849.562	310.71
849.947	329.43
850.331	348.15
850.715	341.13
851.1	294.32
851.484	317.73
851.868	359.86
852.253	280.28
852.637	299
853.021	284.96
853.405	334.11
853.789	341.13
854.173	352.84
854.557	310.71
854.94	284.96
855.324	352.84
855.708	341.13
856.091	315.39
856.475	317.73
856.858	299
857.242	324.75
857.625	345.81
858.009	352.84
858.392	291.98
858.775	282.62
859.158	320.07
859.541	320.07
859.924	287.3
860.307	387.94
860.69	336.45
861.073	303.68
861.456	322.41
861.838	282.62
862.221	261.55
862.604	315.39
862.986	317.73
863.369	341.13
863.751	256.87
864.133	301.34
864.516	334.11
864.898	263.9
865.28	270.92
865.662	313.05
866.044	331.77
866.426	273.26
866.808	270.92
867.19	315.39
867.572	308.37
867.954	313.05
868.336	345.81
868.717	273.26
869.099	277.94
869.48	334.11
869.862	322.41
870.243	315.39
870.625	289.64
871.006	343.47
871.387	306.03
871.768	355.18
872.149	296.66
872.53	324.75
872.911	352.84
873.292	329.43
873.673	343.47
874.054	259.21
874.435	338.79
874.815	334.11
875.196	308.37
875.577	315.39
875.957	296.66
876.338	308.37
876.718	310.71
877.098	315.39
877.479	306.03
877.859	291.98
878.239	338.79
878.619	266.24
878.999	366.88
879.379	287.3
879.759	303.68
880.139	341.13
880.519	303.68
880.898	294.32
881.278	338.79
881.658	261.55
882.037	313.05
882.417	266.24
882.796	256.87
883.176	313.05
883.555	301.34
883.934	317.73
884.313	322.41
884.693	341.13
885.072	327.09
885.451	303.68
885.83	310.71
886.209	313.05
886.587	327.09
886.966	343.47
887.345	341.13
887.724	308.37
888.102	303.68
888.481	320.07
888.859	259.21
889.238	313.05
889.616	207.72
889.994	317.73
890.373	378.58
890.751	301.34
891.129	317.73
891.507	341.13
891.885	310.71
892.263	345.81
892.641	313.05
893.019	357.52
893.396	369.22
893.774	284.96
894.152	263.9
894.529	261.55
894.907	317.73
895.284	308.37
895.662	294.32
896.039	294.32
896.416	249.85
896.794	357.52
897.171	273.26
897.548	303.68
897.925	331.77
898.302	320.07
898.679	331.77
899.056	313.05
899.433	284.96
899.809	284.96
900.186	266.24
900.563	275.6
900.939	219.43
901.316	313.05
901.692	308.37
902.069	303.68
902.445	313.05
902.821	299
903.197	299
903.574	362.2
903.95	392.62
904.326	317.73
904.702	282.62
905.078	329.43
905.454	366.88
905.829	287.3
906.205	320.07
906.581	313.05
906.956	303.68
907.332	359.86
907.707	310.71
908.083	303.68
908.458	256.87
908.833	322.41
909.209	303.68
909.584	294.32
909.959	383.26
910.334	284.96
910.709	294.32
911.084	275.6
911.459	327.09
911.834	324.75
912.209	313.05
912.583	341.13
912.958	261.55
913.333	306.03
913.707	287.3
914.082	289.64
914.456	294.32
914.83	301.34
915.205	277.94
915.579	301.34
915.953	291.98
916.327	284.96
916.701	294.32
917.075	263.9
917.449	303.68
917.823	313.05
918.197	233.47
918.571	284.96
918.944	322.41
919.318	317.73
919.692	270.92
920.065	249.85
920.438	294.32
920.812	373.9
921.185	301.34
921.558	296.66
921.932	324.75
922.305	266.24
922.678	287.3
923.051	317.73
923.424	320.07
923.797	348.15
924.17	303.68
924.542	362.2
924.915	235.81
925.288	397.31
925.661	303.68
926.033	275.6
926.406	287.3
926.778	303.68
927.15	266.24
927.523	294.32
927.895	224.11
928.267	259.21
928.639	252.19
929.011	275.6
929.383	242.83
929.755	324.75
930.127	301.34
930.499	301.34
930.871	303.68
931.242	338.79
931.614	245.17
931.986	317.73
932.357	280.28
932.729	345.81
933.1	247.51
933.471	238.15
933.843	315.39
934.214	254.53
934.585	259.21
934.956	303.68
935.327	322.41
935.698	315.39
936.069	261.55
936.44	334.11
936.811	317.73
937.182	317.73
937.552	413.69
937.923	338.79
938.293	357.52
938.664	296.66
939.034	268.58
939.405	284.96
939.775	275.6
940.145	289.64
940.516	249.85
940.886	268.58
941.256	280.28
941.626	280.28
941.996	348.15
942.366	320.07
942.735	240.49
943.105	371.56
943.475	301.34
943.845	256.87
944.214	289.64
944.584	287.3
944.953	207.72
945.323	350.5
945.692	270.92
946.061	362.2
946.43	315.39
946.8	280.28
947.169	261.55
947.538	245.17
947.907	287.3
948.276	263.9
948.645	324.75
949.013	352.84
949.382	294.32
949.751	310.71
950.119	261.55
950.488	352.84
950.857	329.43
951.225	280.28
951.593	284.96
951.962	249.85
952.33	245.17
952.698	233.47
953.066	329.43
953.434	336.45
953.802	357.52
954.17	280.28
954.538	306.03
954.906	313.05
955.274	291.98
955.642	289.64
956.009	338.79
956.377	287.3
956.744	317.73
957.112	266.24
957.479	282.62
957.847	270.92
958.214	291.98
958.581	306.03
958.948	294.32
959.315	331.77
959.683	296.66
960.05	308.37
960.416	306.03
960.783	261.55
961.15	252.19
961.517	306.03
961.884	315.39
962.25	343.47
962.617	329.43
962.983	254.53
963.35	324.75
963.716	310.71
964.082	348.15
964.449	355.18
964.815	284.96
965.181	357.52
965.547	364.54
965.913	303.68
966.279	338.79
966.645	317.73
967.011	317.73
967.377	273.26
967.742	266.24
968.108	317.73
968.474	240.49
968.839	245.17
969.205	284.96
969.57	303.68
969.935	310.71
970.301	320.07
970.666	252.19
971.031	233.47
971.396	247.51
971.761	331.77
972.126	313.05
972.491	273.26
972.856	320.07
973.221	313.05
973.586	313.05
973.95	313.05
974.315	313.05
974.679	341.13
975.044	242.83
975.408	313.05
975.773	345.81
976.137	275.6
976.501	345.81
976.866	291.98
977.23	327.09
977.594	231.13
977.958	322.41
978.322	301.34
978.686	280.28
979.049	315.39
979.413	348.15
979.777	270.92
980.141	327.09
980.504	254.53
980.868	320.07
981.231	313.05
981.595	338.79
981.958	320.07
982.321	266.24
982.684	303.68
983.048	299
983.411	266.24
983.774	252.19
984.137	336.45
984.5	327.09
984.862	315.39
985.225	261.55
985.588	273.26
985.951	301.34
986.313	324.75
986.676	245.17
987.038	315.39
987.401	266.24
987.763	322.41
988.125	320.07
988.488	294.32
988.85	268.58
989.212	364.54
989.574	210.06
989.936	275.6
990.298	359.86
990.66	310.71
991.022	315.39
991.383	322.41
991.745	373.9
992.107	350.5
992.468	317.73
992.83	301.34
993.191	350.5
993.553	287.3
993.914	336.45
994.275	348.15
994.637	322.41
994.998	317.73
995.359	306.03
995.72	301.34
996.081	233.47
996.442	313.05
996.803	371.56
997.163	334.11
997.524	359.86
997.885	409.01
998.245	261.55
998.606	301.34
998.966	287.3
999.327	303.68
999.687	296.66
1000.047	334.11
1000.408	364.54
1000.768	324.75
1001.128	294.32
1001.488	348.15
1001.848	334.11
1002.208	394.97
1002.568	343.47
1002.927	294.32
1003.287	336.45
1003.647	357.52
1004.007	313.05
1004.366	352.84
1004.726	270.92
1005.085	338.79
1005.444	359.86
1005.804	313.05
1006.163	310.71
1006.522	245.17
1006.881	331.77
1007.24	336.45
1007.599	289.64
1007.958	322.41
1008.317	205.38
1008.676	266.24
1009.035	296.66
1009.393	306.03
1009.752	275.6
1010.111	348.15
1010.469	308.37
1010.828	306.03
1011.186	221.77
1011.544	317.73
1011.903	256.87
1012.261	301.34
1012.619	343.47
1012.977	273.26
1013.335	277.94
1013.693	289.64
1014.051	266.24
1014.409	301.34
1014.767	294.32
1015.124	306.03
1015.482	343.47
1015.84	266.24
1016.197	350.5
1016.555	289.64
1016.912	240.49
1017.269	226.45
1017.627	341.13
1017.984	289.64
1018.341	273.26
1018.698	296.66
1019.055	299
1019.412	266.24
1019.769	362.2
1020.126	289.64
1020.483	254.53
1020.84	320.07
1021.196	299
1021.553	291.98
1021.909	273.26
1022.266	252.19
1022.622	242.83
1022.979	352.84
1023.335	317.73
1023.691	303.68
1024.047	334.11
1024.404	338.79
1024.76	277.94
1025.116	338.79
1025.472	327.09
1025.827	310.71
1026.183	341.13
1026.539	315.39
1026.895	322.41
1027.25	291.98
1027.606	219.43
1027.961	322.41
1028.317	338.79
1028.672	280.28
1029.028	341.13
1029.383	322.41
1029.738	322.41
1030.093	275.6
1030.448	390.28
1030.803	280.28
1031.158	313.05
1031.513	317.73
1031.868	266.24
1032.223	296.66
1032.577	306.03
1032.932	299
1033.287	324.75
1033.641	317.73
1033.996	282.62
1034.35	338.79
1034.704	310.71
1035.059	329.43
1035.413	287.3
1035.767	287.3
1036.121	287.3
