Data from Al_FLMS009871__1049__16-25-16-713.txt Node

Date: Fri Mar 08 16:25:16 CST 2024
User: pe5414po
Spectrometer: FLMS00987
Trigger mode: 0
Integration Time (sec): 1.000000E-1
Scans to average: 1
Electric dark correction enabled: true
Nonlinearity correction enabled: false
Boxcar width: 0
XAxis mode: Wavelengths
Number of Pixels in Spectrum: 2048
>>>>>Begin Spectral Data<<<<<
188.938	-65.1
189.409	-65.1
189.879	-65.1
190.349	-93.18
190.819	-104.89
191.29	-118.93
191.76	-109.57
192.23	-72.12
192.7	-109.57
193.17	-41.69
193.64	-67.44
194.109	-6.58
194.579	-53.39
195.049	16.82
195.519	14.48
195.988	37.89
196.458	49.59
196.927	44.91
197.397	178.32
197.866	122.15
198.336	115.13
198.805	171.3
199.274	108.1
199.744	166.62
200.213	171.3
200.682	246.2
201.151	213.43
201.62	243.85
202.089	290.67
202.558	278.96
203.027	264.92
203.495	304.71
203.964	175.98
204.433	236.83
204.902	295.35
205.37	311.73
205.839	304.71
206.307	253.22
206.776	278.96
207.244	318.75
207.712	349.18
208.181	290.67
208.649	297.69
209.117	309.39
209.585	325.77
210.053	269.6
210.521	227.47
210.989	248.54
211.457	293.01
211.925	234.49
212.393	243.85
212.861	264.92
213.328	271.94
213.796	250.88
214.264	283.64
214.731	274.28
215.199	227.47
215.666	260.24
216.133	276.62
216.601	288.32
217.068	250.88
217.535	222.79
218.003	234.49
218.47	220.45
218.937	192.36
219.404	243.85
219.871	248.54
220.338	283.64
220.805	271.94
221.271	290.67
221.738	232.15
222.205	225.13
222.671	222.79
223.138	311.73
223.605	274.28
224.071	285.98
224.538	255.56
225.004	337.48
225.47	307.05
225.937	288.32
226.403	267.26
226.869	260.24
227.335	264.92
227.801	262.58
228.267	276.62
228.733	281.3
229.199	309.39
229.665	255.56
230.131	264.92
230.597	304.71
231.062	274.28
231.528	278.96
231.994	297.69
232.459	293.01
232.925	314.07
233.39	278.96
233.856	337.48
234.321	290.67
234.786	246.2
235.252	300.03
235.717	337.48
236.182	278.96
236.647	307.05
237.112	246.2
237.577	213.43
238.042	250.88
238.507	309.39
238.972	309.39
239.436	218.11
239.901	285.98
240.366	262.58
240.83	335.14
241.295	264.92
241.76	316.41
242.224	253.22
242.688	274.28
243.153	318.75
243.617	255.56
244.081	262.58
244.545	288.32
245.01	325.77
245.474	321.09
245.938	302.37
246.402	213.43
246.866	304.71
247.33	271.94
247.793	274.28
248.257	264.92
248.721	309.39
249.185	248.54
249.648	288.32
250.112	250.88
250.575	236.83
251.039	307.05
251.502	239.17
251.965	304.71
252.429	257.9
252.892	255.56
253.355	332.79
253.818	253.22
254.281	346.84
254.744	285.98
255.207	232.15
255.67	309.39
256.133	278.96
256.596	255.56
257.059	276.62
257.522	290.67
257.984	269.6
258.447	314.07
258.909	255.56
259.372	323.43
259.834	278.96
260.297	239.17
260.759	332.79
261.221	283.64
261.684	243.85
262.146	285.98
262.608	300.03
263.07	370.24
263.532	246.2
263.994	260.24
264.456	234.49
264.918	255.56
265.38	304.71
265.842	311.73
266.303	309.39
266.765	288.32
267.227	241.51
267.688	314.07
268.15	307.05
268.611	311.73
269.072	309.39
269.534	290.67
269.995	253.22
270.456	267.26
270.918	246.2
271.379	288.32
271.84	307.05
272.301	293.01
272.762	281.3
273.223	288.32
273.684	295.35
274.144	201.72
274.605	288.32
275.066	227.47
275.527	318.75
275.987	262.58
276.448	309.39
276.908	300.03
277.369	335.14
277.829	335.14
278.289	274.28
278.75	213.43
279.21	260.24
279.67	314.07
280.13	281.3
280.59	269.6
281.05	253.22
281.51	314.07
281.97	365.56
282.43	274.28
282.89	257.9
283.35	311.73
283.809	323.43
284.269	316.41
284.729	264.92
285.188	267.26
285.648	241.51
286.107	276.62
286.567	300.03
287.026	302.37
287.485	295.35
287.944	342.16
288.404	290.67
288.863	321.09
289.322	321.09
289.781	314.07
290.24	276.62
290.699	367.9
291.158	288.32
291.616	288.32
292.075	314.07
292.534	290.67
292.992	330.45
293.451	197.04
293.91	267.26
294.368	253.22
294.827	236.83
295.285	321.09
295.743	321.09
296.202	314.07
296.66	278.96
297.118	325.77
297.576	293.01
298.034	222.79
298.492	262.58
298.95	239.17
299.408	304.71
299.866	297.69
300.324	351.52
300.781	274.28
301.239	262.58
301.697	234.49
302.154	370.24
302.612	295.35
303.069	297.69
303.527	260.24
303.984	250.88
304.441	281.3
304.899	318.75
305.356	295.35
305.813	271.94
306.27	295.35
306.727	250.88
307.184	297.69
307.641	257.9
308.098	283.64
308.555	295.35
309.012	351.52
309.468	300.03
309.925	314.07
310.382	302.37
310.838	304.71
311.295	295.35
311.751	307.05
312.208	304.71
312.664	297.69
313.12	323.43
313.577	281.3
314.033	346.84
314.489	304.71
314.945	342.16
315.401	290.67
315.857	321.09
316.313	288.32
316.769	337.48
317.225	314.07
317.681	236.83
318.136	260.24
318.592	300.03
319.048	302.37
319.503	300.03
319.959	293.01
320.414	314.07
320.869	325.77
321.325	264.92
321.78	297.69
322.235	255.56
322.691	290.67
323.146	215.77
323.601	297.69
324.056	323.43
324.511	227.47
324.966	307.05
325.421	274.28
325.875	276.62
326.33	271.94
326.785	264.92
327.24	304.71
327.694	288.32
328.149	285.98
328.603	250.88
329.058	311.73
329.512	257.9
329.966	300.03
330.421	285.98
330.875	267.26
331.329	236.83
331.783	300.03
332.237	278.96
332.691	271.94
333.145	323.43
333.599	297.69
334.053	307.05
334.507	281.3
334.96	274.28
335.414	257.9
335.868	276.62
336.321	304.71
336.775	302.37
337.228	293.01
337.682	267.26
338.135	323.43
338.588	318.75
339.042	297.69
339.495	274.28
339.948	314.07
340.401	276.62
340.854	246.2
341.307	281.3
341.76	335.14
342.213	281.3
342.666	374.92
343.119	297.69
343.571	330.45
344.024	314.07
344.477	297.69
344.929	269.6
345.382	365.56
345.834	269.6
346.287	332.79
346.739	360.88
347.191	360.88
347.644	293.01
348.096	276.62
348.548	356.2
349	337.48
349.452	323.43
349.904	325.77
350.356	281.3
350.808	330.45
351.26	307.05
351.711	356.2
352.163	328.11
352.615	358.54
353.066	339.82
353.518	300.03
353.969	316.41
354.421	358.54
354.872	307.05
355.324	335.14
355.775	264.92
356.226	300.03
356.677	288.32
357.128	300.03
357.579	304.71
358.03	293.01
358.481	316.41
358.932	290.67
359.383	283.64
359.834	342.16
360.285	321.09
360.735	257.9
361.186	283.64
361.637	274.28
362.087	290.67
362.538	335.14
362.988	309.39
363.438	386.63
363.889	278.96
364.339	302.37
364.789	304.71
365.239	321.09
365.689	302.37
366.139	360.88
366.589	330.45
367.039	337.48
367.489	260.24
367.939	297.69
368.389	323.43
368.839	269.6
369.288	311.73
369.738	309.39
370.187	271.94
370.637	388.97
371.086	276.62
371.536	208.75
371.985	307.05
372.434	250.88
372.884	290.67
373.333	215.77
373.782	349.18
374.231	253.22
374.68	332.79
375.129	297.69
375.578	330.45
376.027	246.2
376.475	236.83
376.924	337.48
377.373	337.48
377.822	297.69
378.27	288.32
378.719	367.9
379.167	297.69
379.616	307.05
380.064	267.26
380.512	248.54
380.961	353.86
381.409	384.29
381.857	328.11
382.305	243.85
382.753	318.75
383.201	285.98
383.649	353.86
384.097	377.27
384.545	288.32
384.992	344.5
385.44	328.11
385.888	314.07
386.335	307.05
386.783	318.75
387.231	290.67
387.678	307.05
388.125	314.07
388.573	290.67
389.02	283.64
389.467	274.28
389.914	332.79
390.362	309.39
390.809	321.09
391.256	316.41
391.703	353.86
392.15	323.43
392.596	349.18
393.043	260.24
393.49	342.16
393.937	300.03
394.383	337.48
394.83	274.28
395.276	337.48
395.723	300.03
396.169	339.82
396.616	274.28
397.062	278.96
397.508	283.64
397.954	213.43
398.401	395.99
398.847	353.86
399.293	304.71
399.739	363.22
400.185	374.92
400.631	264.92
401.076	337.48
401.522	332.79
401.968	295.35
402.414	316.41
402.859	395.99
403.305	264.92
403.75	281.3
404.196	285.98
404.641	332.79
405.086	311.73
405.532	311.73
405.977	330.45
406.422	365.56
406.867	314.07
407.312	264.92
407.757	363.22
408.202	288.32
408.647	297.69
409.092	281.3
409.537	307.05
409.982	360.88
410.426	314.07
410.871	295.35
411.316	288.32
411.76	323.43
412.205	351.52
412.649	332.79
413.093	323.43
413.538	398.33
413.982	285.98
414.426	342.16
414.87	309.39
415.314	304.71
415.758	360.88
416.202	346.84
416.646	295.35
417.09	293.01
417.534	370.24
417.978	271.94
418.421	307.05
418.865	323.43
419.309	264.92
419.752	300.03
420.196	316.41
420.639	337.48
421.083	309.39
421.526	302.37
421.969	236.83
422.412	290.67
422.856	321.09
423.299	386.63
423.742	349.18
424.185	311.73
424.628	353.86
425.071	358.54
425.513	349.18
425.956	302.37
426.399	321.09
426.842	304.71
427.284	297.69
427.727	307.05
428.169	325.77
428.612	311.73
429.054	318.75
429.497	276.62
429.939	253.22
430.381	309.39
430.823	246.2
431.265	250.88
431.707	281.3
432.149	246.2
432.591	321.09
433.033	311.73
433.475	300.03
433.917	283.64
434.359	344.5
434.8	311.73
435.242	283.64
435.684	363.22
436.125	311.73
436.567	351.52
437.008	307.05
437.449	325.77
437.891	337.48
438.332	288.32
438.773	229.81
439.214	337.48
439.656	337.48
440.097	293.01
440.538	360.88
440.978	332.79
441.419	311.73
441.86	264.92
442.301	278.96
442.742	290.67
443.182	300.03
443.623	339.82
444.063	335.14
444.504	271.94
444.944	283.64
445.385	311.73
445.825	311.73
446.265	351.52
446.706	264.92
447.146	335.14
447.586	335.14
448.026	330.45
448.466	309.39
448.906	321.09
449.346	360.88
449.786	342.16
450.225	316.41
450.665	278.96
451.105	283.64
451.544	323.43
451.984	290.67
452.424	337.48
452.863	262.58
453.302	297.69
453.742	323.43
454.181	302.37
454.62	293.01
455.059	325.77
455.499	328.11
455.938	220.45
456.377	246.2
456.816	278.96
457.254	328.11
457.693	302.37
458.132	304.71
458.571	325.77
459.01	407.69
459.448	307.05
459.887	297.69
460.325	346.84
460.764	323.43
461.202	337.48
461.641	285.98
462.079	300.03
462.517	316.41
462.955	295.35
463.393	260.24
463.832	328.11
464.27	335.14
464.708	309.39
465.145	271.94
465.583	314.07
466.021	344.5
466.459	407.69
466.897	260.24
467.334	311.73
467.772	253.22
468.209	304.71
468.647	267.26
469.084	262.58
469.522	321.09
469.959	307.05
470.396	356.2
470.833	295.35
471.271	344.5
471.708	307.05
472.145	267.26
472.582	302.37
473.019	295.35
473.456	276.62
473.892	346.84
474.329	314.07
474.766	321.09
475.202	271.94
475.639	304.71
476.076	325.77
476.512	318.75
476.949	307.05
477.385	344.5
477.821	281.3
478.258	295.35
478.694	311.73
479.13	332.79
479.566	290.67
480.002	283.64
480.438	323.43
480.874	293.01
481.31	332.79
481.746	302.37
482.181	316.41
482.617	262.58
483.053	311.73
483.488	337.48
483.924	339.82
484.36	342.16
484.795	246.2
485.23	358.54
485.666	335.14
486.101	283.64
486.536	300.03
486.971	302.37
487.407	274.28
487.842	365.56
488.277	325.77
488.712	335.14
489.146	297.69
489.581	255.56
490.016	246.2
490.451	346.84
490.885	285.98
491.32	239.17
491.755	335.14
492.189	381.95
492.624	293.01
493.058	314.07
493.492	300.03
493.927	267.26
494.361	318.75
494.795	293.01
495.229	309.39
495.663	311.73
496.097	328.11
496.531	288.32
496.965	330.45
497.399	311.73
497.833	260.24
498.266	316.41
498.7	285.98
499.134	278.96
499.567	353.86
500.001	360.88
500.434	351.52
500.868	323.43
501.301	370.24
501.734	253.22
502.168	285.98
502.601	262.58
503.034	351.52
503.467	332.79
503.9	316.41
504.333	318.75
504.766	335.14
505.199	318.75
505.632	309.39
506.064	314.07
506.497	321.09
506.93	356.2
507.362	339.82
507.795	307.05
508.227	314.07
508.66	330.45
509.092	264.92
509.524	395.99
509.956	346.84
510.389	356.2
510.821	321.09
511.253	278.96
511.685	218.11
512.117	307.05
512.549	250.88
512.981	246.2
513.412	351.52
513.844	353.86
514.276	300.03
514.707	257.9
515.139	283.64
515.571	328.11
516.002	393.65
516.433	339.82
516.865	295.35
517.296	278.96
517.727	335.14
518.159	302.37
518.59	372.58
519.021	332.79
519.452	290.67
519.883	300.03
520.314	339.82
520.744	332.79
521.175	281.3
521.606	307.05
522.037	311.73
522.467	321.09
522.898	328.11
523.328	255.56
523.759	271.94
524.189	283.64
524.62	316.41
525.05	302.37
525.48	250.88
525.91	339.82
526.341	269.6
526.771	360.88
527.201	260.24
527.631	276.62
528.061	283.64
528.49	243.85
528.92	346.84
529.35	342.16
529.78	370.24
530.209	250.88
530.639	283.64
531.068	269.6
531.498	295.35
531.927	243.85
532.357	360.88
532.786	330.45
533.215	300.03
533.644	290.67
534.074	316.41
534.503	271.94
534.932	297.69
535.361	344.5
535.79	288.32
536.218	337.48
536.647	288.32
537.076	290.67
537.505	351.52
537.933	276.62
538.362	307.05
538.79	314.07
539.219	325.77
539.647	314.07
540.076	351.52
540.504	309.39
540.932	271.94
541.36	300.03
541.788	318.75
542.217	257.9
542.645	283.64
543.073	288.32
543.5	278.96
543.928	349.18
544.356	379.61
544.784	358.54
545.211	295.35
545.639	323.43
546.067	330.45
546.494	323.43
546.922	325.77
547.349	281.3
547.776	407.69
548.204	367.9
548.631	309.39
549.058	309.39
549.485	349.18
549.912	267.26
550.339	316.41
550.766	316.41
551.193	330.45
551.62	344.5
552.047	337.48
552.474	285.98
552.9	309.39
553.327	349.18
553.754	300.03
554.18	363.22
554.607	314.07
555.033	274.28
555.459	349.18
555.886	339.82
556.312	346.84
556.738	253.22
557.164	264.92
557.59	344.5
558.016	302.37
558.442	325.77
558.868	330.45
559.294	335.14
559.72	332.79
560.145	288.32
560.571	323.43
560.997	302.37
561.422	314.07
561.848	295.35
562.273	332.79
562.699	365.56
563.124	288.32
563.549	304.71
563.974	295.35
564.4	243.85
564.825	288.32
565.25	295.35
565.675	290.67
566.1	337.48
566.525	255.56
566.95	267.26
567.374	281.3
567.799	316.41
568.224	325.77
568.648	372.58
569.073	309.39
569.497	353.86
569.922	337.48
570.346	332.79
570.771	318.75
571.195	330.45
571.619	342.16
572.043	325.77
572.467	318.75
572.891	330.45
573.315	344.5
573.739	351.52
574.163	337.48
574.587	330.45
575.011	330.45
575.435	267.26
575.858	323.43
576.282	288.32
576.705	293.01
577.129	400.67
577.552	290.67
577.976	351.52
578.399	295.35
578.822	330.45
579.245	267.26
579.669	307.05
580.092	332.79
580.515	346.84
580.938	274.28
581.361	314.07
581.784	300.03
582.206	257.9
582.629	264.92
583.052	335.14
583.474	271.94
583.897	372.58
584.32	332.79
584.742	307.05
585.165	332.79
585.587	297.69
586.009	314.07
586.431	300.03
586.854	285.98
587.276	332.79
587.698	318.75
588.12	300.03
588.542	321.09
588.964	300.03
589.386	323.43
589.807	335.14
590.229	344.5
590.651	321.09
591.073	386.63
591.494	285.98
591.916	314.07
592.337	276.62
592.759	250.88
593.18	372.58
593.601	290.67
594.022	304.71
594.444	300.03
594.865	290.67
595.286	300.03
595.707	269.6
596.128	356.2
596.549	339.82
596.97	358.54
597.39	288.32
597.811	323.43
598.232	311.73
598.652	325.77
599.073	325.77
599.494	332.79
599.914	314.07
600.334	297.69
600.755	337.48
601.175	314.07
601.595	323.43
602.015	271.94
602.436	234.49
602.856	466.21
603.276	309.39
603.696	304.71
604.115	358.54
604.535	316.41
604.955	351.52
605.375	386.63
605.794	356.2
606.214	335.14
606.634	285.98
607.053	332.79
607.473	405.35
607.892	349.18
608.311	328.11
608.731	342.16
609.15	337.48
609.569	349.18
609.988	363.22
610.407	302.37
610.826	290.67
611.245	339.82
611.664	316.41
612.083	262.58
612.501	274.28
612.92	325.77
613.339	335.14
613.757	370.24
614.176	293.01
614.594	283.64
615.013	314.07
615.431	318.75
615.85	314.07
616.268	325.77
616.686	288.32
617.104	295.35
617.522	288.32
617.94	248.54
618.358	243.85
618.776	384.29
619.194	328.11
619.612	374.92
620.03	300.03
620.447	297.69
620.865	316.41
621.282	330.45
621.7	358.54
622.117	349.18
622.535	285.98
622.952	323.43
623.369	278.96
623.787	307.05
624.204	311.73
624.621	300.03
625.038	267.26
625.455	243.85
625.872	342.16
626.289	311.73
626.706	349.18
627.123	374.92
627.539	335.14
627.956	332.79
628.373	278.96
628.789	302.37
629.206	330.45
629.622	323.43
630.038	285.98
630.455	290.67
630.871	325.77
631.287	344.5
631.703	295.35
632.12	248.54
632.536	269.6
632.952	328.11
633.368	257.9
633.783	267.26
634.199	309.39
634.615	328.11
635.031	288.32
635.446	351.52
635.862	365.56
636.277	325.77
636.693	344.5
637.108	323.43
637.524	332.79
637.939	307.05
638.354	304.71
638.77	309.39
639.185	314.07
639.6	281.3
640.015	328.11
640.43	328.11
640.845	278.96
641.259	318.75
641.674	274.28
642.089	269.6
642.504	283.64
642.918	318.75
643.333	264.92
643.747	316.41
644.162	281.3
644.576	297.69
644.991	264.92
645.405	367.9
645.819	281.3
646.233	307.05
646.647	281.3
647.061	264.92
647.475	321.09
647.889	232.15
648.303	337.48
648.717	288.32
649.131	321.09
649.545	297.69
649.958	314.07
650.372	283.64
650.785	318.75
651.199	330.45
651.612	262.58
652.026	281.3
652.439	325.77
652.852	316.41
653.266	293.01
653.679	307.05
654.092	335.14
654.505	309.39
654.918	276.62
655.331	335.14
655.744	300.03
656.156	337.48
656.569	316.41
656.982	360.88
657.394	318.75
657.807	297.69
658.22	297.69
658.632	332.79
659.044	271.94
659.457	264.92
659.869	351.52
660.281	285.98
660.693	309.39
661.106	311.73
661.518	307.05
661.93	267.26
662.342	318.75
662.754	283.64
663.165	395.99
663.577	262.58
663.989	337.48
664.401	283.64
664.812	339.82
665.224	325.77
665.635	264.92
666.047	260.24
666.458	339.82
666.869	321.09
667.281	328.11
667.692	307.05
668.103	351.52
668.514	316.41
668.925	302.37
669.336	372.58
669.747	262.58
670.158	323.43
670.569	281.3
670.979	335.14
671.39	271.94
671.801	278.96
672.211	304.71
672.622	274.28
673.032	309.39
673.443	274.28
673.853	346.84
674.263	323.43
674.674	377.27
675.084	297.69
675.494	335.14
675.904	311.73
676.314	314.07
676.724	278.96
677.134	295.35
677.544	379.61
677.953	335.14
678.363	309.39
678.773	388.97
679.182	304.71
679.592	304.71
680.001	323.43
680.411	353.86
680.82	323.43
681.23	271.94
681.639	300.03
682.048	267.26
682.457	342.16
682.866	253.22
683.275	278.96
683.684	302.37
684.093	285.98
684.502	318.75
684.911	302.37
685.32	271.94
685.728	246.2
686.137	323.43
686.546	274.28
686.954	321.09
687.363	269.6
687.771	283.64
688.179	281.3
688.588	316.41
688.996	330.45
689.404	290.67
689.812	367.9
690.22	260.24
690.628	304.71
691.036	246.2
691.444	316.41
691.852	302.37
692.26	356.2
692.667	370.24
693.075	353.86
693.483	323.43
693.89	274.28
694.298	297.69
694.705	346.84
695.112	314.07
695.52	346.84
695.927	274.28
696.334	337.48
696.741	321.09
697.148	300.03
697.555	321.09
697.962	293.01
698.369	330.45
698.776	260.24
699.183	335.14
699.59	335.14
699.996	293.01
700.403	283.64
700.81	276.62
701.216	356.2
701.623	300.03
702.029	297.69
702.435	335.14
702.842	276.62
703.248	283.64
703.654	316.41
704.06	267.26
704.466	314.07
704.872	225.13
705.278	297.69
705.684	234.49
706.09	281.3
706.496	225.13
706.901	349.18
707.307	271.94
707.712	288.32
708.118	316.41
708.523	316.41
708.929	344.5
709.334	288.32
709.74	309.39
710.145	271.94
710.55	328.11
710.955	337.48
711.36	332.79
711.765	297.69
712.17	344.5
712.575	330.45
712.98	807.92
713.385	323.43
713.789	332.79
714.194	290.67
714.599	288.32
715.003	321.09
715.408	285.98
715.812	262.58
716.217	302.37
716.621	220.45
717.025	307.05
717.429	332.79
717.833	274.28
718.238	274.28
718.642	323.43
719.046	304.71
719.449	314.07
719.853	311.73
720.257	260.24
720.661	314.07
721.065	267.26
721.468	323.43
721.872	307.05
722.275	337.48
722.679	267.26
723.082	281.3
723.485	328.11
723.889	314.07
724.292	307.05
724.695	304.71
725.098	293.01
725.501	302.37
725.904	351.52
726.307	304.71
726.71	276.62
727.113	278.96
727.516	339.82
727.918	332.79
728.321	267.26
728.724	304.71
729.126	281.3
729.529	311.73
729.931	314.07
730.333	271.94
730.736	318.75
731.138	213.43
731.54	293.01
731.942	267.26
732.344	302.37
732.746	302.37
733.148	314.07
733.55	260.24
733.952	314.07
734.354	297.69
734.756	283.64
735.157	276.62
735.559	295.35
735.96	290.67
736.362	267.26
736.763	293.01
737.165	365.56
737.566	351.52
737.967	335.14
738.368	323.43
738.77	349.18
739.171	339.82
739.572	328.11
739.973	300.03
740.374	309.39
740.774	288.32
741.175	316.41
741.576	293.01
741.977	264.92
742.377	307.05
742.778	370.24
743.178	318.75
743.579	307.05
743.979	311.73
744.379	309.39
744.78	290.67
745.18	311.73
745.58	295.35
745.98	274.28
746.38	311.73
746.78	353.86
747.18	372.58
747.58	323.43
747.98	316.41
748.38	381.95
748.779	300.03
749.179	309.39
749.578	304.71
749.978	285.98
750.377	281.3
750.777	232.15
751.176	311.73
751.575	276.62
751.975	281.3
752.374	227.47
752.773	276.62
753.172	302.37
753.571	267.26
753.97	321.09
754.369	297.69
754.768	243.85
755.166	321.09
755.565	271.94
755.964	353.86
756.362	351.52
756.761	339.82
757.159	330.45
757.558	316.41
757.956	285.98
758.354	356.2
758.753	316.41
759.151	311.73
759.549	318.75
759.947	295.35
760.345	335.14
760.743	323.43
761.141	236.83
761.539	283.64
761.936	290.67
762.334	398.33
762.732	304.71
763.129	307.05
763.527	316.41
763.924	349.18
764.322	351.52
764.719	360.88
765.117	304.71
765.514	337.48
765.911	297.69
766.308	300.03
766.705	323.43
767.102	281.3
767.499	311.73
767.896	332.79
768.293	302.37
768.69	300.03
769.086	307.05
769.483	297.69
769.88	267.26
770.276	297.69
770.673	325.77
771.069	332.79
771.466	295.35
771.862	323.43
772.258	318.75
772.654	370.24
773.05	271.94
773.447	281.3
773.843	332.79
774.239	241.51
774.634	234.49
775.03	363.22
775.426	335.14
775.822	351.52
776.218	337.48
776.613	339.82
777.009	318.75
777.404	281.3
777.8	300.03
778.195	307.05
778.59	269.6
778.986	283.64
779.381	255.56
779.776	274.28
780.171	290.67
780.566	281.3
780.961	307.05
781.356	339.82
781.751	297.69
782.146	349.18
782.54	302.37
782.935	285.98
783.33	293.01
783.724	290.67
784.119	330.45
784.513	344.5
784.908	314.07
785.302	307.05
785.696	278.96
786.09	311.73
786.485	290.67
786.879	379.61
787.273	304.71
787.667	281.3
788.061	353.86
788.454	325.77
788.848	290.67
789.242	309.39
789.636	316.41
790.029	271.94
790.423	314.07
790.816	288.32
791.21	321.09
791.603	328.11
791.997	274.28
792.39	290.67
792.783	388.97
793.176	288.32
793.569	325.77
793.962	335.14
794.355	349.18
794.748	360.88
795.141	276.62
795.534	328.11
795.927	304.71
796.319	227.47
796.712	309.39
797.105	318.75
797.497	339.82
797.89	370.24
798.282	264.92
798.674	349.18
799.067	335.14
799.459	274.28
799.851	309.39
800.243	363.22
800.635	363.22
801.027	262.58
801.419	325.77
801.811	344.5
802.203	332.79
802.594	290.67
802.986	288.32
803.378	271.94
803.769	300.03
804.161	290.67
804.552	264.92
804.944	304.71
805.335	367.9
805.726	316.41
806.118	358.54
806.509	391.31
806.9	309.39
807.291	293.01
807.682	309.39
808.073	283.64
808.464	262.58
808.855	321.09
809.245	363.22
809.636	274.28
810.027	264.92
810.417	339.82
810.808	344.5
811.198	314.07
811.589	283.64
811.979	353.86
812.369	293.01
812.759	360.88
813.15	243.85
813.54	335.14
813.93	337.48
814.32	316.41
814.71	323.43
815.1	307.05
815.489	314.07
815.879	339.82
816.269	351.52
816.658	290.67
817.048	337.48
817.438	384.29
817.827	297.69
818.216	346.84
818.606	330.45
818.995	353.86
819.384	288.32
819.773	323.43
820.163	330.45
820.552	367.9
820.941	379.61
821.33	285.98
821.718	351.52
822.107	269.6
822.496	288.32
822.885	314.07
823.273	271.94
823.662	276.62
824.05	356.2
824.439	323.43
824.827	309.39
825.216	222.79
825.604	337.48
825.992	278.96
826.38	267.26
826.768	264.92
827.156	328.11
827.544	330.45
827.932	351.52
828.32	295.35
828.708	269.6
829.096	325.77
829.483	311.73
829.871	370.24
830.259	314.07
830.646	365.56
831.034	281.3
831.421	367.9
831.808	314.07
832.196	300.03
832.583	307.05
832.97	307.05
833.357	307.05
833.744	360.88
834.131	269.6
834.518	351.52
834.905	300.03
835.292	309.39
835.678	285.98
836.065	332.79
836.452	360.88
836.838	316.41
837.225	344.5
837.611	243.85
837.998	332.79
838.384	290.67
838.77	271.94
839.157	337.48
839.543	325.77
839.929	276.62
840.315	307.05
840.701	349.18
841.087	325.77
841.473	290.67
841.858	351.52
842.244	271.94
842.63	302.37
843.015	290.67
843.401	578.55
843.787	323.43
844.172	283.64
844.557	335.14
844.943	250.88
845.328	215.77
845.713	290.67
846.098	278.96
846.483	290.67
846.868	314.07
847.253	283.64
847.638	278.96
848.023	248.54
848.408	241.51
848.793	267.26
849.177	288.32
849.562	290.67
849.947	342.16
850.331	267.26
850.715	211.09
851.1	309.39
851.484	297.69
851.868	314.07
852.253	351.52
852.637	234.49
853.021	293.01
853.405	253.22
853.789	309.39
854.173	342.16
854.557	302.37
854.94	293.01
855.324	344.5
855.708	307.05
856.091	314.07
856.475	330.45
856.858	222.79
857.242	271.94
857.625	337.48
858.009	285.98
858.392	293.01
858.775	318.75
859.158	344.5
859.541	297.69
859.924	300.03
860.307	330.45
860.69	344.5
861.073	323.43
861.456	257.9
861.838	353.86
862.221	283.64
862.604	295.35
862.986	271.94
863.369	271.94
863.751	290.67
864.133	297.69
864.516	295.35
864.898	232.15
865.28	293.01
865.662	335.14
866.044	337.48
866.426	300.03
866.808	328.11
867.19	358.54
867.572	337.48
867.954	250.88
868.336	293.01
868.717	269.6
869.099	321.09
869.48	307.05
869.862	285.98
870.243	283.64
870.625	285.98
871.006	330.45
871.387	304.71
871.768	300.03
872.149	269.6
872.53	295.35
872.911	269.6
873.292	314.07
873.673	297.69
874.054	243.85
874.435	295.35
874.815	412.37
875.196	314.07
875.577	328.11
875.957	330.45
876.338	314.07
876.718	339.82
877.098	332.79
877.479	325.77
877.859	316.41
878.239	281.3
878.619	321.09
878.999	346.84
879.379	323.43
879.759	276.62
880.139	307.05
880.519	335.14
880.898	293.01
881.278	285.98
881.658	337.48
882.037	290.67
882.417	379.61
882.796	339.82
883.176	342.16
883.555	269.6
883.934	353.86
884.313	328.11
884.693	339.82
885.072	271.94
885.451	267.26
885.83	243.85
886.209	204.07
886.587	288.32
886.966	316.41
887.345	323.43
887.724	353.86
888.102	342.16
888.481	267.26
888.859	309.39
889.238	314.07
889.616	318.75
889.994	248.54
890.373	271.94
890.751	283.64
891.129	318.75
891.507	381.95
891.885	309.39
892.263	278.96
892.641	260.24
893.019	288.32
893.396	257.9
893.774	335.14
894.152	290.67
894.529	342.16
894.907	271.94
895.284	257.9
895.662	243.85
896.039	293.01
896.416	328.11
896.794	274.28
897.171	323.43
897.548	321.09
897.925	344.5
898.302	260.24
898.679	297.69
899.056	337.48
899.433	213.43
899.809	323.43
900.186	318.75
900.563	285.98
900.939	367.9
901.316	323.43
901.692	309.39
902.069	293.01
902.445	323.43
902.821	311.73
903.197	295.35
903.574	278.96
903.95	344.5
904.326	262.58
904.702	288.32
905.078	234.49
905.454	285.98
905.829	281.3
906.205	335.14
906.581	328.11
906.956	335.14
907.332	276.62
907.707	330.45
908.083	328.11
908.458	274.28
908.833	281.3
909.209	351.52
909.584	325.77
909.959	297.69
910.334	311.73
910.709	311.73
911.084	300.03
911.459	304.71
911.834	262.58
912.209	288.32
912.583	325.77
912.958	302.37
913.333	201.72
913.707	316.41
914.082	267.26
914.456	323.43
914.83	297.69
915.205	360.88
915.579	318.75
915.953	356.2
916.327	314.07
916.701	323.43
917.075	346.84
917.449	344.5
917.823	288.32
918.197	304.71
918.571	285.98
918.944	363.22
919.318	304.71
919.692	370.24
920.065	309.39
920.438	304.71
920.812	271.94
921.185	281.3
921.558	271.94
921.932	302.37
922.305	295.35
922.678	377.27
923.051	330.45
923.424	274.28
923.797	325.77
924.17	323.43
924.542	358.54
924.915	260.24
925.288	339.82
925.661	318.75
926.033	309.39
926.406	269.6
926.778	271.94
927.15	302.37
927.523	274.28
927.895	302.37
928.267	257.9
928.639	330.45
929.011	325.77
929.383	358.54
929.755	335.14
930.127	318.75
930.499	363.22
930.871	309.39
931.242	311.73
931.614	285.98
931.986	288.32
932.357	314.07
932.729	283.64
933.1	321.09
933.471	332.79
933.843	225.13
934.214	379.61
934.585	325.77
934.956	264.92
935.327	290.67
935.698	335.14
936.069	309.39
936.44	332.79
936.811	311.73
937.182	316.41
937.552	276.62
937.923	307.05
938.293	370.24
938.664	372.58
939.034	276.62
939.405	262.58
939.775	234.49
940.145	257.9
940.516	351.52
940.886	276.62
941.256	316.41
941.626	264.92
941.996	281.3
942.366	323.43
942.735	300.03
943.105	309.39
943.475	344.5
943.845	311.73
944.214	374.92
944.584	307.05
944.953	250.88
945.323	267.26
945.692	321.09
946.061	372.58
946.43	290.67
946.8	318.75
947.169	290.67
947.538	307.05
947.907	379.61
948.276	330.45
948.645	260.24
949.013	278.96
949.382	318.75
949.751	257.9
950.119	307.05
950.488	374.92
950.857	318.75
951.225	274.28
951.593	309.39
951.962	318.75
952.33	227.47
952.698	274.28
953.066	353.86
953.434	307.05
953.802	260.24
954.17	293.01
954.538	260.24
954.906	337.48
955.274	304.71
955.642	295.35
956.009	344.5
956.377	309.39
956.744	330.45
957.112	346.84
957.479	309.39
957.847	262.58
958.214	321.09
958.581	358.54
958.948	297.69
959.315	278.96
959.683	386.63
960.05	339.82
960.416	321.09
960.783	271.94
961.15	267.26
961.517	269.6
961.884	307.05
962.25	250.88
962.617	330.45
962.983	332.79
963.35	285.98
963.716	300.03
964.082	248.54
964.449	278.96
964.815	276.62
965.181	295.35
965.547	302.37
965.913	290.67
966.279	281.3
966.645	346.84
967.011	295.35
967.377	363.22
967.742	283.64
968.108	325.77
968.474	325.77
968.839	290.67
969.205	342.16
969.57	269.6
969.935	314.07
970.301	262.58
970.666	269.6
971.031	262.58
971.396	365.56
971.761	337.48
972.126	264.92
972.491	346.84
972.856	325.77
973.221	264.92
973.586	288.32
973.95	307.05
974.315	269.6
974.679	281.3
975.044	307.05
975.408	276.62
975.773	300.03
976.137	346.84
976.501	358.54
976.866	243.85
977.23	318.75
977.594	311.73
977.958	288.32
978.322	260.24
978.686	283.64
979.049	335.14
979.413	302.37
979.777	332.79
980.141	346.84
980.504	330.45
980.868	295.35
981.231	302.37
981.595	332.79
981.958	236.83
982.321	372.58
982.684	323.43
983.048	264.92
983.411	346.84
983.774	264.92
984.137	314.07
984.5	351.52
984.862	283.64
985.225	311.73
985.588	321.09
985.951	276.62
986.313	323.43
986.676	311.73
987.038	330.45
987.401	260.24
987.763	285.98
988.125	342.16
988.488	339.82
988.85	264.92
989.212	365.56
989.574	351.52
989.936	257.9
990.298	307.05
990.66	302.37
991.022	255.56
991.383	267.26
991.745	257.9
992.107	351.52
992.468	335.14
992.83	311.73
993.191	360.88
993.553	379.61
993.914	332.79
994.275	267.26
994.637	293.01
994.998	332.79
995.359	300.03
995.72	314.07
996.081	285.98
996.442	307.05
996.803	276.62
997.163	307.05
997.524	304.71
997.885	248.54
998.245	285.98
998.606	285.98
998.966	332.79
999.327	290.67
999.687	276.62
1000.047	304.71
1000.408	300.03
1000.768	239.17
1001.128	274.28
1001.488	281.3
1001.848	323.43
1002.208	339.82
1002.568	342.16
1002.927	321.09
1003.287	288.32
1003.647	342.16
1004.007	274.28
1004.366	295.35
1004.726	293.01
1005.085	365.56
1005.444	281.3
1005.804	321.09
1006.163	365.56
1006.522	293.01
1006.881	255.56
1007.24	316.41
1007.599	283.64
1007.958	311.73
1008.317	330.45
1008.676	386.63
1009.035	285.98
1009.393	321.09
1009.752	293.01
1010.111	264.92
1010.469	288.32
1010.828	211.09
1011.186	316.41
1011.544	293.01
1011.903	264.92
1012.261	281.3
1012.619	267.26
1012.977	281.3
1013.335	316.41
1013.693	293.01
1014.051	283.64
1014.409	346.84
1014.767	302.37
1015.124	295.35
1015.482	321.09
1015.84	339.82
1016.197	307.05
1016.555	264.92
1016.912	267.26
1017.269	330.45
1017.627	349.18
1017.984	314.07
1018.341	335.14
1018.698	257.9
1019.055	363.22
1019.412	353.86
1019.769	314.07
1020.126	276.62
1020.483	314.07
1020.84	328.11
1021.196	295.35
1021.553	257.9
1021.909	365.56
1022.266	323.43
1022.622	311.73
1022.979	323.43
1023.335	318.75
1023.691	358.54
1024.047	356.2
1024.404	330.45
1024.76	370.24
1025.116	260.24
1025.472	283.64
1025.827	311.73
1026.183	344.5
1026.539	295.35
1026.895	309.39
1027.25	274.28
1027.606	302.37
1027.961	337.48
1028.317	253.22
1028.672	297.69
1029.028	302.37
1029.383	311.73
1029.738	367.9
1030.093	339.82
1030.448	370.24
1030.803	297.69
1031.158	241.51
1031.513	302.37
1031.868	288.32
1032.223	262.58
1032.577	304.71
1032.932	295.35
1033.287	264.92
1033.641	276.62
1033.996	321.09
1034.35	276.62
1034.704	346.84
1035.059	297.69
1035.413	257.9
1035.767	257.9
1036.121	257.9
