Data from Al_FLMS009871__1040__16-25-15-813.txt Node

Date: Fri Mar 08 16:25:15 CST 2024
User: pe5414po
Spectrometer: FLMS00987
Trigger mode: 0
Integration Time (sec): 1.000000E-1
Scans to average: 1
Electric dark correction enabled: true
Nonlinearity correction enabled: false
Boxcar width: 0
XAxis mode: Wavelengths
Number of Pixels in Spectrum: 2048
>>>>>Begin Spectral Data<<<<<
188.938	-65.39
189.409	-65.39
189.879	-65.39
190.349	-112.2
190.819	-107.52
191.29	-121.56
191.76	-56.03
192.23	-39.64
192.7	-140.29
193.17	-58.37
193.64	-70.07
194.109	-23.26
194.579	-67.73
195.049	4.83
195.519	53.98
195.988	30.57
196.458	25.89
196.927	110.15
197.397	82.07
197.866	152.28
198.336	117.17
198.805	147.6
199.274	185.05
199.744	259.95
200.213	215.48
200.682	194.41
201.151	227.18
201.62	217.82
202.089	278.67
202.558	285.69
203.027	231.86
203.495	252.92
203.964	229.52
204.433	302.08
204.902	250.58
205.37	278.67
205.839	257.61
206.307	348.89
206.776	341.86
207.244	306.76
207.712	311.44
208.181	273.99
208.649	295.05
209.117	241.22
209.585	283.35
210.053	341.86
210.521	290.37
210.989	297.39
211.457	330.16
211.925	285.69
212.393	269.31
212.861	309.1
213.328	320.8
213.796	271.65
214.264	269.31
214.731	264.63
215.199	252.92
215.666	304.42
216.133	262.29
216.601	283.35
217.068	266.97
217.535	295.05
218.003	325.48
218.47	299.73
218.937	285.69
219.404	236.54
219.871	306.76
220.338	297.39
220.805	309.1
221.271	227.18
221.738	215.48
222.205	273.99
222.671	250.58
223.138	295.05
223.605	243.56
224.071	299.73
224.538	290.37
225.004	306.76
225.47	250.58
225.937	257.61
226.403	257.61
226.869	276.33
227.335	259.95
227.801	264.63
228.267	236.54
228.733	283.35
229.199	334.84
229.665	236.54
230.131	234.2
230.597	332.5
231.062	229.52
231.528	283.35
231.994	318.46
232.459	313.78
232.925	273.99
233.39	264.63
233.856	295.05
234.321	252.92
234.786	339.52
235.252	309.1
235.717	281.01
236.182	320.8
236.647	323.14
237.112	266.97
237.577	266.97
238.042	252.92
238.507	290.37
238.972	302.08
239.436	320.8
239.901	316.12
240.366	210.79
240.83	210.79
241.295	262.29
241.76	332.5
242.224	283.35
242.688	259.95
243.153	278.67
243.617	266.97
244.081	259.95
244.545	257.61
245.01	269.31
245.474	264.63
245.938	334.84
246.402	297.39
246.866	273.99
247.33	320.8
247.793	318.46
248.257	311.44
248.721	311.44
249.185	281.01
249.648	341.86
250.112	290.37
250.575	243.56
251.039	337.18
251.502	243.56
251.965	250.58
252.429	337.18
252.892	327.82
253.355	276.33
253.818	271.65
254.281	269.31
254.744	257.61
255.207	276.33
255.67	273.99
256.133	313.78
256.596	241.22
257.059	269.31
257.522	320.8
257.984	243.56
258.447	297.39
258.909	259.95
259.372	278.67
259.834	337.18
260.297	332.5
260.759	278.67
261.221	311.44
261.684	278.67
262.146	281.01
262.608	306.76
263.07	241.22
263.532	295.05
263.994	316.12
264.456	281.01
264.918	288.03
265.38	292.71
265.842	302.08
266.303	259.95
266.765	266.97
267.227	292.71
267.688	309.1
268.15	309.1
268.611	306.76
269.072	292.71
269.534	309.1
269.995	215.48
270.456	304.42
270.918	381.65
271.379	323.14
271.84	248.24
272.301	234.2
272.762	311.44
273.223	288.03
273.684	311.44
274.144	297.39
274.605	327.82
275.066	238.88
275.527	208.45
275.987	266.97
276.448	259.95
276.908	271.65
277.369	306.76
277.829	309.1
278.289	245.9
278.75	320.8
279.21	295.05
279.67	334.84
280.13	299.73
280.59	271.65
281.05	318.46
281.51	236.54
281.97	353.57
282.43	318.46
282.89	271.65
283.35	332.5
283.809	295.05
284.269	348.89
284.729	271.65
285.188	271.65
285.648	217.82
286.107	273.99
286.567	276.33
287.026	285.69
287.485	295.05
287.944	252.92
288.404	323.14
288.863	292.71
289.322	358.25
289.781	320.8
290.24	313.78
290.699	273.99
291.158	299.73
291.616	295.05
292.075	290.37
292.534	278.67
292.992	257.61
293.451	360.59
293.91	283.35
294.368	295.05
294.827	358.25
295.285	245.9
295.743	316.12
296.202	304.42
296.66	320.8
297.118	318.46
297.576	318.46
298.034	348.89
298.492	316.12
298.95	318.46
299.408	351.23
299.866	355.91
300.324	327.82
300.781	306.76
301.239	332.5
301.697	259.95
302.154	341.86
302.612	299.73
303.069	278.67
303.527	273.99
303.984	358.25
304.441	306.76
304.899	271.65
305.356	316.12
305.813	304.42
306.27	327.82
306.727	250.58
307.184	318.46
307.641	273.99
308.098	325.48
308.555	346.55
309.012	353.57
309.468	355.91
309.925	262.29
310.382	269.31
310.838	332.5
311.295	273.99
311.751	281.01
312.208	313.78
312.664	339.52
313.12	297.39
313.577	355.91
314.033	407.4
314.489	325.48
314.945	295.05
315.401	339.52
315.857	341.86
316.313	362.93
316.769	306.76
317.225	348.89
317.681	360.59
318.136	288.03
318.592	344.21
319.048	283.35
319.503	281.01
319.959	278.67
320.414	259.95
320.869	330.16
321.325	276.33
321.78	243.56
322.235	297.39
322.691	362.93
323.146	327.82
323.601	273.99
324.056	243.56
324.511	325.48
324.966	283.35
325.421	243.56
325.875	266.97
326.33	295.05
326.785	330.16
327.24	252.92
327.694	285.69
328.149	334.84
328.603	339.52
329.058	281.01
329.512	299.73
329.966	259.95
330.421	292.71
330.875	304.42
331.329	266.97
331.783	318.46
332.237	302.08
332.691	313.78
333.145	250.58
333.599	311.44
334.053	365.27
334.507	262.29
334.96	306.76
335.414	372.29
335.868	304.42
336.321	281.01
336.775	285.69
337.228	339.52
337.682	288.03
338.135	302.08
338.588	323.14
339.042	348.89
339.495	327.82
339.948	302.08
340.401	220.16
340.854	358.25
341.307	276.33
341.76	341.86
342.213	355.91
342.666	288.03
343.119	383.99
343.571	278.67
344.024	302.08
344.477	299.73
344.929	320.8
345.382	318.46
345.834	330.16
346.287	290.37
346.739	295.05
347.191	271.65
347.644	337.18
348.096	355.91
348.548	327.82
349	348.89
349.452	285.69
349.904	290.37
350.356	327.82
350.808	351.23
351.26	262.29
351.711	325.48
352.163	248.24
352.615	323.14
353.066	302.08
353.518	346.55
353.969	273.99
354.421	391.02
354.872	330.16
355.324	229.52
355.775	323.14
356.226	295.05
356.677	320.8
357.128	295.05
357.579	306.76
358.03	367.61
358.481	306.76
358.932	323.14
359.383	330.16
359.834	325.48
360.285	192.07
360.735	344.21
361.186	306.76
361.637	318.46
362.087	259.95
362.538	339.52
362.988	311.44
363.438	292.71
363.889	337.18
364.339	311.44
364.789	323.14
365.239	318.46
365.689	313.78
366.139	393.36
366.589	318.46
367.039	306.76
367.489	332.5
367.939	325.48
368.389	341.86
368.839	360.59
369.288	278.67
369.738	362.93
370.187	334.84
370.637	339.52
371.086	344.21
371.536	358.25
371.985	297.39
372.434	367.61
372.884	313.78
373.333	358.25
373.782	304.42
374.231	306.76
374.68	318.46
375.129	362.93
375.578	327.82
376.027	320.8
376.475	325.48
376.924	304.42
377.373	292.71
377.822	281.01
378.27	341.86
378.719	334.84
379.167	353.57
379.616	379.31
380.064	323.14
380.512	302.08
380.961	288.03
381.409	386.33
381.857	311.44
382.305	273.99
382.753	309.1
383.201	320.8
383.649	290.37
384.097	295.05
384.545	276.33
384.992	295.05
385.44	346.55
385.888	276.33
386.335	306.76
386.783	273.99
387.231	297.39
387.678	355.91
388.125	334.84
388.573	264.63
389.02	355.91
389.467	288.03
389.914	257.61
390.362	367.61
390.809	369.95
391.256	327.82
391.703	344.21
392.15	320.8
392.596	351.23
393.043	334.84
393.49	285.69
393.937	302.08
394.383	309.1
394.83	339.52
395.276	358.25
395.723	288.03
396.169	351.23
396.616	360.59
397.062	341.86
397.508	290.37
397.954	376.97
398.401	320.8
398.847	278.67
399.293	297.39
399.739	346.55
400.185	276.33
400.631	304.42
401.076	330.16
401.522	358.25
401.968	355.91
402.414	358.25
402.859	306.76
403.305	365.27
403.75	365.27
404.196	224.84
404.641	327.82
405.086	278.67
405.532	309.1
405.977	299.73
406.422	271.65
406.867	248.24
407.312	311.44
407.757	337.18
408.202	355.91
408.647	299.73
409.092	292.71
409.537	295.05
409.982	313.78
410.426	369.95
410.871	304.42
411.316	290.37
411.76	292.71
412.205	334.84
412.649	292.71
413.093	241.22
413.538	369.95
413.982	290.37
414.426	353.57
414.87	383.99
415.314	325.48
415.758	362.93
416.202	318.46
416.646	376.97
417.09	351.23
417.534	269.31
417.978	330.16
418.421	266.97
418.865	276.33
419.309	330.16
419.752	367.61
420.196	346.55
420.639	297.39
421.083	330.16
421.526	290.37
421.969	360.59
422.412	360.59
422.856	367.61
423.299	295.05
423.742	276.33
424.185	306.76
424.628	330.16
425.071	346.55
425.513	316.12
425.956	353.57
426.399	330.16
426.842	304.42
427.284	337.18
427.727	391.02
428.169	306.76
428.612	295.05
429.054	325.48
429.497	243.56
429.939	367.61
430.381	320.8
430.823	306.76
431.265	316.12
431.707	295.05
432.149	299.73
432.591	313.78
433.033	362.93
433.475	372.29
433.917	376.97
434.359	355.91
434.8	292.71
435.242	334.84
435.684	302.08
436.125	323.14
436.567	332.5
437.008	318.46
437.449	339.52
437.891	323.14
438.332	320.8
438.773	278.67
439.214	327.82
439.656	327.82
440.097	273.99
440.538	290.37
440.978	320.8
441.419	299.73
441.86	309.1
442.301	295.05
442.742	266.97
443.182	309.1
443.623	290.37
444.063	337.18
444.504	255.26
444.944	320.8
445.385	332.5
445.825	271.65
446.265	332.5
446.706	351.23
447.146	355.91
447.586	372.29
448.026	304.42
448.466	358.25
448.906	283.35
449.346	332.5
449.786	273.99
450.225	353.57
450.665	369.95
451.105	323.14
451.544	316.12
451.984	299.73
452.424	320.8
452.863	297.39
453.302	292.71
453.742	311.44
454.181	295.05
454.62	369.95
455.059	311.44
455.499	285.69
455.938	318.46
456.377	269.31
456.816	334.84
457.254	323.14
457.693	372.29
458.132	276.33
458.571	283.35
459.01	259.95
459.448	316.12
459.887	292.71
460.325	250.58
460.764	346.55
461.202	241.22
461.641	348.89
462.079	374.63
462.517	259.95
462.955	360.59
463.393	288.03
463.832	276.33
464.27	281.01
464.708	353.57
465.145	362.93
465.583	339.52
466.021	330.16
466.459	379.31
466.897	320.8
467.334	306.76
467.772	295.05
468.209	262.29
468.647	278.67
469.084	341.86
469.522	316.12
469.959	297.39
470.396	374.63
470.833	358.25
471.271	330.16
471.708	241.22
472.145	381.65
472.582	393.36
473.019	309.1
473.456	323.14
473.892	386.33
474.329	288.03
474.766	351.23
475.202	257.61
475.639	376.97
476.076	276.33
476.512	334.84
476.949	283.35
477.385	344.21
477.821	369.95
478.258	334.84
478.694	306.76
479.13	346.55
479.566	316.12
480.002	348.89
480.438	339.52
480.874	273.99
481.31	327.82
481.746	376.97
482.181	360.59
482.617	337.18
483.053	379.31
483.488	323.14
483.924	337.18
484.36	344.21
484.795	346.55
485.23	330.16
485.666	344.21
486.101	313.78
486.536	306.76
486.971	248.24
487.407	304.42
487.842	311.44
488.277	297.39
488.712	330.16
489.146	334.84
489.581	358.25
490.016	369.95
490.451	367.61
490.885	369.95
491.32	269.31
491.755	271.65
492.189	269.31
492.624	402.72
493.058	297.39
493.492	344.21
493.927	323.14
494.361	367.61
494.795	369.95
495.229	344.21
495.663	264.63
496.097	264.63
496.531	295.05
496.965	297.39
497.399	255.26
497.833	332.5
498.266	309.1
498.7	358.25
499.134	283.35
499.567	365.27
500.001	264.63
500.434	327.82
500.868	266.97
501.301	257.61
501.734	285.69
502.168	299.73
502.601	346.55
503.034	362.93
503.467	292.71
503.9	367.61
504.333	341.86
504.766	313.78
505.199	353.57
505.632	299.73
506.064	332.5
506.497	330.16
506.93	316.12
507.362	400.38
507.795	327.82
508.227	316.12
508.66	327.82
509.092	269.31
509.524	288.03
509.956	276.33
510.389	358.25
510.821	299.73
511.253	339.52
511.685	320.8
512.117	311.44
512.549	388.68
512.981	313.78
513.412	360.59
513.844	351.23
514.276	299.73
514.707	320.8
515.139	348.89
515.571	288.03
516.002	348.89
516.433	355.91
516.865	313.78
517.296	295.05
517.727	325.48
518.159	318.46
518.59	290.37
519.021	288.03
519.452	320.8
519.883	311.44
520.314	290.37
520.744	299.73
521.175	334.84
521.606	285.69
522.037	318.46
522.467	299.73
522.898	393.36
523.328	306.76
523.759	264.63
524.189	309.1
524.62	337.18
525.05	290.37
525.48	372.29
525.91	304.42
526.341	332.5
526.771	393.36
527.201	327.82
527.631	311.44
528.061	264.63
528.49	325.48
528.92	304.42
529.35	323.14
529.78	318.46
530.209	257.61
530.639	348.89
531.068	367.61
531.498	297.39
531.927	365.27
532.357	283.35
532.786	299.73
533.215	285.69
533.644	288.03
534.074	355.91
534.503	360.59
534.932	271.65
535.361	358.25
535.79	311.44
536.218	374.63
536.647	311.44
537.076	309.1
537.505	304.42
537.933	318.46
538.362	402.72
538.79	290.37
539.219	346.55
539.647	316.12
540.076	290.37
540.504	323.14
540.932	313.78
541.36	266.97
541.788	362.93
542.217	355.91
542.645	273.99
543.073	339.52
543.5	288.03
543.928	250.58
544.356	355.91
544.784	313.78
545.211	271.65
545.639	334.84
546.067	381.65
546.494	313.78
546.922	395.7
547.349	285.69
547.776	353.57
548.204	302.08
548.631	259.95
549.058	262.29
549.485	316.12
549.912	367.61
550.339	360.59
550.766	264.63
551.193	276.33
551.62	320.8
552.047	309.1
552.474	245.9
552.9	327.82
553.327	339.52
553.754	266.97
554.18	313.78
554.607	318.46
555.033	337.18
555.459	304.42
555.886	302.08
556.312	330.16
556.738	379.31
557.164	332.5
557.59	344.21
558.016	257.61
558.442	327.82
558.868	414.42
559.294	320.8
559.72	330.16
560.145	367.61
560.571	337.18
560.997	290.37
561.422	295.05
561.848	337.18
562.273	369.95
562.699	313.78
563.124	337.18
563.549	311.44
563.974	351.23
564.4	311.44
564.825	334.84
565.25	238.88
565.675	295.05
566.1	306.76
566.525	318.46
566.95	339.52
567.374	269.31
567.799	273.99
568.224	320.8
568.648	309.1
569.073	360.59
569.497	325.48
569.922	304.42
570.346	248.24
570.771	337.18
571.195	325.48
571.619	311.44
572.043	334.84
572.467	362.93
572.891	234.2
573.315	316.12
573.739	276.33
574.163	320.8
574.587	306.76
575.011	281.01
575.435	353.57
575.858	273.99
576.282	327.82
576.705	278.67
577.129	295.05
577.552	288.03
577.976	281.01
578.399	327.82
578.822	255.26
579.245	395.7
579.669	306.76
580.092	299.73
580.515	351.23
580.938	327.82
581.361	309.1
581.784	297.39
582.206	351.23
582.629	344.21
583.052	248.24
583.474	285.69
583.897	325.48
584.32	320.8
584.742	358.25
585.165	311.44
585.587	316.12
586.009	306.76
586.431	327.82
586.854	252.92
587.276	318.46
587.698	339.52
588.12	292.71
588.542	266.97
588.964	327.82
589.386	341.86
589.807	262.29
590.229	299.73
590.651	316.12
591.073	341.86
591.494	302.08
591.916	290.37
592.337	285.69
592.759	400.38
593.18	362.93
593.601	346.55
594.022	327.82
594.444	283.35
594.865	348.89
595.286	311.44
595.707	341.86
596.128	318.46
596.549	290.37
596.97	323.14
597.39	304.42
597.811	376.97
598.232	313.78
598.652	337.18
599.073	348.89
599.494	306.76
599.914	323.14
600.334	283.35
600.755	313.78
601.175	327.82
601.595	316.12
602.015	311.44
602.436	299.73
602.856	451.87
603.276	327.82
603.696	376.97
604.115	332.5
604.535	266.97
604.955	337.18
605.375	295.05
605.794	379.31
606.214	278.67
606.634	330.16
607.053	295.05
607.473	334.84
607.892	348.89
608.311	362.93
608.731	276.33
609.15	339.52
609.569	362.93
609.988	360.59
610.407	292.71
610.826	367.61
611.245	346.55
611.664	297.39
612.083	339.52
612.501	285.69
612.92	304.42
613.339	271.65
613.757	311.44
614.176	304.42
614.594	316.12
615.013	325.48
615.431	327.82
615.85	346.55
616.268	372.29
616.686	325.48
617.104	344.21
617.522	379.31
617.94	295.05
618.358	334.84
618.776	278.67
619.194	288.03
619.612	278.67
620.03	302.08
620.447	348.89
620.865	348.89
621.282	306.76
621.7	339.52
622.117	285.69
622.535	295.05
622.952	299.73
623.369	334.84
623.787	281.01
624.204	273.99
624.621	311.44
625.038	309.1
625.455	344.21
625.872	346.55
626.289	281.01
626.706	323.14
627.123	295.05
627.539	278.67
627.956	304.42
628.373	341.86
628.789	250.58
629.206	302.08
629.622	320.8
630.038	302.08
630.455	358.25
630.871	334.84
631.287	271.65
631.703	295.05
632.12	323.14
632.536	332.5
632.952	395.7
633.368	257.61
633.783	311.44
634.199	325.48
634.615	292.71
635.031	323.14
635.446	362.93
635.862	379.31
636.277	330.16
636.693	374.63
637.108	325.48
637.524	362.93
637.939	372.29
638.354	337.18
638.77	290.37
639.185	320.8
639.6	353.57
640.015	348.89
640.43	332.5
640.845	337.18
641.259	341.86
641.674	292.71
642.089	299.73
642.504	297.39
642.918	299.73
643.333	348.89
643.747	252.92
644.162	299.73
644.576	344.21
644.991	440.17
645.405	337.18
645.819	309.1
646.233	295.05
646.647	311.44
647.061	327.82
647.475	290.37
647.889	318.46
648.303	283.35
648.717	234.2
649.131	341.86
649.545	337.18
649.958	346.55
650.372	337.18
650.785	252.92
651.199	334.84
651.612	332.5
652.026	388.68
652.439	304.42
652.852	318.46
653.266	306.76
653.679	302.08
654.092	362.93
654.505	297.39
654.918	337.18
655.331	311.44
655.744	323.14
656.156	334.84
656.569	320.8
656.982	351.23
657.394	341.86
657.807	372.29
658.22	264.63
658.632	341.86
659.044	353.57
659.457	348.89
659.869	306.76
660.281	355.91
660.693	330.16
661.106	405.06
661.518	341.86
661.93	283.35
662.342	304.42
662.754	309.1
663.165	290.37
663.577	306.76
663.989	323.14
664.401	367.61
664.812	323.14
665.224	327.82
665.635	353.57
666.047	316.12
666.458	360.59
666.869	358.25
667.281	383.99
667.692	306.76
668.103	362.93
668.514	316.12
668.925	341.86
669.336	355.91
669.747	306.76
670.158	292.71
670.569	311.44
670.979	344.21
671.39	383.99
671.801	273.99
672.211	285.69
672.622	360.59
673.032	348.89
673.443	304.42
673.853	304.42
674.263	358.25
674.674	348.89
675.084	285.69
675.494	283.35
675.904	311.44
676.314	355.91
676.724	295.05
677.134	358.25
677.544	299.73
677.953	332.5
678.363	318.46
678.773	344.21
679.182	421.44
679.592	313.78
680.001	297.39
680.411	351.23
680.82	316.12
681.23	285.69
681.639	348.89
682.048	297.39
682.457	278.67
682.866	269.31
683.275	269.31
683.684	234.2
684.093	325.48
684.502	391.02
684.911	325.48
685.32	292.71
685.728	346.55
686.137	353.57
686.546	306.76
686.954	362.93
687.363	341.86
687.771	299.73
688.179	320.8
688.588	358.25
688.996	250.58
689.404	311.44
689.812	238.88
690.22	295.05
690.628	346.55
691.036	372.29
691.444	351.23
691.852	311.44
692.26	334.84
692.667	281.01
693.075	362.93
693.483	334.84
693.89	346.55
694.298	273.99
694.705	346.55
695.112	353.57
695.52	320.8
695.927	337.18
696.334	332.5
696.741	290.37
697.148	273.99
697.555	337.18
697.962	299.73
698.369	203.77
698.776	318.46
699.183	360.59
699.59	360.59
699.996	313.78
700.403	288.03
700.81	313.78
701.216	306.76
701.623	302.08
702.029	311.44
702.435	306.76
702.842	325.48
703.248	311.44
703.654	318.46
704.06	346.55
704.466	297.39
704.872	278.67
705.278	341.86
705.684	323.14
706.09	332.5
706.496	320.8
706.901	353.57
707.307	339.52
707.712	241.22
708.118	339.52
708.523	341.86
708.929	348.89
709.334	323.14
709.74	259.95
710.145	304.42
710.55	292.71
710.955	309.1
711.36	325.48
711.765	273.99
712.17	400.38
712.575	318.46
712.98	814.65
713.385	367.61
713.789	234.2
714.194	330.16
714.599	323.14
715.003	341.86
715.408	271.65
715.812	323.14
716.217	346.55
716.621	273.99
717.025	330.16
717.429	346.55
717.833	292.71
718.238	299.73
718.642	257.61
719.046	337.18
719.449	309.1
719.853	355.91
720.257	332.5
720.661	334.84
721.065	327.82
721.468	281.01
721.872	276.33
722.275	320.8
722.679	259.95
723.082	285.69
723.485	337.18
723.889	255.26
724.292	313.78
724.695	325.48
725.098	339.52
725.501	266.97
725.904	318.46
726.307	316.12
726.71	316.12
727.113	323.14
727.516	302.08
727.918	369.95
728.321	372.29
728.724	302.08
729.126	311.44
729.529	318.46
729.931	334.84
730.333	320.8
730.736	341.86
731.138	360.59
731.54	290.37
731.942	362.93
732.344	369.95
732.746	311.44
733.148	334.84
733.55	327.82
733.952	362.93
734.354	269.31
734.756	355.91
735.157	320.8
735.559	341.86
735.96	339.52
736.362	386.33
736.763	351.23
737.165	313.78
737.566	325.48
737.967	290.37
738.368	290.37
738.77	320.8
739.171	259.95
739.572	311.44
739.973	276.33
740.374	332.5
740.774	379.31
741.175	297.39
741.576	276.33
741.977	241.22
742.377	330.16
742.778	330.16
743.178	316.12
743.579	316.12
743.979	292.71
744.379	313.78
744.78	351.23
745.18	325.48
745.58	297.39
745.98	271.65
746.38	358.25
746.78	339.52
747.18	358.25
747.58	302.08
747.98	290.37
748.38	276.33
748.779	346.55
749.179	313.78
749.578	234.2
749.978	238.88
750.377	288.03
750.777	257.61
751.176	302.08
751.575	337.18
751.975	259.95
752.374	320.8
752.773	222.5
753.172	276.33
753.571	388.68
753.97	339.52
754.369	257.61
754.768	292.71
755.166	302.08
755.565	339.52
755.964	266.97
756.362	269.31
756.761	332.5
757.159	299.73
757.558	323.14
757.956	339.52
758.354	311.44
758.753	320.8
759.151	295.05
759.549	311.44
759.947	346.55
760.345	327.82
760.743	341.86
761.141	353.57
761.539	327.82
761.936	313.78
762.334	309.1
762.732	292.71
763.129	325.48
763.527	299.73
763.924	325.48
764.322	337.18
764.719	337.18
765.117	311.44
765.514	299.73
765.911	330.16
766.308	332.5
766.705	337.18
767.102	323.14
767.499	281.01
767.896	243.56
768.293	344.21
768.69	304.42
769.086	302.08
769.483	327.82
769.88	309.1
770.276	325.48
770.673	325.48
771.069	365.27
771.466	276.33
771.862	313.78
772.258	316.12
772.654	358.25
773.05	290.37
773.447	250.58
773.843	302.08
774.239	306.76
774.634	323.14
775.03	327.82
775.426	409.74
775.822	299.73
776.218	227.18
776.613	306.76
777.009	323.14
777.404	320.8
777.8	313.78
778.195	290.37
778.59	264.63
778.986	302.08
779.381	346.55
779.776	362.93
780.171	257.61
780.566	295.05
780.961	290.37
781.356	309.1
781.751	302.08
782.146	353.57
782.54	362.93
782.935	299.73
783.33	369.95
783.724	351.23
784.119	344.21
784.513	320.8
784.908	313.78
785.302	344.21
785.696	330.16
786.09	316.12
786.485	323.14
786.879	292.71
787.273	316.12
787.667	337.18
788.061	316.12
788.454	302.08
788.848	309.1
789.242	348.89
789.636	252.92
790.029	330.16
790.423	290.37
790.816	290.37
791.21	290.37
791.603	295.05
791.997	276.33
792.39	285.69
792.783	365.27
793.176	346.55
793.569	297.39
793.962	316.12
794.355	297.39
794.748	313.78
795.141	285.69
795.534	334.84
795.927	306.76
796.319	283.35
796.712	320.8
797.105	292.71
797.497	297.39
797.89	367.61
798.282	313.78
798.674	332.5
799.067	323.14
799.459	334.84
799.851	304.42
800.243	330.16
800.635	283.35
801.027	302.08
801.419	264.63
801.811	320.8
802.203	369.95
802.594	309.1
802.986	374.63
803.378	248.24
803.769	295.05
804.161	250.58
804.552	323.14
804.944	271.65
805.335	339.52
805.726	311.44
806.118	320.8
806.509	297.39
806.9	290.37
807.291	295.05
807.682	271.65
808.073	416.76
808.464	306.76
808.855	318.46
809.245	292.71
809.636	271.65
810.027	297.39
810.417	297.39
810.808	327.82
811.198	323.14
811.589	351.23
811.979	391.02
812.369	311.44
812.759	309.1
813.15	316.12
813.54	311.44
813.93	358.25
814.32	346.55
814.71	360.59
815.1	348.89
815.489	332.5
815.879	215.48
816.269	271.65
816.658	358.25
817.048	313.78
817.438	334.84
817.827	281.01
818.216	309.1
818.606	337.18
818.995	339.52
819.384	288.03
819.773	341.86
820.163	360.59
820.552	309.1
820.941	290.37
821.33	273.99
821.718	325.48
822.107	250.58
822.496	323.14
822.885	374.63
823.273	327.82
823.662	344.21
824.05	339.52
824.439	320.8
824.827	304.42
825.216	252.92
825.604	302.08
825.992	327.82
826.38	360.59
826.768	255.26
827.156	252.92
827.544	313.78
827.932	346.55
828.32	320.8
828.708	355.91
829.096	243.56
829.483	292.71
829.871	327.82
830.259	318.46
830.646	318.46
831.034	346.55
831.421	318.46
831.808	337.18
832.196	266.97
832.583	276.33
832.97	285.69
833.357	313.78
833.744	332.5
834.131	334.84
834.518	330.16
834.905	386.33
835.292	316.12
835.678	316.12
836.065	344.21
836.452	332.5
836.838	313.78
837.225	348.89
837.611	334.84
837.998	297.39
838.384	334.84
838.77	316.12
839.157	276.33
839.543	269.31
839.929	325.48
840.315	297.39
840.701	302.08
841.087	320.8
841.473	292.71
841.858	231.86
842.244	353.57
842.63	285.69
843.015	281.01
843.401	636.77
843.787	325.48
844.172	311.44
844.557	330.16
844.943	313.78
845.328	332.5
845.713	330.16
846.098	304.42
846.483	323.14
846.868	348.89
847.253	334.84
847.638	304.42
848.023	334.84
848.408	297.39
848.793	257.61
849.177	320.8
849.562	273.99
849.947	339.52
850.331	311.44
850.715	302.08
851.1	206.11
851.484	327.82
851.868	327.82
852.253	285.69
852.637	285.69
853.021	313.78
853.405	313.78
853.789	309.1
854.173	353.57
854.557	353.57
854.94	325.48
855.324	316.12
855.708	323.14
856.091	372.29
856.475	236.54
856.858	344.21
857.242	353.57
857.625	339.52
858.009	283.35
858.392	299.73
858.775	306.76
859.158	269.31
859.541	351.23
859.924	304.42
860.307	248.24
860.69	367.61
861.073	320.8
861.456	348.89
861.838	297.39
862.221	311.44
862.604	351.23
862.986	323.14
863.369	337.18
863.751	372.29
864.133	332.5
864.516	334.84
864.898	320.8
865.28	332.5
865.662	316.12
866.044	306.76
866.426	302.08
866.808	327.82
867.19	367.61
867.572	367.61
867.954	302.08
868.336	313.78
868.717	285.69
869.099	365.27
869.48	224.84
869.862	355.91
870.243	302.08
870.625	344.21
871.006	281.01
871.387	323.14
871.768	332.5
872.149	304.42
872.53	325.48
872.911	299.73
873.292	292.71
873.673	306.76
874.054	278.67
874.435	292.71
874.815	299.73
875.196	337.18
875.577	255.26
875.957	344.21
876.338	332.5
876.718	355.91
877.098	337.18
877.479	332.5
877.859	330.16
878.239	348.89
878.619	332.5
878.999	346.55
879.379	297.39
879.759	374.63
880.139	323.14
880.519	358.25
880.898	332.5
881.278	339.52
881.658	337.18
882.037	278.67
882.417	271.65
882.796	381.65
883.176	271.65
883.555	290.37
883.934	344.21
884.313	299.73
884.693	264.63
885.072	323.14
885.451	374.63
885.83	344.21
886.209	285.69
886.587	285.69
886.966	316.12
887.345	323.14
887.724	292.71
888.102	330.16
888.481	302.08
888.859	245.9
889.238	311.44
889.616	365.27
889.994	360.59
890.373	295.05
890.751	304.42
891.129	290.37
891.507	327.82
891.885	297.39
892.263	278.67
892.641	344.21
893.019	295.05
893.396	341.86
893.774	325.48
894.152	283.35
894.529	297.39
894.907	292.71
895.284	297.39
895.662	353.57
896.039	252.92
896.416	330.16
896.794	318.46
897.171	297.39
897.548	297.39
897.925	304.42
898.302	252.92
898.679	327.82
899.056	405.06
899.433	283.35
899.809	302.08
900.186	332.5
900.563	365.27
900.939	337.18
901.316	369.95
901.692	266.97
902.069	306.76
902.445	290.37
902.821	266.97
903.197	302.08
903.574	264.63
903.95	325.48
904.326	313.78
904.702	245.9
905.078	309.1
905.454	374.63
905.829	273.99
906.205	283.35
906.581	337.18
906.956	299.73
907.332	337.18
907.707	313.78
908.083	295.05
908.458	252.92
908.833	313.78
909.209	295.05
909.584	316.12
909.959	311.44
910.334	299.73
910.709	367.61
911.084	316.12
911.459	320.8
911.834	341.86
912.209	229.52
912.583	318.46
912.958	316.12
913.333	318.46
913.707	292.71
914.082	391.02
914.456	341.86
914.83	372.29
915.205	332.5
915.579	248.24
915.953	283.35
916.327	320.8
916.701	278.67
917.075	306.76
917.449	222.5
917.823	281.01
918.197	281.01
918.571	273.99
918.944	330.16
919.318	311.44
919.692	332.5
920.065	327.82
920.438	257.61
920.812	295.05
921.185	285.69
921.558	358.25
921.932	285.69
922.305	353.57
922.678	330.16
923.051	302.08
923.424	304.42
923.797	391.02
924.17	330.16
924.542	299.73
924.915	341.86
925.288	292.71
925.661	302.08
926.033	243.56
926.406	346.55
926.778	292.71
927.15	323.14
927.523	341.86
927.895	355.91
928.267	276.33
928.639	346.55
929.011	344.21
929.383	320.8
929.755	281.01
930.127	325.48
930.499	295.05
930.871	278.67
931.242	281.01
931.614	360.59
931.986	330.16
932.357	325.48
932.729	311.44
933.1	276.33
933.471	278.67
933.843	285.69
934.214	386.33
934.585	388.68
934.956	316.12
935.327	292.71
935.698	283.35
936.069	313.78
936.44	316.12
936.811	358.25
937.182	346.55
937.552	355.91
937.923	269.31
938.293	306.76
938.664	318.46
939.034	355.91
939.405	374.63
939.775	325.48
940.145	339.52
940.516	337.18
940.886	299.73
941.256	318.46
941.626	278.67
941.996	337.18
942.366	290.37
942.735	304.42
943.105	266.97
943.475	269.31
943.845	299.73
944.214	257.61
944.584	292.71
944.953	316.12
945.323	330.16
945.692	309.1
946.061	348.89
946.43	290.37
946.8	269.31
947.169	290.37
947.538	271.65
947.907	327.82
948.276	323.14
948.645	259.95
949.013	337.18
949.382	351.23
949.751	262.29
950.119	344.21
950.488	297.39
950.857	295.05
951.225	376.97
951.593	252.92
951.962	292.71
952.33	297.39
952.698	302.08
953.066	299.73
953.434	309.1
953.802	360.59
954.17	311.44
954.538	276.33
954.906	309.1
955.274	257.61
955.642	278.67
956.009	299.73
956.377	302.08
956.744	215.48
957.112	316.12
957.479	344.21
957.847	309.1
958.214	262.29
958.581	351.23
958.948	339.52
959.315	348.89
959.683	374.63
960.05	365.27
960.416	367.61
960.783	304.42
961.15	257.61
961.517	337.18
961.884	281.01
962.25	285.69
962.617	311.44
962.983	367.61
963.35	365.27
963.716	285.69
964.082	334.84
964.449	281.01
964.815	346.55
965.181	337.18
965.547	339.52
965.913	362.93
966.279	337.18
966.645	323.14
967.011	295.05
967.377	313.78
967.742	395.7
968.108	276.33
968.474	316.12
968.839	292.71
969.205	348.89
969.57	257.61
969.935	302.08
970.301	306.76
970.666	332.5
971.031	341.86
971.396	330.16
971.761	318.46
972.126	320.8
972.491	297.39
972.856	264.63
973.221	271.65
973.586	323.14
973.95	337.18
974.315	316.12
974.679	337.18
975.044	257.61
975.408	320.8
975.773	290.37
976.137	241.22
976.501	257.61
976.866	259.95
977.23	327.82
977.594	304.42
977.958	316.12
978.322	302.08
978.686	269.31
979.049	327.82
979.413	292.71
979.777	273.99
980.141	299.73
980.504	311.44
980.868	313.78
981.231	276.33
981.595	276.33
981.958	351.23
982.321	309.1
982.684	339.52
983.048	311.44
983.411	348.89
983.774	325.48
984.137	295.05
984.5	309.1
984.862	355.91
985.225	309.1
985.588	297.39
985.951	269.31
986.313	285.69
986.676	313.78
987.038	290.37
987.401	316.12
987.763	348.89
988.125	288.03
988.488	325.48
988.85	327.82
989.212	264.63
989.574	318.46
989.936	297.39
990.298	348.89
990.66	262.29
991.022	337.18
991.383	351.23
991.745	330.16
992.107	309.1
992.468	295.05
992.83	309.1
993.191	311.44
993.553	355.91
993.914	299.73
994.275	339.52
994.637	332.5
994.998	365.27
995.359	304.42
995.72	271.65
996.081	309.1
996.442	288.03
996.803	304.42
997.163	330.16
997.524	327.82
997.885	271.65
998.245	241.22
998.606	353.57
998.966	299.73
999.327	299.73
999.687	285.69
1000.047	278.67
1000.408	269.31
1000.768	369.95
1001.128	323.14
1001.488	255.26
1001.848	325.48
1002.208	344.21
1002.568	339.52
1002.927	288.03
1003.287	318.46
1003.647	320.8
1004.007	297.39
1004.366	295.05
1004.726	302.08
1005.085	285.69
1005.444	309.1
1005.804	302.08
1006.163	367.61
1006.522	327.82
1006.881	325.48
1007.24	299.73
1007.599	285.69
1007.958	327.82
1008.317	309.1
1008.676	278.67
1009.035	295.05
1009.393	311.44
1009.752	276.33
1010.111	266.97
1010.469	269.31
1010.828	306.76
1011.186	281.01
1011.544	316.12
1011.903	362.93
1012.261	283.35
1012.619	250.58
1012.977	323.14
1013.335	348.89
1013.693	334.84
1014.051	355.91
1014.409	297.39
1014.767	311.44
1015.124	323.14
1015.482	302.08
1015.84	346.55
1016.197	297.39
1016.555	332.5
1016.912	348.89
1017.269	276.33
1017.627	360.59
1017.984	250.58
1018.341	367.61
1018.698	285.69
1019.055	311.44
1019.412	316.12
1019.769	297.39
1020.126	323.14
1020.483	306.76
1020.84	304.42
1021.196	250.58
1021.553	306.76
1021.909	320.8
1022.266	283.35
1022.622	358.25
1022.979	395.7
1023.335	405.06
1023.691	266.97
1024.047	332.5
1024.404	346.55
1024.76	341.86
1025.116	304.42
1025.472	325.48
1025.827	273.99
1026.183	281.01
1026.539	269.31
1026.895	217.82
1027.25	236.54
1027.606	341.86
1027.961	271.65
1028.317	297.39
1028.672	332.5
1029.028	341.86
1029.383	288.03
1029.738	337.18
1030.093	376.97
1030.448	273.99
1030.803	353.57
1031.158	297.39
1031.513	318.46
1031.868	318.46
1032.223	276.33
1032.577	222.5
1032.932	306.76
1033.287	318.46
1033.641	299.73
1033.996	302.08
1034.35	297.39
1034.704	297.39
1035.059	332.5
1035.413	285.69
1035.767	285.69
1036.121	285.69
