Data from Al_FLMS009871__1050__16-25-16-813.txt Node

Date: Fri Mar 08 16:25:16 CST 2024
User: pe5414po
Spectrometer: FLMS00987
Trigger mode: 0
Integration Time (sec): 1.000000E-1
Scans to average: 1
Electric dark correction enabled: true
Nonlinearity correction enabled: false
Boxcar width: 0
XAxis mode: Wavelengths
Number of Pixels in Spectrum: 2048
>>>>>Begin Spectral Data<<<<<
188.938	-32.04
189.409	-32.04
189.879	-32.04
190.349	-135.02
190.819	-88.21
191.29	-88.21
191.76	-109.27
192.23	-64.8
192.7	-97.57
193.17	-55.44
193.64	-36.72
194.109	-81.19
194.579	7.75
195.049	-22.67
195.519	26.48
195.988	12.43
196.458	106.06
196.927	94.35
197.397	66.27
197.866	108.4
198.336	134.14
198.805	138.82
199.274	68.61
199.744	101.37
200.213	169.25
200.682	171.59
201.151	183.29
201.62	265.21
202.089	258.19
202.558	204.36
203.027	218.4
203.495	187.97
203.964	255.85
204.433	230.1
204.902	258.19
205.37	316.7
205.839	297.98
206.307	279.26
206.776	286.28
207.244	276.91
207.712	262.87
208.181	305
208.649	300.32
209.117	333.09
209.585	333.09
210.053	297.98
210.521	295.64
210.989	293.3
211.457	309.68
211.925	272.23
212.393	276.91
212.861	300.32
213.328	246.49
213.796	288.62
214.264	251.17
214.731	248.83
215.199	241.81
215.666	223.08
216.133	253.51
216.601	253.51
217.068	253.51
217.535	253.51
218.003	286.28
218.47	255.85
218.937	307.34
219.404	232.44
219.871	199.68
220.338	248.83
220.805	255.85
221.271	202.02
221.738	239.47
222.205	297.98
222.671	258.19
223.138	227.76
223.605	244.15
224.071	244.15
224.538	220.74
225.004	248.83
225.47	274.57
225.937	246.49
226.403	232.44
226.869	286.28
227.335	276.91
227.801	274.57
228.267	260.53
228.733	272.23
229.199	295.64
229.665	225.42
230.131	237.13
230.597	272.23
231.062	232.44
231.528	305
231.994	255.85
232.459	232.44
232.925	265.21
233.39	258.19
233.856	202.02
234.321	213.72
234.786	276.91
235.252	241.81
235.717	272.23
236.182	248.83
236.647	281.6
237.112	258.19
237.577	258.19
238.042	297.98
238.507	253.51
238.972	279.26
239.436	211.38
239.901	248.83
240.366	206.7
240.83	232.44
241.295	276.91
241.76	258.19
242.224	253.51
242.688	246.49
243.153	258.19
243.617	295.64
244.081	262.87
244.545	232.44
245.01	293.3
245.474	262.87
245.938	276.91
246.402	255.85
246.866	202.02
247.33	260.53
247.793	246.49
248.257	248.83
248.721	279.26
249.185	281.6
249.648	216.06
250.112	241.81
250.575	258.19
251.039	319.04
251.502	283.94
251.965	307.34
252.429	276.91
252.892	239.47
253.355	312.02
253.818	232.44
254.281	225.42
254.744	281.6
255.207	276.91
255.67	237.13
256.133	300.32
256.596	283.94
257.059	251.17
257.522	290.96
257.984	283.94
258.447	274.57
258.909	274.57
259.372	262.87
259.834	279.26
260.297	255.85
260.759	260.53
261.221	274.57
261.684	241.81
262.146	290.96
262.608	260.53
263.07	248.83
263.532	335.43
263.994	244.15
264.456	307.34
264.918	290.96
265.38	319.04
265.842	244.15
266.303	265.21
266.765	314.36
267.227	326.07
267.688	274.57
268.15	283.94
268.611	297.98
269.072	244.15
269.534	290.96
269.995	279.26
270.456	283.94
270.918	295.64
271.379	279.26
271.84	260.53
272.301	305
272.762	232.44
273.223	309.68
273.684	267.55
274.144	333.09
274.605	290.96
275.066	267.55
275.527	209.04
275.987	248.83
276.448	328.41
276.908	316.7
277.369	276.91
277.829	330.75
278.289	248.83
278.75	255.85
279.21	272.23
279.67	262.87
280.13	218.4
280.59	319.04
281.05	335.43
281.51	293.3
281.97	344.79
282.43	274.57
282.89	321.38
283.35	211.38
283.809	302.66
284.269	300.32
284.729	274.57
285.188	302.66
285.648	295.64
286.107	344.79
286.567	316.7
287.026	279.26
287.485	283.94
287.944	300.32
288.404	337.77
288.863	286.28
289.322	262.87
289.781	279.26
290.24	302.66
290.699	349.47
291.158	295.64
291.616	293.3
292.075	267.55
292.534	335.43
292.992	312.02
293.451	309.68
293.91	218.4
294.368	337.77
294.827	258.19
295.285	330.75
295.743	269.89
296.202	326.07
296.66	316.7
297.118	337.77
297.576	316.7
298.034	202.02
298.492	258.19
298.95	239.47
299.408	283.94
299.866	276.91
300.324	286.28
300.781	290.96
301.239	319.04
301.697	246.49
302.154	258.19
302.612	309.68
303.069	255.85
303.527	279.26
303.984	316.7
304.441	272.23
304.899	260.53
305.356	283.94
305.813	248.83
306.27	290.96
306.727	232.44
307.184	276.91
307.641	321.38
308.098	319.04
308.555	260.53
309.012	272.23
309.468	286.28
309.925	246.49
310.382	293.3
310.838	262.87
311.295	316.7
311.751	305
312.208	269.89
312.664	293.3
313.12	274.57
313.577	300.32
314.033	276.91
314.489	290.96
314.945	255.85
315.401	316.7
315.857	269.89
316.313	314.36
316.769	307.34
317.225	330.75
317.681	365.85
318.136	342.45
318.592	244.15
319.048	244.15
319.503	326.07
319.959	297.98
320.414	319.04
320.869	269.89
321.325	260.53
321.78	239.47
322.235	248.83
322.691	279.26
323.146	286.28
323.601	295.64
324.056	286.28
324.511	309.68
324.966	337.77
325.421	347.13
325.875	370.54
326.33	305
326.785	283.94
327.24	269.89
327.694	279.26
328.149	281.6
328.603	328.41
329.058	255.85
329.512	244.15
329.966	351.81
330.421	218.4
330.875	293.3
331.329	227.76
331.783	269.89
332.237	290.96
332.691	302.66
333.145	330.75
333.599	283.94
334.053	347.13
334.507	269.89
334.96	279.26
335.414	297.98
335.868	288.62
336.321	297.98
336.775	309.68
337.228	319.04
337.682	281.6
338.135	244.15
338.588	267.55
339.042	316.7
339.495	330.75
339.948	326.07
340.401	265.21
340.854	300.32
341.307	295.64
341.76	288.62
342.213	328.41
342.666	293.3
343.119	335.43
343.571	300.32
344.024	272.23
344.477	297.98
344.929	279.26
345.382	286.28
345.834	321.38
346.287	293.3
346.739	305
347.191	286.28
347.644	276.91
348.096	330.75
348.548	297.98
349	248.83
349.452	290.96
349.904	300.32
350.356	335.43
350.808	262.87
351.26	300.32
351.711	335.43
352.163	349.47
352.615	323.73
353.066	283.94
353.518	293.3
353.969	309.68
354.421	302.66
354.872	314.36
355.324	260.53
355.775	326.07
356.226	326.07
356.677	312.02
357.128	305
357.579	286.28
358.03	295.64
358.481	290.96
358.932	237.13
359.383	309.68
359.834	305
360.285	319.04
360.735	330.75
361.186	312.02
361.637	386.92
362.087	253.51
362.538	326.07
362.988	316.7
363.438	312.02
363.889	335.43
364.339	255.85
364.789	276.91
365.239	342.45
365.689	354.15
366.139	337.77
366.589	363.51
367.039	309.68
367.489	272.23
367.939	379.9
368.389	335.43
368.839	267.55
369.288	251.17
369.738	269.89
370.187	300.32
370.637	300.32
371.086	342.45
371.536	290.96
371.985	309.68
372.434	316.7
372.884	326.07
373.333	290.96
373.782	302.66
374.231	279.26
374.68	314.36
375.129	272.23
375.578	307.34
376.027	297.98
376.475	281.6
376.924	314.36
377.373	283.94
377.822	300.32
378.27	351.81
378.719	279.26
379.167	300.32
379.616	302.66
380.064	279.26
380.512	276.91
380.961	290.96
381.409	293.3
381.857	293.3
382.305	328.41
382.753	314.36
383.201	302.66
383.649	260.53
384.097	293.3
384.545	316.7
384.992	253.51
385.44	283.94
385.888	290.96
386.335	283.94
386.783	319.04
387.231	269.89
387.678	283.94
388.125	386.92
388.573	288.62
389.02	265.21
389.467	286.28
389.914	358.83
390.362	335.43
390.809	300.32
391.256	288.62
391.703	295.64
392.15	302.66
392.596	361.17
393.043	312.02
393.49	258.19
393.937	295.64
394.383	260.53
394.83	342.45
395.276	283.94
395.723	314.36
396.169	262.87
396.616	300.32
397.062	314.36
397.508	293.3
397.954	272.23
398.401	237.13
398.847	265.21
399.293	267.55
399.739	335.43
400.185	307.34
400.631	316.7
401.076	326.07
401.522	356.49
401.968	319.04
402.414	272.23
402.859	286.28
403.305	286.28
403.75	283.94
404.196	269.89
404.641	255.85
405.086	295.64
405.532	244.15
405.977	363.51
406.422	272.23
406.867	340.11
407.312	356.49
407.757	302.66
408.202	323.73
408.647	293.3
409.092	335.43
409.537	288.62
409.982	260.53
410.426	300.32
410.871	349.47
411.316	333.09
411.76	333.09
412.205	286.28
412.649	288.62
413.093	288.62
413.538	319.04
413.982	262.87
414.426	305
414.87	323.73
415.314	323.73
415.758	260.53
416.202	316.7
416.646	328.41
417.09	389.26
417.534	319.04
417.978	295.64
418.421	290.96
418.865	307.34
419.309	300.32
419.752	354.15
420.196	295.64
420.639	269.89
421.083	300.32
421.526	326.07
421.969	314.36
422.412	234.78
422.856	300.32
423.299	326.07
423.742	286.28
424.185	244.15
424.628	251.17
425.071	279.26
425.513	319.04
425.956	309.68
426.399	316.7
426.842	300.32
427.284	305
427.727	316.7
428.169	288.62
428.612	333.09
429.054	307.34
429.497	351.81
429.939	347.13
430.381	305
430.823	333.09
431.265	319.04
431.707	375.22
432.149	321.38
432.591	286.28
433.033	290.96
433.475	316.7
433.917	330.75
434.359	293.3
434.8	281.6
435.242	330.75
435.684	267.55
436.125	321.38
436.567	321.38
437.008	297.98
437.449	312.02
437.891	342.45
438.332	312.02
438.773	293.3
439.214	309.68
439.656	316.7
440.097	300.32
440.538	199.68
440.978	274.57
441.419	297.98
441.86	295.64
442.301	307.34
442.742	283.94
443.182	354.15
443.623	286.28
444.063	244.15
444.504	314.36
444.944	283.94
445.385	267.55
445.825	309.68
446.265	330.75
446.706	290.96
447.146	340.11
447.586	314.36
448.026	269.89
448.466	274.57
448.906	297.98
449.346	316.7
449.786	309.68
450.225	309.68
450.665	344.79
451.105	276.91
451.544	323.73
451.984	344.79
452.424	344.79
452.863	300.32
453.302	300.32
453.742	309.68
454.181	309.68
454.62	361.17
455.059	288.62
455.499	297.98
455.938	321.38
456.377	288.62
456.816	300.32
457.254	286.28
457.693	342.45
458.132	349.47
458.571	319.04
459.01	358.83
459.448	319.04
459.887	276.91
460.325	283.94
460.764	260.53
461.202	316.7
461.641	349.47
462.079	281.6
462.517	307.34
462.955	248.83
463.393	323.73
463.832	283.94
464.27	316.7
464.708	276.91
465.145	286.28
465.583	323.73
466.021	274.57
466.459	295.64
466.897	305
467.334	328.41
467.772	309.68
468.209	307.34
468.647	267.55
469.084	253.51
469.522	307.34
469.959	293.3
470.396	305
470.833	272.23
471.271	312.02
471.708	286.28
472.145	302.66
472.582	351.81
473.019	354.15
473.456	297.98
473.892	328.41
474.329	283.94
474.766	276.91
475.202	290.96
475.639	258.19
476.076	396.28
476.512	340.11
476.949	319.04
477.385	297.98
477.821	290.96
478.258	316.7
478.694	349.47
479.13	321.38
479.566	286.28
480.002	316.7
480.438	361.17
480.874	377.56
481.31	349.47
481.746	309.68
482.181	333.09
482.617	262.87
483.053	279.26
483.488	354.15
483.924	326.07
484.36	347.13
484.795	321.38
485.23	286.28
485.666	342.45
486.101	272.23
486.536	372.88
486.971	279.26
487.407	309.68
487.842	286.28
488.277	260.53
488.712	309.68
489.146	281.6
489.581	335.43
490.016	333.09
490.451	286.28
490.885	363.51
491.32	297.98
491.755	295.64
492.189	328.41
492.624	276.91
493.058	347.13
493.492	267.55
493.927	276.91
494.361	279.26
494.795	262.87
495.229	297.98
495.663	300.32
496.097	300.32
496.531	328.41
496.965	368.2
497.399	244.15
497.833	302.66
498.266	312.02
498.7	316.7
499.134	368.2
499.567	382.24
500.001	260.53
500.434	330.75
500.868	300.32
501.301	302.66
501.734	342.45
502.168	262.87
502.601	251.17
503.034	316.7
503.467	274.57
503.9	323.73
504.333	288.62
504.766	290.96
505.199	351.81
505.632	340.11
506.064	295.64
506.497	319.04
506.93	302.66
507.362	272.23
507.795	321.38
508.227	295.64
508.66	321.38
509.092	382.24
509.524	255.85
509.956	312.02
510.389	342.45
510.821	269.89
511.253	314.36
511.685	377.56
512.117	279.26
512.549	309.68
512.981	253.51
513.412	290.96
513.844	237.13
514.276	375.22
514.707	386.92
515.139	297.98
515.571	354.15
516.002	344.79
516.433	330.75
516.865	260.53
517.296	309.68
517.727	286.28
518.159	300.32
518.59	326.07
519.021	314.36
519.452	368.2
519.883	393.94
520.314	260.53
520.744	314.36
521.175	314.36
521.606	302.66
522.037	251.17
522.467	290.96
522.898	276.91
523.328	244.15
523.759	283.94
524.189	253.51
524.62	363.51
525.05	305
525.48	297.98
525.91	316.7
526.341	218.4
526.771	248.83
527.201	286.28
527.631	342.45
528.061	295.64
528.49	321.38
528.92	328.41
529.35	323.73
529.78	300.32
530.209	248.83
530.639	288.62
531.068	297.98
531.498	281.6
531.927	288.62
532.357	314.36
532.786	286.28
533.215	328.41
533.644	307.34
534.074	342.45
534.503	342.45
534.932	314.36
535.361	246.49
535.79	323.73
536.218	319.04
536.647	319.04
537.076	295.64
537.505	293.3
537.933	323.73
538.362	372.88
538.79	330.75
539.219	262.87
539.647	335.43
540.076	290.96
540.504	286.28
540.932	297.98
541.36	321.38
541.788	290.96
542.217	279.26
542.645	286.28
543.073	319.04
543.5	302.66
543.928	279.26
544.356	290.96
544.784	276.91
545.211	293.3
545.639	288.62
546.067	262.87
546.494	321.38
546.922	356.49
547.349	344.79
547.776	262.87
548.204	274.57
548.631	241.81
549.058	321.38
549.485	300.32
549.912	260.53
550.339	321.38
550.766	309.68
551.193	297.98
551.62	321.38
552.047	351.81
552.474	330.75
552.9	354.15
553.327	319.04
553.754	312.02
554.18	305
554.607	372.88
555.033	361.17
555.459	251.17
555.886	302.66
556.312	295.64
556.738	248.83
557.164	300.32
557.59	272.23
558.016	293.3
558.442	337.77
558.868	244.15
559.294	237.13
559.72	283.94
560.145	246.49
560.571	293.3
560.997	330.75
561.422	297.98
561.848	241.81
562.273	344.79
562.699	335.43
563.124	330.75
563.549	319.04
563.974	286.28
564.4	305
564.825	328.41
565.25	326.07
565.675	321.38
566.1	281.6
566.525	281.6
566.95	241.81
567.374	248.83
567.799	265.21
568.224	358.83
568.648	349.47
569.073	272.23
569.497	328.41
569.922	255.85
570.346	302.66
570.771	279.26
571.195	288.62
571.619	363.51
572.043	340.11
572.467	335.43
572.891	286.28
573.315	347.13
573.739	276.91
574.163	358.83
574.587	300.32
575.011	342.45
575.435	274.57
575.858	361.17
576.282	297.98
576.705	279.26
577.129	272.23
577.552	232.44
577.976	305
578.399	319.04
578.822	290.96
579.245	340.11
579.669	290.96
580.092	351.81
580.515	288.62
580.938	326.07
581.361	241.81
581.784	321.38
582.206	281.6
582.629	328.41
583.052	262.87
583.474	342.45
583.897	321.38
584.32	302.66
584.742	265.21
585.165	269.89
585.587	309.68
586.009	232.44
586.431	335.43
586.854	265.21
587.276	290.96
587.698	255.85
588.12	305
588.542	267.55
588.964	321.38
589.386	363.51
589.807	326.07
590.229	295.64
590.651	300.32
591.073	326.07
591.494	323.73
591.916	333.09
592.337	347.13
592.759	354.15
593.18	300.32
593.601	253.51
594.022	323.73
594.444	260.53
594.865	309.68
595.286	316.7
595.707	293.3
596.128	393.94
596.549	351.81
596.97	363.51
597.39	342.45
597.811	316.7
598.232	302.66
598.652	319.04
599.073	393.94
599.494	267.55
599.914	248.83
600.334	330.75
600.755	274.57
601.175	307.34
601.595	248.83
602.015	262.87
602.436	297.98
602.856	415.01
603.276	319.04
603.696	361.17
604.115	340.11
604.535	300.32
604.955	260.53
605.375	255.85
605.794	272.23
606.214	297.98
606.634	279.26
607.053	253.51
607.473	260.53
607.892	269.89
608.311	305
608.731	342.45
609.15	288.62
609.569	309.68
609.988	286.28
610.407	262.87
610.826	305
611.245	337.77
611.664	283.94
612.083	351.81
612.501	349.47
612.92	290.96
613.339	274.57
613.757	330.75
614.176	290.96
614.594	302.66
615.013	321.38
615.431	330.75
615.85	344.79
616.268	283.94
616.686	330.75
617.104	321.38
617.522	316.7
617.94	244.15
618.358	312.02
618.776	344.79
619.194	358.83
619.612	286.28
620.03	297.98
620.447	297.98
620.865	328.41
621.282	237.13
621.7	244.15
622.117	272.23
622.535	333.09
622.952	265.21
623.369	302.66
623.787	340.11
624.204	293.3
624.621	309.68
625.038	279.26
625.455	349.47
625.872	321.38
626.289	288.62
626.706	372.88
627.123	290.96
627.539	293.3
627.956	312.02
628.373	300.32
628.789	323.73
629.206	283.94
629.622	307.34
630.038	288.62
630.455	307.34
630.871	323.73
631.287	340.11
631.703	295.64
632.12	337.77
632.536	337.77
632.952	286.28
633.368	321.38
633.783	290.96
634.199	344.79
634.615	293.3
635.031	300.32
635.446	312.02
635.862	297.98
636.277	300.32
636.693	279.26
637.108	354.15
637.524	246.49
637.939	286.28
638.354	302.66
638.77	314.36
639.185	328.41
639.6	316.7
640.015	347.13
640.43	326.07
640.845	309.68
641.259	260.53
641.674	300.32
642.089	265.21
642.504	347.13
642.918	312.02
643.333	337.77
643.747	274.57
644.162	312.02
644.576	288.62
644.991	269.89
645.405	302.66
645.819	316.7
646.233	321.38
646.647	262.87
647.061	356.49
647.475	297.98
647.889	323.73
648.303	279.26
648.717	241.81
649.131	335.43
649.545	276.91
649.958	267.55
650.372	398.62
650.785	323.73
651.199	309.68
651.612	295.64
652.026	234.78
652.439	328.41
652.852	356.49
653.266	330.75
653.679	267.55
654.092	288.62
654.505	349.47
654.918	283.94
655.331	307.34
655.744	290.96
656.156	323.73
656.569	307.34
656.982	260.53
657.394	305
657.807	293.3
658.22	328.41
658.632	337.77
659.044	300.32
659.457	347.13
659.869	274.57
660.281	260.53
660.693	321.38
661.106	269.89
661.518	255.85
661.93	316.7
662.342	356.49
662.754	316.7
663.165	305
663.577	312.02
663.989	361.17
664.401	321.38
664.812	309.68
665.224	342.45
665.635	312.02
666.047	323.73
666.458	255.85
666.869	326.07
667.281	295.64
667.692	316.7
668.103	347.13
668.514	368.2
668.925	300.32
669.336	342.45
669.747	309.68
670.158	363.51
670.569	288.62
670.979	288.62
671.39	323.73
671.801	279.26
672.211	319.04
672.622	206.7
673.032	262.87
673.443	286.28
673.853	365.85
674.263	302.66
674.674	358.83
675.084	316.7
675.494	267.55
675.904	316.7
676.314	283.94
676.724	344.79
677.134	286.28
677.544	295.64
677.953	267.55
678.363	335.43
678.773	319.04
679.182	379.9
679.592	337.77
680.001	295.64
680.411	281.6
680.82	302.66
681.23	361.17
681.639	251.17
682.048	276.91
682.457	288.62
682.866	283.94
683.275	262.87
683.684	258.19
684.093	305
684.502	267.55
684.911	241.81
685.32	297.98
685.728	328.41
686.137	309.68
686.546	202.02
686.954	347.13
687.363	290.96
687.771	316.7
688.179	302.66
688.588	342.45
688.996	297.98
689.404	326.07
689.812	300.32
690.22	358.83
690.628	295.64
691.036	295.64
691.444	272.23
691.852	288.62
692.26	326.07
692.667	281.6
693.075	333.09
693.483	307.34
693.89	309.68
694.298	356.49
694.705	307.34
695.112	305
695.52	281.6
695.927	293.3
696.334	302.66
696.741	281.6
697.148	300.32
697.555	307.34
697.962	321.38
698.369	279.26
698.776	251.17
699.183	251.17
699.59	272.23
699.996	391.6
700.403	347.13
700.81	365.85
701.216	272.23
701.623	312.02
702.029	272.23
702.435	340.11
702.842	340.11
703.248	279.26
703.654	283.94
704.06	269.89
704.466	283.94
704.872	326.07
705.278	220.74
705.684	246.49
706.09	328.41
706.496	316.7
706.901	281.6
707.307	323.73
707.712	283.94
708.118	335.43
708.523	286.28
708.929	358.83
709.334	267.55
709.74	349.47
710.145	323.73
710.55	309.68
710.955	293.3
711.36	262.87
711.765	283.94
712.17	305
712.575	358.83
712.98	728.64
713.385	372.88
713.789	307.34
714.194	281.6
714.599	312.02
715.003	295.64
715.408	290.96
715.812	337.77
716.217	307.34
716.621	297.98
717.025	295.64
717.429	330.75
717.833	368.2
718.238	309.68
718.642	286.28
719.046	305
719.449	316.7
719.853	321.38
720.257	316.7
720.661	272.23
721.065	295.64
721.468	309.68
721.872	382.24
722.275	253.51
722.679	288.62
723.082	351.81
723.485	288.62
723.889	290.96
724.292	302.66
724.695	272.23
725.098	356.49
725.501	295.64
725.904	382.24
726.307	269.89
726.71	260.53
727.113	297.98
727.516	314.36
727.918	305
728.321	286.28
728.724	314.36
729.126	328.41
729.529	323.73
729.931	333.09
730.333	323.73
730.736	305
731.138	344.79
731.54	295.64
731.942	234.78
732.344	314.36
732.746	295.64
733.148	295.64
733.55	314.36
733.952	312.02
734.354	305
734.756	351.81
735.157	267.55
735.559	281.6
735.96	274.57
736.362	262.87
736.763	319.04
737.165	309.68
737.566	321.38
737.967	279.26
738.368	321.38
738.77	349.47
739.171	288.62
739.572	246.49
739.973	356.49
740.374	293.3
740.774	297.98
741.175	347.13
741.576	312.02
741.977	269.89
742.377	312.02
742.778	258.19
743.178	199.68
743.579	255.85
743.979	305
744.379	316.7
744.78	295.64
745.18	335.43
745.58	293.3
745.98	281.6
746.38	309.68
746.78	314.36
747.18	328.41
747.58	386.92
747.98	293.3
748.38	330.75
748.779	272.23
749.179	363.51
749.578	326.07
749.978	302.66
750.377	321.38
750.777	312.02
751.176	309.68
751.575	258.19
751.975	363.51
752.374	330.75
752.773	274.57
753.172	297.98
753.571	258.19
753.97	290.96
754.369	251.17
754.768	288.62
755.166	314.36
755.565	286.28
755.964	321.38
756.362	300.32
756.761	323.73
757.159	347.13
757.558	309.68
757.956	326.07
758.354	354.15
758.753	328.41
759.151	297.98
759.549	279.26
759.947	384.58
760.345	342.45
760.743	354.15
761.141	290.96
761.539	286.28
761.936	274.57
762.334	211.38
762.732	253.51
763.129	274.57
763.527	309.68
763.924	335.43
764.322	319.04
764.719	307.34
765.117	307.34
765.514	255.85
765.911	337.77
766.308	321.38
766.705	347.13
767.102	314.36
767.499	265.21
767.896	312.02
768.293	321.38
768.69	302.66
769.086	309.68
769.483	283.94
769.88	321.38
770.276	321.38
770.673	316.7
771.069	326.07
771.466	279.26
771.862	255.85
772.258	297.98
772.654	295.64
773.05	272.23
773.447	295.64
773.843	330.75
774.239	300.32
774.634	305
775.03	335.43
775.426	319.04
775.822	297.98
776.218	302.66
776.613	337.77
777.009	323.73
777.404	283.94
777.8	356.49
778.195	340.11
778.59	302.66
778.986	225.42
779.381	297.98
779.776	316.7
780.171	316.7
780.566	297.98
780.961	246.49
781.356	356.49
781.751	272.23
782.146	244.15
782.54	305
782.935	358.83
783.33	283.94
783.724	344.79
784.119	255.85
784.513	309.68
784.908	316.7
785.302	246.49
785.696	319.04
786.09	255.85
786.485	321.38
786.879	286.28
787.273	265.21
787.667	321.38
788.061	307.34
788.454	316.7
788.848	305
789.242	293.3
789.636	297.98
790.029	286.28
790.423	276.91
790.816	300.32
791.21	279.26
791.603	309.68
791.997	272.23
792.39	328.41
792.783	283.94
793.176	300.32
793.569	340.11
793.962	283.94
794.355	321.38
794.748	241.81
795.141	302.66
795.534	307.34
795.927	265.21
796.319	340.11
796.712	262.87
797.105	288.62
797.497	267.55
797.89	316.7
798.282	293.3
798.674	265.21
799.067	258.19
799.459	286.28
799.851	300.32
800.243	326.07
800.635	302.66
801.027	267.55
801.419	328.41
801.811	293.3
802.203	262.87
802.594	283.94
802.986	309.68
803.378	279.26
803.769	255.85
804.161	288.62
804.552	269.89
804.944	293.3
805.335	239.47
805.726	269.89
806.118	351.81
806.509	314.36
806.9	279.26
807.291	276.91
807.682	319.04
808.073	276.91
808.464	244.15
808.855	337.77
809.245	258.19
809.636	316.7
810.027	295.64
810.417	274.57
810.808	363.51
811.198	290.96
811.589	319.04
811.979	351.81
812.369	377.56
812.759	323.73
813.15	274.57
813.54	283.94
813.93	281.6
814.32	312.02
814.71	258.19
815.1	358.83
815.489	293.3
815.879	293.3
816.269	297.98
816.658	328.41
817.048	316.7
817.438	312.02
817.827	330.75
818.216	323.73
818.606	279.26
818.995	248.83
819.384	283.94
819.773	279.26
820.163	319.04
820.552	234.78
820.941	337.77
821.33	297.98
821.718	323.73
822.107	321.38
822.496	316.7
822.885	274.57
823.273	258.19
823.662	253.51
824.05	312.02
824.439	305
824.827	288.62
825.216	281.6
825.604	279.26
825.992	335.43
826.38	253.51
826.768	272.23
827.156	288.62
827.544	276.91
827.932	239.47
828.32	330.75
828.708	232.44
829.096	309.68
829.483	323.73
829.871	323.73
830.259	307.34
830.646	328.41
831.034	283.94
831.421	286.28
831.808	370.54
832.196	276.91
832.583	274.57
832.97	358.83
833.357	267.55
833.744	262.87
834.131	300.32
834.518	330.75
834.905	302.66
835.292	305
835.678	330.75
836.065	316.7
836.452	260.53
836.838	326.07
837.225	300.32
837.611	335.43
837.998	276.91
838.384	337.77
838.77	295.64
839.157	288.62
839.543	267.55
839.929	244.15
840.315	288.62
840.701	286.28
841.087	258.19
841.473	295.64
841.858	302.66
842.244	300.32
842.63	309.68
843.015	305
843.401	581.18
843.787	326.07
844.172	302.66
844.557	344.79
844.943	281.6
845.328	316.7
845.713	351.81
846.098	255.85
846.483	281.6
846.868	377.56
847.253	337.77
847.638	309.68
848.023	288.62
848.408	316.7
848.793	283.94
849.177	340.11
849.562	326.07
849.947	375.22
850.331	342.45
850.715	372.88
851.1	269.89
851.484	276.91
851.868	330.75
852.253	295.64
852.637	389.26
853.021	351.81
853.405	314.36
853.789	297.98
854.173	319.04
854.557	262.87
854.94	276.91
855.324	286.28
855.708	328.41
856.091	321.38
856.475	279.26
856.858	323.73
857.242	309.68
857.625	307.34
858.009	293.3
858.392	365.85
858.775	323.73
859.158	265.21
859.541	342.45
859.924	255.85
860.307	335.43
860.69	365.85
861.073	293.3
861.456	323.73
861.838	274.57
862.221	262.87
862.604	279.26
862.986	297.98
863.369	197.34
863.751	279.26
864.133	293.3
864.516	361.17
864.898	309.68
865.28	344.79
865.662	309.68
866.044	265.21
866.426	361.17
866.808	293.3
867.19	328.41
867.572	255.85
867.954	307.34
868.336	351.81
868.717	269.89
869.099	269.89
869.48	246.49
869.862	272.23
870.243	319.04
870.625	262.87
871.006	216.06
871.387	260.53
871.768	330.75
872.149	321.38
872.53	232.44
872.911	279.26
873.292	305
873.673	344.79
874.054	288.62
874.435	272.23
874.815	262.87
875.196	272.23
875.577	262.87
875.957	323.73
876.338	260.53
876.718	279.26
877.098	269.89
877.479	255.85
877.859	333.09
878.239	286.28
878.619	333.09
878.999	309.68
879.379	312.02
879.759	295.64
880.139	262.87
880.519	290.96
880.898	265.21
881.278	288.62
881.658	323.73
882.037	255.85
882.417	246.49
882.796	279.26
883.176	342.45
883.555	267.55
883.934	368.2
884.313	288.62
884.693	276.91
885.072	314.36
885.451	290.96
885.83	307.34
886.209	281.6
886.587	290.96
886.966	248.83
887.345	344.79
887.724	295.64
888.102	274.57
888.481	283.94
888.859	272.23
889.238	239.47
889.616	258.19
889.994	344.79
890.373	340.11
890.751	307.34
891.129	328.41
891.507	323.73
891.885	305
892.263	269.89
892.641	309.68
893.019	302.66
893.396	239.47
893.774	286.28
894.152	272.23
894.529	297.98
894.907	312.02
895.284	281.6
895.662	295.64
896.039	251.17
896.416	258.19
896.794	251.17
897.171	335.43
897.548	295.64
897.925	286.28
898.302	295.64
898.679	267.55
899.056	347.13
899.433	342.45
899.809	258.19
900.186	290.96
900.563	333.09
900.939	288.62
901.316	267.55
901.692	309.68
902.069	279.26
902.445	328.41
902.821	309.68
903.197	239.47
903.574	302.66
903.95	253.51
904.326	316.7
904.702	269.89
905.078	319.04
905.454	302.66
905.829	312.02
906.205	234.78
906.581	225.42
906.956	302.66
907.332	307.34
907.707	283.94
908.083	293.3
908.458	265.21
908.833	312.02
909.209	290.96
909.584	316.7
909.959	326.07
910.334	321.38
910.709	297.98
911.084	246.49
911.459	309.68
911.834	319.04
912.209	302.66
912.583	290.96
912.958	260.53
913.333	237.13
913.707	335.43
914.082	354.15
914.456	265.21
914.83	290.96
915.205	293.3
915.579	305
915.953	328.41
916.327	358.83
916.701	288.62
917.075	377.56
917.449	262.87
917.823	297.98
918.197	288.62
918.571	281.6
918.944	283.94
919.318	269.89
919.692	309.68
920.065	295.64
920.438	293.3
920.812	283.94
921.185	267.55
921.558	246.49
921.932	314.36
922.305	255.85
922.678	330.75
923.051	286.28
923.424	269.89
923.797	286.28
924.17	246.49
924.542	274.57
924.915	225.42
925.288	300.32
925.661	290.96
926.033	265.21
926.406	297.98
926.778	274.57
927.15	213.72
927.523	312.02
927.895	246.49
928.267	305
928.639	307.34
929.011	309.68
929.383	312.02
929.755	274.57
930.127	267.55
930.499	276.91
930.871	283.94
931.242	293.3
931.614	307.34
931.986	276.91
932.357	258.19
932.729	307.34
933.1	297.98
933.471	337.77
933.843	337.77
934.214	262.87
934.585	295.64
934.956	337.77
935.327	251.17
935.698	288.62
936.069	358.83
936.44	281.6
936.811	335.43
937.182	300.32
937.552	258.19
937.923	269.89
938.293	241.81
938.664	295.64
939.034	283.94
939.405	305
939.775	281.6
940.145	295.64
940.516	248.83
940.886	302.66
941.256	290.96
941.626	288.62
941.996	267.55
942.366	333.09
942.735	223.08
943.105	321.38
943.475	286.28
943.845	272.23
944.214	347.13
944.584	267.55
944.953	283.94
945.323	300.32
945.692	232.44
946.061	321.38
946.43	286.28
946.8	312.02
947.169	279.26
947.538	290.96
947.907	344.79
948.276	295.64
948.645	237.13
949.013	300.32
949.382	316.7
949.751	272.23
950.119	370.54
950.488	223.08
950.857	274.57
951.225	323.73
951.593	293.3
951.962	286.28
952.33	319.04
952.698	246.49
953.066	347.13
953.434	330.75
953.802	262.87
954.17	302.66
954.538	326.07
954.906	307.34
955.274	260.53
955.642	260.53
956.009	251.17
956.377	300.32
956.744	290.96
957.112	267.55
957.479	290.96
957.847	319.04
958.214	326.07
958.581	274.57
958.948	281.6
959.315	293.3
959.683	316.7
960.05	305
960.416	354.15
960.783	227.76
961.15	241.81
961.517	309.68
961.884	328.41
962.25	272.23
962.617	316.7
962.983	286.28
963.35	260.53
963.716	358.83
964.082	237.13
964.449	295.64
964.815	295.64
965.181	281.6
965.547	283.94
965.913	283.94
966.279	328.41
966.645	225.42
967.011	227.76
967.377	260.53
967.742	316.7
968.108	260.53
968.474	307.34
968.839	232.44
969.205	337.77
969.57	286.28
969.935	290.96
970.301	342.45
970.666	267.55
971.031	326.07
971.396	258.19
971.761	260.53
972.126	333.09
972.491	300.32
972.856	276.91
973.221	281.6
973.586	305
973.95	286.28
974.315	330.75
974.679	319.04
975.044	330.75
975.408	323.73
975.773	286.28
976.137	354.15
976.501	358.83
976.866	302.66
977.23	248.83
977.594	290.96
977.958	323.73
978.322	279.26
978.686	302.66
979.049	258.19
979.413	274.57
979.777	262.87
980.141	328.41
980.504	316.7
980.868	337.77
981.231	297.98
981.595	354.15
981.958	302.66
982.321	356.49
982.684	335.43
983.048	314.36
983.411	342.45
983.774	297.98
984.137	316.7
984.5	248.83
984.862	314.36
985.225	365.85
985.588	337.77
985.951	239.47
986.313	300.32
986.676	244.15
987.038	321.38
987.401	251.17
987.763	272.23
988.125	307.34
988.488	316.7
988.85	330.75
989.212	267.55
989.574	283.94
989.936	337.77
990.298	333.09
990.66	330.75
991.022	351.81
991.383	213.72
991.745	302.66
992.107	272.23
992.468	330.75
992.83	281.6
993.191	314.36
993.553	326.07
993.914	349.47
994.275	312.02
994.637	227.76
994.998	286.28
995.359	323.73
995.72	265.21
996.081	316.7
996.442	246.49
996.803	309.68
997.163	234.78
997.524	363.51
997.885	319.04
998.245	265.21
998.606	293.3
998.966	260.53
999.327	272.23
999.687	302.66
1000.047	326.07
1000.408	279.26
1000.768	262.87
1001.128	232.44
1001.488	316.7
1001.848	300.32
1002.208	342.45
1002.568	279.26
1002.927	305
1003.287	220.74
1003.647	302.66
1004.007	281.6
1004.366	267.55
1004.726	290.96
1005.085	230.1
1005.444	326.07
1005.804	283.94
1006.163	290.96
1006.522	326.07
1006.881	305
1007.24	365.85
1007.599	293.3
1007.958	321.38
1008.317	230.1
1008.676	290.96
1009.035	312.02
1009.393	283.94
1009.752	293.3
1010.111	347.13
1010.469	274.57
1010.828	279.26
1011.186	274.57
1011.544	316.7
1011.903	307.34
1012.261	237.13
1012.619	290.96
1012.977	260.53
1013.335	309.68
1013.693	206.7
1014.051	279.26
1014.409	293.3
1014.767	379.9
1015.124	349.47
1015.482	382.24
1015.84	286.28
1016.197	297.98
1016.555	300.32
1016.912	302.66
1017.269	295.64
1017.627	309.68
1017.984	281.6
1018.341	255.85
1018.698	288.62
1019.055	309.68
1019.412	260.53
1019.769	237.13
1020.126	237.13
1020.483	351.81
1020.84	302.66
1021.196	337.77
1021.553	312.02
1021.909	274.57
1022.266	272.23
1022.622	372.88
1022.979	297.98
1023.335	269.89
1023.691	274.57
1024.047	269.89
1024.404	342.45
1024.76	286.28
1025.116	281.6
1025.472	283.94
1025.827	290.96
1026.183	305
1026.539	323.73
1026.895	302.66
1027.25	326.07
1027.606	326.07
1027.961	300.32
1028.317	262.87
1028.672	302.66
1029.028	290.96
1029.383	286.28
1029.738	283.94
1030.093	246.49
1030.448	307.34
1030.803	344.79
1031.158	305
1031.513	297.98
1031.868	302.66
1032.223	300.32
1032.577	295.64
1032.932	286.28
1033.287	295.64
1033.641	344.79
1033.996	260.53
1034.35	295.64
1034.704	281.6
1035.059	234.78
1035.413	272.23
1035.767	272.23
1036.121	272.23
