Data from Al_FLMS009871__1045__16-25-16-313.txt Node

Date: Fri Mar 08 16:25:16 CST 2024
User: pe5414po
Spectrometer: FLMS00987
Trigger mode: 0
Integration Time (sec): 1.000000E-1
Scans to average: 1
Electric dark correction enabled: true
Nonlinearity correction enabled: false
Boxcar width: 0
XAxis mode: Wavelengths
Number of Pixels in Spectrum: 2048
>>>>>Begin Spectral Data<<<<<
188.938	-127.12
189.409	-127.12
189.879	-127.12
190.349	-127.12
190.819	-129.46
191.29	-45.2
191.76	-84.99
192.23	-82.65
192.7	-54.56
193.17	-54.56
193.64	-45.2
194.109	-38.18
194.579	-59.24
195.049	1.61
195.519	43.74
195.988	20.33
196.458	22.67
196.927	106.93
197.397	95.23
197.866	83.53
198.336	90.55
198.805	184.17
199.274	128
199.744	128
200.213	186.51
200.682	167.79
201.151	209.92
201.62	242.68
202.089	219.28
202.558	233.32
203.027	308.22
203.495	263.75
203.964	214.6
204.433	235.66
204.902	275.45
205.37	261.41
205.839	296.52
206.307	284.81
206.776	305.88
207.244	245.02
207.712	252.05
208.181	275.45
208.649	348.01
209.117	266.09
209.585	277.79
210.053	308.22
210.521	221.62
210.989	212.26
211.457	301.2
211.925	280.13
212.393	303.54
212.861	275.45
213.328	261.41
213.796	259.07
214.264	242.68
214.731	235.66
215.199	212.26
215.666	289.5
216.133	238
216.601	233.32
217.068	268.43
217.535	209.92
218.003	275.45
218.47	310.56
218.937	252.05
219.404	238
219.871	254.39
220.338	226.3
220.805	263.75
221.271	280.13
221.738	273.11
222.205	221.62
222.671	245.02
223.138	287.15
223.605	326.94
224.071	282.47
224.538	256.73
225.004	291.84
225.47	280.13
225.937	242.68
226.403	287.15
226.869	259.07
227.335	277.79
227.801	317.58
228.267	181.83
228.733	284.81
229.199	238
229.665	214.6
230.131	214.6
230.597	226.3
231.062	240.34
231.528	226.3
231.994	326.94
232.459	256.73
232.925	291.84
233.39	247.37
233.856	296.52
234.321	242.68
234.786	348.01
235.252	301.2
235.717	301.2
236.182	238
236.647	284.81
237.112	315.24
237.577	202.9
238.042	249.71
238.507	310.56
238.972	273.11
239.436	303.54
239.901	284.81
240.366	275.45
240.83	240.34
241.295	287.15
241.76	216.94
242.224	235.66
242.688	226.3
243.153	261.41
243.617	256.73
244.081	273.11
244.545	263.75
245.01	305.88
245.474	275.45
245.938	254.39
246.402	193.53
246.866	202.9
247.33	256.73
247.793	273.11
248.257	263.75
248.721	247.37
249.185	331.62
249.648	310.56
250.112	287.15
250.575	287.15
251.039	301.2
251.502	254.39
251.965	259.07
252.429	322.26
252.892	284.81
253.355	338.65
253.818	296.52
254.281	242.68
254.744	254.39
255.207	310.56
255.67	259.07
256.133	223.96
256.596	317.58
257.059	282.47
257.522	305.88
257.984	294.18
258.447	294.18
258.909	233.32
259.372	296.52
259.834	280.13
260.297	291.84
260.759	245.02
261.221	233.32
261.684	275.45
262.146	280.13
262.608	277.79
263.07	268.43
263.532	219.28
263.994	291.84
264.456	294.18
264.918	261.41
265.38	312.9
265.842	305.88
266.303	301.2
266.765	273.11
267.227	238
267.688	277.79
268.15	275.45
268.611	333.97
269.072	305.88
269.534	235.66
269.995	266.09
270.456	348.01
270.918	228.64
271.379	326.94
271.84	268.43
272.301	235.66
272.762	333.97
273.223	273.11
273.684	294.18
274.144	312.9
274.605	291.84
275.066	312.9
275.527	277.79
275.987	263.75
276.448	319.92
276.908	333.97
277.369	301.2
277.829	294.18
278.289	324.6
278.75	310.56
279.21	223.96
279.67	268.43
280.13	301.2
280.59	312.9
281.05	287.15
281.51	303.54
281.97	303.54
282.43	277.79
282.89	324.6
283.35	275.45
283.809	305.88
284.269	319.92
284.729	289.5
285.188	289.5
285.648	263.75
286.107	270.77
286.567	352.69
287.026	270.77
287.485	280.13
287.944	240.34
288.404	336.31
288.863	308.22
289.322	322.26
289.781	261.41
290.24	252.05
290.699	294.18
291.158	289.5
291.616	305.88
292.075	270.77
292.534	308.22
292.992	207.58
293.451	308.22
293.91	317.58
294.368	238
294.827	284.81
295.285	277.79
295.743	242.68
296.202	345.67
296.66	296.52
297.118	301.2
297.576	270.77
298.034	298.86
298.492	261.41
298.95	242.68
299.408	254.39
299.866	233.32
300.324	280.13
300.781	308.22
301.239	345.67
301.697	268.43
302.154	322.26
302.612	308.22
303.069	266.09
303.527	298.86
303.984	261.41
304.441	315.24
304.899	247.37
305.356	230.98
305.813	294.18
306.27	256.73
306.727	252.05
307.184	319.92
307.641	289.5
308.098	296.52
308.555	291.84
309.012	289.5
309.468	301.2
309.925	233.32
310.382	186.51
310.838	235.66
311.295	270.77
311.751	315.24
312.208	275.45
312.664	261.41
313.12	282.47
313.577	294.18
314.033	280.13
314.489	235.66
314.945	228.64
315.401	343.33
315.857	338.65
316.313	233.32
316.769	296.52
317.225	305.88
317.681	284.81
318.136	333.97
318.592	280.13
319.048	345.67
319.503	312.9
319.959	301.2
320.414	289.5
320.869	233.32
321.325	261.41
321.78	240.34
322.235	268.43
322.691	298.86
323.146	266.09
323.601	326.94
324.056	298.86
324.511	308.22
324.966	345.67
325.421	315.24
325.875	280.13
326.33	294.18
326.785	355.03
327.24	322.26
327.694	209.92
328.149	233.32
328.603	277.79
329.058	284.81
329.512	329.28
329.966	282.47
330.421	336.31
330.875	256.73
331.329	310.56
331.783	352.69
332.237	305.88
332.691	336.31
333.145	310.56
333.599	296.52
334.053	345.67
334.507	322.26
334.96	261.41
335.414	324.6
335.868	317.58
336.321	378.44
336.775	371.41
337.228	275.45
337.682	336.31
338.135	326.94
338.588	348.01
339.042	336.31
339.495	291.84
339.948	369.07
340.401	340.99
340.854	324.6
341.307	345.67
341.76	362.05
342.213	273.11
342.666	273.11
343.119	256.73
343.571	345.67
344.024	233.32
344.477	268.43
344.929	324.6
345.382	315.24
345.834	303.54
346.287	359.71
346.739	280.13
347.191	284.81
347.644	284.81
348.096	287.15
348.548	371.41
349	289.5
349.452	282.47
349.904	343.33
350.356	331.62
350.808	322.26
351.26	256.73
351.711	301.2
352.163	350.35
352.615	329.28
353.066	254.39
353.518	254.39
353.969	376.09
354.421	254.39
354.872	305.88
355.324	268.43
355.775	282.47
356.226	319.92
356.677	305.88
357.128	261.41
357.579	317.58
358.03	324.6
358.481	273.11
358.932	340.99
359.383	303.54
359.834	355.03
360.285	331.62
360.735	296.52
361.186	291.84
361.637	287.15
362.087	270.77
362.538	352.69
362.988	326.94
363.438	324.6
363.889	317.58
364.339	317.58
364.789	322.26
365.239	256.73
365.689	336.31
366.139	191.19
366.589	345.67
367.039	348.01
367.489	263.75
367.939	252.05
368.389	348.01
368.839	303.54
369.288	329.28
369.738	394.82
370.187	308.22
370.637	291.84
371.086	319.92
371.536	319.92
371.985	277.79
372.434	284.81
372.884	343.33
373.333	277.79
373.782	315.24
374.231	336.31
374.68	357.37
375.129	294.18
375.578	317.58
376.027	233.32
376.475	275.45
376.924	329.28
377.373	324.6
377.822	364.39
378.27	317.58
378.719	259.07
379.167	291.84
379.616	326.94
380.064	284.81
380.512	289.5
380.961	298.86
381.409	319.92
381.857	275.45
382.305	315.24
382.753	247.37
383.201	270.77
383.649	357.37
384.097	352.69
384.545	331.62
384.992	273.11
385.44	336.31
385.888	235.66
386.335	252.05
386.783	310.56
387.231	343.33
387.678	266.09
388.125	357.37
388.573	280.13
389.02	263.75
389.467	280.13
389.914	301.2
390.362	301.2
390.809	326.94
391.256	352.69
391.703	284.81
392.15	343.33
392.596	324.6
393.043	294.18
393.49	266.09
393.937	385.46
394.383	294.18
394.83	289.5
395.276	380.78
395.723	352.69
396.169	273.11
396.616	413.54
397.062	322.26
397.508	275.45
397.954	289.5
398.401	296.52
398.847	221.62
399.293	338.65
399.739	329.28
400.185	317.58
400.631	280.13
401.076	350.35
401.522	315.24
401.968	287.15
402.414	289.5
402.859	383.12
403.305	301.2
403.75	294.18
404.196	326.94
404.641	312.9
405.086	397.16
405.532	338.65
405.977	329.28
406.422	256.73
406.867	282.47
407.312	305.88
407.757	376.09
408.202	245.02
408.647	301.2
409.092	338.65
409.537	294.18
409.982	296.52
410.426	310.56
410.871	287.15
411.316	343.33
411.76	315.24
412.205	303.54
412.649	287.15
413.093	294.18
413.538	303.54
413.982	336.31
414.426	305.88
414.87	242.68
415.314	291.84
415.758	315.24
416.202	336.31
416.646	345.67
417.09	303.54
417.534	315.24
417.978	317.58
418.421	322.26
418.865	270.77
419.309	324.6
419.752	331.62
420.196	336.31
420.639	254.39
421.083	289.5
421.526	378.44
421.969	357.37
422.412	280.13
422.856	319.92
423.299	336.31
423.742	296.52
424.185	338.65
424.628	312.9
425.071	254.39
425.513	289.5
425.956	317.58
426.399	282.47
426.842	348.01
427.284	333.97
427.727	317.58
428.169	298.86
428.612	343.33
429.054	277.79
429.497	317.58
429.939	298.86
430.381	275.45
430.823	322.26
431.265	340.99
431.707	345.67
432.149	336.31
432.591	287.15
433.033	291.84
433.475	343.33
433.917	280.13
434.359	312.9
434.8	256.73
435.242	357.37
435.684	284.81
436.125	317.58
436.567	348.01
437.008	305.88
437.449	263.75
437.891	301.2
438.332	270.77
438.773	296.52
439.214	261.41
439.656	268.43
440.097	357.37
440.538	331.62
440.978	331.62
441.419	294.18
441.86	266.09
442.301	319.92
442.742	348.01
443.182	305.88
443.623	343.33
444.063	287.15
444.504	366.73
444.944	301.2
445.385	298.86
445.825	312.9
446.265	308.22
446.706	310.56
447.146	329.28
447.586	355.03
448.026	259.07
448.466	340.99
448.906	329.28
449.346	324.6
449.786	312.9
450.225	359.71
450.665	319.92
451.105	333.97
451.544	326.94
451.984	296.52
452.424	380.78
452.863	310.56
453.302	378.44
453.742	350.35
454.181	331.62
454.62	312.9
455.059	287.15
455.499	333.97
455.938	310.56
456.377	338.65
456.816	277.79
457.254	233.32
457.693	219.28
458.132	240.34
458.571	310.56
459.01	336.31
459.448	326.94
459.887	268.43
460.325	350.35
460.764	348.01
461.202	275.45
461.641	294.18
462.079	289.5
462.517	319.92
462.955	366.73
463.393	329.28
463.832	305.88
464.27	298.86
464.708	319.92
465.145	319.92
465.583	287.15
466.021	303.54
466.459	289.5
466.897	282.47
467.334	287.15
467.772	298.86
468.209	357.37
468.647	359.71
469.084	324.6
469.522	331.62
469.959	256.73
470.396	338.65
470.833	329.28
471.271	364.39
471.708	366.73
472.145	362.05
472.582	362.05
473.019	254.39
473.456	331.62
473.892	329.28
474.329	326.94
474.766	340.99
475.202	305.88
475.639	305.88
476.076	273.11
476.512	284.81
476.949	329.28
477.385	317.58
477.821	308.22
478.258	357.37
478.694	305.88
479.13	315.24
479.566	308.22
480.002	312.9
480.438	352.69
480.874	275.45
481.31	298.86
481.746	294.18
482.181	362.05
482.617	355.03
483.053	338.65
483.488	284.81
483.924	254.39
484.36	383.12
484.795	369.07
485.23	343.33
485.666	324.6
486.101	338.65
486.536	284.81
486.971	329.28
487.407	322.26
487.842	355.03
488.277	305.88
488.712	296.52
489.146	310.56
489.581	329.28
490.016	336.31
490.451	312.9
490.885	294.18
491.32	357.37
491.755	310.56
492.189	317.58
492.624	249.71
493.058	301.2
493.492	310.56
493.927	301.2
494.361	270.77
494.795	350.35
495.229	333.97
495.663	352.69
496.097	291.84
496.531	322.26
496.965	315.24
497.399	312.9
497.833	340.99
498.266	301.2
498.7	319.92
499.134	294.18
499.567	324.6
500.001	287.15
500.434	315.24
500.868	291.84
501.301	315.24
501.734	322.26
502.168	275.45
502.601	289.5
503.034	366.73
503.467	266.09
503.9	291.84
504.333	287.15
504.766	275.45
505.199	333.97
505.632	371.41
506.064	357.37
506.497	252.05
506.93	305.88
507.362	326.94
507.795	340.99
508.227	249.71
508.66	298.86
509.092	331.62
509.524	331.62
509.956	291.84
510.389	312.9
510.821	326.94
511.253	291.84
511.685	305.88
512.117	333.97
512.549	390.14
512.981	233.32
513.412	301.2
513.844	322.26
514.276	336.31
514.707	331.62
515.139	326.94
515.571	352.69
516.002	380.78
516.433	326.94
516.865	291.84
517.296	238
517.727	298.86
518.159	345.67
518.59	336.31
519.021	301.2
519.452	338.65
519.883	298.86
520.314	247.37
520.744	355.03
521.175	319.92
521.606	305.88
522.037	266.09
522.467	380.78
522.898	322.26
523.328	301.2
523.759	373.75
524.189	259.07
524.62	284.81
525.05	287.15
525.48	310.56
525.91	261.41
526.341	303.54
526.771	291.84
527.201	308.22
527.631	348.01
528.061	350.35
528.49	301.2
528.92	263.75
529.35	280.13
529.78	315.24
530.209	291.84
530.639	291.84
531.068	291.84
531.498	219.28
531.927	294.18
532.357	291.84
532.786	287.15
533.215	324.6
533.644	319.92
534.074	287.15
534.503	362.05
534.932	266.09
535.361	312.9
535.79	366.73
536.218	289.5
536.647	317.58
537.076	249.71
537.505	352.69
537.933	310.56
538.362	242.68
538.79	275.45
539.219	275.45
539.647	326.94
540.076	282.47
540.504	275.45
540.932	324.6
541.36	296.52
541.788	270.77
542.217	329.28
542.645	263.75
543.073	261.41
543.5	326.94
543.928	308.22
544.356	333.97
544.784	319.92
545.211	284.81
545.639	312.9
546.067	256.73
546.494	303.54
546.922	287.15
547.349	245.02
547.776	305.88
548.204	338.65
548.631	287.15
549.058	280.13
549.485	296.52
549.912	336.31
550.339	296.52
550.766	294.18
551.193	303.54
551.62	312.9
552.047	312.9
552.474	252.05
552.9	319.92
553.327	301.2
553.754	324.6
554.18	282.47
554.607	331.62
555.033	301.2
555.459	305.88
555.886	326.94
556.312	394.82
556.738	287.15
557.164	310.56
557.59	331.62
558.016	303.54
558.442	343.33
558.868	331.62
559.294	333.97
559.72	249.71
560.145	301.2
560.571	322.26
560.997	329.28
561.422	261.41
561.848	331.62
562.273	287.15
562.699	343.33
563.124	305.88
563.549	345.67
563.974	333.97
564.4	303.54
564.825	340.99
565.25	340.99
565.675	326.94
566.1	289.5
566.525	319.92
566.95	380.78
567.374	254.39
567.799	303.54
568.224	298.86
568.648	282.47
569.073	270.77
569.497	352.69
569.922	319.92
570.346	275.45
570.771	301.2
571.195	308.22
571.619	359.71
572.043	277.79
572.467	291.84
572.891	371.41
573.315	289.5
573.739	338.65
574.163	284.81
574.587	301.2
575.011	275.45
575.435	331.62
575.858	305.88
576.282	287.15
576.705	254.39
577.129	277.79
577.552	324.6
577.976	289.5
578.399	275.45
578.822	287.15
579.245	345.67
579.669	266.09
580.092	266.09
580.515	245.02
580.938	401.84
581.361	266.09
581.784	226.3
582.206	301.2
582.629	315.24
583.052	261.41
583.474	301.2
583.897	291.84
584.32	324.6
584.742	298.86
585.165	312.9
585.587	460.35
586.009	287.15
586.431	326.94
586.854	289.5
587.276	301.2
587.698	263.75
588.12	364.39
588.542	289.5
588.964	317.58
589.386	282.47
589.807	291.84
590.229	340.99
590.651	298.86
591.073	308.22
591.494	254.39
591.916	273.11
592.337	338.65
592.759	261.41
593.18	284.81
593.601	305.88
594.022	291.84
594.444	324.6
594.865	303.54
595.286	277.79
595.707	331.62
596.128	207.58
596.549	294.18
596.97	273.11
597.39	252.05
597.811	329.28
598.232	291.84
598.652	226.3
599.073	310.56
599.494	284.81
599.914	263.75
600.334	263.75
600.755	240.34
601.175	348.01
601.595	291.84
602.015	254.39
602.436	315.24
602.856	434.61
603.276	273.11
603.696	310.56
604.115	310.56
604.535	209.92
604.955	357.37
605.375	240.34
605.794	235.66
606.214	249.71
606.634	338.65
607.053	333.97
607.473	280.13
607.892	329.28
608.311	308.22
608.731	333.97
609.15	289.5
609.569	223.96
609.988	273.11
610.407	280.13
610.826	261.41
611.245	275.45
611.664	331.62
612.083	268.43
612.501	345.67
612.92	312.9
613.339	333.97
613.757	305.88
614.176	308.22
614.594	256.73
615.013	333.97
615.431	312.9
615.85	322.26
616.268	312.9
616.686	268.43
617.104	355.03
617.522	333.97
617.94	287.15
618.358	310.56
618.776	289.5
619.194	331.62
619.612	308.22
620.03	280.13
620.447	296.52
620.865	331.62
621.282	362.05
621.7	256.73
622.117	383.12
622.535	345.67
622.952	324.6
623.369	294.18
623.787	254.39
624.204	336.31
624.621	284.81
625.038	364.39
625.455	357.37
625.872	319.92
626.289	340.99
626.706	301.2
627.123	298.86
627.539	291.84
627.956	315.24
628.373	348.01
628.789	301.2
629.206	326.94
629.622	338.65
630.038	322.26
630.455	305.88
630.871	319.92
631.287	359.71
631.703	277.79
632.12	301.2
632.536	350.35
632.952	310.56
633.368	287.15
633.783	364.39
634.199	310.56
634.615	282.47
635.031	343.33
635.446	303.54
635.862	317.58
636.277	357.37
636.693	259.07
637.108	266.09
637.524	338.65
637.939	280.13
638.354	324.6
638.77	233.32
639.185	324.6
639.6	287.15
640.015	280.13
640.43	355.03
640.845	280.13
641.259	308.22
641.674	289.5
642.089	322.26
642.504	303.54
642.918	312.9
643.333	270.77
643.747	312.9
644.162	268.43
644.576	324.6
644.991	282.47
645.405	369.07
645.819	357.37
646.233	331.62
646.647	326.94
647.061	324.6
647.475	319.92
647.889	329.28
648.303	333.97
648.717	289.5
649.131	326.94
649.545	305.88
649.958	230.98
650.372	308.22
650.785	289.5
651.199	256.73
651.612	312.9
652.026	303.54
652.439	266.09
652.852	270.77
653.266	329.28
653.679	362.05
654.092	259.07
654.505	310.56
654.918	284.81
655.331	333.97
655.744	275.45
656.156	294.18
656.569	305.88
656.982	235.66
657.394	308.22
657.807	245.02
658.22	338.65
658.632	280.13
659.044	305.88
659.457	289.5
659.869	287.15
660.281	282.47
660.693	340.99
661.106	387.8
661.518	261.41
661.93	340.99
662.342	315.24
662.754	329.28
663.165	296.52
663.577	317.58
663.989	282.47
664.401	326.94
664.812	277.79
665.224	336.31
665.635	336.31
666.047	268.43
666.458	331.62
666.869	331.62
667.281	364.39
667.692	280.13
668.103	284.81
668.514	357.37
668.925	305.88
669.336	331.62
669.747	340.99
670.158	263.75
670.569	254.39
670.979	317.58
671.39	291.84
671.801	254.39
672.211	245.02
672.622	268.43
673.032	289.5
673.443	324.6
673.853	259.07
674.263	376.09
674.674	317.58
675.084	326.94
675.494	303.54
675.904	312.9
676.314	230.98
676.724	322.26
677.134	298.86
677.544	338.65
677.953	324.6
678.363	364.39
678.773	240.34
679.182	322.26
679.592	277.79
680.001	303.54
680.411	308.22
680.82	308.22
681.23	282.47
681.639	303.54
682.048	319.92
682.457	350.35
682.866	298.86
683.275	263.75
683.684	296.52
684.093	362.05
684.502	315.24
684.911	275.45
685.32	343.33
685.728	326.94
686.137	228.64
686.546	350.35
686.954	198.21
687.363	280.13
687.771	266.09
688.179	319.92
688.588	315.24
688.996	282.47
689.404	303.54
689.812	315.24
690.22	315.24
690.628	256.73
691.036	273.11
691.444	287.15
691.852	303.54
692.26	270.77
692.667	319.92
693.075	259.07
693.483	331.62
693.89	357.37
694.298	289.5
694.705	315.24
695.112	298.86
695.52	338.65
695.927	245.02
696.334	275.45
696.741	308.22
697.148	308.22
697.555	249.71
697.962	305.88
698.369	287.15
698.776	280.13
699.183	256.73
699.59	289.5
699.996	312.9
700.403	308.22
700.81	364.39
701.216	301.2
701.623	312.9
702.029	263.75
702.435	331.62
702.842	289.5
703.248	315.24
703.654	282.47
704.06	291.84
704.466	348.01
704.872	219.28
705.278	284.81
705.684	338.65
706.09	366.73
706.496	273.11
706.901	287.15
707.307	287.15
707.712	305.88
708.118	329.28
708.523	296.52
708.929	312.9
709.334	303.54
709.74	242.68
710.145	380.78
710.55	294.18
710.955	273.11
711.36	277.79
711.765	284.81
712.17	350.35
712.575	287.15
712.98	731.86
713.385	397.16
713.789	249.71
714.194	296.52
714.599	280.13
715.003	343.33
715.408	333.97
715.812	275.45
716.217	359.71
716.621	359.71
717.025	294.18
717.429	308.22
717.833	338.65
718.238	333.97
718.642	324.6
719.046	263.75
719.449	383.12
719.853	319.92
720.257	298.86
720.661	242.68
721.065	305.88
721.468	326.94
721.872	333.97
722.275	336.31
722.679	289.5
723.082	322.26
723.485	275.45
723.889	270.77
724.292	317.58
724.695	312.9
725.098	348.01
725.501	310.56
725.904	317.58
726.307	340.99
726.71	268.43
727.113	310.56
727.516	230.98
727.918	317.58
728.321	352.69
728.724	256.73
729.126	310.56
729.529	280.13
729.931	312.9
730.333	289.5
730.736	296.52
731.138	268.43
731.54	280.13
731.942	301.2
732.344	247.37
732.746	345.67
733.148	312.9
733.55	252.05
733.952	301.2
734.354	263.75
734.756	275.45
735.157	287.15
735.559	294.18
735.96	310.56
736.362	394.82
736.763	305.88
737.165	284.81
737.566	291.84
737.967	282.47
738.368	259.07
738.77	326.94
739.171	282.47
739.572	352.69
739.973	245.02
740.374	326.94
740.774	303.54
741.175	263.75
741.576	298.86
741.977	305.88
742.377	340.99
742.778	282.47
743.178	259.07
743.579	256.73
743.979	303.54
744.379	268.43
744.78	352.69
745.18	294.18
745.58	301.2
745.98	287.15
746.38	298.86
746.78	312.9
747.18	319.92
747.58	291.84
747.98	317.58
748.38	280.13
748.779	329.28
749.179	282.47
749.578	282.47
749.978	223.96
750.377	261.41
750.777	301.2
751.176	305.88
751.575	338.65
751.975	345.67
752.374	270.77
752.773	230.98
753.172	270.77
753.571	273.11
753.97	280.13
754.369	294.18
754.768	345.67
755.166	303.54
755.565	324.6
755.964	340.99
756.362	338.65
756.761	340.99
757.159	273.11
757.558	280.13
757.956	310.56
758.354	338.65
758.753	245.02
759.151	310.56
759.549	298.86
759.947	380.78
760.345	329.28
760.743	348.01
761.141	362.05
761.539	322.26
761.936	308.22
762.334	282.47
762.732	333.97
763.129	312.9
763.527	319.92
763.924	331.62
764.322	348.01
764.719	312.9
765.117	362.05
765.514	273.11
765.911	305.88
766.308	291.84
766.705	268.43
767.102	326.94
767.499	245.02
767.896	214.6
768.293	357.37
768.69	312.9
769.086	252.05
769.483	319.92
769.88	336.31
770.276	277.79
770.673	310.56
771.069	359.71
771.466	301.2
771.862	294.18
772.258	317.58
772.654	310.56
773.05	371.41
773.447	296.52
773.843	338.65
774.239	317.58
774.634	291.84
775.03	369.07
775.426	294.18
775.822	287.15
776.218	345.67
776.613	333.97
777.009	366.73
777.404	324.6
777.8	355.03
778.195	317.58
778.59	294.18
778.986	268.43
779.381	280.13
779.776	266.09
780.171	359.71
780.566	287.15
780.961	322.26
781.356	289.5
781.751	263.75
782.146	296.52
782.54	308.22
782.935	268.43
783.33	322.26
783.724	315.24
784.119	256.73
784.513	331.62
784.908	275.45
785.302	357.37
785.696	312.9
786.09	287.15
786.485	296.52
786.879	310.56
787.273	291.84
787.667	371.41
788.061	345.67
788.454	317.58
788.848	310.56
789.242	277.79
789.636	298.86
790.029	331.62
790.423	322.26
790.816	310.56
791.21	326.94
791.603	256.73
791.997	310.56
792.39	305.88
792.783	357.37
793.176	308.22
793.569	282.47
793.962	277.79
794.355	308.22
794.748	329.28
795.141	331.62
795.534	324.6
795.927	275.45
796.319	317.58
796.712	319.92
797.105	348.01
797.497	312.9
797.89	305.88
798.282	326.94
798.674	277.79
799.067	291.84
799.459	216.94
799.851	378.44
800.243	317.58
800.635	280.13
801.027	333.97
801.419	305.88
801.811	310.56
802.203	350.35
802.594	275.45
802.986	298.86
803.378	355.03
803.769	366.73
804.161	296.52
804.552	296.52
804.944	303.54
805.335	294.18
805.726	333.97
806.118	312.9
806.509	256.73
806.9	273.11
807.291	291.84
807.682	266.09
808.073	235.66
808.464	301.2
808.855	282.47
809.245	273.11
809.636	291.84
810.027	305.88
810.417	357.37
810.808	310.56
811.198	301.2
811.589	282.47
811.979	294.18
812.369	343.33
812.759	315.24
813.15	287.15
813.54	324.6
813.93	329.28
814.32	280.13
814.71	289.5
815.1	326.94
815.489	284.81
815.879	259.07
816.269	280.13
816.658	345.67
817.048	270.77
817.438	305.88
817.827	345.67
818.216	373.75
818.606	331.62
818.995	298.86
819.384	298.86
819.773	340.99
820.163	289.5
820.552	380.78
820.941	312.9
821.33	322.26
821.718	319.92
822.107	308.22
822.496	359.71
822.885	287.15
823.273	305.88
823.662	282.47
824.05	284.81
824.439	305.88
824.827	252.05
825.216	294.18
825.604	268.43
825.992	287.15
826.38	242.68
826.768	308.22
827.156	273.11
827.544	326.94
827.932	326.94
828.32	289.5
828.708	326.94
829.096	333.97
829.483	308.22
829.871	294.18
830.259	256.73
830.646	294.18
831.034	308.22
831.421	284.81
831.808	324.6
832.196	296.52
832.583	254.39
832.97	336.31
833.357	291.84
833.744	289.5
834.131	289.5
834.518	333.97
834.905	331.62
835.292	268.43
835.678	303.54
836.065	317.58
836.452	308.22
836.838	263.75
837.225	317.58
837.611	287.15
837.998	308.22
838.384	294.18
838.77	310.56
839.157	238
839.543	322.26
839.929	280.13
840.315	301.2
840.701	333.97
841.087	277.79
841.473	212.26
841.858	331.62
842.244	348.01
842.63	317.58
843.015	350.35
843.401	593.76
843.787	362.05
844.172	329.28
844.557	322.26
844.943	305.88
845.328	277.79
845.713	270.77
846.098	315.24
846.483	319.92
846.868	284.81
847.253	275.45
847.638	275.45
848.023	289.5
848.408	263.75
848.793	315.24
849.177	319.92
849.562	296.52
849.947	256.73
850.331	310.56
850.715	303.54
851.1	315.24
851.484	298.86
851.868	277.79
852.253	277.79
852.637	305.88
853.021	336.31
853.405	308.22
853.789	340.99
854.173	294.18
854.557	336.31
854.94	294.18
855.324	294.18
855.708	282.47
856.091	287.15
856.475	359.71
856.858	287.15
857.242	282.47
857.625	273.11
858.009	359.71
858.392	301.2
858.775	364.39
859.158	263.75
859.541	310.56
859.924	329.28
860.307	329.28
860.69	317.58
861.073	305.88
861.456	305.88
861.838	315.24
862.221	357.37
862.604	284.81
862.986	336.31
863.369	289.5
863.751	364.39
864.133	273.11
864.516	366.73
864.898	345.67
865.28	294.18
865.662	303.54
866.044	305.88
866.426	263.75
866.808	233.32
867.19	291.84
867.572	390.14
867.954	308.22
868.336	348.01
868.717	280.13
869.099	291.84
869.48	350.35
869.862	322.26
870.243	324.6
870.625	322.26
871.006	348.01
871.387	296.52
871.768	291.84
872.149	256.73
872.53	245.02
872.911	216.94
873.292	280.13
873.673	333.97
874.054	287.15
874.435	324.6
874.815	240.34
875.196	275.45
875.577	256.73
875.957	322.26
876.338	289.5
876.718	326.94
877.098	287.15
877.479	310.56
877.859	324.6
878.239	284.81
878.619	359.71
878.999	336.31
879.379	287.15
879.759	326.94
880.139	287.15
880.519	287.15
880.898	284.81
881.278	345.67
881.658	350.35
882.037	312.9
882.417	312.9
882.796	324.6
883.176	270.77
883.555	366.73
883.934	357.37
884.313	329.28
884.693	284.81
885.072	312.9
885.451	338.65
885.83	273.11
886.209	305.88
886.587	282.47
886.966	296.52
887.345	315.24
887.724	301.2
888.102	322.26
888.481	259.07
888.859	317.58
889.238	369.07
889.616	296.52
889.994	254.39
890.373	308.22
890.751	312.9
891.129	291.84
891.507	284.81
891.885	305.88
892.263	238
892.641	329.28
893.019	305.88
893.396	305.88
893.774	298.86
894.152	259.07
894.529	263.75
894.907	326.94
895.284	322.26
895.662	326.94
896.039	223.96
896.416	282.47
896.794	326.94
897.171	301.2
897.548	326.94
897.925	289.5
898.302	254.39
898.679	340.99
899.056	273.11
899.433	280.13
899.809	331.62
900.186	348.01
900.563	249.71
900.939	268.43
901.316	308.22
901.692	348.01
902.069	291.84
902.445	280.13
902.821	340.99
903.197	336.31
903.574	310.56
903.95	338.65
904.326	345.67
904.702	277.79
905.078	298.86
905.454	376.09
905.829	329.28
906.205	298.86
906.581	317.58
906.956	266.09
907.332	357.37
907.707	291.84
908.083	261.41
908.458	317.58
908.833	371.41
909.209	310.56
909.584	338.65
909.959	359.71
910.334	303.54
910.709	289.5
911.084	333.97
911.459	329.28
911.834	291.84
912.209	352.69
912.583	298.86
912.958	322.26
913.333	310.56
913.707	329.28
914.082	312.9
914.456	289.5
914.83	329.28
915.205	296.52
915.579	310.56
915.953	282.47
916.327	312.9
916.701	273.11
917.075	275.45
917.449	319.92
917.823	338.65
918.197	291.84
918.571	324.6
918.944	282.47
919.318	282.47
919.692	352.69
920.065	273.11
920.438	298.86
920.812	245.02
921.185	305.88
921.558	350.35
921.932	282.47
922.305	289.5
922.678	282.47
923.051	308.22
923.424	263.75
923.797	348.01
924.17	298.86
924.542	310.56
924.915	289.5
925.288	259.07
925.661	296.52
926.033	373.75
926.406	333.97
926.778	294.18
927.15	270.77
927.523	298.86
927.895	298.86
928.267	336.31
928.639	301.2
929.011	369.07
929.383	397.16
929.755	322.26
930.127	270.77
930.499	315.24
930.871	287.15
931.242	366.73
931.614	329.28
931.986	308.22
932.357	308.22
932.729	308.22
933.1	273.11
933.471	305.88
933.843	266.09
934.214	326.94
934.585	317.58
934.956	254.39
935.327	298.86
935.698	184.17
936.069	266.09
936.44	270.77
936.811	301.2
937.182	284.81
937.552	350.35
937.923	362.05
938.293	266.09
938.664	310.56
939.034	291.84
939.405	357.37
939.775	303.54
940.145	277.79
940.516	319.92
940.886	282.47
941.256	301.2
941.626	287.15
941.996	350.35
942.366	273.11
942.735	324.6
943.105	249.71
943.475	298.86
943.845	333.97
944.214	315.24
944.584	289.5
944.953	303.54
945.323	308.22
945.692	284.81
946.061	238
946.43	289.5
946.8	333.97
947.169	322.26
947.538	296.52
947.907	315.24
948.276	266.09
948.645	289.5
949.013	277.79
949.382	284.81
949.751	312.9
950.119	268.43
950.488	326.94
950.857	280.13
951.225	319.92
951.593	216.94
951.962	280.13
952.33	317.58
952.698	270.77
953.066	291.84
953.434	268.43
953.802	312.9
954.17	355.03
954.538	298.86
954.906	282.47
955.274	280.13
955.642	268.43
956.009	345.67
956.377	308.22
956.744	315.24
957.112	270.77
957.479	270.77
957.847	275.45
958.214	280.13
958.581	284.81
958.948	247.37
959.315	312.9
959.683	319.92
960.05	308.22
960.416	291.84
960.783	254.39
961.15	404.18
961.517	277.79
961.884	331.62
962.25	338.65
962.617	371.41
962.983	333.97
963.35	289.5
963.716	305.88
964.082	301.2
964.449	308.22
964.815	317.58
965.181	336.31
965.547	308.22
965.913	263.75
966.279	317.58
966.645	256.73
967.011	242.68
967.377	303.54
967.742	277.79
968.108	275.45
968.474	362.05
968.839	261.41
969.205	273.11
969.57	228.64
969.935	268.43
970.301	345.67
970.666	298.86
971.031	338.65
971.396	291.84
971.761	233.32
972.126	378.44
972.491	298.86
972.856	352.69
973.221	348.01
973.586	261.41
973.95	357.37
974.315	326.94
974.679	359.71
975.044	376.09
975.408	312.9
975.773	338.65
976.137	238
976.501	310.56
976.866	352.69
977.23	249.71
977.594	291.84
977.958	268.43
978.322	273.11
978.686	294.18
979.049	209.92
979.413	348.01
979.777	317.58
980.141	277.79
980.504	357.37
980.868	268.43
981.231	305.88
981.595	317.58
981.958	256.73
982.321	301.2
982.684	303.54
983.048	326.94
983.411	312.9
983.774	305.88
984.137	333.97
984.5	333.97
984.862	284.81
985.225	282.47
985.588	205.24
985.951	355.03
986.313	266.09
986.676	221.62
987.038	263.75
987.401	261.41
987.763	247.37
988.125	245.02
988.488	336.31
988.85	287.15
989.212	308.22
989.574	301.2
989.936	254.39
990.298	294.18
990.66	331.62
991.022	294.18
991.383	249.71
991.745	282.47
992.107	305.88
992.468	319.92
992.83	338.65
993.191	331.62
993.553	315.24
993.914	331.62
994.275	296.52
994.637	287.15
994.998	245.02
995.359	303.54
995.72	310.56
996.081	270.77
996.442	214.6
996.803	329.28
997.163	273.11
997.524	366.73
997.885	275.45
998.245	294.18
998.606	287.15
998.966	287.15
999.327	301.2
999.687	362.05
1000.047	301.2
1000.408	294.18
1000.768	308.22
1001.128	319.92
1001.488	322.26
1001.848	277.79
1002.208	348.01
1002.568	289.5
1002.927	277.79
1003.287	273.11
1003.647	322.26
1004.007	198.21
1004.366	284.81
1004.726	270.77
1005.085	329.28
1005.444	319.92
1005.804	268.43
1006.163	315.24
1006.522	275.45
1006.881	301.2
1007.24	305.88
1007.599	280.13
1007.958	266.09
1008.317	305.88
1008.676	333.97
1009.035	298.86
1009.393	364.39
1009.752	296.52
1010.111	280.13
1010.469	331.62
1010.828	355.03
1011.186	242.68
1011.544	275.45
1011.903	256.73
1012.261	296.52
1012.619	284.81
1012.977	280.13
1013.335	352.69
1013.693	277.79
1014.051	275.45
1014.409	277.79
1014.767	312.9
1015.124	289.5
1015.482	378.44
1015.84	268.43
1016.197	336.31
1016.555	296.52
1016.912	312.9
1017.269	268.43
1017.627	326.94
1017.984	289.5
1018.341	331.62
1018.698	287.15
1019.055	298.86
1019.412	270.77
1019.769	294.18
1020.126	305.88
1020.483	270.77
1020.84	322.26
1021.196	298.86
1021.553	263.75
1021.909	256.73
1022.266	308.22
1022.622	263.75
1022.979	350.35
1023.335	338.65
1023.691	301.2
1024.047	223.96
1024.404	282.47
1024.76	348.01
1025.116	277.79
1025.472	249.71
1025.827	312.9
1026.183	329.28
1026.539	240.34
1026.895	261.41
1027.25	275.45
1027.606	282.47
1027.961	296.52
1028.317	308.22
1028.672	298.86
1029.028	268.43
1029.383	301.2
1029.738	289.5
1030.093	242.68
1030.448	383.12
1030.803	289.5
1031.158	310.56
1031.513	308.22
1031.868	340.99
1032.223	317.58
1032.577	326.94
1032.932	352.69
1033.287	294.18
1033.641	324.6
1033.996	294.18
1034.35	233.32
1034.704	303.54
1035.059	315.24
1035.413	303.54
1035.767	303.54
1036.121	303.54
