Data from Al_FLMS009871__1048__16-25-16-613.txt Node

Date: Fri Mar 08 16:25:16 CST 2024
User: pe5414po
Spectrometer: FLMS00987
Trigger mode: 0
Integration Time (sec): 1.000000E-1
Scans to average: 1
Electric dark correction enabled: true
Nonlinearity correction enabled: false
Boxcar width: 0
XAxis mode: Wavelengths
Number of Pixels in Spectrum: 2048
>>>>>Begin Spectral Data<<<<<
188.938	-102.25
189.409	-102.25
189.879	-102.25
190.349	-116.3
190.819	-142.04
191.29	-132.68
191.76	-95.23
192.23	-64.8
192.7	-120.98
193.17	-85.87
193.64	26.48
194.109	-71.83
194.579	-29.7
195.049	12.43
195.519	3.07
195.988	26.48
196.458	66.27
196.927	87.33
197.397	131.8
197.866	150.53
198.336	96.69
198.805	106.06
199.274	183.29
199.744	166.91
200.213	138.82
200.682	253.51
201.151	267.55
201.62	225.42
202.089	260.53
202.558	227.76
203.027	246.49
203.495	230.1
203.964	246.49
204.433	251.17
204.902	239.47
205.37	347.13
205.839	314.36
206.307	286.28
206.776	260.53
207.244	286.28
207.712	237.13
208.181	239.47
208.649	239.47
209.117	213.72
209.585	290.96
210.053	262.87
210.521	356.49
210.989	328.41
211.457	241.81
211.925	246.49
212.393	302.66
212.861	274.57
213.328	251.17
213.796	288.62
214.264	230.1
214.731	272.23
215.199	305
215.666	316.7
216.133	232.44
216.601	276.91
217.068	180.95
217.535	220.74
218.003	255.85
218.47	232.44
218.937	239.47
219.404	290.96
219.871	272.23
220.338	225.42
220.805	237.13
221.271	239.47
221.738	255.85
222.205	213.72
222.671	269.89
223.138	234.78
223.605	262.87
224.071	262.87
224.538	209.04
225.004	237.13
225.47	260.53
225.937	260.53
226.403	246.49
226.869	220.74
227.335	272.23
227.801	279.26
228.267	330.75
228.733	234.78
229.199	258.19
229.665	260.53
230.131	265.21
230.597	216.06
231.062	297.98
231.528	319.04
231.994	213.72
232.459	244.15
232.925	232.44
233.39	269.89
233.856	199.68
234.321	255.85
234.786	204.36
235.252	288.62
235.717	293.3
236.182	300.32
236.647	145.84
237.112	344.79
237.577	227.76
238.042	281.6
238.507	255.85
238.972	286.28
239.436	307.34
239.901	216.06
240.366	297.98
240.83	309.68
241.295	239.47
241.76	279.26
242.224	255.85
242.688	274.57
243.153	255.85
243.617	258.19
244.081	260.53
244.545	281.6
245.01	230.1
245.474	309.68
245.938	314.36
246.402	180.95
246.866	269.89
247.33	262.87
247.793	297.98
248.257	225.42
248.721	262.87
249.185	246.49
249.648	237.13
250.112	241.81
250.575	241.81
251.039	349.47
251.502	281.6
251.965	267.55
252.429	279.26
252.892	293.3
253.355	272.23
253.818	330.75
254.281	234.78
254.744	269.89
255.207	276.91
255.67	227.76
256.133	309.68
256.596	283.94
257.059	312.02
257.522	281.6
257.984	206.7
258.447	227.76
258.909	305
259.372	281.6
259.834	344.79
260.297	330.75
260.759	300.32
261.221	333.09
261.684	293.3
262.146	279.26
262.608	328.41
263.07	260.53
263.532	300.32
263.994	365.85
264.456	316.7
264.918	274.57
265.38	312.02
265.842	269.89
266.303	312.02
266.765	283.94
267.227	295.64
267.688	248.83
268.15	232.44
268.611	323.73
269.072	234.78
269.534	239.47
269.995	216.06
270.456	302.66
270.918	230.1
271.379	288.62
271.84	239.47
272.301	321.38
272.762	272.23
273.223	281.6
273.684	237.13
274.144	286.28
274.605	258.19
275.066	269.89
275.527	251.17
275.987	323.73
276.448	305
276.908	295.64
277.369	288.62
277.829	293.3
278.289	300.32
278.75	286.28
279.21	225.42
279.67	279.26
280.13	253.51
280.59	297.98
281.05	239.47
281.51	283.94
281.97	274.57
282.43	340.11
282.89	302.66
283.35	234.78
283.809	286.28
284.269	328.41
284.729	253.51
285.188	262.87
285.648	232.44
286.107	314.36
286.567	279.26
287.026	260.53
287.485	307.34
287.944	265.21
288.404	300.32
288.863	326.07
289.322	297.98
289.781	246.49
290.24	262.87
290.699	265.21
291.158	251.17
291.616	363.51
292.075	262.87
292.534	274.57
292.992	333.09
293.451	251.17
293.91	349.47
294.368	260.53
294.827	220.74
295.285	281.6
295.743	283.94
296.202	272.23
296.66	265.21
297.118	286.28
297.576	279.26
298.034	309.68
298.492	302.66
298.95	164.57
299.408	244.15
299.866	279.26
300.324	274.57
300.781	244.15
301.239	281.6
301.697	340.11
302.154	279.26
302.612	309.68
303.069	307.34
303.527	283.94
303.984	230.1
304.441	279.26
304.899	344.79
305.356	316.7
305.813	300.32
306.27	309.68
306.727	307.34
307.184	340.11
307.641	293.3
308.098	251.17
308.555	321.38
309.012	326.07
309.468	305
309.925	328.41
310.382	237.13
310.838	276.91
311.295	293.3
311.751	333.09
312.208	330.75
312.664	295.64
313.12	262.87
313.577	253.51
314.033	319.04
314.489	230.1
314.945	347.13
315.401	241.81
315.857	237.13
316.313	330.75
316.769	305
317.225	269.89
317.681	316.7
318.136	211.38
318.592	258.19
319.048	365.85
319.503	297.98
319.959	288.62
320.414	290.96
320.869	314.36
321.325	269.89
321.78	302.66
322.235	302.66
322.691	330.75
323.146	300.32
323.601	307.34
324.056	356.49
324.511	290.96
324.966	286.28
325.421	340.11
325.875	330.75
326.33	269.89
326.785	326.07
327.24	319.04
327.694	384.58
328.149	342.45
328.603	307.34
329.058	358.83
329.512	316.7
329.966	288.62
330.421	295.64
330.875	307.34
331.329	258.19
331.783	326.07
332.237	321.38
332.691	328.41
333.145	288.62
333.599	216.06
334.053	307.34
334.507	286.28
334.96	316.7
335.414	279.26
335.868	288.62
336.321	288.62
336.775	309.68
337.228	326.07
337.682	358.83
338.135	316.7
338.588	340.11
339.042	326.07
339.495	316.7
339.948	295.64
340.401	349.47
340.854	351.81
341.307	326.07
341.76	307.34
342.213	300.32
342.666	290.96
343.119	314.36
343.571	269.89
344.024	368.2
344.477	354.15
344.929	246.49
345.382	276.91
345.834	354.15
346.287	286.28
346.739	227.76
347.191	286.28
347.644	244.15
348.096	283.94
348.548	328.41
349	281.6
349.452	286.28
349.904	321.38
350.356	309.68
350.808	326.07
351.26	372.88
351.711	272.23
352.163	262.87
352.615	302.66
353.066	307.34
353.518	312.02
353.969	251.17
354.421	297.98
354.872	262.87
355.324	396.28
355.775	230.1
356.226	368.2
356.677	358.83
357.128	326.07
357.579	281.6
358.03	295.64
358.481	328.41
358.932	361.17
359.383	358.83
359.834	335.43
360.285	286.28
360.735	335.43
361.186	290.96
361.637	342.45
362.087	293.3
362.538	290.96
362.988	190.31
363.438	316.7
363.889	272.23
364.339	305
364.789	307.34
365.239	309.68
365.689	288.62
366.139	279.26
366.589	286.28
367.039	307.34
367.489	363.51
367.939	340.11
368.389	274.57
368.839	328.41
369.288	349.47
369.738	312.02
370.187	314.36
370.637	300.32
371.086	358.83
371.536	333.09
371.985	262.87
372.434	295.64
372.884	302.66
373.333	225.42
373.782	258.19
374.231	330.75
374.68	295.64
375.129	305
375.578	326.07
376.027	314.36
376.475	290.96
376.924	333.09
377.373	267.55
377.822	312.02
378.27	272.23
378.719	321.38
379.167	323.73
379.616	314.36
380.064	347.13
380.512	316.7
380.961	230.1
381.409	323.73
381.857	351.81
382.305	255.85
382.753	255.85
383.201	286.28
383.649	295.64
384.097	342.45
384.545	328.41
384.992	342.45
385.44	300.32
385.888	323.73
386.335	319.04
386.783	316.7
387.231	323.73
387.678	260.53
388.125	290.96
388.573	302.66
389.02	321.38
389.467	319.04
389.914	297.98
390.362	335.43
390.809	295.64
391.256	253.51
391.703	297.98
392.15	312.02
392.596	321.38
393.043	305
393.49	246.49
393.937	293.3
394.383	319.04
394.83	230.1
395.276	300.32
395.723	328.41
396.169	281.6
396.616	330.75
397.062	267.55
397.508	274.57
397.954	293.3
398.401	349.47
398.847	281.6
399.293	295.64
399.739	356.49
400.185	393.94
400.631	234.78
401.076	302.66
401.522	333.09
401.968	330.75
402.414	269.89
402.859	241.81
403.305	276.91
403.75	370.54
404.196	234.78
404.641	340.11
405.086	279.26
405.532	286.28
405.977	337.77
406.422	297.98
406.867	319.04
407.312	335.43
407.757	286.28
408.202	274.57
408.647	344.79
409.092	312.02
409.537	279.26
409.982	295.64
410.426	272.23
410.871	279.26
411.316	262.87
411.76	297.98
412.205	328.41
412.649	316.7
413.093	246.49
413.538	363.51
413.982	321.38
414.426	255.85
414.87	297.98
415.314	319.04
415.758	288.62
416.202	314.36
416.646	347.13
417.09	293.3
417.534	307.34
417.978	307.34
418.421	276.91
418.865	302.66
419.309	281.6
419.752	344.79
420.196	269.89
420.639	295.64
421.083	300.32
421.526	302.66
421.969	321.38
422.412	283.94
422.856	384.58
423.299	302.66
423.742	290.96
424.185	267.55
424.628	305
425.071	307.34
425.513	337.77
425.956	260.53
426.399	276.91
426.842	300.32
427.284	344.79
427.727	293.3
428.169	283.94
428.612	309.68
429.054	312.02
429.497	307.34
429.939	300.32
430.381	347.13
430.823	321.38
431.265	309.68
431.707	330.75
432.149	307.34
432.591	316.7
433.033	267.55
433.475	335.43
433.917	328.41
434.359	255.85
434.8	330.75
435.242	290.96
435.684	269.89
436.125	307.34
436.567	342.45
437.008	314.36
437.449	377.56
437.891	363.51
438.332	312.02
438.773	342.45
439.214	272.23
439.656	267.55
440.097	297.98
440.538	309.68
440.978	305
441.419	344.79
441.86	319.04
442.301	321.38
442.742	274.57
443.182	305
443.623	330.75
444.063	283.94
444.504	281.6
444.944	323.73
445.385	300.32
445.825	319.04
446.265	319.04
446.706	354.15
447.146	309.68
447.586	297.98
448.026	330.75
448.466	340.11
448.906	312.02
449.346	340.11
449.786	335.43
450.225	295.64
450.665	333.09
451.105	267.55
451.544	333.09
451.984	302.66
452.424	319.04
452.863	356.49
453.302	323.73
453.742	286.28
454.181	300.32
454.62	358.83
455.059	372.88
455.499	342.45
455.938	272.23
456.377	293.3
456.816	267.55
457.254	302.66
457.693	281.6
458.132	297.98
458.571	290.96
459.01	295.64
459.448	272.23
459.887	312.02
460.325	302.66
460.764	297.98
461.202	295.64
461.641	321.38
462.079	300.32
462.517	300.32
462.955	302.66
463.393	253.51
463.832	333.09
464.27	358.83
464.708	335.43
465.145	319.04
465.583	279.26
466.021	300.32
466.459	351.81
466.897	269.89
467.334	297.98
467.772	382.24
468.209	382.24
468.647	347.13
469.084	330.75
469.522	326.07
469.959	330.75
470.396	283.94
470.833	386.92
471.271	379.9
471.708	321.38
472.145	290.96
472.582	305
473.019	333.09
473.456	337.77
473.892	351.81
474.329	330.75
474.766	319.04
475.202	319.04
475.639	368.2
476.076	309.68
476.512	333.09
476.949	274.57
477.385	297.98
477.821	295.64
478.258	293.3
478.694	319.04
479.13	305
479.566	326.07
480.002	276.91
480.438	365.85
480.874	358.83
481.31	361.17
481.746	326.07
482.181	314.36
482.617	321.38
483.053	333.09
483.488	276.91
483.924	312.02
484.36	295.64
484.795	281.6
485.23	305
485.666	258.19
486.101	300.32
486.536	351.81
486.971	358.83
487.407	295.64
487.842	333.09
488.277	255.85
488.712	314.36
489.146	337.77
489.581	309.68
490.016	328.41
490.451	300.32
490.885	314.36
491.32	302.66
491.755	330.75
492.189	312.02
492.624	335.43
493.058	323.73
493.492	314.36
493.927	305
494.361	337.77
494.795	330.75
495.229	314.36
495.663	323.73
496.097	333.09
496.531	274.57
496.965	262.87
497.399	239.47
497.833	323.73
498.266	305
498.7	290.96
499.134	297.98
499.567	309.68
500.001	314.36
500.434	356.49
500.868	279.26
501.301	326.07
501.734	349.47
502.168	290.96
502.601	283.94
503.034	283.94
503.467	316.7
503.9	319.04
504.333	302.66
504.766	314.36
505.199	262.87
505.632	283.94
506.064	302.66
506.497	309.68
506.93	305
507.362	274.57
507.795	337.77
508.227	319.04
508.66	344.79
509.092	337.77
509.524	356.49
509.956	283.94
510.389	330.75
510.821	232.44
511.253	260.53
511.685	358.83
512.117	328.41
512.549	286.28
512.981	330.75
513.412	297.98
513.844	333.09
514.276	316.7
514.707	267.55
515.139	342.45
515.571	293.3
516.002	323.73
516.433	349.47
516.865	305
517.296	211.38
517.727	328.41
518.159	290.96
518.59	333.09
519.021	333.09
519.452	290.96
519.883	316.7
520.314	330.75
520.744	337.77
521.175	305
521.606	265.21
522.037	269.89
522.467	295.64
522.898	283.94
523.328	295.64
523.759	216.06
524.189	316.7
524.62	286.28
525.05	309.68
525.48	276.91
525.91	321.38
526.341	340.11
526.771	295.64
527.201	241.81
527.631	272.23
528.061	314.36
528.49	356.49
528.92	305
529.35	288.62
529.78	265.21
530.209	314.36
530.639	363.51
531.068	258.19
531.498	274.57
531.927	305
532.357	370.54
532.786	335.43
533.215	290.96
533.644	328.41
534.074	305
534.503	295.64
534.932	372.88
535.361	312.02
535.79	297.98
536.218	333.09
536.647	281.6
537.076	316.7
537.505	267.55
537.933	293.3
538.362	262.87
538.79	326.07
539.219	372.88
539.647	323.73
540.076	286.28
540.504	340.11
540.932	340.11
541.36	372.88
541.788	286.28
542.217	328.41
542.645	262.87
543.073	272.23
543.5	279.26
543.928	234.78
544.356	312.02
544.784	321.38
545.211	288.62
545.639	326.07
546.067	297.98
546.494	314.36
546.922	295.64
547.349	354.15
547.776	255.85
548.204	279.26
548.631	375.22
549.058	290.96
549.485	297.98
549.912	328.41
550.339	340.11
550.766	316.7
551.193	302.66
551.62	269.89
552.047	321.38
552.474	253.51
552.9	340.11
553.327	305
553.754	354.15
554.18	290.96
554.607	312.02
555.033	262.87
555.459	281.6
555.886	288.62
556.312	354.15
556.738	258.19
557.164	340.11
557.59	269.89
558.016	274.57
558.442	326.07
558.868	333.09
559.294	286.28
559.72	307.34
560.145	276.91
560.571	307.34
560.997	281.6
561.422	309.68
561.848	363.51
562.273	319.04
562.699	265.21
563.124	312.02
563.549	326.07
563.974	293.3
564.4	358.83
564.825	314.36
565.25	281.6
565.675	293.3
566.1	375.22
566.525	337.77
566.95	389.26
567.374	358.83
567.799	347.13
568.224	307.34
568.648	330.75
569.073	286.28
569.497	286.28
569.922	344.79
570.346	349.47
570.771	337.77
571.195	342.45
571.619	286.28
572.043	297.98
572.467	337.77
572.891	312.02
573.315	230.1
573.739	305
574.163	269.89
574.587	297.98
575.011	276.91
575.435	272.23
575.858	323.73
576.282	246.49
576.705	288.62
577.129	323.73
577.552	307.34
577.976	286.28
578.399	290.96
578.822	326.07
579.245	328.41
579.669	321.38
580.092	328.41
580.515	400.96
580.938	265.21
581.361	312.02
581.784	365.85
582.206	358.83
582.629	288.62
583.052	328.41
583.474	319.04
583.897	297.98
584.32	258.19
584.742	330.75
585.165	354.15
585.587	283.94
586.009	377.56
586.431	323.73
586.854	300.32
587.276	213.72
587.698	234.78
588.12	361.17
588.542	347.13
588.964	288.62
589.386	405.64
589.807	283.94
590.229	258.19
590.651	241.81
591.073	340.11
591.494	295.64
591.916	319.04
592.337	295.64
592.759	344.79
593.18	323.73
593.601	300.32
594.022	269.89
594.444	211.38
594.865	274.57
595.286	276.91
595.707	326.07
596.128	307.34
596.549	365.85
596.97	337.77
597.39	328.41
597.811	274.57
598.232	265.21
598.652	368.2
599.073	335.43
599.494	307.34
599.914	262.87
600.334	305
600.755	305
601.175	302.66
601.595	283.94
602.015	288.62
602.436	300.32
602.856	422.03
603.276	314.36
603.696	267.55
604.115	297.98
604.535	279.26
604.955	297.98
605.375	281.6
605.794	365.85
606.214	265.21
606.634	302.66
607.053	307.34
607.473	307.34
607.892	260.53
608.311	319.04
608.731	319.04
609.15	279.26
609.569	335.43
609.988	279.26
610.407	316.7
610.826	283.94
611.245	288.62
611.664	307.34
612.083	241.81
612.501	344.79
612.92	328.41
613.339	312.02
613.757	344.79
614.176	344.79
614.594	321.38
615.013	330.75
615.431	328.41
615.85	279.26
616.268	349.47
616.686	262.87
617.104	281.6
617.522	274.57
617.94	274.57
618.358	295.64
618.776	293.3
619.194	302.66
619.612	314.36
620.03	234.78
620.447	258.19
620.865	239.47
621.282	262.87
621.7	314.36
622.117	312.02
622.535	319.04
622.952	295.64
623.369	349.47
623.787	314.36
624.204	328.41
624.621	293.3
625.038	300.32
625.455	333.09
625.872	323.73
626.289	358.83
626.706	286.28
627.123	297.98
627.539	328.41
627.956	333.09
628.373	351.81
628.789	323.73
629.206	279.26
629.622	283.94
630.038	286.28
630.455	276.91
630.871	314.36
631.287	349.47
631.703	248.83
632.12	286.28
632.536	305
632.952	365.85
633.368	328.41
633.783	267.55
634.199	290.96
634.615	356.49
635.031	321.38
635.446	251.17
635.862	276.91
636.277	288.62
636.693	307.34
637.108	286.28
637.524	307.34
637.939	234.78
638.354	279.26
638.77	255.85
639.185	351.81
639.6	326.07
640.015	274.57
640.43	340.11
640.845	267.55
641.259	305
641.674	302.66
642.089	272.23
642.504	272.23
642.918	323.73
643.333	248.83
643.747	323.73
644.162	265.21
644.576	255.85
644.991	309.68
645.405	309.68
645.819	295.64
646.233	267.55
646.647	286.28
647.061	246.49
647.475	279.26
647.889	328.41
648.303	319.04
648.717	276.91
649.131	305
649.545	321.38
649.958	307.34
650.372	349.47
650.785	314.36
651.199	309.68
651.612	290.96
652.026	321.38
652.439	384.58
652.852	309.68
653.266	274.57
653.679	312.02
654.092	300.32
654.505	297.98
654.918	265.21
655.331	328.41
655.744	347.13
656.156	283.94
656.569	269.89
656.982	337.77
657.394	326.07
657.807	382.24
658.22	309.68
658.632	316.7
659.044	316.7
659.457	321.38
659.869	274.57
660.281	274.57
660.693	288.62
661.106	283.94
661.518	361.17
661.93	314.36
662.342	305
662.754	335.43
663.165	333.09
663.577	319.04
663.989	305
664.401	379.9
664.812	283.94
665.224	314.36
665.635	312.02
666.047	342.45
666.458	290.96
666.869	220.74
667.281	305
667.692	314.36
668.103	295.64
668.514	372.88
668.925	290.96
669.336	290.96
669.747	281.6
670.158	342.45
670.569	283.94
670.979	260.53
671.39	293.3
671.801	288.62
672.211	295.64
672.622	309.68
673.032	316.7
673.443	333.09
673.853	326.07
674.263	351.81
674.674	283.94
675.084	209.04
675.494	319.04
675.904	246.49
676.314	323.73
676.724	337.77
677.134	286.28
677.544	288.62
677.953	356.49
678.363	319.04
678.773	386.92
679.182	319.04
679.592	241.81
680.001	340.11
680.411	283.94
680.82	290.96
681.23	288.62
681.639	288.62
682.048	333.09
682.457	305
682.866	368.2
683.275	260.53
683.684	293.3
684.093	262.87
684.502	281.6
684.911	370.54
685.32	283.94
685.728	286.28
686.137	293.3
686.546	335.43
686.954	314.36
687.363	290.96
687.771	290.96
688.179	323.73
688.588	265.21
688.996	258.19
689.404	260.53
689.812	330.75
690.22	290.96
690.628	281.6
691.036	290.96
691.444	288.62
691.852	281.6
692.26	279.26
692.667	274.57
693.075	297.98
693.483	312.02
693.89	283.94
694.298	297.98
694.705	328.41
695.112	274.57
695.52	290.96
695.927	286.28
696.334	316.7
696.741	312.02
697.148	258.19
697.555	307.34
697.962	309.68
698.369	307.34
698.776	258.19
699.183	309.68
699.59	312.02
699.996	269.89
700.403	265.21
700.81	314.36
701.216	265.21
701.623	319.04
702.029	302.66
702.435	290.96
702.842	267.55
703.248	314.36
703.654	307.34
704.06	248.83
704.466	283.94
704.872	272.23
705.278	290.96
705.684	297.98
706.09	267.55
706.496	267.55
706.901	316.7
707.307	372.88
707.712	307.34
708.118	276.91
708.523	309.68
708.929	316.7
709.334	260.53
709.74	274.57
710.145	300.32
710.55	316.7
710.955	358.83
711.36	269.89
711.765	319.04
712.17	321.38
712.575	330.75
712.98	782.47
713.385	312.02
713.789	274.57
714.194	253.51
714.599	234.78
715.003	272.23
715.408	281.6
715.812	323.73
716.217	279.26
716.621	260.53
717.025	288.62
717.429	312.02
717.833	342.45
718.238	260.53
718.642	279.26
719.046	349.47
719.449	305
719.853	314.36
720.257	237.13
720.661	293.3
721.065	342.45
721.468	337.77
721.872	337.77
722.275	314.36
722.679	295.64
723.082	337.77
723.485	279.26
723.889	279.26
724.292	314.36
724.695	356.49
725.098	358.83
725.501	246.49
725.904	288.62
726.307	272.23
726.71	288.62
727.113	295.64
727.516	290.96
727.918	312.02
728.321	344.79
728.724	297.98
729.126	305
729.529	330.75
729.931	286.28
730.333	297.98
730.736	241.81
731.138	220.74
731.54	365.85
731.942	305
732.344	326.07
732.746	316.7
733.148	328.41
733.55	321.38
733.952	309.68
734.354	218.4
734.756	283.94
735.157	307.34
735.559	319.04
735.96	288.62
736.362	230.1
736.763	356.49
737.165	372.88
737.566	227.76
737.967	302.66
738.368	244.15
738.77	326.07
739.171	354.15
739.572	347.13
739.973	305
740.374	302.66
740.774	288.62
741.175	344.79
741.576	283.94
741.977	337.77
742.377	272.23
742.778	293.3
743.178	335.43
743.579	305
743.979	321.38
744.379	316.7
744.78	300.32
745.18	354.15
745.58	323.73
745.98	342.45
746.38	265.21
746.78	372.88
747.18	368.2
747.58	300.32
747.98	337.77
748.38	323.73
748.779	354.15
749.179	225.42
749.578	312.02
749.978	288.62
750.377	305
750.777	330.75
751.176	237.13
751.575	323.73
751.975	293.3
752.374	319.04
752.773	305
753.172	267.55
753.571	365.85
753.97	328.41
754.369	316.7
754.768	347.13
755.166	290.96
755.565	326.07
755.964	349.47
756.362	354.15
756.761	246.49
757.159	312.02
757.558	283.94
757.956	295.64
758.354	312.02
758.753	295.64
759.151	347.13
759.549	323.73
759.947	300.32
760.345	295.64
760.743	361.17
761.141	344.79
761.539	258.19
761.936	293.3
762.334	276.91
762.732	290.96
763.129	354.15
763.527	333.09
763.924	351.81
764.322	314.36
764.719	307.34
765.117	368.2
765.514	290.96
765.911	314.36
766.308	319.04
766.705	312.02
767.102	314.36
767.499	237.13
767.896	347.13
768.293	283.94
768.69	337.77
769.086	347.13
769.483	286.28
769.88	312.02
770.276	305
770.673	358.83
771.069	269.89
771.466	337.77
771.862	309.68
772.258	361.17
772.654	281.6
773.05	344.79
773.447	288.62
773.843	386.92
774.239	300.32
774.634	382.24
775.03	297.98
775.426	279.26
775.822	314.36
776.218	288.62
776.613	363.51
777.009	293.3
777.404	335.43
777.8	258.19
778.195	302.66
778.59	316.7
778.986	300.32
779.381	368.2
779.776	309.68
780.171	365.85
780.566	354.15
780.961	260.53
781.356	295.64
781.751	340.11
782.146	297.98
782.54	288.62
782.935	274.57
783.33	305
783.724	281.6
784.119	237.13
784.513	326.07
784.908	295.64
785.302	230.1
785.696	312.02
786.09	314.36
786.485	354.15
786.879	286.28
787.273	295.64
787.667	272.23
788.061	276.91
788.454	255.85
788.848	267.55
789.242	244.15
789.636	312.02
790.029	272.23
790.423	356.49
790.816	333.09
791.21	269.89
791.603	286.28
791.997	344.79
792.39	265.21
792.783	333.09
793.176	279.26
793.569	337.77
793.962	283.94
794.355	290.96
794.748	248.83
795.141	232.44
795.534	293.3
795.927	276.91
796.319	312.02
796.712	295.64
797.105	377.56
797.497	337.77
797.89	319.04
798.282	379.9
798.674	347.13
799.067	267.55
799.459	312.02
799.851	349.47
800.243	262.87
800.635	241.81
801.027	328.41
801.419	286.28
801.811	323.73
802.203	232.44
802.594	293.3
802.986	330.75
803.378	328.41
803.769	262.87
804.161	269.89
804.552	305
804.944	272.23
805.335	330.75
805.726	302.66
806.118	307.34
806.509	300.32
806.9	255.85
807.291	286.28
807.682	262.87
808.073	302.66
808.464	307.34
808.855	281.6
809.245	300.32
809.636	335.43
810.027	356.49
810.417	307.34
810.808	255.85
811.198	321.38
811.589	265.21
811.979	368.2
812.369	241.81
812.759	253.51
813.15	300.32
813.54	267.55
813.93	328.41
814.32	293.3
814.71	246.49
815.1	326.07
815.489	258.19
815.879	307.34
816.269	305
816.658	286.28
817.048	269.89
817.438	276.91
817.827	297.98
818.216	295.64
818.606	323.73
818.995	349.47
819.384	375.22
819.773	316.7
820.163	393.94
820.552	323.73
820.941	319.04
821.33	297.98
821.718	326.07
822.107	251.17
822.496	295.64
822.885	363.51
823.273	340.11
823.662	312.02
824.05	340.11
824.439	281.6
824.827	251.17
825.216	323.73
825.604	351.81
825.992	248.83
826.38	354.15
826.768	279.26
827.156	314.36
827.544	253.51
827.932	290.96
828.32	241.81
828.708	344.79
829.096	347.13
829.483	255.85
829.871	283.94
830.259	279.26
830.646	349.47
831.034	251.17
831.421	351.81
831.808	281.6
832.196	293.3
832.583	319.04
832.97	269.89
833.357	272.23
833.744	312.02
834.131	337.77
834.518	279.26
834.905	297.98
835.292	251.17
835.678	314.36
836.065	302.66
836.452	293.3
836.838	297.98
837.225	312.02
837.611	295.64
837.998	337.77
838.384	309.68
838.77	302.66
839.157	202.02
839.543	309.68
839.929	316.7
840.315	363.51
840.701	281.6
841.087	281.6
841.473	321.38
841.858	279.26
842.244	297.98
842.63	312.02
843.015	340.11
843.401	515.65
843.787	246.49
844.172	316.7
844.557	309.68
844.943	347.13
845.328	269.89
845.713	379.9
846.098	312.02
846.483	246.49
846.868	251.17
847.253	237.13
847.638	347.13
848.023	305
848.408	300.32
848.793	307.34
849.177	305
849.562	293.3
849.947	281.6
850.331	283.94
850.715	349.47
851.1	314.36
851.484	337.77
851.868	340.11
852.253	286.28
852.637	319.04
853.021	351.81
853.405	307.34
853.789	295.64
854.173	309.68
854.557	344.79
854.94	244.15
855.324	251.17
855.708	342.45
856.091	251.17
856.475	326.07
856.858	354.15
857.242	330.75
857.625	323.73
858.009	279.26
858.392	293.3
858.775	330.75
859.158	267.55
859.541	272.23
859.924	326.07
860.307	370.54
860.69	286.28
861.073	267.55
861.456	265.21
861.838	307.34
862.221	337.77
862.604	281.6
862.986	323.73
863.369	337.77
863.751	321.38
864.133	288.62
864.516	246.49
864.898	351.81
865.28	326.07
865.662	309.68
866.044	316.7
866.426	342.45
866.808	276.91
867.19	283.94
867.572	279.26
867.954	344.79
868.336	309.68
868.717	286.28
869.099	309.68
869.48	326.07
869.862	330.75
870.243	307.34
870.625	309.68
871.006	307.34
871.387	213.72
871.768	286.28
872.149	307.34
872.53	260.53
872.911	326.07
873.292	330.75
873.673	305
874.054	288.62
874.435	297.98
874.815	241.81
875.196	328.41
875.577	253.51
875.957	326.07
876.338	297.98
876.718	269.89
877.098	288.62
877.479	302.66
877.859	246.49
878.239	321.38
878.619	321.38
878.999	274.57
879.379	272.23
879.759	295.64
880.139	300.32
880.519	239.47
880.898	323.73
881.278	260.53
881.658	328.41
882.037	316.7
882.417	248.83
882.796	300.32
883.176	269.89
883.555	321.38
883.934	321.38
884.313	295.64
884.693	302.66
885.072	283.94
885.451	314.36
885.83	300.32
886.209	253.51
886.587	272.23
886.966	258.19
887.345	267.55
887.724	335.43
888.102	293.3
888.481	363.51
888.859	300.32
889.238	248.83
889.616	255.85
889.994	300.32
890.373	326.07
890.751	307.34
891.129	286.28
891.507	258.19
891.885	358.83
892.263	297.98
892.641	326.07
893.019	314.36
893.396	314.36
893.774	333.09
894.152	279.26
894.529	335.43
894.907	347.13
895.284	281.6
895.662	337.77
896.039	330.75
896.416	349.47
896.794	326.07
897.171	302.66
897.548	321.38
897.925	300.32
898.302	333.09
898.679	279.26
899.056	272.23
899.433	337.77
899.809	260.53
900.186	290.96
900.563	316.7
900.939	260.53
901.316	255.85
901.692	204.36
902.069	354.15
902.445	382.24
902.821	279.26
903.197	244.15
903.574	330.75
903.95	302.66
904.326	335.43
904.702	260.53
905.078	330.75
905.454	276.91
905.829	276.91
906.205	302.66
906.581	302.66
906.956	319.04
907.332	276.91
907.707	309.68
908.083	342.45
908.458	258.19
908.833	274.57
909.209	314.36
909.584	326.07
909.959	220.74
910.334	286.28
910.709	253.51
911.084	286.28
911.459	349.47
911.834	328.41
912.209	337.77
912.583	321.38
912.958	328.41
913.333	230.1
913.707	344.79
914.082	307.34
914.456	258.19
914.83	283.94
915.205	309.68
915.579	255.85
915.953	344.79
916.327	328.41
916.701	351.81
917.075	326.07
917.449	267.55
917.823	307.34
918.197	302.66
918.571	305
918.944	321.38
919.318	314.36
919.692	321.38
920.065	305
920.438	309.68
920.812	314.36
921.185	361.17
921.558	319.04
921.932	309.68
922.305	349.47
922.678	370.54
923.051	328.41
923.424	340.11
923.797	312.02
924.17	290.96
924.542	286.28
924.915	283.94
925.288	276.91
925.661	262.87
926.033	316.7
926.406	272.23
926.778	258.19
927.15	272.23
927.523	312.02
927.895	368.2
928.267	255.85
928.639	290.96
929.011	330.75
929.383	323.73
929.755	333.09
930.127	309.68
930.499	302.66
930.871	272.23
931.242	323.73
931.614	305
931.986	274.57
932.357	305
932.729	293.3
933.1	305
933.471	365.85
933.843	281.6
934.214	300.32
934.585	337.77
934.956	262.87
935.327	312.02
935.698	241.81
936.069	340.11
936.44	344.79
936.811	335.43
937.182	323.73
937.552	302.66
937.923	290.96
938.293	335.43
938.664	265.21
939.034	309.68
939.405	253.51
939.775	312.02
940.145	307.34
940.516	333.09
940.886	283.94
941.256	293.3
941.626	290.96
941.996	316.7
942.366	290.96
942.735	295.64
943.105	305
943.475	335.43
943.845	312.02
944.214	307.34
944.584	309.68
944.953	305
945.323	321.38
945.692	262.87
946.061	349.47
946.43	297.98
946.8	286.28
947.169	276.91
947.538	237.13
947.907	295.64
948.276	312.02
948.645	290.96
949.013	379.9
949.382	262.87
949.751	300.32
950.119	319.04
950.488	326.07
950.857	300.32
951.225	288.62
951.593	293.3
951.962	330.75
952.33	326.07
952.698	293.3
953.066	283.94
953.434	244.15
953.802	267.55
954.17	237.13
954.538	347.13
954.906	281.6
955.274	349.47
955.642	319.04
956.009	239.47
956.377	227.76
956.744	241.81
957.112	211.38
957.479	279.26
957.847	342.45
958.214	290.96
958.581	386.92
958.948	314.36
959.315	321.38
959.683	347.13
960.05	232.44
960.416	323.73
960.783	267.55
961.15	333.09
961.517	349.47
961.884	330.75
962.25	276.91
962.617	305
962.983	319.04
963.35	314.36
963.716	295.64
964.082	281.6
964.449	370.54
964.815	255.85
965.181	323.73
965.547	290.96
965.913	307.34
966.279	253.51
966.645	319.04
967.011	295.64
967.377	335.43
967.742	269.89
968.108	269.89
968.474	255.85
968.839	337.77
969.205	363.51
969.57	293.3
969.935	302.66
970.301	267.55
970.666	283.94
971.031	354.15
971.396	248.83
971.761	305
972.126	323.73
972.491	276.91
972.856	209.04
973.221	225.42
973.586	309.68
973.95	253.51
974.315	253.51
974.679	286.28
975.044	326.07
975.408	255.85
975.773	227.76
976.137	326.07
976.501	290.96
976.866	330.75
977.23	370.54
977.594	248.83
977.958	316.7
978.322	297.98
978.686	314.36
979.049	272.23
979.413	314.36
979.777	265.21
980.141	279.26
980.504	248.83
980.868	283.94
981.231	290.96
981.595	253.51
981.958	307.34
982.321	305
982.684	290.96
983.048	302.66
983.411	316.7
983.774	283.94
984.137	323.73
984.5	335.43
984.862	314.36
985.225	307.34
985.588	319.04
985.951	328.41
986.313	326.07
986.676	258.19
987.038	349.47
987.401	204.36
987.763	340.11
988.125	321.38
988.488	333.09
988.85	314.36
989.212	312.02
989.574	272.23
989.936	262.87
990.298	262.87
990.66	323.73
991.022	356.49
991.383	241.81
991.745	344.79
992.107	237.13
992.468	286.28
992.83	349.47
993.191	297.98
993.553	293.3
993.914	365.85
994.275	276.91
994.637	290.96
994.998	288.62
995.359	314.36
995.72	330.75
996.081	314.36
996.442	279.26
996.803	312.02
997.163	276.91
997.524	253.51
997.885	319.04
998.245	297.98
998.606	290.96
998.966	305
999.327	274.57
999.687	372.88
1000.047	269.89
1000.408	335.43
1000.768	319.04
1001.128	309.68
1001.488	293.3
1001.848	326.07
1002.208	316.7
1002.568	288.62
1002.927	340.11
1003.287	351.81
1003.647	307.34
1004.007	326.07
1004.366	297.98
1004.726	276.91
1005.085	333.09
1005.444	293.3
1005.804	344.79
1006.163	297.98
1006.522	342.45
1006.881	272.23
1007.24	234.78
1007.599	227.76
1007.958	269.89
1008.317	290.96
1008.676	312.02
1009.035	293.3
1009.393	347.13
1009.752	293.3
1010.111	293.3
1010.469	244.15
1010.828	300.32
1011.186	288.62
1011.544	323.73
1011.903	290.96
1012.261	297.98
1012.619	316.7
1012.977	344.79
1013.335	309.68
1013.693	354.15
1014.051	279.26
1014.409	302.66
1014.767	312.02
1015.124	340.11
1015.482	274.57
1015.84	330.75
1016.197	295.64
1016.555	295.64
1016.912	300.32
1017.269	314.36
1017.627	323.73
1017.984	333.09
1018.341	342.45
1018.698	260.53
1019.055	300.32
1019.412	337.77
1019.769	286.28
1020.126	286.28
1020.483	372.88
1020.84	312.02
1021.196	293.3
1021.553	333.09
1021.909	305
1022.266	269.89
1022.622	281.6
1022.979	337.77
1023.335	305
1023.691	342.45
1024.047	283.94
1024.404	293.3
1024.76	279.26
1025.116	276.91
1025.472	276.91
1025.827	290.96
1026.183	342.45
1026.539	326.07
1026.895	309.68
1027.25	262.87
1027.606	316.7
1027.961	309.68
1028.317	302.66
1028.672	321.38
1029.028	321.38
1029.383	297.98
1029.738	302.66
1030.093	328.41
1030.448	281.6
1030.803	319.04
1031.158	279.26
1031.513	309.68
1031.868	344.79
1032.223	321.38
1032.577	288.62
1032.932	302.66
1033.287	321.38
1033.641	321.38
1033.996	295.64
1034.35	297.98
1034.704	314.36
1035.059	309.68
1035.413	295.64
1035.767	295.64
1036.121	295.64
