Data from Al_FLMS009871__1046__16-25-16-413.txt Node

Date: Fri Mar 08 16:25:16 CST 2024
User: pe5414po
Spectrometer: FLMS00987
Trigger mode: 0
Integration Time (sec): 1.000000E-1
Scans to average: 1
Electric dark correction enabled: true
Nonlinearity correction enabled: false
Boxcar width: 0
XAxis mode: Wavelengths
Number of Pixels in Spectrum: 2048
>>>>>Begin Spectral Data<<<<<
188.938	-18.43
189.409	-18.43
189.879	-18.43
190.349	-72.26
190.819	-90.99
191.29	-100.35
191.76	-128.44
192.23	-67.58
192.7	-79.29
193.17	-23.11
193.64	-74.6
194.109	-51.2
194.579	-48.86
195.049	-37.16
195.519	9.65
195.988	77.53
196.458	131.36
196.927	26.04
197.397	96.25
197.866	119.66
198.336	150.09
198.805	217.96
199.274	199.24
199.744	164.13
200.213	152.43
200.682	222.64
201.151	159.45
201.62	253.07
202.089	220.3
202.558	327.97
203.027	246.05
203.495	255.41
203.964	274.14
204.433	229.67
204.902	288.18
205.37	342.01
205.839	299.88
206.307	281.16
206.776	285.84
207.244	292.86
207.712	398.18
208.181	246.05
208.649	339.67
209.117	276.48
209.585	299.88
210.053	309.24
210.521	304.56
210.989	290.52
211.457	290.52
211.925	278.82
212.393	222.64
212.861	239.03
213.328	297.54
213.796	274.14
214.264	288.18
214.731	302.22
215.199	299.88
215.666	283.5
216.133	281.16
216.601	227.32
217.068	295.2
217.535	260.09
218.003	281.16
218.47	320.95
218.937	248.39
219.404	257.75
219.871	241.37
220.338	260.09
220.805	239.03
221.271	276.48
221.738	267.11
222.205	213.28
222.671	274.14
223.138	224.98
223.605	229.67
224.071	271.79
224.538	288.18
225.004	243.71
225.47	288.18
225.937	262.43
226.403	260.09
226.869	269.45
227.335	264.77
227.801	292.86
228.267	213.28
228.733	283.5
229.199	250.73
229.665	253.07
230.131	327.97
230.597	269.45
231.062	295.2
231.528	232.01
231.994	288.18
232.459	250.73
232.925	246.05
233.39	253.07
233.856	288.18
234.321	306.9
234.786	236.69
235.252	356.05
235.717	292.86
236.182	349.03
236.647	274.14
237.112	285.84
237.577	278.82
238.042	281.16
238.507	304.56
238.972	267.11
239.436	271.79
239.901	330.31
240.366	297.54
240.83	257.75
241.295	281.16
241.76	330.31
242.224	285.84
242.688	288.18
243.153	253.07
243.617	320.95
244.081	313.92
244.545	299.88
245.01	297.54
245.474	292.86
245.938	290.52
246.402	304.56
246.866	288.18
247.33	283.5
247.793	309.24
248.257	344.35
248.721	276.48
249.185	260.09
249.648	276.48
250.112	330.31
250.575	334.99
251.039	253.07
251.502	316.26
251.965	365.42
252.429	276.48
252.892	246.05
253.355	306.9
253.818	292.86
254.281	250.73
254.744	304.56
255.207	290.52
255.67	283.5
256.133	295.2
256.596	269.45
257.059	327.97
257.522	297.54
257.984	290.52
258.447	313.92
258.909	274.14
259.372	349.03
259.834	316.26
260.297	311.58
260.759	248.39
261.221	365.42
261.684	281.16
262.146	283.5
262.608	337.33
263.07	309.24
263.532	274.14
263.994	302.22
264.456	281.16
264.918	334.99
265.38	306.9
265.842	271.79
266.303	304.56
266.765	236.69
267.227	288.18
267.688	278.82
268.15	264.77
268.611	327.97
269.072	337.33
269.534	325.63
269.995	250.73
270.456	220.3
270.918	339.67
271.379	274.14
271.84	278.82
272.301	227.32
272.762	285.84
273.223	342.01
273.684	276.48
274.144	325.63
274.605	239.03
275.066	318.61
275.527	365.42
275.987	313.92
276.448	288.18
276.908	299.88
277.369	358.39
277.829	278.82
278.289	248.39
278.75	330.31
279.21	302.22
279.67	271.79
280.13	302.22
280.59	290.52
281.05	224.98
281.51	337.33
281.97	316.26
282.43	313.92
282.89	320.95
283.35	297.54
283.809	339.67
284.269	316.26
284.729	201.58
285.188	299.88
285.648	227.32
286.107	248.39
286.567	292.86
287.026	351.37
287.485	283.5
287.944	276.48
288.404	356.05
288.863	332.65
289.322	253.07
289.781	253.07
290.24	323.29
290.699	297.54
291.158	267.11
291.616	316.26
292.075	302.22
292.534	337.33
292.992	297.54
293.451	220.3
293.91	302.22
294.368	346.69
294.827	278.82
295.285	297.54
295.743	327.97
296.202	276.48
296.66	278.82
297.118	311.58
297.576	377.12
298.034	283.5
298.492	243.71
298.95	274.14
299.408	309.24
299.866	295.2
300.324	342.01
300.781	311.58
301.239	281.16
301.697	363.08
302.154	327.97
302.612	318.61
303.069	257.75
303.527	302.22
303.984	250.73
304.441	283.5
304.899	334.99
305.356	337.33
305.813	304.56
306.27	344.35
306.727	313.92
307.184	325.63
307.641	302.22
308.098	271.79
308.555	306.9
309.012	342.01
309.468	353.71
309.925	299.88
310.382	292.86
310.838	288.18
311.295	290.52
311.751	316.26
312.208	297.54
312.664	295.2
313.12	297.54
313.577	278.82
314.033	339.67
314.489	302.22
314.945	318.61
315.401	274.14
315.857	292.86
316.313	295.2
316.769	346.69
317.225	381.8
317.681	318.61
318.136	281.16
318.592	285.84
319.048	292.86
319.503	349.03
319.959	311.58
320.414	302.22
320.869	304.56
321.325	295.2
321.78	365.42
322.235	276.48
322.691	365.42
323.146	342.01
323.601	257.75
324.056	367.76
324.511	309.24
324.966	274.14
325.421	304.56
325.875	313.92
326.33	337.33
326.785	250.73
327.24	318.61
327.694	337.33
328.149	304.56
328.603	306.9
329.058	306.9
329.512	325.63
329.966	292.86
330.421	267.11
330.875	349.03
331.329	320.95
331.783	260.09
332.237	276.48
332.691	337.33
333.145	309.24
333.599	295.2
334.053	222.64
334.507	299.88
334.96	283.5
335.414	274.14
335.868	309.24
336.321	334.99
336.775	334.99
337.228	356.05
337.682	313.92
338.135	288.18
338.588	320.95
339.042	330.31
339.495	353.71
339.948	337.33
340.401	260.09
340.854	318.61
341.307	267.11
341.76	306.9
342.213	302.22
342.666	260.09
343.119	283.5
343.571	332.65
344.024	330.31
344.477	323.29
344.929	311.58
345.382	309.24
345.834	351.37
346.287	374.78
346.739	262.43
347.191	332.65
347.644	260.09
348.096	295.2
348.548	381.8
349	330.31
349.452	313.92
349.904	306.9
350.356	299.88
350.808	386.48
351.26	327.97
351.711	313.92
352.163	325.63
352.615	353.71
353.066	290.52
353.518	330.31
353.969	271.79
354.421	311.58
354.872	320.95
355.324	353.71
355.775	295.2
356.226	372.44
356.677	323.29
357.128	285.84
357.579	292.86
358.03	365.42
358.481	278.82
358.932	271.79
359.383	304.56
359.834	332.65
360.285	344.35
360.735	320.95
361.186	292.86
361.637	337.33
362.087	327.97
362.538	320.95
362.988	356.05
363.438	299.88
363.889	330.31
364.339	344.35
364.789	323.29
365.239	302.22
365.689	395.84
366.139	299.88
366.589	316.26
367.039	276.48
367.489	299.88
367.939	281.16
368.389	306.9
368.839	344.35
369.288	337.33
369.738	306.9
370.187	386.48
370.637	283.5
371.086	349.03
371.536	302.22
371.985	372.44
372.434	342.01
372.884	351.37
373.333	332.65
373.782	313.92
374.231	292.86
374.68	356.05
375.129	342.01
375.578	384.14
376.027	281.16
376.475	356.05
376.924	358.39
377.373	360.74
377.822	349.03
378.27	306.9
378.719	339.67
379.167	295.2
379.616	323.29
380.064	356.05
380.512	344.35
380.961	299.88
381.409	388.82
381.857	393.5
382.305	330.31
382.753	255.41
383.201	288.18
383.649	332.65
384.097	358.39
384.545	440.31
384.992	304.56
385.44	278.82
385.888	239.03
386.335	356.05
386.783	363.08
387.231	327.97
387.678	325.63
388.125	337.33
388.573	349.03
389.02	283.5
389.467	288.18
389.914	372.44
390.362	325.63
390.809	318.61
391.256	327.97
391.703	377.12
392.15	325.63
392.596	330.31
393.043	274.14
393.49	292.86
393.937	332.65
394.383	349.03
394.83	313.92
395.276	346.69
395.723	356.05
396.169	327.97
396.616	370.1
397.062	346.69
397.508	264.77
397.954	330.31
398.401	306.9
398.847	402.86
399.293	358.39
399.739	327.97
400.185	290.52
400.631	367.76
401.076	358.39
401.522	290.52
401.968	302.22
402.414	381.8
402.859	360.74
403.305	318.61
403.75	339.67
404.196	342.01
404.641	283.5
405.086	356.05
405.532	316.26
405.977	327.97
406.422	337.33
406.867	295.2
407.312	372.44
407.757	349.03
408.202	283.5
408.647	334.99
409.092	370.1
409.537	358.39
409.982	370.1
410.426	323.29
410.871	306.9
411.316	295.2
411.76	276.48
412.205	327.97
412.649	318.61
413.093	297.54
413.538	281.16
413.982	360.74
414.426	353.71
414.87	306.9
415.314	334.99
415.758	334.99
416.202	304.56
416.646	316.26
417.09	339.67
417.534	316.26
417.978	311.58
418.421	323.29
418.865	292.86
419.309	370.1
419.752	306.9
420.196	398.18
420.639	309.24
421.083	360.74
421.526	360.74
421.969	292.86
422.412	299.88
422.856	306.9
423.299	313.92
423.742	281.16
424.185	313.92
424.628	311.58
425.071	344.35
425.513	370.1
425.956	269.45
426.399	370.1
426.842	384.14
427.284	325.63
427.727	346.69
428.169	339.67
428.612	327.97
429.054	358.39
429.497	363.08
429.939	283.5
430.381	327.97
430.823	288.18
431.265	285.84
431.707	363.08
432.149	327.97
432.591	297.54
433.033	330.31
433.475	313.92
433.917	297.54
434.359	292.86
434.8	320.95
435.242	248.39
435.684	299.88
436.125	334.99
436.567	337.33
437.008	332.65
437.449	356.05
437.891	316.26
438.332	302.22
438.773	316.26
439.214	327.97
439.656	288.18
440.097	297.54
440.538	313.92
440.978	283.5
441.419	339.67
441.86	320.95
442.301	334.99
442.742	299.88
443.182	346.69
443.623	295.2
444.063	239.03
444.504	274.14
444.944	325.63
445.385	278.82
445.825	327.97
446.265	374.78
446.706	299.88
447.146	246.05
447.586	320.95
448.026	302.22
448.466	320.95
448.906	386.48
449.346	309.24
449.786	323.29
450.225	327.97
450.665	318.61
451.105	356.05
451.544	330.31
451.984	299.88
452.424	316.26
452.863	306.9
453.302	325.63
453.742	309.24
454.181	306.9
454.62	297.54
455.059	288.18
455.499	325.63
455.938	320.95
456.377	311.58
456.816	288.18
457.254	334.99
457.693	334.99
458.132	323.29
458.571	276.48
459.01	334.99
459.448	330.31
459.887	306.9
460.325	370.1
460.764	290.52
461.202	288.18
461.641	323.29
462.079	311.58
462.517	337.33
462.955	283.5
463.393	302.22
463.832	370.1
464.27	342.01
464.708	311.58
465.145	332.65
465.583	318.61
466.021	318.61
466.459	332.65
466.897	337.33
467.334	356.05
467.772	325.63
468.209	381.8
468.647	257.75
469.084	302.22
469.522	344.35
469.959	297.54
470.396	306.9
470.833	323.29
471.271	285.84
471.708	241.37
472.145	358.39
472.582	292.86
473.019	313.92
473.456	318.61
473.892	302.22
474.329	351.37
474.766	323.29
475.202	318.61
475.639	306.9
476.076	332.65
476.512	342.01
476.949	360.74
477.385	316.26
477.821	302.22
478.258	290.52
478.694	281.16
479.13	342.01
479.566	278.82
480.002	393.5
480.438	316.26
480.874	325.63
481.31	295.2
481.746	320.95
482.181	377.12
482.617	260.09
483.053	334.99
483.488	342.01
483.924	370.1
484.36	299.88
484.795	344.35
485.23	288.18
485.666	388.82
486.101	374.78
486.536	344.35
486.971	363.08
487.407	274.14
487.842	374.78
488.277	367.76
488.712	320.95
489.146	377.12
489.581	313.92
490.016	325.63
490.451	342.01
490.885	318.61
491.32	309.24
491.755	356.05
492.189	316.26
492.624	215.62
493.058	320.95
493.492	325.63
493.927	330.31
494.361	334.99
494.795	334.99
495.229	374.78
495.663	283.5
496.097	360.74
496.531	325.63
496.965	381.8
497.399	330.31
497.833	384.14
498.266	304.56
498.7	334.99
499.134	339.67
499.567	346.69
500.001	367.76
500.434	337.33
500.868	330.31
501.301	271.79
501.734	302.22
502.168	248.39
502.601	297.54
503.034	313.92
503.467	306.9
503.9	356.05
504.333	323.29
504.766	306.9
505.199	318.61
505.632	325.63
506.064	320.95
506.497	412.23
506.93	330.31
507.362	330.31
507.795	316.26
508.227	327.97
508.66	306.9
509.092	309.24
509.524	299.88
509.956	344.35
510.389	353.71
510.821	334.99
511.253	334.99
511.685	330.31
512.117	283.5
512.549	377.12
512.981	260.09
513.412	320.95
513.844	370.1
514.276	332.65
514.707	342.01
515.139	278.82
515.571	337.33
516.002	323.29
516.433	337.33
516.865	388.82
517.296	330.31
517.727	306.9
518.159	365.42
518.59	405.21
519.021	239.03
519.452	370.1
519.883	311.58
520.314	311.58
520.744	285.84
521.175	290.52
521.606	337.33
522.037	318.61
522.467	346.69
522.898	332.65
523.328	330.31
523.759	344.35
524.189	386.48
524.62	325.63
525.05	393.5
525.48	332.65
525.91	264.77
526.341	290.52
526.771	339.67
527.201	339.67
527.631	346.69
528.061	295.2
528.49	316.26
528.92	346.69
529.35	342.01
529.78	283.5
530.209	304.56
530.639	372.44
531.068	325.63
531.498	262.43
531.927	370.1
532.357	356.05
532.786	353.71
533.215	367.76
533.644	367.76
534.074	281.16
534.503	358.39
534.932	311.58
535.361	318.61
535.79	370.1
536.218	358.39
536.647	388.82
537.076	295.2
537.505	292.86
537.933	327.97
538.362	332.65
538.79	313.92
539.219	271.79
539.647	327.97
540.076	306.9
540.504	290.52
540.932	318.61
541.36	288.18
541.788	358.39
542.217	264.77
542.645	339.67
543.073	297.54
543.5	339.67
543.928	360.74
544.356	342.01
544.784	342.01
545.211	255.41
545.639	276.48
546.067	356.05
546.494	285.84
546.922	295.2
547.349	318.61
547.776	388.82
548.204	358.39
548.631	342.01
549.058	327.97
549.485	306.9
549.912	276.48
550.339	332.65
550.766	323.29
551.193	344.35
551.62	428.61
552.047	346.69
552.474	271.79
552.9	313.92
553.327	320.95
553.754	325.63
554.18	339.67
554.607	246.05
555.033	285.84
555.459	346.69
555.886	330.31
556.312	267.11
556.738	351.37
557.164	285.84
557.59	292.86
558.016	318.61
558.442	309.24
558.868	318.61
559.294	323.29
559.72	299.88
560.145	297.54
560.571	381.8
560.997	278.82
561.422	327.97
561.848	330.31
562.273	344.35
562.699	297.54
563.124	292.86
563.549	311.58
563.974	313.92
564.4	316.26
564.825	325.63
565.25	342.01
565.675	295.2
566.1	327.97
566.525	358.39
566.95	302.22
567.374	290.52
567.799	215.62
568.224	297.54
568.648	290.52
569.073	332.65
569.497	320.95
569.922	334.99
570.346	349.03
570.771	367.76
571.195	374.78
571.619	388.82
572.043	395.84
572.467	370.1
572.891	299.88
573.315	353.71
573.739	337.33
574.163	299.88
574.587	313.92
575.011	334.99
575.435	320.95
575.858	311.58
576.282	339.67
576.705	267.11
577.129	363.08
577.552	327.97
577.976	276.48
578.399	290.52
578.822	309.24
579.245	302.22
579.669	320.95
580.092	351.37
580.515	330.31
580.938	330.31
581.361	351.37
581.784	346.69
582.206	327.97
582.629	299.88
583.052	346.69
583.474	370.1
583.897	306.9
584.32	246.05
584.742	372.44
585.165	395.84
585.587	402.86
586.009	330.31
586.431	374.78
586.854	260.09
587.276	332.65
587.698	330.31
588.12	257.75
588.542	302.22
588.964	353.71
589.386	327.97
589.807	388.82
590.229	332.65
590.651	360.74
591.073	316.26
591.494	316.26
591.916	365.42
592.337	332.65
592.759	309.24
593.18	330.31
593.601	306.9
594.022	306.9
594.444	384.14
594.865	297.54
595.286	299.88
595.707	353.71
596.128	311.58
596.549	386.48
596.97	353.71
597.39	288.18
597.811	395.84
598.232	281.16
598.652	290.52
599.073	320.95
599.494	372.44
599.914	318.61
600.334	316.26
600.755	297.54
601.175	290.52
601.595	316.26
602.015	349.03
602.436	363.08
602.856	363.08
603.276	311.58
603.696	334.99
604.115	267.11
604.535	311.58
604.955	302.22
605.375	318.61
605.794	316.26
606.214	351.37
606.634	346.69
607.053	276.48
607.473	358.39
607.892	405.21
608.311	360.74
608.731	292.86
609.15	435.63
609.569	299.88
609.988	360.74
610.407	295.2
610.826	285.84
611.245	318.61
611.664	264.77
612.083	332.65
612.501	323.29
612.92	323.29
613.339	353.71
613.757	295.2
614.176	337.33
614.594	346.69
615.013	365.42
615.431	330.31
615.85	332.65
616.268	391.16
616.686	358.39
617.104	306.9
617.522	360.74
617.94	285.84
618.358	302.22
618.776	346.69
619.194	292.86
619.612	267.11
620.03	346.69
620.447	356.05
620.865	330.31
621.282	351.37
621.7	262.43
622.117	320.95
622.535	381.8
622.952	332.65
623.369	356.05
623.787	274.14
624.204	346.69
624.621	334.99
625.038	356.05
625.455	377.12
625.872	351.37
626.289	344.35
626.706	344.35
627.123	283.5
627.539	290.52
627.956	327.97
628.373	292.86
628.789	320.95
629.206	351.37
629.622	344.35
630.038	349.03
630.455	271.79
630.871	295.2
631.287	351.37
631.703	334.99
632.12	318.61
632.536	353.71
632.952	346.69
633.368	318.61
633.783	367.76
634.199	344.35
634.615	344.35
635.031	334.99
635.446	358.39
635.862	337.33
636.277	349.03
636.693	358.39
637.108	349.03
637.524	342.01
637.939	297.54
638.354	365.42
638.77	365.42
639.185	342.01
639.6	243.71
640.015	288.18
640.43	320.95
640.845	274.14
641.259	271.79
641.674	306.9
642.089	320.95
642.504	342.01
642.918	365.42
643.333	292.86
643.747	320.95
644.162	365.42
644.576	365.42
644.991	320.95
645.405	318.61
645.819	295.2
646.233	353.71
646.647	311.58
647.061	365.42
647.475	372.44
647.889	290.52
648.303	316.26
648.717	295.2
649.131	283.5
649.545	395.84
649.958	391.16
650.372	320.95
650.785	356.05
651.199	295.2
651.612	318.61
652.026	302.22
652.439	313.92
652.852	349.03
653.266	276.48
653.679	250.73
654.092	295.2
654.505	304.56
654.918	309.24
655.331	327.97
655.744	372.44
656.156	327.97
656.569	370.1
656.982	316.26
657.394	377.12
657.807	316.26
658.22	325.63
658.632	299.88
659.044	278.82
659.457	360.74
659.869	334.99
660.281	316.26
660.693	306.9
661.106	260.09
661.518	379.46
661.93	316.26
662.342	292.86
662.754	344.35
663.165	302.22
663.577	332.65
663.989	339.67
664.401	337.33
664.812	288.18
665.224	285.84
665.635	262.43
666.047	360.74
666.458	344.35
666.869	316.26
667.281	304.56
667.692	353.71
668.103	351.37
668.514	325.63
668.925	330.31
669.336	304.56
669.747	316.26
670.158	304.56
670.569	353.71
670.979	304.56
671.39	346.69
671.801	334.99
672.211	318.61
672.622	414.57
673.032	327.97
673.443	288.18
673.853	334.99
674.263	367.76
674.674	323.29
675.084	316.26
675.494	316.26
675.904	292.86
676.314	351.37
676.724	351.37
677.134	288.18
677.544	306.9
677.953	346.69
678.363	295.2
678.773	360.74
679.182	377.12
679.592	316.26
680.001	316.26
680.411	337.33
680.82	313.92
681.23	346.69
681.639	334.99
682.048	274.14
682.457	274.14
682.866	299.88
683.275	334.99
683.684	288.18
684.093	267.11
684.502	365.42
684.911	311.58
685.32	344.35
685.728	297.54
686.137	299.88
686.546	334.99
686.954	365.42
687.363	353.71
687.771	334.99
688.179	288.18
688.588	288.18
688.996	334.99
689.404	334.99
689.812	363.08
690.22	330.31
690.628	339.67
691.036	274.14
691.444	353.71
691.852	386.48
692.26	384.14
692.667	318.61
693.075	318.61
693.483	264.77
693.89	337.33
694.298	353.71
694.705	349.03
695.112	344.35
695.52	323.29
695.927	358.39
696.334	367.76
696.741	379.46
697.148	246.05
697.555	323.29
697.962	351.37
698.369	360.74
698.776	342.01
699.183	365.42
699.59	318.61
699.996	299.88
700.403	356.05
700.81	332.65
701.216	353.71
701.623	405.21
702.029	316.26
702.435	353.71
702.842	313.92
703.248	320.95
703.654	342.01
704.06	302.22
704.466	344.35
704.872	332.65
705.278	318.61
705.684	267.11
706.09	360.74
706.496	274.14
706.901	342.01
707.307	302.22
707.712	351.37
708.118	290.52
708.523	318.61
708.929	253.07
709.334	360.74
709.74	346.69
710.145	311.58
710.55	372.44
710.955	269.45
711.36	332.65
711.765	320.95
712.17	234.35
712.575	316.26
712.98	807.78
713.385	365.42
713.789	323.29
714.194	288.18
714.599	306.9
715.003	351.37
715.408	372.44
715.812	323.29
716.217	330.31
716.621	311.58
717.025	290.52
717.429	278.82
717.833	281.16
718.238	309.24
718.642	416.91
719.046	325.63
719.449	325.63
719.853	320.95
720.257	302.22
720.661	318.61
721.065	311.58
721.468	353.71
721.872	285.84
722.275	342.01
722.679	297.54
723.082	327.97
723.485	320.95
723.889	323.29
724.292	304.56
724.695	334.99
725.098	274.14
725.501	299.88
725.904	337.33
726.307	318.61
726.71	334.99
727.113	313.92
727.516	297.54
727.918	320.95
728.321	367.76
728.724	292.86
729.126	309.24
729.529	367.76
729.931	398.18
730.333	253.07
730.736	337.33
731.138	311.58
731.54	323.29
731.942	318.61
732.344	358.39
732.746	334.99
733.148	337.33
733.55	318.61
733.952	292.86
734.354	327.97
734.756	339.67
735.157	316.26
735.559	358.39
735.96	309.24
736.362	349.03
736.763	281.16
737.165	339.67
737.566	327.97
737.967	391.16
738.368	342.01
738.77	386.48
739.171	332.65
739.572	297.54
739.973	311.58
740.374	356.05
740.774	295.2
741.175	342.01
741.576	316.26
741.977	304.56
742.377	325.63
742.778	337.33
743.178	351.37
743.579	363.08
743.979	290.52
744.379	353.71
744.78	297.54
745.18	327.97
745.58	363.08
745.98	334.99
746.38	344.35
746.78	302.22
747.18	349.03
747.58	278.82
747.98	306.9
748.38	344.35
748.779	323.29
749.179	253.07
749.578	353.71
749.978	311.58
750.377	320.95
750.777	295.2
751.176	306.9
751.575	349.03
751.975	257.75
752.374	285.84
752.773	323.29
753.172	297.54
753.571	323.29
753.97	342.01
754.369	332.65
754.768	313.92
755.166	292.86
755.565	365.42
755.964	262.43
756.362	313.92
756.761	299.88
757.159	346.69
757.558	400.52
757.956	330.31
758.354	342.01
758.753	236.69
759.151	269.45
759.549	297.54
759.947	309.24
760.345	323.29
760.743	276.48
761.141	316.26
761.539	255.41
761.936	344.35
762.334	304.56
762.732	323.29
763.129	325.63
763.527	304.56
763.924	320.95
764.322	346.69
764.719	327.97
765.117	330.31
765.514	304.56
765.911	304.56
766.308	306.9
766.705	288.18
767.102	412.23
767.499	374.78
767.896	365.42
768.293	353.71
768.69	297.54
769.086	325.63
769.483	306.9
769.88	320.95
770.276	227.32
770.673	391.16
771.069	344.35
771.466	349.03
771.862	323.29
772.258	342.01
772.654	311.58
773.05	274.14
773.447	281.16
773.843	323.29
774.239	346.69
774.634	299.88
775.03	309.24
775.426	297.54
775.822	290.52
776.218	330.31
776.613	283.5
777.009	377.12
777.404	311.58
777.8	349.03
778.195	313.92
778.59	281.16
778.986	356.05
779.381	379.46
779.776	327.97
780.171	239.03
780.566	288.18
780.961	297.54
781.356	342.01
781.751	414.57
782.146	290.52
782.54	311.58
782.935	278.82
783.33	285.84
783.724	374.78
784.119	320.95
784.513	285.84
784.908	316.26
785.302	309.24
785.696	297.54
786.09	332.65
786.485	276.48
786.879	302.22
787.273	334.99
787.667	344.35
788.061	332.65
788.454	360.74
788.848	337.33
789.242	306.9
789.636	283.5
790.029	257.75
790.423	337.33
790.816	349.03
791.21	255.41
791.603	365.42
791.997	290.52
792.39	278.82
792.783	299.88
793.176	342.01
793.569	339.67
793.962	325.63
794.355	306.9
794.748	316.26
795.141	337.33
795.534	318.61
795.927	306.9
796.319	334.99
796.712	320.95
797.105	344.35
797.497	292.86
797.89	325.63
798.282	311.58
798.674	290.52
799.067	330.31
799.459	285.84
799.851	405.21
800.243	323.29
800.635	306.9
801.027	290.52
801.419	285.84
801.811	346.69
802.203	337.33
802.594	320.95
802.986	306.9
803.378	318.61
803.769	320.95
804.161	386.48
804.552	304.56
804.944	358.39
805.335	334.99
805.726	360.74
806.118	318.61
806.509	346.69
806.9	374.78
807.291	325.63
807.682	290.52
808.073	367.76
808.464	353.71
808.855	339.67
809.245	288.18
809.636	372.44
810.027	370.1
810.417	302.22
810.808	379.46
811.198	311.58
811.589	274.14
811.979	323.29
812.369	370.1
812.759	337.33
813.15	309.24
813.54	295.2
813.93	327.97
814.32	360.74
814.71	344.35
815.1	358.39
815.489	327.97
815.879	367.76
816.269	304.56
816.658	316.26
817.048	332.65
817.438	353.71
817.827	318.61
818.216	332.65
818.606	302.22
818.995	327.97
819.384	288.18
819.773	349.03
820.163	304.56
820.552	313.92
820.941	330.31
821.33	316.26
821.718	346.69
822.107	257.75
822.496	323.29
822.885	290.52
823.273	344.35
823.662	372.44
824.05	318.61
824.439	337.33
824.827	320.95
825.216	274.14
825.604	292.86
825.992	297.54
826.38	349.03
826.768	248.39
827.156	356.05
827.544	360.74
827.932	325.63
828.32	304.56
828.708	327.97
829.096	306.9
829.483	295.2
829.871	316.26
830.259	356.05
830.646	349.03
831.034	278.82
831.421	342.01
831.808	325.63
832.196	306.9
832.583	304.56
832.97	302.22
833.357	318.61
833.744	306.9
834.131	316.26
834.518	327.97
834.905	370.1
835.292	377.12
835.678	339.67
836.065	358.39
836.452	297.54
836.838	290.52
837.225	299.88
837.611	304.56
837.998	342.01
838.384	302.22
838.77	264.77
839.157	302.22
839.543	276.48
839.929	290.52
840.315	253.07
840.701	295.2
841.087	332.65
841.473	384.14
841.858	320.95
842.244	269.45
842.63	327.97
843.015	295.2
843.401	587.77
843.787	299.88
844.172	334.99
844.557	349.03
844.943	327.97
845.328	363.08
845.713	325.63
846.098	278.82
846.483	299.88
846.868	288.18
847.253	377.12
847.638	311.58
848.023	386.48
848.408	306.9
848.793	344.35
849.177	351.37
849.562	337.33
849.947	313.92
850.331	339.67
850.715	269.45
851.1	332.65
851.484	339.67
851.868	313.92
852.253	379.46
852.637	363.08
853.021	365.42
853.405	332.65
853.789	257.75
854.173	356.05
854.557	339.67
854.94	292.86
855.324	323.29
855.708	281.16
856.091	288.18
856.475	299.88
856.858	309.24
857.242	346.69
857.625	339.67
858.009	311.58
858.392	353.71
858.775	274.14
859.158	311.58
859.541	276.48
859.924	276.48
860.307	381.8
860.69	313.92
861.073	356.05
861.456	337.33
861.838	248.39
862.221	316.26
862.604	276.48
862.986	302.22
863.369	292.86
863.751	309.24
864.133	306.9
864.516	262.43
864.898	337.33
865.28	313.92
865.662	320.95
866.044	325.63
866.426	306.9
866.808	274.14
867.19	295.2
867.572	351.37
867.954	325.63
868.336	367.76
868.717	318.61
869.099	342.01
869.48	327.97
869.862	292.86
870.243	276.48
870.625	377.12
871.006	281.16
871.387	302.22
871.768	309.24
872.149	290.52
872.53	327.97
872.911	325.63
873.292	323.29
873.673	297.54
874.054	297.54
874.435	330.31
874.815	325.63
875.196	323.29
875.577	297.54
875.957	353.71
876.338	262.43
876.718	255.41
877.098	299.88
877.479	260.09
877.859	428.61
878.239	316.26
878.619	285.84
878.999	306.9
879.379	325.63
879.759	330.31
880.139	353.71
880.519	276.48
880.898	288.18
881.278	302.22
881.658	318.61
882.037	311.58
882.417	295.2
882.796	283.5
883.176	323.29
883.555	306.9
883.934	346.69
884.313	342.01
884.693	262.43
885.072	337.33
885.451	358.39
885.83	358.39
886.209	356.05
886.587	330.31
886.966	334.99
887.345	285.84
887.724	276.48
888.102	292.86
888.481	351.37
888.859	288.18
889.238	318.61
889.616	337.33
889.994	318.61
890.373	299.88
890.751	274.14
891.129	372.44
891.507	358.39
891.885	353.71
892.263	344.35
892.641	323.29
893.019	349.03
893.396	304.56
893.774	292.86
894.152	334.99
894.529	304.56
894.907	313.92
895.284	365.42
895.662	299.88
896.039	377.12
896.416	356.05
896.794	323.29
897.171	334.99
897.548	278.82
897.925	271.79
898.302	292.86
898.679	342.01
899.056	325.63
899.433	320.95
899.809	316.26
900.186	309.24
900.563	342.01
900.939	246.05
901.316	309.24
901.692	353.71
902.069	330.31
902.445	271.79
902.821	304.56
903.197	339.67
903.574	320.95
903.95	309.24
904.326	330.31
904.702	351.37
905.078	365.42
905.454	356.05
905.829	349.03
906.205	299.88
906.581	253.07
906.956	288.18
907.332	302.22
907.707	388.82
908.083	297.54
908.458	283.5
908.833	395.84
909.209	290.52
909.584	295.2
909.959	297.54
910.334	360.74
910.709	295.2
911.084	325.63
911.459	332.65
911.834	344.35
912.209	253.07
912.583	323.29
912.958	349.03
913.333	360.74
913.707	391.16
914.082	246.05
914.456	267.11
914.83	342.01
915.205	337.33
915.579	344.35
915.953	393.5
916.327	332.65
916.701	313.92
917.075	320.95
917.449	292.86
917.823	302.22
918.197	337.33
918.571	337.33
918.944	313.92
919.318	239.03
919.692	276.48
920.065	334.99
920.438	283.5
920.812	323.29
921.185	346.69
921.558	356.05
921.932	334.99
922.305	248.39
922.678	304.56
923.051	353.71
923.424	288.18
923.797	363.08
924.17	271.79
924.542	384.14
924.915	316.26
925.288	353.71
925.661	386.48
926.033	311.58
926.406	325.63
926.778	288.18
927.15	292.86
927.523	309.24
927.895	384.14
928.267	325.63
928.639	283.5
929.011	313.92
929.383	311.58
929.755	381.8
930.127	306.9
930.499	243.71
930.871	337.33
931.242	360.74
931.614	288.18
931.986	260.09
932.357	358.39
932.729	264.77
933.1	360.74
933.471	311.58
933.843	241.37
934.214	384.14
934.585	295.2
934.956	318.61
935.327	379.46
935.698	264.77
936.069	302.22
936.44	309.24
936.811	269.45
937.182	318.61
937.552	271.79
937.923	318.61
938.293	269.45
938.664	250.73
939.034	320.95
939.405	278.82
939.775	320.95
940.145	311.58
940.516	311.58
940.886	309.24
941.256	306.9
941.626	295.2
941.996	356.05
942.366	299.88
942.735	320.95
943.105	320.95
943.475	365.42
943.845	311.58
944.214	269.45
944.584	327.97
944.953	318.61
945.323	316.26
945.692	323.29
946.061	283.5
946.43	311.58
946.8	339.67
947.169	363.08
947.538	267.11
947.907	309.24
948.276	360.74
948.645	290.52
949.013	316.26
949.382	327.97
949.751	246.05
950.119	332.65
950.488	283.5
950.857	330.31
951.225	241.37
951.593	285.84
951.962	323.29
952.33	290.52
952.698	332.65
953.066	344.35
953.434	360.74
953.802	318.61
954.17	306.9
954.538	290.52
954.906	349.03
955.274	281.16
955.642	349.03
956.009	325.63
956.377	288.18
956.744	346.69
957.112	311.58
957.479	374.78
957.847	325.63
958.214	325.63
958.581	325.63
958.948	323.29
959.315	353.71
959.683	292.86
960.05	283.5
960.416	264.77
960.783	370.1
961.15	297.54
961.517	253.07
961.884	327.97
962.25	285.84
962.617	281.16
962.983	325.63
963.35	320.95
963.716	316.26
964.082	346.69
964.449	255.41
964.815	334.99
965.181	337.33
965.547	302.22
965.913	283.5
966.279	234.35
966.645	283.5
967.011	306.9
967.377	360.74
967.742	318.61
968.108	358.39
968.474	327.97
968.839	292.86
969.205	299.88
969.57	334.99
969.935	337.33
970.301	288.18
970.666	295.2
971.031	311.58
971.396	349.03
971.761	283.5
972.126	302.22
972.491	304.56
972.856	285.84
973.221	370.1
973.586	370.1
973.95	299.88
974.315	342.01
974.679	267.11
975.044	299.88
975.408	299.88
975.773	297.54
976.137	318.61
976.501	337.33
976.866	278.82
977.23	316.26
977.594	349.03
977.958	381.8
978.322	311.58
978.686	278.82
979.049	306.9
979.413	318.61
979.777	320.95
980.141	388.82
980.504	330.31
980.868	292.86
981.231	292.86
981.595	323.29
981.958	309.24
982.321	313.92
982.684	295.2
983.048	295.2
983.411	299.88
983.774	297.54
984.137	285.84
984.5	304.56
984.862	342.01
985.225	339.67
985.588	325.63
985.951	313.92
986.313	337.33
986.676	299.88
987.038	304.56
987.401	297.54
987.763	318.61
988.125	325.63
988.488	232.01
988.85	342.01
989.212	349.03
989.574	349.03
989.936	372.44
990.298	330.31
990.66	313.92
991.022	224.98
991.383	309.24
991.745	334.99
992.107	295.2
992.468	309.24
992.83	297.54
993.191	339.67
993.553	306.9
993.914	323.29
994.275	297.54
994.637	330.31
994.998	342.01
995.359	283.5
995.72	295.2
996.081	306.9
996.442	304.56
996.803	290.52
997.163	346.69
997.524	327.97
997.885	353.71
998.245	342.01
998.606	349.03
998.966	302.22
999.327	334.99
999.687	306.9
1000.047	393.5
1000.408	342.01
1000.768	323.29
1001.128	292.86
1001.488	330.31
1001.848	278.82
1002.208	281.16
1002.568	281.16
1002.927	304.56
1003.287	281.16
1003.647	349.03
1004.007	278.82
1004.366	302.22
1004.726	299.88
1005.085	246.05
1005.444	346.69
1005.804	339.67
1006.163	337.33
1006.522	325.63
1006.881	299.88
1007.24	344.35
1007.599	262.43
1007.958	334.99
1008.317	334.99
1008.676	260.09
1009.035	316.26
1009.393	330.31
1009.752	316.26
1010.111	325.63
1010.469	400.52
1010.828	372.44
1011.186	323.29
1011.544	325.63
1011.903	344.35
1012.261	409.89
1012.619	316.26
1012.977	299.88
1013.335	363.08
1013.693	297.54
1014.051	344.35
1014.409	339.67
1014.767	288.18
1015.124	320.95
1015.482	349.03
1015.84	311.58
1016.197	351.37
1016.555	330.31
1016.912	276.48
1017.269	309.24
1017.627	379.46
1017.984	313.92
1018.341	262.43
1018.698	323.29
1019.055	325.63
1019.412	285.84
1019.769	313.92
1020.126	334.99
1020.483	323.29
1020.84	349.03
1021.196	313.92
1021.553	267.11
1021.909	339.67
1022.266	346.69
1022.622	351.37
1022.979	318.61
1023.335	370.1
1023.691	327.97
1024.047	320.95
1024.404	295.2
1024.76	377.12
1025.116	253.07
1025.472	311.58
1025.827	351.37
1026.183	370.1
1026.539	332.65
1026.895	344.35
1027.25	374.78
1027.606	360.74
1027.961	295.2
1028.317	239.03
1028.672	283.5
1029.028	278.82
1029.383	379.46
1029.738	276.48
1030.093	365.42
1030.448	295.2
1030.803	344.35
1031.158	318.61
1031.513	309.24
1031.868	325.63
1032.223	351.37
1032.577	306.9
1032.932	316.26
1033.287	367.76
1033.641	349.03
1033.996	290.52
1034.35	367.76
1034.704	316.26
1035.059	337.33
1035.413	351.37
1035.767	351.37
1036.121	351.37
