Data from Al_FLMS009871__1059__16-25-17-713.txt Node

Date: Fri Mar 08 16:25:17 CST 2024
User: pe5414po
Spectrometer: FLMS00987
Trigger mode: 0
Integration Time (sec): 1.000000E-1
Scans to average: 1
Electric dark correction enabled: true
Nonlinearity correction enabled: false
Boxcar width: 0
XAxis mode: Wavelengths
Number of Pixels in Spectrum: 2048
>>>>>Begin Spectral Data<<<<<
188.938	-19.31
189.409	-19.31
189.879	-19.31
190.349	-84.84
190.819	-73.14
191.29	-89.53
191.76	-110.59
192.23	-31.01
192.7	-61.44
193.17	-59.1
193.64	15.8
194.109	-54.42
194.579	-33.35
195.049	-21.65
195.519	18.14
195.988	-38.03
196.458	25.16
196.927	81.33
197.397	78.99
197.866	177.3
198.336	102.4
198.805	247.51
199.274	130.48
199.744	235.81
200.213	186.66
200.682	224.11
201.151	221.77
201.62	214.74
202.089	282.62
202.558	247.51
203.027	327.09
203.495	247.51
203.964	233.47
204.433	324.75
204.902	329.43
205.37	317.73
205.839	282.62
206.307	294.32
206.776	345.81
207.244	362.2
207.712	294.32
208.181	277.94
208.649	296.66
209.117	336.45
209.585	317.73
210.053	338.79
210.521	294.32
210.989	224.11
211.457	350.5
211.925	270.92
212.393	301.34
212.861	310.71
213.328	299
213.796	249.85
214.264	266.24
214.731	249.85
215.199	203.04
215.666	205.38
216.133	238.15
216.601	259.21
217.068	261.55
217.535	275.6
218.003	224.11
218.47	315.39
218.937	280.28
219.404	266.24
219.871	268.58
220.338	284.96
220.805	284.96
221.271	252.19
221.738	268.58
222.205	238.15
222.671	282.62
223.138	277.94
223.605	317.73
224.071	256.87
224.538	296.66
225.004	249.85
225.47	214.74
225.937	313.05
226.403	245.17
226.869	336.45
227.335	252.19
227.801	280.28
228.267	277.94
228.733	296.66
229.199	266.24
229.665	238.15
230.131	308.37
230.597	266.24
231.062	280.28
231.528	287.3
231.994	273.26
232.459	252.19
232.925	291.98
233.39	252.19
233.856	313.05
234.321	296.66
234.786	280.28
235.252	240.49
235.717	247.51
236.182	282.62
236.647	313.05
237.112	308.37
237.577	275.6
238.042	310.71
238.507	259.21
238.972	277.94
239.436	322.41
239.901	254.53
240.366	324.75
240.83	252.19
241.295	350.5
241.76	306.03
242.224	296.66
242.688	336.45
243.153	369.22
243.617	291.98
244.081	200.7
244.545	247.51
245.01	317.73
245.474	263.9
245.938	273.26
246.402	301.34
246.866	273.26
247.33	303.68
247.793	306.03
248.257	259.21
248.721	362.2
249.185	263.9
249.648	268.58
250.112	256.87
250.575	205.38
251.039	275.6
251.502	315.39
251.965	233.47
252.429	306.03
252.892	322.41
253.355	338.79
253.818	294.32
254.281	303.68
254.744	242.83
255.207	329.43
255.67	277.94
256.133	315.39
256.596	263.9
257.059	336.45
257.522	334.11
257.984	322.41
258.447	313.05
258.909	329.43
259.372	266.24
259.834	252.19
260.297	329.43
260.759	282.62
261.221	273.26
261.684	357.52
262.146	336.45
262.608	376.24
263.07	301.34
263.532	282.62
263.994	291.98
264.456	364.54
264.918	310.71
265.38	306.03
265.842	273.26
266.303	296.66
266.765	327.09
267.227	315.39
267.688	299
268.15	324.75
268.611	294.32
269.072	294.32
269.534	336.45
269.995	331.77
270.456	327.09
270.918	343.47
271.379	282.62
271.84	364.54
272.301	320.07
272.762	289.64
273.223	345.81
273.684	310.71
274.144	299
274.605	301.34
275.066	299
275.527	284.96
275.987	329.43
276.448	313.05
276.908	324.75
277.369	228.79
277.829	268.58
278.289	324.75
278.75	423.05
279.21	341.13
279.67	343.47
280.13	299
280.59	294.32
281.05	259.21
281.51	277.94
281.97	345.81
282.43	266.24
282.89	291.98
283.35	242.83
283.809	289.64
284.269	401.99
284.729	291.98
285.188	329.43
285.648	359.86
286.107	317.73
286.567	284.96
287.026	291.98
287.485	296.66
287.944	301.34
288.404	317.73
288.863	324.75
289.322	320.07
289.781	252.19
290.24	329.43
290.699	289.64
291.158	355.18
291.616	287.3
292.075	378.58
292.534	338.79
292.992	331.77
293.451	336.45
293.91	331.77
294.368	273.26
294.827	338.79
295.285	338.79
295.743	369.22
296.202	348.15
296.66	324.75
297.118	324.75
297.576	296.66
298.034	306.03
298.492	263.9
298.95	308.37
299.408	420.71
299.866	327.09
300.324	266.24
300.781	291.98
301.239	280.28
301.697	284.96
302.154	303.68
302.612	376.24
303.069	282.62
303.527	313.05
303.984	296.66
304.441	324.75
304.899	310.71
305.356	296.66
305.813	315.39
306.27	308.37
306.727	350.5
307.184	263.9
307.641	313.05
308.098	261.55
308.555	359.86
309.012	324.75
309.468	287.3
309.925	320.07
310.382	275.6
310.838	263.9
311.295	392.62
311.751	336.45
312.208	334.11
312.664	366.88
313.12	296.66
313.577	355.18
314.033	350.5
314.489	313.05
314.945	362.2
315.401	355.18
315.857	336.45
316.313	282.62
316.769	263.9
317.225	359.86
317.681	359.86
318.136	275.6
318.592	259.21
319.048	385.6
319.503	352.84
319.959	306.03
320.414	348.15
320.869	331.77
321.325	273.26
321.78	322.41
322.235	322.41
322.691	404.33
323.146	334.11
323.601	249.85
324.056	315.39
324.511	291.98
324.966	277.94
325.421	313.05
325.875	331.77
326.33	275.6
326.785	338.79
327.24	359.86
327.694	296.66
328.149	334.11
328.603	338.79
329.058	287.3
329.512	385.6
329.966	289.64
330.421	308.37
330.875	291.98
331.329	275.6
331.783	296.66
332.237	242.83
332.691	327.09
333.145	282.62
333.599	366.88
334.053	378.58
334.507	284.96
334.96	336.45
335.414	338.79
335.868	334.11
336.321	291.98
336.775	277.94
337.228	299
337.682	404.33
338.135	331.77
338.588	268.58
339.042	280.28
339.495	387.94
339.948	348.15
340.401	343.47
340.854	299
341.307	313.05
341.76	306.03
342.213	329.43
342.666	284.96
343.119	341.13
343.571	301.34
344.024	350.5
344.477	296.66
344.929	273.26
345.382	362.2
345.834	291.98
346.287	282.62
346.739	303.68
347.191	259.21
347.644	308.37
348.096	320.07
348.548	362.2
349	263.9
349.452	308.37
349.904	256.87
350.356	306.03
350.808	313.05
351.26	306.03
351.711	355.18
352.163	348.15
352.615	336.45
353.066	301.34
353.518	345.81
353.969	280.28
354.421	282.62
354.872	327.09
355.324	376.24
355.775	313.05
356.226	289.64
356.677	338.79
357.128	331.77
357.579	338.79
358.03	287.3
358.481	364.54
358.932	301.34
359.383	348.15
359.834	282.62
360.285	322.41
360.735	322.41
361.186	273.26
361.637	287.3
362.087	296.66
362.538	315.39
362.988	291.98
363.438	366.88
363.889	373.9
364.339	270.92
364.789	270.92
365.239	385.6
365.689	306.03
366.139	280.28
366.589	317.73
367.039	317.73
367.489	329.43
367.939	369.22
368.389	387.94
368.839	336.45
369.288	313.05
369.738	348.15
370.187	315.39
370.637	334.11
371.086	299
371.536	245.17
371.985	301.34
372.434	294.32
372.884	256.87
373.333	322.41
373.782	306.03
374.231	320.07
374.68	329.43
375.129	273.26
375.578	306.03
376.027	355.18
376.475	310.71
376.924	362.2
377.373	329.43
377.822	359.86
378.27	275.6
378.719	338.79
379.167	364.54
379.616	315.39
380.064	315.39
380.512	376.24
380.961	348.15
381.409	341.13
381.857	322.41
382.305	238.15
382.753	324.75
383.201	324.75
383.649	385.6
384.097	334.11
384.545	240.49
384.992	322.41
385.44	369.22
385.888	348.15
386.335	364.54
386.783	345.81
387.231	366.88
387.678	296.66
388.125	254.53
388.573	280.28
389.02	341.13
389.467	329.43
389.914	313.05
390.362	385.6
390.809	266.24
391.256	310.71
391.703	315.39
392.15	296.66
392.596	348.15
393.043	338.79
393.49	380.92
393.937	289.64
394.383	336.45
394.83	343.47
395.276	376.24
395.723	322.41
396.169	294.32
396.616	313.05
397.062	308.37
397.508	334.11
397.954	423.05
398.401	357.52
398.847	338.79
399.293	345.81
399.739	378.58
400.185	315.39
400.631	343.47
401.076	306.03
401.522	313.05
401.968	282.62
402.414	299
402.859	350.5
403.305	317.73
403.75	357.52
404.196	320.07
404.641	327.09
405.086	376.24
405.532	322.41
405.977	329.43
406.422	334.11
406.867	331.77
407.312	366.88
407.757	334.11
408.202	348.15
408.647	294.32
409.092	376.24
409.537	306.03
409.982	322.41
410.426	324.75
410.871	310.71
411.316	329.43
411.76	341.13
412.205	399.65
412.649	345.81
413.093	376.24
413.538	348.15
413.982	296.66
414.426	336.45
414.87	308.37
415.314	306.03
415.758	348.15
416.202	303.68
416.646	355.18
417.09	308.37
417.534	364.54
417.978	296.66
418.421	334.11
418.865	228.79
419.309	313.05
419.752	308.37
420.196	303.68
420.639	331.77
421.083	296.66
421.526	291.98
421.969	303.68
422.412	301.34
422.856	296.66
423.299	331.77
423.742	277.94
424.185	301.34
424.628	320.07
425.071	317.73
425.513	320.07
425.956	331.77
426.399	306.03
426.842	385.6
427.284	387.94
427.727	343.47
428.169	315.39
428.612	322.41
429.054	273.26
429.497	371.56
429.939	317.73
430.381	355.18
430.823	324.75
431.265	324.75
431.707	308.37
432.149	294.32
432.591	275.6
433.033	383.26
433.475	331.77
433.917	266.24
434.359	324.75
434.8	306.03
435.242	299
435.684	287.3
436.125	306.03
436.567	289.64
437.008	327.09
437.449	355.18
437.891	294.32
438.332	364.54
438.773	331.77
439.214	280.28
439.656	406.67
440.097	338.79
440.538	411.35
440.978	296.66
441.419	261.55
441.86	348.15
442.301	338.79
442.742	299
443.182	355.18
443.623	299
444.063	343.47
444.504	320.07
444.944	294.32
445.385	289.64
445.825	345.81
446.265	336.45
446.706	324.75
447.146	287.3
447.586	378.58
448.026	345.81
448.466	341.13
448.906	313.05
449.346	322.41
449.786	315.39
450.225	355.18
450.665	338.79
451.105	301.34
451.544	357.52
451.984	369.22
452.424	280.28
452.863	348.15
453.302	385.6
453.742	427.73
454.181	301.34
454.62	322.41
455.059	287.3
455.499	310.71
455.938	341.13
456.377	371.56
456.816	371.56
457.254	350.5
457.693	343.47
458.132	320.07
458.571	270.92
459.01	331.77
459.448	348.15
459.887	369.22
460.325	324.75
460.764	275.6
461.202	357.52
461.641	343.47
462.079	310.71
462.517	401.99
462.955	296.66
463.393	324.75
463.832	317.73
464.27	277.94
464.708	392.62
465.145	345.81
465.583	308.37
466.021	299
466.459	322.41
466.897	327.09
467.334	345.81
467.772	350.5
468.209	275.6
468.647	282.62
469.084	261.55
469.522	359.86
469.959	282.62
470.396	334.11
470.833	315.39
471.271	280.28
471.708	390.28
472.145	357.52
472.582	345.81
473.019	322.41
473.456	373.9
473.892	364.54
474.329	315.39
474.766	308.37
475.202	334.11
475.639	289.64
476.076	294.32
476.512	345.81
476.949	299
477.385	299
477.821	313.05
478.258	338.79
478.694	378.58
479.13	327.09
479.566	336.45
480.002	249.85
480.438	366.88
480.874	348.15
481.31	345.81
481.746	350.5
482.181	317.73
482.617	366.88
483.053	338.79
483.488	280.28
483.924	385.6
484.36	317.73
484.795	343.47
485.23	343.47
485.666	303.68
486.101	296.66
486.536	364.54
486.971	341.13
487.407	350.5
487.842	282.62
488.277	341.13
488.712	322.41
489.146	282.62
489.581	348.15
490.016	376.24
490.451	310.71
490.885	343.47
491.32	268.58
491.755	291.98
492.189	338.79
492.624	306.03
493.058	317.73
493.492	317.73
493.927	310.71
494.361	315.39
494.795	350.5
495.229	294.32
495.663	308.37
496.097	324.75
496.531	345.81
496.965	348.15
497.399	338.79
497.833	373.9
498.266	355.18
498.7	308.37
499.134	390.28
499.567	296.66
500.001	355.18
500.434	341.13
500.868	331.77
501.301	392.62
501.734	294.32
502.168	355.18
502.601	329.43
503.034	291.98
503.467	284.96
503.9	343.47
504.333	359.86
504.766	380.92
505.199	306.03
505.632	366.88
506.064	322.41
506.497	282.62
506.93	284.96
507.362	299
507.795	301.34
508.227	301.34
508.66	362.2
509.092	306.03
509.524	289.64
509.956	310.71
510.389	320.07
510.821	308.37
511.253	336.45
511.685	313.05
512.117	348.15
512.549	296.66
512.981	284.96
513.412	341.13
513.844	380.92
514.276	404.33
514.707	373.9
515.139	296.66
515.571	348.15
516.002	331.77
516.433	296.66
516.865	350.5
517.296	317.73
517.727	352.84
518.159	362.2
518.59	369.22
519.021	329.43
519.452	313.05
519.883	238.15
520.314	299
520.744	348.15
521.175	277.94
521.606	348.15
522.037	306.03
522.467	308.37
522.898	324.75
523.328	327.09
523.759	287.3
524.189	275.6
524.62	364.54
525.05	336.45
525.48	313.05
525.91	299
526.341	306.03
526.771	275.6
527.201	280.28
527.631	348.15
528.061	341.13
528.49	322.41
528.92	357.52
529.35	420.71
529.78	348.15
530.209	306.03
530.639	357.52
531.068	338.79
531.498	322.41
531.927	343.47
532.357	313.05
532.786	306.03
533.215	343.47
533.644	348.15
534.074	364.54
534.503	306.03
534.932	327.09
535.361	308.37
535.79	296.66
536.218	355.18
536.647	317.73
537.076	322.41
537.505	242.83
537.933	341.13
538.362	327.09
538.79	378.58
539.219	399.65
539.647	369.22
540.076	348.15
540.504	364.54
540.932	329.43
541.36	266.24
541.788	306.03
542.217	291.98
542.645	336.45
543.073	306.03
543.5	352.84
543.928	336.45
544.356	310.71
544.784	317.73
545.211	336.45
545.639	336.45
546.067	336.45
546.494	273.26
546.922	317.73
547.349	313.05
547.776	341.13
548.204	294.32
548.631	291.98
549.058	313.05
549.485	315.39
549.912	268.58
550.339	315.39
550.766	343.47
551.193	390.28
551.62	345.81
552.047	266.24
552.474	308.37
552.9	369.22
553.327	345.81
553.754	313.05
554.18	315.39
554.607	355.18
555.033	310.71
555.459	355.18
555.886	291.98
556.312	280.28
556.738	369.22
557.164	277.94
557.59	350.5
558.016	277.94
558.442	261.55
558.868	320.07
559.294	331.77
559.72	320.07
560.145	355.18
560.571	345.81
560.997	371.56
561.422	282.62
561.848	277.94
562.273	294.32
562.699	210.06
563.124	369.22
563.549	357.52
563.974	289.64
564.4	277.94
564.825	343.47
565.25	310.71
565.675	366.88
566.1	275.6
566.525	266.24
566.95	294.32
567.374	366.88
567.799	343.47
568.224	306.03
568.648	376.24
569.073	301.34
569.497	320.07
569.922	313.05
570.346	369.22
570.771	301.34
571.195	324.75
571.619	301.34
572.043	287.3
572.467	320.07
572.891	334.11
573.315	284.96
573.739	320.07
574.163	322.41
574.587	329.43
575.011	313.05
575.435	301.34
575.858	343.47
576.282	296.66
576.705	380.92
577.129	348.15
577.552	338.79
577.976	299
578.399	313.05
578.822	303.68
579.245	287.3
579.669	324.75
580.092	336.45
580.515	310.71
580.938	343.47
581.361	275.6
581.784	303.68
582.206	378.58
582.629	273.26
583.052	355.18
583.474	338.79
583.897	296.66
584.32	315.39
584.742	334.11
585.165	341.13
585.587	366.88
586.009	294.32
586.431	369.22
586.854	294.32
587.276	324.75
587.698	306.03
588.12	259.21
588.542	334.11
588.964	348.15
589.386	341.13
589.807	341.13
590.229	383.26
590.651	359.86
591.073	287.3
591.494	376.24
591.916	296.66
592.337	350.5
592.759	306.03
593.18	322.41
593.601	334.11
594.022	331.77
594.444	320.07
594.865	350.5
595.286	338.79
595.707	308.37
596.128	334.11
596.549	291.98
596.97	348.15
597.39	348.15
597.811	308.37
598.232	350.5
598.652	348.15
599.073	329.43
599.494	273.26
599.914	336.45
600.334	254.53
600.755	320.07
601.175	329.43
601.595	329.43
602.015	341.13
602.436	291.98
602.856	460.5
603.276	348.15
603.696	343.47
604.115	329.43
604.535	306.03
604.955	329.43
605.375	310.71
605.794	270.92
606.214	329.43
606.634	294.32
607.053	357.52
607.473	315.39
607.892	411.35
608.311	310.71
608.731	343.47
609.15	348.15
609.569	299
609.988	327.09
610.407	329.43
610.826	317.73
611.245	296.66
611.664	345.81
612.083	327.09
612.501	324.75
612.92	350.5
613.339	327.09
613.757	266.24
614.176	378.58
614.594	299
615.013	343.47
615.431	289.64
615.85	287.3
616.268	273.26
616.686	294.32
617.104	341.13
617.522	299
617.94	327.09
618.358	291.98
618.776	348.15
619.194	362.2
619.612	327.09
620.03	345.81
620.447	315.39
620.865	357.52
621.282	336.45
621.7	327.09
622.117	284.96
622.535	336.45
622.952	291.98
623.369	355.18
623.787	327.09
624.204	301.34
624.621	284.96
625.038	352.84
625.455	350.5
625.872	331.77
626.289	348.15
626.706	320.07
627.123	294.32
627.539	315.39
627.956	320.07
628.373	343.47
628.789	245.17
629.206	329.43
629.622	336.45
630.038	338.79
630.455	317.73
630.871	296.66
631.287	343.47
631.703	327.09
632.12	263.9
632.536	331.77
632.952	317.73
633.368	336.45
633.783	397.31
634.199	362.2
634.615	343.47
635.031	299
635.446	369.22
635.862	334.11
636.277	355.18
636.693	359.86
637.108	336.45
637.524	366.88
637.939	331.77
638.354	327.09
638.77	352.84
639.185	373.9
639.6	291.98
640.015	362.2
640.43	331.77
640.845	308.37
641.259	313.05
641.674	263.9
642.089	270.92
642.504	394.97
642.918	345.81
643.333	231.13
643.747	287.3
644.162	331.77
644.576	357.52
644.991	345.81
645.405	327.09
645.819	289.64
646.233	371.56
646.647	273.26
647.061	317.73
647.475	270.92
647.889	350.5
648.303	341.13
648.717	273.26
649.131	289.64
649.545	341.13
649.958	329.43
650.372	291.98
650.785	306.03
651.199	317.73
651.612	334.11
652.026	348.15
652.439	287.3
652.852	322.41
653.266	322.41
653.679	350.5
654.092	343.47
654.505	256.87
654.918	366.88
655.331	334.11
655.744	357.52
656.156	308.37
656.569	315.39
656.982	306.03
657.394	341.13
657.807	320.07
658.22	294.32
658.632	345.81
659.044	373.9
659.457	385.6
659.869	301.34
660.281	357.52
660.693	359.86
661.106	341.13
661.518	315.39
661.93	357.52
662.342	324.75
662.754	357.52
663.165	376.24
663.577	299
663.989	399.65
664.401	355.18
664.812	324.75
665.224	348.15
665.635	327.09
666.047	350.5
666.458	294.32
666.869	313.05
667.281	366.88
667.692	313.05
668.103	357.52
668.514	324.75
668.925	348.15
669.336	282.62
669.747	277.94
670.158	296.66
670.569	350.5
670.979	343.47
671.39	329.43
671.801	294.32
672.211	327.09
672.622	334.11
673.032	369.22
673.443	273.26
673.853	315.39
674.263	350.5
674.674	383.26
675.084	376.24
675.494	334.11
675.904	341.13
676.314	324.75
676.724	308.37
677.134	352.84
677.544	341.13
677.953	287.3
678.363	345.81
678.773	345.81
679.182	341.13
679.592	324.75
680.001	355.18
680.411	303.68
680.82	327.09
681.23	334.11
681.639	266.24
682.048	317.73
682.457	273.26
682.866	289.64
683.275	355.18
683.684	385.6
684.093	266.24
684.502	291.98
684.911	406.67
685.32	313.05
685.728	315.39
686.137	376.24
686.546	263.9
686.954	371.56
687.363	306.03
687.771	294.32
688.179	338.79
688.588	306.03
688.996	317.73
689.404	383.26
689.812	287.3
690.22	371.56
690.628	299
691.036	345.81
691.444	359.86
691.852	341.13
692.26	308.37
692.667	308.37
693.075	303.68
693.483	320.07
693.89	240.49
694.298	336.45
694.705	294.32
695.112	362.2
695.52	343.47
695.927	345.81
696.334	284.96
696.741	306.03
697.148	322.41
697.555	317.73
697.962	313.05
698.369	310.71
698.776	289.64
699.183	315.39
699.59	364.54
699.996	240.49
700.403	376.24
700.81	341.13
701.216	364.54
701.623	284.96
702.029	270.92
702.435	357.52
702.842	324.75
703.248	313.05
703.654	371.56
704.06	336.45
704.466	343.47
704.872	266.24
705.278	291.98
705.684	336.45
706.09	303.68
706.496	350.5
706.901	291.98
707.307	287.3
707.712	373.9
708.118	338.79
708.523	338.79
708.929	315.39
709.334	322.41
709.74	341.13
710.145	334.11
710.55	315.39
710.955	322.41
711.36	329.43
711.765	329.43
712.17	284.96
712.575	247.51
712.98	755.41
713.385	291.98
713.789	320.07
714.194	291.98
714.599	296.66
715.003	355.18
715.408	324.75
715.812	394.97
716.217	301.34
716.621	387.94
717.025	336.45
717.429	378.58
717.833	380.92
718.238	343.47
718.642	343.47
719.046	345.81
719.449	320.07
719.853	336.45
720.257	322.41
720.661	341.13
721.065	355.18
721.468	324.75
721.872	350.5
722.275	324.75
722.679	352.84
723.082	350.5
723.485	294.32
723.889	338.79
724.292	378.58
724.695	341.13
725.098	282.62
725.501	320.07
725.904	366.88
726.307	352.84
726.71	348.15
727.113	352.84
727.516	320.07
727.918	306.03
728.321	331.77
728.724	352.84
729.126	341.13
729.529	371.56
729.931	261.55
730.333	320.07
730.736	392.62
731.138	334.11
731.54	299
731.942	261.55
732.344	310.71
732.746	350.5
733.148	299
733.55	308.37
733.952	401.99
734.354	324.75
734.756	334.11
735.157	294.32
735.559	270.92
735.96	313.05
736.362	378.58
736.763	322.41
737.165	348.15
737.566	359.86
737.967	329.43
738.368	376.24
738.77	343.47
739.171	371.56
739.572	315.39
739.973	343.47
740.374	273.26
740.774	364.54
741.175	294.32
741.576	294.32
741.977	411.35
742.377	320.07
742.778	359.86
743.178	315.39
743.579	315.39
743.979	359.86
744.379	334.11
744.78	291.98
745.18	345.81
745.58	313.05
745.98	399.65
746.38	355.18
746.78	371.56
747.18	289.64
747.58	310.71
747.98	266.24
748.38	294.32
748.779	308.37
749.179	256.87
749.578	287.3
749.978	291.98
750.377	371.56
750.777	336.45
751.176	277.94
751.575	308.37
751.975	334.11
752.374	294.32
752.773	308.37
753.172	336.45
753.571	359.86
753.97	369.22
754.369	310.71
754.768	341.13
755.166	355.18
755.565	310.71
755.964	334.11
756.362	338.79
756.761	310.71
757.159	341.13
757.558	273.26
757.956	289.64
758.354	301.34
758.753	226.45
759.151	273.26
759.549	362.2
759.947	322.41
760.345	324.75
760.743	362.2
761.141	282.62
761.539	233.47
761.936	352.84
762.334	355.18
762.732	322.41
763.129	348.15
763.527	308.37
763.924	350.5
764.322	336.45
764.719	348.15
765.117	301.34
765.514	270.92
765.911	291.98
766.308	299
766.705	338.79
767.102	371.56
767.499	373.9
767.896	310.71
768.293	313.05
768.69	324.75
769.086	341.13
769.483	420.71
769.88	268.58
770.276	343.47
770.673	308.37
771.069	376.24
771.466	322.41
771.862	303.68
772.258	420.71
772.654	345.81
773.05	338.79
773.447	348.15
773.843	324.75
774.239	317.73
774.634	327.09
775.03	301.34
775.426	366.88
775.822	303.68
776.218	280.28
776.613	299
777.009	357.52
777.404	352.84
777.8	315.39
778.195	247.51
778.59	336.45
778.986	357.52
779.381	299
779.776	322.41
780.171	320.07
780.566	275.6
780.961	357.52
781.356	359.86
781.751	343.47
782.146	301.34
782.54	287.3
782.935	320.07
783.33	385.6
783.724	256.87
784.119	357.52
784.513	275.6
784.908	282.62
785.302	376.24
785.696	277.94
786.09	296.66
786.485	287.3
786.879	259.21
787.273	352.84
787.667	256.87
788.061	275.6
788.454	238.15
788.848	383.26
789.242	331.77
789.636	306.03
790.029	324.75
790.423	310.71
790.816	289.64
791.21	291.98
791.603	275.6
791.997	373.9
792.39	291.98
792.783	308.37
793.176	296.66
793.569	296.66
793.962	364.54
794.355	310.71
794.748	303.68
795.141	331.77
795.534	336.45
795.927	308.37
796.319	291.98
796.712	357.52
797.105	320.07
797.497	350.5
797.89	299
798.282	254.53
798.674	306.03
799.067	334.11
799.459	315.39
799.851	322.41
800.243	324.75
800.635	355.18
801.027	373.9
801.419	359.86
801.811	306.03
802.203	359.86
802.594	280.28
802.986	322.41
803.378	329.43
803.769	313.05
804.161	329.43
804.552	284.96
804.944	352.84
805.335	348.15
805.726	301.34
806.118	277.94
806.509	357.52
806.9	327.09
807.291	282.62
807.682	306.03
808.073	284.96
808.464	385.6
808.855	355.18
809.245	324.75
809.636	303.68
810.027	310.71
810.417	334.11
810.808	350.5
811.198	275.6
811.589	235.81
811.979	249.85
812.369	266.24
812.759	362.2
813.15	306.03
813.54	329.43
813.93	280.28
814.32	296.66
814.71	289.64
815.1	364.54
815.489	282.62
815.879	369.22
816.269	303.68
816.658	341.13
817.048	355.18
817.438	268.58
817.827	320.07
818.216	296.66
818.606	348.15
818.995	308.37
819.384	317.73
819.773	277.94
820.163	284.96
820.552	320.07
820.941	355.18
821.33	322.41
821.718	383.26
822.107	352.84
822.496	334.11
822.885	317.73
823.273	320.07
823.662	289.64
824.05	369.22
824.439	294.32
824.827	303.68
825.216	343.47
825.604	284.96
825.992	366.88
826.38	287.3
826.768	362.2
827.156	247.51
827.544	310.71
827.932	334.11
828.32	313.05
828.708	350.5
829.096	320.07
829.483	343.47
829.871	373.9
830.259	320.07
830.646	343.47
831.034	301.34
831.421	383.26
831.808	359.86
832.196	334.11
832.583	397.31
832.97	380.92
833.357	284.96
833.744	329.43
834.131	345.81
834.518	362.2
834.905	355.18
835.292	310.71
835.678	315.39
836.065	266.24
836.452	280.28
836.838	336.45
837.225	324.75
837.611	266.24
837.998	329.43
838.384	369.22
838.77	345.81
839.157	345.81
839.543	320.07
839.929	310.71
840.315	348.15
840.701	359.86
841.087	359.86
841.473	291.98
841.858	338.79
842.244	287.3
842.63	259.21
843.015	348.15
843.401	600.93
843.787	320.07
844.172	299
844.557	331.77
844.943	301.34
845.328	334.11
845.713	273.26
846.098	359.86
846.483	348.15
846.868	320.07
847.253	322.41
847.638	291.98
848.023	334.11
848.408	366.88
848.793	338.79
849.177	268.58
849.562	315.39
849.947	280.28
850.331	343.47
850.715	291.98
851.1	331.77
851.484	261.55
851.868	341.13
852.253	294.32
852.637	282.62
853.021	390.28
853.405	327.09
853.789	324.75
854.173	362.2
854.557	277.94
854.94	313.05
855.324	336.45
855.708	345.81
856.091	336.45
856.475	369.22
856.858	371.56
857.242	270.92
857.625	299
858.009	341.13
858.392	348.15
858.775	327.09
859.158	294.32
859.541	341.13
859.924	315.39
860.307	296.66
860.69	364.54
861.073	291.98
861.456	385.6
861.838	369.22
862.221	303.68
862.604	355.18
862.986	259.21
863.369	357.52
863.751	324.75
864.133	343.47
864.516	303.68
864.898	359.86
865.28	343.47
865.662	327.09
866.044	331.77
866.426	310.71
866.808	291.98
867.19	242.83
867.572	336.45
867.954	315.39
868.336	249.85
868.717	338.79
869.099	359.86
869.48	331.77
869.862	369.22
870.243	303.68
870.625	334.11
871.006	320.07
871.387	320.07
871.768	324.75
872.149	334.11
872.53	317.73
872.911	306.03
873.292	263.9
873.673	252.19
874.054	284.96
874.435	345.81
874.815	303.68
875.196	348.15
875.577	284.96
875.957	254.53
876.338	350.5
876.718	343.47
877.098	329.43
877.479	320.07
877.859	320.07
878.239	343.47
878.619	308.37
878.999	338.79
879.379	315.39
879.759	306.03
880.139	364.54
880.519	397.31
880.898	338.79
881.278	308.37
881.658	266.24
882.037	308.37
882.417	348.15
882.796	301.34
883.176	341.13
883.555	371.56
883.934	378.58
884.313	315.39
884.693	362.2
885.072	348.15
885.451	373.9
885.83	371.56
886.209	331.77
886.587	313.05
886.966	357.52
887.345	317.73
887.724	317.73
888.102	306.03
888.481	348.15
888.859	385.6
889.238	359.86
889.616	336.45
889.994	299
890.373	338.79
890.751	291.98
891.129	334.11
891.507	331.77
891.885	331.77
892.263	287.3
892.641	310.71
893.019	308.37
893.396	371.56
893.774	306.03
894.152	373.9
894.529	334.11
894.907	397.31
895.284	313.05
895.662	322.41
896.039	303.68
896.416	331.77
896.794	357.52
897.171	357.52
897.548	310.71
897.925	357.52
898.302	357.52
898.679	352.84
899.056	338.79
899.433	306.03
899.809	306.03
900.186	277.94
900.563	280.28
900.939	324.75
901.316	387.94
901.692	252.19
902.069	294.32
902.445	317.73
902.821	317.73
903.197	338.79
903.574	341.13
903.95	357.52
904.326	252.19
904.702	308.37
905.078	362.2
905.454	352.84
905.829	259.21
906.205	364.54
906.581	317.73
906.956	266.24
907.332	299
907.707	284.96
908.083	280.28
908.458	322.41
908.833	343.47
909.209	289.64
909.584	413.69
909.959	270.92
910.334	263.9
910.709	341.13
911.084	270.92
911.459	306.03
911.834	275.6
912.209	338.79
912.583	273.26
912.958	266.24
913.333	369.22
913.707	296.66
914.082	343.47
914.456	343.47
914.83	334.11
915.205	348.15
915.579	308.37
915.953	313.05
916.327	350.5
916.701	303.68
917.075	301.34
917.449	299
917.823	324.75
918.197	343.47
918.571	348.15
918.944	371.56
919.318	317.73
919.692	322.41
920.065	308.37
920.438	291.98
920.812	313.05
921.185	317.73
921.558	240.49
921.932	294.32
922.305	301.34
922.678	376.24
923.051	299
923.424	303.68
923.797	334.11
924.17	357.52
924.542	315.39
924.915	313.05
925.288	315.39
925.661	313.05
926.033	310.71
926.406	303.68
926.778	329.43
927.15	355.18
927.523	315.39
927.895	287.3
928.267	324.75
928.639	320.07
929.011	270.92
929.383	299
929.755	303.68
930.127	336.45
930.499	310.71
930.871	228.79
931.242	284.96
931.614	334.11
931.986	378.58
932.357	329.43
932.729	282.62
933.1	301.34
933.471	313.05
933.843	291.98
934.214	399.65
934.585	348.15
934.956	352.84
935.327	357.52
935.698	357.52
936.069	313.05
936.44	277.94
936.811	284.96
937.182	324.75
937.552	306.03
937.923	324.75
938.293	299
938.664	291.98
939.034	355.18
939.405	303.68
939.775	303.68
940.145	280.28
940.516	287.3
940.886	378.58
941.256	362.2
941.626	352.84
941.996	355.18
942.366	303.68
942.735	362.2
943.105	341.13
943.475	322.41
943.845	308.37
944.214	357.52
944.584	313.05
944.953	296.66
945.323	310.71
945.692	280.28
946.061	310.71
946.43	315.39
946.8	256.87
947.169	221.77
947.538	266.24
947.907	315.39
948.276	289.64
948.645	291.98
949.013	317.73
949.382	315.39
949.751	327.09
950.119	331.77
950.488	348.15
950.857	299
951.225	359.86
951.593	308.37
951.962	315.39
952.33	306.03
952.698	345.81
953.066	259.21
953.434	289.64
953.802	303.68
954.17	322.41
954.538	341.13
954.906	322.41
955.274	313.05
955.642	366.88
956.009	320.07
956.377	334.11
956.744	315.39
957.112	268.58
957.479	334.11
957.847	301.34
958.214	350.5
958.581	313.05
958.948	336.45
959.315	280.28
959.683	310.71
960.05	315.39
960.416	348.15
960.783	242.83
961.15	308.37
961.517	277.94
961.884	359.86
962.25	357.52
962.617	322.41
962.983	280.28
963.35	336.45
963.716	287.3
964.082	287.3
964.449	310.71
964.815	303.68
965.181	266.24
965.547	308.37
965.913	341.13
966.279	301.34
966.645	338.79
967.011	301.34
967.377	322.41
967.742	287.3
968.108	306.03
968.474	235.81
968.839	301.34
969.205	352.84
969.57	359.86
969.935	303.68
970.301	329.43
970.666	385.6
971.031	322.41
971.396	348.15
971.761	301.34
972.126	371.56
972.491	310.71
972.856	310.71
973.221	348.15
973.586	310.71
973.95	336.45
974.315	277.94
974.679	329.43
975.044	277.94
975.408	324.75
975.773	331.77
976.137	331.77
976.501	343.47
976.866	284.96
977.23	308.37
977.594	315.39
977.958	287.3
978.322	284.96
978.686	287.3
979.049	364.54
979.413	327.09
979.777	336.45
980.141	338.79
980.504	336.45
980.868	308.37
981.231	369.22
981.595	289.64
981.958	245.17
982.321	284.96
982.684	299
983.048	277.94
983.411	270.92
983.774	324.75
984.137	310.71
984.5	327.09
984.862	299
985.225	341.13
985.588	317.73
985.951	329.43
986.313	331.77
986.676	336.45
987.038	268.58
987.401	294.32
987.763	343.47
988.125	338.79
988.488	280.28
988.85	299
989.212	362.2
989.574	261.55
989.936	301.34
990.298	270.92
990.66	308.37
991.022	238.15
991.383	313.05
991.745	362.2
992.107	331.77
992.468	336.45
992.83	277.94
993.191	352.84
993.553	308.37
993.914	348.15
994.275	355.18
994.637	336.45
994.998	294.32
995.359	355.18
995.72	315.39
996.081	341.13
996.442	331.77
996.803	296.66
997.163	341.13
997.524	336.45
997.885	273.26
998.245	390.28
998.606	299
998.966	334.11
999.327	228.79
999.687	324.75
1000.047	355.18
1000.408	303.68
1000.768	299
1001.128	291.98
1001.488	327.09
1001.848	266.24
1002.208	296.66
1002.568	411.35
1002.927	315.39
1003.287	336.45
1003.647	296.66
1004.007	299
1004.366	303.68
1004.726	289.64
1005.085	355.18
1005.444	350.5
1005.804	369.22
1006.163	385.6
1006.522	317.73
1006.881	266.24
1007.24	282.62
1007.599	240.49
1007.958	324.75
1008.317	289.64
1008.676	315.39
1009.035	320.07
1009.393	387.94
1009.752	341.13
1010.111	266.24
1010.469	299
1010.828	282.62
1011.186	352.84
1011.544	334.11
1011.903	296.66
1012.261	350.5
1012.619	343.47
1012.977	355.18
1013.335	289.64
1013.693	284.96
1014.051	310.71
1014.409	341.13
1014.767	299
1015.124	336.45
1015.482	315.39
1015.84	291.98
1016.197	310.71
1016.555	317.73
1016.912	275.6
1017.269	303.68
1017.627	329.43
1017.984	287.3
1018.341	350.5
1018.698	324.75
1019.055	263.9
1019.412	334.11
1019.769	256.87
1020.126	310.71
1020.483	299
1020.84	352.84
1021.196	331.77
1021.553	357.52
1021.909	366.88
1022.266	359.86
1022.622	303.68
1022.979	291.98
1023.335	357.52
1023.691	357.52
1024.047	320.07
1024.404	296.66
1024.76	352.84
1025.116	296.66
1025.472	301.34
1025.827	320.07
1026.183	373.9
1026.539	303.68
1026.895	341.13
1027.25	338.79
1027.606	301.34
1027.961	373.9
1028.317	324.75
1028.672	254.53
1029.028	334.11
1029.383	329.43
1029.738	359.86
1030.093	317.73
1030.448	287.3
1030.803	289.64
1031.158	334.11
1031.513	287.3
1031.868	345.81
1032.223	275.6
1032.577	359.86
1032.932	313.05
1033.287	369.22
1033.641	322.41
1033.996	315.39
1034.35	362.2
1034.704	296.66
1035.059	310.71
1035.413	287.3
1035.767	287.3
1036.121	287.3
