Data from Al_FLMS009871__769__15-18-16-622.txt Node

Date: Fri Mar 08 15:18:16 CST 2024
User: pe5414po
Spectrometer: FLMS00987
Trigger mode: 0
Integration Time (sec): 1.000000E-1
Scans to average: 1
Electric dark correction enabled: true
Nonlinearity correction enabled: false
Boxcar width: 0
XAxis mode: Wavelengths
Number of Pixels in Spectrum: 2048
>>>>>Begin Spectral Data<<<<<
188.938	-69.92
189.409	-69.92
189.879	-69.92
190.349	-74.6
190.819	-34.82
191.29	-69.92
191.76	-46.52
192.23	-154.18
192.7	-81.63
193.17	-55.88
193.64	-69.92
194.109	35.4
194.579	-13.75
195.049	-18.43
195.519	21.36
195.988	65.83
196.458	54.12
196.927	79.87
197.397	82.21
197.866	56.47
198.336	114.98
198.805	180.51
199.274	159.45
199.744	199.24
200.213	250.73
200.682	318.61
201.151	229.67
201.62	227.32
202.089	276.48
202.558	264.77
203.027	217.96
203.495	360.74
203.964	323.29
204.433	309.24
204.902	290.52
205.37	365.42
205.839	356.05
206.307	402.86
206.776	358.39
207.244	386.48
207.712	414.57
208.181	395.84
208.649	442.65
209.117	402.86
209.585	435.63
210.053	444.99
210.521	533.93
210.989	529.25
211.457	480.1
211.925	552.66
212.393	665
212.861	648.62
213.328	632.24
213.796	735.22
214.264	714.16
214.731	662.66
215.199	711.82
215.666	870.97
216.133	959.91
216.601	1147.16
217.068	1158.86
217.535	1411.64
218.003	1449.08
218.47	1437.38
218.937	1474.83
219.404	1402.27
219.871	1584.84
220.338	1556.75
220.805	1643.35
221.271	1662.07
221.738	1762.72
222.205	1708.88
222.671	1844.63
223.138	2102.09
223.605	1975.7
224.071	1919.53
224.538	1914.85
225.004	1992.09
225.47	1975.7
225.937	2141.88
226.403	2123.16
226.869	1854
227.335	1790.8
227.801	1786.12
228.267	1823.57
228.733	1795.48
229.199	1954.64
229.665	2083.37
230.131	2324.44
230.597	2287
231.062	2291.68
231.528	2184.01
231.994	2027.2
232.459	1924.21
232.925	1975.7
233.39	2109.12
233.856	2294.02
234.321	2588.93
234.786	3075.76
235.252	4140.7
235.717	4863.93
236.182	5362.46
236.647	4629.87
237.112	3431.52
237.577	2771.49
238.042	2411.04
238.507	2024.86
238.972	1928.89
239.436	1924.21
239.901	1879.74
240.366	1825.91
240.83	1741.65
241.295	1935.92
241.76	1783.78
242.224	1903.15
242.688	2001.45
243.153	1814.21
243.617	1715.91
244.081	1807.19
244.545	1928.89
245.01	2034.22
245.474	2160.61
245.938	2148.9
246.402	1954.64
246.866	1903.15
247.33	1868.04
247.793	1940.6
248.257	1868.04
248.721	1865.7
249.185	1896.13
249.648	2036.56
250.112	1797.82
250.575	1961.66
251.039	1854
251.502	1886.76
251.965	1947.62
252.429	2104.43
252.892	2017.83
253.355	1945.28
253.818	2074.01
254.281	2202.74
254.744	2427.43
255.207	2720
255.67	3213.85
256.133	3913.67
256.596	4344.33
257.059	4119.64
257.522	3534.5
257.984	2968.09
258.447	2689.57
258.909	2811.28
259.372	2680.21
259.834	2691.91
260.297	2647.44
260.759	2626.37
261.221	2715.31
261.684	3380.03
262.146	3997.93
262.608	3916.01
263.07	3806
263.532	3298.11
263.994	3096.82
264.456	3241.93
264.918	3117.89
265.38	2982.14
265.842	2851.07
266.303	2563.18
266.765	2191.03
267.227	2057.62
267.688	2003.79
268.15	1989.75
268.611	1964
269.072	2015.49
269.534	2057.62
269.995	1978.05
270.456	1975.7
270.918	1931.23
271.379	1938.26
271.84	1828.25
272.301	1882.08
272.762	1814.21
273.223	1854
273.684	1879.74
274.144	1938.26
274.605	1875.06
275.066	1982.73
275.527	2020.17
275.987	2165.29
276.448	2586.58
276.908	2883.83
277.369	3714.72
277.829	5563.75
278.289	8950.5
278.75	12138.31
279.21	13264.11
279.67	10979.75
280.13	8407.5
280.59	6822.95
281.05	5907.8
281.51	5100.32
281.97	3995.59
282.43	3012.56
282.89	2399.34
283.35	2272.95
283.809	2315.08
284.269	2745.74
284.729	2778.51
285.188	2476.58
285.648	2099.75
286.107	1896.13
286.567	1788.46
287.026	1884.42
287.485	1825.91
287.944	1746.33
288.404	1746.33
288.863	1692.5
289.322	1741.65
289.781	1800.16
290.24	1713.56
290.699	1877.4
291.158	1893.79
291.616	2118.48
292.075	2242.53
292.534	2436.79
292.992	2649.78
293.451	2570.2
293.91	2340.83
294.368	2083.37
294.827	1905.49
295.285	1603.56
295.743	1559.09
296.202	1598.88
296.66	1563.77
297.118	1615.26
297.576	1601.22
298.034	1601.22
298.492	1631.65
298.95	1566.11
299.408	1638.67
299.866	1669.09
300.324	1678.46
300.781	1638.67
301.239	1671.44
301.697	1701.86
302.154	1811.87
302.612	2008.47
303.069	2020.17
303.527	2223.8
303.984	2347.85
304.441	3033.63
304.899	3571.95
305.356	4098.57
305.813	4133.68
306.27	3995.59
306.727	4295.18
307.184	5406.93
307.641	7211.48
308.098	8646.23
308.555	9336.69
309.012	8817.09
309.468	7185.74
309.925	4882.65
310.382	3319.17
310.838	2757.44
311.295	2287
311.751	2088.05
312.208	2059.96
312.664	1886.76
313.12	1877.4
313.577	1727.61
314.033	1711.22
314.489	1631.65
314.945	1605.9
315.401	1521.64
315.857	1507.6
316.313	1477.17
316.769	1549.73
317.225	1456.11
317.681	1442.06
318.136	1430.36
318.592	1378.87
319.048	1423.34
319.503	1446.74
319.959	1406.95
320.414	1374.19
320.869	1390.57
321.325	1472.49
321.78	1395.25
322.235	1423.34
322.691	1425.68
323.146	1376.53
323.601	1629.31
324.056	1889.1
324.511	2127.84
324.966	2017.83
325.421	1795.48
325.875	1477.17
326.33	1570.79
326.785	1755.69
327.24	1844.63
327.694	1884.42
328.149	1523.98
328.603	1378.87
329.058	1334.4
329.512	1392.91
329.966	1371.85
330.421	1416.32
330.875	1362.48
331.329	1353.12
331.783	1388.23
332.237	1413.98
332.691	1502.92
333.145	1559.09
333.599	1512.28
334.053	1601.22
334.507	1570.79
334.96	1582.49
335.414	1540.37
335.868	1498.24
336.321	1439.72
336.775	1402.27
337.228	1491.21
337.682	1367.17
338.135	1439.72
338.588	1355.46
339.042	1388.23
339.495	1456.11
339.948	1406.95
340.401	1294.61
340.854	1402.27
341.307	1325.04
341.76	1362.48
342.213	1367.17
342.666	1371.85
343.119	1435.04
343.571	1413.98
344.024	1535.68
344.477	1495.89
344.929	1470.15
345.382	1460.79
345.834	1472.49
346.287	1435.04
346.739	1486.53
347.191	1430.36
347.644	1481.85
348.096	1549.73
348.548	1498.24
349	1402.27
349.452	1477.17
349.904	1432.7
350.356	1512.28
350.808	1542.71
351.26	1538.02
351.711	1509.94
352.163	1584.84
352.615	1690.16
353.066	1725.27
353.518	1662.07
353.969	1713.56
354.421	1825.91
354.872	1858.68
355.324	2120.82
355.775	2256.57
356.226	2581.9
356.677	2858.09
357.128	3408.11
357.579	4255.39
358.03	5175.22
358.481	5947.59
358.932	5701.84
359.383	4828.82
359.834	3993.25
360.285	3461.94
360.735	3113.21
361.186	2769.15
361.637	2670.84
362.087	2378.28
362.538	2109.12
362.988	1999.11
363.438	1893.79
363.889	1797.82
364.339	1823.57
364.789	1690.16
365.239	1666.75
365.689	1559.09
366.139	1523.98
366.589	1509.94
367.039	1502.92
367.489	1486.53
367.939	1470.15
368.389	1439.72
368.839	1423.34
369.288	1362.48
369.738	1416.32
370.187	1472.49
370.637	1392.91
371.086	1533.34
371.536	1526.32
371.985	1488.87
372.434	1460.79
372.884	1509.94
373.333	1542.71
373.782	1495.89
374.231	1514.62
374.68	1481.85
375.129	1474.83
375.578	1458.45
376.027	1392.91
376.475	1308.65
376.924	1334.4
377.373	1315.67
377.822	1327.38
378.27	1449.08
378.719	1435.04
379.167	1367.17
379.616	1339.08
380.064	1458.45
380.512	1495.89
380.961	1460.79
381.409	1467.81
381.857	1612.92
382.305	1865.7
382.753	2001.45
383.201	2389.98
383.649	2446.15
384.097	2340.83
384.545	1985.07
384.992	1533.34
385.44	1531
385.888	1610.58
386.335	1552.07
386.783	1402.27
387.231	1486.53
387.678	1465.47
388.125	1458.45
388.573	1481.85
389.02	1491.21
389.467	1435.04
389.914	1601.22
390.362	1500.58
390.809	1540.37
391.256	1549.73
391.703	1648.03
392.15	1720.59
392.596	1877.4
393.043	2167.63
393.49	2776.17
393.937	4075.17
394.383	5989.72
394.83	7049.99
395.276	6301.01
395.723	6183.99
396.169	7981.52
396.616	8470.69
397.062	6247.18
397.508	3761.53
397.954	2645.1
398.401	2322.1
398.847	2043.58
399.293	2116.14
399.739	1758.03
400.185	1802.51
400.631	1725.27
401.076	1591.86
401.522	1580.15
401.968	1626.96
402.414	1605.9
402.859	1676.12
403.305	1758.03
403.75	1818.89
404.196	1701.86
404.641	1676.12
405.086	1561.43
405.532	1608.24
405.977	1582.49
406.422	1509.94
406.867	1547.39
407.312	1570.79
407.757	1580.15
408.202	1542.71
408.647	1432.7
409.092	1554.41
409.537	1453.77
409.982	1453.77
410.426	1495.89
410.871	1500.58
411.316	1477.17
411.76	1470.15
412.205	1479.51
412.649	1425.68
413.093	1353.12
413.538	1388.23
413.982	1481.85
414.426	1369.51
414.87	1348.44
415.314	1353.12
415.758	1343.76
416.202	1301.63
416.646	1245.46
417.09	1332.06
417.534	1395.25
417.978	1376.53
418.421	1388.23
418.865	1435.04
419.309	1348.44
419.752	1421
420.196	1341.42
420.639	1325.04
421.083	1432.7
421.526	1397.59
421.969	1346.1
422.412	1348.44
422.856	1348.44
423.299	1346.1
423.742	1315.67
424.185	1425.68
424.628	1383.55
425.071	1229.07
425.513	1303.97
425.956	1296.95
426.399	1320.35
426.842	1303.97
427.284	1306.31
427.727	1278.23
428.169	1250.14
428.612	1271.2
429.054	1240.78
429.497	1226.73
429.939	1296.95
430.381	1114.39
430.823	1266.52
431.265	1119.07
431.707	1233.75
432.149	1240.78
432.591	1243.12
433.033	1231.41
433.475	1301.63
433.917	1205.67
434.359	1250.14
434.8	1275.88
435.242	1296.95
435.684	1271.2
436.125	1280.57
436.567	1147.16
437.008	1165.88
437.449	1282.91
437.891	1238.44
438.332	1318.01
438.773	1259.5
439.214	1236.1
439.656	1205.67
440.097	1245.46
440.538	1308.65
440.978	1306.31
441.419	1341.42
441.86	1257.16
442.301	1364.82
442.742	1383.55
443.182	1376.53
443.623	1381.21
444.063	1437.38
444.504	1383.55
444.944	1374.19
445.385	1477.17
445.825	1376.53
446.265	1437.38
446.706	1552.07
447.146	1547.39
447.586	1519.3
448.026	1523.98
448.466	1573.13
448.906	1655.05
449.346	1456.11
449.786	1479.51
450.225	1547.39
450.665	1449.08
451.105	1561.43
451.544	1460.79
451.984	1570.79
452.424	1526.32
452.863	1570.79
453.302	1505.26
453.742	1533.34
454.181	1556.75
454.62	1495.89
455.059	1467.81
455.499	1406.95
455.938	1383.55
456.377	1418.66
456.816	1383.55
457.254	1360.14
457.693	1334.4
458.132	1318.01
458.571	1254.82
459.01	1355.46
459.448	1296.95
459.887	1170.56
460.325	1374.19
460.764	1322.7
461.202	1374.19
461.641	1390.57
462.079	1285.25
462.517	1416.32
462.955	1409.3
463.393	1481.85
463.832	1526.32
464.27	1484.19
464.708	1418.66
465.145	1484.19
465.583	1605.9
466.021	1664.41
466.459	1610.58
466.897	1797.82
467.334	1793.14
467.772	1765.06
468.209	1729.95
468.647	1458.45
469.084	1421
469.522	1456.11
469.959	1259.5
470.396	1313.33
470.833	1341.42
471.271	1411.64
471.708	1381.21
472.145	1310.99
472.582	1240.78
473.019	1390.57
473.456	1271.2
473.892	1399.93
474.329	1313.33
474.766	1292.27
475.202	1268.86
475.639	1280.57
476.076	1282.91
476.512	1357.8
476.949	1402.27
477.385	1404.61
477.821	1369.51
478.258	1402.27
478.694	1346.1
479.13	1374.19
479.566	1430.36
480.002	1385.89
480.438	1425.68
480.874	1346.1
481.31	1360.14
481.746	1392.91
482.181	1346.1
482.617	1428.02
483.053	1425.68
483.488	1334.4
483.924	1332.06
484.36	1378.87
484.795	1493.55
485.23	1554.41
485.666	1549.73
486.101	1385.89
486.536	1531
486.971	1493.55
487.407	1514.62
487.842	1540.37
488.277	1463.13
488.712	1413.98
489.146	1474.83
489.581	1425.68
490.016	1367.17
490.451	1428.02
490.885	1430.36
491.32	1498.24
491.755	1409.3
492.189	1388.23
492.624	1423.34
493.058	1449.08
493.492	1556.75
493.927	1371.85
494.361	1409.3
494.795	1364.82
495.229	1397.59
495.663	1451.42
496.097	1460.79
496.531	1465.47
496.965	1425.68
497.399	1390.57
497.833	1463.13
498.266	1547.39
498.7	1633.99
499.134	1615.26
499.567	1680.8
500.001	1821.23
500.434	1919.53
500.868	2055.28
501.301	2045.92
501.734	1938.26
502.168	1849.32
502.601	1776.76
503.034	1633.99
503.467	1601.22
503.9	1523.98
504.333	1601.22
504.766	1594.2
505.199	1657.39
505.632	1762.72
506.064	1659.73
506.497	1523.98
506.93	1638.67
507.362	1622.28
507.795	1587.18
508.227	1418.66
508.66	1435.04
509.092	1444.4
509.524	1484.19
509.956	1385.89
510.389	1437.38
510.821	1418.66
511.253	1456.11
511.685	1474.83
512.117	1411.64
512.549	1404.61
512.981	1432.7
513.412	1428.02
513.844	1423.34
514.276	1449.08
514.707	1575.47
515.139	1533.34
515.571	1568.45
516.002	1603.56
516.433	1598.88
516.865	1727.61
517.296	1907.83
517.727	1928.89
518.159	2064.65
518.59	2090.39
519.021	2233.16
519.452	2095.07
519.883	1837.61
520.314	1718.25
520.744	1610.58
521.175	1662.07
521.606	1701.86
522.037	1741.65
522.467	1891.45
522.898	1907.83
523.328	1708.88
523.759	1743.99
524.189	1772.08
524.62	1865.7
525.05	1898.47
525.48	2017.83
525.91	2092.73
526.341	2261.25
526.771	2350.19
527.201	2539.77
527.631	2691.91
528.061	3071.08
528.49	3445.56
528.92	3873.88
529.35	5360.12
529.78	10621.64
530.209	48760.67
530.639	63044.96
531.068	63044.96
531.498	63044.96
531.927	63044.96
532.357	63044.96
532.786	63044.96
533.215	63044.96
533.644	63044.96
534.074	63044.96
534.503	24922.32
534.932	12707.06
535.361	7576.61
535.79	5399.91
536.218	4325.6
536.647	3803.66
537.076	3225.55
537.505	2738.72
537.933	2301.04
538.362	2160.61
538.79	1928.89
539.219	1816.55
539.647	1545.05
540.076	1556.75
540.504	1411.64
540.932	1341.42
541.36	1411.64
541.788	1374.19
542.217	1367.17
542.645	1360.14
543.073	1264.18
543.5	1261.84
543.928	1313.33
544.356	1289.93
544.784	1343.76
545.211	1275.88
545.639	1177.58
546.067	1222.05
546.494	1121.41
546.922	1236.1
547.349	1123.75
547.776	1130.77
548.204	1254.82
548.631	1135.45
549.058	1116.73
549.485	1130.77
549.912	1172.9
550.339	1252.48
550.766	1133.11
551.193	1128.43
551.62	1158.86
552.047	1030.13
552.474	1126.09
552.9	1098
553.327	1184.6
553.754	1191.63
554.18	1186.94
554.607	1193.97
555.033	1128.43
555.459	1165.88
555.886	1076.94
556.312	1098
556.738	1114.39
557.164	1137.79
557.59	1128.43
558.016	1149.5
558.442	1208.01
558.868	1116.73
559.294	1156.52
559.72	1189.28
560.145	1238.44
560.571	1247.8
560.997	1156.52
561.422	1156.52
561.848	1041.83
562.273	1123.75
562.699	1114.39
563.124	1100.34
563.549	1086.3
563.974	1100.34
564.4	1116.73
564.825	1121.41
565.25	1105.03
565.675	1126.09
566.1	1189.28
566.525	1161.2
566.95	1313.33
567.374	1313.33
567.799	1404.61
568.224	1332.06
568.648	1402.27
569.073	1465.47
569.497	1353.12
569.922	1350.78
570.346	1301.63
570.771	1266.52
571.195	1268.86
571.619	1236.1
572.043	1179.92
572.467	1079.28
572.891	1100.34
573.315	1151.84
573.739	1098
574.163	1069.92
574.587	1161.2
575.011	950.55
575.435	976.3
575.858	969.27
576.282	941.19
576.705	915.44
577.129	978.64
577.552	969.27
577.976	983.32
578.399	852.25
578.822	938.85
579.245	889.7
579.669	899.06
580.092	826.5
580.515	892.04
580.938	875.65
581.361	896.72
581.784	751.6
582.206	852.25
582.629	782.03
583.052	819.48
583.474	863.95
583.897	819.48
584.32	695.43
584.742	856.93
585.165	805.44
585.587	716.5
586.009	852.25
586.431	885.02
586.854	800.76
587.276	845.23
587.698	805.44
588.12	751.6
588.542	772.67
588.964	875.65
589.386	753.95
589.807	765.65
590.229	796.07
590.651	767.99
591.073	763.31
591.494	758.63
591.916	746.92
592.337	826.5
592.759	840.54
593.18	894.38
593.601	826.5
594.022	863.95
594.444	786.71
594.865	845.23
595.286	927.14
595.707	814.8
596.128	791.39
596.549	849.91
596.97	833.52
597.39	760.97
597.811	686.07
598.232	777.35
598.652	742.24
599.073	812.46
599.494	777.35
599.914	758.63
600.334	756.29
600.755	772.67
601.175	807.78
601.595	789.05
602.015	789.05
602.436	793.73
602.856	856.93
603.276	758.63
603.696	767.99
604.115	744.58
604.535	746.92
604.955	810.12
605.375	770.33
605.794	770.33
606.214	838.2
606.634	807.78
607.053	693.09
607.473	866.29
607.892	772.67
608.311	749.26
608.731	791.39
609.15	821.82
609.569	791.39
609.988	767.99
610.407	821.82
610.826	721.18
611.245	760.97
611.664	861.61
612.083	770.33
612.501	784.37
612.92	760.97
613.339	725.86
613.757	742.24
614.176	814.8
614.594	873.31
615.013	767.99
615.431	679.05
615.85	810.12
616.268	737.56
616.686	810.12
617.104	854.59
617.522	744.58
617.94	791.39
618.358	756.29
618.776	739.9
619.194	730.54
619.612	791.39
620.03	805.44
620.447	821.82
620.865	751.6
621.282	793.73
621.7	786.71
622.117	887.36
622.535	910.76
622.952	889.7
623.369	906.08
623.787	929.49
624.204	1009.06
624.621	1002.04
625.038	1032.47
625.455	1154.18
625.872	1072.26
626.289	1069.92
626.706	1055.87
627.123	997.36
627.539	955.23
627.956	973.96
628.373	880.33
628.789	887.36
629.206	931.83
629.622	854.59
630.038	817.14
630.455	779.69
630.871	760.97
631.287	767.99
631.703	749.26
632.12	772.67
632.536	707.13
632.952	716.5
633.368	657.98
633.783	714.16
634.199	707.13
634.615	721.18
635.031	674.37
635.446	688.41
635.862	683.73
636.277	660.32
636.693	746.92
637.108	704.79
637.524	758.63
637.939	629.9
638.354	618.19
638.77	643.94
639.185	608.83
639.6	629.9
640.015	679.05
640.43	662.66
640.845	625.22
641.259	676.71
641.674	552.66
642.089	693.09
642.504	629.9
642.918	555
643.333	622.88
643.747	634.58
644.162	606.49
644.576	660.32
644.991	547.98
645.405	627.56
645.819	550.32
646.233	597.13
646.647	599.47
647.061	665
647.475	587.77
647.889	573.72
648.303	615.85
648.717	587.77
649.131	569.04
649.545	573.72
649.958	590.11
650.372	611.17
650.785	667.35
651.199	573.72
651.612	566.7
652.026	559.68
652.439	533.93
652.852	608.83
653.266	608.83
653.679	622.88
654.092	597.13
654.505	639.26
654.918	597.13
655.331	690.75
655.744	660.32
656.156	695.43
656.569	660.32
656.982	643.94
657.394	714.16
657.807	613.51
658.22	608.83
658.632	636.92
659.044	545.64
659.457	739.9
659.869	669.69
660.281	653.3
660.693	629.9
661.106	580.75
661.518	606.49
661.93	571.38
662.342	555
662.754	562.02
663.165	611.17
663.577	587.77
663.989	625.22
664.401	566.7
664.812	536.28
665.224	590.11
665.635	569.04
666.047	503.51
666.458	519.89
666.869	594.79
667.281	508.19
667.692	559.68
668.103	508.19
668.514	491.81
668.925	543.3
669.336	533.93
669.747	512.87
670.158	524.57
670.569	576.06
670.979	512.87
671.39	503.51
671.801	526.91
672.211	531.59
672.622	533.93
673.032	536.28
673.443	461.38
673.853	477.76
674.263	583.09
674.674	531.59
675.084	543.3
675.494	477.76
675.904	484.78
676.314	487.12
676.724	456.7
677.134	545.64
677.544	508.19
677.953	452.02
678.363	494.15
678.773	503.51
679.182	529.25
679.592	562.02
680.001	482.44
680.411	480.1
680.82	452.02
681.23	473.08
681.639	536.28
682.048	444.99
682.457	421.59
682.866	473.08
683.275	491.81
683.684	562.02
684.093	557.34
684.502	503.51
684.911	529.25
685.32	501.17
685.728	452.02
686.137	515.21
686.546	466.06
686.954	533.93
687.363	543.3
687.771	505.85
688.179	470.74
688.588	489.46
688.996	475.42
689.404	489.46
689.812	437.97
690.22	426.27
690.628	426.27
691.036	470.74
691.444	505.85
691.852	508.19
692.26	510.53
692.667	482.44
693.075	501.17
693.483	484.78
693.89	477.76
694.298	454.36
694.705	412.23
695.112	533.93
695.52	466.06
695.927	503.51
696.334	444.99
696.741	470.74
697.148	419.25
697.555	484.78
697.962	452.02
698.369	529.25
698.776	524.57
699.183	466.06
699.59	517.55
699.996	468.4
700.403	487.12
700.81	517.55
701.216	517.55
701.623	562.02
702.029	517.55
702.435	475.42
702.842	533.93
703.248	576.06
703.654	648.62
704.06	660.32
704.466	690.75
704.872	676.71
705.278	608.83
705.684	665
706.09	716.5
706.496	672.03
706.901	594.79
707.307	503.51
707.712	517.55
708.118	505.85
708.523	489.46
708.929	426.27
709.334	470.74
709.74	501.17
710.145	484.78
710.55	454.36
710.955	426.27
711.36	393.5
711.765	426.27
712.17	386.48
712.575	440.31
712.98	814.8
713.385	484.78
713.789	416.91
714.194	346.69
714.599	442.65
715.003	442.65
715.408	452.02
715.812	374.78
716.217	437.97
716.621	440.31
717.025	421.59
717.429	421.59
717.833	423.93
718.238	353.71
718.642	442.65
719.046	400.52
719.449	386.48
719.853	398.18
720.257	414.57
720.661	379.46
721.065	358.39
721.468	323.29
721.872	384.14
722.275	374.78
722.679	327.97
723.082	342.01
723.485	318.61
723.889	395.84
724.292	447.33
724.695	363.08
725.098	384.14
725.501	372.44
725.904	407.55
726.307	386.48
726.71	316.26
727.113	311.58
727.516	297.54
727.918	412.23
728.321	365.42
728.724	292.86
729.126	412.23
729.529	367.76
729.931	386.48
730.333	452.02
730.736	374.78
731.138	409.89
731.54	421.59
731.942	327.97
732.344	304.56
732.746	372.44
733.148	325.63
733.55	395.84
733.952	409.89
734.354	416.91
734.756	437.97
735.157	409.89
735.559	379.46
735.96	367.76
736.362	412.23
736.763	395.84
737.165	409.89
737.566	393.5
737.967	370.1
738.368	372.44
738.77	304.56
739.171	447.33
739.572	428.61
739.973	468.4
740.374	372.44
740.774	416.91
741.175	344.35
741.576	349.03
741.977	423.93
742.377	405.21
742.778	463.72
743.178	381.8
743.579	402.86
743.979	398.18
744.379	454.36
744.78	374.78
745.18	395.84
745.58	414.57
745.98	393.5
746.38	444.99
746.78	489.46
747.18	426.27
747.58	384.14
747.98	456.7
748.38	416.91
748.779	402.86
749.179	444.99
749.578	381.8
749.978	405.21
750.377	459.04
750.777	377.12
751.176	449.68
751.575	377.12
751.975	477.76
752.374	409.89
752.773	360.74
753.172	325.63
753.571	342.01
753.97	377.12
754.369	386.48
754.768	360.74
755.166	386.48
755.565	398.18
755.964	337.33
756.362	327.97
756.761	337.33
757.159	360.74
757.558	342.01
757.956	372.44
758.354	372.44
758.753	353.71
759.151	356.05
759.549	384.14
759.947	316.26
760.345	372.44
760.743	306.9
761.141	405.21
761.539	349.03
761.936	395.84
762.334	344.35
762.732	367.76
763.129	356.05
763.527	304.56
763.924	370.1
764.322	395.84
764.719	384.14
765.117	353.71
765.514	402.86
765.911	299.88
766.308	271.79
766.705	358.39
767.102	316.26
767.499	334.99
767.896	349.03
768.293	339.67
768.69	267.11
769.086	367.76
769.483	339.67
769.88	271.79
770.276	327.97
770.673	374.78
771.069	346.69
771.466	267.11
771.862	306.9
772.258	353.71
772.654	311.58
773.05	428.61
773.447	346.69
773.843	353.71
774.239	353.71
774.634	398.18
775.03	405.21
775.426	456.7
775.822	377.12
776.218	414.57
776.613	426.27
777.009	393.5
777.404	409.89
777.8	398.18
778.195	416.91
778.59	374.78
778.986	325.63
779.381	353.71
779.776	388.82
780.171	384.14
780.566	320.95
780.961	367.76
781.356	386.48
781.751	342.01
782.146	367.76
782.54	346.69
782.935	351.37
783.33	384.14
783.724	346.69
784.119	295.2
784.513	377.12
784.908	351.37
785.302	278.82
785.696	325.63
786.09	327.97
786.485	360.74
786.879	327.97
787.273	395.84
787.667	334.99
788.061	306.9
788.454	365.42
788.848	358.39
789.242	346.69
789.636	302.22
790.029	269.45
790.423	264.77
790.816	342.01
791.21	306.9
791.603	323.29
791.997	344.35
792.39	229.67
792.783	416.91
793.176	353.71
793.569	318.61
793.962	334.99
794.355	346.69
794.748	374.78
795.141	381.8
795.534	358.39
795.927	288.18
796.319	334.99
796.712	339.67
797.105	353.71
797.497	346.69
797.89	358.39
798.282	391.16
798.674	318.61
799.067	372.44
799.459	367.76
799.851	313.92
800.243	377.12
800.635	363.08
801.027	372.44
801.419	351.37
801.811	304.56
802.203	365.42
802.594	316.26
802.986	274.14
803.378	332.65
803.769	332.65
804.161	363.08
804.552	311.58
804.944	351.37
805.335	295.2
805.726	313.92
806.118	302.22
806.509	351.37
806.9	342.01
807.291	342.01
807.682	327.97
808.073	327.97
808.464	346.69
808.855	356.05
809.245	346.69
809.636	363.08
810.027	311.58
810.417	297.54
810.808	330.31
811.198	316.26
811.589	339.67
811.979	393.5
812.369	297.54
812.759	299.88
813.15	311.58
813.54	332.65
813.93	381.8
814.32	339.67
814.71	302.22
815.1	370.1
815.489	285.84
815.879	349.03
816.269	309.24
816.658	299.88
817.048	271.79
817.438	285.84
817.827	323.29
818.216	292.86
818.606	344.35
818.995	349.03
819.384	327.97
819.773	299.88
820.163	346.69
820.552	306.9
820.941	370.1
821.33	381.8
821.718	306.9
822.107	353.71
822.496	311.58
822.885	313.92
823.273	339.67
823.662	353.71
824.05	320.95
824.439	332.65
824.827	318.61
825.216	337.33
825.604	306.9
825.992	356.05
826.38	346.69
826.768	297.54
827.156	334.99
827.544	330.31
827.932	297.54
828.32	386.48
828.708	288.18
829.096	377.12
829.483	327.97
829.871	320.95
830.259	360.74
830.646	334.99
831.034	299.88
831.421	334.99
831.808	346.69
832.196	327.97
832.583	358.39
832.97	339.67
833.357	311.58
833.744	344.35
834.131	269.45
834.518	379.46
834.905	332.65
835.292	313.92
835.678	339.67
836.065	278.82
836.452	351.37
836.838	290.52
837.225	356.05
837.611	309.24
837.998	353.71
838.384	327.97
838.77	349.03
839.157	358.39
839.543	278.82
839.929	344.35
840.315	283.5
840.701	285.84
841.087	309.24
841.473	297.54
841.858	334.99
842.244	337.33
842.63	234.35
843.015	330.31
843.401	391.16
843.787	297.54
844.172	311.58
844.557	334.99
844.943	304.56
845.328	260.09
845.713	349.03
846.098	281.16
846.483	292.86
846.868	379.46
847.253	222.64
847.638	337.33
848.023	246.05
848.408	309.24
848.793	285.84
849.177	297.54
849.562	283.5
849.947	281.16
850.331	372.44
850.715	342.01
851.1	358.39
851.484	299.88
851.868	274.14
852.253	292.86
852.637	257.75
853.021	295.2
853.405	278.82
853.789	318.61
854.173	346.69
854.557	356.05
854.94	356.05
855.324	349.03
855.708	339.67
856.091	334.99
856.475	330.31
856.858	386.48
857.242	318.61
857.625	290.52
858.009	278.82
858.392	271.79
858.775	248.39
859.158	330.31
859.541	269.45
859.924	292.86
860.307	349.03
860.69	313.92
861.073	309.24
861.456	292.86
861.838	299.88
862.221	309.24
862.604	281.16
862.986	302.22
863.369	351.37
863.751	353.71
864.133	241.37
864.516	292.86
864.898	323.29
865.28	323.29
865.662	330.31
866.044	353.71
866.426	337.33
866.808	304.56
867.19	327.97
867.572	309.24
867.954	302.22
868.336	377.12
868.717	332.65
869.099	297.54
869.48	288.18
869.862	313.92
870.243	318.61
870.625	304.56
871.006	372.44
871.387	344.35
871.768	318.61
872.149	302.22
872.53	309.24
872.911	292.86
873.292	381.8
873.673	297.54
874.054	351.37
874.435	316.26
874.815	262.43
875.196	358.39
875.577	349.03
875.957	285.84
876.338	339.67
876.718	306.9
877.098	243.71
877.479	318.61
877.859	365.42
878.239	351.37
878.619	330.31
878.999	278.82
879.379	316.26
879.759	302.22
880.139	374.78
880.519	346.69
880.898	339.67
881.278	316.26
881.658	281.16
882.037	349.03
882.417	339.67
882.796	257.75
883.176	283.5
883.555	349.03
883.934	309.24
884.313	365.42
884.693	332.65
885.072	346.69
885.451	337.33
885.83	297.54
886.209	330.31
886.587	234.35
886.966	344.35
887.345	377.12
887.724	372.44
888.102	313.92
888.481	311.58
888.859	302.22
889.238	313.92
889.616	311.58
889.994	360.74
890.373	313.92
890.751	327.97
891.129	224.98
891.507	313.92
891.885	313.92
892.263	384.14
892.641	306.9
893.019	320.95
893.396	332.65
893.774	229.67
894.152	372.44
894.529	344.35
894.907	295.2
895.284	276.48
895.662	304.56
896.039	283.5
896.416	381.8
896.794	285.84
897.171	271.79
897.548	323.29
897.925	351.37
898.302	330.31
898.679	370.1
899.056	316.26
899.433	346.69
899.809	248.39
900.186	374.78
900.563	332.65
900.939	288.18
901.316	330.31
901.692	262.43
902.069	297.54
902.445	374.78
902.821	306.9
903.197	323.29
903.574	325.63
903.95	269.45
904.326	311.58
904.702	353.71
905.078	342.01
905.454	372.44
905.829	316.26
906.205	332.65
906.581	316.26
906.956	285.84
907.332	353.71
907.707	334.99
908.083	295.2
908.458	302.22
908.833	318.61
909.209	297.54
909.584	325.63
909.959	309.24
910.334	304.56
910.709	288.18
911.084	302.22
911.459	334.99
911.834	264.77
912.209	295.2
912.583	302.22
912.958	313.92
913.333	241.37
913.707	271.79
914.082	276.48
914.456	276.48
914.83	295.2
915.205	316.26
915.579	363.08
915.953	332.65
916.327	323.29
916.701	290.52
917.075	302.22
917.449	316.26
917.823	281.16
918.197	276.48
918.571	222.64
918.944	267.11
919.318	269.45
919.692	334.99
920.065	346.69
920.438	283.5
920.812	346.69
921.185	283.5
921.558	278.82
921.932	334.99
922.305	276.48
922.678	306.9
923.051	337.33
923.424	334.99
923.797	306.9
924.17	351.37
924.542	288.18
924.915	283.5
925.288	377.12
925.661	334.99
926.033	304.56
926.406	330.31
926.778	239.03
927.15	318.61
927.523	334.99
927.895	276.48
928.267	346.69
928.639	356.05
929.011	302.22
929.383	288.18
929.755	309.24
930.127	302.22
930.499	320.95
930.871	304.56
931.242	330.31
931.614	363.08
931.986	332.65
932.357	337.33
932.729	267.11
933.1	384.14
933.471	292.86
933.843	285.84
934.214	330.31
934.585	257.75
934.956	344.35
935.327	327.97
935.698	281.16
936.069	323.29
936.44	304.56
936.811	255.41
937.182	264.77
937.552	283.5
937.923	332.65
938.293	313.92
938.664	327.97
939.034	299.88
939.405	313.92
939.775	337.33
940.145	313.92
940.516	297.54
940.886	297.54
941.256	337.33
941.626	372.44
941.996	267.11
942.366	334.99
942.735	302.22
943.105	334.99
943.475	316.26
943.845	337.33
944.214	325.63
944.584	309.24
944.953	316.26
945.323	320.95
945.692	302.22
946.061	339.67
946.43	292.86
946.8	353.71
947.169	327.97
947.538	304.56
947.907	267.11
948.276	337.33
948.645	288.18
949.013	320.95
949.382	327.97
949.751	304.56
950.119	372.44
950.488	330.31
950.857	290.52
951.225	269.45
951.593	285.84
951.962	325.63
952.33	313.92
952.698	302.22
953.066	283.5
953.434	327.97
953.802	278.82
954.17	234.35
954.538	304.56
954.906	281.16
955.274	316.26
955.642	292.86
956.009	353.71
956.377	248.39
956.744	278.82
957.112	302.22
957.479	285.84
957.847	269.45
958.214	299.88
958.581	325.63
958.948	346.69
959.315	248.39
959.683	311.58
960.05	292.86
960.416	363.08
960.783	227.32
961.15	327.97
961.517	299.88
961.884	271.79
962.25	325.63
962.617	346.69
962.983	292.86
963.35	292.86
963.716	302.22
964.082	311.58
964.449	363.08
964.815	309.24
965.181	356.05
965.547	313.92
965.913	351.37
966.279	288.18
966.645	306.9
967.011	358.39
967.377	318.61
967.742	365.42
968.108	316.26
968.474	306.9
968.839	248.39
969.205	297.54
969.57	330.31
969.935	363.08
970.301	330.31
970.666	295.2
971.031	316.26
971.396	327.97
971.761	288.18
972.126	332.65
972.491	318.61
972.856	316.26
973.221	269.45
973.586	297.54
973.95	318.61
974.315	339.67
974.679	278.82
975.044	264.77
975.408	292.86
975.773	283.5
976.137	262.43
976.501	255.41
976.866	318.61
977.23	360.74
977.594	299.88
977.958	278.82
978.322	346.69
978.686	405.21
979.049	313.92
979.413	363.08
979.777	363.08
980.141	306.9
980.504	295.2
980.868	220.3
981.231	325.63
981.595	311.58
981.958	274.14
982.321	309.24
982.684	342.01
983.048	363.08
983.411	276.48
983.774	234.35
984.137	288.18
984.5	295.2
984.862	306.9
985.225	309.24
985.588	288.18
985.951	320.95
986.313	309.24
986.676	288.18
987.038	278.82
987.401	311.58
987.763	262.43
988.125	278.82
988.488	325.63
988.85	278.82
989.212	313.92
989.574	339.67
989.936	320.95
990.298	236.69
990.66	320.95
991.022	299.88
991.383	309.24
991.745	290.52
992.107	295.2
992.468	323.29
992.83	264.77
993.191	283.5
993.553	278.82
993.914	309.24
994.275	323.29
994.637	332.65
994.998	318.61
995.359	344.35
995.72	264.77
996.081	285.84
996.442	215.62
996.803	274.14
997.163	297.54
997.524	346.69
997.885	365.42
998.245	330.31
998.606	267.11
998.966	222.64
999.327	269.45
999.687	297.54
1000.047	299.88
1000.408	262.43
1000.768	316.26
1001.128	283.5
1001.488	316.26
1001.848	344.35
1002.208	246.05
1002.568	306.9
1002.927	323.29
1003.287	297.54
1003.647	339.67
1004.007	299.88
1004.366	255.41
1004.726	285.84
1005.085	288.18
1005.444	267.11
1005.804	306.9
1006.163	290.52
1006.522	327.97
1006.881	330.31
1007.24	337.33
1007.599	316.26
1007.958	367.76
1008.317	311.58
1008.676	257.75
1009.035	297.54
1009.393	264.77
1009.752	304.56
1010.111	276.48
1010.469	351.37
1010.828	381.8
1011.186	290.52
1011.544	327.97
1011.903	309.24
1012.261	318.61
1012.619	311.58
1012.977	255.41
1013.335	367.76
1013.693	297.54
1014.051	292.86
1014.409	327.97
1014.767	290.52
1015.124	342.01
1015.482	274.14
1015.84	276.48
1016.197	288.18
1016.555	297.54
1016.912	337.33
1017.269	304.56
1017.627	304.56
1017.984	269.45
1018.341	302.22
1018.698	297.54
1019.055	253.07
1019.412	318.61
1019.769	311.58
1020.126	342.01
1020.483	288.18
1020.84	325.63
1021.196	334.99
1021.553	281.16
1021.909	313.92
1022.266	278.82
1022.622	311.58
1022.979	311.58
1023.335	306.9
1023.691	337.33
1024.047	325.63
1024.404	356.05
1024.76	262.43
1025.116	278.82
1025.472	306.9
1025.827	246.05
1026.183	302.22
1026.539	278.82
1026.895	283.5
1027.25	297.54
1027.606	309.24
1027.961	318.61
1028.317	311.58
1028.672	290.52
1029.028	325.63
1029.383	311.58
1029.738	353.71
1030.093	285.84
1030.448	306.9
1030.803	255.41
1031.158	323.29
1031.513	353.71
1031.868	327.97
1032.223	311.58
1032.577	285.84
1032.932	267.11
1033.287	274.14
1033.641	353.71
1033.996	281.16
1034.35	295.2
1034.704	276.48
1035.059	299.88
1035.413	311.58
1035.767	311.58
1036.121	311.58
