Data from Al_FLMS009871__779__15-18-17-622.txt Node

Date: Fri Mar 08 15:18:17 CST 2024
User: pe5414po
Spectrometer: FLMS00987
Trigger mode: 0
Integration Time (sec): 1.000000E-1
Scans to average: 1
Electric dark correction enabled: true
Nonlinearity correction enabled: false
Boxcar width: 0
XAxis mode: Wavelengths
Number of Pixels in Spectrum: 2048
>>>>>Begin Spectral Data<<<<<
188.938	-91.13
189.409	-91.13
189.879	-91.13
190.349	-175.39
190.819	-56.03
191.29	-107.52
191.76	-105.18
192.23	-121.56
192.7	-116.88
193.17	-60.71
193.64	-30.28
194.109	-67.73
194.579	23.55
195.049	49.3
195.519	44.62
195.988	-6.88
196.458	35.25
196.927	91.43
197.397	154.62
197.866	82.07
198.336	135.9
198.805	138.24
199.274	166.32
199.744	166.32
200.213	128.88
200.682	259.95
201.151	227.18
201.62	217.82
202.089	227.18
202.558	259.95
203.027	231.86
203.495	182.71
203.964	299.73
204.433	248.24
204.902	278.67
205.37	292.71
205.839	297.39
206.307	252.92
206.776	330.16
207.244	391.02
207.712	327.82
208.181	241.22
208.649	304.42
209.117	304.42
209.585	269.31
210.053	332.5
210.521	297.39
210.989	259.95
211.457	311.44
211.925	255.26
212.393	311.44
212.861	330.16
213.328	311.44
213.796	243.56
214.264	309.1
214.731	332.5
215.199	332.5
215.666	295.05
216.133	313.78
216.601	281.01
217.068	278.67
217.535	259.95
218.003	213.14
218.47	255.26
218.937	285.69
219.404	217.82
219.871	288.03
220.338	325.48
220.805	229.52
221.271	278.67
221.738	281.01
222.205	255.26
222.671	273.99
223.138	222.5
223.605	269.31
224.071	201.43
224.538	304.42
225.004	271.65
225.47	302.08
225.937	199.09
226.403	250.58
226.869	273.99
227.335	276.33
227.801	285.69
228.267	234.2
228.733	311.44
229.199	304.42
229.665	292.71
230.131	236.54
230.597	323.14
231.062	290.37
231.528	325.48
231.994	281.01
232.459	243.56
232.925	273.99
233.39	290.37
233.856	255.26
234.321	290.37
234.786	257.61
235.252	290.37
235.717	281.01
236.182	281.01
236.647	299.73
237.112	259.95
237.577	206.11
238.042	238.88
238.507	257.61
238.972	299.73
239.436	306.76
239.901	276.33
240.366	231.86
240.83	222.5
241.295	323.14
241.76	264.63
242.224	292.71
242.688	288.03
243.153	320.8
243.617	259.95
244.081	266.97
244.545	285.69
245.01	283.35
245.474	295.05
245.938	278.67
246.402	236.54
246.866	231.86
247.33	299.73
247.793	278.67
248.257	245.9
248.721	285.69
249.185	213.14
249.648	248.24
250.112	213.14
250.575	271.65
251.039	288.03
251.502	241.22
251.965	330.16
252.429	283.35
252.892	276.33
253.355	306.76
253.818	283.35
254.281	304.42
254.744	281.01
255.207	283.35
255.67	269.31
256.133	295.05
256.596	306.76
257.059	163.98
257.522	318.46
257.984	320.8
258.447	320.8
258.909	283.35
259.372	269.31
259.834	290.37
260.297	257.61
260.759	224.84
261.221	313.78
261.684	269.31
262.146	304.42
262.608	245.9
263.07	257.61
263.532	255.26
263.994	269.31
264.456	306.76
264.918	262.29
265.38	316.12
265.842	295.05
266.303	255.26
266.765	245.9
267.227	323.14
267.688	273.99
268.15	339.52
268.611	299.73
269.072	304.42
269.534	320.8
269.995	248.24
270.456	337.18
270.918	318.46
271.379	292.71
271.84	276.33
272.301	292.71
272.762	243.56
273.223	266.97
273.684	281.01
274.144	273.99
274.605	266.97
275.066	266.97
275.527	288.03
275.987	295.05
276.448	351.23
276.908	302.08
277.369	297.39
277.829	325.48
278.289	278.67
278.75	302.08
279.21	318.46
279.67	269.31
280.13	283.35
280.59	245.9
281.05	276.33
281.51	299.73
281.97	292.71
282.43	276.33
282.89	248.24
283.35	185.05
283.809	295.05
284.269	313.78
284.729	269.31
285.188	348.89
285.648	292.71
286.107	297.39
286.567	288.03
287.026	339.52
287.485	323.14
287.944	285.69
288.404	302.08
288.863	311.44
289.322	290.37
289.781	306.76
290.24	353.57
290.699	276.33
291.158	332.5
291.616	332.5
292.075	316.12
292.534	306.76
292.992	339.52
293.451	339.52
293.91	213.14
294.368	278.67
294.827	278.67
295.285	374.63
295.743	243.56
296.202	269.31
296.66	255.26
297.118	306.76
297.576	257.61
298.034	369.95
298.492	259.95
298.95	262.29
299.408	302.08
299.866	273.99
300.324	320.8
300.781	273.99
301.239	295.05
301.697	295.05
302.154	313.78
302.612	304.42
303.069	299.73
303.527	292.71
303.984	288.03
304.441	255.26
304.899	330.16
305.356	290.37
305.813	290.37
306.27	259.95
306.727	295.05
307.184	309.1
307.641	266.97
308.098	337.18
308.555	278.67
309.012	302.08
309.468	290.37
309.925	302.08
310.382	323.14
310.838	297.39
311.295	290.37
311.751	346.55
312.208	318.46
312.664	259.95
313.12	283.35
313.577	309.1
314.033	341.86
314.489	304.42
314.945	250.58
315.401	281.01
315.857	304.42
316.313	320.8
316.769	376.97
317.225	344.21
317.681	304.42
318.136	283.35
318.592	309.1
319.048	337.18
319.503	381.65
319.959	339.52
320.414	290.37
320.869	281.01
321.325	313.78
321.78	311.44
322.235	365.27
322.691	309.1
323.146	248.24
323.601	306.76
324.056	295.05
324.511	271.65
324.966	355.91
325.421	283.35
325.875	334.84
326.33	255.26
326.785	313.78
327.24	266.97
327.694	299.73
328.149	269.31
328.603	327.82
329.058	405.06
329.512	217.82
329.966	323.14
330.421	250.58
330.875	309.1
331.329	299.73
331.783	304.42
332.237	306.76
332.691	292.71
333.145	327.82
333.599	281.01
334.053	283.35
334.507	264.63
334.96	299.73
335.414	383.99
335.868	318.46
336.321	323.14
336.775	281.01
337.228	323.14
337.682	285.69
338.135	304.42
338.588	302.08
339.042	295.05
339.495	320.8
339.948	283.35
340.401	264.63
340.854	323.14
341.307	273.99
341.76	295.05
342.213	290.37
342.666	313.78
343.119	339.52
343.571	299.73
344.024	269.31
344.477	285.69
344.929	306.76
345.382	332.5
345.834	323.14
346.287	339.52
346.739	334.84
347.191	245.9
347.644	297.39
348.096	339.52
348.548	243.56
349	297.39
349.452	309.1
349.904	269.31
350.356	290.37
350.808	346.55
351.26	306.76
351.711	327.82
352.163	320.8
352.615	271.65
353.066	327.82
353.518	297.39
353.969	248.24
354.421	262.29
354.872	374.63
355.324	285.69
355.775	334.84
356.226	302.08
356.677	304.42
357.128	318.46
357.579	330.16
358.03	311.44
358.481	266.97
358.932	316.12
359.383	323.14
359.834	271.65
360.285	374.63
360.735	288.03
361.186	344.21
361.637	316.12
362.087	276.33
362.538	318.46
362.988	362.93
363.438	320.8
363.889	376.97
364.339	306.76
364.789	337.18
365.239	288.03
365.689	337.18
366.139	341.86
366.589	325.48
367.039	318.46
367.489	250.58
367.939	290.37
368.389	330.16
368.839	292.71
369.288	318.46
369.738	255.26
370.187	271.65
370.637	276.33
371.086	309.1
371.536	337.18
371.985	360.59
372.434	290.37
372.884	297.39
373.333	281.01
373.782	304.42
374.231	288.03
374.68	304.42
375.129	339.52
375.578	290.37
376.027	311.44
376.475	334.84
376.924	306.76
377.373	295.05
377.822	262.29
378.27	295.05
378.719	330.16
379.167	325.48
379.616	316.12
380.064	295.05
380.512	283.35
380.961	332.5
381.409	316.12
381.857	400.38
382.305	334.84
382.753	318.46
383.201	302.08
383.649	292.71
384.097	334.84
384.545	358.25
384.992	402.72
385.44	281.01
385.888	355.91
386.335	227.18
386.783	318.46
387.231	318.46
387.678	374.63
388.125	332.5
388.573	346.55
389.02	346.55
389.467	351.23
389.914	337.18
390.362	236.54
390.809	285.69
391.256	313.78
391.703	339.52
392.15	341.86
392.596	346.55
393.043	320.8
393.49	302.08
393.937	281.01
394.383	269.31
394.83	295.05
395.276	290.37
395.723	276.33
396.169	248.24
396.616	297.39
397.062	297.39
397.508	313.78
397.954	311.44
398.401	297.39
398.847	269.31
399.293	372.29
399.739	297.39
400.185	369.95
400.631	334.84
401.076	292.71
401.522	325.48
401.968	334.84
402.414	245.9
402.859	325.48
403.305	290.37
403.75	297.39
404.196	320.8
404.641	318.46
405.086	316.12
405.532	295.05
405.977	250.58
406.422	346.55
406.867	276.33
407.312	297.39
407.757	320.8
408.202	297.39
408.647	341.86
409.092	302.08
409.537	278.67
409.982	351.23
410.426	278.67
410.871	339.52
411.316	341.86
411.76	259.95
412.205	372.29
412.649	288.03
413.093	374.63
413.538	264.63
413.982	255.26
414.426	344.21
414.87	306.76
415.314	337.18
415.758	290.37
416.202	346.55
416.646	362.93
417.09	288.03
417.534	313.78
417.978	351.23
418.421	285.69
418.865	325.48
419.309	278.67
419.752	381.65
420.196	330.16
420.639	348.89
421.083	353.57
421.526	325.48
421.969	339.52
422.412	276.33
422.856	281.01
423.299	358.25
423.742	358.25
424.185	299.73
424.628	292.71
425.071	257.61
425.513	327.82
425.956	299.73
426.399	309.1
426.842	309.1
427.284	302.08
427.727	276.33
428.169	351.23
428.612	369.95
429.054	295.05
429.497	304.42
429.939	367.61
430.381	292.71
430.823	297.39
431.265	283.35
431.707	334.84
432.149	285.69
432.591	337.18
433.033	316.12
433.475	318.46
433.917	334.84
434.359	288.03
434.8	337.18
435.242	250.58
435.684	285.69
436.125	358.25
436.567	344.21
437.008	341.86
437.449	320.8
437.891	376.97
438.332	355.91
438.773	381.65
439.214	334.84
439.656	281.01
440.097	318.46
440.538	323.14
440.978	344.21
441.419	376.97
441.86	341.86
442.301	266.97
442.742	297.39
443.182	292.71
443.623	318.46
444.063	278.67
444.504	334.84
444.944	334.84
445.385	332.5
445.825	313.78
446.265	278.67
446.706	316.12
447.146	372.29
447.586	255.26
448.026	311.44
448.466	320.8
448.906	339.52
449.346	288.03
449.786	327.82
450.225	360.59
450.665	299.73
451.105	313.78
451.544	334.84
451.984	304.42
452.424	311.44
452.863	262.29
453.302	320.8
453.742	288.03
454.181	386.33
454.62	271.65
455.059	285.69
455.499	341.86
455.938	334.84
456.377	285.69
456.816	332.5
457.254	348.89
457.693	302.08
458.132	273.99
458.571	325.48
459.01	283.35
459.448	332.5
459.887	327.82
460.325	243.56
460.764	292.71
461.202	276.33
461.641	320.8
462.079	383.99
462.517	402.72
462.955	327.82
463.393	358.25
463.832	285.69
464.27	323.14
464.708	295.05
465.145	234.2
465.583	290.37
466.021	306.76
466.459	316.12
466.897	320.8
467.334	309.1
467.772	281.01
468.209	302.08
468.647	353.57
469.084	327.82
469.522	337.18
469.959	351.23
470.396	271.65
470.833	339.52
471.271	360.59
471.708	304.42
472.145	405.06
472.582	276.33
473.019	341.86
473.456	320.8
473.892	339.52
474.329	327.82
474.766	264.63
475.202	273.99
475.639	388.68
476.076	318.46
476.512	285.69
476.949	309.1
477.385	318.46
477.821	306.76
478.258	309.1
478.694	297.39
479.13	285.69
479.566	276.33
480.002	213.14
480.438	332.5
480.874	278.67
481.31	245.9
481.746	372.29
482.181	419.1
482.617	288.03
483.053	306.76
483.488	290.37
483.924	311.44
484.36	344.21
484.795	353.57
485.23	339.52
485.666	304.42
486.101	365.27
486.536	311.44
486.971	344.21
487.407	351.23
487.842	278.67
488.277	355.91
488.712	276.33
489.146	320.8
489.581	316.12
490.016	344.21
490.451	266.97
490.885	273.99
491.32	332.5
491.755	306.76
492.189	302.08
492.624	278.67
493.058	290.37
493.492	264.63
493.927	306.76
494.361	318.46
494.795	344.21
495.229	304.42
495.663	271.65
496.097	278.67
496.531	285.69
496.965	348.89
497.399	376.97
497.833	365.27
498.266	334.84
498.7	311.44
499.134	309.1
499.567	313.78
500.001	337.18
500.434	245.9
500.868	332.5
501.301	285.69
501.734	306.76
502.168	276.33
502.601	318.46
503.034	297.39
503.467	306.76
503.9	288.03
504.333	311.44
504.766	238.88
505.199	316.12
505.632	316.12
506.064	297.39
506.497	304.42
506.93	273.99
507.362	320.8
507.795	330.16
508.227	288.03
508.66	259.95
509.092	295.05
509.524	248.24
509.956	369.95
510.389	213.14
510.821	283.35
511.253	330.16
511.685	316.12
512.117	386.33
512.549	288.03
512.981	313.78
513.412	346.55
513.844	320.8
514.276	304.42
514.707	334.84
515.139	311.44
515.571	360.59
516.002	332.5
516.433	292.71
516.865	292.71
517.296	252.92
517.727	302.08
518.159	405.06
518.59	365.27
519.021	295.05
519.452	257.61
519.883	285.69
520.314	318.46
520.744	355.91
521.175	241.22
521.606	334.84
522.037	330.16
522.467	369.95
522.898	285.69
523.328	255.26
523.759	278.67
524.189	271.65
524.62	325.48
525.05	250.58
525.48	360.59
525.91	372.29
526.341	262.29
526.771	330.16
527.201	353.57
527.631	288.03
528.061	362.93
528.49	290.37
528.92	271.65
529.35	292.71
529.78	283.35
530.209	255.26
530.639	304.42
531.068	309.1
531.498	285.69
531.927	341.86
532.357	313.78
532.786	231.86
533.215	323.14
533.644	358.25
534.074	255.26
534.503	297.39
534.932	358.25
535.361	288.03
535.79	243.56
536.218	318.46
536.647	278.67
537.076	327.82
537.505	386.33
537.933	281.01
538.362	299.73
538.79	283.35
539.219	341.86
539.647	276.33
540.076	299.73
540.504	295.05
540.932	262.29
541.36	316.12
541.788	367.61
542.217	313.78
542.645	297.39
543.073	327.82
543.5	320.8
543.928	285.69
544.356	316.12
544.784	339.52
545.211	309.1
545.639	388.68
546.067	278.67
546.494	288.03
546.922	323.14
547.349	290.37
547.776	362.93
548.204	278.67
548.631	236.54
549.058	292.71
549.485	313.78
549.912	288.03
550.339	358.25
550.766	374.63
551.193	337.18
551.62	358.25
552.047	381.65
552.474	351.23
552.9	290.37
553.327	323.14
553.754	290.37
554.18	344.21
554.607	348.89
555.033	332.5
555.459	283.35
555.886	346.55
556.312	316.12
556.738	309.1
557.164	316.12
557.59	332.5
558.016	313.78
558.442	311.44
558.868	360.59
559.294	302.08
559.72	344.21
560.145	292.71
560.571	271.65
560.997	372.29
561.422	337.18
561.848	302.08
562.273	295.05
562.699	285.69
563.124	302.08
563.549	365.27
563.974	271.65
564.4	245.9
564.825	320.8
565.25	295.05
565.675	295.05
566.1	248.24
566.525	365.27
566.95	313.78
567.374	311.44
567.799	339.52
568.224	269.31
568.648	299.73
569.073	311.44
569.497	299.73
569.922	341.86
570.346	334.84
570.771	332.5
571.195	360.59
571.619	285.69
572.043	358.25
572.467	288.03
572.891	311.44
573.315	264.63
573.739	231.86
574.163	295.05
574.587	386.33
575.011	327.82
575.435	318.46
575.858	283.35
576.282	353.57
576.705	281.01
577.129	304.42
577.552	332.5
577.976	313.78
578.399	325.48
578.822	337.18
579.245	273.99
579.669	302.08
580.092	273.99
580.515	259.95
580.938	295.05
581.361	327.82
581.784	276.33
582.206	365.27
582.629	306.76
583.052	334.84
583.474	318.46
583.897	297.39
584.32	318.46
584.742	283.35
585.165	334.84
585.587	355.91
586.009	288.03
586.431	281.01
586.854	295.05
587.276	292.71
587.698	313.78
588.12	283.35
588.542	355.91
588.964	348.89
589.386	323.14
589.807	273.99
590.229	252.92
590.651	276.33
591.073	295.05
591.494	320.8
591.916	262.29
592.337	360.59
592.759	334.84
593.18	250.58
593.601	374.63
594.022	332.5
594.444	297.39
594.865	325.48
595.286	283.35
595.707	299.73
596.128	273.99
596.549	367.61
596.97	283.35
597.39	318.46
597.811	323.14
598.232	383.99
598.652	281.01
599.073	313.78
599.494	304.42
599.914	334.84
600.334	299.73
600.755	313.78
601.175	339.52
601.595	259.95
602.015	283.35
602.436	337.18
602.856	395.7
603.276	341.86
603.696	334.84
604.115	355.91
604.535	281.01
604.955	318.46
605.375	320.8
605.794	334.84
606.214	323.14
606.634	266.97
607.053	346.55
607.473	323.14
607.892	297.39
608.311	278.67
608.731	311.44
609.15	290.37
609.569	292.71
609.988	259.95
610.407	311.44
610.826	299.73
611.245	318.46
611.664	266.97
612.083	320.8
612.501	337.18
612.92	309.1
613.339	266.97
613.757	236.54
614.176	374.63
614.594	285.69
615.013	281.01
615.431	348.89
615.85	327.82
616.268	355.91
616.686	297.39
617.104	257.61
617.522	355.91
617.94	252.92
618.358	309.1
618.776	311.44
619.194	320.8
619.612	295.05
620.03	369.95
620.447	271.65
620.865	309.1
621.282	360.59
621.7	381.65
622.117	283.35
622.535	290.37
622.952	313.78
623.369	297.39
623.787	381.65
624.204	323.14
624.621	304.42
625.038	311.44
625.455	325.48
625.872	302.08
626.289	320.8
626.706	297.39
627.123	271.65
627.539	283.35
627.956	388.68
628.373	304.42
628.789	348.89
629.206	281.01
629.622	276.33
630.038	264.63
630.455	306.76
630.871	318.46
631.287	323.14
631.703	320.8
632.12	332.5
632.536	311.44
632.952	365.27
633.368	297.39
633.783	313.78
634.199	302.08
634.615	313.78
635.031	318.46
635.446	316.12
635.862	259.95
636.277	323.14
636.693	250.58
637.108	323.14
637.524	348.89
637.939	316.12
638.354	311.44
638.77	306.76
639.185	316.12
639.6	309.1
640.015	292.71
640.43	290.37
640.845	283.35
641.259	367.61
641.674	327.82
642.089	304.42
642.504	360.59
642.918	290.37
643.333	248.24
643.747	313.78
644.162	339.52
644.576	358.25
644.991	360.59
645.405	320.8
645.819	241.22
646.233	266.97
646.647	290.37
647.061	325.48
647.475	337.18
647.889	358.25
648.303	325.48
648.717	398.04
649.131	311.44
649.545	299.73
649.958	323.14
650.372	316.12
650.785	278.67
651.199	337.18
651.612	346.55
652.026	278.67
652.439	344.21
652.852	288.03
653.266	295.05
653.679	374.63
654.092	213.14
654.505	325.48
654.918	311.44
655.331	288.03
655.744	323.14
656.156	306.76
656.569	311.44
656.982	304.42
657.394	316.12
657.807	255.26
658.22	344.21
658.632	290.37
659.044	325.48
659.457	320.8
659.869	290.37
660.281	245.9
660.693	318.46
661.106	344.21
661.518	299.73
661.93	262.29
662.342	313.78
662.754	290.37
663.165	344.21
663.577	304.42
663.989	313.78
664.401	306.76
664.812	360.59
665.224	255.26
665.635	311.44
666.047	381.65
666.458	259.95
666.869	250.58
667.281	323.14
667.692	346.55
668.103	283.35
668.514	302.08
668.925	334.84
669.336	358.25
669.747	285.69
670.158	346.55
670.569	313.78
670.979	306.76
671.39	360.59
671.801	306.76
672.211	337.18
672.622	306.76
673.032	264.63
673.443	316.12
673.853	269.31
674.263	327.82
674.674	330.16
675.084	332.5
675.494	273.99
675.904	330.16
676.314	341.86
676.724	327.82
677.134	330.16
677.544	337.18
677.953	318.46
678.363	344.21
678.773	327.82
679.182	327.82
679.592	318.46
680.001	313.78
680.411	311.44
680.82	313.78
681.23	327.82
681.639	295.05
682.048	330.16
682.457	337.18
682.866	316.12
683.275	323.14
683.684	292.71
684.093	257.61
684.502	351.23
684.911	288.03
685.32	269.31
685.728	360.59
686.137	334.84
686.546	339.52
686.954	269.31
687.363	339.52
687.771	222.5
688.179	306.76
688.588	299.73
688.996	255.26
689.404	285.69
689.812	264.63
690.22	376.97
690.628	281.01
691.036	365.27
691.444	325.48
691.852	285.69
692.26	327.82
692.667	341.86
693.075	295.05
693.483	306.76
693.89	273.99
694.298	313.78
694.705	288.03
695.112	344.21
695.52	330.16
695.927	285.69
696.334	386.33
696.741	302.08
697.148	297.39
697.555	351.23
697.962	320.8
698.369	332.5
698.776	295.05
699.183	288.03
699.59	311.44
699.996	360.59
700.403	245.9
700.81	245.9
701.216	344.21
701.623	369.95
702.029	316.12
702.435	309.1
702.842	318.46
703.248	353.57
703.654	316.12
704.06	330.16
704.466	365.27
704.872	304.42
705.278	283.35
705.684	316.12
706.09	285.69
706.496	346.55
706.901	306.76
707.307	323.14
707.712	288.03
708.118	320.8
708.523	365.27
708.929	278.67
709.334	302.08
709.74	372.29
710.145	248.24
710.55	374.63
710.955	292.71
711.36	271.65
711.765	292.71
712.17	306.76
712.575	346.55
712.98	763.16
713.385	309.1
713.789	285.69
714.194	316.12
714.599	327.82
715.003	306.76
715.408	313.78
715.812	325.48
716.217	381.65
716.621	299.73
717.025	292.71
717.429	320.8
717.833	269.31
718.238	269.31
718.642	318.46
719.046	323.14
719.449	266.97
719.853	208.45
720.257	320.8
720.661	257.61
721.065	311.44
721.468	231.86
721.872	365.27
722.275	299.73
722.679	320.8
723.082	304.42
723.485	325.48
723.889	304.42
724.292	360.59
724.695	318.46
725.098	325.48
725.501	358.25
725.904	302.08
726.307	339.52
726.71	337.18
727.113	264.63
727.516	276.33
727.918	313.78
728.321	332.5
728.724	351.23
729.126	327.82
729.529	344.21
729.931	297.39
730.333	283.35
730.736	339.52
731.138	313.78
731.54	330.16
731.942	302.08
732.344	299.73
732.746	327.82
733.148	316.12
733.55	374.63
733.952	257.61
734.354	327.82
734.756	257.61
735.157	255.26
735.559	351.23
735.96	297.39
736.362	383.99
736.763	283.35
737.165	327.82
737.566	278.67
737.967	339.52
738.368	341.86
738.77	295.05
739.171	266.97
739.572	320.8
739.973	351.23
740.374	269.31
740.774	288.03
741.175	292.71
741.576	295.05
741.977	311.44
742.377	381.65
742.778	320.8
743.178	355.91
743.579	283.35
743.979	234.2
744.379	320.8
744.78	332.5
745.18	407.4
745.58	383.99
745.98	281.01
746.38	290.37
746.78	297.39
747.18	339.52
747.58	341.86
747.98	299.73
748.38	290.37
748.779	306.76
749.179	323.14
749.578	330.16
749.978	243.56
750.377	238.88
750.777	292.71
751.176	292.71
751.575	252.92
751.975	341.86
752.374	302.08
752.773	332.5
753.172	332.5
753.571	262.29
753.97	339.52
754.369	220.16
754.768	264.63
755.166	348.89
755.565	309.1
755.964	304.42
756.362	320.8
756.761	271.65
757.159	276.33
757.558	313.78
757.956	311.44
758.354	323.14
758.753	243.56
759.151	297.39
759.549	269.31
759.947	313.78
760.345	348.89
760.743	365.27
761.141	316.12
761.539	283.35
761.936	344.21
762.334	266.97
762.732	290.37
763.129	334.84
763.527	351.23
763.924	316.12
764.322	320.8
764.719	337.18
765.117	278.67
765.514	316.12
765.911	278.67
766.308	262.29
766.705	276.33
767.102	288.03
767.499	236.54
767.896	330.16
768.293	257.61
768.69	330.16
769.086	358.25
769.483	281.01
769.88	332.5
770.276	306.76
770.673	337.18
771.069	351.23
771.466	332.5
771.862	362.93
772.258	269.31
772.654	281.01
773.05	245.9
773.447	339.52
773.843	316.12
774.239	320.8
774.634	337.18
775.03	290.37
775.426	351.23
775.822	297.39
776.218	360.59
776.613	337.18
777.009	332.5
777.404	325.48
777.8	381.65
778.195	367.61
778.59	327.82
778.986	302.08
779.381	353.57
779.776	325.48
780.171	276.33
780.566	271.65
780.961	351.23
781.356	292.71
781.751	320.8
782.146	273.99
782.54	281.01
782.935	306.76
783.33	313.78
783.724	290.37
784.119	271.65
784.513	337.18
784.908	302.08
785.302	367.61
785.696	351.23
786.09	276.33
786.485	290.37
786.879	374.63
787.273	327.82
787.667	320.8
788.061	264.63
788.454	281.01
788.848	234.2
789.242	327.82
789.636	313.78
790.029	355.91
790.423	304.42
790.816	243.56
791.21	313.78
791.603	264.63
791.997	290.37
792.39	334.84
792.783	365.27
793.176	367.61
793.569	323.14
793.962	257.61
794.355	339.52
794.748	271.65
795.141	276.33
795.534	320.8
795.927	330.16
796.319	266.97
796.712	285.69
797.105	306.76
797.497	379.31
797.89	295.05
798.282	311.44
798.674	372.29
799.067	311.44
799.459	320.8
799.851	348.89
800.243	346.55
800.635	241.22
801.027	313.78
801.419	323.14
801.811	295.05
802.203	304.42
802.594	311.44
802.986	344.21
803.378	292.71
803.769	344.21
804.161	297.39
804.552	304.42
804.944	306.76
805.335	318.46
805.726	264.63
806.118	353.57
806.509	316.12
806.9	292.71
807.291	369.95
807.682	299.73
808.073	269.31
808.464	273.99
808.855	248.24
809.245	283.35
809.636	271.65
810.027	311.44
810.417	398.04
810.808	297.39
811.198	299.73
811.589	341.86
811.979	309.1
812.369	302.08
812.759	334.84
813.15	281.01
813.54	269.31
813.93	355.91
814.32	346.55
814.71	344.21
815.1	252.92
815.489	325.48
815.879	304.42
816.269	309.1
816.658	292.71
817.048	309.1
817.438	320.8
817.827	367.61
818.216	323.14
818.606	355.91
818.995	383.99
819.384	309.1
819.773	351.23
820.163	316.12
820.552	327.82
820.941	276.33
821.33	304.42
821.718	334.84
822.107	348.89
822.496	365.27
822.885	259.95
823.273	325.48
823.662	362.93
824.05	309.1
824.439	285.69
824.827	278.67
825.216	264.63
825.604	348.89
825.992	407.4
826.38	344.21
826.768	320.8
827.156	248.24
827.544	295.05
827.932	320.8
828.32	302.08
828.708	337.18
829.096	372.29
829.483	269.31
829.871	341.86
830.259	383.99
830.646	318.46
831.034	311.44
831.421	269.31
831.808	292.71
832.196	262.29
832.583	262.29
832.97	295.05
833.357	297.39
833.744	323.14
834.131	252.92
834.518	369.95
834.905	367.61
835.292	353.57
835.678	353.57
836.065	276.33
836.452	297.39
836.838	243.56
837.225	330.16
837.611	395.7
837.998	273.99
838.384	320.8
838.77	290.37
839.157	355.91
839.543	299.73
839.929	271.65
840.315	379.31
840.701	295.05
841.087	281.01
841.473	309.1
841.858	299.73
842.244	348.89
842.63	302.08
843.015	313.78
843.401	346.55
843.787	309.1
844.172	304.42
844.557	355.91
844.943	419.1
845.328	337.18
845.713	337.18
846.098	339.52
846.483	295.05
846.868	353.57
847.253	313.78
847.638	266.97
848.023	341.86
848.408	316.12
848.793	320.8
849.177	292.71
849.562	241.22
849.947	217.82
850.331	236.54
850.715	248.24
851.1	351.23
851.484	217.82
851.868	388.68
852.253	285.69
852.637	316.12
853.021	278.67
853.405	327.82
853.789	302.08
854.173	353.57
854.557	311.44
854.94	348.89
855.324	318.46
855.708	327.82
856.091	316.12
856.475	295.05
856.858	238.88
857.242	290.37
857.625	318.46
858.009	334.84
858.392	297.39
858.775	334.84
859.158	313.78
859.541	318.46
859.924	259.95
860.307	325.48
860.69	259.95
861.073	311.44
861.456	304.42
861.838	311.44
862.221	367.61
862.604	306.76
862.986	285.69
863.369	259.95
863.751	262.29
864.133	351.23
864.516	227.18
864.898	320.8
865.28	320.8
865.662	299.73
866.044	292.71
866.426	266.97
866.808	299.73
867.19	299.73
867.572	313.78
867.954	271.65
868.336	297.39
868.717	323.14
869.099	281.01
869.48	302.08
869.862	398.04
870.243	367.61
870.625	306.76
871.006	313.78
871.387	365.27
871.768	320.8
872.149	318.46
872.53	353.57
872.911	348.89
873.292	295.05
873.673	318.46
874.054	266.97
874.435	278.67
874.815	365.27
875.196	316.12
875.577	266.97
875.957	288.03
876.338	288.03
876.718	271.65
877.098	316.12
877.479	334.84
877.859	320.8
878.239	231.86
878.619	323.14
878.999	302.08
879.379	269.31
879.759	285.69
880.139	292.71
880.519	339.52
880.898	290.37
881.278	334.84
881.658	283.35
882.037	271.65
882.417	252.92
882.796	323.14
883.176	316.12
883.555	332.5
883.934	388.68
884.313	346.55
884.693	231.86
885.072	292.71
885.451	325.48
885.83	344.21
886.209	323.14
886.587	316.12
886.966	332.5
887.345	334.84
887.724	269.31
888.102	325.48
888.481	306.76
888.859	255.26
889.238	358.25
889.616	320.8
889.994	288.03
890.373	316.12
890.751	281.01
891.129	271.65
891.507	252.92
891.885	358.25
892.263	325.48
892.641	318.46
893.019	360.59
893.396	318.46
893.774	318.46
894.152	353.57
894.529	355.91
894.907	288.03
895.284	295.05
895.662	276.33
896.039	306.76
896.416	257.61
896.794	334.84
897.171	358.25
897.548	386.33
897.925	330.16
898.302	320.8
898.679	320.8
899.056	351.23
899.433	327.82
899.809	309.1
900.186	360.59
900.563	346.55
900.939	269.31
901.316	309.1
901.692	327.82
902.069	325.48
902.445	313.78
902.821	325.48
903.197	327.82
903.574	295.05
903.95	311.44
904.326	306.76
904.702	325.48
905.078	341.86
905.454	358.25
905.829	309.1
906.205	330.16
906.581	278.67
906.956	288.03
907.332	281.01
907.707	238.88
908.083	285.69
908.458	288.03
908.833	409.74
909.209	318.46
909.584	367.61
909.959	344.21
910.334	269.31
910.709	311.44
911.084	318.46
911.459	271.65
911.834	316.12
912.209	236.54
912.583	281.01
912.958	248.24
913.333	327.82
913.707	264.63
914.082	318.46
914.456	327.82
914.83	292.71
915.205	327.82
915.579	295.05
915.953	341.86
916.327	360.59
916.701	327.82
917.075	295.05
917.449	264.63
917.823	292.71
918.197	391.02
918.571	318.46
918.944	325.48
919.318	252.92
919.692	271.65
920.065	302.08
920.438	304.42
920.812	269.31
921.185	229.52
921.558	313.78
921.932	360.59
922.305	273.99
922.678	316.12
923.051	259.95
923.424	306.76
923.797	348.89
924.17	309.1
924.542	320.8
924.915	320.8
925.288	325.48
925.661	365.27
926.033	351.23
926.406	295.05
926.778	313.78
927.15	302.08
927.523	299.73
927.895	344.21
928.267	236.54
928.639	330.16
929.011	318.46
929.383	290.37
929.755	306.76
930.127	323.14
930.499	281.01
930.871	276.33
931.242	332.5
931.614	320.8
931.986	302.08
932.357	262.29
932.729	395.7
933.1	316.12
933.471	327.82
933.843	332.5
934.214	318.46
934.585	285.69
934.956	302.08
935.327	290.37
935.698	348.89
936.069	285.69
936.44	278.67
936.811	323.14
937.182	337.18
937.552	323.14
937.923	283.35
938.293	348.89
938.664	288.03
939.034	238.88
939.405	325.48
939.775	285.69
940.145	299.73
940.516	283.35
940.886	306.76
941.256	311.44
941.626	306.76
941.996	383.99
942.366	318.46
942.735	302.08
943.105	271.65
943.475	288.03
943.845	271.65
944.214	355.91
944.584	281.01
944.953	309.1
945.323	283.35
945.692	266.97
946.061	309.1
946.43	304.42
946.8	313.78
947.169	318.46
947.538	339.52
947.907	257.61
948.276	320.8
948.645	273.99
949.013	351.23
949.382	313.78
949.751	311.44
950.119	290.37
950.488	285.69
950.857	311.44
951.225	334.84
951.593	252.92
951.962	332.5
952.33	362.93
952.698	309.1
953.066	297.39
953.434	285.69
953.802	292.71
954.17	222.5
954.538	337.18
954.906	344.21
955.274	297.39
955.642	346.55
956.009	297.39
956.377	238.88
956.744	306.76
957.112	334.84
957.479	281.01
957.847	278.67
958.214	339.52
958.581	316.12
958.948	278.67
959.315	299.73
959.683	339.52
960.05	271.65
960.416	334.84
960.783	306.76
961.15	332.5
961.517	285.69
961.884	295.05
962.25	259.95
962.617	358.25
962.983	283.35
963.35	241.22
963.716	372.29
964.082	269.31
964.449	369.95
964.815	290.37
965.181	334.84
965.547	302.08
965.913	306.76
966.279	320.8
966.645	290.37
967.011	250.58
967.377	295.05
967.742	320.8
968.108	299.73
968.474	299.73
968.839	330.16
969.205	320.8
969.57	332.5
969.935	304.42
970.301	229.52
970.666	337.18
971.031	309.1
971.396	288.03
971.761	320.8
972.126	320.8
972.491	323.14
972.856	299.73
973.221	288.03
973.586	281.01
973.95	309.1
974.315	273.99
974.679	295.05
975.044	288.03
975.408	281.01
975.773	341.86
976.137	271.65
976.501	311.44
976.866	269.31
977.23	323.14
977.594	292.71
977.958	355.91
978.322	299.73
978.686	273.99
979.049	273.99
979.413	295.05
979.777	323.14
980.141	313.78
980.504	295.05
980.868	285.69
981.231	302.08
981.595	264.63
981.958	288.03
982.321	302.08
982.684	302.08
983.048	271.65
983.411	379.31
983.774	344.21
984.137	318.46
984.5	276.33
984.862	313.78
985.225	320.8
985.588	297.39
985.951	309.1
986.313	264.63
986.676	334.84
987.038	369.95
987.401	320.8
987.763	281.01
988.125	290.37
988.488	334.84
988.85	316.12
989.212	281.01
989.574	281.01
989.936	304.42
990.298	278.67
990.66	297.39
991.022	252.92
991.383	224.84
991.745	208.45
992.107	344.21
992.468	241.22
992.83	313.78
993.191	360.59
993.553	323.14
993.914	264.63
994.275	306.76
994.637	372.29
994.998	236.54
995.359	241.22
995.72	318.46
996.081	311.44
996.442	320.8
996.803	299.73
997.163	297.39
997.524	281.01
997.885	257.61
998.245	355.91
998.606	318.46
998.966	245.9
999.327	346.55
999.687	330.16
1000.047	243.56
1000.408	299.73
1000.768	262.29
1001.128	323.14
1001.488	285.69
1001.848	234.2
1002.208	360.59
1002.568	248.24
1002.927	344.21
1003.287	325.48
1003.647	327.82
1004.007	325.48
1004.366	245.9
1004.726	325.48
1005.085	367.61
1005.444	295.05
1005.804	283.35
1006.163	337.18
1006.522	241.22
1006.881	299.73
1007.24	344.21
1007.599	323.14
1007.958	341.86
1008.317	278.67
1008.676	351.23
1009.035	348.89
1009.393	302.08
1009.752	278.67
1010.111	288.03
1010.469	316.12
1010.828	309.1
1011.186	341.86
1011.544	348.89
1011.903	269.31
1012.261	339.52
1012.619	365.27
1012.977	255.26
1013.335	337.18
1013.693	302.08
1014.051	313.78
1014.409	332.5
1014.767	285.69
1015.124	271.65
1015.482	276.33
1015.84	311.44
1016.197	278.67
1016.555	316.12
1016.912	355.91
1017.269	330.16
1017.627	295.05
1017.984	302.08
1018.341	302.08
1018.698	290.37
1019.055	341.86
1019.412	339.52
1019.769	309.1
1020.126	290.37
1020.483	257.61
1020.84	292.71
1021.196	351.23
1021.553	285.69
1021.909	290.37
1022.266	348.89
1022.622	290.37
1022.979	367.61
1023.335	306.76
1023.691	355.91
1024.047	318.46
1024.404	341.86
1024.76	276.33
1025.116	348.89
1025.472	323.14
1025.827	304.42
1026.183	297.39
1026.539	255.26
1026.895	290.37
1027.25	362.93
1027.606	344.21
1027.961	245.9
1028.317	290.37
1028.672	313.78
1029.028	376.97
1029.383	288.03
1029.738	304.42
1030.093	299.73
1030.448	367.61
1030.803	341.86
1031.158	292.71
1031.513	306.76
1031.868	257.61
1032.223	369.95
1032.577	283.35
1032.932	285.69
1033.287	297.39
1033.641	288.03
1033.996	311.44
1034.35	281.01
1034.704	339.52
1035.059	250.58
1035.413	273.99
1035.767	273.99
1036.121	273.99
