Data from Al_FLMS009871__760__15-18-15-722.txt Node

Date: Fri Mar 08 15:18:15 CST 2024
User: pe5414po
Spectrometer: FLMS00987
Trigger mode: 0
Integration Time (sec): 1.000000E-1
Scans to average: 1
Electric dark correction enabled: true
Nonlinearity correction enabled: false
Boxcar width: 0
XAxis mode: Wavelengths
Number of Pixels in Spectrum: 2048
>>>>>Begin Spectral Data<<<<<
188.938	-132.24
189.409	-132.24
189.879	-132.24
190.349	-108.83
190.819	-118.2
191.29	-129.9
191.76	-125.22
192.23	-26.92
192.7	-57.34
193.17	-66.71
193.64	-64.36
194.109	-57.34
194.579	5.85
195.049	43.3
195.519	-45.64
195.988	15.21
196.458	47.98
196.927	97.13
197.397	120.54
197.866	132.24
198.336	111.18
198.805	183.73
199.274	209.48
199.744	202.46
200.213	183.73
200.682	249.27
201.151	246.93
201.62	167.35
202.089	260.97
202.558	312.46
203.027	251.61
203.495	228.2
203.964	225.86
204.433	244.59
204.902	265.65
205.37	267.99
205.839	289.06
206.307	356.93
206.776	296.08
207.244	368.63
207.712	312.46
208.181	356.93
208.649	267.99
209.117	303.1
209.585	256.29
210.053	275.01
210.521	310.12
210.989	260.97
211.457	279.69
211.925	321.82
212.393	246.93
212.861	244.59
213.328	291.4
213.796	267.99
214.264	246.93
214.731	260.97
215.199	310.12
215.666	333.53
216.133	214.16
216.601	256.29
217.068	282.03
217.535	202.46
218.003	293.74
218.47	239.9
218.937	298.42
219.404	310.12
219.871	284.38
220.338	148.62
220.805	237.56
221.271	249.27
221.738	267.99
222.205	246.93
222.671	277.35
223.138	307.78
223.605	237.56
224.071	270.33
224.538	284.38
225.004	251.61
225.47	249.27
225.937	251.61
226.403	253.95
226.869	303.1
227.335	296.08
227.801	265.65
228.267	347.57
228.733	258.63
229.199	265.65
229.665	331.19
230.131	270.33
230.597	282.03
231.062	228.2
231.528	251.61
231.994	284.38
232.459	272.67
232.925	225.86
233.39	265.65
233.856	225.86
234.321	275.01
234.786	267.99
235.252	277.35
235.717	303.1
236.182	277.35
236.647	279.69
237.112	260.97
237.577	256.29
238.042	275.01
238.507	246.93
238.972	347.57
239.436	253.95
239.901	312.46
240.366	265.65
240.83	200.12
241.295	263.31
241.76	244.59
242.224	256.29
242.688	228.2
243.153	242.25
243.617	319.48
244.081	272.67
244.545	256.29
245.01	335.87
245.474	296.08
245.938	225.86
246.402	272.67
246.866	293.74
247.33	277.35
247.793	335.87
248.257	249.27
248.721	324.16
249.185	237.56
249.648	331.19
250.112	272.67
250.575	293.74
251.039	303.1
251.502	293.74
251.965	256.29
252.429	291.4
252.892	293.74
253.355	298.42
253.818	321.82
254.281	321.82
254.744	267.99
255.207	260.97
255.67	267.99
256.133	312.46
256.596	298.42
257.059	289.06
257.522	314.8
257.984	289.06
258.447	260.97
258.909	310.12
259.372	305.44
259.834	345.23
260.297	361.61
260.759	272.67
261.221	310.12
261.684	265.65
262.146	319.48
262.608	265.65
263.07	356.93
263.532	342.89
263.994	284.38
264.456	272.67
264.918	265.65
265.38	296.08
265.842	298.42
266.303	270.33
266.765	272.67
267.227	293.74
267.688	260.97
268.15	253.95
268.611	338.21
269.072	324.16
269.534	331.19
269.995	235.22
270.456	296.08
270.918	314.8
271.379	298.42
271.84	298.42
272.301	328.85
272.762	284.38
273.223	387.36
273.684	333.53
274.144	347.57
274.605	300.76
275.066	223.52
275.527	298.42
275.987	260.97
276.448	277.35
276.908	267.99
277.369	324.16
277.829	282.03
278.289	207.14
278.75	209.48
279.21	303.1
279.67	321.82
280.13	272.67
280.59	310.12
281.05	335.87
281.51	307.78
281.97	265.65
282.43	296.08
282.89	314.8
283.35	314.8
283.809	267.99
284.269	303.1
284.729	303.1
285.188	293.74
285.648	326.5
286.107	298.42
286.567	303.1
287.026	275.01
287.485	321.82
287.944	333.53
288.404	333.53
288.863	279.69
289.322	256.29
289.781	275.01
290.24	303.1
290.699	340.55
291.158	305.44
291.616	335.87
292.075	284.38
292.534	312.46
292.992	321.82
293.451	289.06
293.91	310.12
294.368	270.33
294.827	260.97
295.285	270.33
295.743	324.16
296.202	305.44
296.66	253.95
297.118	267.99
297.576	296.08
298.034	251.61
298.492	307.78
298.95	286.72
299.408	289.06
299.866	335.87
300.324	296.08
300.781	328.85
301.239	317.14
301.697	361.61
302.154	310.12
302.612	317.14
303.069	324.16
303.527	314.8
303.984	265.65
304.441	267.99
304.899	347.57
305.356	317.14
305.813	321.82
306.27	265.65
306.727	307.78
307.184	300.76
307.641	328.85
308.098	335.87
308.555	246.93
309.012	282.03
309.468	244.59
309.925	328.85
310.382	347.57
310.838	307.78
311.295	310.12
311.751	291.4
312.208	300.76
312.664	310.12
313.12	347.57
313.577	267.99
314.033	361.61
314.489	291.4
314.945	286.72
315.401	277.35
315.857	307.78
316.313	303.1
316.769	282.03
317.225	312.46
317.681	284.38
318.136	356.93
318.592	293.74
319.048	282.03
319.503	326.5
319.959	275.01
320.414	338.21
320.869	232.88
321.325	328.85
321.78	282.03
322.235	270.33
322.691	310.12
323.146	347.57
323.601	352.25
324.056	342.89
324.511	347.57
324.966	291.4
325.421	319.48
325.875	326.5
326.33	307.78
326.785	380.34
327.24	380.34
327.694	403.74
328.149	319.48
328.603	253.95
329.058	349.91
329.512	260.97
329.966	263.31
330.421	235.22
330.875	310.12
331.329	321.82
331.783	310.12
332.237	347.57
332.691	291.4
333.145	356.93
333.599	303.1
334.053	314.8
334.507	319.48
334.96	305.44
335.414	361.61
335.868	326.5
336.321	232.88
336.775	342.89
337.228	340.55
337.682	307.78
338.135	296.08
338.588	314.8
339.042	284.38
339.495	317.14
339.948	263.31
340.401	284.38
340.854	298.42
341.307	321.82
341.76	272.67
342.213	282.03
342.666	331.19
343.119	272.67
343.571	368.63
344.024	258.63
344.477	319.48
344.929	298.42
345.382	263.31
345.834	298.42
346.287	321.82
346.739	310.12
347.191	370.97
347.644	347.57
348.096	291.4
348.548	242.25
349	296.08
349.452	312.46
349.904	286.72
350.356	291.4
350.808	319.48
351.26	303.1
351.711	340.55
352.163	307.78
352.615	319.48
353.066	338.21
353.518	359.27
353.969	354.59
354.421	338.21
354.872	333.53
355.324	296.08
355.775	354.59
356.226	277.35
356.677	244.59
357.128	331.19
357.579	340.55
358.03	291.4
358.481	349.91
358.932	286.72
359.383	312.46
359.834	349.91
360.285	333.53
360.735	303.1
361.186	326.5
361.637	331.19
362.087	289.06
362.538	303.1
362.988	293.74
363.438	314.8
363.889	317.14
364.339	328.85
364.789	289.06
365.239	293.74
365.689	345.23
366.139	310.12
366.589	314.8
367.039	314.8
367.489	392.04
367.939	282.03
368.389	347.57
368.839	354.59
369.288	284.38
369.738	375.66
370.187	366.29
370.637	310.12
371.086	296.08
371.536	317.14
371.985	314.8
372.434	230.54
372.884	282.03
373.333	312.46
373.782	352.25
374.231	265.65
374.68	331.19
375.129	296.08
375.578	317.14
376.027	317.14
376.475	335.87
376.924	312.46
377.373	345.23
377.822	249.27
378.27	305.44
378.719	310.12
379.167	321.82
379.616	319.48
380.064	326.5
380.512	321.82
380.961	333.53
381.409	298.42
381.857	239.9
382.305	328.85
382.753	317.14
383.201	307.78
383.649	282.03
384.097	321.82
384.545	207.14
384.992	319.48
385.44	389.7
385.888	352.25
386.335	284.38
386.783	361.61
387.231	356.93
387.678	293.74
388.125	307.78
388.573	307.78
389.02	345.23
389.467	333.53
389.914	298.42
390.362	347.57
390.809	277.35
391.256	282.03
391.703	345.23
392.15	314.8
392.596	366.29
393.043	387.36
393.49	282.03
393.937	417.79
394.383	335.87
394.83	310.12
395.276	335.87
395.723	267.99
396.169	303.1
396.616	272.67
397.062	314.8
397.508	244.59
397.954	293.74
398.401	363.95
398.847	296.08
399.293	321.82
399.739	356.93
400.185	326.5
400.631	319.48
401.076	345.23
401.522	317.14
401.968	338.21
402.414	319.48
402.859	296.08
403.305	352.25
403.75	286.72
404.196	333.53
404.641	394.38
405.086	349.91
405.532	340.55
405.977	275.01
406.422	317.14
406.867	338.21
407.312	303.1
407.757	218.84
408.202	359.27
408.647	333.53
409.092	300.76
409.537	270.33
409.982	312.46
410.426	246.93
410.871	289.06
411.316	347.57
411.76	310.12
412.205	326.5
412.649	275.01
413.093	296.08
413.538	333.53
413.982	300.76
414.426	305.44
414.87	373.32
415.314	335.87
415.758	303.1
416.202	314.8
416.646	331.19
417.09	291.4
417.534	324.16
417.978	275.01
418.421	326.5
418.865	312.46
419.309	314.8
419.752	260.97
420.196	340.55
420.639	328.85
421.083	293.74
421.526	359.27
421.969	300.76
422.412	387.36
422.856	333.53
423.299	293.74
423.742	275.01
424.185	310.12
424.628	340.55
425.071	298.42
425.513	335.87
425.956	275.01
426.399	267.99
426.842	368.63
427.284	300.76
427.727	300.76
428.169	298.42
428.612	298.42
429.054	317.14
429.497	282.03
429.939	272.67
430.381	277.35
430.823	286.72
431.265	338.21
431.707	282.03
432.149	272.67
432.591	298.42
433.033	349.91
433.475	356.93
433.917	333.53
434.359	310.12
434.8	267.99
435.242	326.5
435.684	366.29
436.125	396.72
436.567	314.8
437.008	284.38
437.449	314.8
437.891	314.8
438.332	317.14
438.773	345.23
439.214	392.04
439.656	326.5
440.097	303.1
440.538	305.44
440.978	263.31
441.419	324.16
441.86	286.72
442.301	307.78
442.742	312.46
443.182	328.85
443.623	321.82
444.063	321.82
444.504	267.99
444.944	284.38
445.385	300.76
445.825	307.78
446.265	312.46
446.706	293.74
447.146	289.06
447.586	338.21
448.026	333.53
448.466	349.91
448.906	340.55
449.346	310.12
449.786	296.08
450.225	321.82
450.665	354.59
451.105	345.23
451.544	366.29
451.984	307.78
452.424	363.95
452.863	352.25
453.302	324.16
453.742	291.4
454.181	324.16
454.62	300.76
455.059	321.82
455.499	265.65
455.938	263.31
456.377	359.27
456.816	328.85
457.254	293.74
457.693	270.33
458.132	277.35
458.571	312.46
459.01	286.72
459.448	298.42
459.887	328.85
460.325	307.78
460.764	265.65
461.202	340.55
461.641	310.12
462.079	319.48
462.517	314.8
462.955	331.19
463.393	242.25
463.832	291.4
464.27	314.8
464.708	265.65
465.145	392.04
465.583	328.85
466.021	328.85
466.459	349.91
466.897	303.1
467.334	305.44
467.772	277.35
468.209	328.85
468.647	303.1
469.084	312.46
469.522	321.82
469.959	340.55
470.396	277.35
470.833	368.63
471.271	354.59
471.708	293.74
472.145	382.68
472.582	293.74
473.019	307.78
473.456	361.61
473.892	354.59
474.329	314.8
474.766	232.88
475.202	333.53
475.639	340.55
476.076	370.97
476.512	378
476.949	296.08
477.385	326.5
477.821	378
478.258	298.42
478.694	317.14
479.13	331.19
479.566	347.57
480.002	392.04
480.438	356.93
480.874	324.16
481.31	270.33
481.746	314.8
482.181	305.44
482.617	324.16
483.053	321.82
483.488	370.97
483.924	303.1
484.36	378
484.795	246.93
485.23	326.5
485.666	368.63
486.101	317.14
486.536	335.87
486.971	331.19
487.407	319.48
487.842	293.74
488.277	385.02
488.712	282.03
489.146	279.69
489.581	375.66
490.016	378
490.451	361.61
490.885	319.48
491.32	314.8
491.755	328.85
492.189	349.91
492.624	298.42
493.058	328.85
493.492	335.87
493.927	300.76
494.361	307.78
494.795	361.61
495.229	328.85
495.663	370.97
496.097	291.4
496.531	300.76
496.965	363.95
497.399	286.72
497.833	284.38
498.266	253.95
498.7	314.8
499.134	291.4
499.567	265.65
500.001	284.38
500.434	338.21
500.868	373.32
501.301	389.7
501.734	246.93
502.168	321.82
502.601	328.85
503.034	239.9
503.467	289.06
503.9	335.87
504.333	368.63
504.766	272.67
505.199	293.74
505.632	267.99
506.064	347.57
506.497	265.65
506.93	324.16
507.362	303.1
507.795	260.97
508.227	310.12
508.66	359.27
509.092	265.65
509.524	289.06
509.956	319.48
510.389	314.8
510.821	289.06
511.253	312.46
511.685	277.35
512.117	361.61
512.549	335.87
512.981	324.16
513.412	326.5
513.844	260.97
514.276	345.23
514.707	370.97
515.139	317.14
515.571	310.12
516.002	347.57
516.433	310.12
516.865	349.91
517.296	286.72
517.727	361.61
518.159	282.03
518.59	324.16
519.021	279.69
519.452	237.56
519.883	279.69
520.314	216.5
520.744	303.1
521.175	347.57
521.606	359.27
522.037	389.7
522.467	263.31
522.898	303.1
523.328	319.48
523.759	246.93
524.189	368.63
524.62	310.12
525.05	335.87
525.48	342.89
525.91	354.59
526.341	265.65
526.771	333.53
527.201	314.8
527.631	284.38
528.061	319.48
528.49	312.46
528.92	303.1
529.35	321.82
529.78	345.23
530.209	347.57
530.639	298.42
531.068	265.65
531.498	223.52
531.927	300.76
532.357	375.66
532.786	342.89
533.215	275.01
533.644	356.93
534.074	300.76
534.503	296.08
534.932	251.61
535.361	354.59
535.79	314.8
536.218	310.12
536.647	349.91
537.076	300.76
537.505	333.53
537.933	326.5
538.362	347.57
538.79	378
539.219	342.89
539.647	331.19
540.076	258.63
540.504	277.35
540.932	326.5
541.36	317.14
541.788	378
542.217	378
542.645	218.84
543.073	328.85
543.5	370.97
543.928	232.88
544.356	279.69
544.784	345.23
545.211	310.12
545.639	298.42
546.067	258.63
546.494	352.25
546.922	342.89
547.349	342.89
547.776	328.85
548.204	289.06
548.631	303.1
549.058	331.19
549.485	392.04
549.912	347.57
550.339	314.8
550.766	303.1
551.193	317.14
551.62	314.8
552.047	324.16
552.474	312.46
552.9	317.14
553.327	277.35
553.754	335.87
554.18	340.55
554.607	307.78
555.033	263.31
555.459	312.46
555.886	324.16
556.312	256.29
556.738	225.86
557.164	267.99
557.59	293.74
558.016	317.14
558.442	284.38
558.868	328.85
559.294	303.1
559.72	392.04
560.145	352.25
560.571	410.76
560.997	347.57
561.422	335.87
561.848	305.44
562.273	331.19
562.699	375.66
563.124	286.72
563.549	324.16
563.974	378
564.4	335.87
564.825	403.74
565.25	331.19
565.675	321.82
566.1	321.82
566.525	338.21
566.95	291.4
567.374	345.23
567.799	270.33
568.224	312.46
568.648	361.61
569.073	352.25
569.497	361.61
569.922	333.53
570.346	317.14
570.771	237.56
571.195	349.91
571.619	340.55
572.043	307.78
572.467	263.31
572.891	373.32
573.315	331.19
573.739	312.46
574.163	286.72
574.587	310.12
575.011	286.72
575.435	321.82
575.858	368.63
576.282	293.74
576.705	380.34
577.129	307.78
577.552	275.01
577.976	340.55
578.399	284.38
578.822	298.42
579.245	328.85
579.669	349.91
580.092	345.23
580.515	307.78
580.938	277.35
581.361	296.08
581.784	321.82
582.206	324.16
582.629	296.08
583.052	340.55
583.474	331.19
583.897	331.19
584.32	298.42
584.742	289.06
585.165	284.38
585.587	363.95
586.009	289.06
586.431	324.16
586.854	272.67
587.276	307.78
587.698	389.7
588.12	342.89
588.542	368.63
588.964	356.93
589.386	347.57
589.807	363.95
590.229	326.5
590.651	321.82
591.073	286.72
591.494	300.76
591.916	272.67
592.337	328.85
592.759	298.42
593.18	345.23
593.601	324.16
594.022	249.27
594.444	310.12
594.865	328.85
595.286	272.67
595.707	270.33
596.128	335.87
596.549	347.57
596.97	347.57
597.39	305.44
597.811	277.35
598.232	324.16
598.652	370.97
599.073	342.89
599.494	298.42
599.914	303.1
600.334	293.74
600.755	345.23
601.175	218.84
601.595	333.53
602.015	307.78
602.436	363.95
602.856	464.6
603.276	331.19
603.696	326.5
604.115	277.35
604.535	333.53
604.955	232.88
605.375	242.25
605.794	338.21
606.214	289.06
606.634	340.55
607.053	399.06
607.473	277.35
607.892	338.21
608.311	291.4
608.731	321.82
609.15	260.97
609.569	345.23
609.988	310.12
610.407	300.76
610.826	326.5
611.245	356.93
611.664	221.18
612.083	338.21
612.501	286.72
612.92	338.21
613.339	310.12
613.757	298.42
614.176	347.57
614.594	293.74
615.013	352.25
615.431	328.85
615.85	314.8
616.268	333.53
616.686	321.82
617.104	340.55
617.522	333.53
617.94	270.33
618.358	345.23
618.776	392.04
619.194	312.46
619.612	345.23
620.03	291.4
620.447	282.03
620.865	305.44
621.282	279.69
621.7	361.61
622.117	305.44
622.535	338.21
622.952	293.74
623.369	347.57
623.787	349.91
624.204	284.38
624.621	347.57
625.038	382.68
625.455	253.95
625.872	359.27
626.289	326.5
626.706	253.95
627.123	314.8
627.539	370.97
627.956	349.91
628.373	305.44
628.789	291.4
629.206	401.4
629.622	349.91
630.038	359.27
630.455	335.87
630.871	342.89
631.287	366.29
631.703	270.33
632.12	317.14
632.536	277.35
632.952	312.46
633.368	253.95
633.783	347.57
634.199	249.27
634.615	331.19
635.031	359.27
635.446	272.67
635.862	347.57
636.277	335.87
636.693	321.82
637.108	340.55
637.524	385.02
637.939	314.8
638.354	324.16
638.77	354.59
639.185	396.72
639.6	375.66
640.015	279.69
640.43	331.19
640.845	319.48
641.259	284.38
641.674	239.9
642.089	314.8
642.504	326.5
642.918	296.08
643.333	270.33
643.747	303.1
644.162	312.46
644.576	333.53
644.991	321.82
645.405	296.08
645.819	321.82
646.233	293.74
646.647	251.61
647.061	270.33
647.475	317.14
647.889	345.23
648.303	307.78
648.717	314.8
649.131	338.21
649.545	328.85
649.958	291.4
650.372	286.72
650.785	335.87
651.199	352.25
651.612	342.89
652.026	338.21
652.439	293.74
652.852	305.44
653.266	307.78
653.679	359.27
654.092	338.21
654.505	298.42
654.918	317.14
655.331	319.48
655.744	312.46
656.156	342.89
656.569	314.8
656.982	328.85
657.394	328.85
657.807	284.38
658.22	326.5
658.632	317.14
659.044	296.08
659.457	314.8
659.869	307.78
660.281	389.7
660.693	385.02
661.106	298.42
661.518	260.97
661.93	328.85
662.342	326.5
662.754	263.31
663.165	352.25
663.577	310.12
663.989	342.89
664.401	328.85
664.812	305.44
665.224	303.1
665.635	333.53
666.047	359.27
666.458	305.44
666.869	335.87
667.281	326.5
667.692	307.78
668.103	363.95
668.514	349.91
668.925	319.48
669.336	310.12
669.747	333.53
670.158	366.29
670.569	303.1
670.979	319.48
671.39	300.76
671.801	363.95
672.211	305.44
672.622	326.5
673.032	342.89
673.443	314.8
673.853	230.54
674.263	373.32
674.674	296.08
675.084	317.14
675.494	317.14
675.904	303.1
676.314	352.25
676.724	349.91
677.134	310.12
677.544	352.25
677.953	335.87
678.363	420.13
678.773	298.42
679.182	347.57
679.592	368.63
680.001	380.34
680.411	300.76
680.82	314.8
681.23	314.8
681.639	307.78
682.048	331.19
682.457	310.12
682.866	321.82
683.275	331.19
683.684	338.21
684.093	321.82
684.502	272.67
684.911	354.59
685.32	293.74
685.728	324.16
686.137	275.01
686.546	319.48
686.954	324.16
687.363	335.87
687.771	340.55
688.179	335.87
688.588	305.44
688.996	340.55
689.404	319.48
689.812	251.61
690.22	310.12
690.628	260.97
691.036	326.5
691.444	352.25
691.852	305.44
692.26	347.57
692.667	310.12
693.075	319.48
693.483	256.29
693.89	335.87
694.298	356.93
694.705	342.89
695.112	352.25
695.52	321.82
695.927	291.4
696.334	314.8
696.741	359.27
697.148	303.1
697.555	349.91
697.962	366.29
698.369	335.87
698.776	321.82
699.183	303.1
699.59	307.78
699.996	310.12
700.403	296.08
700.81	321.82
701.216	289.06
701.623	324.16
702.029	314.8
702.435	321.82
702.842	420.13
703.248	328.85
703.654	279.69
704.06	349.91
704.466	321.82
704.872	305.44
705.278	356.93
705.684	319.48
706.09	284.38
706.496	410.76
706.901	312.46
707.307	314.8
707.712	310.12
708.118	321.82
708.523	366.29
708.929	312.46
709.334	279.69
709.74	342.89
710.145	345.23
710.55	282.03
710.955	289.06
711.36	305.44
711.765	265.65
712.17	389.7
712.575	342.89
712.98	773.55
713.385	349.91
713.789	340.55
714.194	303.1
714.599	321.82
715.003	298.42
715.408	298.42
715.812	340.55
716.217	354.59
716.621	270.33
717.025	310.12
717.429	342.89
717.833	246.93
718.238	314.8
718.642	361.61
719.046	305.44
719.449	298.42
719.853	331.19
720.257	312.46
720.661	340.55
721.065	312.46
721.468	328.85
721.872	298.42
722.275	363.95
722.679	289.06
723.082	251.61
723.485	338.21
723.889	370.97
724.292	267.99
724.695	300.76
725.098	300.76
725.501	291.4
725.904	312.46
726.307	246.93
726.71	314.8
727.113	296.08
727.516	338.21
727.918	307.78
728.321	275.01
728.724	326.5
729.126	354.59
729.529	314.8
729.931	300.76
730.333	284.38
730.736	324.16
731.138	314.8
731.54	326.5
731.942	282.03
732.344	317.14
732.746	246.93
733.148	340.55
733.55	272.67
733.952	324.16
734.354	370.97
734.756	303.1
735.157	312.46
735.559	408.42
735.96	335.87
736.362	303.1
736.763	321.82
737.165	307.78
737.566	298.42
737.967	310.12
738.368	317.14
738.77	335.87
739.171	361.61
739.572	272.67
739.973	286.72
740.374	314.8
740.774	239.9
741.175	331.19
741.576	342.89
741.977	303.1
742.377	326.5
742.778	335.87
743.178	279.69
743.579	340.55
743.979	298.42
744.379	282.03
744.78	380.34
745.18	244.59
745.58	307.78
745.98	319.48
746.38	324.16
746.78	303.1
747.18	347.57
747.58	366.29
747.98	249.27
748.38	335.87
748.779	340.55
749.179	356.93
749.578	305.44
749.978	298.42
750.377	291.4
750.777	335.87
751.176	333.53
751.575	321.82
751.975	324.16
752.374	333.53
752.773	300.76
753.172	382.68
753.571	298.42
753.97	298.42
754.369	307.78
754.768	361.61
755.166	333.53
755.565	221.18
755.964	338.21
756.362	342.89
756.761	326.5
757.159	317.14
757.558	303.1
757.956	258.63
758.354	331.19
758.753	333.53
759.151	310.12
759.549	293.74
759.947	284.38
760.345	349.91
760.743	265.65
761.141	300.76
761.539	312.46
761.936	349.91
762.334	293.74
762.732	326.5
763.129	291.4
763.527	312.46
763.924	396.72
764.322	293.74
764.719	314.8
765.117	310.12
765.514	321.82
765.911	270.33
766.308	326.5
766.705	312.46
767.102	352.25
767.499	289.06
767.896	314.8
768.293	310.12
768.69	345.23
769.086	359.27
769.483	338.21
769.88	321.82
770.276	328.85
770.673	338.21
771.069	284.38
771.466	286.72
771.862	340.55
772.258	272.67
772.654	277.35
773.05	265.65
773.447	279.69
773.843	349.91
774.239	366.29
774.634	321.82
775.03	223.52
775.426	319.48
775.822	331.19
776.218	253.95
776.613	289.06
777.009	305.44
777.404	413.1
777.8	345.23
778.195	319.48
778.59	324.16
778.986	368.63
779.381	338.21
779.776	328.85
780.171	370.97
780.566	340.55
780.961	340.55
781.356	291.4
781.751	338.21
782.146	317.14
782.54	307.78
782.935	368.63
783.33	249.27
783.724	305.44
784.119	319.48
784.513	300.76
784.908	373.32
785.302	345.23
785.696	335.87
786.09	328.85
786.485	347.57
786.879	267.99
787.273	333.53
787.667	342.89
788.061	291.4
788.454	352.25
788.848	335.87
789.242	349.91
789.636	359.27
790.029	305.44
790.423	396.72
790.816	324.16
791.21	326.5
791.603	284.38
791.997	321.82
792.39	303.1
792.783	359.27
793.176	352.25
793.569	359.27
793.962	326.5
794.355	289.06
794.748	373.32
795.141	270.33
795.534	312.46
795.927	286.72
796.319	305.44
796.712	296.08
797.105	319.48
797.497	293.74
797.89	293.74
798.282	307.78
798.674	359.27
799.067	328.85
799.459	354.59
799.851	303.1
800.243	244.59
800.635	317.14
801.027	258.63
801.419	338.21
801.811	289.06
802.203	310.12
802.594	267.99
802.986	256.29
803.378	352.25
803.769	300.76
804.161	258.63
804.552	293.74
804.944	321.82
805.335	354.59
805.726	333.53
806.118	298.42
806.509	326.5
806.9	317.14
807.291	319.48
807.682	303.1
808.073	319.48
808.464	356.93
808.855	282.03
809.245	319.48
809.636	270.33
810.027	319.48
810.417	300.76
810.808	352.25
811.198	267.99
811.589	305.44
811.979	333.53
812.369	324.16
812.759	401.4
813.15	289.06
813.54	312.46
813.93	331.19
814.32	326.5
814.71	305.44
815.1	328.85
815.489	275.01
815.879	335.87
816.269	324.16
816.658	401.4
817.048	347.57
817.438	312.46
817.827	282.03
818.216	289.06
818.606	347.57
818.995	291.4
819.384	331.19
819.773	277.35
820.163	352.25
820.552	253.95
820.941	366.29
821.33	349.91
821.718	331.19
822.107	270.33
822.496	324.16
822.885	366.29
823.273	260.97
823.662	303.1
824.05	352.25
824.439	321.82
824.827	314.8
825.216	314.8
825.604	289.06
825.992	326.5
826.38	279.69
826.768	373.32
827.156	340.55
827.544	356.93
827.932	380.34
828.32	314.8
828.708	296.08
829.096	275.01
829.483	314.8
829.871	335.87
830.259	340.55
830.646	345.23
831.034	298.42
831.421	284.38
831.808	300.76
832.196	260.97
832.583	333.53
832.97	258.63
833.357	307.78
833.744	272.67
834.131	305.44
834.518	340.55
834.905	284.38
835.292	338.21
835.678	286.72
836.065	289.06
836.452	359.27
836.838	298.42
837.225	314.8
837.611	298.42
837.998	328.85
838.384	331.19
838.77	282.03
839.157	303.1
839.543	310.12
839.929	310.12
840.315	307.78
840.701	282.03
841.087	326.5
841.473	286.72
841.858	356.93
842.244	342.89
842.63	319.48
843.015	324.16
843.401	349.91
843.787	314.8
844.172	363.95
844.557	333.53
844.943	368.63
845.328	256.29
845.713	321.82
846.098	380.34
846.483	363.95
846.868	326.5
847.253	270.33
847.638	293.74
848.023	359.27
848.408	366.29
848.793	277.35
849.177	347.57
849.562	298.42
849.947	275.01
850.331	394.38
850.715	368.63
851.1	324.16
851.484	305.44
851.868	326.5
852.253	333.53
852.637	275.01
853.021	345.23
853.405	260.97
853.789	333.53
854.173	279.69
854.557	335.87
854.94	333.53
855.324	342.89
855.708	321.82
856.091	324.16
856.475	305.44
856.858	326.5
857.242	298.42
857.625	312.46
858.009	317.14
858.392	279.69
858.775	328.85
859.158	380.34
859.541	298.42
859.924	389.7
860.307	324.16
860.69	328.85
861.073	307.78
861.456	366.29
861.838	340.55
862.221	317.14
862.604	338.21
862.986	356.93
863.369	347.57
863.751	387.36
864.133	352.25
864.516	282.03
864.898	328.85
865.28	305.44
865.662	303.1
866.044	289.06
866.426	375.66
866.808	291.4
867.19	368.63
867.572	265.65
867.954	338.21
868.336	333.53
868.717	282.03
869.099	317.14
869.48	340.55
869.862	314.8
870.243	368.63
870.625	328.85
871.006	263.31
871.387	275.01
871.768	307.78
872.149	293.74
872.53	324.16
872.911	282.03
873.292	321.82
873.673	216.5
874.054	312.46
874.435	279.69
874.815	399.06
875.196	237.56
875.577	277.35
875.957	340.55
876.338	272.67
876.718	326.5
877.098	303.1
877.479	298.42
877.859	270.33
878.239	324.16
878.619	286.72
878.999	321.82
879.379	314.8
879.759	347.57
880.139	420.13
880.519	359.27
880.898	382.68
881.278	298.42
881.658	310.12
882.037	258.63
882.417	331.19
882.796	286.72
883.176	352.25
883.555	300.76
883.934	331.19
884.313	326.5
884.693	368.63
885.072	331.19
885.451	272.67
885.83	354.59
886.209	272.67
886.587	345.23
886.966	368.63
887.345	286.72
887.724	347.57
888.102	399.06
888.481	389.7
888.859	307.78
889.238	317.14
889.616	282.03
889.994	293.74
890.373	293.74
890.751	267.99
891.129	333.53
891.507	385.02
891.885	256.29
892.263	279.69
892.641	284.38
893.019	303.1
893.396	310.12
893.774	317.14
894.152	352.25
894.529	293.74
894.907	317.14
895.284	342.89
895.662	342.89
896.039	298.42
896.416	289.06
896.794	347.57
897.171	335.87
897.548	340.55
897.925	333.53
898.302	342.89
898.679	286.72
899.056	305.44
899.433	326.5
899.809	331.19
900.186	279.69
900.563	284.38
900.939	275.01
901.316	272.67
901.692	345.23
902.069	333.53
902.445	354.59
902.821	293.74
903.197	291.4
903.574	328.85
903.95	335.87
904.326	291.4
904.702	293.74
905.078	305.44
905.454	300.76
905.829	352.25
906.205	286.72
906.581	312.46
906.956	307.78
907.332	319.48
907.707	303.1
908.083	317.14
908.458	321.82
908.833	324.16
909.209	385.02
909.584	326.5
909.959	314.8
910.334	429.49
910.709	345.23
911.084	305.44
911.459	314.8
911.834	335.87
912.209	211.82
912.583	366.29
912.958	312.46
913.333	256.29
913.707	319.48
914.082	363.95
914.456	319.48
914.83	246.93
915.205	331.19
915.579	342.89
915.953	328.85
916.327	375.66
916.701	312.46
917.075	326.5
917.449	326.5
917.823	286.72
918.197	338.21
918.571	345.23
918.944	263.31
919.318	319.48
919.692	293.74
920.065	253.95
920.438	291.4
920.812	324.16
921.185	389.7
921.558	307.78
921.932	319.48
922.305	286.72
922.678	256.29
923.051	275.01
923.424	286.72
923.797	296.08
924.17	284.38
924.542	293.74
924.915	382.68
925.288	289.06
925.661	307.78
926.033	317.14
926.406	289.06
926.778	319.48
927.15	333.53
927.523	366.29
927.895	361.61
928.267	291.4
928.639	366.29
929.011	317.14
929.383	305.44
929.755	326.5
930.127	296.08
930.499	291.4
930.871	342.89
931.242	378
931.614	328.85
931.986	326.5
932.357	319.48
932.729	345.23
933.1	265.65
933.471	296.08
933.843	305.44
934.214	356.93
934.585	319.48
934.956	307.78
935.327	321.82
935.698	335.87
936.069	342.89
936.44	333.53
936.811	366.29
937.182	303.1
937.552	314.8
937.923	373.32
938.293	359.27
938.664	324.16
939.034	368.63
939.405	270.33
939.775	319.48
940.145	321.82
940.516	331.19
940.886	354.59
941.256	305.44
941.626	361.61
941.996	359.27
942.366	331.19
942.735	361.61
943.105	359.27
943.475	265.65
943.845	354.59
944.214	293.74
944.584	270.33
944.953	345.23
945.323	289.06
945.692	310.12
946.061	298.42
946.43	282.03
946.8	263.31
947.169	342.89
947.538	324.16
947.907	314.8
948.276	356.93
948.645	314.8
949.013	326.5
949.382	382.68
949.751	298.42
950.119	305.44
950.488	270.33
950.857	310.12
951.225	338.21
951.593	300.76
951.962	303.1
952.33	319.48
952.698	361.61
953.066	263.31
953.434	230.54
953.802	307.78
954.17	272.67
954.538	289.06
954.906	310.12
955.274	303.1
955.642	314.8
956.009	296.08
956.377	267.99
956.744	291.4
957.112	265.65
957.479	363.95
957.847	359.27
958.214	293.74
958.581	310.12
958.948	317.14
959.315	342.89
959.683	307.78
960.05	340.55
960.416	300.76
960.783	286.72
961.15	284.38
961.517	389.7
961.884	284.38
962.25	356.93
962.617	321.82
962.983	373.32
963.35	312.46
963.716	378
964.082	342.89
964.449	317.14
964.815	333.53
965.181	317.14
965.547	331.19
965.913	284.38
966.279	253.95
966.645	298.42
967.011	305.44
967.377	326.5
967.742	317.14
968.108	314.8
968.474	333.53
968.839	312.46
969.205	263.31
969.57	333.53
969.935	335.87
970.301	368.63
970.666	289.06
971.031	305.44
971.396	293.74
971.761	319.48
972.126	321.82
972.491	361.61
972.856	392.04
973.221	265.65
973.586	258.63
973.95	307.78
974.315	335.87
974.679	324.16
975.044	307.78
975.408	270.33
975.773	300.76
976.137	356.93
976.501	312.46
976.866	352.25
977.23	267.99
977.594	328.85
977.958	239.9
978.322	331.19
978.686	415.45
979.049	321.82
979.413	366.29
979.777	279.69
980.141	307.78
980.504	298.42
980.868	289.06
981.231	282.03
981.595	319.48
981.958	263.31
982.321	277.35
982.684	319.48
983.048	347.57
983.411	366.29
983.774	352.25
984.137	289.06
984.5	249.27
984.862	286.72
985.225	342.89
985.588	246.93
985.951	328.85
986.313	307.78
986.676	303.1
987.038	345.23
987.401	331.19
987.763	333.53
988.125	314.8
988.488	289.06
988.85	347.57
989.212	345.23
989.574	307.78
989.936	307.78
990.298	249.27
990.66	310.12
991.022	347.57
991.383	361.61
991.745	258.63
992.107	279.69
992.468	286.72
992.83	291.4
993.191	340.55
993.553	289.06
993.914	286.72
994.275	293.74
994.637	282.03
994.998	363.95
995.359	277.35
995.72	279.69
996.081	331.19
996.442	370.97
996.803	239.9
997.163	331.19
997.524	347.57
997.885	363.95
998.245	331.19
998.606	307.78
998.966	270.33
999.327	300.76
999.687	296.08
1000.047	270.33
1000.408	310.12
1000.768	380.34
1001.128	352.25
1001.488	265.65
1001.848	389.7
1002.208	253.95
1002.568	289.06
1002.927	321.82
1003.287	335.87
1003.647	289.06
1004.007	221.18
1004.366	282.03
1004.726	293.74
1005.085	282.03
1005.444	342.89
1005.804	321.82
1006.163	310.12
1006.522	307.78
1006.881	263.31
1007.24	321.82
1007.599	368.63
1007.958	282.03
1008.317	310.12
1008.676	300.76
1009.035	303.1
1009.393	284.38
1009.752	300.76
1010.111	296.08
1010.469	267.99
1010.828	354.59
1011.186	251.61
1011.544	319.48
1011.903	326.5
1012.261	251.61
1012.619	333.53
1012.977	277.35
1013.335	296.08
1013.693	328.85
1014.051	282.03
1014.409	265.65
1014.767	349.91
1015.124	265.65
1015.482	324.16
1015.84	328.85
1016.197	396.72
1016.555	312.46
1016.912	340.55
1017.269	303.1
1017.627	235.22
1017.984	307.78
1018.341	251.61
1018.698	354.59
1019.055	303.1
1019.412	286.72
1019.769	347.57
1020.126	375.66
1020.483	342.89
1020.84	359.27
1021.196	284.38
1021.553	296.08
1021.909	249.27
1022.266	307.78
1022.622	321.82
1022.979	303.1
1023.335	392.04
1023.691	368.63
1024.047	310.12
1024.404	335.87
1024.76	349.91
1025.116	338.21
1025.472	331.19
1025.827	314.8
1026.183	324.16
1026.539	279.69
1026.895	277.35
1027.25	265.65
1027.606	335.87
1027.961	321.82
1028.317	235.22
1028.672	331.19
1029.028	303.1
1029.383	338.21
1029.738	326.5
1030.093	286.72
1030.448	307.78
1030.803	289.06
1031.158	291.4
1031.513	282.03
1031.868	275.01
1032.223	291.4
1032.577	291.4
1032.932	291.4
1033.287	352.25
1033.641	335.87
1033.996	296.08
1034.35	277.35
1034.704	319.48
1035.059	335.87
1035.413	319.48
1035.767	319.48
1036.121	319.48
