Data from Al_FLMS009871__768__15-18-16-522.txt Node

Date: Fri Mar 08 15:18:16 CST 2024
User: pe5414po
Spectrometer: FLMS00987
Trigger mode: 0
Integration Time (sec): 1.000000E-1
Scans to average: 1
Electric dark correction enabled: true
Nonlinearity correction enabled: false
Boxcar width: 0
XAxis mode: Wavelengths
Number of Pixels in Spectrum: 2048
>>>>>Begin Spectral Data<<<<<
188.938	-58.66
189.409	-58.66
189.879	-58.66
190.349	-156.96
190.819	-49.3
191.29	-121.85
191.76	-119.51
192.23	-93.77
192.7	-25.89
193.17	-117.17
193.64	-39.94
194.109	-11.85
194.579	-21.21
195.049	-25.89
195.519	51.35
195.988	60.71
196.458	60.71
196.927	84.11
197.397	86.45
197.866	112.2
198.336	121.56
198.805	154.33
199.274	142.63
199.744	189.44
200.213	231.57
200.682	203.48
201.151	247.95
201.62	240.93
202.089	273.7
202.558	294.76
203.027	271.36
203.495	257.31
203.964	229.23
204.433	240.93
204.902	271.36
205.37	297.1
205.839	290.08
206.307	355.62
206.776	304.12
207.244	306.46
207.712	304.12
208.181	306.46
208.649	254.97
209.117	229.23
209.585	271.36
210.053	336.89
210.521	261.99
210.989	269.02
211.457	238.59
211.925	292.42
212.393	278.38
212.861	254.97
213.328	304.12
213.796	238.59
214.264	311.14
214.731	285.4
215.199	315.83
215.666	327.53
216.133	285.4
216.601	292.42
217.068	290.08
217.535	276.04
218.003	203.48
218.47	318.17
218.937	278.38
219.404	264.33
219.871	304.12
220.338	243.27
220.805	278.38
221.271	285.4
221.738	259.65
222.205	224.55
222.671	198.8
223.138	313.49
223.605	276.04
224.071	280.72
224.538	245.61
225.004	254.97
225.47	243.27
225.937	243.27
226.403	245.61
226.869	278.38
227.335	273.7
227.801	329.87
228.267	334.55
228.733	301.78
229.199	290.08
229.665	259.65
230.131	325.19
230.597	238.59
231.062	240.93
231.528	292.42
231.994	210.5
232.459	294.76
232.925	191.78
233.39	271.36
233.856	315.83
234.321	205.82
234.786	285.4
235.252	294.76
235.717	180.07
236.182	252.63
236.647	264.33
237.112	257.31
237.577	252.63
238.042	301.78
238.507	329.87
238.972	236.25
239.436	205.82
239.901	254.97
240.366	231.57
240.83	240.93
241.295	311.14
241.76	231.57
242.224	273.7
242.688	243.27
243.153	276.04
243.617	287.74
244.081	299.44
244.545	222.2
245.01	278.38
245.474	308.8
245.938	290.08
246.402	297.1
246.866	257.31
247.33	229.23
247.793	236.25
248.257	283.06
248.721	257.31
249.185	280.72
249.648	290.08
250.112	292.42
250.575	259.65
251.039	266.67
251.502	254.97
251.965	236.25
252.429	306.46
252.892	215.18
253.355	364.98
253.818	306.46
254.281	301.78
254.744	215.18
255.207	273.7
255.67	283.06
256.133	210.5
256.596	254.97
257.059	259.65
257.522	278.38
257.984	278.38
258.447	332.21
258.909	301.78
259.372	243.27
259.834	261.99
260.297	332.21
260.759	294.76
261.221	287.74
261.684	320.51
262.146	343.91
262.608	299.44
263.07	280.72
263.532	318.17
263.994	283.06
264.456	308.8
264.918	329.87
265.38	287.74
265.842	292.42
266.303	315.83
266.765	301.78
267.227	240.93
267.688	299.44
268.15	315.83
268.611	299.44
269.072	297.1
269.534	313.49
269.995	250.29
270.456	285.4
270.918	250.29
271.379	276.04
271.84	313.49
272.301	261.99
272.762	332.21
273.223	336.89
273.684	229.23
274.144	308.8
274.605	217.52
275.066	336.89
275.527	306.46
275.987	261.99
276.448	231.57
276.908	287.74
277.369	343.91
277.829	294.76
278.289	278.38
278.75	285.4
279.21	341.57
279.67	261.99
280.13	266.67
280.59	336.89
281.05	252.63
281.51	308.8
281.97	311.14
282.43	266.67
282.89	283.06
283.35	315.83
283.809	250.29
284.269	259.65
284.729	280.72
285.188	212.84
285.648	304.12
286.107	271.36
286.567	322.85
287.026	292.42
287.485	313.49
287.944	308.8
288.404	292.42
288.863	308.8
289.322	357.96
289.781	247.95
290.24	320.51
290.699	287.74
291.158	311.14
291.616	269.02
292.075	290.08
292.534	250.29
292.992	271.36
293.451	278.38
293.91	280.72
294.368	362.64
294.827	322.85
295.285	357.96
295.743	271.36
296.202	320.51
296.66	374.34
297.118	322.85
297.576	315.83
298.034	287.74
298.492	292.42
298.95	343.91
299.408	364.98
299.866	266.67
300.324	308.8
300.781	278.38
301.239	266.67
301.697	269.02
302.154	285.4
302.612	334.55
303.069	313.49
303.527	304.12
303.984	294.76
304.441	257.31
304.899	327.53
305.356	271.36
305.813	304.12
306.27	276.04
306.727	290.08
307.184	287.74
307.641	334.55
308.098	313.49
308.555	266.67
309.012	264.33
309.468	276.04
309.925	276.04
310.382	332.21
310.838	285.4
311.295	320.51
311.751	238.59
312.208	280.72
312.664	252.63
313.12	299.44
313.577	311.14
314.033	355.62
314.489	311.14
314.945	306.46
315.401	287.74
315.857	301.78
316.313	334.55
316.769	292.42
317.225	252.63
317.681	327.53
318.136	287.74
318.592	327.53
319.048	325.19
319.503	339.23
319.959	311.14
320.414	285.4
320.869	329.87
321.325	322.85
321.78	264.33
322.235	287.74
322.691	280.72
323.146	231.57
323.601	299.44
324.056	273.7
324.511	261.99
324.966	334.55
325.421	360.3
325.875	301.78
326.33	301.78
326.785	269.02
327.24	364.98
327.694	313.49
328.149	343.91
328.603	311.14
329.058	304.12
329.512	297.1
329.966	224.55
330.421	355.62
330.875	329.87
331.329	332.21
331.783	332.21
332.237	278.38
332.691	306.46
333.145	287.74
333.599	313.49
334.053	243.27
334.507	294.76
334.96	304.12
335.414	294.76
335.868	318.17
336.321	325.19
336.775	318.17
337.228	271.36
337.682	304.12
338.135	292.42
338.588	299.44
339.042	348.59
339.495	301.78
339.948	364.98
340.401	334.55
340.854	381.36
341.307	343.91
341.76	343.91
342.213	287.74
342.666	261.99
343.119	318.17
343.571	271.36
344.024	341.57
344.477	261.99
344.929	311.14
345.382	334.55
345.834	278.38
346.287	327.53
346.739	250.29
347.191	273.7
347.644	290.08
348.096	308.8
348.548	292.42
349	247.95
349.452	254.97
349.904	292.42
350.356	297.1
350.808	287.74
351.26	294.76
351.711	301.78
352.163	273.7
352.615	266.67
353.066	285.4
353.518	304.12
353.969	250.29
354.421	367.32
354.872	308.8
355.324	355.62
355.775	416.47
356.226	327.53
356.677	301.78
357.128	259.65
357.579	320.51
358.03	388.38
358.481	311.14
358.932	250.29
359.383	299.44
359.834	329.87
360.285	280.72
360.735	362.64
361.186	285.4
361.637	334.55
362.087	287.74
362.538	301.78
362.988	229.23
363.438	341.57
363.889	280.72
364.339	313.49
364.789	343.91
365.239	379.02
365.689	285.4
366.139	329.87
366.589	299.44
367.039	346.25
367.489	355.62
367.939	304.12
368.389	278.38
368.839	315.83
369.288	325.19
369.738	283.06
370.187	276.04
370.637	276.04
371.086	294.76
371.536	285.4
371.985	339.23
372.434	285.4
372.884	346.25
373.333	299.44
373.782	336.89
374.231	329.87
374.68	280.72
375.129	315.83
375.578	329.87
376.027	315.83
376.475	325.19
376.924	362.64
377.373	336.89
377.822	278.38
378.27	350.93
378.719	313.49
379.167	318.17
379.616	297.1
380.064	299.44
380.512	308.8
380.961	341.57
381.409	311.14
381.857	285.4
382.305	311.14
382.753	362.64
383.201	299.44
383.649	334.55
384.097	327.53
384.545	311.14
384.992	322.85
385.44	273.7
385.888	285.4
386.335	320.51
386.783	240.93
387.231	322.85
387.678	226.89
388.125	355.62
388.573	343.91
389.02	304.12
389.467	327.53
389.914	315.83
390.362	329.87
390.809	290.08
391.256	280.72
391.703	287.74
392.15	304.12
392.596	297.1
393.043	297.1
393.49	334.55
393.937	313.49
394.383	280.72
394.83	318.17
395.276	308.8
395.723	238.59
396.169	332.21
396.616	306.46
397.062	283.06
397.508	301.78
397.954	285.4
398.401	299.44
398.847	388.38
399.293	301.78
399.739	264.33
400.185	341.57
400.631	245.61
401.076	322.85
401.522	287.74
401.968	343.91
402.414	341.57
402.859	236.25
403.305	299.44
403.75	271.36
404.196	294.76
404.641	341.57
405.086	297.1
405.532	278.38
405.977	325.19
406.422	369.66
406.867	332.21
407.312	322.85
407.757	308.8
408.202	346.25
408.647	276.04
409.092	350.93
409.537	280.72
409.982	329.87
410.426	320.51
410.871	294.76
411.316	327.53
411.76	231.57
412.205	264.33
412.649	325.19
413.093	322.85
413.538	287.74
413.982	341.57
414.426	297.1
414.87	332.21
415.314	355.62
415.758	308.8
416.202	318.17
416.646	280.72
417.09	355.62
417.534	353.27
417.978	334.55
418.421	301.78
418.865	250.29
419.309	301.78
419.752	285.4
420.196	276.04
420.639	287.74
421.083	261.99
421.526	315.83
421.969	313.49
422.412	257.31
422.856	327.53
423.299	269.02
423.742	280.72
424.185	318.17
424.628	308.8
425.071	315.83
425.513	285.4
425.956	297.1
426.399	292.42
426.842	311.14
427.284	313.49
427.727	313.49
428.169	290.08
428.612	301.78
429.054	315.83
429.497	360.3
429.939	327.53
430.381	240.93
430.823	297.1
431.265	290.08
431.707	364.98
432.149	409.45
432.591	341.57
433.033	383.7
433.475	269.02
433.917	292.42
434.359	313.49
434.8	219.86
435.242	297.1
435.684	332.21
436.125	315.83
436.567	313.49
437.008	290.08
437.449	332.21
437.891	299.44
438.332	332.21
438.773	280.72
439.214	269.02
439.656	336.89
440.097	264.33
440.538	280.72
440.978	283.06
441.419	313.49
441.86	320.51
442.301	325.19
442.742	367.32
443.182	320.51
443.623	332.21
444.063	343.91
444.504	271.36
444.944	343.91
445.385	376.68
445.825	355.62
446.265	290.08
446.706	287.74
447.146	299.44
447.586	315.83
448.026	315.83
448.466	287.74
448.906	313.49
449.346	306.46
449.786	355.62
450.225	350.93
450.665	336.89
451.105	276.04
451.544	364.98
451.984	297.1
452.424	313.49
452.863	357.96
453.302	336.89
453.742	315.83
454.181	308.8
454.62	280.72
455.059	315.83
455.499	311.14
455.938	210.5
456.377	259.65
456.816	301.78
457.254	313.49
457.693	348.59
458.132	304.12
458.571	355.62
459.01	320.51
459.448	304.12
459.887	320.51
460.325	322.85
460.764	259.65
461.202	325.19
461.641	294.76
462.079	320.51
462.517	364.98
462.955	341.57
463.393	261.99
463.832	299.44
464.27	339.23
464.708	339.23
465.145	299.44
465.583	306.46
466.021	320.51
466.459	357.96
466.897	320.51
467.334	362.64
467.772	313.49
468.209	306.46
468.647	329.87
469.084	339.23
469.522	318.17
469.959	313.49
470.396	290.08
470.833	343.91
471.271	311.14
471.708	306.46
472.145	285.4
472.582	208.16
473.019	299.44
473.456	348.59
473.892	341.57
474.329	374.34
474.766	264.33
475.202	240.93
475.639	367.32
476.076	299.44
476.512	334.55
476.949	325.19
477.385	360.3
477.821	315.83
478.258	269.02
478.694	285.4
479.13	219.86
479.566	369.66
480.002	243.27
480.438	360.3
480.874	304.12
481.31	322.85
481.746	355.62
482.181	367.32
482.617	304.12
483.053	266.67
483.488	294.76
483.924	311.14
484.36	301.78
484.795	261.99
485.23	252.63
485.666	383.7
486.101	292.42
486.536	259.65
486.971	297.1
487.407	311.14
487.842	301.78
488.277	311.14
488.712	327.53
489.146	280.72
489.581	297.1
490.016	320.51
490.451	301.78
490.885	278.38
491.32	297.1
491.755	313.49
492.189	301.78
492.624	343.91
493.058	313.49
493.492	285.4
493.927	285.4
494.361	278.38
494.795	224.55
495.229	318.17
495.663	290.08
496.097	304.12
496.531	276.04
496.965	320.51
497.399	334.55
497.833	325.19
498.266	355.62
498.7	336.89
499.134	287.74
499.567	346.25
500.001	271.36
500.434	226.89
500.868	334.55
501.301	350.93
501.734	269.02
502.168	339.23
502.601	283.06
503.034	350.93
503.467	280.72
503.9	327.53
504.333	306.46
504.766	287.74
505.199	341.57
505.632	334.55
506.064	334.55
506.497	280.72
506.93	271.36
507.362	336.89
507.795	308.8
508.227	341.57
508.66	292.42
509.092	329.87
509.524	376.68
509.956	315.83
510.389	322.85
510.821	334.55
511.253	315.83
511.685	372
512.117	313.49
512.549	308.8
512.981	318.17
513.412	318.17
513.844	299.44
514.276	313.49
514.707	315.83
515.139	245.61
515.571	264.33
516.002	343.91
516.433	304.12
516.865	219.86
517.296	320.51
517.727	306.46
518.159	336.89
518.59	308.8
519.021	350.93
519.452	315.83
519.883	304.12
520.314	269.02
520.744	348.59
521.175	299.44
521.606	299.44
522.037	304.12
522.467	276.04
522.898	269.02
523.328	283.06
523.759	372
524.189	257.31
524.62	290.08
525.05	257.31
525.48	264.33
525.91	332.21
526.341	322.85
526.771	353.27
527.201	327.53
527.631	287.74
528.061	271.36
528.49	336.89
528.92	266.67
529.35	343.91
529.78	290.08
530.209	287.74
530.639	278.38
531.068	294.76
531.498	341.57
531.927	306.46
532.357	322.85
532.786	294.76
533.215	308.8
533.644	318.17
534.074	308.8
534.503	308.8
534.932	266.67
535.361	287.74
535.79	273.7
536.218	362.64
536.647	381.36
537.076	308.8
537.505	294.76
537.933	264.33
538.362	308.8
538.79	219.86
539.219	320.51
539.647	346.25
540.076	292.42
540.504	278.38
540.932	318.17
541.36	329.87
541.788	320.51
542.217	320.51
542.645	285.4
543.073	297.1
543.5	287.74
543.928	320.51
544.356	362.64
544.784	313.49
545.211	318.17
545.639	336.89
546.067	339.23
546.494	271.36
546.922	299.44
547.349	297.1
547.776	301.78
548.204	339.23
548.631	264.33
549.058	311.14
549.485	294.76
549.912	315.83
550.339	329.87
550.766	357.96
551.193	325.19
551.62	308.8
552.047	341.57
552.474	334.55
552.9	297.1
553.327	294.76
553.754	376.68
554.18	318.17
554.607	327.53
555.033	313.49
555.459	332.21
555.886	329.87
556.312	357.96
556.738	306.46
557.164	355.62
557.59	402.43
558.016	372
558.442	329.87
558.868	322.85
559.294	325.19
559.72	329.87
560.145	247.95
560.571	292.42
560.997	308.8
561.422	322.85
561.848	301.78
562.273	304.12
562.699	283.06
563.124	353.27
563.549	341.57
563.974	353.27
564.4	332.21
564.825	269.02
565.25	290.08
565.675	294.76
566.1	327.53
566.525	383.7
566.95	299.44
567.374	339.23
567.799	308.8
568.224	315.83
568.648	301.78
569.073	320.51
569.497	348.59
569.922	259.65
570.346	308.8
570.771	376.68
571.195	254.97
571.619	353.27
572.043	304.12
572.467	325.19
572.891	283.06
573.315	306.46
573.739	336.89
574.163	261.99
574.587	285.4
575.011	283.06
575.435	313.49
575.858	320.51
576.282	325.19
576.705	318.17
577.129	348.59
577.552	294.76
577.976	329.87
578.399	327.53
578.822	372
579.245	334.55
579.669	327.53
580.092	348.59
580.515	240.93
580.938	322.85
581.361	350.93
581.784	343.91
582.206	334.55
582.629	290.08
583.052	322.85
583.474	299.44
583.897	318.17
584.32	290.08
584.742	334.55
585.165	285.4
585.587	231.57
586.009	278.38
586.431	301.78
586.854	327.53
587.276	336.89
587.698	346.25
588.12	308.8
588.542	334.55
588.964	348.59
589.386	287.74
589.807	301.78
590.229	343.91
590.651	313.49
591.073	273.7
591.494	299.44
591.916	297.1
592.337	364.98
592.759	294.76
593.18	339.23
593.601	287.74
594.022	322.85
594.444	306.46
594.865	276.04
595.286	339.23
595.707	304.12
596.128	276.04
596.549	350.93
596.97	374.34
597.39	320.51
597.811	294.76
598.232	346.25
598.652	332.21
599.073	362.64
599.494	325.19
599.914	308.8
600.334	329.87
600.755	332.21
601.175	261.99
601.595	355.62
602.015	343.91
602.436	325.19
602.856	472.64
603.276	311.14
603.696	372
604.115	346.25
604.535	341.57
604.955	299.44
605.375	339.23
605.794	294.76
606.214	315.83
606.634	332.21
607.053	339.23
607.473	329.87
607.892	285.4
608.311	355.62
608.731	313.49
609.15	287.74
609.569	334.55
609.988	318.17
610.407	301.78
610.826	299.44
611.245	327.53
611.664	266.67
612.083	353.27
612.501	278.38
612.92	301.78
613.339	306.46
613.757	369.66
614.176	341.57
614.594	346.25
615.013	339.23
615.431	322.85
615.85	332.21
616.268	285.4
616.686	287.74
617.104	339.23
617.522	308.8
617.94	276.04
618.358	364.98
618.776	294.76
619.194	306.46
619.612	315.83
620.03	313.49
620.447	301.78
620.865	294.76
621.282	322.85
621.7	304.12
622.117	276.04
622.535	264.33
622.952	364.98
623.369	304.12
623.787	313.49
624.204	313.49
624.621	254.97
625.038	334.55
625.455	294.76
625.872	327.53
626.289	341.57
626.706	334.55
627.123	364.98
627.539	252.63
627.956	334.55
628.373	233.91
628.789	304.12
629.206	283.06
629.622	269.02
630.038	336.89
630.455	301.78
630.871	360.3
631.287	245.61
631.703	341.57
632.12	381.36
632.536	404.77
632.952	304.12
633.368	287.74
633.783	294.76
634.199	318.17
634.615	292.42
635.031	271.36
635.446	336.89
635.862	346.25
636.277	292.42
636.693	297.1
637.108	236.25
637.524	311.14
637.939	287.74
638.354	250.29
638.77	332.21
639.185	315.83
639.6	339.23
640.015	252.63
640.43	364.98
640.845	285.4
641.259	233.91
641.674	301.78
642.089	348.59
642.504	320.51
642.918	341.57
643.333	334.55
643.747	325.19
644.162	269.02
644.576	339.23
644.991	308.8
645.405	336.89
645.819	285.4
646.233	299.44
646.647	339.23
647.061	311.14
647.475	278.38
647.889	322.85
648.303	264.33
648.717	315.83
649.131	362.64
649.545	332.21
649.958	313.49
650.372	311.14
650.785	308.8
651.199	238.59
651.612	271.36
652.026	238.59
652.439	315.83
652.852	287.74
653.266	233.91
653.679	287.74
654.092	238.59
654.505	304.12
654.918	285.4
655.331	283.06
655.744	290.08
656.156	332.21
656.569	304.12
656.982	304.12
657.394	339.23
657.807	320.51
658.22	336.89
658.632	322.85
659.044	355.62
659.457	362.64
659.869	325.19
660.281	339.23
660.693	271.36
661.106	325.19
661.518	346.25
661.93	313.49
662.342	269.02
662.754	339.23
663.165	318.17
663.577	315.83
663.989	308.8
664.401	304.12
664.812	334.55
665.224	311.14
665.635	304.12
666.047	287.74
666.458	238.59
666.869	276.04
667.281	306.46
667.692	276.04
668.103	336.89
668.514	388.38
668.925	280.72
669.336	364.98
669.747	322.85
670.158	301.78
670.569	327.53
670.979	278.38
671.39	357.96
671.801	280.72
672.211	259.65
672.622	311.14
673.032	308.8
673.443	287.74
673.853	348.59
674.263	224.55
674.674	311.14
675.084	339.23
675.494	313.49
675.904	357.96
676.314	357.96
676.724	311.14
677.134	278.38
677.544	243.27
677.953	334.55
678.363	273.7
678.773	301.78
679.182	318.17
679.592	320.51
680.001	290.08
680.411	357.96
680.82	283.06
681.23	329.87
681.639	301.78
682.048	339.23
682.457	320.51
682.866	301.78
683.275	292.42
683.684	287.74
684.093	273.7
684.502	343.91
684.911	292.42
685.32	339.23
685.728	285.4
686.137	306.46
686.546	308.8
686.954	306.46
687.363	297.1
687.771	271.36
688.179	294.76
688.588	357.96
688.996	327.53
689.404	318.17
689.812	339.23
690.22	252.63
690.628	283.06
691.036	311.14
691.444	273.7
691.852	320.51
692.26	311.14
692.667	287.74
693.075	367.32
693.483	259.65
693.89	297.1
694.298	292.42
694.705	308.8
695.112	287.74
695.52	280.72
695.927	290.08
696.334	301.78
696.741	292.42
697.148	299.44
697.555	250.29
697.962	283.06
698.369	297.1
698.776	329.87
699.183	245.61
699.59	233.91
699.996	283.06
700.403	261.99
700.81	311.14
701.216	339.23
701.623	278.38
702.029	283.06
702.435	259.65
702.842	348.59
703.248	292.42
703.654	238.59
704.06	283.06
704.466	327.53
704.872	311.14
705.278	325.19
705.684	336.89
706.09	301.78
706.496	353.27
706.901	301.78
707.307	322.85
707.712	259.65
708.118	311.14
708.523	322.85
708.929	348.59
709.334	308.8
709.74	308.8
710.145	245.61
710.55	341.57
710.955	283.06
711.36	278.38
711.765	343.91
712.17	339.23
712.575	346.25
712.98	788.61
713.385	318.17
713.789	304.12
714.194	334.55
714.599	301.78
715.003	292.42
715.408	329.87
715.812	271.36
716.217	285.4
716.621	376.68
717.025	292.42
717.429	254.97
717.833	250.29
718.238	346.25
718.642	297.1
719.046	311.14
719.449	231.57
719.853	346.25
720.257	315.83
720.661	327.53
721.065	245.61
721.468	304.12
721.872	269.02
722.275	318.17
722.679	297.1
723.082	250.29
723.485	336.89
723.889	294.76
724.292	334.55
724.695	290.08
725.098	313.49
725.501	357.96
725.904	299.44
726.307	285.4
726.71	315.83
727.113	355.62
727.516	297.1
727.918	297.1
728.321	304.12
728.724	266.67
729.126	334.55
729.529	294.76
729.931	299.44
730.333	290.08
730.736	322.85
731.138	271.36
731.54	308.8
731.942	311.14
732.344	311.14
732.746	290.08
733.148	357.96
733.55	311.14
733.952	254.97
734.354	250.29
734.756	283.06
735.157	311.14
735.559	306.46
735.96	264.33
736.362	318.17
736.763	311.14
737.165	315.83
737.566	299.44
737.967	292.42
738.368	376.68
738.77	231.57
739.171	313.49
739.572	264.33
739.973	254.97
740.374	273.7
740.774	294.76
741.175	271.36
741.576	292.42
741.977	311.14
742.377	311.14
742.778	308.8
743.178	278.38
743.579	376.68
743.979	329.87
744.379	292.42
744.78	292.42
745.18	252.63
745.58	250.29
745.98	240.93
746.38	292.42
746.78	264.33
747.18	315.83
747.58	322.85
747.98	322.85
748.38	283.06
748.779	400.09
749.179	294.76
749.578	294.76
749.978	364.98
750.377	320.51
750.777	313.49
751.176	271.36
751.575	243.27
751.975	269.02
752.374	301.78
752.773	336.89
753.172	297.1
753.571	292.42
753.97	327.53
754.369	306.46
754.768	315.83
755.166	336.89
755.565	287.74
755.964	254.97
756.362	322.85
756.761	276.04
757.159	372
757.558	327.53
757.956	367.32
758.354	341.57
758.753	332.21
759.151	350.93
759.549	292.42
759.947	273.7
760.345	364.98
760.743	290.08
761.141	290.08
761.539	283.06
761.936	301.78
762.334	357.96
762.732	264.33
763.129	226.89
763.527	297.1
763.924	357.96
764.322	264.33
764.719	250.29
765.117	297.1
765.514	318.17
765.911	315.83
766.308	325.19
766.705	313.49
767.102	327.53
767.499	231.57
767.896	332.21
768.293	257.31
768.69	294.76
769.086	325.19
769.483	261.99
769.88	374.34
770.276	280.72
770.673	327.53
771.069	299.44
771.466	264.33
771.862	273.7
772.258	315.83
772.654	292.42
773.05	292.42
773.447	329.87
773.843	315.83
774.239	280.72
774.634	301.78
775.03	311.14
775.426	325.19
775.822	257.31
776.218	320.51
776.613	273.7
777.009	362.64
777.404	364.98
777.8	280.72
778.195	287.74
778.59	287.74
778.986	285.4
779.381	264.33
779.776	339.23
780.171	318.17
780.566	271.36
780.961	266.67
781.356	329.87
781.751	264.33
782.146	269.02
782.54	278.38
782.935	393.06
783.33	264.33
783.724	315.83
784.119	332.21
784.513	294.76
784.908	320.51
785.302	325.19
785.696	327.53
786.09	327.53
786.485	308.8
786.879	292.42
787.273	313.49
787.667	315.83
788.061	381.36
788.454	297.1
788.848	250.29
789.242	271.36
789.636	294.76
790.029	346.25
790.423	336.89
790.816	290.08
791.21	334.55
791.603	290.08
791.997	343.91
792.39	254.97
792.783	287.74
793.176	285.4
793.569	325.19
793.962	290.08
794.355	287.74
794.748	318.17
795.141	313.49
795.534	280.72
795.927	325.19
796.319	332.21
796.712	343.91
797.105	336.89
797.497	301.78
797.89	341.57
798.282	346.25
798.674	304.12
799.067	339.23
799.459	315.83
799.851	304.12
800.243	339.23
800.635	350.93
801.027	315.83
801.419	350.93
801.811	280.72
802.203	269.02
802.594	247.95
802.986	271.36
803.378	313.49
803.769	269.02
804.161	266.67
804.552	332.21
804.944	339.23
805.335	294.76
805.726	379.02
806.118	266.67
806.509	280.72
806.9	283.06
807.291	285.4
807.682	276.04
808.073	360.3
808.464	311.14
808.855	301.78
809.245	280.72
809.636	393.06
810.027	313.49
810.417	297.1
810.808	329.87
811.198	301.78
811.589	245.61
811.979	271.36
812.369	271.36
812.759	278.38
813.15	348.59
813.54	306.46
813.93	254.97
814.32	264.33
814.71	304.12
815.1	259.65
815.489	332.21
815.879	254.97
816.269	269.02
816.658	276.04
817.048	341.57
817.438	350.93
817.827	353.27
818.216	261.99
818.606	257.31
818.995	341.57
819.384	299.44
819.773	322.85
820.163	278.38
820.552	290.08
820.941	290.08
821.33	306.46
821.718	290.08
822.107	276.04
822.496	362.64
822.885	283.06
823.273	308.8
823.662	278.38
824.05	285.4
824.439	276.04
824.827	329.87
825.216	292.42
825.604	322.85
825.992	271.36
826.38	308.8
826.768	334.55
827.156	357.96
827.544	318.17
827.932	217.52
828.32	357.96
828.708	224.55
829.096	320.51
829.483	334.55
829.871	292.42
830.259	254.97
830.646	287.74
831.034	292.42
831.421	346.25
831.808	343.91
832.196	292.42
832.583	266.67
832.97	306.46
833.357	343.91
833.744	229.23
834.131	329.87
834.518	261.99
834.905	261.99
835.292	261.99
835.678	308.8
836.065	264.33
836.452	315.83
836.838	311.14
837.225	292.42
837.611	264.33
837.998	334.55
838.384	299.44
838.77	273.7
839.157	283.06
839.543	339.23
839.929	299.44
840.315	264.33
840.701	339.23
841.087	325.19
841.473	367.32
841.858	287.74
842.244	311.14
842.63	315.83
843.015	360.3
843.401	372
843.787	252.63
844.172	301.78
844.557	299.44
844.943	313.49
845.328	243.27
845.713	301.78
846.098	250.29
846.483	334.55
846.868	299.44
847.253	311.14
847.638	306.46
848.023	327.53
848.408	336.89
848.793	320.51
849.177	301.78
849.562	238.59
849.947	283.06
850.331	315.83
850.715	269.02
851.1	334.55
851.484	271.36
851.868	353.27
852.253	388.38
852.637	332.21
853.021	341.57
853.405	343.91
853.789	355.62
854.173	308.8
854.557	346.25
854.94	276.04
855.324	411.79
855.708	334.55
856.091	311.14
856.475	357.96
856.858	280.72
857.242	278.38
857.625	280.72
858.009	278.38
858.392	236.25
858.775	315.83
859.158	346.25
859.541	259.65
859.924	350.93
860.307	348.59
860.69	318.17
861.073	259.65
861.456	411.79
861.838	299.44
862.221	306.46
862.604	334.55
862.986	266.67
863.369	325.19
863.751	311.14
864.133	294.76
864.516	360.3
864.898	318.17
865.28	294.76
865.662	278.38
866.044	271.36
866.426	313.49
866.808	325.19
867.19	276.04
867.572	266.67
867.954	259.65
868.336	290.08
868.717	271.36
869.099	425.83
869.48	346.25
869.862	364.98
870.243	208.16
870.625	264.33
871.006	238.59
871.387	306.46
871.768	357.96
872.149	343.91
872.53	329.87
872.911	243.27
873.292	299.44
873.673	367.32
874.054	318.17
874.435	292.42
874.815	245.61
875.196	292.42
875.577	250.29
875.957	339.23
876.338	254.97
876.718	287.74
877.098	343.91
877.479	318.17
877.859	283.06
878.239	329.87
878.619	276.04
878.999	271.36
879.379	362.64
879.759	372
880.139	264.33
880.519	290.08
880.898	315.83
881.278	290.08
881.658	294.76
882.037	339.23
882.417	329.87
882.796	336.89
883.176	348.59
883.555	355.62
883.934	334.55
884.313	320.51
884.693	367.32
885.072	301.78
885.451	240.93
885.83	327.53
886.209	287.74
886.587	343.91
886.966	315.83
887.345	290.08
887.724	315.83
888.102	374.34
888.481	299.44
888.859	304.12
889.238	245.61
889.616	374.34
889.994	259.65
890.373	269.02
890.751	299.44
891.129	259.65
891.507	320.51
891.885	271.36
892.263	341.57
892.641	273.7
893.019	299.44
893.396	287.74
893.774	315.83
894.152	393.06
894.529	259.65
894.907	301.78
895.284	294.76
895.662	350.93
896.039	292.42
896.416	266.67
896.794	254.97
897.171	299.44
897.548	308.8
897.925	245.61
898.302	346.25
898.679	259.65
899.056	292.42
899.433	339.23
899.809	306.46
900.186	283.06
900.563	299.44
900.939	311.14
901.316	320.51
901.692	290.08
902.069	306.46
902.445	339.23
902.821	339.23
903.197	278.38
903.574	334.55
903.95	318.17
904.326	320.51
904.702	283.06
905.078	332.21
905.454	271.36
905.829	315.83
906.205	236.25
906.581	311.14
906.956	276.04
907.332	283.06
907.707	308.8
908.083	283.06
908.458	254.97
908.833	261.99
909.209	240.93
909.584	329.87
909.959	292.42
910.334	278.38
910.709	329.87
911.084	299.44
911.459	301.78
911.834	240.93
912.209	290.08
912.583	278.38
912.958	259.65
913.333	334.55
913.707	393.06
914.082	372
914.456	266.67
914.83	355.62
915.205	318.17
915.579	311.14
915.953	383.7
916.327	276.04
916.701	367.32
917.075	311.14
917.449	287.74
917.823	292.42
918.197	346.25
918.571	320.51
918.944	264.33
919.318	299.44
919.692	212.84
920.065	278.38
920.438	245.61
920.812	287.74
921.185	283.06
921.558	313.49
921.932	322.85
922.305	292.42
922.678	280.72
923.051	245.61
923.424	341.57
923.797	276.04
924.17	311.14
924.542	343.91
924.915	320.51
925.288	364.98
925.661	364.98
926.033	283.06
926.406	290.08
926.778	315.83
927.15	301.78
927.523	292.42
927.895	315.83
928.267	278.38
928.639	261.99
929.011	264.33
929.383	297.1
929.755	285.4
930.127	280.72
930.499	311.14
930.871	297.1
931.242	322.85
931.614	238.59
931.986	362.64
932.357	245.61
932.729	336.89
933.1	313.49
933.471	336.89
933.843	229.23
934.214	283.06
934.585	264.33
934.956	332.21
935.327	292.42
935.698	290.08
936.069	301.78
936.44	297.1
936.811	346.25
937.182	278.38
937.552	301.78
937.923	362.64
938.293	318.17
938.664	315.83
939.034	308.8
939.405	278.38
939.775	322.85
940.145	292.42
940.516	332.21
940.886	306.46
941.256	280.72
941.626	318.17
941.996	409.45
942.366	313.49
942.735	290.08
943.105	329.87
943.475	339.23
943.845	261.99
944.214	257.31
944.584	334.55
944.953	245.61
945.323	315.83
945.692	325.19
946.061	313.49
946.43	369.66
946.8	315.83
947.169	304.12
947.538	247.95
947.907	364.98
948.276	290.08
948.645	355.62
949.013	280.72
949.382	290.08
949.751	362.64
950.119	311.14
950.488	287.74
950.857	283.06
951.225	250.29
951.593	304.12
951.962	311.14
952.33	313.49
952.698	287.74
953.066	271.36
953.434	290.08
953.802	357.96
954.17	341.57
954.538	318.17
954.906	311.14
955.274	348.59
955.642	236.25
956.009	257.31
956.377	269.02
956.744	315.83
957.112	311.14
957.479	301.78
957.847	285.4
958.214	327.53
958.581	285.4
958.948	306.46
959.315	287.74
959.683	252.63
960.05	357.96
960.416	215.18
960.783	261.99
961.15	299.44
961.517	278.38
961.884	259.65
962.25	278.38
962.617	329.87
962.983	273.7
963.35	360.3
963.716	299.44
964.082	257.31
964.449	297.1
964.815	381.36
965.181	294.76
965.547	306.46
965.913	271.36
966.279	196.46
966.645	304.12
967.011	299.44
967.377	294.76
967.742	325.19
968.108	297.1
968.474	350.93
968.839	329.87
969.205	318.17
969.57	313.49
969.935	322.85
970.301	332.21
970.666	325.19
971.031	297.1
971.396	346.25
971.761	327.53
972.126	294.76
972.491	308.8
972.856	360.3
973.221	236.25
973.586	301.78
973.95	313.49
974.315	390.72
974.679	374.34
975.044	292.42
975.408	269.02
975.773	318.17
976.137	332.21
976.501	236.25
976.866	297.1
977.23	247.95
977.594	329.87
977.958	285.4
978.322	306.46
978.686	346.25
979.049	233.91
979.413	353.27
979.777	247.95
980.141	261.99
980.504	311.14
980.868	362.64
981.231	266.67
981.595	336.89
981.958	329.87
982.321	390.72
982.684	336.89
983.048	257.31
983.411	329.87
983.774	273.7
984.137	360.3
984.5	315.83
984.862	341.57
985.225	283.06
985.588	236.25
985.951	327.53
986.313	280.72
986.676	252.63
987.038	259.65
987.401	292.42
987.763	315.83
988.125	283.06
988.488	287.74
988.85	290.08
989.212	269.02
989.574	290.08
989.936	353.27
990.298	252.63
990.66	367.32
991.022	276.04
991.383	315.83
991.745	327.53
992.107	273.7
992.468	325.19
992.83	304.12
993.191	322.85
993.553	306.46
993.914	306.46
994.275	383.7
994.637	299.44
994.998	285.4
995.359	336.89
995.72	332.21
996.081	259.65
996.442	315.83
996.803	313.49
997.163	259.65
997.524	341.57
997.885	285.4
998.245	341.57
998.606	299.44
998.966	280.72
999.327	294.76
999.687	299.44
1000.047	322.85
1000.408	311.14
1000.768	315.83
1001.128	313.49
1001.488	311.14
1001.848	318.17
1002.208	325.19
1002.568	313.49
1002.927	308.8
1003.287	292.42
1003.647	428.17
1004.007	336.89
1004.366	313.49
1004.726	320.51
1005.085	236.25
1005.444	261.99
1005.804	339.23
1006.163	327.53
1006.522	297.1
1006.881	334.55
1007.24	273.7
1007.599	217.52
1007.958	259.65
1008.317	294.76
1008.676	369.66
1009.035	292.42
1009.393	329.87
1009.752	294.76
1010.111	290.08
1010.469	304.12
1010.828	273.7
1011.186	315.83
1011.544	271.36
1011.903	339.23
1012.261	276.04
1012.619	278.38
1012.977	280.72
1013.335	259.65
1013.693	320.51
1014.051	308.8
1014.409	322.85
1014.767	250.29
1015.124	299.44
1015.482	315.83
1015.84	329.87
1016.197	360.3
1016.555	369.66
1016.912	306.46
1017.269	294.76
1017.627	292.42
1017.984	299.44
1018.341	266.67
1018.698	332.21
1019.055	266.67
1019.412	334.55
1019.769	292.42
1020.126	290.08
1020.483	266.67
1020.84	327.53
1021.196	346.25
1021.553	325.19
1021.909	301.78
1022.266	355.62
1022.622	315.83
1022.979	357.96
1023.335	280.72
1023.691	250.29
1024.047	297.1
1024.404	290.08
1024.76	278.38
1025.116	254.97
1025.472	313.49
1025.827	294.76
1026.183	311.14
1026.539	238.59
1026.895	269.02
1027.25	318.17
1027.606	341.57
1027.961	250.29
1028.317	308.8
1028.672	355.62
1029.028	357.96
1029.383	327.53
1029.738	308.8
1030.093	283.06
1030.448	339.23
1030.803	311.14
1031.158	283.06
1031.513	264.33
1031.868	315.83
1032.223	254.97
1032.577	264.33
1032.932	334.55
1033.287	278.38
1033.641	252.63
1033.996	283.06
1034.35	273.7
1034.704	318.17
1035.059	252.63
1035.413	273.7
1035.767	273.7
1036.121	273.7
