Data from Al_FLMS009871__770__15-18-16-722.txt Node

Date: Fri Mar 08 15:18:16 CST 2024
User: pe5414po
Spectrometer: FLMS00987
Trigger mode: 0
Integration Time (sec): 1.000000E-1
Scans to average: 1
Electric dark correction enabled: true
Nonlinearity correction enabled: false
Boxcar width: 0
XAxis mode: Wavelengths
Number of Pixels in Spectrum: 2048
>>>>>Begin Spectral Data<<<<<
188.938	-85.58
189.409	-85.58
189.879	-85.58
190.349	-137.07
190.819	-78.55
191.29	-130.05
191.76	-80.89
192.23	-127.71
192.7	-94.94
193.17	-45.79
193.64	22.09
194.109	-10.68
194.579	-15.36
195.049	29.11
195.519	26.77
195.988	-6
196.458	57.2
196.927	111.03
197.397	54.86
197.866	122.73
198.336	87.62
198.805	96.99
199.274	202.31
199.744	122.73
200.213	214.01
200.682	223.37
201.151	111.03
201.62	216.35
202.089	228.06
202.558	267.85
203.027	314.66
203.495	235.08
203.964	228.06
204.433	256.14
204.902	309.97
205.37	253.8
205.839	340.4
206.307	265.5
206.776	256.14
207.244	312.32
207.712	298.27
208.181	246.78
208.649	307.63
209.117	288.91
209.585	298.27
210.053	309.97
210.521	288.91
210.989	291.25
211.457	230.4
211.925	295.93
212.393	298.27
212.861	235.08
213.328	307.63
213.796	206.99
214.264	258.48
214.731	221.03
215.199	256.14
215.666	272.53
216.133	284.23
216.601	263.16
217.068	225.72
217.535	190.61
218.003	251.46
218.47	265.5
218.937	288.91
219.404	218.69
219.871	270.19
220.338	277.21
220.805	190.61
221.271	183.59
221.738	232.74
222.205	263.16
222.671	249.12
223.138	279.55
223.605	291.25
224.071	221.03
224.538	298.27
225.004	206.99
225.47	225.72
225.937	270.19
226.403	230.4
226.869	253.8
227.335	190.61
227.801	218.69
228.267	267.85
228.733	253.8
229.199	288.91
229.665	260.82
230.131	214.01
230.597	178.9
231.062	199.97
231.528	272.53
231.994	244.44
232.459	244.44
232.925	312.32
233.39	256.14
233.856	284.23
234.321	293.59
234.786	312.32
235.252	246.78
235.717	260.82
236.182	256.14
236.647	251.46
237.112	237.42
237.577	317
238.042	295.93
238.507	214.01
238.972	235.08
239.436	288.91
239.901	281.89
240.366	202.31
240.83	295.93
241.295	214.01
241.76	258.48
242.224	246.78
242.688	197.63
243.153	281.89
243.617	263.16
244.081	253.8
244.545	293.59
245.01	209.33
245.474	274.87
245.938	270.19
246.402	237.42
246.866	317
247.33	279.55
247.793	232.74
248.257	300.61
248.721	298.27
249.185	258.48
249.648	225.72
250.112	230.4
250.575	204.65
251.039	253.8
251.502	239.76
251.965	274.87
252.429	267.85
252.892	267.85
253.355	345.08
253.818	272.53
254.281	274.87
254.744	291.25
255.207	253.8
255.67	272.53
256.133	214.01
256.596	256.14
257.059	345.08
257.522	293.59
257.984	260.82
258.447	305.29
258.909	237.42
259.372	216.35
259.834	228.06
260.297	244.44
260.759	263.16
261.221	321.68
261.684	246.78
262.146	354.44
262.608	251.46
263.07	274.87
263.532	288.91
263.994	260.82
264.456	286.57
264.918	277.21
265.38	246.78
265.842	263.16
266.303	249.12
266.765	225.72
267.227	314.66
267.688	270.19
268.15	251.46
268.611	319.34
269.072	265.5
269.534	295.93
269.995	267.85
270.456	319.34
270.918	293.59
271.379	302.95
271.84	225.72
272.301	305.29
272.762	242.1
273.223	284.23
273.684	246.78
274.144	274.87
274.605	239.76
275.066	300.61
275.527	260.82
275.987	195.29
276.448	265.5
276.908	253.8
277.369	279.55
277.829	253.8
278.289	239.76
278.75	307.63
279.21	298.27
279.67	263.16
280.13	251.46
280.59	338.06
281.05	211.67
281.51	258.48
281.97	293.59
282.43	277.21
282.89	260.82
283.35	272.53
283.809	239.76
284.269	232.74
284.729	305.29
285.188	253.8
285.648	260.82
286.107	263.16
286.567	253.8
287.026	277.21
287.485	265.5
287.944	281.89
288.404	298.27
288.863	302.95
289.322	230.4
289.781	279.55
290.24	256.14
290.699	286.57
291.158	288.91
291.616	206.99
292.075	281.89
292.534	265.5
292.992	253.8
293.451	291.25
293.91	237.42
294.368	246.78
294.827	260.82
295.285	260.82
295.743	284.23
296.202	270.19
296.66	274.87
297.118	309.97
297.576	281.89
298.034	274.87
298.492	300.61
298.95	340.4
299.408	279.55
299.866	293.59
300.324	321.68
300.781	302.95
301.239	321.68
301.697	356.79
302.154	232.74
302.612	307.63
303.069	274.87
303.527	284.23
303.984	246.78
304.441	244.44
304.899	267.85
305.356	288.91
305.813	237.42
306.27	237.42
306.727	335.72
307.184	291.25
307.641	305.29
308.098	284.23
308.555	265.5
309.012	291.25
309.468	232.74
309.925	235.08
310.382	340.4
310.838	279.55
311.295	302.95
311.751	366.15
312.208	251.46
312.664	298.27
313.12	235.08
313.577	270.19
314.033	326.36
314.489	281.89
314.945	352.1
315.401	354.44
315.857	328.7
316.313	333.38
316.769	274.87
317.225	309.97
317.681	295.93
318.136	242.1
318.592	272.53
319.048	270.19
319.503	326.36
319.959	300.61
320.414	338.06
320.869	274.87
321.325	263.16
321.78	328.7
322.235	237.42
322.691	288.91
323.146	312.32
323.601	302.95
324.056	284.23
324.511	265.5
324.966	347.42
325.421	284.23
325.875	312.32
326.33	274.87
326.785	260.82
327.24	284.23
327.694	274.87
328.149	279.55
328.603	284.23
329.058	244.44
329.512	368.49
329.966	312.32
330.421	277.21
330.875	251.46
331.329	284.23
331.783	293.59
332.237	284.23
332.691	361.47
333.145	309.97
333.599	265.5
334.053	354.44
334.507	349.76
334.96	272.53
335.414	302.95
335.868	368.49
336.321	244.44
336.775	251.46
337.228	302.95
337.682	302.95
338.135	293.59
338.588	228.06
339.042	338.06
339.495	298.27
339.948	321.68
340.401	317
340.854	232.74
341.307	274.87
341.76	324.02
342.213	317
342.666	342.74
343.119	319.34
343.571	274.87
344.024	356.79
344.477	272.53
344.929	338.06
345.382	354.44
345.834	312.32
346.287	265.5
346.739	298.27
347.191	312.32
347.644	253.8
348.096	335.72
348.548	284.23
349	253.8
349.452	307.63
349.904	312.32
350.356	267.85
350.808	349.76
351.26	349.76
351.711	319.34
352.163	265.5
352.615	277.21
353.066	307.63
353.518	298.27
353.969	270.19
354.421	302.95
354.872	281.89
355.324	305.29
355.775	281.89
356.226	356.79
356.677	302.95
357.128	302.95
357.579	347.42
358.03	265.5
358.481	321.68
358.932	302.95
359.383	293.59
359.834	312.32
360.285	260.82
360.735	298.27
361.186	284.23
361.637	317
362.087	293.59
362.538	333.38
362.988	305.29
363.438	317
363.889	300.61
364.339	307.63
364.789	286.57
365.239	319.34
365.689	366.15
366.139	340.4
366.589	314.66
367.039	319.34
367.489	293.59
367.939	265.5
368.389	302.95
368.839	309.97
369.288	349.76
369.738	302.95
370.187	260.82
370.637	279.55
371.086	331.04
371.536	256.14
371.985	307.63
372.434	267.85
372.884	291.25
373.333	270.19
373.782	317
374.231	272.53
374.68	300.61
375.129	284.23
375.578	333.38
376.027	258.48
376.475	373.17
376.924	293.59
377.373	237.42
377.822	314.66
378.27	235.08
378.719	356.79
379.167	218.69
379.616	274.87
380.064	333.38
380.512	270.19
380.961	237.42
381.409	232.74
381.857	284.23
382.305	295.93
382.753	319.34
383.201	302.95
383.649	347.42
384.097	293.59
384.545	333.38
384.992	270.19
385.44	317
385.888	307.63
386.335	335.72
386.783	333.38
387.231	286.57
387.678	253.8
388.125	328.7
388.573	235.08
389.02	267.85
389.467	291.25
389.914	307.63
390.362	307.63
390.809	340.4
391.256	272.53
391.703	298.27
392.15	249.12
392.596	239.76
393.043	349.76
393.49	335.72
393.937	338.06
394.383	277.21
394.83	305.29
395.276	298.27
395.723	235.08
396.169	256.14
396.616	309.97
397.062	366.15
397.508	305.29
397.954	298.27
398.401	298.27
398.847	288.91
399.293	312.32
399.739	239.76
400.185	338.06
400.631	338.06
401.076	314.66
401.522	284.23
401.968	277.21
402.414	288.91
402.859	298.27
403.305	272.53
403.75	317
404.196	342.74
404.641	328.7
405.086	277.21
405.532	270.19
405.977	267.85
406.422	305.29
406.867	302.95
407.312	314.66
407.757	361.47
408.202	277.21
408.647	291.25
409.092	307.63
409.537	300.61
409.982	324.02
410.426	244.44
410.871	359.13
411.316	244.44
411.76	307.63
412.205	319.34
412.649	242.1
413.093	326.36
413.538	265.5
413.982	309.97
414.426	284.23
414.87	366.15
415.314	319.34
415.758	317
416.202	218.69
416.646	260.82
417.09	293.59
417.534	274.87
417.978	295.93
418.421	288.91
418.865	281.89
419.309	298.27
419.752	317
420.196	230.4
420.639	338.06
421.083	326.36
421.526	333.38
421.969	319.34
422.412	314.66
422.856	302.95
423.299	366.15
423.742	267.85
424.185	270.19
424.628	272.53
425.071	293.59
425.513	251.46
425.956	244.44
426.399	333.38
426.842	326.36
427.284	321.68
427.727	328.7
428.169	354.44
428.612	319.34
429.054	263.16
429.497	293.59
429.939	345.08
430.381	305.29
430.823	284.23
431.265	246.78
431.707	293.59
432.149	300.61
432.591	286.57
433.033	274.87
433.475	274.87
433.917	288.91
434.359	265.5
434.8	277.21
435.242	321.68
435.684	321.68
436.125	295.93
436.567	246.78
437.008	291.25
437.449	279.55
437.891	340.4
438.332	281.89
438.773	293.59
439.214	298.27
439.656	352.1
440.097	298.27
440.538	293.59
440.978	270.19
441.419	342.74
441.86	281.89
442.301	211.67
442.742	246.78
443.182	356.79
443.623	291.25
444.063	293.59
444.504	370.83
444.944	288.91
445.385	228.06
445.825	349.76
446.265	368.49
446.706	338.06
447.146	291.25
447.586	302.95
448.026	321.68
448.466	298.27
448.906	279.55
449.346	298.27
449.786	307.63
450.225	326.36
450.665	281.89
451.105	338.06
451.544	338.06
451.984	281.89
452.424	295.93
452.863	359.13
453.302	307.63
453.742	302.95
454.181	307.63
454.62	314.66
455.059	349.76
455.499	295.93
455.938	326.36
456.377	309.97
456.816	263.16
457.254	274.87
457.693	319.34
458.132	314.66
458.571	288.91
459.01	307.63
459.448	246.78
459.887	331.04
460.325	277.21
460.764	305.29
461.202	295.93
461.641	368.49
462.079	317
462.517	291.25
462.955	314.66
463.393	324.02
463.832	317
464.27	338.06
464.708	321.68
465.145	366.15
465.583	338.06
466.021	291.25
466.459	288.91
466.897	279.55
467.334	349.76
467.772	270.19
468.209	354.44
468.647	258.48
469.084	305.29
469.522	232.74
469.959	263.16
470.396	239.76
470.833	324.02
471.271	295.93
471.708	272.53
472.145	270.19
472.582	333.38
473.019	300.61
473.456	305.29
473.892	298.27
474.329	324.02
474.766	370.83
475.202	293.59
475.639	338.06
476.076	324.02
476.512	305.29
476.949	300.61
477.385	302.95
477.821	284.23
478.258	295.93
478.694	225.72
479.13	265.5
479.566	335.72
480.002	302.95
480.438	272.53
480.874	260.82
481.31	251.46
481.746	253.8
482.181	312.32
482.617	312.32
483.053	309.97
483.488	319.34
483.924	251.46
484.36	331.04
484.795	317
485.23	326.36
485.666	274.87
486.101	295.93
486.536	293.59
486.971	305.29
487.407	239.76
487.842	298.27
488.277	328.7
488.712	237.42
489.146	309.97
489.581	291.25
490.016	300.61
490.451	274.87
490.885	307.63
491.32	321.68
491.755	317
492.189	288.91
492.624	284.23
493.058	328.7
493.492	288.91
493.927	328.7
494.361	305.29
494.795	274.87
495.229	265.5
495.663	263.16
496.097	288.91
496.531	277.21
496.965	293.59
497.399	270.19
497.833	260.82
498.266	314.66
498.7	314.66
499.134	321.68
499.567	281.89
500.001	300.61
500.434	361.47
500.868	300.61
501.301	279.55
501.734	359.13
502.168	321.68
502.601	305.29
503.034	256.14
503.467	281.89
503.9	288.91
504.333	279.55
504.766	291.25
505.199	345.08
505.632	317
506.064	333.38
506.497	319.34
506.93	265.5
507.362	309.97
507.795	295.93
508.227	272.53
508.66	391.89
509.092	317
509.524	307.63
509.956	324.02
510.389	340.4
510.821	305.29
511.253	361.47
511.685	338.06
512.117	338.06
512.549	284.23
512.981	263.16
513.412	328.7
513.844	298.27
514.276	321.68
514.707	359.13
515.139	359.13
515.571	298.27
516.002	258.48
516.433	279.55
516.865	307.63
517.296	373.17
517.727	384.87
518.159	370.83
518.59	291.25
519.021	324.02
519.452	291.25
519.883	345.08
520.314	291.25
520.744	284.23
521.175	328.7
521.606	335.72
522.037	333.38
522.467	293.59
522.898	321.68
523.328	279.55
523.759	375.51
524.189	366.15
524.62	317
525.05	345.08
525.48	361.47
525.91	335.72
526.341	274.87
526.771	300.61
527.201	342.74
527.631	356.79
528.061	305.29
528.49	410.62
528.92	232.74
529.35	305.29
529.78	298.27
530.209	300.61
530.639	286.57
531.068	211.67
531.498	380.19
531.927	319.34
532.357	317
532.786	328.7
533.215	338.06
533.644	300.61
534.074	265.5
534.503	361.47
534.932	335.72
535.361	340.4
535.79	288.91
536.218	307.63
536.647	291.25
537.076	328.7
537.505	260.82
537.933	319.34
538.362	295.93
538.79	312.32
539.219	302.95
539.647	361.47
540.076	331.04
540.504	309.97
540.932	242.1
541.36	307.63
541.788	319.34
542.217	270.19
542.645	274.87
543.073	305.29
543.5	309.97
543.928	270.19
544.356	221.03
544.784	302.95
545.211	291.25
545.639	321.68
546.067	309.97
546.494	277.21
546.922	331.04
547.349	331.04
547.776	279.55
548.204	307.63
548.631	291.25
549.058	284.23
549.485	246.78
549.912	281.89
550.339	338.06
550.766	307.63
551.193	293.59
551.62	331.04
552.047	354.44
552.474	288.91
552.9	333.38
553.327	298.27
553.754	274.87
554.18	328.7
554.607	295.93
555.033	286.57
555.459	375.51
555.886	260.82
556.312	302.95
556.738	291.25
557.164	328.7
557.59	270.19
558.016	263.16
558.442	326.36
558.868	298.27
559.294	321.68
559.72	244.44
560.145	335.72
560.571	319.34
560.997	253.8
561.422	359.13
561.848	335.72
562.273	295.93
562.699	293.59
563.124	317
563.549	335.72
563.974	291.25
564.4	267.85
564.825	415.3
565.25	281.89
565.675	370.83
566.1	349.76
566.525	333.38
566.95	335.72
567.374	284.23
567.799	295.93
568.224	312.32
568.648	272.53
569.073	324.02
569.497	312.32
569.922	291.25
570.346	312.32
570.771	251.46
571.195	314.66
571.619	307.63
572.043	302.95
572.467	284.23
572.891	319.34
573.315	309.97
573.739	319.34
574.163	298.27
574.587	321.68
575.011	312.32
575.435	331.04
575.858	326.36
576.282	328.7
576.705	331.04
577.129	331.04
577.552	307.63
577.976	309.97
578.399	237.42
578.822	246.78
579.245	349.76
579.669	305.29
580.092	354.44
580.515	317
580.938	335.72
581.361	279.55
581.784	286.57
582.206	305.29
582.629	300.61
583.052	328.7
583.474	305.29
583.897	225.72
584.32	319.34
584.742	214.01
585.165	345.08
585.587	253.8
586.009	274.87
586.431	288.91
586.854	249.12
587.276	319.34
587.698	321.68
588.12	335.72
588.542	356.79
588.964	295.93
589.386	345.08
589.807	279.55
590.229	309.97
590.651	265.5
591.073	300.61
591.494	253.8
591.916	249.12
592.337	260.82
592.759	321.68
593.18	218.69
593.601	293.59
594.022	263.16
594.444	295.93
594.865	293.59
595.286	270.19
595.707	349.76
596.128	279.55
596.549	328.7
596.97	232.74
597.39	253.8
597.811	387.21
598.232	352.1
598.652	293.59
599.073	286.57
599.494	307.63
599.914	288.91
600.334	277.21
600.755	349.76
601.175	286.57
601.595	295.93
602.015	300.61
602.436	305.29
602.856	382.53
603.276	366.15
603.696	277.21
604.115	302.95
604.535	305.29
604.955	314.66
605.375	326.36
605.794	324.02
606.214	335.72
606.634	314.66
607.053	300.61
607.473	225.72
607.892	319.34
608.311	286.57
608.731	281.89
609.15	317
609.569	274.87
609.988	307.63
610.407	291.25
610.826	312.32
611.245	328.7
611.664	368.49
612.083	244.44
612.501	340.4
612.92	312.32
613.339	298.27
613.757	288.91
614.176	312.32
614.594	326.36
615.013	312.32
615.431	291.25
615.85	244.44
616.268	270.19
616.686	277.21
617.104	335.72
617.522	354.44
617.94	274.87
618.358	324.02
618.776	333.38
619.194	286.57
619.612	305.29
620.03	321.68
620.447	286.57
620.865	328.7
621.282	347.42
621.7	309.97
622.117	349.76
622.535	277.21
622.952	326.36
623.369	387.21
623.787	265.5
624.204	326.36
624.621	319.34
625.038	324.02
625.455	326.36
625.872	326.36
626.289	324.02
626.706	321.68
627.123	370.83
627.539	338.06
627.956	309.97
628.373	286.57
628.789	293.59
629.206	389.55
629.622	293.59
630.038	298.27
630.455	300.61
630.871	307.63
631.287	375.51
631.703	223.37
632.12	370.83
632.536	265.5
632.952	305.29
633.368	274.87
633.783	319.34
634.199	305.29
634.615	284.23
635.031	277.21
635.446	274.87
635.862	307.63
636.277	235.08
636.693	251.46
637.108	328.7
637.524	284.23
637.939	394.23
638.354	307.63
638.77	333.38
639.185	288.91
639.6	279.55
640.015	204.65
640.43	286.57
640.845	258.48
641.259	328.7
641.674	375.51
642.089	309.97
642.504	314.66
642.918	291.25
643.333	218.69
643.747	368.49
644.162	298.27
644.576	286.57
644.991	307.63
645.405	298.27
645.819	242.1
646.233	295.93
646.647	272.53
647.061	286.57
647.475	352.1
647.889	286.57
648.303	370.83
648.717	321.68
649.131	291.25
649.545	272.53
649.958	300.61
650.372	295.93
650.785	373.17
651.199	288.91
651.612	307.63
652.026	274.87
652.439	328.7
652.852	314.66
653.266	295.93
653.679	305.29
654.092	270.19
654.505	302.95
654.918	338.06
655.331	300.61
655.744	352.1
656.156	338.06
656.569	321.68
656.982	345.08
657.394	331.04
657.807	239.76
658.22	354.44
658.632	317
659.044	244.44
659.457	270.19
659.869	361.47
660.281	295.93
660.693	272.53
661.106	298.27
661.518	230.4
661.93	272.53
662.342	324.02
662.754	307.63
663.165	347.42
663.577	277.21
663.989	354.44
664.401	333.38
664.812	267.85
665.224	312.32
665.635	300.61
666.047	291.25
666.458	300.61
666.869	295.93
667.281	293.59
667.692	345.08
668.103	298.27
668.514	302.95
668.925	300.61
669.336	317
669.747	295.93
670.158	347.42
670.569	284.23
670.979	312.32
671.39	319.34
671.801	281.89
672.211	293.59
672.622	284.23
673.032	237.42
673.443	270.19
673.853	265.5
674.263	382.53
674.674	307.63
675.084	363.81
675.494	328.7
675.904	298.27
676.314	300.61
676.724	286.57
677.134	272.53
677.544	302.95
677.953	314.66
678.363	368.49
678.773	370.83
679.182	321.68
679.592	335.72
680.001	370.83
680.411	302.95
680.82	319.34
681.23	302.95
681.639	328.7
682.048	263.16
682.457	317
682.866	274.87
683.275	232.74
683.684	321.68
684.093	345.08
684.502	249.12
684.911	331.04
685.32	277.21
685.728	288.91
686.137	370.83
686.546	328.7
686.954	312.32
687.363	281.89
687.771	314.66
688.179	249.12
688.588	317
688.996	312.32
689.404	359.13
689.812	267.85
690.22	333.38
690.628	347.42
691.036	331.04
691.444	242.1
691.852	319.34
692.26	333.38
692.667	251.46
693.075	298.27
693.483	319.34
693.89	237.42
694.298	253.8
694.705	309.97
695.112	324.02
695.52	298.27
695.927	279.55
696.334	298.27
696.741	251.46
697.148	295.93
697.555	277.21
697.962	333.38
698.369	277.21
698.776	263.16
699.183	295.93
699.59	263.16
699.996	239.76
700.403	300.61
700.81	246.78
701.216	267.85
701.623	274.87
702.029	333.38
702.435	335.72
702.842	298.27
703.248	324.02
703.654	312.32
704.06	267.85
704.466	324.02
704.872	277.21
705.278	281.89
705.684	340.4
706.09	328.7
706.496	319.34
706.901	291.25
707.307	359.13
707.712	298.27
708.118	321.68
708.523	298.27
708.929	317
709.334	279.55
709.74	300.61
710.145	368.49
710.55	291.25
710.955	324.02
711.36	300.61
711.765	335.72
712.17	274.87
712.575	270.19
712.98	778.08
713.385	284.23
713.789	267.85
714.194	242.1
714.599	324.02
715.003	354.44
715.408	256.14
715.812	272.53
716.217	300.61
716.621	314.66
717.025	300.61
717.429	335.72
717.833	321.68
718.238	204.65
718.642	277.21
719.046	317
719.449	277.21
719.853	354.44
720.257	309.97
720.661	314.66
721.065	333.38
721.468	314.66
721.872	314.66
722.275	265.5
722.679	263.16
723.082	305.29
723.485	314.66
723.889	300.61
724.292	260.82
724.695	279.55
725.098	342.74
725.501	286.57
725.904	331.04
726.307	324.02
726.71	295.93
727.113	333.38
727.516	291.25
727.918	326.36
728.321	263.16
728.724	272.53
729.126	324.02
729.529	340.4
729.931	319.34
730.333	354.44
730.736	256.14
731.138	314.66
731.54	214.01
731.942	293.59
732.344	286.57
732.746	321.68
733.148	394.23
733.55	338.06
733.952	345.08
734.354	244.44
734.756	317
735.157	349.76
735.559	284.23
735.96	314.66
736.362	242.1
736.763	328.7
737.165	326.36
737.566	312.32
737.967	291.25
738.368	309.97
738.77	349.76
739.171	291.25
739.572	274.87
739.973	401.26
740.374	274.87
740.774	312.32
741.175	265.5
741.576	260.82
741.977	300.61
742.377	326.36
742.778	326.36
743.178	265.5
743.579	305.29
743.979	279.55
744.379	272.53
744.78	309.97
745.18	317
745.58	291.25
745.98	309.97
746.38	298.27
746.78	274.87
747.18	295.93
747.58	256.14
747.98	265.5
748.38	356.79
748.779	307.63
749.179	319.34
749.578	312.32
749.978	270.19
750.377	279.55
750.777	291.25
751.176	260.82
751.575	284.23
751.975	263.16
752.374	281.89
752.773	284.23
753.172	272.53
753.571	288.91
753.97	302.95
754.369	293.59
754.768	284.23
755.166	302.95
755.565	281.89
755.964	335.72
756.362	270.19
756.761	293.59
757.159	307.63
757.558	298.27
757.956	347.42
758.354	375.51
758.753	302.95
759.151	267.85
759.549	272.53
759.947	340.4
760.345	288.91
760.743	256.14
761.141	314.66
761.539	228.06
761.936	340.4
762.334	286.57
762.732	256.14
763.129	272.53
763.527	298.27
763.924	293.59
764.322	328.7
764.719	298.27
765.117	298.27
765.514	263.16
765.911	246.78
766.308	284.23
766.705	328.7
767.102	370.83
767.499	345.08
767.896	326.36
768.293	321.68
768.69	284.23
769.086	291.25
769.483	225.72
769.88	295.93
770.276	270.19
770.673	321.68
771.069	340.4
771.466	359.13
771.862	347.42
772.258	281.89
772.654	340.4
773.05	349.76
773.447	284.23
773.843	298.27
774.239	284.23
774.634	317
775.03	373.17
775.426	256.14
775.822	333.38
776.218	279.55
776.613	277.21
777.009	295.93
777.404	260.82
777.8	380.19
778.195	263.16
778.59	267.85
778.986	277.21
779.381	309.97
779.776	314.66
780.171	298.27
780.566	309.97
780.961	272.53
781.356	321.68
781.751	309.97
782.146	253.8
782.54	242.1
782.935	302.95
783.33	317
783.724	321.68
784.119	331.04
784.513	300.61
784.908	312.32
785.302	295.93
785.696	246.78
786.09	256.14
786.485	349.76
786.879	326.36
787.273	225.72
787.667	321.68
788.061	302.95
788.454	312.32
788.848	300.61
789.242	312.32
789.636	288.91
790.029	270.19
790.423	312.32
790.816	302.95
791.21	298.27
791.603	253.8
791.997	295.93
792.39	317
792.783	302.95
793.176	333.38
793.569	302.95
793.962	352.1
794.355	328.7
794.748	284.23
795.141	352.1
795.534	345.08
795.927	281.89
796.319	312.32
796.712	326.36
797.105	281.89
797.497	309.97
797.89	237.42
798.282	326.36
798.674	314.66
799.067	302.95
799.459	270.19
799.851	293.59
800.243	319.34
800.635	295.93
801.027	274.87
801.419	272.53
801.811	302.95
802.203	307.63
802.594	333.38
802.986	298.27
803.378	293.59
803.769	284.23
804.161	342.74
804.552	309.97
804.944	324.02
805.335	293.59
805.726	321.68
806.118	338.06
806.509	326.36
806.9	314.66
807.291	335.72
807.682	293.59
808.073	237.42
808.464	333.38
808.855	291.25
809.245	263.16
809.636	293.59
810.027	284.23
810.417	342.74
810.808	326.36
811.198	317
811.589	317
811.979	260.82
812.369	267.85
812.759	309.97
813.15	281.89
813.54	286.57
813.93	314.66
814.32	319.34
814.71	307.63
815.1	345.08
815.489	267.85
815.879	286.57
816.269	307.63
816.658	295.93
817.048	347.42
817.438	300.61
817.827	309.97
818.216	305.29
818.606	291.25
818.995	307.63
819.384	279.55
819.773	251.46
820.163	328.7
820.552	321.68
820.941	309.97
821.33	295.93
821.718	267.85
822.107	274.87
822.496	335.72
822.885	302.95
823.273	225.72
823.662	291.25
824.05	298.27
824.439	253.8
824.827	302.95
825.216	368.49
825.604	288.91
825.992	295.93
826.38	345.08
826.768	326.36
827.156	321.68
827.544	324.02
827.932	347.42
828.32	361.47
828.708	267.85
829.096	335.72
829.483	258.48
829.871	317
830.259	333.38
830.646	300.61
831.034	263.16
831.421	324.02
831.808	347.42
832.196	286.57
832.583	288.91
832.97	274.87
833.357	253.8
833.744	307.63
834.131	258.48
834.518	239.76
834.905	288.91
835.292	237.42
835.678	324.02
836.065	338.06
836.452	342.74
836.838	342.74
837.225	312.32
837.611	333.38
837.998	274.87
838.384	235.08
838.77	309.97
839.157	270.19
839.543	277.21
839.929	302.95
840.315	256.14
840.701	298.27
841.087	300.61
841.473	291.25
841.858	298.27
842.244	331.04
842.63	305.29
843.015	270.19
843.401	387.21
843.787	295.93
844.172	256.14
844.557	352.1
844.943	295.93
845.328	321.68
845.713	263.16
846.098	246.78
846.483	305.29
846.868	300.61
847.253	345.08
847.638	279.55
848.023	326.36
848.408	291.25
848.793	307.63
849.177	300.61
849.562	328.7
849.947	300.61
850.331	312.32
850.715	319.34
851.1	298.27
851.484	359.13
851.868	321.68
852.253	293.59
852.637	223.37
853.021	295.93
853.405	302.95
853.789	368.49
854.173	279.55
854.557	305.29
854.94	295.93
855.324	265.5
855.708	363.81
856.091	263.16
856.475	277.21
856.858	239.76
857.242	302.95
857.625	305.29
858.009	377.85
858.392	333.38
858.775	375.51
859.158	284.23
859.541	324.02
859.924	265.5
860.307	338.06
860.69	307.63
861.073	232.74
861.456	370.83
861.838	331.04
862.221	288.91
862.604	347.42
862.986	277.21
863.369	333.38
863.751	345.08
864.133	356.79
864.516	279.55
864.898	267.85
865.28	263.16
865.662	272.53
866.044	284.23
866.426	352.1
866.808	314.66
867.19	317
867.572	246.78
867.954	293.59
868.336	300.61
868.717	263.16
869.099	272.53
869.48	307.63
869.862	288.91
870.243	307.63
870.625	293.59
871.006	298.27
871.387	361.47
871.768	366.15
872.149	295.93
872.53	270.19
872.911	291.25
873.292	300.61
873.673	302.95
874.054	277.21
874.435	267.85
874.815	251.46
875.196	242.1
875.577	317
875.957	286.57
876.338	352.1
876.718	370.83
877.098	263.16
877.479	309.97
877.859	333.38
878.239	286.57
878.619	277.21
878.999	307.63
879.379	312.32
879.759	263.16
880.139	338.06
880.519	319.34
880.898	272.53
881.278	340.4
881.658	307.63
882.037	307.63
882.417	363.81
882.796	317
883.176	288.91
883.555	300.61
883.934	281.89
884.313	338.06
884.693	309.97
885.072	300.61
885.451	335.72
885.83	279.55
886.209	293.59
886.587	260.82
886.966	298.27
887.345	319.34
887.724	295.93
888.102	307.63
888.481	314.66
888.859	281.89
889.238	321.68
889.616	281.89
889.994	230.4
890.373	305.29
890.751	270.19
891.129	274.87
891.507	293.59
891.885	370.83
892.263	230.4
892.641	230.4
893.019	321.68
893.396	331.04
893.774	267.85
894.152	314.66
894.529	300.61
894.907	340.4
895.284	331.04
895.662	309.97
896.039	319.34
896.416	265.5
896.794	307.63
897.171	307.63
897.548	326.36
897.925	335.72
898.302	251.46
898.679	258.48
899.056	324.02
899.433	277.21
899.809	295.93
900.186	291.25
900.563	305.29
900.939	305.29
901.316	230.4
901.692	314.66
902.069	256.14
902.445	305.29
902.821	281.89
903.197	286.57
903.574	342.74
903.95	293.59
904.326	281.89
904.702	302.95
905.078	277.21
905.454	352.1
905.829	363.81
906.205	293.59
906.581	331.04
906.956	309.97
907.332	263.16
907.707	394.23
908.083	349.76
908.458	354.44
908.833	265.5
909.209	265.5
909.584	345.08
909.959	302.95
910.334	352.1
910.709	302.95
911.084	279.55
911.459	286.57
911.834	274.87
912.209	291.25
912.583	279.55
912.958	314.66
913.333	305.29
913.707	223.37
914.082	298.27
914.456	286.57
914.83	342.74
915.205	305.29
915.579	319.34
915.953	328.7
916.327	206.99
916.701	277.21
917.075	291.25
917.449	256.14
917.823	293.59
918.197	293.59
918.571	380.19
918.944	279.55
919.318	401.26
919.692	256.14
920.065	312.32
920.438	324.02
920.812	309.97
921.185	305.29
921.558	345.08
921.932	321.68
922.305	328.7
922.678	237.42
923.051	263.16
923.424	281.89
923.797	382.53
924.17	345.08
924.542	354.44
924.915	326.36
925.288	228.06
925.661	206.99
926.033	277.21
926.406	309.97
926.778	314.66
927.15	307.63
927.523	288.91
927.895	333.38
928.267	307.63
928.639	263.16
929.011	235.08
929.383	314.66
929.755	347.42
930.127	272.53
930.499	279.55
930.871	232.74
931.242	309.97
931.614	340.4
931.986	251.46
932.357	324.02
932.729	267.85
933.1	256.14
933.471	363.81
933.843	202.31
934.214	300.61
934.585	291.25
934.956	298.27
935.327	263.16
935.698	221.03
936.069	293.59
936.44	321.68
936.811	324.02
937.182	298.27
937.552	281.89
937.923	312.32
938.293	312.32
938.664	300.61
939.034	277.21
939.405	321.68
939.775	335.72
940.145	321.68
940.516	363.81
940.886	277.21
941.256	326.36
941.626	225.72
941.996	331.04
942.366	272.53
942.735	295.93
943.105	263.16
943.475	265.5
943.845	326.36
944.214	298.27
944.584	291.25
944.953	293.59
945.323	288.91
945.692	319.34
946.061	295.93
946.43	279.55
946.8	228.06
947.169	295.93
947.538	302.95
947.907	286.57
948.276	267.85
948.645	363.81
949.013	300.61
949.382	260.82
949.751	267.85
950.119	324.02
950.488	286.57
950.857	345.08
951.225	272.53
951.593	291.25
951.962	338.06
952.33	370.83
952.698	281.89
953.066	270.19
953.434	274.87
953.802	284.23
954.17	314.66
954.538	321.68
954.906	300.61
955.274	284.23
955.642	298.27
956.009	239.76
956.377	246.78
956.744	317
957.112	260.82
957.479	328.7
957.847	338.06
958.214	260.82
958.581	244.44
958.948	319.34
959.315	288.91
959.683	232.74
960.05	305.29
960.416	326.36
960.783	228.06
961.15	286.57
961.517	230.4
961.884	281.89
962.25	272.53
962.617	265.5
962.983	291.25
963.35	277.21
963.716	242.1
964.082	279.55
964.449	359.13
964.815	331.04
965.181	309.97
965.547	300.61
965.913	333.38
966.279	274.87
966.645	256.14
967.011	293.59
967.377	256.14
967.742	314.66
968.108	326.36
968.474	368.49
968.839	288.91
969.205	312.32
969.57	253.8
969.935	309.97
970.301	326.36
970.666	258.48
971.031	312.32
971.396	270.19
971.761	288.91
972.126	277.21
972.491	258.48
972.856	242.1
973.221	361.47
973.586	253.8
973.95	277.21
974.315	300.61
974.679	300.61
975.044	352.1
975.408	340.4
975.773	324.02
976.137	307.63
976.501	293.59
976.866	235.08
977.23	260.82
977.594	291.25
977.958	314.66
978.322	307.63
978.686	317
979.049	263.16
979.413	340.4
979.777	291.25
980.141	277.21
980.504	253.8
980.868	274.87
981.231	331.04
981.595	260.82
981.958	328.7
982.321	335.72
982.684	256.14
983.048	274.87
983.411	300.61
983.774	232.74
984.137	309.97
984.5	340.4
984.862	298.27
985.225	265.5
985.588	338.06
985.951	307.63
986.313	284.23
986.676	249.12
987.038	270.19
987.401	335.72
987.763	333.38
988.125	335.72
988.488	281.89
988.85	300.61
989.212	239.76
989.574	314.66
989.936	272.53
990.298	298.27
990.66	270.19
991.022	319.34
991.383	286.57
991.745	298.27
992.107	272.53
992.468	300.61
992.83	340.4
993.191	394.23
993.553	281.89
993.914	321.68
994.275	293.59
994.637	288.91
994.998	302.95
995.359	288.91
995.72	312.32
996.081	368.49
996.442	295.93
996.803	251.46
997.163	300.61
997.524	260.82
997.885	359.13
998.245	356.79
998.606	319.34
998.966	321.68
999.327	300.61
999.687	265.5
1000.047	340.4
1000.408	317
1000.768	242.1
1001.128	218.69
1001.488	274.87
1001.848	293.59
1002.208	272.53
1002.568	267.85
1002.927	246.78
1003.287	288.91
1003.647	307.63
1004.007	293.59
1004.366	263.16
1004.726	270.19
1005.085	272.53
1005.444	272.53
1005.804	317
1006.163	265.5
1006.522	267.85
1006.881	312.32
1007.24	246.78
1007.599	291.25
1007.958	321.68
1008.317	352.1
1008.676	270.19
1009.035	302.95
1009.393	307.63
1009.752	317
1010.111	281.89
1010.469	267.85
1010.828	246.78
1011.186	277.21
1011.544	309.97
1011.903	274.87
1012.261	286.57
1012.619	274.87
1012.977	300.61
1013.335	274.87
1013.693	256.14
1014.051	309.97
1014.409	317
1014.767	326.36
1015.124	302.95
1015.482	307.63
1015.84	302.95
1016.197	286.57
1016.555	286.57
1016.912	359.13
1017.269	291.25
1017.627	302.95
1017.984	300.61
1018.341	309.97
1018.698	279.55
1019.055	279.55
1019.412	326.36
1019.769	246.78
1020.126	349.76
1020.483	300.61
1020.84	272.53
1021.196	305.29
1021.553	359.13
1021.909	312.32
1022.266	298.27
1022.622	288.91
1022.979	347.42
1023.335	274.87
1023.691	279.55
1024.047	230.4
1024.404	281.89
1024.76	265.5
1025.116	270.19
1025.472	352.1
1025.827	272.53
1026.183	284.23
1026.539	307.63
1026.895	267.85
1027.25	267.85
1027.606	345.08
1027.961	279.55
1028.317	267.85
1028.672	281.89
1029.028	286.57
1029.383	300.61
1029.738	272.53
1030.093	272.53
1030.448	317
1030.803	272.53
1031.158	307.63
1031.513	284.23
1031.868	326.36
1032.223	319.34
1032.577	270.19
1032.932	338.06
1033.287	326.36
1033.641	375.51
1033.996	185.93
1034.35	347.42
1034.704	279.55
1035.059	295.93
1035.413	331.04
1035.767	331.04
1036.121	331.04
