Data from Al_FLMS009871__761__15-18-15-822.txt Node

Date: Fri Mar 08 15:18:15 CST 2024
User: pe5414po
Spectrometer: FLMS00987
Trigger mode: 0
Integration Time (sec): 1.000000E-1
Scans to average: 1
Electric dark correction enabled: true
Nonlinearity correction enabled: false
Boxcar width: 0
XAxis mode: Wavelengths
Number of Pixels in Spectrum: 2048
>>>>>Begin Spectral Data<<<<<
188.938	-58.37
189.409	-58.37
189.879	-58.37
190.349	-102.84
190.819	-112.2
191.29	-140.29
191.76	-102.84
192.23	-123.9
192.7	-102.84
193.17	-46.66
193.64	-84.11
194.109	-65.39
194.579	-4.53
195.049	56.32
195.519	28.23
195.988	51.64
196.458	75.04
196.927	86.75
197.397	103.13
197.866	107.81
198.336	161.64
198.805	201.43
199.274	199.09
199.744	131.22
200.213	264.63
200.682	241.22
201.151	231.86
201.62	245.9
202.089	271.65
202.558	250.58
203.027	196.75
203.495	187.39
203.964	306.76
204.433	271.65
204.902	248.24
205.37	281.01
205.839	271.65
206.307	224.84
206.776	365.27
207.244	330.16
207.712	304.42
208.181	285.69
208.649	281.01
209.117	313.78
209.585	316.12
210.053	292.71
210.521	269.31
210.989	313.78
211.457	259.95
211.925	346.55
212.393	259.95
212.861	299.73
213.328	292.71
213.796	281.01
214.264	281.01
214.731	271.65
215.199	304.42
215.666	362.93
216.133	299.73
216.601	276.33
217.068	281.01
217.535	264.63
218.003	295.05
218.47	295.05
218.937	311.44
219.404	327.82
219.871	273.99
220.338	302.08
220.805	236.54
221.271	273.99
221.738	257.61
222.205	259.95
222.671	255.26
223.138	278.67
223.605	236.54
224.071	241.22
224.538	243.56
225.004	217.82
225.47	220.16
225.937	334.84
226.403	337.18
226.869	318.46
227.335	250.58
227.801	330.16
228.267	271.65
228.733	276.33
229.199	252.92
229.665	295.05
230.131	306.76
230.597	309.1
231.062	273.99
231.528	224.84
231.994	306.76
232.459	285.69
232.925	234.2
233.39	292.71
233.856	304.42
234.321	285.69
234.786	241.22
235.252	271.65
235.717	302.08
236.182	259.95
236.647	283.35
237.112	341.86
237.577	271.65
238.042	348.89
238.507	337.18
238.972	264.63
239.436	283.35
239.901	341.86
240.366	292.71
240.83	309.1
241.295	297.39
241.76	297.39
242.224	278.67
242.688	203.77
243.153	327.82
243.617	266.97
244.081	346.55
244.545	238.88
245.01	379.31
245.474	285.69
245.938	278.67
246.402	393.36
246.866	348.89
247.33	259.95
247.793	316.12
248.257	234.2
248.721	285.69
249.185	302.08
249.648	281.01
250.112	332.5
250.575	299.73
251.039	273.99
251.502	236.54
251.965	276.33
252.429	325.48
252.892	309.1
253.355	344.21
253.818	302.08
254.281	334.84
254.744	332.5
255.207	299.73
255.67	285.69
256.133	358.25
256.596	266.97
257.059	222.5
257.522	252.92
257.984	222.5
258.447	311.44
258.909	283.35
259.372	266.97
259.834	337.18
260.297	318.46
260.759	367.61
261.221	292.71
261.684	278.67
262.146	323.14
262.608	257.61
263.07	292.71
263.532	264.63
263.994	295.05
264.456	381.65
264.918	348.89
265.38	292.71
265.842	292.71
266.303	259.95
266.765	304.42
267.227	283.35
267.688	283.35
268.15	320.8
268.611	295.05
269.072	245.9
269.534	208.45
269.995	311.44
270.456	339.52
270.918	269.31
271.379	311.44
271.84	288.03
272.301	241.22
272.762	297.39
273.223	266.97
273.684	344.21
274.144	309.1
274.605	238.88
275.066	271.65
275.527	362.93
275.987	276.33
276.448	266.97
276.908	288.03
277.369	281.01
277.829	351.23
278.289	334.84
278.75	316.12
279.21	281.01
279.67	252.92
280.13	316.12
280.59	262.29
281.05	276.33
281.51	327.82
281.97	295.05
282.43	234.2
282.89	323.14
283.35	339.52
283.809	243.56
284.269	297.39
284.729	318.46
285.188	297.39
285.648	316.12
286.107	299.73
286.567	276.33
287.026	327.82
287.485	304.42
287.944	281.01
288.404	234.2
288.863	316.12
289.322	304.42
289.781	297.39
290.24	346.55
290.699	299.73
291.158	285.69
291.616	250.58
292.075	257.61
292.534	257.61
292.992	360.59
293.451	278.67
293.91	327.82
294.368	386.33
294.827	358.25
295.285	259.95
295.743	355.91
296.202	299.73
296.66	330.16
297.118	316.12
297.576	276.33
298.034	332.5
298.492	309.1
298.95	330.16
299.408	304.42
299.866	288.03
300.324	269.31
300.781	369.95
301.239	245.9
301.697	316.12
302.154	379.31
302.612	290.37
303.069	292.71
303.527	302.08
303.984	332.5
304.441	334.84
304.899	313.78
305.356	278.67
305.813	320.8
306.27	367.61
306.727	323.14
307.184	297.39
307.641	276.33
308.098	306.76
308.555	334.84
309.012	288.03
309.468	318.46
309.925	316.12
310.382	285.69
310.838	337.18
311.295	332.5
311.751	299.73
312.208	327.82
312.664	283.35
313.12	257.61
313.577	250.58
314.033	295.05
314.489	304.42
314.945	325.48
315.401	311.44
315.857	341.86
316.313	288.03
316.769	264.63
317.225	341.86
317.681	288.03
318.136	320.8
318.592	337.18
319.048	302.08
319.503	344.21
319.959	318.46
320.414	358.25
320.869	346.55
321.325	311.44
321.78	351.23
322.235	346.55
322.691	297.39
323.146	295.05
323.601	306.76
324.056	325.48
324.511	290.37
324.966	309.1
325.421	334.84
325.875	309.1
326.33	271.65
326.785	327.82
327.24	309.1
327.694	290.37
328.149	271.65
328.603	351.23
329.058	323.14
329.512	351.23
329.966	318.46
330.421	318.46
330.875	278.67
331.329	358.25
331.783	288.03
332.237	365.27
332.691	304.42
333.145	318.46
333.599	334.84
334.053	290.37
334.507	323.14
334.96	334.84
335.414	309.1
335.868	374.63
336.321	281.01
336.775	372.29
337.228	327.82
337.682	327.82
338.135	290.37
338.588	285.69
339.042	323.14
339.495	341.86
339.948	341.86
340.401	369.95
340.854	330.16
341.307	273.99
341.76	288.03
342.213	316.12
342.666	306.76
343.119	316.12
343.571	325.48
344.024	323.14
344.477	332.5
344.929	262.29
345.382	299.73
345.834	360.59
346.287	372.29
346.739	381.65
347.191	355.91
347.644	318.46
348.096	241.22
348.548	295.05
349	257.61
349.452	323.14
349.904	299.73
350.356	281.01
350.808	288.03
351.26	334.84
351.711	255.26
352.163	323.14
352.615	285.69
353.066	402.72
353.518	355.91
353.969	302.08
354.421	311.44
354.872	288.03
355.324	341.86
355.775	309.1
356.226	344.21
356.677	269.31
357.128	323.14
357.579	344.21
358.03	252.92
358.481	323.14
358.932	295.05
359.383	320.8
359.834	304.42
360.285	332.5
360.735	311.44
361.186	325.48
361.637	386.33
362.087	367.61
362.538	339.52
362.988	339.52
363.438	332.5
363.889	316.12
364.339	348.89
364.789	259.95
365.239	381.65
365.689	283.35
366.139	365.27
366.589	283.35
367.039	295.05
367.489	365.27
367.939	362.93
368.389	299.73
368.839	320.8
369.288	302.08
369.738	337.18
370.187	337.18
370.637	346.55
371.086	311.44
371.536	306.76
371.985	318.46
372.434	276.33
372.884	309.1
373.333	409.74
373.782	388.68
374.231	365.27
374.68	320.8
375.129	337.18
375.578	318.46
376.027	334.84
376.475	238.88
376.924	316.12
377.373	374.63
377.822	360.59
378.27	351.23
378.719	311.44
379.167	276.33
379.616	309.1
380.064	273.99
380.512	320.8
380.961	302.08
381.409	288.03
381.857	290.37
382.305	362.93
382.753	288.03
383.201	278.67
383.649	299.73
384.097	318.46
384.545	295.05
384.992	276.33
385.44	383.99
385.888	341.86
386.335	323.14
386.783	306.76
387.231	400.38
387.678	327.82
388.125	311.44
388.573	376.97
389.02	327.82
389.467	304.42
389.914	374.63
390.362	362.93
390.809	302.08
391.256	313.78
391.703	386.33
392.15	341.86
392.596	271.65
393.043	316.12
393.49	325.48
393.937	325.48
394.383	320.8
394.83	313.78
395.276	318.46
395.723	309.1
396.169	337.18
396.616	297.39
397.062	302.08
397.508	332.5
397.954	313.78
398.401	369.95
398.847	281.01
399.293	344.21
399.739	358.25
400.185	297.39
400.631	241.22
401.076	360.59
401.522	285.69
401.968	362.93
402.414	379.31
402.859	248.24
403.305	330.16
403.75	259.95
404.196	351.23
404.641	348.89
405.086	297.39
405.532	283.35
405.977	266.97
406.422	381.65
406.867	302.08
407.312	332.5
407.757	339.52
408.202	306.76
408.647	313.78
409.092	311.44
409.537	316.12
409.982	297.39
410.426	318.46
410.871	372.29
411.316	330.16
411.76	346.55
412.205	290.37
412.649	290.37
413.093	313.78
413.538	348.89
413.982	327.82
414.426	299.73
414.87	290.37
415.314	288.03
415.758	269.31
416.202	337.18
416.646	365.27
417.09	346.55
417.534	257.61
417.978	323.14
418.421	346.55
418.865	271.65
419.309	299.73
419.752	320.8
420.196	264.63
420.639	318.46
421.083	351.23
421.526	299.73
421.969	325.48
422.412	330.16
422.856	285.69
423.299	302.08
423.742	337.18
424.185	295.05
424.628	358.25
425.071	278.67
425.513	334.84
425.956	327.82
426.399	344.21
426.842	409.74
427.284	369.95
427.727	332.5
428.169	309.1
428.612	304.42
429.054	313.78
429.497	311.44
429.939	255.26
430.381	365.27
430.823	316.12
431.265	320.8
431.707	306.76
432.149	325.48
432.591	295.05
433.033	332.5
433.475	302.08
433.917	327.82
434.359	327.82
434.8	419.1
435.242	292.71
435.684	330.16
436.125	365.27
436.567	290.37
437.008	360.59
437.449	376.97
437.891	334.84
438.332	430.8
438.773	383.99
439.214	292.71
439.656	269.31
440.097	360.59
440.538	313.78
440.978	337.18
441.419	334.84
441.86	346.55
442.301	278.67
442.742	320.8
443.182	351.23
443.623	285.69
444.063	341.86
444.504	341.86
444.944	273.99
445.385	358.25
445.825	325.48
446.265	311.44
446.706	316.12
447.146	320.8
447.586	325.48
448.026	351.23
448.466	302.08
448.906	360.59
449.346	316.12
449.786	295.05
450.225	334.84
450.665	278.67
451.105	292.71
451.544	360.59
451.984	344.21
452.424	313.78
452.863	341.86
453.302	292.71
453.742	259.95
454.181	299.73
454.62	372.29
455.059	362.93
455.499	339.52
455.938	299.73
456.377	360.59
456.816	295.05
457.254	379.31
457.693	405.06
458.132	337.18
458.571	264.63
459.01	311.44
459.448	306.76
459.887	302.08
460.325	337.18
460.764	344.21
461.202	311.44
461.641	327.82
462.079	306.76
462.517	243.56
462.955	388.68
463.393	376.97
463.832	332.5
464.27	323.14
464.708	337.18
465.145	283.35
465.583	381.65
466.021	330.16
466.459	278.67
466.897	341.86
467.334	316.12
467.772	304.42
468.209	297.39
468.647	318.46
469.084	306.76
469.522	281.01
469.959	330.16
470.396	290.37
470.833	346.55
471.271	318.46
471.708	299.73
472.145	367.61
472.582	351.23
473.019	313.78
473.456	295.05
473.892	346.55
474.329	302.08
474.766	344.21
475.202	292.71
475.639	339.52
476.076	323.14
476.512	348.89
476.949	379.31
477.385	367.61
477.821	358.25
478.258	288.03
478.694	376.97
479.13	306.76
479.566	330.16
480.002	372.29
480.438	299.73
480.874	273.99
481.31	309.1
481.746	339.52
482.181	295.05
482.617	313.78
483.053	344.21
483.488	341.86
483.924	259.95
484.36	311.44
484.795	348.89
485.23	355.91
485.666	367.61
486.101	299.73
486.536	306.76
486.971	306.76
487.407	299.73
487.842	348.89
488.277	318.46
488.712	295.05
489.146	295.05
489.581	266.97
490.016	288.03
490.451	299.73
490.885	306.76
491.32	358.25
491.755	362.93
492.189	313.78
492.624	341.86
493.058	383.99
493.492	283.35
493.927	332.5
494.361	259.95
494.795	259.95
495.229	346.55
495.663	283.35
496.097	288.03
496.531	341.86
496.965	374.63
497.399	332.5
497.833	334.84
498.266	379.31
498.7	400.38
499.134	351.23
499.567	283.35
500.001	407.4
500.434	367.61
500.868	351.23
501.301	306.76
501.734	320.8
502.168	306.76
502.601	353.57
503.034	334.84
503.467	346.55
503.9	325.48
504.333	351.23
504.766	360.59
505.199	295.05
505.632	365.27
506.064	304.42
506.497	367.61
506.93	330.16
507.362	264.63
507.795	341.86
508.227	292.71
508.66	330.16
509.092	288.03
509.524	311.44
509.956	325.48
510.389	306.76
510.821	273.99
511.253	309.1
511.685	348.89
512.117	327.82
512.549	257.61
512.981	334.84
513.412	346.55
513.844	339.52
514.276	332.5
514.707	348.89
515.139	379.31
515.571	346.55
516.002	316.12
516.433	386.33
516.865	316.12
517.296	362.93
517.727	337.18
518.159	299.73
518.59	302.08
519.021	365.27
519.452	341.86
519.883	337.18
520.314	290.37
520.744	334.84
521.175	351.23
521.606	302.08
522.037	341.86
522.467	323.14
522.898	327.82
523.328	306.76
523.759	348.89
524.189	292.71
524.62	297.39
525.05	266.97
525.48	332.5
525.91	334.84
526.341	334.84
526.771	355.91
527.201	358.25
527.631	325.48
528.061	304.42
528.49	355.91
528.92	351.23
529.35	302.08
529.78	393.36
530.209	330.16
530.639	332.5
531.068	330.16
531.498	358.25
531.927	355.91
532.357	320.8
532.786	320.8
533.215	362.93
533.644	348.89
534.074	262.29
534.503	344.21
534.932	269.31
535.361	327.82
535.79	339.52
536.218	295.05
536.647	313.78
537.076	252.92
537.505	341.86
537.933	330.16
538.362	367.61
538.79	259.95
539.219	337.18
539.647	344.21
540.076	353.57
540.504	292.71
540.932	346.55
541.36	332.5
541.788	281.01
542.217	346.55
542.645	325.48
543.073	262.29
543.5	358.25
543.928	290.37
544.356	295.05
544.784	318.46
545.211	454.21
545.639	311.44
546.067	360.59
546.494	358.25
546.922	281.01
547.349	306.76
547.776	273.99
548.204	273.99
548.631	283.35
549.058	276.33
549.485	337.18
549.912	302.08
550.339	306.76
550.766	386.33
551.193	292.71
551.62	346.55
552.047	302.08
552.474	337.18
552.9	311.44
553.327	344.21
553.754	285.69
554.18	348.89
554.607	332.5
555.033	353.57
555.459	332.5
555.886	381.65
556.312	292.71
556.738	302.08
557.164	365.27
557.59	311.44
558.016	313.78
558.442	316.12
558.868	311.44
559.294	374.63
559.72	320.8
560.145	311.44
560.571	318.46
560.997	250.58
561.422	318.46
561.848	292.71
562.273	339.52
562.699	341.86
563.124	295.05
563.549	327.82
563.974	264.63
564.4	302.08
564.825	372.29
565.25	255.26
565.675	313.78
566.1	278.67
566.525	372.29
566.95	346.55
567.374	288.03
567.799	344.21
568.224	309.1
568.648	257.61
569.073	323.14
569.497	327.82
569.922	309.1
570.346	295.05
570.771	339.52
571.195	376.97
571.619	351.23
572.043	388.68
572.467	344.21
572.891	348.89
573.315	306.76
573.739	334.84
574.163	372.29
574.587	290.37
575.011	334.84
575.435	281.01
575.858	360.59
576.282	360.59
576.705	318.46
577.129	374.63
577.552	337.18
577.976	302.08
578.399	339.52
578.822	234.2
579.245	341.86
579.669	365.27
580.092	386.33
580.515	348.89
580.938	383.99
581.361	334.84
581.784	323.14
582.206	288.03
582.629	358.25
583.052	281.01
583.474	341.86
583.897	316.12
584.32	374.63
584.742	372.29
585.165	304.42
585.587	367.61
586.009	318.46
586.431	313.78
586.854	266.97
587.276	395.7
587.698	367.61
588.12	327.82
588.542	316.12
588.964	320.8
589.386	320.8
589.807	269.31
590.229	309.1
590.651	295.05
591.073	334.84
591.494	353.57
591.916	295.05
592.337	351.23
592.759	292.71
593.18	388.68
593.601	402.72
594.022	311.44
594.444	273.99
594.865	339.52
595.286	344.21
595.707	281.01
596.128	334.84
596.549	311.44
596.97	297.39
597.39	313.78
597.811	323.14
598.232	299.73
598.652	283.35
599.073	346.55
599.494	330.16
599.914	316.12
600.334	299.73
600.755	259.95
601.175	365.27
601.595	292.71
602.015	341.86
602.436	327.82
602.856	379.31
603.276	355.91
603.696	278.67
604.115	405.06
604.535	313.78
604.955	376.97
605.375	369.95
605.794	332.5
606.214	362.93
606.634	339.52
607.053	353.57
607.473	306.76
607.892	278.67
608.311	304.42
608.731	292.71
609.15	304.42
609.569	327.82
609.988	295.05
610.407	362.93
610.826	358.25
611.245	367.61
611.664	355.91
612.083	297.39
612.501	332.5
612.92	306.76
613.339	316.12
613.757	257.61
614.176	341.86
614.594	297.39
615.013	327.82
615.431	332.5
615.85	372.29
616.268	330.16
616.686	327.82
617.104	369.95
617.522	330.16
617.94	313.78
618.358	339.52
618.776	285.69
619.194	222.5
619.612	339.52
620.03	348.89
620.447	325.48
620.865	362.93
621.282	379.31
621.7	306.76
622.117	316.12
622.535	355.91
622.952	337.18
623.369	320.8
623.787	299.73
624.204	351.23
624.621	309.1
625.038	290.37
625.455	358.25
625.872	295.05
626.289	367.61
626.706	318.46
627.123	351.23
627.539	259.95
627.956	344.21
628.373	292.71
628.789	299.73
629.206	419.1
629.622	337.18
630.038	313.78
630.455	297.39
630.871	262.29
631.287	337.18
631.703	285.69
632.12	353.57
632.536	341.86
632.952	327.82
633.368	313.78
633.783	348.89
634.199	402.72
634.615	372.29
635.031	351.23
635.446	320.8
635.862	330.16
636.277	299.73
636.693	295.05
637.108	325.48
637.524	306.76
637.939	362.93
638.354	355.91
638.77	320.8
639.185	257.61
639.6	309.1
640.015	290.37
640.43	313.78
640.845	320.8
641.259	353.57
641.674	332.5
642.089	351.23
642.504	348.89
642.918	325.48
643.333	327.82
643.747	330.16
644.162	362.93
644.576	358.25
644.991	416.76
645.405	285.69
645.819	334.84
646.233	295.05
646.647	334.84
647.061	330.16
647.475	372.29
647.889	266.97
648.303	330.16
648.717	318.46
649.131	283.35
649.545	318.46
649.958	348.89
650.372	325.48
650.785	290.37
651.199	372.29
651.612	313.78
652.026	358.25
652.439	351.23
652.852	299.73
653.266	252.92
653.679	264.63
654.092	288.03
654.505	320.8
654.918	313.78
655.331	290.37
655.744	283.35
656.156	313.78
656.569	283.35
656.982	311.44
657.394	318.46
657.807	306.76
658.22	372.29
658.632	302.08
659.044	339.52
659.457	313.78
659.869	337.18
660.281	351.23
660.693	330.16
661.106	292.71
661.518	320.8
661.93	360.59
662.342	358.25
662.754	316.12
663.165	306.76
663.577	292.71
663.989	306.76
664.401	306.76
664.812	346.55
665.224	337.18
665.635	348.89
666.047	271.65
666.458	332.5
666.869	369.95
667.281	360.59
667.692	283.35
668.103	360.59
668.514	264.63
668.925	367.61
669.336	316.12
669.747	259.95
670.158	264.63
670.569	278.67
670.979	306.76
671.39	337.18
671.801	351.23
672.211	292.71
672.622	299.73
673.032	252.92
673.443	281.01
673.853	311.44
674.263	316.12
674.674	360.59
675.084	374.63
675.494	295.05
675.904	297.39
676.314	341.86
676.724	362.93
677.134	365.27
677.544	344.21
677.953	299.73
678.363	339.52
678.773	369.95
679.182	412.08
679.592	309.1
680.001	243.56
680.411	339.52
680.82	339.52
681.23	360.59
681.639	383.99
682.048	295.05
682.457	339.52
682.866	376.97
683.275	325.48
683.684	351.23
684.093	273.99
684.502	255.26
684.911	273.99
685.32	360.59
685.728	283.35
686.137	344.21
686.546	320.8
686.954	344.21
687.363	330.16
687.771	245.9
688.179	318.46
688.588	348.89
688.996	304.42
689.404	330.16
689.812	339.52
690.22	369.95
690.628	245.9
691.036	344.21
691.444	259.95
691.852	311.44
692.26	320.8
692.667	353.57
693.075	318.46
693.483	351.23
693.89	306.76
694.298	325.48
694.705	252.92
695.112	379.31
695.52	344.21
695.927	341.86
696.334	304.42
696.741	365.27
697.148	344.21
697.555	327.82
697.962	316.12
698.369	273.99
698.776	271.65
699.183	299.73
699.59	290.37
699.996	266.97
700.403	348.89
700.81	383.99
701.216	426.12
701.623	318.46
702.029	330.16
702.435	334.84
702.842	299.73
703.248	316.12
703.654	276.33
704.06	311.44
704.466	337.18
704.872	332.5
705.278	355.91
705.684	334.84
706.09	292.71
706.496	285.69
706.901	288.03
707.307	388.68
707.712	271.65
708.118	344.21
708.523	311.44
708.929	341.86
709.334	292.71
709.74	374.63
710.145	346.55
710.55	339.52
710.955	367.61
711.36	348.89
711.765	355.91
712.17	332.5
712.575	386.33
712.98	788.91
713.385	372.29
713.789	346.55
714.194	273.99
714.599	334.84
715.003	278.67
715.408	295.05
715.812	365.27
716.217	250.58
716.621	276.33
717.025	383.99
717.429	325.48
717.833	341.86
718.238	304.42
718.642	414.42
719.046	313.78
719.449	374.63
719.853	330.16
720.257	348.89
720.661	330.16
721.065	316.12
721.468	327.82
721.872	367.61
722.275	302.08
722.679	348.89
723.082	346.55
723.485	309.1
723.889	372.29
724.292	306.76
724.695	334.84
725.098	318.46
725.501	271.65
725.904	290.37
726.307	318.46
726.71	290.37
727.113	304.42
727.516	257.61
727.918	374.63
728.321	360.59
728.724	365.27
729.126	269.31
729.529	395.7
729.931	341.86
730.333	311.44
730.736	309.1
731.138	323.14
731.54	245.9
731.942	358.25
732.344	311.44
732.746	295.05
733.148	278.67
733.55	362.93
733.952	325.48
734.354	306.76
734.756	325.48
735.157	290.37
735.559	355.91
735.96	360.59
736.362	266.97
736.763	281.01
737.165	355.91
737.566	285.69
737.967	213.14
738.368	316.12
738.77	388.68
739.171	351.23
739.572	367.61
739.973	383.99
740.374	327.82
740.774	339.52
741.175	325.48
741.576	372.29
741.977	295.05
742.377	323.14
742.778	273.99
743.178	346.55
743.579	309.1
743.979	372.29
744.379	334.84
744.78	273.99
745.18	313.78
745.58	309.1
745.98	276.33
746.38	262.29
746.78	325.48
747.18	297.39
747.58	271.65
747.98	348.89
748.38	323.14
748.779	313.78
749.179	285.69
749.578	346.55
749.978	316.12
750.377	259.95
750.777	325.48
751.176	311.44
751.575	351.23
751.975	295.05
752.374	323.14
752.773	360.59
753.172	372.29
753.571	302.08
753.97	302.08
754.369	353.57
754.768	334.84
755.166	369.95
755.565	353.57
755.964	283.35
756.362	365.27
756.761	369.95
757.159	348.89
757.558	285.69
757.956	400.38
758.354	313.78
758.753	273.99
759.151	302.08
759.549	259.95
759.947	351.23
760.345	348.89
760.743	320.8
761.141	325.48
761.539	337.18
761.936	376.97
762.334	316.12
762.732	334.84
763.129	327.82
763.527	304.42
763.924	334.84
764.322	299.73
764.719	304.42
765.117	341.86
765.514	320.8
765.911	355.91
766.308	379.31
766.705	311.44
767.102	316.12
767.499	353.57
767.896	257.61
768.293	255.26
768.69	372.29
769.086	318.46
769.483	341.86
769.88	339.52
770.276	264.63
770.673	374.63
771.069	318.46
771.466	297.39
771.862	348.89
772.258	302.08
772.654	290.37
773.05	318.46
773.447	290.37
773.843	348.89
774.239	395.7
774.634	295.05
775.03	337.18
775.426	327.82
775.822	316.12
776.218	358.25
776.613	344.21
777.009	369.95
777.404	299.73
777.8	351.23
778.195	306.76
778.59	313.78
778.986	348.89
779.381	266.97
779.776	292.71
780.171	304.42
780.566	320.8
780.961	348.89
781.356	362.93
781.751	292.71
782.146	320.8
782.54	376.97
782.935	339.52
783.33	313.78
783.724	320.8
784.119	320.8
784.513	311.44
784.908	339.52
785.302	334.84
785.696	339.52
786.09	367.61
786.485	348.89
786.879	264.63
787.273	313.78
787.667	353.57
788.061	302.08
788.454	278.67
788.848	372.29
789.242	316.12
789.636	281.01
790.029	348.89
790.423	365.27
790.816	309.1
791.21	313.78
791.603	281.01
791.997	306.76
792.39	337.18
792.783	299.73
793.176	334.84
793.569	318.46
793.962	313.78
794.355	327.82
794.748	337.18
795.141	313.78
795.534	355.91
795.927	325.48
796.319	266.97
796.712	355.91
797.105	292.71
797.497	346.55
797.89	323.14
798.282	325.48
798.674	379.31
799.067	353.57
799.459	327.82
799.851	334.84
800.243	337.18
800.635	344.21
801.027	332.5
801.419	365.27
801.811	262.29
802.203	299.73
802.594	295.05
802.986	325.48
803.378	337.18
803.769	355.91
804.161	299.73
804.552	306.76
804.944	299.73
805.335	327.82
805.726	360.59
806.118	341.86
806.509	332.5
806.9	323.14
807.291	257.61
807.682	348.89
808.073	306.76
808.464	302.08
808.855	288.03
809.245	325.48
809.636	339.52
810.027	393.36
810.417	278.67
810.808	360.59
811.198	323.14
811.589	344.21
811.979	355.91
812.369	369.95
812.759	269.31
813.15	297.39
813.54	309.1
813.93	262.29
814.32	302.08
814.71	313.78
815.1	369.95
815.489	309.1
815.879	355.91
816.269	381.65
816.658	339.52
817.048	306.76
817.438	332.5
817.827	290.37
818.216	290.37
818.606	288.03
818.995	309.1
819.384	353.57
819.773	276.33
820.163	374.63
820.552	295.05
820.941	337.18
821.33	346.55
821.718	288.03
822.107	332.5
822.496	372.29
822.885	332.5
823.273	313.78
823.662	313.78
824.05	292.71
824.439	313.78
824.827	330.16
825.216	320.8
825.604	269.31
825.992	330.16
826.38	302.08
826.768	259.95
827.156	302.08
827.544	412.08
827.932	325.48
828.32	376.97
828.708	252.92
829.096	339.52
829.483	276.33
829.871	262.29
830.259	358.25
830.646	360.59
831.034	344.21
831.421	348.89
831.808	243.56
832.196	330.16
832.583	278.67
832.97	355.91
833.357	325.48
833.744	337.18
834.131	367.61
834.518	290.37
834.905	383.99
835.292	337.18
835.678	365.27
836.065	330.16
836.452	346.55
836.838	299.73
837.225	383.99
837.611	360.59
837.998	297.39
838.384	252.92
838.77	337.18
839.157	318.46
839.543	372.29
839.929	402.72
840.315	285.69
840.701	313.78
841.087	360.59
841.473	365.27
841.858	304.42
842.244	250.58
842.63	330.16
843.015	316.12
843.401	412.08
843.787	283.35
844.172	318.46
844.557	339.52
844.943	346.55
845.328	262.29
845.713	292.71
846.098	266.97
846.483	344.21
846.868	234.2
847.253	379.31
847.638	316.12
848.023	391.02
848.408	327.82
848.793	313.78
849.177	311.44
849.562	323.14
849.947	285.69
850.331	393.36
850.715	348.89
851.1	320.8
851.484	302.08
851.868	316.12
852.253	327.82
852.637	316.12
853.021	283.35
853.405	255.26
853.789	402.72
854.173	318.46
854.557	295.05
854.94	325.48
855.324	367.61
855.708	374.63
856.091	383.99
856.475	325.48
856.858	388.68
857.242	348.89
857.625	332.5
858.009	369.95
858.392	290.37
858.775	311.44
859.158	353.57
859.541	381.65
859.924	330.16
860.307	323.14
860.69	264.63
861.073	360.59
861.456	295.05
861.838	292.71
862.221	325.48
862.604	348.89
862.986	316.12
863.369	306.76
863.751	348.89
864.133	304.42
864.516	344.21
864.898	323.14
865.28	295.05
865.662	320.8
866.044	339.52
866.426	299.73
866.808	302.08
867.19	297.39
867.572	348.89
867.954	344.21
868.336	327.82
868.717	292.71
869.099	248.24
869.48	316.12
869.862	299.73
870.243	318.46
870.625	283.35
871.006	306.76
871.387	295.05
871.768	327.82
872.149	337.18
872.53	311.44
872.911	355.91
873.292	362.93
873.673	290.37
874.054	304.42
874.435	316.12
874.815	304.42
875.196	346.55
875.577	313.78
875.957	348.89
876.338	257.61
876.718	362.93
877.098	327.82
877.479	348.89
877.859	362.93
878.239	292.71
878.619	220.16
878.999	341.86
879.379	400.38
879.759	323.14
880.139	330.16
880.519	362.93
880.898	353.57
881.278	337.18
881.658	325.48
882.037	358.25
882.417	323.14
882.796	327.82
883.176	332.5
883.555	313.78
883.934	339.52
884.313	203.77
884.693	313.78
885.072	330.16
885.451	376.97
885.83	334.84
886.209	299.73
886.587	339.52
886.966	288.03
887.345	348.89
887.724	323.14
888.102	337.18
888.481	278.67
888.859	290.37
889.238	283.35
889.616	292.71
889.994	327.82
890.373	276.33
890.751	323.14
891.129	250.58
891.507	288.03
891.885	318.46
892.263	302.08
892.641	339.52
893.019	365.27
893.396	299.73
893.774	369.95
894.152	358.25
894.529	367.61
894.907	327.82
895.284	365.27
895.662	376.97
896.039	344.21
896.416	259.95
896.794	304.42
897.171	332.5
897.548	339.52
897.925	341.86
898.302	290.37
898.679	334.84
899.056	344.21
899.433	306.76
899.809	330.16
900.186	238.88
900.563	257.61
900.939	323.14
901.316	337.18
901.692	311.44
902.069	297.39
902.445	311.44
902.821	311.44
903.197	295.05
903.574	320.8
903.95	337.18
904.326	344.21
904.702	362.93
905.078	381.65
905.454	376.97
905.829	341.86
906.205	281.01
906.581	360.59
906.956	304.42
907.332	320.8
907.707	325.48
908.083	304.42
908.458	311.44
908.833	311.44
909.209	381.65
909.584	379.31
909.959	288.03
910.334	255.26
910.709	330.16
911.084	299.73
911.459	273.99
911.834	327.82
912.209	311.44
912.583	302.08
912.958	323.14
913.333	297.39
913.707	304.42
914.082	302.08
914.456	269.31
914.83	316.12
915.205	337.18
915.579	283.35
915.953	320.8
916.327	346.55
916.701	299.73
917.075	313.78
917.449	330.16
917.823	325.48
918.197	398.04
918.571	295.05
918.944	288.03
919.318	278.67
919.692	355.91
920.065	320.8
920.438	330.16
920.812	355.91
921.185	388.68
921.558	369.95
921.932	334.84
922.305	288.03
922.678	327.82
923.051	386.33
923.424	320.8
923.797	323.14
924.17	398.04
924.542	290.37
924.915	348.89
925.288	278.67
925.661	302.08
926.033	344.21
926.406	234.2
926.778	316.12
927.15	309.1
927.523	264.63
927.895	295.05
928.267	313.78
928.639	285.69
929.011	271.65
929.383	250.58
929.755	334.84
930.127	372.29
930.499	283.35
930.871	276.33
931.242	276.33
931.614	295.05
931.986	295.05
932.357	306.76
932.729	283.35
933.1	334.84
933.471	414.42
933.843	320.8
934.214	323.14
934.585	288.03
934.956	360.59
935.327	325.48
935.698	330.16
936.069	320.8
936.44	304.42
936.811	297.39
937.182	332.5
937.552	283.35
937.923	264.63
938.293	362.93
938.664	295.05
939.034	255.26
939.405	302.08
939.775	400.38
940.145	271.65
940.516	339.52
940.886	297.39
941.256	330.16
941.626	388.68
941.996	318.46
942.366	320.8
942.735	304.42
943.105	259.95
943.475	339.52
943.845	323.14
944.214	325.48
944.584	292.71
944.953	304.42
945.323	297.39
945.692	306.76
946.061	351.23
946.43	358.25
946.8	353.57
947.169	337.18
947.538	332.5
947.907	311.44
948.276	339.52
948.645	383.99
949.013	318.46
949.382	367.61
949.751	250.58
950.119	334.84
950.488	346.55
950.857	346.55
951.225	325.48
951.593	271.65
951.962	346.55
952.33	318.46
952.698	346.55
953.066	337.18
953.434	243.56
953.802	266.97
954.17	262.29
954.538	341.86
954.906	309.1
955.274	332.5
955.642	344.21
956.009	313.78
956.377	320.8
956.744	398.04
957.112	292.71
957.479	234.2
957.847	297.39
958.214	316.12
958.581	302.08
958.948	250.58
959.315	318.46
959.683	262.29
960.05	262.29
960.416	344.21
960.783	318.46
961.15	337.18
961.517	252.92
961.884	304.42
962.25	318.46
962.617	351.23
962.983	313.78
963.35	295.05
963.716	302.08
964.082	332.5
964.449	353.57
964.815	320.8
965.181	334.84
965.547	339.52
965.913	273.99
966.279	304.42
966.645	302.08
967.011	318.46
967.377	306.76
967.742	358.25
968.108	372.29
968.474	334.84
968.839	299.73
969.205	327.82
969.57	334.84
969.935	304.42
970.301	337.18
970.666	304.42
971.031	243.56
971.396	295.05
971.761	362.93
972.126	290.37
972.491	227.18
972.856	337.18
973.221	348.89
973.586	351.23
973.95	318.46
974.315	348.89
974.679	309.1
975.044	367.61
975.408	302.08
975.773	346.55
976.137	306.76
976.501	318.46
976.866	302.08
977.23	278.67
977.594	234.2
977.958	360.59
978.322	383.99
978.686	330.16
979.049	295.05
979.413	323.14
979.777	273.99
980.141	346.55
980.504	316.12
980.868	297.39
981.231	283.35
981.595	288.03
981.958	281.01
982.321	271.65
982.684	238.88
983.048	292.71
983.411	365.27
983.774	374.63
984.137	369.95
984.5	302.08
984.862	292.71
985.225	337.18
985.588	355.91
985.951	316.12
986.313	334.84
986.676	330.16
987.038	327.82
987.401	332.5
987.763	262.29
988.125	304.42
988.488	386.33
988.85	285.69
989.212	320.8
989.574	355.91
989.936	325.48
990.298	302.08
990.66	283.35
991.022	283.35
991.383	309.1
991.745	248.24
992.107	316.12
992.468	330.16
992.83	255.26
993.191	341.86
993.553	320.8
993.914	295.05
994.275	259.95
994.637	330.16
994.998	250.58
995.359	330.16
995.72	273.99
996.081	304.42
996.442	391.02
996.803	369.95
997.163	288.03
997.524	302.08
997.885	311.44
998.245	327.82
998.606	255.26
998.966	285.69
999.327	255.26
999.687	297.39
1000.047	351.23
1000.408	292.71
1000.768	259.95
1001.128	302.08
1001.488	309.1
1001.848	269.31
1002.208	292.71
1002.568	271.65
1002.927	320.8
1003.287	313.78
1003.647	299.73
1004.007	245.9
1004.366	276.33
1004.726	334.84
1005.085	292.71
1005.444	210.79
1005.804	334.84
1006.163	391.02
1006.522	318.46
1006.881	297.39
1007.24	339.52
1007.599	351.23
1007.958	271.65
1008.317	309.1
1008.676	327.82
1009.035	334.84
1009.393	386.33
1009.752	262.29
1010.111	299.73
1010.469	299.73
1010.828	276.33
1011.186	334.84
1011.544	346.55
1011.903	281.01
1012.261	365.27
1012.619	316.12
1012.977	290.37
1013.335	327.82
1013.693	243.56
1014.051	323.14
1014.409	276.33
1014.767	281.01
1015.124	407.4
1015.482	351.23
1015.84	362.93
1016.197	311.44
1016.555	304.42
1016.912	344.21
1017.269	302.08
1017.627	374.63
1017.984	353.57
1018.341	264.63
1018.698	295.05
1019.055	334.84
1019.412	290.37
1019.769	323.14
1020.126	297.39
1020.483	334.84
1020.84	337.18
1021.196	383.99
1021.553	306.76
1021.909	332.5
1022.266	276.33
1022.622	290.37
1022.979	318.46
1023.335	355.91
1023.691	297.39
1024.047	353.57
1024.404	290.37
1024.76	299.73
1025.116	234.2
1025.472	304.42
1025.827	355.91
1026.183	290.37
1026.539	332.5
1026.895	252.92
1027.25	264.63
1027.606	318.46
1027.961	346.55
1028.317	316.12
1028.672	295.05
1029.028	334.84
1029.383	318.46
1029.738	351.23
1030.093	341.86
1030.448	353.57
1030.803	351.23
1031.158	257.61
1031.513	278.67
1031.868	306.76
1032.223	337.18
1032.577	344.21
1032.932	316.12
1033.287	341.86
1033.641	271.65
1033.996	309.1
1034.35	281.01
1034.704	299.73
1035.059	311.44
1035.413	323.14
1035.767	323.14
1036.121	323.14
