Data from Al_FLMS009871__773__15-18-17-022.txt Node

Date: Fri Mar 08 15:18:17 CST 2024
User: pe5414po
Spectrometer: FLMS00987
Trigger mode: 0
Integration Time (sec): 1.000000E-1
Scans to average: 1
Electric dark correction enabled: true
Nonlinearity correction enabled: false
Boxcar width: 0
XAxis mode: Wavelengths
Number of Pixels in Spectrum: 2048
>>>>>Begin Spectral Data<<<<<
188.938	-90.55
189.409	-90.55
189.879	-90.55
190.349	-130.34
190.819	-83.53
191.29	-153.74
191.76	-78.85
192.23	-137.36
192.7	-50.76
193.17	-50.76
193.64	-71.83
194.109	-34.38
194.579	-27.36
195.049	26.48
195.519	31.16
195.988	42.86
196.458	113.08
196.927	47.54
197.397	115.42
197.866	131.8
198.336	96.69
198.805	131.8
199.274	155.21
199.744	145.84
200.213	178.61
200.682	202.02
201.151	164.57
201.62	251.17
202.089	180.95
202.558	230.1
203.027	260.53
203.495	195
203.964	204.36
204.433	262.87
204.902	283.94
205.37	302.66
205.839	279.26
206.307	312.02
206.776	300.32
207.244	258.19
207.712	300.32
208.181	297.98
208.649	239.47
209.117	305
209.585	330.75
210.053	281.6
210.521	269.89
210.989	297.98
211.457	260.53
211.925	244.15
212.393	253.51
212.861	232.44
213.328	288.62
213.796	265.21
214.264	248.83
214.731	253.51
215.199	302.66
215.666	237.13
216.133	272.23
216.601	316.7
217.068	286.28
217.535	248.83
218.003	230.1
218.47	319.04
218.937	232.44
219.404	255.85
219.871	293.3
220.338	246.49
220.805	192.66
221.271	218.4
221.738	253.51
222.205	281.6
222.671	206.7
223.138	241.81
223.605	197.34
224.071	267.55
224.538	286.28
225.004	253.51
225.47	241.81
225.937	347.13
226.403	269.89
226.869	255.85
227.335	281.6
227.801	274.57
228.267	267.55
228.733	312.02
229.199	276.91
229.665	290.96
230.131	295.64
230.597	293.3
231.062	225.42
231.528	251.17
231.994	230.1
232.459	274.57
232.925	258.19
233.39	290.96
233.856	232.44
234.321	321.38
234.786	286.28
235.252	288.62
235.717	286.28
236.182	293.3
236.647	290.96
237.112	190.31
237.577	232.44
238.042	283.94
238.507	272.23
238.972	295.64
239.436	272.23
239.901	274.57
240.366	281.6
240.83	262.87
241.295	288.62
241.76	276.91
242.224	262.87
242.688	286.28
243.153	286.28
243.617	293.3
244.081	283.94
244.545	290.96
245.01	255.85
245.474	269.89
245.938	337.77
246.402	169.25
246.866	262.87
247.33	216.06
247.793	340.11
248.257	323.73
248.721	314.36
249.185	220.74
249.648	173.93
250.112	239.47
250.575	237.13
251.039	297.98
251.502	237.13
251.965	265.21
252.429	241.81
252.892	295.64
253.355	297.98
253.818	295.64
254.281	272.23
254.744	340.11
255.207	232.44
255.67	283.94
256.133	269.89
256.596	314.36
257.059	319.04
257.522	251.17
257.984	314.36
258.447	302.66
258.909	312.02
259.372	253.51
259.834	279.26
260.297	279.26
260.759	225.42
261.221	276.91
261.684	309.68
262.146	251.17
262.608	241.81
263.07	319.04
263.532	293.3
263.994	305
264.456	274.57
264.918	293.3
265.38	258.19
265.842	295.64
266.303	255.85
266.765	286.28
267.227	276.91
267.688	326.07
268.15	297.98
268.611	286.28
269.072	293.3
269.534	246.49
269.995	265.21
270.456	340.11
270.918	269.89
271.379	248.83
271.84	300.32
272.301	290.96
272.762	342.45
273.223	269.89
273.684	312.02
274.144	248.83
274.605	248.83
275.066	260.53
275.527	297.98
275.987	309.68
276.448	251.17
276.908	223.08
277.369	297.98
277.829	274.57
278.289	323.73
278.75	288.62
279.21	265.21
279.67	246.49
280.13	309.68
280.59	372.88
281.05	396.28
281.51	244.15
281.97	361.17
282.43	290.96
282.89	269.89
283.35	309.68
283.809	361.17
284.269	288.62
284.729	286.28
285.188	283.94
285.648	286.28
286.107	274.57
286.567	288.62
287.026	241.81
287.485	300.32
287.944	321.38
288.404	295.64
288.863	279.26
289.322	251.17
289.781	309.68
290.24	262.87
290.699	293.3
291.158	232.44
291.616	297.98
292.075	295.64
292.534	305
292.992	328.41
293.451	283.94
293.91	283.94
294.368	326.07
294.827	246.49
295.285	309.68
295.743	248.83
296.202	309.68
296.66	283.94
297.118	305
297.576	370.54
298.034	293.3
298.492	295.64
298.95	244.15
299.408	340.11
299.866	302.66
300.324	281.6
300.781	321.38
301.239	300.32
301.697	272.23
302.154	262.87
302.612	286.28
303.069	262.87
303.527	300.32
303.984	356.49
304.441	272.23
304.899	297.98
305.356	323.73
305.813	342.45
306.27	239.47
306.727	267.55
307.184	316.7
307.641	302.66
308.098	363.51
308.555	260.53
309.012	302.66
309.468	316.7
309.925	290.96
310.382	288.62
310.838	241.81
311.295	314.36
311.751	307.34
312.208	333.09
312.664	265.21
313.12	297.98
313.577	288.62
314.033	312.02
314.489	297.98
314.945	337.77
315.401	255.85
315.857	396.28
316.313	286.28
316.769	326.07
317.225	333.09
317.681	290.96
318.136	295.64
318.592	279.26
319.048	297.98
319.503	269.89
319.959	253.51
320.414	312.02
320.869	307.34
321.325	358.83
321.78	326.07
322.235	248.83
322.691	309.68
323.146	307.34
323.601	286.28
324.056	335.43
324.511	269.89
324.966	328.41
325.421	363.51
325.875	255.85
326.33	293.3
326.785	265.21
327.24	300.32
327.694	283.94
328.149	323.73
328.603	295.64
329.058	309.68
329.512	342.45
329.966	300.32
330.421	321.38
330.875	288.62
331.329	342.45
331.783	302.66
332.237	305
332.691	305
333.145	279.26
333.599	316.7
334.053	319.04
334.507	363.51
334.96	255.85
335.414	241.81
335.868	302.66
336.321	333.09
336.775	302.66
337.228	286.28
337.682	326.07
338.135	328.41
338.588	302.66
339.042	248.83
339.495	279.26
339.948	255.85
340.401	286.28
340.854	267.55
341.307	237.13
341.76	335.43
342.213	351.81
342.666	297.98
343.119	340.11
343.571	333.09
344.024	340.11
344.477	307.34
344.929	283.94
345.382	262.87
345.834	312.02
346.287	309.68
346.739	293.3
347.191	309.68
347.644	323.73
348.096	295.64
348.548	253.51
349	361.17
349.452	393.94
349.904	354.15
350.356	297.98
350.808	351.81
351.26	251.17
351.711	295.64
352.163	279.26
352.615	330.75
353.066	340.11
353.518	297.98
353.969	312.02
354.421	312.02
354.872	300.32
355.324	314.36
355.775	283.94
356.226	342.45
356.677	323.73
357.128	370.54
357.579	330.75
358.03	319.04
358.481	344.79
358.932	297.98
359.383	302.66
359.834	309.68
360.285	276.91
360.735	321.38
361.186	251.17
361.637	239.47
362.087	305
362.538	349.47
362.988	272.23
363.438	269.89
363.889	316.7
364.339	344.79
364.789	328.41
365.239	300.32
365.689	344.79
366.139	330.75
366.589	354.15
367.039	244.15
367.489	290.96
367.939	255.85
368.389	314.36
368.839	293.3
369.288	295.64
369.738	300.32
370.187	342.45
370.637	307.34
371.086	290.96
371.536	297.98
371.985	347.13
372.434	312.02
372.884	283.94
373.333	314.36
373.782	340.11
374.231	253.51
374.68	328.41
375.129	206.7
375.578	297.98
376.027	286.28
376.475	309.68
376.924	262.87
377.373	305
377.822	312.02
378.27	274.57
378.719	295.64
379.167	309.68
379.616	330.75
380.064	356.49
380.512	361.17
380.961	251.17
381.409	305
381.857	328.41
382.305	305
382.753	283.94
383.201	283.94
383.649	269.89
384.097	286.28
384.545	293.3
384.992	295.64
385.44	290.96
385.888	302.66
386.335	326.07
386.783	356.49
387.231	316.7
387.678	295.64
388.125	314.36
388.573	344.79
389.02	351.81
389.467	269.89
389.914	246.49
390.362	330.75
390.809	283.94
391.256	312.02
391.703	293.3
392.15	286.28
392.596	281.6
393.043	286.28
393.49	305
393.937	309.68
394.383	316.7
394.83	333.09
395.276	283.94
395.723	382.24
396.169	267.55
396.616	297.98
397.062	274.57
397.508	258.19
397.954	274.57
398.401	251.17
398.847	241.81
399.293	286.28
399.739	312.02
400.185	272.23
400.631	330.75
401.076	316.7
401.522	316.7
401.968	272.23
402.414	305
402.859	319.04
403.305	297.98
403.75	269.89
404.196	351.81
404.641	326.07
405.086	286.28
405.532	288.62
405.977	297.98
406.422	312.02
406.867	321.38
407.312	260.53
407.757	302.66
408.202	246.49
408.647	314.36
409.092	328.41
409.537	283.94
409.982	337.77
410.426	262.87
410.871	368.2
411.316	244.15
411.76	267.55
412.205	314.36
412.649	300.32
413.093	290.96
413.538	295.64
413.982	293.3
414.426	326.07
414.87	267.55
415.314	314.36
415.758	307.34
416.202	328.41
416.646	312.02
417.09	326.07
417.534	335.43
417.978	269.89
418.421	323.73
418.865	230.1
419.309	288.62
419.752	283.94
420.196	288.62
420.639	400.96
421.083	307.34
421.526	274.57
421.969	290.96
422.412	354.15
422.856	330.75
423.299	213.72
423.742	370.54
424.185	290.96
424.628	363.51
425.071	309.68
425.513	307.34
425.956	293.3
426.399	262.87
426.842	288.62
427.284	347.13
427.727	293.3
428.169	305
428.612	314.36
429.054	344.79
429.497	234.78
429.939	286.28
430.381	223.08
430.823	302.66
431.265	302.66
431.707	272.23
432.149	335.43
432.591	316.7
433.033	225.42
433.475	220.74
433.917	333.09
434.359	251.17
434.8	340.11
435.242	290.96
435.684	330.75
436.125	297.98
436.567	400.96
437.008	333.09
437.449	295.64
437.891	286.28
438.332	293.3
438.773	283.94
439.214	265.21
439.656	335.43
440.097	326.07
440.538	361.17
440.978	262.87
441.419	300.32
441.86	255.85
442.301	340.11
442.742	344.79
443.182	342.45
443.623	333.09
444.063	347.13
444.504	281.6
444.944	274.57
445.385	255.85
445.825	349.47
446.265	300.32
446.706	347.13
447.146	295.64
447.586	333.09
448.026	309.68
448.466	337.77
448.906	309.68
449.346	302.66
449.786	312.02
450.225	337.77
450.665	328.41
451.105	309.68
451.544	319.04
451.984	379.9
452.424	328.41
452.863	290.96
453.302	300.32
453.742	393.94
454.181	246.49
454.62	309.68
455.059	276.91
455.499	239.47
455.938	342.45
456.377	295.64
456.816	309.68
457.254	312.02
457.693	326.07
458.132	386.92
458.571	386.92
459.01	258.19
459.448	398.62
459.887	363.51
460.325	370.54
460.764	323.73
461.202	288.62
461.641	330.75
462.079	354.15
462.517	335.43
462.955	330.75
463.393	316.7
463.832	314.36
464.27	354.15
464.708	330.75
465.145	365.85
465.583	386.92
466.021	400.96
466.459	302.66
466.897	365.85
467.334	333.09
467.772	305
468.209	363.51
468.647	351.81
469.084	347.13
469.522	386.92
469.959	326.07
470.396	288.62
470.833	307.34
471.271	347.13
471.708	361.17
472.145	326.07
472.582	372.88
473.019	241.81
473.456	314.36
473.892	349.47
474.329	302.66
474.766	340.11
475.202	274.57
475.639	302.66
476.076	305
476.512	267.55
476.949	342.45
477.385	290.96
477.821	375.22
478.258	363.51
478.694	293.3
479.13	349.47
479.566	333.09
480.002	300.32
480.438	293.3
480.874	347.13
481.31	305
481.746	279.26
482.181	244.15
482.617	342.45
483.053	333.09
483.488	283.94
483.924	302.66
484.36	356.49
484.795	269.89
485.23	307.34
485.666	328.41
486.101	347.13
486.536	403.3
486.971	330.75
487.407	293.3
487.842	248.83
488.277	305
488.712	361.17
489.146	295.64
489.581	295.64
490.016	307.34
490.451	312.02
490.885	340.11
491.32	377.56
491.755	297.98
492.189	288.62
492.624	361.17
493.058	248.83
493.492	337.77
493.927	283.94
494.361	312.02
494.795	293.3
495.229	307.34
495.663	356.49
496.097	328.41
496.531	314.36
496.965	305
497.399	265.21
497.833	319.04
498.266	356.49
498.7	335.43
499.134	297.98
499.567	323.73
500.001	300.32
500.434	290.96
500.868	302.66
501.301	302.66
501.734	340.11
502.168	300.32
502.601	286.28
503.034	309.68
503.467	328.41
503.9	403.3
504.333	276.91
504.766	321.38
505.199	267.55
505.632	333.09
506.064	333.09
506.497	321.38
506.93	342.45
507.362	255.85
507.795	312.02
508.227	321.38
508.66	337.77
509.092	340.11
509.524	328.41
509.956	356.49
510.389	300.32
510.821	351.81
511.253	305
511.685	351.81
512.117	309.68
512.549	342.45
512.981	288.62
513.412	330.75
513.844	321.38
514.276	333.09
514.707	330.75
515.139	335.43
515.571	309.68
516.002	281.6
516.433	269.89
516.865	272.23
517.296	326.07
517.727	309.68
518.159	267.55
518.59	326.07
519.021	305
519.452	316.7
519.883	333.09
520.314	321.38
520.744	293.3
521.175	340.11
521.606	330.75
522.037	251.17
522.467	314.36
522.898	305
523.328	319.04
523.759	305
524.189	335.43
524.62	358.83
525.05	302.66
525.48	323.73
525.91	288.62
526.341	316.7
526.771	337.77
527.201	328.41
527.631	321.38
528.061	307.34
528.49	349.47
528.92	361.17
529.35	342.45
529.78	319.04
530.209	321.38
530.639	319.04
531.068	297.98
531.498	330.75
531.927	290.96
532.357	272.23
532.786	356.49
533.215	307.34
533.644	314.36
534.074	305
534.503	328.41
534.932	248.83
535.361	312.02
535.79	386.92
536.218	358.83
536.647	272.23
537.076	293.3
537.505	356.49
537.933	276.91
538.362	347.13
538.79	361.17
539.219	295.64
539.647	365.85
540.076	358.83
540.504	319.04
540.932	260.53
541.36	307.34
541.788	300.32
542.217	286.28
542.645	319.04
543.073	302.66
543.5	321.38
543.928	356.49
544.356	279.26
544.784	290.96
545.211	267.55
545.639	319.04
546.067	276.91
546.494	297.98
546.922	295.64
547.349	302.66
547.776	333.09
548.204	377.56
548.631	344.79
549.058	297.98
549.485	319.04
549.912	358.83
550.339	225.42
550.766	302.66
551.193	279.26
551.62	342.45
552.047	309.68
552.474	323.73
552.9	319.04
553.327	391.6
553.754	293.3
554.18	314.36
554.607	293.3
555.033	253.51
555.459	330.75
555.886	314.36
556.312	302.66
556.738	262.87
557.164	267.55
557.59	337.77
558.016	302.66
558.442	295.64
558.868	342.45
559.294	255.85
559.72	290.96
560.145	314.36
560.571	274.57
560.997	358.83
561.422	286.28
561.848	342.45
562.273	321.38
562.699	253.51
563.124	300.32
563.549	330.75
563.974	349.47
564.4	286.28
564.825	328.41
565.25	347.13
565.675	361.17
566.1	295.64
566.525	354.15
566.95	267.55
567.374	276.91
567.799	288.62
568.224	358.83
568.648	382.24
569.073	349.47
569.497	344.79
569.922	344.79
570.346	286.28
570.771	354.15
571.195	309.68
571.619	297.98
572.043	368.2
572.467	283.94
572.891	307.34
573.315	267.55
573.739	340.11
574.163	342.45
574.587	333.09
575.011	269.89
575.435	293.3
575.858	300.32
576.282	297.98
576.705	307.34
577.129	307.34
577.552	319.04
577.976	342.45
578.399	255.85
578.822	349.47
579.245	232.44
579.669	309.68
580.092	363.51
580.515	309.68
580.938	361.17
581.361	321.38
581.784	323.73
582.206	335.43
582.629	356.49
583.052	354.15
583.474	295.64
583.897	307.34
584.32	302.66
584.742	272.23
585.165	321.38
585.587	316.7
586.009	330.75
586.431	281.6
586.854	309.68
587.276	192.66
587.698	274.57
588.12	361.17
588.542	361.17
588.964	295.64
589.386	340.11
589.807	281.6
590.229	377.56
590.651	330.75
591.073	330.75
591.494	305
591.916	314.36
592.337	314.36
592.759	286.28
593.18	253.51
593.601	330.75
594.022	312.02
594.444	274.57
594.865	340.11
595.286	333.09
595.707	361.17
596.128	328.41
596.549	328.41
596.97	323.73
597.39	358.83
597.811	269.89
598.232	347.13
598.652	300.32
599.073	330.75
599.494	281.6
599.914	363.51
600.334	295.64
600.755	290.96
601.175	337.77
601.595	356.49
602.015	297.98
602.436	340.11
602.856	450.11
603.276	319.04
603.696	286.28
604.115	232.44
604.535	290.96
604.955	309.68
605.375	370.54
605.794	358.83
606.214	344.79
606.634	323.73
607.053	365.85
607.473	265.21
607.892	295.64
608.311	321.38
608.731	307.34
609.15	347.13
609.569	309.68
609.988	297.98
610.407	281.6
610.826	321.38
611.245	319.04
611.664	314.36
612.083	335.43
612.501	281.6
612.92	290.96
613.339	290.96
613.757	251.17
614.176	255.85
614.594	276.91
615.013	305
615.431	300.32
615.85	279.26
616.268	305
616.686	302.66
617.104	354.15
617.522	389.26
617.94	274.57
618.358	340.11
618.776	314.36
619.194	326.07
619.612	335.43
620.03	342.45
620.447	290.96
620.865	312.02
621.282	330.75
621.7	316.7
622.117	330.75
622.535	337.77
622.952	300.32
623.369	323.73
623.787	358.83
624.204	314.36
624.621	295.64
625.038	333.09
625.455	326.07
625.872	342.45
626.289	307.34
626.706	260.53
627.123	316.7
627.539	340.11
627.956	288.62
628.373	330.75
628.789	349.47
629.206	316.7
629.622	262.87
630.038	368.2
630.455	309.68
630.871	300.32
631.287	260.53
631.703	276.91
632.12	290.96
632.536	328.41
632.952	295.64
633.368	283.94
633.783	288.62
634.199	337.77
634.615	398.62
635.031	316.7
635.446	333.09
635.862	354.15
636.277	267.55
636.693	302.66
637.108	279.26
637.524	396.28
637.939	269.89
638.354	316.7
638.77	286.28
639.185	297.98
639.6	309.68
640.015	307.34
640.43	237.13
640.845	358.83
641.259	344.79
641.674	347.13
642.089	279.26
642.504	239.47
642.918	300.32
643.333	321.38
643.747	281.6
644.162	307.34
644.576	302.66
644.991	248.83
645.405	333.09
645.819	281.6
646.233	316.7
646.647	384.58
647.061	396.28
647.475	316.7
647.889	272.23
648.303	307.34
648.717	375.22
649.131	286.28
649.545	349.47
649.958	305
650.372	354.15
650.785	333.09
651.199	283.94
651.612	286.28
652.026	223.08
652.439	330.75
652.852	312.02
653.266	281.6
653.679	354.15
654.092	255.85
654.505	276.91
654.918	333.09
655.331	333.09
655.744	246.49
656.156	342.45
656.569	213.72
656.982	316.7
657.394	377.56
657.807	300.32
658.22	283.94
658.632	340.11
659.044	312.02
659.457	305
659.869	319.04
660.281	319.04
660.693	276.91
661.106	342.45
661.518	260.53
661.93	347.13
662.342	281.6
662.754	377.56
663.165	372.88
663.577	312.02
663.989	407.98
664.401	328.41
664.812	300.32
665.224	297.98
665.635	239.47
666.047	340.11
666.458	328.41
666.869	253.51
667.281	265.21
667.692	316.7
668.103	314.36
668.514	290.96
668.925	351.81
669.336	333.09
669.747	297.98
670.158	358.83
670.569	319.04
670.979	312.02
671.39	302.66
671.801	340.11
672.211	337.77
672.622	314.36
673.032	384.58
673.443	281.6
673.853	370.54
674.263	295.64
674.674	321.38
675.084	323.73
675.494	300.32
675.904	330.75
676.314	269.89
676.724	337.77
677.134	349.47
677.544	342.45
677.953	314.36
678.363	344.79
678.773	384.58
679.182	300.32
679.592	321.38
680.001	312.02
680.411	307.34
680.82	351.81
681.23	333.09
681.639	328.41
682.048	248.83
682.457	279.26
682.866	326.07
683.275	321.38
683.684	333.09
684.093	326.07
684.502	265.21
684.911	279.26
685.32	286.28
685.728	335.43
686.137	307.34
686.546	267.55
686.954	302.66
687.363	321.38
687.771	312.02
688.179	340.11
688.588	349.47
688.996	295.64
689.404	272.23
689.812	337.77
690.22	272.23
690.628	328.41
691.036	297.98
691.444	305
691.852	337.77
692.26	328.41
692.667	314.36
693.075	307.34
693.483	297.98
693.89	220.74
694.298	370.54
694.705	330.75
695.112	354.15
695.52	297.98
695.927	312.02
696.334	340.11
696.741	281.6
697.148	326.07
697.555	279.26
697.962	290.96
698.369	258.19
698.776	267.55
699.183	302.66
699.59	297.98
699.996	281.6
700.403	396.28
700.81	288.62
701.216	262.87
701.623	326.07
702.029	337.77
702.435	337.77
702.842	326.07
703.248	295.64
703.654	312.02
704.06	351.81
704.466	351.81
704.872	335.43
705.278	293.3
705.684	309.68
706.09	255.85
706.496	265.21
706.901	307.34
707.307	342.45
707.712	342.45
708.118	202.02
708.523	295.64
708.929	255.85
709.334	297.98
709.74	241.81
710.145	344.79
710.55	246.49
710.955	356.49
711.36	251.17
711.765	269.89
712.17	349.47
712.575	295.64
712.98	810.56
713.385	326.07
713.789	312.02
714.194	281.6
714.599	330.75
715.003	321.38
715.408	260.53
715.812	309.68
716.217	337.77
716.621	300.32
717.025	351.81
717.429	316.7
717.833	328.41
718.238	333.09
718.642	286.28
719.046	349.47
719.449	349.47
719.853	272.23
720.257	326.07
720.661	321.38
721.065	379.9
721.468	295.64
721.872	276.91
722.275	340.11
722.679	319.04
723.082	302.66
723.485	274.57
723.889	288.62
724.292	328.41
724.695	342.45
725.098	342.45
725.501	347.13
725.904	312.02
726.307	309.68
726.71	307.34
727.113	307.34
727.516	323.73
727.918	220.74
728.321	290.96
728.724	349.47
729.126	265.21
729.529	307.34
729.931	340.11
730.333	305
730.736	290.96
731.138	309.68
731.54	274.57
731.942	272.23
732.344	344.79
732.746	309.68
733.148	323.73
733.55	300.32
733.952	276.91
734.354	363.51
734.756	309.68
735.157	302.66
735.559	337.77
735.96	321.38
736.362	274.57
736.763	333.09
737.165	328.41
737.566	290.96
737.967	356.49
738.368	319.04
738.77	316.7
739.171	309.68
739.572	328.41
739.973	323.73
740.374	300.32
740.774	279.26
741.175	300.32
741.576	323.73
741.977	265.21
742.377	300.32
742.778	340.11
743.178	342.45
743.579	288.62
743.979	290.96
744.379	281.6
744.78	305
745.18	316.7
745.58	349.47
745.98	351.81
746.38	333.09
746.78	265.21
747.18	307.34
747.58	290.96
747.98	344.79
748.38	316.7
748.779	295.64
749.179	316.7
749.578	328.41
749.978	312.02
750.377	321.38
750.777	302.66
751.176	344.79
751.575	319.04
751.975	328.41
752.374	319.04
752.773	305
753.172	330.75
753.571	276.91
753.97	281.6
754.369	267.55
754.768	326.07
755.166	351.81
755.565	354.15
755.964	276.91
756.362	386.92
756.761	321.38
757.159	288.62
757.558	312.02
757.956	335.43
758.354	319.04
758.753	262.87
759.151	255.85
759.549	286.28
759.947	405.64
760.345	323.73
760.743	295.64
761.141	290.96
761.539	283.94
761.936	286.28
762.334	340.11
762.732	293.3
763.129	356.49
763.527	342.45
763.924	312.02
764.322	305
764.719	248.83
765.117	319.04
765.514	312.02
765.911	314.36
766.308	288.62
766.705	293.3
767.102	375.22
767.499	314.36
767.896	321.38
768.293	283.94
768.69	267.55
769.086	300.32
769.483	354.15
769.88	351.81
770.276	262.87
770.673	354.15
771.069	267.55
771.466	288.62
771.862	255.85
772.258	328.41
772.654	288.62
773.05	340.11
773.447	269.89
773.843	295.64
774.239	244.15
774.634	316.7
775.03	300.32
775.426	344.79
775.822	312.02
776.218	305
776.613	316.7
777.009	351.81
777.404	307.34
777.8	333.09
778.195	349.47
778.59	288.62
778.986	297.98
779.381	335.43
779.776	307.34
780.171	300.32
780.566	349.47
780.961	358.83
781.356	335.43
781.751	316.7
782.146	290.96
782.54	305
782.935	286.28
783.33	269.89
783.724	377.56
784.119	309.68
784.513	274.57
784.908	349.47
785.302	288.62
785.696	290.96
786.09	351.81
786.485	314.36
786.879	309.68
787.273	344.79
787.667	267.55
788.061	321.38
788.454	335.43
788.848	337.77
789.242	321.38
789.636	274.57
790.029	328.41
790.423	283.94
790.816	342.45
791.21	286.28
791.603	342.45
791.997	337.77
792.39	319.04
792.783	330.75
793.176	349.47
793.569	279.26
793.962	262.87
794.355	239.47
794.748	347.13
795.141	342.45
795.534	307.34
795.927	323.73
796.319	223.08
796.712	286.28
797.105	269.89
797.497	330.75
797.89	326.07
798.282	358.83
798.674	279.26
799.067	335.43
799.459	347.13
799.851	302.66
800.243	347.13
800.635	377.56
801.027	265.21
801.419	319.04
801.811	323.73
802.203	253.51
802.594	314.36
802.986	272.23
803.378	356.49
803.769	312.02
804.161	351.81
804.552	312.02
804.944	305
805.335	314.36
805.726	295.64
806.118	293.3
806.509	276.91
806.9	237.13
807.291	283.94
807.682	335.43
808.073	314.36
808.464	255.85
808.855	337.77
809.245	323.73
809.636	326.07
810.027	372.88
810.417	281.6
810.808	286.28
811.198	349.47
811.589	265.21
811.979	307.34
812.369	262.87
812.759	349.47
813.15	305
813.54	328.41
813.93	288.62
814.32	300.32
814.71	300.32
815.1	297.98
815.489	281.6
815.879	279.26
816.269	305
816.658	309.68
817.048	307.34
817.438	328.41
817.827	316.7
818.216	321.38
818.606	337.77
818.995	377.56
819.384	323.73
819.773	302.66
820.163	248.83
820.552	314.36
820.941	351.81
821.33	279.26
821.718	361.17
822.107	297.98
822.496	274.57
822.885	246.49
823.273	316.7
823.662	344.79
824.05	279.26
824.439	309.68
824.827	342.45
825.216	354.15
825.604	344.79
825.992	349.47
826.38	309.68
826.768	274.57
827.156	307.34
827.544	368.2
827.932	309.68
828.32	295.64
828.708	337.77
829.096	335.43
829.483	356.49
829.871	276.91
830.259	316.7
830.646	276.91
831.034	246.49
831.421	281.6
831.808	307.34
832.196	274.57
832.583	246.49
832.97	300.32
833.357	351.81
833.744	297.98
834.131	384.58
834.518	290.96
834.905	328.41
835.292	312.02
835.678	302.66
836.065	295.64
836.452	351.81
836.838	276.91
837.225	305
837.611	356.49
837.998	321.38
838.384	321.38
838.77	335.43
839.157	330.75
839.543	393.94
839.929	365.85
840.315	286.28
840.701	344.79
841.087	323.73
841.473	290.96
841.858	356.49
842.244	321.38
842.63	297.98
843.015	312.02
843.401	365.85
843.787	305
844.172	333.09
844.557	330.75
844.943	253.51
845.328	281.6
845.713	344.79
846.098	312.02
846.483	300.32
846.868	319.04
847.253	337.77
847.638	354.15
848.023	305
848.408	337.77
848.793	328.41
849.177	272.23
849.562	330.75
849.947	237.13
850.331	290.96
850.715	300.32
851.1	328.41
851.484	286.28
851.868	239.47
852.253	286.28
852.637	300.32
853.021	314.36
853.405	274.57
853.789	255.85
854.173	340.11
854.557	286.28
854.94	288.62
855.324	300.32
855.708	267.55
856.091	309.68
856.475	265.21
856.858	326.07
857.242	309.68
857.625	321.38
858.009	333.09
858.392	305
858.775	316.7
859.158	323.73
859.541	323.73
859.924	265.21
860.307	312.02
860.69	312.02
861.073	283.94
861.456	288.62
861.838	337.77
862.221	323.73
862.604	319.04
862.986	234.78
863.369	312.02
863.751	370.54
864.133	288.62
864.516	262.87
864.898	305
865.28	305
865.662	316.7
866.044	335.43
866.426	267.55
866.808	302.66
867.19	312.02
867.572	344.79
867.954	279.26
868.336	321.38
868.717	290.96
869.099	281.6
869.48	326.07
869.862	302.66
870.243	220.74
870.625	365.85
871.006	356.49
871.387	316.7
871.768	319.04
872.149	265.21
872.53	281.6
872.911	267.55
873.292	307.34
873.673	295.64
874.054	337.77
874.435	267.55
874.815	326.07
875.196	283.94
875.577	293.3
875.957	323.73
876.338	246.49
876.718	288.62
877.098	347.13
877.479	234.78
877.859	293.3
878.239	314.36
878.619	265.21
878.999	337.77
879.379	323.73
879.759	305
880.139	363.51
880.519	276.91
880.898	309.68
881.278	321.38
881.658	293.3
882.037	330.75
882.417	246.49
882.796	342.45
883.176	333.09
883.555	276.91
883.934	300.32
884.313	333.09
884.693	279.26
885.072	283.94
885.451	321.38
885.83	333.09
886.209	293.3
886.587	321.38
886.966	305
887.345	342.45
887.724	297.98
888.102	328.41
888.481	281.6
888.859	232.44
889.238	274.57
889.616	330.75
889.994	337.77
890.373	342.45
890.751	316.7
891.129	300.32
891.507	272.23
891.885	300.32
892.263	312.02
892.641	297.98
893.019	342.45
893.396	333.09
893.774	319.04
894.152	267.55
894.529	279.26
894.907	363.51
895.284	269.89
895.662	337.77
896.039	321.38
896.416	377.56
896.794	283.94
897.171	307.34
897.548	361.17
897.925	286.28
898.302	290.96
898.679	290.96
899.056	312.02
899.433	316.7
899.809	302.66
900.186	337.77
900.563	286.28
900.939	262.87
901.316	340.11
901.692	337.77
902.069	328.41
902.445	297.98
902.821	333.09
903.197	347.13
903.574	305
903.95	356.49
904.326	246.49
904.702	302.66
905.078	314.36
905.454	340.11
905.829	328.41
906.205	281.6
906.581	337.77
906.956	274.57
907.332	262.87
907.707	328.41
908.083	314.36
908.458	258.19
908.833	258.19
909.209	389.26
909.584	314.36
909.959	340.11
910.334	269.89
910.709	368.2
911.084	340.11
911.459	260.53
911.834	267.55
912.209	283.94
912.583	267.55
912.958	309.68
913.333	237.13
913.707	363.51
914.082	342.45
914.456	293.3
914.83	276.91
915.205	258.19
915.579	279.26
915.953	307.34
916.327	337.77
916.701	283.94
917.075	312.02
917.449	316.7
917.823	326.07
918.197	290.96
918.571	333.09
918.944	328.41
919.318	269.89
919.692	260.53
920.065	272.23
920.438	288.62
920.812	314.36
921.185	312.02
921.558	260.53
921.932	258.19
922.305	358.83
922.678	326.07
923.051	258.19
923.424	288.62
923.797	312.02
924.17	351.81
924.542	312.02
924.915	321.38
925.288	321.38
925.661	328.41
926.033	274.57
926.406	314.36
926.778	276.91
927.15	309.68
927.523	319.04
927.895	267.55
928.267	307.34
928.639	316.7
929.011	323.73
929.383	267.55
929.755	269.89
930.127	326.07
930.499	344.79
930.871	269.89
931.242	326.07
931.614	330.75
931.986	340.11
932.357	316.7
932.729	358.83
933.1	363.51
933.471	290.96
933.843	258.19
934.214	288.62
934.585	319.04
934.956	358.83
935.327	295.64
935.698	321.38
936.069	307.34
936.44	356.49
936.811	272.23
937.182	344.79
937.552	305
937.923	232.44
938.293	267.55
938.664	295.64
939.034	288.62
939.405	335.43
939.775	340.11
940.145	368.2
940.516	326.07
940.886	307.34
941.256	293.3
941.626	319.04
941.996	300.32
942.366	316.7
942.735	335.43
943.105	337.77
943.475	314.36
943.845	314.36
944.214	340.11
944.584	227.76
944.953	323.73
945.323	288.62
945.692	293.3
946.061	272.23
946.43	342.45
946.8	316.7
947.169	326.07
947.538	276.91
947.907	300.32
948.276	312.02
948.645	297.98
949.013	283.94
949.382	326.07
949.751	309.68
950.119	328.41
950.488	293.3
950.857	309.68
951.225	279.26
951.593	295.64
951.962	305
952.33	323.73
952.698	328.41
953.066	326.07
953.434	321.38
953.802	316.7
954.17	274.57
954.538	351.81
954.906	274.57
955.274	253.51
955.642	316.7
956.009	309.68
956.377	321.38
956.744	295.64
957.112	230.1
957.479	246.49
957.847	337.77
958.214	314.36
958.581	396.28
958.948	316.7
959.315	300.32
959.683	328.41
960.05	274.57
960.416	248.83
960.783	321.38
961.15	323.73
961.517	365.85
961.884	328.41
962.25	246.49
962.617	319.04
962.983	330.75
963.35	267.55
963.716	342.45
964.082	323.73
964.449	333.09
964.815	305
965.181	368.2
965.547	260.53
965.913	340.11
966.279	269.89
966.645	288.62
967.011	234.78
967.377	265.21
967.742	276.91
968.108	265.21
968.474	340.11
968.839	314.36
969.205	300.32
969.57	312.02
969.935	295.64
970.301	281.6
970.666	232.44
971.031	295.64
971.396	393.94
971.761	312.02
972.126	244.15
972.491	297.98
972.856	391.6
973.221	300.32
973.586	239.47
973.95	272.23
974.315	321.38
974.679	307.34
975.044	323.73
975.408	321.38
975.773	286.28
976.137	248.83
976.501	279.26
976.866	288.62
977.23	333.09
977.594	307.34
977.958	307.34
978.322	288.62
978.686	340.11
979.049	335.43
979.413	307.34
979.777	237.13
980.141	368.2
980.504	375.22
980.868	293.3
981.231	279.26
981.595	267.55
981.958	272.23
982.321	323.73
982.684	295.64
983.048	312.02
983.411	241.81
983.774	286.28
984.137	307.34
984.5	265.21
984.862	239.47
985.225	400.96
985.588	279.26
985.951	307.34
986.313	295.64
986.676	293.3
987.038	335.43
987.401	269.89
987.763	251.17
988.125	274.57
988.488	272.23
988.85	297.98
989.212	293.3
989.574	330.75
989.936	267.55
990.298	333.09
990.66	354.15
991.022	305
991.383	342.45
991.745	344.79
992.107	358.83
992.468	321.38
992.83	326.07
993.191	279.26
993.553	283.94
993.914	267.55
994.275	220.74
994.637	321.38
994.998	344.79
995.359	276.91
995.72	321.38
996.081	293.3
996.442	300.32
996.803	316.7
997.163	372.88
997.524	333.09
997.885	333.09
998.245	337.77
998.606	312.02
998.966	344.79
999.327	354.15
999.687	297.98
1000.047	328.41
1000.408	309.68
1000.768	279.26
1001.128	330.75
1001.488	232.44
1001.848	323.73
1002.208	239.47
1002.568	251.17
1002.927	276.91
1003.287	344.79
1003.647	307.34
1004.007	265.21
1004.366	312.02
1004.726	321.38
1005.085	349.47
1005.444	340.11
1005.804	351.81
1006.163	328.41
1006.522	356.49
1006.881	276.91
1007.24	337.77
1007.599	293.3
1007.958	281.6
1008.317	309.68
1008.676	279.26
1009.035	323.73
1009.393	328.41
1009.752	305
1010.111	272.23
1010.469	344.79
1010.828	288.62
1011.186	295.64
1011.544	269.89
1011.903	309.68
1012.261	265.21
1012.619	302.66
1012.977	307.34
1013.335	307.34
1013.693	290.96
1014.051	286.28
1014.409	342.45
1014.767	241.81
1015.124	269.89
1015.482	305
1015.84	293.3
1016.197	297.98
1016.555	302.66
1016.912	265.21
1017.269	269.89
1017.627	276.91
1017.984	358.83
1018.341	281.6
1018.698	220.74
1019.055	237.13
1019.412	251.17
1019.769	262.87
1020.126	347.13
1020.483	349.47
1020.84	300.32
1021.196	340.11
1021.553	323.73
1021.909	286.28
1022.266	351.81
1022.622	356.49
1022.979	276.91
1023.335	316.7
1023.691	302.66
1024.047	279.26
1024.404	290.96
1024.76	297.98
1025.116	288.62
1025.472	300.32
1025.827	279.26
1026.183	290.96
1026.539	279.26
1026.895	335.43
1027.25	309.68
1027.606	274.57
1027.961	248.83
1028.317	265.21
1028.672	297.98
1029.028	305
1029.383	309.68
1029.738	274.57
1030.093	281.6
1030.448	330.75
1030.803	260.53
1031.158	286.28
1031.513	314.36
1031.868	276.91
1032.223	290.96
1032.577	293.3
1032.932	326.07
1033.287	307.34
1033.641	232.44
1033.996	281.6
1034.35	272.23
1034.704	279.26
1035.059	316.7
1035.413	330.75
1035.767	330.75
1036.121	330.75
