Data from Al_FLMS009871__772__15-18-16-922.txt Node

Date: Fri Mar 08 15:18:16 CST 2024
User: pe5414po
Spectrometer: FLMS00987
Trigger mode: 0
Integration Time (sec): 1.000000E-1
Scans to average: 1
Electric dark correction enabled: true
Nonlinearity correction enabled: false
Boxcar width: 0
XAxis mode: Wavelengths
Number of Pixels in Spectrum: 2048
>>>>>Begin Spectral Data<<<<<
188.938	-97.86
189.409	-97.86
189.879	-97.86
190.349	-114.25
190.819	-170.42
191.29	-86.16
191.76	-144.67
192.23	-93.18
192.7	-76.8
193.17	-15.94
193.64	2.78
194.109	-39.35
194.579	-18.29
195.049	49.59
195.519	-22.97
195.988	51.93
196.458	49.59
196.927	98.74
197.397	65.97
197.866	63.63
198.336	115.13
198.805	80.02
199.274	171.3
199.744	187.68
200.213	199.38
200.682	220.45
201.151	246.2
201.62	243.85
202.089	342.16
202.558	290.67
203.027	307.05
203.495	253.22
203.964	267.26
204.433	307.05
204.902	267.26
205.37	269.6
205.839	276.62
206.307	330.45
206.776	363.22
207.244	269.6
207.712	283.64
208.181	283.64
208.649	318.75
209.117	386.63
209.585	330.45
210.053	239.17
210.521	365.56
210.989	356.2
211.457	295.35
211.925	276.62
212.393	278.96
212.861	248.54
213.328	309.39
213.796	246.2
214.264	321.09
214.731	288.32
215.199	246.2
215.666	211.09
216.133	314.07
216.601	262.58
217.068	204.07
217.535	220.45
218.003	222.79
218.47	311.73
218.937	318.75
219.404	335.14
219.871	260.24
220.338	227.47
220.805	304.71
221.271	285.98
221.738	241.51
222.205	227.47
222.671	262.58
223.138	307.05
223.605	255.56
224.071	255.56
224.538	234.49
225.004	309.39
225.47	222.79
225.937	262.58
226.403	314.07
226.869	267.26
227.335	304.71
227.801	344.5
228.267	300.03
228.733	283.64
229.199	264.92
229.665	250.88
230.131	283.64
230.597	314.07
231.062	295.35
231.528	267.26
231.994	246.2
232.459	271.94
232.925	302.37
233.39	250.88
233.856	278.96
234.321	314.07
234.786	271.94
235.252	257.9
235.717	255.56
236.182	278.96
236.647	302.37
237.112	304.71
237.577	302.37
238.042	370.24
238.507	283.64
238.972	262.58
239.436	246.2
239.901	281.3
240.366	325.77
240.83	281.3
241.295	285.98
241.76	309.39
242.224	337.48
242.688	311.73
243.153	300.03
243.617	274.28
244.081	253.22
244.545	206.41
245.01	337.48
245.474	276.62
245.938	290.67
246.402	328.11
246.866	290.67
247.33	300.03
247.793	264.92
248.257	290.67
248.721	225.13
249.185	248.54
249.648	225.13
250.112	285.98
250.575	131.51
251.039	248.54
251.502	246.2
251.965	234.49
252.429	307.05
252.892	281.3
253.355	307.05
253.818	304.71
254.281	267.26
254.744	297.69
255.207	248.54
255.67	349.18
256.133	325.77
256.596	260.24
257.059	302.37
257.522	269.6
257.984	323.43
258.447	278.96
258.909	260.24
259.372	290.67
259.834	222.79
260.297	321.09
260.759	330.45
261.221	283.64
261.684	234.49
262.146	297.69
262.608	285.98
263.07	285.98
263.532	346.84
263.994	323.43
264.456	283.64
264.918	269.6
265.38	307.05
265.842	300.03
266.303	278.96
266.765	314.07
267.227	325.77
267.688	307.05
268.15	276.62
268.611	302.37
269.072	297.69
269.534	264.92
269.995	250.88
270.456	227.47
270.918	332.79
271.379	293.01
271.84	304.71
272.301	302.37
272.762	271.94
273.223	302.37
273.684	290.67
274.144	260.24
274.605	318.75
275.066	365.56
275.527	285.98
275.987	304.71
276.448	288.32
276.908	295.35
277.369	271.94
277.829	250.88
278.289	316.41
278.75	255.56
279.21	316.41
279.67	300.03
280.13	302.37
280.59	302.37
281.05	300.03
281.51	321.09
281.97	318.75
282.43	318.75
282.89	370.24
283.35	318.75
283.809	276.62
284.269	281.3
284.729	285.98
285.188	344.5
285.648	285.98
286.107	311.73
286.567	243.85
287.026	316.41
287.485	293.01
287.944	269.6
288.404	285.98
288.863	342.16
289.322	335.14
289.781	281.3
290.24	297.69
290.699	339.82
291.158	325.77
291.616	335.14
292.075	323.43
292.534	278.96
292.992	356.2
293.451	344.5
293.91	302.37
294.368	386.63
294.827	311.73
295.285	360.88
295.743	321.09
296.202	346.84
296.66	262.58
297.118	314.07
297.576	307.05
298.034	271.94
298.492	323.43
298.95	262.58
299.408	297.69
299.866	293.01
300.324	304.71
300.781	293.01
301.239	318.75
301.697	307.05
302.154	309.39
302.612	316.41
303.069	253.22
303.527	332.79
303.984	330.45
304.441	267.26
304.899	330.45
305.356	309.39
305.813	325.77
306.27	295.35
306.727	311.73
307.184	337.48
307.641	346.84
308.098	278.96
308.555	278.96
309.012	253.22
309.468	300.03
309.925	243.85
310.382	283.64
310.838	330.45
311.295	295.35
311.751	285.98
312.208	257.9
312.664	253.22
313.12	318.75
313.577	349.18
314.033	311.73
314.489	311.73
314.945	234.49
315.401	323.43
315.857	276.62
316.313	337.48
316.769	351.52
317.225	328.11
317.681	321.09
318.136	414.71
318.592	374.92
319.048	297.69
319.503	374.92
319.959	271.94
320.414	276.62
320.869	295.35
321.325	349.18
321.78	253.22
322.235	346.84
322.691	311.73
323.146	358.54
323.601	243.85
324.056	295.35
324.511	285.98
324.966	332.79
325.421	346.84
325.875	271.94
326.33	335.14
326.785	269.6
327.24	293.01
327.694	304.71
328.149	309.39
328.603	316.41
329.058	321.09
329.512	295.35
329.966	278.96
330.421	267.26
330.875	302.37
331.329	304.71
331.783	302.37
332.237	339.82
332.691	363.22
333.145	360.88
333.599	335.14
334.053	328.11
334.507	318.75
334.96	311.73
335.414	293.01
335.868	293.01
336.321	323.43
336.775	318.75
337.228	314.07
337.682	370.24
338.135	328.11
338.588	367.9
339.042	300.03
339.495	321.09
339.948	316.41
340.401	309.39
340.854	374.92
341.307	323.43
341.76	281.3
342.213	316.41
342.666	323.43
343.119	300.03
343.571	302.37
344.024	318.75
344.477	302.37
344.929	302.37
345.382	342.16
345.834	295.35
346.287	281.3
346.739	295.35
347.191	309.39
347.644	410.03
348.096	288.32
348.548	281.3
349	358.54
349.452	342.16
349.904	339.82
350.356	307.05
350.808	379.61
351.26	398.33
351.711	335.14
352.163	271.94
352.615	353.86
353.066	297.69
353.518	330.45
353.969	311.73
354.421	285.98
354.872	297.69
355.324	330.45
355.775	346.84
356.226	295.35
356.677	297.69
357.128	321.09
357.579	309.39
358.03	332.79
358.481	241.51
358.932	358.54
359.383	332.79
359.834	323.43
360.285	395.99
360.735	325.77
361.186	365.56
361.637	250.88
362.087	377.27
362.538	295.35
362.988	325.77
363.438	332.79
363.889	302.37
364.339	295.35
364.789	283.64
365.239	278.96
365.689	321.09
366.139	239.17
366.589	274.28
367.039	257.9
367.489	264.92
367.939	342.16
368.389	358.54
368.839	342.16
369.288	297.69
369.738	370.24
370.187	325.77
370.637	379.61
371.086	358.54
371.536	302.37
371.985	330.45
372.434	321.09
372.884	269.6
373.333	253.22
373.782	328.11
374.231	276.62
374.68	356.2
375.129	302.37
375.578	290.67
376.027	262.58
376.475	293.01
376.924	290.67
377.373	346.84
377.822	318.75
378.27	300.03
378.719	328.11
379.167	295.35
379.616	309.39
380.064	295.35
380.512	342.16
380.961	281.3
381.409	367.9
381.857	337.48
382.305	307.05
382.753	386.63
383.201	370.24
383.649	342.16
384.097	323.43
384.545	316.41
384.992	304.71
385.44	283.64
385.888	363.22
386.335	344.5
386.783	325.77
387.231	269.6
387.678	342.16
388.125	344.5
388.573	316.41
389.02	330.45
389.467	391.31
389.914	349.18
390.362	353.86
390.809	316.41
391.256	346.84
391.703	311.73
392.15	393.65
392.596	344.5
393.043	358.54
393.49	323.43
393.937	346.84
394.383	295.35
394.83	316.41
395.276	281.3
395.723	353.86
396.169	417.05
396.616	339.82
397.062	335.14
397.508	304.71
397.954	325.77
398.401	335.14
398.847	356.2
399.293	344.5
399.739	255.56
400.185	367.9
400.631	344.5
401.076	323.43
401.522	264.92
401.968	300.03
402.414	346.84
402.859	335.14
403.305	293.01
403.75	271.94
404.196	384.29
404.641	276.62
405.086	363.22
405.532	342.16
405.977	398.33
406.422	342.16
406.867	325.77
407.312	288.32
407.757	330.45
408.202	353.86
408.647	349.18
409.092	363.22
409.537	274.28
409.982	295.35
410.426	307.05
410.871	328.11
411.316	307.05
411.76	309.39
412.205	330.45
412.649	349.18
413.093	398.33
413.538	316.41
413.982	309.39
414.426	300.03
414.87	300.03
415.314	321.09
415.758	335.14
416.202	342.16
416.646	314.07
417.09	323.43
417.534	393.65
417.978	297.69
418.421	349.18
418.865	293.01
419.309	255.56
419.752	300.03
420.196	297.69
420.639	323.43
421.083	351.52
421.526	290.67
421.969	295.35
422.412	302.37
422.856	321.09
423.299	377.27
423.742	323.43
424.185	377.27
424.628	300.03
425.071	323.43
425.513	328.11
425.956	339.82
426.399	290.67
426.842	351.52
427.284	386.63
427.727	332.79
428.169	328.11
428.612	388.97
429.054	293.01
429.497	379.61
429.939	330.45
430.381	337.48
430.823	339.82
431.265	365.56
431.707	363.22
432.149	290.67
432.591	323.43
433.033	300.03
433.475	309.39
433.917	260.24
434.359	351.52
434.8	391.31
435.242	295.35
435.684	342.16
436.125	321.09
436.567	367.9
437.008	297.69
437.449	339.82
437.891	395.99
438.332	356.2
438.773	309.39
439.214	311.73
439.656	271.94
440.097	314.07
440.538	337.48
440.978	314.07
441.419	346.84
441.86	332.79
442.301	377.27
442.742	271.94
443.182	307.05
443.623	304.71
444.063	330.45
444.504	337.48
444.944	360.88
445.385	288.32
445.825	358.54
446.265	328.11
446.706	314.07
447.146	344.5
447.586	353.86
448.026	356.2
448.466	370.24
448.906	363.22
449.346	288.32
449.786	302.37
450.225	342.16
450.665	321.09
451.105	274.28
451.544	321.09
451.984	393.65
452.424	316.41
452.863	314.07
453.302	300.03
453.742	248.54
454.181	337.48
454.62	363.22
455.059	246.2
455.499	323.43
455.938	321.09
456.377	314.07
456.816	302.37
457.254	356.2
457.693	349.18
458.132	314.07
458.571	278.96
459.01	262.58
459.448	309.39
459.887	314.07
460.325	339.82
460.764	325.77
461.202	300.03
461.641	295.35
462.079	274.28
462.517	337.48
462.955	335.14
463.393	267.26
463.832	283.64
464.27	309.39
464.708	393.65
465.145	405.35
465.583	339.82
466.021	384.29
466.459	309.39
466.897	314.07
467.334	318.75
467.772	318.75
468.209	328.11
468.647	314.07
469.084	321.09
469.522	332.79
469.959	323.43
470.396	262.58
470.833	367.9
471.271	300.03
471.708	283.64
472.145	325.77
472.582	323.43
473.019	318.75
473.456	342.16
473.892	318.75
474.329	302.37
474.766	232.15
475.202	370.24
475.639	363.22
476.076	257.9
476.512	318.75
476.949	307.05
477.385	307.05
477.821	283.64
478.258	349.18
478.694	370.24
479.13	330.45
479.566	335.14
480.002	379.61
480.438	262.58
480.874	386.63
481.31	351.52
481.746	311.73
482.181	330.45
482.617	388.97
483.053	398.33
483.488	358.54
483.924	314.07
484.36	342.16
484.795	311.73
485.23	283.64
485.666	285.98
486.101	367.9
486.536	391.31
486.971	276.62
487.407	285.98
487.842	311.73
488.277	332.79
488.712	307.05
489.146	386.63
489.581	353.86
490.016	370.24
490.451	349.18
490.885	381.95
491.32	332.79
491.755	344.5
492.189	344.5
492.624	346.84
493.058	363.22
493.492	325.77
493.927	297.69
494.361	400.67
494.795	300.03
495.229	307.05
495.663	288.32
496.097	321.09
496.531	307.05
496.965	309.39
497.399	321.09
497.833	288.32
498.266	314.07
498.7	307.05
499.134	388.97
499.567	332.79
500.001	335.14
500.434	363.22
500.868	288.32
501.301	302.37
501.734	335.14
502.168	358.54
502.601	269.6
503.034	353.86
503.467	309.39
503.9	269.6
504.333	309.39
504.766	363.22
505.199	335.14
505.632	342.16
506.064	363.22
506.497	271.94
506.93	344.5
507.362	316.41
507.795	339.82
508.227	358.54
508.66	351.52
509.092	316.41
509.524	316.41
509.956	407.69
510.389	295.35
510.821	339.82
511.253	288.32
511.685	283.64
512.117	311.73
512.549	297.69
512.981	332.79
513.412	316.41
513.844	337.48
514.276	300.03
514.707	288.32
515.139	302.37
515.571	335.14
516.002	356.2
516.433	360.88
516.865	335.14
517.296	351.52
517.727	311.73
518.159	295.35
518.59	358.54
519.021	358.54
519.452	353.86
519.883	285.98
520.314	339.82
520.744	351.52
521.175	309.39
521.606	297.69
522.037	307.05
522.467	309.39
522.898	274.28
523.328	309.39
523.759	330.45
524.189	269.6
524.62	285.98
525.05	356.2
525.48	318.75
525.91	318.75
526.341	344.5
526.771	311.73
527.201	337.48
527.631	314.07
528.061	328.11
528.49	297.69
528.92	304.71
529.35	337.48
529.78	307.05
530.209	295.35
530.639	367.9
531.068	330.45
531.498	370.24
531.927	335.14
532.357	311.73
532.786	365.56
533.215	304.71
533.644	339.82
534.074	283.64
534.503	360.88
534.932	337.48
535.361	293.01
535.79	356.2
536.218	304.71
536.647	325.77
537.076	267.26
537.505	398.33
537.933	346.84
538.362	316.41
538.79	307.05
539.219	381.95
539.647	419.39
540.076	285.98
540.504	377.27
540.932	307.05
541.36	293.01
541.788	391.31
542.217	330.45
542.645	342.16
543.073	278.96
543.5	323.43
543.928	335.14
544.356	342.16
544.784	325.77
545.211	349.18
545.639	311.73
546.067	367.9
546.494	293.01
546.922	428.76
547.349	328.11
547.776	314.07
548.204	351.52
548.631	318.75
549.058	372.58
549.485	398.33
549.912	311.73
550.339	325.77
550.766	309.39
551.193	283.64
551.62	414.71
552.047	356.2
552.474	372.58
552.9	309.39
553.327	342.16
553.754	304.71
554.18	295.35
554.607	321.09
555.033	300.03
555.459	330.45
555.886	325.77
556.312	349.18
556.738	351.52
557.164	337.48
557.59	332.79
558.016	316.41
558.442	323.43
558.868	307.05
559.294	267.26
559.72	297.69
560.145	321.09
560.571	410.03
560.997	283.64
561.422	410.03
561.848	321.09
562.273	257.9
562.699	293.01
563.124	398.33
563.549	367.9
563.974	365.56
564.4	293.01
564.825	328.11
565.25	330.45
565.675	276.62
566.1	346.84
566.525	300.03
566.95	346.84
567.374	323.43
567.799	330.45
568.224	323.43
568.648	276.62
569.073	323.43
569.497	302.37
569.922	304.71
570.346	358.54
570.771	339.82
571.195	264.92
571.619	374.92
572.043	293.01
572.467	318.75
572.891	318.75
573.315	267.26
573.739	318.75
574.163	314.07
574.587	323.43
575.011	328.11
575.435	307.05
575.858	323.43
576.282	367.9
576.705	302.37
577.129	370.24
577.552	274.28
577.976	307.05
578.399	262.58
578.822	365.56
579.245	363.22
579.669	346.84
580.092	288.32
580.515	356.2
580.938	295.35
581.361	297.69
581.784	314.07
582.206	335.14
582.629	328.11
583.052	410.03
583.474	293.01
583.897	307.05
584.32	381.95
584.742	370.24
585.165	363.22
585.587	342.16
586.009	349.18
586.431	288.32
586.854	353.86
587.276	293.01
587.698	321.09
588.12	407.69
588.542	353.86
588.964	316.41
589.386	337.48
589.807	337.48
590.229	283.64
590.651	372.58
591.073	330.45
591.494	332.79
591.916	281.3
592.337	323.43
592.759	330.45
593.18	328.11
593.601	297.69
594.022	365.56
594.444	288.32
594.865	304.71
595.286	346.84
595.707	335.14
596.128	332.79
596.549	363.22
596.97	274.28
597.39	323.43
597.811	330.45
598.232	311.73
598.652	339.82
599.073	384.29
599.494	274.28
599.914	328.11
600.334	323.43
600.755	328.11
601.175	281.3
601.595	328.11
602.015	300.03
602.436	344.5
602.856	445.14
603.276	295.35
603.696	328.11
604.115	351.52
604.535	260.24
604.955	353.86
605.375	363.22
605.794	374.92
606.214	302.37
606.634	325.77
607.053	274.28
607.473	344.5
607.892	374.92
608.311	351.52
608.731	325.77
609.15	314.07
609.569	367.9
609.988	314.07
610.407	288.32
610.826	349.18
611.245	325.77
611.664	365.56
612.083	321.09
612.501	311.73
612.92	309.39
613.339	307.05
613.757	351.52
614.176	318.75
614.594	323.43
615.013	318.75
615.431	311.73
615.85	307.05
616.268	332.79
616.686	349.18
617.104	393.65
617.522	281.3
617.94	307.05
618.358	339.82
618.776	403.01
619.194	360.88
619.612	323.43
620.03	250.88
620.447	314.07
620.865	365.56
621.282	372.58
621.7	321.09
622.117	363.22
622.535	349.18
622.952	309.39
623.369	288.32
623.787	351.52
624.204	311.73
624.621	285.98
625.038	285.98
625.455	302.37
625.872	297.69
626.289	318.75
626.706	321.09
627.123	283.64
627.539	323.43
627.956	316.41
628.373	342.16
628.789	281.3
629.206	300.03
629.622	288.32
630.038	311.73
630.455	316.41
630.871	337.48
631.287	346.84
631.703	349.18
632.12	342.16
632.536	269.6
632.952	281.3
633.368	332.79
633.783	360.88
634.199	353.86
634.615	278.96
635.031	304.71
635.446	283.64
635.862	372.58
636.277	339.82
636.693	283.64
637.108	274.28
637.524	281.3
637.939	321.09
638.354	281.3
638.77	323.43
639.185	342.16
639.6	290.67
640.015	374.92
640.43	248.54
640.845	274.28
641.259	339.82
641.674	309.39
642.089	351.52
642.504	316.41
642.918	314.07
643.333	356.2
643.747	342.16
644.162	316.41
644.576	349.18
644.991	363.22
645.405	365.56
645.819	278.96
646.233	377.27
646.647	323.43
647.061	316.41
647.475	276.62
647.889	330.45
648.303	337.48
648.717	307.05
649.131	321.09
649.545	372.58
649.958	304.71
650.372	342.16
650.785	358.54
651.199	365.56
651.612	302.37
652.026	349.18
652.439	311.73
652.852	304.71
653.266	285.98
653.679	276.62
654.092	239.17
654.505	318.75
654.918	274.28
655.331	377.27
655.744	311.73
656.156	316.41
656.569	356.2
656.982	318.75
657.394	337.48
657.807	351.52
658.22	372.58
658.632	318.75
659.044	285.98
659.457	300.03
659.869	349.18
660.281	321.09
660.693	262.58
661.106	307.05
661.518	388.97
661.93	309.39
662.342	309.39
662.754	262.58
663.165	288.32
663.577	339.82
663.989	431.1
664.401	318.75
664.812	314.07
665.224	283.64
665.635	388.97
666.047	323.43
666.458	328.11
666.869	330.45
667.281	243.85
667.692	344.5
668.103	372.58
668.514	346.84
668.925	351.52
669.336	300.03
669.747	400.67
670.158	302.37
670.569	356.2
670.979	288.32
671.39	356.2
671.801	264.92
672.211	384.29
672.622	314.07
673.032	325.77
673.443	234.49
673.853	384.29
674.263	351.52
674.674	274.28
675.084	335.14
675.494	314.07
675.904	281.3
676.314	349.18
676.724	346.84
677.134	349.18
677.544	325.77
677.953	332.79
678.363	309.39
678.773	328.11
679.182	309.39
679.592	297.69
680.001	353.86
680.411	304.71
680.82	332.79
681.23	346.84
681.639	283.64
682.048	311.73
682.457	325.77
682.866	377.27
683.275	342.16
683.684	304.71
684.093	309.39
684.502	325.77
684.911	323.43
685.32	321.09
685.728	339.82
686.137	295.35
686.546	311.73
686.954	349.18
687.363	276.62
687.771	262.58
688.179	255.56
688.588	337.48
688.996	271.94
689.404	339.82
689.812	342.16
690.22	290.67
690.628	318.75
691.036	328.11
691.444	403.01
691.852	325.77
692.26	403.01
692.667	370.24
693.075	388.97
693.483	323.43
693.89	372.58
694.298	314.07
694.705	302.37
695.112	344.5
695.52	400.67
695.927	325.77
696.334	316.41
696.741	342.16
697.148	335.14
697.555	349.18
697.962	278.96
698.369	344.5
698.776	302.37
699.183	325.77
699.59	304.71
699.996	321.09
700.403	344.5
700.81	337.48
701.216	325.77
701.623	264.92
702.029	295.35
702.435	302.37
702.842	351.52
703.248	335.14
703.654	290.67
704.06	372.58
704.466	323.43
704.872	264.92
705.278	316.41
705.684	379.61
706.09	307.05
706.496	311.73
706.901	248.54
707.307	316.41
707.712	353.86
708.118	269.6
708.523	370.24
708.929	316.41
709.334	307.05
709.74	349.18
710.145	293.01
710.55	377.27
710.955	302.37
711.36	330.45
711.765	281.3
712.17	388.97
712.575	332.79
712.98	847.71
713.385	314.07
713.789	379.61
714.194	325.77
714.599	372.58
715.003	339.82
715.408	349.18
715.812	335.14
716.217	297.69
716.621	293.01
717.025	276.62
717.429	342.16
717.833	335.14
718.238	297.69
718.642	281.3
719.046	302.37
719.449	339.82
719.853	353.86
720.257	307.05
720.661	351.52
721.065	374.92
721.468	318.75
721.872	321.09
722.275	325.77
722.679	316.41
723.082	332.79
723.485	276.62
723.889	281.3
724.292	255.56
724.695	278.96
725.098	405.35
725.501	363.22
725.904	314.07
726.307	201.72
726.71	321.09
727.113	360.88
727.516	330.45
727.918	433.44
728.321	367.9
728.724	337.48
729.126	283.64
729.529	328.11
729.931	300.03
730.333	337.48
730.736	309.39
731.138	421.74
731.54	309.39
731.942	309.39
732.344	342.16
732.746	271.94
733.148	346.84
733.55	323.43
733.952	304.71
734.354	311.73
734.756	342.16
735.157	290.67
735.559	386.63
735.96	316.41
736.362	309.39
736.763	260.24
737.165	337.48
737.566	342.16
737.967	335.14
738.368	304.71
738.77	325.77
739.171	323.43
739.572	316.41
739.973	307.05
740.374	353.86
740.774	344.5
741.175	302.37
741.576	260.24
741.977	307.05
742.377	325.77
742.778	349.18
743.178	323.43
743.579	335.14
743.979	330.45
744.379	381.95
744.78	360.88
745.18	325.77
745.58	367.9
745.98	337.48
746.38	339.82
746.78	353.86
747.18	264.92
747.58	276.62
747.98	295.35
748.38	304.71
748.779	297.69
749.179	295.35
749.578	269.6
749.978	321.09
750.377	325.77
750.777	316.41
751.176	377.27
751.575	339.82
751.975	257.9
752.374	278.96
752.773	278.96
753.172	342.16
753.571	304.71
753.97	339.82
754.369	358.54
754.768	339.82
755.166	321.09
755.565	311.73
755.964	342.16
756.362	384.29
756.761	239.17
757.159	365.56
757.558	323.43
757.956	269.6
758.354	398.33
758.753	293.01
759.151	351.52
759.549	278.96
759.947	325.77
760.345	377.27
760.743	314.07
761.141	330.45
761.539	349.18
761.936	288.32
762.334	351.52
762.732	321.09
763.129	281.3
763.527	328.11
763.924	344.5
764.322	353.86
764.719	356.2
765.117	267.26
765.514	346.84
765.911	349.18
766.308	339.82
766.705	295.35
767.102	321.09
767.499	328.11
767.896	314.07
768.293	304.71
768.69	377.27
769.086	346.84
769.483	285.98
769.88	311.73
770.276	288.32
770.673	342.16
771.069	346.84
771.466	344.5
771.862	309.39
772.258	321.09
772.654	236.83
773.05	318.75
773.447	344.5
773.843	304.71
774.239	262.58
774.634	314.07
775.03	290.67
775.426	321.09
775.822	269.6
776.218	379.61
776.613	278.96
777.009	356.2
777.404	304.71
777.8	358.54
778.195	325.77
778.59	316.41
778.986	318.75
779.381	297.69
779.776	285.98
780.171	288.32
780.566	321.09
780.961	342.16
781.356	330.45
781.751	316.41
782.146	349.18
782.54	365.56
782.935	278.96
783.33	332.79
783.724	321.09
784.119	304.71
784.513	342.16
784.908	302.37
785.302	293.01
785.696	300.03
786.09	325.77
786.485	321.09
786.879	300.03
787.273	332.79
787.667	360.88
788.061	307.05
788.454	351.52
788.848	356.2
789.242	274.28
789.636	325.77
790.029	293.01
790.423	349.18
790.816	318.75
791.21	323.43
791.603	335.14
791.997	328.11
792.39	314.07
792.783	314.07
793.176	335.14
793.569	344.5
793.962	309.39
794.355	367.9
794.748	358.54
795.141	316.41
795.534	353.86
795.927	342.16
796.319	328.11
796.712	290.67
797.105	363.22
797.497	293.01
797.89	311.73
798.282	304.71
798.674	323.43
799.067	353.86
799.459	318.75
799.851	356.2
800.243	321.09
800.635	297.69
801.027	372.58
801.419	342.16
801.811	309.39
802.203	332.79
802.594	377.27
802.986	339.82
803.378	302.37
803.769	234.49
804.161	302.37
804.552	281.3
804.944	346.84
805.335	337.48
805.726	314.07
806.118	332.79
806.509	295.35
806.9	314.07
807.291	346.84
807.682	293.01
808.073	330.45
808.464	321.09
808.855	339.82
809.245	281.3
809.636	309.39
810.027	262.58
810.417	243.85
810.808	323.43
811.198	318.75
811.589	323.43
811.979	290.67
812.369	295.35
812.759	325.77
813.15	285.98
813.54	325.77
813.93	304.71
814.32	283.64
814.71	339.82
815.1	264.92
815.489	335.14
815.879	321.09
816.269	318.75
816.658	328.11
817.048	276.62
817.438	297.69
817.827	285.98
818.216	295.35
818.606	295.35
818.995	307.05
819.384	349.18
819.773	307.05
820.163	255.56
820.552	377.27
820.941	321.09
821.33	276.62
821.718	339.82
822.107	360.88
822.496	276.62
822.885	346.84
823.273	311.73
823.662	337.48
824.05	302.37
824.439	278.96
824.827	304.71
825.216	328.11
825.604	309.39
825.992	309.39
826.38	330.45
826.768	307.05
827.156	332.79
827.544	304.71
827.932	328.11
828.32	304.71
828.708	302.37
829.096	269.6
829.483	339.82
829.871	300.03
830.259	316.41
830.646	384.29
831.034	335.14
831.421	304.71
831.808	356.2
832.196	274.28
832.583	351.52
832.97	367.9
833.357	311.73
833.744	295.35
834.131	300.03
834.518	339.82
834.905	323.43
835.292	346.84
835.678	386.63
836.065	309.39
836.452	328.11
836.838	344.5
837.225	356.2
837.611	234.49
837.998	356.2
838.384	304.71
838.77	325.77
839.157	285.98
839.543	309.39
839.929	304.71
840.315	344.5
840.701	358.54
841.087	278.96
841.473	370.24
841.858	363.22
842.244	363.22
842.63	295.35
843.015	335.14
843.401	344.5
843.787	307.05
844.172	335.14
844.557	311.73
844.943	325.77
845.328	302.37
845.713	269.6
846.098	297.69
846.483	300.03
846.868	330.45
847.253	346.84
847.638	330.45
848.023	330.45
848.408	342.16
848.793	314.07
849.177	257.9
849.562	323.43
849.947	435.78
850.331	367.9
850.715	353.86
851.1	325.77
851.484	335.14
851.868	325.77
852.253	276.62
852.637	269.6
853.021	321.09
853.405	288.32
853.789	274.28
854.173	302.37
854.557	325.77
854.94	267.26
855.324	283.64
855.708	365.56
856.091	314.07
856.475	269.6
856.858	283.64
857.242	253.22
857.625	356.2
858.009	325.77
858.392	316.41
858.775	300.03
859.158	351.52
859.541	370.24
859.924	302.37
860.307	278.96
860.69	304.71
861.073	344.5
861.456	358.54
861.838	351.52
862.221	283.64
862.604	400.67
862.986	278.96
863.369	318.75
863.751	363.22
864.133	356.2
864.516	316.41
864.898	339.82
865.28	342.16
865.662	321.09
866.044	300.03
866.426	274.28
866.808	365.56
867.19	297.69
867.572	314.07
867.954	351.52
868.336	267.26
868.717	304.71
869.099	307.05
869.48	302.37
869.862	302.37
870.243	288.32
870.625	283.64
871.006	311.73
871.387	304.71
871.768	285.98
872.149	335.14
872.53	300.03
872.911	271.94
873.292	339.82
873.673	321.09
874.054	302.37
874.435	285.98
874.815	290.67
875.196	370.24
875.577	262.58
875.957	346.84
876.338	302.37
876.718	304.71
877.098	381.95
877.479	370.24
877.859	328.11
878.239	346.84
878.619	307.05
878.999	335.14
879.379	391.31
879.759	351.52
880.139	328.11
880.519	330.45
880.898	274.28
881.278	311.73
881.658	395.99
882.037	295.35
882.417	388.97
882.796	337.48
883.176	267.26
883.555	318.75
883.934	358.54
884.313	269.6
884.693	328.11
885.072	339.82
885.451	356.2
885.83	281.3
886.209	302.37
886.587	300.03
886.966	285.98
887.345	253.22
887.724	374.92
888.102	370.24
888.481	412.37
888.859	330.45
889.238	290.67
889.616	304.71
889.994	269.6
890.373	431.1
890.751	300.03
891.129	323.43
891.507	288.32
891.885	264.92
892.263	370.24
892.641	360.88
893.019	278.96
893.396	372.58
893.774	309.39
894.152	335.14
894.529	316.41
894.907	344.5
895.284	321.09
895.662	314.07
896.039	325.77
896.416	372.58
896.794	344.5
897.171	332.79
897.548	311.73
897.925	236.83
898.302	283.64
898.679	288.32
899.056	339.82
899.433	351.52
899.809	309.39
900.186	267.26
900.563	344.5
900.939	314.07
901.316	377.27
901.692	370.24
902.069	330.45
902.445	250.88
902.821	278.96
903.197	262.58
903.574	236.83
903.95	304.71
904.326	363.22
904.702	349.18
905.078	285.98
905.454	323.43
905.829	321.09
906.205	330.45
906.581	281.3
906.956	302.37
907.332	297.69
907.707	290.67
908.083	309.39
908.458	262.58
908.833	323.43
909.209	321.09
909.584	271.94
909.959	295.35
910.334	337.48
910.709	349.18
911.084	295.35
911.459	314.07
911.834	349.18
912.209	314.07
912.583	309.39
912.958	307.05
913.333	353.86
913.707	323.43
914.082	297.69
914.456	262.58
914.83	330.45
915.205	335.14
915.579	311.73
915.953	278.96
916.327	285.98
916.701	356.2
917.075	367.9
917.449	379.61
917.823	297.69
918.197	381.95
918.571	323.43
918.944	304.71
919.318	307.05
919.692	311.73
920.065	325.77
920.438	316.41
920.812	358.54
921.185	330.45
921.558	388.97
921.932	255.56
922.305	288.32
922.678	346.84
923.051	374.92
923.424	316.41
923.797	285.98
924.17	311.73
924.542	276.62
924.915	398.33
925.288	274.28
925.661	307.05
926.033	290.67
926.406	321.09
926.778	372.58
927.15	323.43
927.523	325.77
927.895	225.13
928.267	332.79
928.639	316.41
929.011	316.41
929.383	311.73
929.755	248.54
930.127	344.5
930.499	274.28
930.871	311.73
931.242	342.16
931.614	325.77
931.986	246.2
932.357	314.07
932.729	342.16
933.1	316.41
933.471	288.32
933.843	314.07
934.214	311.73
934.585	353.86
934.956	307.05
935.327	330.45
935.698	293.01
936.069	309.39
936.44	353.86
936.811	297.69
937.182	318.75
937.552	290.67
937.923	304.71
938.293	297.69
938.664	372.58
939.034	281.3
939.405	323.43
939.775	321.09
940.145	278.96
940.516	269.6
940.886	276.62
941.256	311.73
941.626	314.07
941.996	307.05
942.366	293.01
942.735	353.86
943.105	304.71
943.475	250.88
943.845	330.45
944.214	328.11
944.584	330.45
944.953	293.01
945.323	353.86
945.692	300.03
946.061	295.35
946.43	412.37
946.8	309.39
947.169	302.37
947.538	304.71
947.907	274.28
948.276	328.11
948.645	332.79
949.013	346.84
949.382	321.09
949.751	304.71
950.119	276.62
950.488	335.14
950.857	351.52
951.225	398.33
951.593	311.73
951.962	330.45
952.33	367.9
952.698	339.82
953.066	353.86
953.434	318.75
953.802	285.98
954.17	346.84
954.538	356.2
954.906	288.32
955.274	356.2
955.642	367.9
956.009	304.71
956.377	295.35
956.744	353.86
957.112	342.16
957.479	304.71
957.847	316.41
958.214	358.54
958.581	283.64
958.948	288.32
959.315	381.95
959.683	377.27
960.05	384.29
960.416	309.39
960.783	260.24
961.15	367.9
961.517	304.71
961.884	309.39
962.25	271.94
962.617	297.69
962.983	304.71
963.35	307.05
963.716	379.61
964.082	379.61
964.449	330.45
964.815	302.37
965.181	325.77
965.547	316.41
965.913	316.41
966.279	281.3
966.645	243.85
967.011	363.22
967.377	264.92
967.742	297.69
968.108	328.11
968.474	309.39
968.839	339.82
969.205	257.9
969.57	311.73
969.935	253.22
970.301	295.35
970.666	323.43
971.031	321.09
971.396	271.94
971.761	351.52
972.126	297.69
972.491	358.54
972.856	318.75
973.221	332.79
973.586	311.73
973.95	339.82
974.315	374.92
974.679	281.3
975.044	316.41
975.408	342.16
975.773	281.3
976.137	318.75
976.501	342.16
976.866	264.92
977.23	283.64
977.594	332.79
977.958	323.43
978.322	316.41
978.686	300.03
979.049	295.35
979.413	349.18
979.777	316.41
980.141	321.09
980.504	332.79
980.868	311.73
981.231	360.88
981.595	325.77
981.958	323.43
982.321	321.09
982.684	295.35
983.048	283.64
983.411	302.37
983.774	353.86
984.137	300.03
984.5	335.14
984.862	342.16
985.225	332.79
985.588	325.77
985.951	281.3
986.313	236.83
986.676	302.37
987.038	307.05
987.401	293.01
987.763	309.39
988.125	300.03
988.488	290.67
988.85	349.18
989.212	318.75
989.574	285.98
989.936	365.56
990.298	337.48
990.66	314.07
991.022	300.03
991.383	335.14
991.745	304.71
992.107	304.71
992.468	358.54
992.83	323.43
993.191	386.63
993.553	325.77
993.914	246.2
994.275	290.67
994.637	330.45
994.998	300.03
995.359	269.6
995.72	239.17
996.081	393.65
996.442	285.98
996.803	276.62
997.163	316.41
997.524	321.09
997.885	332.79
998.245	307.05
998.606	260.24
998.966	297.69
999.327	300.03
999.687	325.77
1000.047	358.54
1000.408	321.09
1000.768	288.32
1001.128	309.39
1001.488	274.28
1001.848	328.11
1002.208	342.16
1002.568	321.09
1002.927	295.35
1003.287	337.48
1003.647	337.48
1004.007	297.69
1004.366	314.07
1004.726	325.77
1005.085	365.56
1005.444	318.75
1005.804	316.41
1006.163	344.5
1006.522	330.45
1006.881	304.71
1007.24	337.48
1007.599	288.32
1007.958	349.18
1008.317	379.61
1008.676	288.32
1009.035	314.07
1009.393	344.5
1009.752	337.48
1010.111	321.09
1010.469	344.5
1010.828	311.73
1011.186	311.73
1011.544	295.35
1011.903	285.98
1012.261	311.73
1012.619	337.48
1012.977	271.94
1013.335	330.45
1013.693	325.77
1014.051	281.3
1014.409	314.07
1014.767	332.79
1015.124	300.03
1015.482	339.82
1015.84	346.84
1016.197	330.45
1016.555	297.69
1016.912	271.94
1017.269	323.43
1017.627	393.65
1017.984	281.3
1018.341	325.77
1018.698	360.88
1019.055	316.41
1019.412	239.17
1019.769	328.11
1020.126	297.69
1020.483	302.37
1020.84	330.45
1021.196	372.58
1021.553	365.56
1021.909	353.86
1022.266	318.75
1022.622	304.71
1022.979	400.67
1023.335	328.11
1023.691	377.27
1024.047	332.79
1024.404	311.73
1024.76	325.77
1025.116	309.39
1025.472	328.11
1025.827	325.77
1026.183	295.35
1026.539	311.73
1026.895	365.56
1027.25	304.71
1027.606	321.09
1027.961	400.67
1028.317	271.94
1028.672	229.81
1029.028	325.77
1029.383	351.52
1029.738	330.45
1030.093	346.84
1030.448	302.37
1030.803	325.77
1031.158	307.05
1031.513	328.11
1031.868	342.16
1032.223	332.79
1032.577	293.01
1032.932	293.01
1033.287	304.71
1033.641	307.05
1033.996	311.73
1034.35	342.16
1034.704	374.92
1035.059	325.77
1035.413	297.69
1035.767	297.69
1036.121	297.69
