Data from Al_FLMS009871__868__16-14-59-628.txt Node

Date: Fri Mar 08 16:14:59 CST 2024
User: pe5414po
Spectrometer: FLMS00987
Trigger mode: 0
Integration Time (sec): 1.000000E-1
Scans to average: 1
Electric dark correction enabled: true
Nonlinearity correction enabled: false
Boxcar width: 0
XAxis mode: Wavelengths
Number of Pixels in Spectrum: 2048
>>>>>Begin Spectral Data<<<<<
188.938	-99.18
189.409	-99.18
189.879	-99.18
190.349	-124.93
190.819	-92.16
191.29	-66.41
191.76	-115.56
192.23	-50.03
192.7	-117.9
193.17	-68.75
193.64	-21.94
194.109	-38.33
194.579	-14.92
195.049	-0.88
195.519	27.21
195.988	-0.88
196.458	38.91
196.927	102.11
197.397	104.45
197.866	113.81
198.336	109.13
198.805	109.13
199.274	118.49
199.744	216.79
200.213	179.34
200.682	195.73
201.151	186.37
201.62	223.81
202.089	226.15
202.558	249.56
203.027	258.92
203.495	254.24
203.964	244.88
204.433	240.2
204.902	289.35
205.37	303.39
205.839	347.86
206.307	324.46
206.776	289.35
207.244	282.33
207.712	317.44
208.181	347.86
208.649	331.48
209.117	324.46
209.585	333.82
210.053	287.01
210.521	324.46
210.989	378.29
211.457	261.26
211.925	308.07
212.393	289.35
212.861	322.12
213.328	303.39
213.796	291.69
214.264	324.46
214.731	263.6
215.199	251.9
215.666	256.58
216.133	333.82
216.601	294.03
217.068	249.56
217.535	263.6
218.003	275.31
218.47	233.18
218.937	191.05
219.404	294.03
219.871	258.92
220.338	289.35
220.805	282.33
221.271	233.18
221.738	275.31
222.205	275.31
222.671	296.37
223.138	240.2
223.605	305.73
224.071	279.99
224.538	289.35
225.004	247.22
225.47	251.9
225.937	223.81
226.403	230.84
226.869	249.56
227.335	270.62
227.801	277.65
228.267	263.6
228.733	228.49
229.199	172.32
229.665	319.78
230.131	312.75
230.597	287.01
231.062	275.31
231.528	265.94
231.994	268.28
232.459	256.58
232.925	265.94
233.39	298.71
233.856	279.99
234.321	265.94
234.786	331.48
235.252	251.9
235.717	310.41
236.182	235.52
236.647	270.62
237.112	312.75
237.577	310.41
238.042	254.24
238.507	268.28
238.972	249.56
239.436	261.26
239.901	319.78
240.366	254.24
240.83	326.8
241.295	275.31
241.76	282.33
242.224	263.6
242.688	272.96
243.153	301.05
243.617	256.58
244.081	277.65
244.545	216.79
245.01	240.2
245.474	216.79
245.938	303.39
246.402	237.86
246.866	254.24
247.33	322.12
247.793	319.78
248.257	270.62
248.721	270.62
249.185	277.65
249.648	317.44
250.112	230.84
250.575	287.01
251.039	329.14
251.502	284.67
251.965	282.33
252.429	270.62
252.892	294.03
253.355	347.86
253.818	294.03
254.281	333.82
254.744	282.33
255.207	308.07
255.67	268.28
256.133	303.39
256.596	326.8
257.059	319.78
257.522	235.52
257.984	256.58
258.447	195.73
258.909	315.09
259.372	230.84
259.834	310.41
260.297	312.75
260.759	310.41
261.221	279.99
261.684	270.62
262.146	315.09
262.608	298.71
263.07	272.96
263.532	310.41
263.994	240.2
264.456	298.71
264.918	263.6
265.38	315.09
265.842	301.05
266.303	303.39
266.765	291.69
267.227	268.28
267.688	237.86
268.15	277.65
268.611	261.26
269.072	287.01
269.534	326.8
269.995	270.62
270.456	261.26
270.918	333.82
271.379	289.35
271.84	212.11
272.301	315.09
272.762	301.05
273.223	279.99
273.684	296.37
274.144	284.67
274.605	308.07
275.066	301.05
275.527	319.78
275.987	317.44
276.448	247.22
276.908	287.01
277.369	287.01
277.829	338.5
278.289	315.09
278.75	284.67
279.21	279.99
279.67	247.22
280.13	291.69
280.59	294.03
281.05	294.03
281.51	357.22
281.97	265.94
282.43	282.33
282.89	261.26
283.35	331.48
283.809	263.6
284.269	284.67
284.729	244.88
285.188	352.54
285.648	322.12
286.107	244.88
286.567	265.94
287.026	305.73
287.485	247.22
287.944	284.67
288.404	282.33
288.863	261.26
289.322	289.35
289.781	261.26
290.24	284.67
290.699	287.01
291.158	263.6
291.616	310.41
292.075	216.79
292.534	237.86
292.992	308.07
293.451	347.86
293.91	338.5
294.368	287.01
294.827	340.84
295.285	268.28
295.743	291.69
296.202	272.96
296.66	345.52
297.118	298.71
297.576	331.48
298.034	291.69
298.492	315.09
298.95	305.73
299.408	343.18
299.866	354.88
300.324	305.73
300.781	359.56
301.239	298.71
301.697	312.75
302.154	258.92
302.612	406.38
303.069	317.44
303.527	329.14
303.984	247.22
304.441	322.12
304.899	340.84
305.356	296.37
305.813	240.2
306.27	256.58
306.727	284.67
307.184	336.16
307.641	331.48
308.098	261.26
308.555	303.39
309.012	317.44
309.468	268.28
309.925	294.03
310.382	272.96
310.838	289.35
311.295	301.05
311.751	279.99
312.208	223.81
312.664	277.65
313.12	361.91
313.577	371.27
314.033	338.5
314.489	315.09
314.945	275.31
315.401	326.8
315.857	336.16
316.313	319.78
316.769	242.54
317.225	312.75
317.681	347.86
318.136	268.28
318.592	268.28
319.048	333.82
319.503	303.39
319.959	272.96
320.414	326.8
320.869	340.84
321.325	322.12
321.78	373.61
322.235	310.41
322.691	333.82
323.146	303.39
323.601	294.03
324.056	305.73
324.511	291.69
324.966	317.44
325.421	289.35
325.875	237.86
326.33	322.12
326.785	338.5
327.24	296.37
327.694	282.33
328.149	256.58
328.603	308.07
329.058	408.72
329.512	298.71
329.966	287.01
330.421	312.75
330.875	385.31
331.329	265.94
331.783	263.6
332.237	294.03
332.691	251.9
333.145	333.82
333.599	322.12
334.053	301.05
334.507	331.48
334.96	296.37
335.414	331.48
335.868	303.39
336.321	296.37
336.775	289.35
337.228	317.44
337.682	340.84
338.135	322.12
338.588	265.94
339.042	315.09
339.495	361.91
339.948	331.48
340.401	298.71
340.854	279.99
341.307	317.44
341.76	322.12
342.213	303.39
342.666	258.92
343.119	305.73
343.571	347.86
344.024	336.16
344.477	279.99
344.929	317.44
345.382	284.67
345.834	347.86
346.287	244.88
346.739	277.65
347.191	361.91
347.644	308.07
348.096	324.46
348.548	277.65
349	289.35
349.452	345.52
349.904	272.96
350.356	275.31
350.808	247.22
351.26	296.37
351.711	305.73
352.163	343.18
352.615	312.75
353.066	308.07
353.518	378.29
353.969	303.39
354.421	256.58
354.872	308.07
355.324	315.09
355.775	364.25
356.226	298.71
356.677	317.44
357.128	305.73
357.579	336.16
358.03	329.14
358.481	282.33
358.932	310.41
359.383	265.94
359.834	343.18
360.285	333.82
360.735	277.65
361.186	343.18
361.637	336.16
362.087	308.07
362.538	298.71
362.988	340.84
363.438	317.44
363.889	301.05
364.339	324.46
364.789	305.73
365.239	345.52
365.689	333.82
366.139	347.86
366.589	340.84
367.039	303.39
367.489	338.5
367.939	279.99
368.389	305.73
368.839	279.99
369.288	359.56
369.738	287.01
370.187	333.82
370.637	261.26
371.086	291.69
371.536	247.22
371.985	284.67
372.434	294.03
372.884	230.84
373.333	366.59
373.782	270.62
374.231	233.18
374.68	378.29
375.129	354.88
375.578	329.14
376.027	305.73
376.475	305.73
376.924	317.44
377.373	319.78
377.822	315.09
378.27	326.8
378.719	317.44
379.167	315.09
379.616	301.05
380.064	340.84
380.512	305.73
380.961	305.73
381.409	289.35
381.857	371.27
382.305	294.03
382.753	336.16
383.201	237.86
383.649	343.18
384.097	378.29
384.545	265.94
384.992	272.96
385.44	308.07
385.888	289.35
386.335	322.12
386.783	364.25
387.231	343.18
387.678	310.41
388.125	310.41
388.573	326.8
389.02	282.33
389.467	336.16
389.914	352.54
390.362	272.96
390.809	343.18
391.256	277.65
391.703	282.33
392.15	289.35
392.596	329.14
393.043	326.8
393.49	251.9
393.937	315.09
394.383	329.14
394.83	268.28
395.276	333.82
395.723	287.01
396.169	247.22
396.616	301.05
397.062	303.39
397.508	275.31
397.954	326.8
398.401	312.75
398.847	282.33
399.293	279.99
399.739	350.2
400.185	347.86
400.631	331.48
401.076	310.41
401.522	347.86
401.968	303.39
402.414	408.72
402.859	289.35
403.305	207.43
403.75	343.18
404.196	308.07
404.641	322.12
405.086	329.14
405.532	333.82
405.977	279.99
406.422	315.09
406.867	326.8
407.312	329.14
407.757	326.8
408.202	319.78
408.647	256.58
409.092	310.41
409.537	347.86
409.982	385.31
410.426	305.73
410.871	303.39
411.316	272.96
411.76	319.78
412.205	287.01
412.649	336.16
413.093	415.74
413.538	347.86
413.982	319.78
414.426	331.48
414.87	296.37
415.314	350.2
415.758	315.09
416.202	343.18
416.646	331.48
417.09	354.88
417.534	359.56
417.978	326.8
418.421	340.84
418.865	439.14
419.309	319.78
419.752	387.65
420.196	305.73
420.639	294.03
421.083	282.33
421.526	343.18
421.969	279.99
422.412	326.8
422.856	303.39
423.299	324.46
423.742	401.69
424.185	282.33
424.628	324.46
425.071	275.31
425.513	242.54
425.956	319.78
426.399	301.05
426.842	265.94
427.284	317.44
427.727	333.82
428.169	343.18
428.612	296.37
429.054	345.52
429.497	347.86
429.939	350.2
430.381	331.48
430.823	331.48
431.265	329.14
431.707	361.91
432.149	326.8
432.591	251.9
433.033	322.12
433.475	291.69
433.917	322.12
434.359	319.78
434.8	333.82
435.242	317.44
435.684	333.82
436.125	294.03
436.567	324.46
437.008	317.44
437.449	343.18
437.891	364.25
438.332	368.93
438.773	312.75
439.214	258.92
439.656	308.07
440.097	343.18
440.538	303.39
440.978	359.56
441.419	364.25
441.86	305.73
442.301	326.8
442.742	336.16
443.182	326.8
443.623	305.73
444.063	265.94
444.504	361.91
444.944	296.37
445.385	305.73
445.825	336.16
446.265	303.39
446.706	303.39
447.146	317.44
447.586	284.67
448.026	324.46
448.466	336.16
448.906	359.56
449.346	333.82
449.786	326.8
450.225	308.07
450.665	287.01
451.105	275.31
451.544	298.71
451.984	324.46
452.424	310.41
452.863	312.75
453.302	294.03
453.742	258.92
454.181	312.75
454.62	375.95
455.059	336.16
455.499	265.94
455.938	326.8
456.377	298.71
456.816	282.33
457.254	329.14
457.693	345.52
458.132	413.4
458.571	319.78
459.01	357.22
459.448	329.14
459.887	324.46
460.325	301.05
460.764	258.92
461.202	282.33
461.641	301.05
462.079	275.31
462.517	315.09
462.955	298.71
463.393	324.46
463.832	301.05
464.27	331.48
464.708	322.12
465.145	301.05
465.583	336.16
466.021	310.41
466.459	322.12
466.897	298.71
467.334	338.5
467.772	319.78
468.209	347.86
468.647	308.07
469.084	310.41
469.522	305.73
469.959	347.86
470.396	324.46
470.833	343.18
471.271	272.96
471.708	251.9
472.145	436.8
472.582	270.62
473.019	298.71
473.456	361.91
473.892	371.27
474.329	298.71
474.766	319.78
475.202	287.01
475.639	331.48
476.076	284.67
476.512	301.05
476.949	329.14
477.385	340.84
477.821	317.44
478.258	289.35
478.694	319.78
479.13	287.01
479.566	242.54
480.002	305.73
480.438	244.88
480.874	301.05
481.31	303.39
481.746	301.05
482.181	317.44
482.617	338.5
483.053	291.69
483.488	256.58
483.924	301.05
484.36	324.46
484.795	291.69
485.23	352.54
485.666	359.56
486.101	343.18
486.536	359.56
486.971	272.96
487.407	364.25
487.842	298.71
488.277	284.67
488.712	331.48
489.146	329.14
489.581	371.27
490.016	324.46
490.451	336.16
490.885	298.71
491.32	329.14
491.755	345.52
492.189	275.31
492.624	291.69
493.058	389.99
493.492	291.69
493.927	315.09
494.361	322.12
494.795	202.75
495.229	289.35
495.663	296.37
496.097	336.16
496.531	294.03
496.965	265.94
497.399	305.73
497.833	331.48
498.266	361.91
498.7	298.71
499.134	308.07
499.567	411.06
500.001	373.61
500.434	312.75
500.868	315.09
501.301	301.05
501.734	296.37
502.168	310.41
502.601	265.94
503.034	284.67
503.467	333.82
503.9	270.62
504.333	287.01
504.766	303.39
505.199	289.35
505.632	322.12
506.064	380.63
506.497	270.62
506.93	303.39
507.362	366.59
507.795	326.8
508.227	284.67
508.66	361.91
509.092	340.84
509.524	301.05
509.956	296.37
510.389	284.67
510.821	279.99
511.253	336.16
511.685	315.09
512.117	294.03
512.549	382.97
512.981	277.65
513.412	333.82
513.844	308.07
514.276	298.71
514.707	301.05
515.139	382.97
515.571	373.61
516.002	319.78
516.433	319.78
516.865	371.27
517.296	394.67
517.727	347.86
518.159	296.37
518.59	305.73
519.021	275.31
519.452	291.69
519.883	366.59
520.314	298.71
520.744	284.67
521.175	279.99
521.606	287.01
522.037	338.5
522.467	282.33
522.898	308.07
523.328	347.86
523.759	340.84
524.189	324.46
524.62	338.5
525.05	319.78
525.48	319.78
525.91	317.44
526.341	294.03
526.771	338.5
527.201	272.96
527.631	319.78
528.061	268.28
528.49	294.03
528.92	240.2
529.35	380.63
529.78	277.65
530.209	294.03
530.639	336.16
531.068	322.12
531.498	331.48
531.927	289.35
532.357	312.75
532.786	319.78
533.215	312.75
533.644	331.48
534.074	301.05
534.503	275.31
534.932	343.18
535.361	289.35
535.79	378.29
536.218	319.78
536.647	308.07
537.076	275.31
537.505	296.37
537.933	322.12
538.362	268.28
538.79	366.59
539.219	317.44
539.647	298.71
540.076	350.2
540.504	354.88
540.932	282.33
541.36	301.05
541.788	347.86
542.217	350.2
542.645	315.09
543.073	329.14
543.5	338.5
543.928	357.22
544.356	289.35
544.784	279.99
545.211	263.6
545.639	352.54
546.067	366.59
546.494	329.14
546.922	305.73
547.349	305.73
547.776	308.07
548.204	305.73
548.631	352.54
549.058	256.58
549.485	275.31
549.912	319.78
550.339	326.8
550.766	265.94
551.193	317.44
551.62	284.67
552.047	315.09
552.474	319.78
552.9	322.12
553.327	324.46
553.754	298.71
554.18	373.61
554.607	310.41
555.033	294.03
555.459	317.44
555.886	357.22
556.312	366.59
556.738	315.09
557.164	354.88
557.59	329.14
558.016	338.5
558.442	315.09
558.868	298.71
559.294	287.01
559.72	361.91
560.145	291.69
560.571	298.71
560.997	315.09
561.422	298.71
561.848	364.25
562.273	338.5
562.699	319.78
563.124	308.07
563.549	343.18
563.974	277.65
564.4	333.82
564.825	329.14
565.25	301.05
565.675	312.75
566.1	228.49
566.525	354.88
566.95	329.14
567.374	324.46
567.799	294.03
568.224	308.07
568.648	361.91
569.073	244.88
569.497	345.52
569.922	294.03
570.346	310.41
570.771	354.88
571.195	291.69
571.619	371.27
572.043	317.44
572.467	291.69
572.891	258.92
573.315	296.37
573.739	331.48
574.163	287.01
574.587	343.18
575.011	326.8
575.435	350.2
575.858	354.88
576.282	322.12
576.705	289.35
577.129	333.82
577.552	326.8
577.976	291.69
578.399	340.84
578.822	301.05
579.245	298.71
579.669	319.78
580.092	244.88
580.515	237.86
580.938	343.18
581.361	301.05
581.784	357.22
582.206	263.6
582.629	322.12
583.052	331.48
583.474	319.78
583.897	310.41
584.32	296.37
584.742	308.07
585.165	359.56
585.587	277.65
586.009	258.92
586.431	303.39
586.854	277.65
587.276	382.97
587.698	382.97
588.12	364.25
588.542	326.8
588.964	350.2
589.386	254.24
589.807	352.54
590.229	268.28
590.651	319.78
591.073	294.03
591.494	277.65
591.916	303.39
592.337	275.31
592.759	310.41
593.18	303.39
593.601	326.8
594.022	270.62
594.444	294.03
594.865	338.5
595.286	247.22
595.707	329.14
596.128	319.78
596.549	340.84
596.97	380.63
597.39	359.56
597.811	291.69
598.232	343.18
598.652	354.88
599.073	340.84
599.494	336.16
599.914	357.22
600.334	392.33
600.755	310.41
601.175	340.84
601.595	301.05
602.015	315.09
602.436	329.14
602.856	418.08
603.276	326.8
603.696	291.69
604.115	270.62
604.535	333.82
604.955	368.93
605.375	357.22
605.794	282.33
606.214	296.37
606.634	303.39
607.053	340.84
607.473	291.69
607.892	305.73
608.311	368.93
608.731	350.2
609.15	289.35
609.569	240.2
609.988	261.26
610.407	322.12
610.826	317.44
611.245	333.82
611.664	312.75
612.083	380.63
612.501	256.58
612.92	319.78
613.339	322.12
613.757	378.29
614.176	284.67
614.594	270.62
615.013	343.18
615.431	336.16
615.85	265.94
616.268	331.48
616.686	296.37
617.104	308.07
617.522	385.31
617.94	331.48
618.358	303.39
618.776	354.88
619.194	315.09
619.612	352.54
620.03	312.75
620.447	303.39
620.865	338.5
621.282	312.75
621.7	364.25
622.117	284.67
622.535	336.16
622.952	338.5
623.369	350.2
623.787	343.18
624.204	261.26
624.621	296.37
625.038	277.65
625.455	298.71
625.872	340.84
626.289	324.46
626.706	322.12
627.123	317.44
627.539	287.01
627.956	354.88
628.373	308.07
628.789	373.61
629.206	352.54
629.622	289.35
630.038	352.54
630.455	291.69
630.871	305.73
631.287	294.03
631.703	333.82
632.12	364.25
632.536	235.52
632.952	275.31
633.368	242.54
633.783	317.44
634.199	347.86
634.615	226.15
635.031	298.71
635.446	357.22
635.862	324.46
636.277	324.46
636.693	375.95
637.108	324.46
637.524	319.78
637.939	312.75
638.354	256.58
638.77	254.24
639.185	340.84
639.6	287.01
640.015	331.48
640.43	289.35
640.845	315.09
641.259	294.03
641.674	303.39
642.089	326.8
642.504	338.5
642.918	233.18
643.333	434.46
643.747	336.16
644.162	310.41
644.576	319.78
644.991	277.65
645.405	350.2
645.819	347.86
646.233	319.78
646.647	333.82
647.061	247.22
647.475	336.16
647.889	329.14
648.303	347.86
648.717	326.8
649.131	284.67
649.545	343.18
649.958	385.31
650.372	272.96
650.785	315.09
651.199	284.67
651.612	256.58
652.026	352.54
652.439	371.27
652.852	308.07
653.266	261.26
653.679	312.75
654.092	350.2
654.505	312.75
654.918	301.05
655.331	361.91
655.744	364.25
656.156	378.29
656.569	326.8
656.982	315.09
657.394	331.48
657.807	291.69
658.22	359.56
658.632	333.82
659.044	317.44
659.457	331.48
659.869	329.14
660.281	340.84
660.693	237.86
661.106	338.5
661.518	382.97
661.93	296.37
662.342	303.39
662.754	289.35
663.165	343.18
663.577	268.28
663.989	331.48
664.401	326.8
664.812	315.09
665.224	228.49
665.635	378.29
666.047	312.75
666.458	366.59
666.869	336.16
667.281	382.97
667.692	298.71
668.103	364.25
668.514	347.86
668.925	333.82
669.336	305.73
669.747	263.6
670.158	310.41
670.569	315.09
670.979	317.44
671.39	331.48
671.801	319.78
672.211	385.31
672.622	308.07
673.032	352.54
673.443	303.39
673.853	319.78
674.263	338.5
674.674	277.65
675.084	289.35
675.494	322.12
675.904	333.82
676.314	399.35
676.724	373.61
677.134	291.69
677.544	326.8
677.953	265.94
678.363	340.84
678.773	404.03
679.182	324.46
679.592	263.6
680.001	354.88
680.411	303.39
680.82	287.01
681.23	364.25
681.639	333.82
682.048	305.73
682.457	303.39
682.866	308.07
683.275	315.09
683.684	308.07
684.093	317.44
684.502	322.12
684.911	301.05
685.32	303.39
685.728	343.18
686.137	268.28
686.546	350.2
686.954	315.09
687.363	350.2
687.771	298.71
688.179	326.8
688.588	350.2
688.996	298.71
689.404	298.71
689.812	315.09
690.22	319.78
690.628	270.62
691.036	291.69
691.444	315.09
691.852	275.31
692.26	329.14
692.667	333.82
693.075	319.78
693.483	345.52
693.89	326.8
694.298	324.46
694.705	326.8
695.112	305.73
695.52	263.6
695.927	329.14
696.334	279.99
696.741	333.82
697.148	256.58
697.555	375.95
697.962	366.59
698.369	329.14
698.776	354.88
699.183	298.71
699.59	291.69
699.996	333.82
700.403	258.92
700.81	277.65
701.216	291.69
701.623	301.05
702.029	359.56
702.435	270.62
702.842	294.03
703.248	352.54
703.654	338.5
704.06	312.75
704.466	296.37
704.872	364.25
705.278	322.12
705.684	305.73
706.09	340.84
706.496	308.07
706.901	324.46
707.307	378.29
707.712	308.07
708.118	326.8
708.523	347.86
708.929	275.31
709.334	294.03
709.74	315.09
710.145	343.18
710.55	371.27
710.955	233.18
711.36	308.07
711.765	284.67
712.17	317.44
712.575	326.8
712.98	825.33
713.385	291.69
713.789	317.44
714.194	329.14
714.599	272.96
715.003	296.37
715.408	380.63
715.812	366.59
716.217	338.5
716.621	301.05
717.025	303.39
717.429	312.75
717.833	315.09
718.238	277.65
718.642	305.73
719.046	289.35
719.449	336.16
719.853	312.75
720.257	294.03
720.661	298.71
721.065	310.41
721.468	329.14
721.872	294.03
722.275	364.25
722.679	310.41
723.082	347.86
723.485	310.41
723.889	228.49
724.292	371.27
724.695	357.22
725.098	343.18
725.501	352.54
725.904	368.93
726.307	322.12
726.71	287.01
727.113	289.35
727.516	354.88
727.918	256.58
728.321	331.48
728.724	308.07
729.126	333.82
729.529	347.86
729.931	359.56
730.333	368.93
730.736	268.28
731.138	298.71
731.54	338.5
731.942	312.75
732.344	289.35
732.746	312.75
733.148	315.09
733.55	310.41
733.952	270.62
734.354	347.86
734.756	312.75
735.157	326.8
735.559	291.69
735.96	258.92
736.362	315.09
736.763	336.16
737.165	352.54
737.566	310.41
737.967	317.44
738.368	331.48
738.77	333.82
739.171	317.44
739.572	296.37
739.973	343.18
740.374	303.39
740.774	326.8
741.175	329.14
741.576	331.48
741.977	289.35
742.377	326.8
742.778	315.09
743.178	343.18
743.579	350.2
743.979	329.14
744.379	319.78
744.78	298.71
745.18	322.12
745.58	298.71
745.98	310.41
746.38	305.73
746.78	244.88
747.18	364.25
747.58	305.73
747.98	338.5
748.38	308.07
748.779	375.95
749.179	352.54
749.578	368.93
749.978	277.65
750.377	282.33
750.777	329.14
751.176	317.44
751.575	298.71
751.975	331.48
752.374	333.82
752.773	361.91
753.172	296.37
753.571	277.65
753.97	331.48
754.369	354.88
754.768	326.8
755.166	279.99
755.565	308.07
755.964	326.8
756.362	404.03
756.761	329.14
757.159	301.05
757.558	324.46
757.956	361.91
758.354	324.46
758.753	268.28
759.151	305.73
759.549	350.2
759.947	322.12
760.345	364.25
760.743	331.48
761.141	340.84
761.539	303.39
761.936	251.9
762.334	263.6
762.732	242.54
763.129	312.75
763.527	294.03
763.924	324.46
764.322	329.14
764.719	301.05
765.117	326.8
765.514	242.54
765.911	345.52
766.308	305.73
766.705	268.28
767.102	315.09
767.499	291.69
767.896	291.69
768.293	364.25
768.69	233.18
769.086	359.56
769.483	394.67
769.88	310.41
770.276	380.63
770.673	352.54
771.069	350.2
771.466	343.18
771.862	343.18
772.258	312.75
772.654	312.75
773.05	322.12
773.447	284.67
773.843	368.93
774.239	270.62
774.634	373.61
775.03	284.67
775.426	284.67
775.822	312.75
776.218	258.92
776.613	333.82
777.009	294.03
777.404	345.52
777.8	312.75
778.195	308.07
778.59	336.16
778.986	270.62
779.381	352.54
779.776	359.56
780.171	272.96
780.566	329.14
780.961	338.5
781.356	364.25
781.751	401.69
782.146	375.95
782.54	310.41
782.935	287.01
783.33	371.27
783.724	310.41
784.119	305.73
784.513	352.54
784.908	373.61
785.302	373.61
785.696	282.33
786.09	294.03
786.485	345.52
786.879	296.37
787.273	347.86
787.667	361.91
788.061	350.2
788.454	277.65
788.848	308.07
789.242	333.82
789.636	350.2
790.029	279.99
790.423	298.71
790.816	301.05
791.21	289.35
791.603	331.48
791.997	352.54
792.39	291.69
792.783	357.22
793.176	310.41
793.569	317.44
793.962	359.56
794.355	268.28
794.748	343.18
795.141	338.5
795.534	296.37
795.927	303.39
796.319	331.48
796.712	345.52
797.105	315.09
797.497	312.75
797.89	326.8
798.282	279.99
798.674	329.14
799.067	359.56
799.459	265.94
799.851	357.22
800.243	287.01
800.635	277.65
801.027	317.44
801.419	265.94
801.811	305.73
802.203	354.88
802.594	303.39
802.986	249.56
803.378	340.84
803.769	256.58
804.161	329.14
804.552	326.8
804.944	350.2
805.335	331.48
805.726	279.99
806.118	282.33
806.509	319.78
806.9	331.48
807.291	294.03
807.682	277.65
808.073	277.65
808.464	301.05
808.855	308.07
809.245	279.99
809.636	401.69
810.027	279.99
810.417	282.33
810.808	310.41
811.198	282.33
811.589	310.41
811.979	324.46
812.369	366.59
812.759	258.92
813.15	268.28
813.54	263.6
813.93	284.67
814.32	319.78
814.71	303.39
815.1	256.58
815.489	296.37
815.879	284.67
816.269	221.47
816.658	326.8
817.048	303.39
817.438	331.48
817.827	340.84
818.216	345.52
818.606	338.5
818.995	298.71
819.384	298.71
819.773	270.62
820.163	254.24
820.552	305.73
820.941	301.05
821.33	296.37
821.718	272.96
822.107	291.69
822.496	279.99
822.885	315.09
823.273	275.31
823.662	366.59
824.05	408.72
824.439	329.14
824.827	279.99
825.216	312.75
825.604	291.69
825.992	298.71
826.38	305.73
826.768	296.37
827.156	294.03
827.544	343.18
827.932	282.33
828.32	345.52
828.708	261.26
829.096	284.67
829.483	289.35
829.871	333.82
830.259	305.73
830.646	291.69
831.034	200.41
831.421	333.82
831.808	247.22
832.196	289.35
832.583	301.05
832.97	303.39
833.357	298.71
833.744	308.07
834.131	310.41
834.518	226.15
834.905	261.26
835.292	352.54
835.678	296.37
836.065	338.5
836.452	268.28
836.838	287.01
837.225	294.03
837.611	256.58
837.998	272.96
838.384	331.48
838.77	336.16
839.157	298.71
839.543	261.26
839.929	347.86
840.315	359.56
840.701	361.91
841.087	333.82
841.473	272.96
841.858	319.78
842.244	261.26
842.63	265.94
843.015	308.07
843.401	619.36
843.787	296.37
844.172	371.27
844.557	308.07
844.943	319.78
845.328	329.14
845.713	350.2
846.098	345.52
846.483	343.18
846.868	291.69
847.253	352.54
847.638	336.16
848.023	296.37
848.408	317.44
848.793	343.18
849.177	331.48
849.562	324.46
849.947	350.2
850.331	333.82
850.715	340.84
851.1	312.75
851.484	317.44
851.868	317.44
852.253	382.97
852.637	284.67
853.021	382.97
853.405	324.46
853.789	296.37
854.173	361.91
854.557	345.52
854.94	324.46
855.324	322.12
855.708	331.48
856.091	331.48
856.475	268.28
856.858	294.03
857.242	312.75
857.625	279.99
858.009	322.12
858.392	289.35
858.775	261.26
859.158	289.35
859.541	282.33
859.924	340.84
860.307	268.28
860.69	268.28
861.073	324.46
861.456	282.33
861.838	294.03
862.221	279.99
862.604	256.58
862.986	368.93
863.369	310.41
863.751	326.8
864.133	287.01
864.516	364.25
864.898	326.8
865.28	338.5
865.662	291.69
866.044	303.39
866.426	310.41
866.808	333.82
867.19	329.14
867.572	315.09
867.954	336.16
868.336	333.82
868.717	331.48
869.099	352.54
869.48	317.44
869.862	324.46
870.243	317.44
870.625	350.2
871.006	247.22
871.387	301.05
871.768	317.44
872.149	333.82
872.53	308.07
872.911	354.88
873.292	310.41
873.673	296.37
874.054	326.8
874.435	315.09
874.815	263.6
875.196	277.65
875.577	359.56
875.957	343.18
876.338	322.12
876.718	324.46
877.098	308.07
877.479	368.93
877.859	303.39
878.239	308.07
878.619	275.31
878.999	305.73
879.379	336.16
879.759	270.62
880.139	315.09
880.519	270.62
880.898	298.71
881.278	357.22
881.658	315.09
882.037	359.56
882.417	329.14
882.796	305.73
883.176	324.46
883.555	368.93
883.934	336.16
884.313	287.01
884.693	326.8
885.072	326.8
885.451	303.39
885.83	366.59
886.209	336.16
886.587	338.5
886.966	319.78
887.345	298.71
887.724	310.41
888.102	268.28
888.481	310.41
888.859	291.69
889.238	263.6
889.616	315.09
889.994	331.48
890.373	333.82
890.751	338.5
891.129	338.5
891.507	298.71
891.885	322.12
892.263	350.2
892.641	282.33
893.019	315.09
893.396	272.96
893.774	326.8
894.152	317.44
894.529	216.79
894.907	350.2
895.284	291.69
895.662	291.69
896.039	301.05
896.416	296.37
896.794	308.07
897.171	301.05
897.548	333.82
897.925	296.37
898.302	331.48
898.679	324.46
899.056	287.01
899.433	284.67
899.809	265.94
900.186	350.2
900.563	265.94
900.939	336.16
901.316	317.44
901.692	312.75
902.069	298.71
902.445	303.39
902.821	272.96
903.197	305.73
903.574	382.97
903.95	272.96
904.326	350.2
904.702	324.46
905.078	298.71
905.454	272.96
905.829	207.43
906.205	294.03
906.581	275.31
906.956	310.41
907.332	329.14
907.707	301.05
908.083	298.71
908.458	298.71
908.833	310.41
909.209	343.18
909.584	240.2
909.959	272.96
910.334	366.59
910.709	277.65
911.084	265.94
911.459	406.38
911.834	333.82
912.209	347.86
912.583	298.71
912.958	303.39
913.333	326.8
913.707	331.48
914.082	352.54
914.456	333.82
914.83	331.48
915.205	366.59
915.579	322.12
915.953	303.39
916.327	298.71
916.701	308.07
917.075	244.88
917.449	303.39
917.823	331.48
918.197	310.41
918.571	305.73
918.944	301.05
919.318	284.67
919.692	378.29
920.065	263.6
920.438	284.67
920.812	258.92
921.185	289.35
921.558	326.8
921.932	343.18
922.305	289.35
922.678	265.94
923.051	338.5
923.424	324.46
923.797	382.97
924.17	338.5
924.542	233.18
924.915	315.09
925.288	359.56
925.661	361.91
926.033	277.65
926.406	338.5
926.778	298.71
927.15	275.31
927.523	331.48
927.895	308.07
928.267	347.86
928.639	329.14
929.011	317.44
929.383	233.18
929.755	268.28
930.127	357.22
930.499	319.78
930.871	352.54
931.242	380.63
931.614	284.67
931.986	361.91
932.357	319.78
932.729	303.39
933.1	340.84
933.471	303.39
933.843	294.03
934.214	357.22
934.585	303.39
934.956	265.94
935.327	233.18
935.698	265.94
936.069	291.69
936.44	294.03
936.811	331.48
937.182	263.6
937.552	298.71
937.923	343.18
938.293	336.16
938.664	289.35
939.034	357.22
939.405	343.18
939.775	312.75
940.145	272.96
940.516	333.82
940.886	263.6
941.256	261.26
941.626	359.56
941.996	385.31
942.366	284.67
942.735	319.78
943.105	319.78
943.475	336.16
943.845	338.5
944.214	359.56
944.584	258.92
944.953	310.41
945.323	272.96
945.692	324.46
946.061	308.07
946.43	317.44
946.8	301.05
947.169	315.09
947.538	359.56
947.907	230.84
948.276	310.41
948.645	272.96
949.013	331.48
949.382	298.71
949.751	270.62
950.119	282.33
950.488	305.73
950.857	303.39
951.225	301.05
951.593	287.01
951.962	347.86
952.33	387.65
952.698	303.39
953.066	282.33
953.434	359.56
953.802	329.14
954.17	317.44
954.538	336.16
954.906	305.73
955.274	340.84
955.642	361.91
956.009	324.46
956.377	343.18
956.744	275.31
957.112	270.62
957.479	298.71
957.847	289.35
958.214	284.67
958.581	406.38
958.948	380.63
959.315	291.69
959.683	329.14
960.05	284.67
960.416	303.39
960.783	270.62
961.15	254.24
961.517	282.33
961.884	312.75
962.25	279.99
962.617	287.01
962.983	287.01
963.35	296.37
963.716	340.84
964.082	329.14
964.449	298.71
964.815	336.16
965.181	331.48
965.547	284.67
965.913	324.46
966.279	268.28
966.645	268.28
967.011	256.58
967.377	303.39
967.742	340.84
968.108	354.88
968.474	312.75
968.839	317.44
969.205	284.67
969.57	294.03
969.935	268.28
970.301	279.99
970.666	305.73
971.031	345.52
971.396	294.03
971.761	308.07
972.126	305.73
972.491	294.03
972.856	268.28
973.221	275.31
973.586	258.92
973.95	303.39
974.315	251.9
974.679	317.44
975.044	308.07
975.408	336.16
975.773	298.71
976.137	287.01
976.501	282.33
976.866	305.73
977.23	287.01
977.594	310.41
977.958	294.03
978.322	268.28
978.686	317.44
979.049	312.75
979.413	268.28
979.777	265.94
980.141	294.03
980.504	235.52
980.868	312.75
981.231	354.88
981.595	298.71
981.958	364.25
982.321	315.09
982.684	312.75
983.048	315.09
983.411	272.96
983.774	291.69
984.137	312.75
984.5	317.44
984.862	359.56
985.225	338.5
985.588	272.96
985.951	233.18
986.313	272.96
986.676	279.99
987.038	282.33
987.401	310.41
987.763	287.01
988.125	282.33
988.488	315.09
988.85	329.14
989.212	315.09
989.574	289.35
989.936	352.54
990.298	284.67
990.66	268.28
991.022	331.48
991.383	343.18
991.745	237.86
992.107	308.07
992.468	308.07
992.83	368.93
993.191	303.39
993.553	326.8
993.914	268.28
994.275	319.78
994.637	326.8
994.998	364.25
995.359	310.41
995.72	294.03
996.081	282.33
996.442	380.63
996.803	343.18
997.163	268.28
997.524	294.03
997.885	352.54
998.245	298.71
998.606	237.86
998.966	279.99
999.327	308.07
999.687	279.99
1000.047	333.82
1000.408	340.84
1000.768	329.14
1001.128	324.46
1001.488	329.14
1001.848	261.26
1002.208	350.2
1002.568	319.78
1002.927	359.56
1003.287	329.14
1003.647	305.73
1004.007	345.52
1004.366	277.65
1004.726	326.8
1005.085	361.91
1005.444	279.99
1005.804	291.69
1006.163	284.67
1006.522	301.05
1006.881	322.12
1007.24	338.5
1007.599	258.92
1007.958	322.12
1008.317	315.09
1008.676	308.07
1009.035	394.67
1009.393	387.65
1009.752	326.8
1010.111	308.07
1010.469	338.5
1010.828	333.82
1011.186	322.12
1011.544	361.91
1011.903	324.46
1012.261	296.37
1012.619	350.2
1012.977	312.75
1013.335	294.03
1013.693	336.16
1014.051	308.07
1014.409	298.71
1014.767	322.12
1015.124	331.48
1015.482	305.73
1015.84	272.96
1016.197	352.54
1016.555	312.75
1016.912	331.48
1017.269	326.8
1017.627	319.78
1017.984	270.62
1018.341	387.65
1018.698	350.2
1019.055	287.01
1019.412	315.09
1019.769	338.5
1020.126	279.99
1020.483	308.07
1020.84	317.44
1021.196	279.99
1021.553	315.09
1021.909	343.18
1022.266	315.09
1022.622	258.92
1022.979	333.82
1023.335	294.03
1023.691	284.67
1024.047	326.8
1024.404	289.35
1024.76	312.75
1025.116	275.31
1025.472	340.84
1025.827	352.54
1026.183	408.72
1026.539	256.58
1026.895	312.75
1027.25	345.52
1027.606	340.84
1027.961	312.75
1028.317	265.94
1028.672	233.18
1029.028	263.6
1029.383	331.48
1029.738	322.12
1030.093	340.84
1030.448	319.78
1030.803	291.69
1031.158	279.99
1031.513	326.8
1031.868	237.86
1032.223	315.09
1032.577	291.69
1032.932	277.65
1033.287	258.92
1033.641	326.8
1033.996	317.44
1034.35	235.52
1034.704	298.71
1035.059	350.2
1035.413	338.5
1035.767	338.5
1036.121	338.5
