Data from Al_FLMS009871__861__16-14-58-928.txt Node

Date: Fri Mar 08 16:14:58 CST 2024
User: pe5414po
Spectrometer: FLMS00987
Trigger mode: 0
Integration Time (sec): 1.000000E-1
Scans to average: 1
Electric dark correction enabled: true
Nonlinearity correction enabled: false
Boxcar width: 0
XAxis mode: Wavelengths
Number of Pixels in Spectrum: 2048
>>>>>Begin Spectral Data<<<<<
188.938	-37.45
189.409	-37.45
189.879	-37.45
190.349	-142.77
190.819	-102.98
191.29	-60.85
191.76	-46.81
192.23	-70.22
192.7	-72.56
193.17	-70.22
193.64	-44.47
194.109	-32.77
194.579	7.02
195.049	-60.85
195.519	-25.75
195.988	23.41
196.458	-2.34
196.927	63.19
197.397	105.32
197.866	126.39
198.336	161.5
198.805	189.58
199.274	184.9
199.744	187.24
200.213	203.63
200.682	205.97
201.151	229.37
201.62	292.57
202.089	299.59
202.558	227.03
203.027	262.14
203.495	339.38
203.964	271.5
204.433	290.23
204.902	266.82
205.37	252.78
205.839	327.67
206.307	304.27
206.776	294.91
207.244	330.02
207.712	374.49
208.181	341.72
208.649	255.12
209.117	353.42
209.585	397.89
210.053	294.91
210.521	339.38
210.989	318.31
211.457	264.48
211.925	330.02
212.393	287.89
212.861	271.5
213.328	294.91
213.796	304.27
214.264	294.91
214.731	287.89
215.199	290.23
215.666	269.16
216.133	362.78
216.601	306.61
217.068	311.29
217.535	276.18
218.003	330.02
218.47	315.97
218.937	269.16
219.404	299.59
219.871	278.52
220.338	337.04
220.805	236.39
221.271	292.57
221.738	280.86
222.205	306.61
222.671	290.23
223.138	285.55
223.605	262.14
224.071	294.91
224.538	311.29
225.004	285.55
225.47	301.93
225.937	322.99
226.403	212.99
226.869	262.14
227.335	283.2
227.801	276.18
228.267	348.74
228.733	283.2
229.199	257.46
229.665	276.18
230.131	315.97
230.597	327.67
231.062	313.63
231.528	339.38
231.994	315.97
232.459	283.2
232.925	257.46
233.39	264.48
233.856	346.4
234.321	301.93
234.786	290.23
235.252	301.93
235.717	299.59
236.182	252.78
236.647	313.63
237.112	285.55
237.577	327.67
238.042	304.27
238.507	341.72
238.972	259.8
239.436	315.97
239.901	262.14
240.366	320.65
240.83	264.48
241.295	250.44
241.76	320.65
242.224	262.14
242.688	280.86
243.153	299.59
243.617	311.29
244.081	276.18
244.545	262.14
245.01	257.46
245.474	266.82
245.938	332.36
246.402	231.71
246.866	252.78
247.33	301.93
247.793	259.8
248.257	287.89
248.721	259.8
249.185	308.95
249.648	313.63
250.112	273.84
250.575	320.65
251.039	301.93
251.502	299.59
251.965	269.16
252.429	388.53
252.892	234.05
253.355	276.18
253.818	313.63
254.281	283.2
254.744	297.25
255.207	290.23
255.67	269.16
256.133	245.76
256.596	351.08
257.059	301.93
257.522	337.04
257.984	325.33
258.447	308.95
258.909	283.2
259.372	299.59
259.834	276.18
260.297	311.29
260.759	304.27
261.221	290.23
261.684	304.27
262.146	311.29
262.608	262.14
263.07	269.16
263.532	313.63
263.994	306.61
264.456	341.72
264.918	285.55
265.38	339.38
265.842	283.2
266.303	358.1
266.765	283.2
267.227	320.65
267.688	322.99
268.15	257.46
268.611	238.73
269.072	285.55
269.534	337.04
269.995	273.84
270.456	315.97
270.918	283.2
271.379	348.74
271.84	308.95
272.301	271.5
272.762	259.8
273.223	332.36
273.684	290.23
274.144	318.31
274.605	266.82
275.066	297.25
275.527	311.29
275.987	299.59
276.448	327.67
276.908	344.06
277.369	269.16
277.829	234.05
278.289	262.14
278.75	280.86
279.21	278.52
279.67	339.38
280.13	337.04
280.59	304.27
281.05	313.63
281.51	362.78
281.97	318.31
282.43	332.36
282.89	301.93
283.35	339.38
283.809	269.16
284.269	299.59
284.729	344.06
285.188	271.5
285.648	313.63
286.107	330.02
286.567	318.31
287.026	292.57
287.485	327.67
287.944	344.06
288.404	374.49
288.863	337.04
289.322	337.04
289.781	304.27
290.24	250.44
290.699	322.99
291.158	365.12
291.616	308.95
292.075	367.46
292.534	287.89
292.992	367.46
293.451	304.27
293.91	388.53
294.368	313.63
294.827	348.74
295.285	271.5
295.743	311.29
296.202	301.93
296.66	306.61
297.118	318.31
297.576	379.17
298.034	299.59
298.492	276.18
298.95	306.61
299.408	308.95
299.866	320.65
300.324	337.04
300.781	348.74
301.239	376.83
301.697	346.4
302.154	290.23
302.612	271.5
303.069	276.18
303.527	290.23
303.984	304.27
304.441	346.4
304.899	271.5
305.356	320.65
305.813	271.5
306.27	287.89
306.727	280.86
307.184	285.55
307.641	290.23
308.098	308.95
308.555	348.74
309.012	322.99
309.468	259.8
309.925	290.23
310.382	346.4
310.838	276.18
311.295	372.15
311.751	353.42
312.208	351.08
312.664	322.99
313.12	283.2
313.577	287.89
314.033	283.2
314.489	330.02
314.945	269.16
315.401	243.42
315.857	353.42
316.313	365.12
316.769	266.82
317.225	283.2
317.681	327.67
318.136	353.42
318.592	308.95
319.048	358.1
319.503	308.95
319.959	332.36
320.414	330.02
320.869	360.44
321.325	355.76
321.78	318.31
322.235	353.42
322.691	379.17
323.146	330.02
323.601	294.91
324.056	308.95
324.511	278.52
324.966	250.44
325.421	276.18
325.875	311.29
326.33	355.76
326.785	311.29
327.24	339.38
327.694	287.89
328.149	304.27
328.603	388.53
329.058	276.18
329.512	365.12
329.966	358.1
330.421	287.89
330.875	376.83
331.329	348.74
331.783	360.44
332.237	379.17
332.691	348.74
333.145	257.46
333.599	294.91
334.053	311.29
334.507	311.29
334.96	266.82
335.414	311.29
335.868	320.65
336.321	262.14
336.775	346.4
337.228	334.7
337.682	365.12
338.135	318.31
338.588	290.23
339.042	322.99
339.495	273.84
339.948	299.59
340.401	313.63
340.854	322.99
341.307	372.15
341.76	285.55
342.213	308.95
342.666	306.61
343.119	344.06
343.571	297.25
344.024	287.89
344.477	280.86
344.929	381.51
345.382	362.78
345.834	372.15
346.287	367.46
346.739	285.55
347.191	367.46
347.644	269.16
348.096	344.06
348.548	337.04
349	311.29
349.452	341.72
349.904	297.25
350.356	334.7
350.808	262.14
351.26	355.76
351.711	325.33
352.163	311.29
352.615	344.06
353.066	360.44
353.518	346.4
353.969	306.61
354.421	327.67
354.872	287.89
355.324	353.42
355.775	252.78
356.226	339.38
356.677	407.25
357.128	320.65
357.579	320.65
358.03	313.63
358.481	332.36
358.932	283.2
359.383	332.36
359.834	346.4
360.285	311.29
360.735	292.57
361.186	318.31
361.637	344.06
362.087	360.44
362.538	327.67
362.988	369.8
363.438	351.08
363.889	315.97
364.339	311.29
364.789	290.23
365.239	306.61
365.689	362.78
366.139	330.02
366.589	322.99
367.039	332.36
367.489	334.7
367.939	334.7
368.389	346.4
368.839	325.33
369.288	278.52
369.738	330.02
370.187	325.33
370.637	365.12
371.086	278.52
371.536	292.57
371.985	383.85
372.434	306.61
372.884	322.99
373.333	325.33
373.782	337.04
374.231	308.95
374.68	339.38
375.129	287.89
375.578	339.38
376.027	313.63
376.475	332.36
376.924	341.72
377.373	376.83
377.822	313.63
378.27	367.46
378.719	353.42
379.167	381.51
379.616	341.72
380.064	241.08
380.512	374.49
380.961	311.29
381.409	330.02
381.857	325.33
382.305	334.7
382.753	365.12
383.201	346.4
383.649	374.49
384.097	358.1
384.545	339.38
384.992	327.67
385.44	341.72
385.888	374.49
386.335	341.72
386.783	299.59
387.231	308.95
387.678	353.42
388.125	402.57
388.573	358.1
389.02	294.91
389.467	327.67
389.914	315.97
390.362	299.59
390.809	299.59
391.256	301.93
391.703	355.76
392.15	330.02
392.596	341.72
393.043	383.85
393.49	280.86
393.937	360.44
394.383	322.99
394.83	297.25
395.276	318.31
395.723	304.27
396.169	292.57
396.616	339.38
397.062	353.42
397.508	322.99
397.954	334.7
398.401	294.91
398.847	285.55
399.293	306.61
399.739	386.19
400.185	330.02
400.631	372.15
401.076	339.38
401.522	325.33
401.968	332.36
402.414	355.76
402.859	287.89
403.305	285.55
403.75	381.51
404.196	320.65
404.641	337.04
405.086	320.65
405.532	315.97
405.977	311.29
406.422	322.99
406.867	351.08
407.312	318.31
407.757	348.74
408.202	285.55
408.647	344.06
409.092	362.78
409.537	327.67
409.982	374.49
410.426	372.15
410.871	306.61
411.316	320.65
411.76	351.08
412.205	341.72
412.649	325.33
413.093	306.61
413.538	318.31
413.982	292.57
414.426	339.38
414.87	273.84
415.314	292.57
415.758	360.44
416.202	337.04
416.646	257.46
417.09	313.63
417.534	365.12
417.978	344.06
418.421	346.4
418.865	358.1
419.309	339.38
419.752	365.12
420.196	315.97
420.639	346.4
421.083	304.27
421.526	341.72
421.969	304.27
422.412	301.93
422.856	294.91
423.299	376.83
423.742	320.65
424.185	283.2
424.628	294.91
425.071	353.42
425.513	308.95
425.956	276.18
426.399	327.67
426.842	297.25
427.284	353.42
427.727	332.36
428.169	358.1
428.612	341.72
429.054	311.29
429.497	306.61
429.939	292.57
430.381	341.72
430.823	339.38
431.265	379.17
431.707	386.19
432.149	346.4
432.591	315.97
433.033	308.95
433.475	315.97
433.917	365.12
434.359	374.49
434.8	423.64
435.242	276.18
435.684	259.8
436.125	308.95
436.567	355.76
437.008	313.63
437.449	320.65
437.891	273.84
438.332	332.36
438.773	318.31
439.214	245.76
439.656	262.14
440.097	327.67
440.538	301.93
440.978	327.67
441.419	290.23
441.86	304.27
442.301	276.18
442.742	332.36
443.182	290.23
443.623	337.04
444.063	297.25
444.504	311.29
444.944	311.29
445.385	271.5
445.825	341.72
446.265	348.74
446.706	379.17
447.146	360.44
447.586	285.55
448.026	372.15
448.466	341.72
448.906	344.06
449.346	292.57
449.786	287.89
450.225	315.97
450.665	353.42
451.105	325.33
451.544	271.5
451.984	301.93
452.424	367.46
452.863	311.29
453.302	301.93
453.742	351.08
454.181	388.53
454.62	360.44
455.059	290.23
455.499	234.05
455.938	269.16
456.377	348.74
456.816	344.06
457.254	355.76
457.693	388.53
458.132	334.7
458.571	322.99
459.01	330.02
459.448	322.99
459.887	287.89
460.325	273.84
460.764	315.97
461.202	290.23
461.641	330.02
462.079	245.76
462.517	322.99
462.955	353.42
463.393	308.95
463.832	308.95
464.27	337.04
464.708	264.48
465.145	395.55
465.583	369.8
466.021	285.55
466.459	299.59
466.897	355.76
467.334	327.67
467.772	344.06
468.209	367.46
468.647	346.4
469.084	313.63
469.522	341.72
469.959	269.16
470.396	341.72
470.833	299.59
471.271	306.61
471.708	311.29
472.145	339.38
472.582	348.74
473.019	388.53
473.456	376.83
473.892	327.67
474.329	369.8
474.766	369.8
475.202	339.38
475.639	346.4
476.076	360.44
476.512	358.1
476.949	339.38
477.385	318.31
477.821	322.99
478.258	344.06
478.694	360.44
479.13	280.86
479.566	337.04
480.002	344.06
480.438	311.29
480.874	315.97
481.31	346.4
481.746	351.08
482.181	301.93
482.617	252.78
483.053	315.97
483.488	360.44
483.924	297.25
484.36	299.59
484.795	294.91
485.23	283.2
485.666	315.97
486.101	353.42
486.536	341.72
486.971	348.74
487.407	355.76
487.842	376.83
488.277	264.48
488.712	320.65
489.146	280.86
489.581	379.17
490.016	425.98
490.451	374.49
490.885	327.67
491.32	346.4
491.755	292.57
492.189	315.97
492.624	266.82
493.058	280.86
493.492	280.86
493.927	290.23
494.361	278.52
494.795	358.1
495.229	280.86
495.663	369.8
496.097	318.31
496.531	311.29
496.965	374.49
497.399	355.76
497.833	325.33
498.266	322.99
498.7	313.63
499.134	337.04
499.567	299.59
500.001	315.97
500.434	414.27
500.868	404.91
501.301	322.99
501.734	280.86
502.168	311.29
502.601	304.27
503.034	327.67
503.467	320.65
503.9	327.67
504.333	322.99
504.766	306.61
505.199	276.18
505.632	322.99
506.064	322.99
506.497	358.1
506.93	315.97
507.362	283.2
507.795	311.29
508.227	311.29
508.66	365.12
509.092	320.65
509.524	388.53
509.956	360.44
510.389	360.44
510.821	341.72
511.253	360.44
511.685	315.97
512.117	315.97
512.549	381.51
512.981	325.33
513.412	311.29
513.844	320.65
514.276	320.65
514.707	395.55
515.139	297.25
515.571	285.55
516.002	327.67
516.433	285.55
516.865	402.57
517.296	241.08
517.727	311.29
518.159	285.55
518.59	315.97
519.021	337.04
519.452	311.29
519.883	290.23
520.314	306.61
520.744	287.89
521.175	341.72
521.606	322.99
522.037	332.36
522.467	315.97
522.898	311.29
523.328	395.55
523.759	395.55
524.189	306.61
524.62	311.29
525.05	346.4
525.48	313.63
525.91	369.8
526.341	330.02
526.771	318.31
527.201	374.49
527.631	330.02
528.061	315.97
528.49	341.72
528.92	308.95
529.35	402.57
529.78	355.76
530.209	320.65
530.639	386.19
531.068	397.89
531.498	285.55
531.927	360.44
532.357	318.31
532.786	383.85
533.215	404.91
533.644	292.57
534.074	259.8
534.503	369.8
534.932	304.27
535.361	355.76
535.79	248.1
536.218	339.38
536.647	339.38
537.076	315.97
537.505	308.95
537.933	339.38
538.362	388.53
538.79	327.67
539.219	283.2
539.647	379.17
540.076	341.72
540.504	301.93
540.932	280.86
541.36	318.31
541.788	311.29
542.217	301.93
542.645	337.04
543.073	360.44
543.5	355.76
543.928	346.4
544.356	327.67
544.784	402.57
545.211	325.33
545.639	299.59
546.067	266.82
546.494	351.08
546.922	332.36
547.349	297.25
547.776	266.82
548.204	353.42
548.631	297.25
549.058	306.61
549.485	348.74
549.912	306.61
550.339	245.76
550.766	311.29
551.193	259.8
551.62	294.91
552.047	381.51
552.474	262.14
552.9	285.55
553.327	362.78
553.754	339.38
554.18	353.42
554.607	365.12
555.033	372.15
555.459	348.74
555.886	369.8
556.312	367.46
556.738	332.36
557.164	334.7
557.59	322.99
558.016	353.42
558.442	351.08
558.868	273.84
559.294	381.51
559.72	273.84
560.145	372.15
560.571	334.7
560.997	402.57
561.422	339.38
561.848	346.4
562.273	362.78
562.699	306.61
563.124	332.36
563.549	332.36
563.974	308.95
564.4	283.2
564.825	273.84
565.25	320.65
565.675	330.02
566.1	383.85
566.525	379.17
566.95	337.04
567.374	294.91
567.799	313.63
568.224	337.04
568.648	362.78
569.073	308.95
569.497	330.02
569.922	334.7
570.346	360.44
570.771	292.57
571.195	271.5
571.619	308.95
572.043	320.65
572.467	339.38
572.891	304.27
573.315	346.4
573.739	318.31
574.163	346.4
574.587	341.72
575.011	353.42
575.435	322.99
575.858	327.67
576.282	369.8
576.705	339.38
577.129	306.61
577.552	334.7
577.976	322.99
578.399	292.57
578.822	360.44
579.245	306.61
579.669	348.74
580.092	278.52
580.515	346.4
580.938	376.83
581.361	409.59
581.784	322.99
582.206	292.57
582.629	332.36
583.052	332.36
583.474	367.46
583.897	339.38
584.32	308.95
584.742	358.1
585.165	283.2
585.587	332.36
586.009	327.67
586.431	308.95
586.854	313.63
587.276	337.04
587.698	395.55
588.12	360.44
588.542	332.36
588.964	372.15
589.386	397.89
589.807	355.76
590.229	362.78
590.651	400.23
591.073	320.65
591.494	278.52
591.916	341.72
592.337	306.61
592.759	297.25
593.18	308.95
593.601	358.1
594.022	362.78
594.444	306.61
594.865	339.38
595.286	379.17
595.707	332.36
596.128	372.15
596.549	362.78
596.97	351.08
597.39	315.97
597.811	339.38
598.232	330.02
598.652	409.59
599.073	311.29
599.494	372.15
599.914	351.08
600.334	416.62
600.755	306.61
601.175	285.55
601.595	348.74
602.015	278.52
602.436	311.29
602.856	442.36
603.276	315.97
603.696	374.49
604.115	344.06
604.535	332.36
604.955	360.44
605.375	348.74
605.794	360.44
606.214	306.61
606.634	362.78
607.053	330.02
607.473	355.76
607.892	315.97
608.311	344.06
608.731	367.46
609.15	294.91
609.569	299.59
609.988	297.25
610.407	344.06
610.826	318.31
611.245	353.42
611.664	346.4
612.083	344.06
612.501	362.78
612.92	313.63
613.339	301.93
613.757	257.46
614.176	367.46
614.594	339.38
615.013	372.15
615.431	285.55
615.85	339.38
616.268	327.67
616.686	337.04
617.104	344.06
617.522	301.93
617.94	285.55
618.358	304.27
618.776	346.4
619.194	301.93
619.612	257.46
620.03	315.97
620.447	400.23
620.865	308.95
621.282	327.67
621.7	372.15
622.117	320.65
622.535	330.02
622.952	332.36
623.369	299.59
623.787	325.33
624.204	332.36
624.621	355.76
625.038	287.89
625.455	355.76
625.872	320.65
626.289	283.2
626.706	351.08
627.123	386.19
627.539	248.1
627.956	388.53
628.373	327.67
628.789	315.97
629.206	346.4
629.622	301.93
630.038	348.74
630.455	337.04
630.871	334.7
631.287	351.08
631.703	388.53
632.12	304.27
632.536	304.27
632.952	330.02
633.368	287.89
633.783	278.52
634.199	334.7
634.615	339.38
635.031	276.18
635.446	386.19
635.862	339.38
636.277	325.33
636.693	346.4
637.108	325.33
637.524	388.53
637.939	313.63
638.354	358.1
638.77	435.34
639.185	348.74
639.6	362.78
640.015	339.38
640.43	355.76
640.845	330.02
641.259	294.91
641.674	297.25
642.089	290.23
642.504	379.17
642.918	304.27
643.333	339.38
643.747	320.65
644.162	351.08
644.576	320.65
644.991	334.7
645.405	388.53
645.819	294.91
646.233	339.38
646.647	304.27
647.061	330.02
647.475	264.48
647.889	334.7
648.303	308.95
648.717	292.57
649.131	280.86
649.545	341.72
649.958	320.65
650.372	318.31
650.785	327.67
651.199	332.36
651.612	334.7
652.026	313.63
652.439	332.36
652.852	337.04
653.266	315.97
653.679	372.15
654.092	255.12
654.505	344.06
654.918	346.4
655.331	283.2
655.744	325.33
656.156	383.85
656.569	325.33
656.982	322.99
657.394	304.27
657.807	325.33
658.22	365.12
658.632	320.65
659.044	344.06
659.457	278.52
659.869	283.2
660.281	327.67
660.693	430.66
661.106	330.02
661.518	353.42
661.93	337.04
662.342	369.8
662.754	351.08
663.165	379.17
663.577	353.42
663.989	346.4
664.401	353.42
664.812	353.42
665.224	297.25
665.635	367.46
666.047	294.91
666.458	358.1
666.869	297.25
667.281	367.46
667.692	318.31
668.103	306.61
668.514	365.12
668.925	306.61
669.336	308.95
669.747	355.76
670.158	325.33
670.569	318.31
670.979	269.16
671.39	383.85
671.801	388.53
672.211	320.65
672.622	341.72
673.032	255.12
673.443	313.63
673.853	306.61
674.263	299.59
674.674	348.74
675.084	313.63
675.494	255.12
675.904	358.1
676.314	262.14
676.724	379.17
677.134	315.97
677.544	304.27
677.953	355.76
678.363	327.67
678.773	334.7
679.182	362.78
679.592	297.25
680.001	337.04
680.411	318.31
680.82	367.46
681.23	348.74
681.639	320.65
682.048	327.67
682.457	393.21
682.866	351.08
683.275	332.36
683.684	346.4
684.093	304.27
684.502	341.72
684.911	334.7
685.32	339.38
685.728	355.76
686.137	301.93
686.546	348.74
686.954	301.93
687.363	308.95
687.771	304.27
688.179	318.31
688.588	355.76
688.996	337.04
689.404	393.21
689.812	330.02
690.22	313.63
690.628	304.27
691.036	266.82
691.444	294.91
691.852	318.31
692.26	386.19
692.667	344.06
693.075	362.78
693.483	353.42
693.89	346.4
694.298	337.04
694.705	348.74
695.112	330.02
695.52	353.42
695.927	351.08
696.334	397.89
696.741	374.49
697.148	341.72
697.555	362.78
697.962	376.83
698.369	306.61
698.776	294.91
699.183	320.65
699.59	339.38
699.996	355.76
700.403	297.25
700.81	301.93
701.216	280.86
701.623	304.27
702.029	346.4
702.435	330.02
702.842	280.86
703.248	308.95
703.654	301.93
704.06	313.63
704.466	365.12
704.872	365.12
705.278	337.04
705.684	327.67
706.09	334.7
706.496	313.63
706.901	322.99
707.307	360.44
707.712	360.44
708.118	325.33
708.523	330.02
708.929	301.93
709.334	348.74
709.74	306.61
710.145	334.7
710.55	351.08
710.955	341.72
711.36	294.91
711.765	339.38
712.17	344.06
712.575	315.97
712.98	826.21
713.385	353.42
713.789	304.27
714.194	339.38
714.599	325.33
715.003	262.14
715.408	264.48
715.812	245.76
716.217	351.08
716.621	325.33
717.025	285.55
717.429	346.4
717.833	290.23
718.238	358.1
718.642	358.1
719.046	311.29
719.449	365.12
719.853	351.08
720.257	379.17
720.661	346.4
721.065	285.55
721.468	313.63
721.872	287.89
722.275	381.51
722.679	322.99
723.082	334.7
723.485	315.97
723.889	320.65
724.292	297.25
724.695	330.02
725.098	330.02
725.501	301.93
725.904	271.5
726.307	348.74
726.71	327.67
727.113	318.31
727.516	294.91
727.918	360.44
728.321	341.72
728.724	318.31
729.126	308.95
729.529	306.61
729.931	381.51
730.333	325.33
730.736	308.95
731.138	285.55
731.54	344.06
731.942	325.33
732.344	325.33
732.746	327.67
733.148	287.89
733.55	311.29
733.952	344.06
734.354	330.02
734.756	332.36
735.157	334.7
735.559	341.72
735.96	306.61
736.362	383.85
736.763	301.93
737.165	339.38
737.566	330.02
737.967	330.02
738.368	285.55
738.77	299.59
739.171	271.5
739.572	290.23
739.973	313.63
740.374	381.51
740.774	318.31
741.175	360.44
741.576	346.4
741.977	278.52
742.377	330.02
742.778	290.23
743.178	320.65
743.579	299.59
743.979	334.7
744.379	327.67
744.78	379.17
745.18	346.4
745.58	299.59
745.98	339.38
746.38	322.99
746.78	306.61
747.18	299.59
747.58	351.08
747.98	332.36
748.38	395.55
748.779	339.38
749.179	374.49
749.578	344.06
749.978	297.25
750.377	308.95
750.777	308.95
751.176	299.59
751.575	269.16
751.975	255.12
752.374	332.36
752.773	271.5
753.172	313.63
753.571	386.19
753.97	355.76
754.369	334.7
754.768	374.49
755.166	273.84
755.565	308.95
755.964	341.72
756.362	334.7
756.761	369.8
757.159	229.37
757.558	327.67
757.956	311.29
758.354	339.38
758.753	320.65
759.151	315.97
759.549	327.67
759.947	280.86
760.345	355.76
760.743	351.08
761.141	292.57
761.539	308.95
761.936	393.21
762.334	337.04
762.732	315.97
763.129	379.17
763.527	397.89
763.924	360.44
764.322	355.76
764.719	386.19
765.117	292.57
765.514	339.38
765.911	381.51
766.308	402.57
766.705	271.5
767.102	355.76
767.499	304.27
767.896	367.46
768.293	304.27
768.69	294.91
769.086	346.4
769.483	348.74
769.88	341.72
770.276	344.06
770.673	367.46
771.069	294.91
771.466	271.5
771.862	255.12
772.258	395.55
772.654	266.82
773.05	376.83
773.447	318.31
773.843	271.5
774.239	397.89
774.634	311.29
775.03	332.36
775.426	341.72
775.822	299.59
776.218	311.29
776.613	304.27
777.009	348.74
777.404	315.97
777.8	351.08
778.195	290.23
778.59	325.33
778.986	327.67
779.381	250.44
779.776	344.06
780.171	318.31
780.566	372.15
780.961	374.49
781.356	273.84
781.751	306.61
782.146	351.08
782.54	292.57
782.935	299.59
783.33	313.63
783.724	283.2
784.119	306.61
784.513	294.91
784.908	299.59
785.302	381.51
785.696	304.27
786.09	320.65
786.485	297.25
786.879	351.08
787.273	362.78
787.667	348.74
788.061	365.12
788.454	381.51
788.848	362.78
789.242	334.7
789.636	355.76
790.029	257.46
790.423	306.61
790.816	358.1
791.21	344.06
791.603	327.67
791.997	278.52
792.39	297.25
792.783	346.4
793.176	315.97
793.569	351.08
793.962	344.06
794.355	362.78
794.748	285.55
795.141	381.51
795.534	297.25
795.927	292.57
796.319	320.65
796.712	330.02
797.105	278.52
797.497	245.76
797.89	346.4
798.282	318.31
798.674	379.17
799.067	315.97
799.459	341.72
799.851	369.8
800.243	271.5
800.635	348.74
801.027	297.25
801.419	315.97
801.811	315.97
802.203	341.72
802.594	346.4
802.986	409.59
803.378	315.97
803.769	287.89
804.161	372.15
804.552	374.49
804.944	283.2
805.335	301.93
805.726	433
806.118	297.25
806.509	285.55
806.9	337.04
807.291	337.04
807.682	308.95
808.073	358.1
808.464	278.52
808.855	346.4
809.245	299.59
809.636	313.63
810.027	308.95
810.417	330.02
810.808	351.08
811.198	318.31
811.589	278.52
811.979	304.27
812.369	271.5
812.759	344.06
813.15	318.31
813.54	376.83
813.93	245.76
814.32	322.99
814.71	348.74
815.1	290.23
815.489	341.72
815.879	308.95
816.269	339.38
816.658	238.73
817.048	318.31
817.438	400.23
817.827	313.63
818.216	313.63
818.606	334.7
818.995	313.63
819.384	315.97
819.773	400.23
820.163	386.19
820.552	269.16
820.941	362.78
821.33	259.8
821.718	255.12
822.107	322.99
822.496	311.29
822.885	292.57
823.273	306.61
823.662	360.44
824.05	315.97
824.439	304.27
824.827	294.91
825.216	269.16
825.604	353.42
825.992	330.02
826.38	259.8
826.768	264.48
827.156	306.61
827.544	306.61
827.932	332.36
828.32	334.7
828.708	346.4
829.096	259.8
829.483	306.61
829.871	330.02
830.259	339.38
830.646	332.36
831.034	311.29
831.421	306.61
831.808	257.46
832.196	355.76
832.583	320.65
832.97	332.36
833.357	287.89
833.744	325.33
834.131	322.99
834.518	280.86
834.905	297.25
835.292	376.83
835.678	358.1
836.065	287.89
836.452	299.59
836.838	241.08
837.225	337.04
837.611	285.55
837.998	325.33
838.384	332.36
838.77	301.93
839.157	266.82
839.543	344.06
839.929	358.1
840.315	344.06
840.701	285.55
841.087	320.65
841.473	315.97
841.858	308.95
842.244	320.65
842.63	325.33
843.015	299.59
843.401	578.11
843.787	383.85
844.172	407.25
844.557	353.42
844.943	304.27
845.328	330.02
845.713	411.93
846.098	311.29
846.483	362.78
846.868	339.38
847.253	337.04
847.638	285.55
848.023	266.82
848.408	344.06
848.793	266.82
849.177	304.27
849.562	241.08
849.947	269.16
850.331	339.38
850.715	297.25
851.1	428.32
851.484	353.42
851.868	348.74
852.253	299.59
852.637	301.93
853.021	353.42
853.405	311.29
853.789	355.76
854.173	346.4
854.557	337.04
854.94	339.38
855.324	322.99
855.708	360.44
856.091	285.55
856.475	280.86
856.858	383.85
857.242	344.06
857.625	297.25
858.009	297.25
858.392	341.72
858.775	346.4
859.158	269.16
859.541	306.61
859.924	292.57
860.307	330.02
860.69	337.04
861.073	367.46
861.456	245.76
861.838	276.18
862.221	360.44
862.604	308.95
862.986	313.63
863.369	285.55
863.751	311.29
864.133	283.2
864.516	318.31
864.898	348.74
865.28	292.57
865.662	257.46
866.044	365.12
866.426	308.95
866.808	266.82
867.19	308.95
867.572	306.61
867.954	341.72
868.336	294.91
868.717	283.2
869.099	290.23
869.48	325.33
869.862	278.52
870.243	358.1
870.625	346.4
871.006	257.46
871.387	353.42
871.768	297.25
872.149	313.63
872.53	327.67
872.911	320.65
873.292	344.06
873.673	344.06
874.054	339.38
874.435	276.18
874.815	313.63
875.196	325.33
875.577	297.25
875.957	308.95
876.338	315.97
876.718	292.57
877.098	330.02
877.479	320.65
877.859	351.08
878.239	320.65
878.619	304.27
878.999	290.23
879.379	341.72
879.759	255.12
880.139	355.76
880.519	362.78
880.898	421.3
881.278	283.2
881.658	294.91
882.037	299.59
882.417	334.7
882.796	360.44
883.176	313.63
883.555	358.1
883.934	360.44
884.313	320.65
884.693	306.61
885.072	376.83
885.451	322.99
885.83	320.65
886.209	318.31
886.587	362.78
886.966	299.59
887.345	311.29
887.724	346.4
888.102	280.86
888.481	259.8
888.859	285.55
889.238	332.36
889.616	304.27
889.994	266.82
890.373	372.15
890.751	311.29
891.129	344.06
891.507	273.84
891.885	311.29
892.263	325.33
892.641	318.31
893.019	330.02
893.396	327.67
893.774	327.67
894.152	301.93
894.529	304.27
894.907	294.91
895.284	294.91
895.662	351.08
896.039	402.57
896.416	325.33
896.794	386.19
897.171	301.93
897.548	311.29
897.925	369.8
898.302	334.7
898.679	285.55
899.056	318.31
899.433	294.91
899.809	320.65
900.186	315.97
900.563	315.97
900.939	313.63
901.316	353.42
901.692	346.4
902.069	325.33
902.445	325.33
902.821	367.46
903.197	376.83
903.574	299.59
903.95	334.7
904.326	367.46
904.702	304.27
905.078	299.59
905.454	341.72
905.829	348.74
906.205	327.67
906.581	330.02
906.956	346.4
907.332	330.02
907.707	351.08
908.083	308.95
908.458	280.86
908.833	397.89
909.209	365.12
909.584	353.42
909.959	346.4
910.334	304.27
910.709	297.25
911.084	285.55
911.459	339.38
911.834	271.5
912.209	320.65
912.583	287.89
912.958	320.65
913.333	327.67
913.707	290.23
914.082	308.95
914.456	297.25
914.83	383.85
915.205	332.36
915.579	332.36
915.953	308.95
916.327	353.42
916.701	294.91
917.075	315.97
917.449	334.7
917.823	337.04
918.197	386.19
918.571	330.02
918.944	353.42
919.318	404.91
919.692	355.76
920.065	327.67
920.438	271.5
920.812	255.12
921.185	304.27
921.558	313.63
921.932	374.49
922.305	332.36
922.678	280.86
923.051	278.52
923.424	339.38
923.797	322.99
924.17	278.52
924.542	322.99
924.915	362.78
925.288	327.67
925.661	287.89
926.033	273.84
926.406	320.65
926.778	348.74
927.15	327.67
927.523	353.42
927.895	276.18
928.267	337.04
928.639	229.37
929.011	322.99
929.383	245.76
929.755	311.29
930.127	313.63
930.499	315.97
930.871	301.93
931.242	308.95
931.614	299.59
931.986	311.29
932.357	334.7
932.729	318.31
933.1	322.99
933.471	308.95
933.843	266.82
934.214	301.93
934.585	313.63
934.956	311.29
935.327	313.63
935.698	339.38
936.069	355.76
936.44	372.15
936.811	304.27
937.182	278.52
937.552	332.36
937.923	308.95
938.293	325.33
938.664	264.48
939.034	306.61
939.405	301.93
939.775	318.31
940.145	325.33
940.516	346.4
940.886	353.42
941.256	337.04
941.626	346.4
941.996	376.83
942.366	280.86
942.735	273.84
943.105	337.04
943.475	299.59
943.845	290.23
944.214	294.91
944.584	294.91
944.953	280.86
945.323	327.67
945.692	322.99
946.061	255.12
946.43	325.33
946.8	337.04
947.169	365.12
947.538	273.84
947.907	266.82
948.276	315.97
948.645	351.08
949.013	299.59
949.382	290.23
949.751	315.97
950.119	273.84
950.488	315.97
950.857	313.63
951.225	313.63
951.593	362.78
951.962	332.36
952.33	358.1
952.698	348.74
953.066	400.23
953.434	339.38
953.802	297.25
954.17	341.72
954.538	355.76
954.906	367.46
955.274	313.63
955.642	358.1
956.009	255.12
956.377	327.67
956.744	318.31
957.112	348.74
957.479	383.85
957.847	332.36
958.214	294.91
958.581	374.49
958.948	285.55
959.315	337.04
959.683	334.7
960.05	315.97
960.416	337.04
960.783	273.84
961.15	304.27
961.517	287.89
961.884	330.02
962.25	322.99
962.617	351.08
962.983	301.93
963.35	334.7
963.716	369.8
964.082	381.51
964.449	264.48
964.815	341.72
965.181	315.97
965.547	372.15
965.913	358.1
966.279	327.67
966.645	344.06
967.011	334.7
967.377	320.65
967.742	308.95
968.108	266.82
968.474	400.23
968.839	311.29
969.205	304.27
969.57	355.76
969.935	334.7
970.301	315.97
970.666	266.82
971.031	362.78
971.396	322.99
971.761	278.52
972.126	320.65
972.491	301.93
972.856	250.44
973.221	259.8
973.586	339.38
973.95	308.95
974.315	355.76
974.679	315.97
975.044	283.2
975.408	304.27
975.773	327.67
976.137	341.72
976.501	339.38
976.866	407.25
977.23	325.33
977.594	327.67
977.958	283.2
978.322	304.27
978.686	330.02
979.049	334.7
979.413	313.63
979.777	341.72
980.141	311.29
980.504	299.59
980.868	306.61
981.231	348.74
981.595	315.97
981.958	374.49
982.321	346.4
982.684	320.65
983.048	304.27
983.411	255.12
983.774	365.12
984.137	393.21
984.5	355.76
984.862	330.02
985.225	322.99
985.588	294.91
985.951	365.12
986.313	304.27
986.676	294.91
987.038	348.74
987.401	306.61
987.763	318.31
988.125	320.65
988.488	339.38
988.85	322.99
989.212	297.25
989.574	308.95
989.936	308.95
990.298	388.53
990.66	311.29
991.022	320.65
991.383	322.99
991.745	304.27
992.107	311.29
992.468	313.63
992.83	304.27
993.191	358.1
993.553	386.19
993.914	285.55
994.275	372.15
994.637	381.51
994.998	388.53
995.359	332.36
995.72	320.65
996.081	325.33
996.442	301.93
996.803	292.57
997.163	358.1
997.524	266.82
997.885	273.84
998.245	313.63
998.606	341.72
998.966	351.08
999.327	306.61
999.687	299.59
1000.047	287.89
1000.408	353.42
1000.768	334.7
1001.128	381.51
1001.488	280.86
1001.848	287.89
1002.208	367.46
1002.568	320.65
1002.927	297.25
1003.287	285.55
1003.647	311.29
1004.007	248.1
1004.366	308.95
1004.726	269.16
1005.085	311.29
1005.444	337.04
1005.804	287.89
1006.163	290.23
1006.522	278.52
1006.881	290.23
1007.24	341.72
1007.599	348.74
1007.958	407.25
1008.317	297.25
1008.676	318.31
1009.035	241.08
1009.393	252.78
1009.752	325.33
1010.111	283.2
1010.469	341.72
1010.828	334.7
1011.186	346.4
1011.544	344.06
1011.903	332.36
1012.261	348.74
1012.619	339.38
1012.977	318.31
1013.335	250.44
1013.693	306.61
1014.051	322.99
1014.409	308.95
1014.767	337.04
1015.124	292.57
1015.482	301.93
1015.84	283.2
1016.197	369.8
1016.555	304.27
1016.912	369.8
1017.269	318.31
1017.627	346.4
1017.984	339.38
1018.341	301.93
1018.698	212.99
1019.055	304.27
1019.412	322.99
1019.769	304.27
1020.126	332.36
1020.483	330.02
1020.84	245.76
1021.196	376.83
1021.553	264.48
1021.909	301.93
1022.266	365.12
1022.622	318.31
1022.979	337.04
1023.335	388.53
1023.691	341.72
1024.047	337.04
1024.404	355.76
1024.76	308.95
1025.116	311.29
1025.472	320.65
1025.827	290.23
1026.183	322.99
1026.539	318.31
1026.895	290.23
1027.25	346.4
1027.606	360.44
1027.961	297.25
1028.317	299.59
1028.672	318.31
1029.028	318.31
1029.383	297.25
1029.738	325.33
1030.093	332.36
1030.448	313.63
1030.803	322.99
1031.158	386.19
1031.513	330.02
1031.868	306.61
1032.223	395.55
1032.577	311.29
1032.932	313.63
1033.287	294.91
1033.641	315.97
1033.996	374.49
1034.35	341.72
1034.704	381.51
1035.059	273.84
1035.413	348.74
1035.767	348.74
1036.121	348.74
