Data from Al_FLMS009871__1111__16-31-47-502.txt Node

Date: Fri Mar 08 16:31:47 CST 2024
User: pe5414po
Spectrometer: FLMS00987
Trigger mode: 0
Integration Time (sec): 1.000000E-1
Scans to average: 1
Electric dark correction enabled: true
Nonlinearity correction enabled: false
Boxcar width: 0
XAxis mode: Wavelengths
Number of Pixels in Spectrum: 2048
>>>>>Begin Spectral Data<<<<<
188.938	15.21
189.409	15.21
189.879	15.21
190.349	-134.58
190.819	-80.75
191.29	-120.54
191.76	-87.77
192.23	-129.9
192.7	-87.77
193.17	-47.98
193.64	-33.94
194.109	-26.92
194.579	12.87
195.049	15.21
195.519	-3.51
195.988	17.55
196.458	36.28
196.927	87.77
197.397	136.92
197.866	127.56
198.336	104.15
198.805	179.05
199.274	157.99
199.744	197.78
200.213	230.54
200.682	293.74
201.151	251.61
201.62	249.27
202.089	275.01
202.558	356.93
203.027	392.04
203.495	385.02
203.964	375.66
204.433	401.4
204.902	401.4
205.37	427.15
205.839	401.4
206.307	485.66
206.776	506.73
207.244	502.04
207.712	497.36
208.181	506.73
208.649	544.17
209.117	523.11
209.585	516.09
210.053	537.15
210.521	579.28
210.989	598.01
211.457	708.01
211.925	771.21
212.393	921
212.861	820.36
213.328	815.68
213.796	675.24
214.264	583.96
214.731	565.24
215.199	595.67
215.666	541.83
216.133	668.22
216.601	780.57
217.068	944.41
217.535	1049.73
218.003	1110.58
218.47	1332.94
218.937	1262.72
219.404	1026.32
219.871	1042.71
220.338	1059.09
220.805	1042.71
221.271	970.15
221.738	820.36
222.205	822.7
222.671	794.61
223.138	967.81
223.605	1152.71
224.071	1133.99
224.538	1007.6
225.004	834.4
225.47	869.51
225.937	1215.91
226.403	1070.8
226.869	913.98
227.335	677.59
227.801	562.9
228.267	558.22
228.733	532.47
229.199	567.58
229.665	480.98
230.131	527.79
230.597	483.32
231.062	558.22
231.528	548.86
231.994	607.37
232.459	457.57
232.925	488
233.39	455.23
233.856	502.04
234.321	586.3
234.786	651.84
235.252	930.36
235.717	1616.14
236.182	2294.9
236.647	2425.97
237.112	1976.58
237.577	1234.63
238.042	825.04
238.507	658.86
238.972	626.09
239.436	569.92
239.901	605.03
240.366	579.28
240.83	574.6
241.295	558.22
241.76	558.22
242.224	544.17
242.688	562.9
243.153	560.56
243.617	441.19
244.081	590.99
244.545	579.28
245.01	527.79
245.474	623.75
245.938	630.77
246.402	560.56
246.866	665.88
247.33	672.9
247.793	670.56
248.257	612.05
248.721	600.35
249.185	527.79
249.648	586.3
250.112	586.3
250.575	668.22
251.039	663.54
251.502	630.77
251.965	647.16
252.429	693.97
252.892	598.01
253.355	609.71
253.818	640.14
254.281	602.69
254.744	640.14
255.207	815.68
255.67	1000.58
256.133	1478.05
256.596	1955.52
257.059	2161.48
257.522	1777.64
257.984	1255.7
258.447	984.2
258.909	1148.03
259.372	1082.5
259.834	1073.14
260.297	1019.3
260.759	939.73
261.221	909.3
261.684	1091.86
262.146	1611.46
262.608	2009.35
263.07	1833.81
263.532	1258.04
263.994	834.4
264.456	869.51
264.918	937.38
265.38	1115.27
265.842	953.77
266.303	803.97
266.765	642.48
267.227	546.52
267.688	518.43
268.15	567.58
268.611	539.49
269.072	572.26
269.534	616.73
269.995	579.28
270.456	600.35
270.918	651.84
271.379	607.37
271.84	684.61
272.301	506.73
272.762	616.73
273.223	572.26
273.684	600.35
274.144	710.35
274.605	752.48
275.066	693.97
275.527	677.59
275.987	799.29
276.448	773.55
276.908	813.34
277.369	981.85
277.829	1562.31
278.289	3102.38
278.75	5585.69
279.21	7640.68
279.67	7668.77
280.13	5702.72
280.59	3748.37
281.05	3249.83
281.51	2774.71
281.97	1875.94
282.43	906.96
282.89	658.86
283.35	621.41
283.809	621.41
284.269	818.02
284.729	1002.92
285.188	1155.05
285.648	803.97
286.107	621.41
286.567	663.54
287.026	504.39
287.485	569.92
287.944	675.24
288.404	607.37
288.863	656.52
289.322	679.93
289.781	684.61
290.24	691.63
290.699	665.88
291.158	658.86
291.616	722.06
292.075	789.93
292.534	867.17
292.992	958.45
293.451	1061.43
293.91	944.41
294.368	836.74
294.827	778.23
295.285	640.14
295.743	504.39
296.202	506.73
296.66	495.02
297.118	509.07
297.576	495.02
298.034	511.41
298.492	424.81
298.95	464.6
299.408	485.66
299.866	455.23
300.324	417.79
300.781	420.13
301.239	488
301.697	520.77
302.154	478.64
302.612	520.77
303.069	488
303.527	480.98
303.984	590.99
304.441	630.77
304.899	703.33
305.356	832.06
305.813	850.78
306.27	883.55
306.727	1084.84
307.184	1627.84
307.641	3076.63
308.098	4429.46
308.555	5639.52
309.012	5936.77
309.468	4963.11
309.925	2524.27
310.382	986.54
310.838	696.31
311.295	569.92
311.751	518.43
312.208	567.58
312.664	504.39
313.12	466.94
313.577	506.73
314.033	448.21
314.489	506.73
314.945	562.9
315.401	576.94
315.857	551.2
316.313	431.83
316.769	396.72
317.225	434.17
317.681	408.42
318.136	389.7
318.592	457.57
319.048	457.57
319.503	499.7
319.959	408.42
320.414	450.55
320.869	441.19
321.325	394.38
321.78	406.08
322.235	427.15
322.691	424.81
323.146	448.21
323.601	504.39
324.056	715.03
324.511	848.44
324.966	930.36
325.421	796.95
325.875	576.94
326.33	555.88
326.785	679.93
327.24	803.97
327.694	953.77
328.149	745.46
328.603	569.92
329.058	488
329.512	408.42
329.966	469.28
330.421	455.23
330.875	478.64
331.329	466.94
331.783	441.19
332.237	448.21
332.691	506.73
333.145	579.28
333.599	553.54
334.053	537.15
334.507	581.62
334.96	588.64
335.414	609.71
335.868	658.86
336.321	686.95
336.775	729.08
337.228	731.42
337.682	682.27
338.135	612.05
338.588	574.6
339.042	483.32
339.495	424.81
339.948	473.96
340.401	448.21
340.854	448.21
341.307	455.23
341.76	438.85
342.213	436.51
342.666	464.6
343.119	464.6
343.571	511.41
344.024	506.73
344.477	520.77
344.929	492.68
345.382	422.47
345.834	469.28
346.287	457.57
346.739	473.96
347.191	506.73
347.644	504.39
348.096	495.02
348.548	459.92
349	506.73
349.452	480.98
349.904	473.96
350.356	497.36
350.808	438.85
351.26	527.79
351.711	471.62
352.163	497.36
352.615	537.15
353.066	562.9
353.518	518.43
353.969	551.2
354.421	537.15
354.872	471.62
355.324	612.05
355.775	616.73
356.226	656.52
356.677	832.06
357.128	1070.8
357.579	1529.54
358.03	2631.93
358.481	4394.36
358.932	4799.27
359.383	3593.89
359.834	2910.46
360.285	2915.14
360.735	2517.25
361.186	2037.44
361.637	1676.99
362.087	1054.41
362.538	630.77
362.988	572.26
363.438	525.45
363.889	560.56
364.339	525.45
364.789	518.43
365.239	598.01
365.689	513.75
366.139	516.09
366.589	420.13
367.039	504.39
367.489	403.74
367.939	483.32
368.389	518.43
368.839	595.67
369.288	539.49
369.738	663.54
370.187	801.63
370.637	827.38
371.086	928.02
371.536	918.66
371.985	834.4
372.434	661.2
372.884	527.79
373.333	607.37
373.782	598.01
374.231	546.52
374.68	534.81
375.129	574.6
375.578	511.41
376.027	469.28
376.475	471.62
376.924	434.17
377.373	452.89
377.822	459.92
378.27	457.57
378.719	485.66
379.167	471.62
379.616	532.47
380.064	527.79
380.512	633.11
380.961	520.77
381.409	495.02
381.857	590.99
382.305	626.09
382.753	740.78
383.201	885.89
383.649	890.57
384.097	902.28
384.545	829.72
384.992	700.99
385.44	605.03
385.888	658.86
386.335	621.41
386.783	633.11
387.231	619.07
387.678	609.71
388.125	635.46
388.573	607.37
389.02	516.09
389.467	518.43
389.914	504.39
390.362	576.94
390.809	590.99
391.256	560.56
391.703	598.01
392.15	572.26
392.596	661.2
393.043	878.87
393.49	1344.64
393.937	2379.15
394.383	3804.54
394.83	4612.03
395.276	3797.52
395.723	3750.71
396.169	5597.39
396.616	5873.57
397.062	3568.15
397.508	1433.58
397.954	703.33
398.401	576.94
398.847	574.6
399.293	635.46
399.739	733.76
400.185	626.09
400.631	581.62
401.076	509.07
401.522	478.64
401.968	593.33
402.414	497.36
402.859	668.22
403.305	691.63
403.75	822.7
404.196	794.61
404.641	686.95
405.086	588.64
405.532	670.56
405.977	712.69
406.422	717.37
406.867	607.37
407.312	642.48
407.757	590.99
408.202	663.54
408.647	572.26
409.092	558.22
409.537	642.48
409.982	598.01
410.426	642.48
410.871	574.6
411.316	661.2
411.76	590.99
412.205	647.16
412.649	656.52
413.093	663.54
413.538	670.56
413.982	700.99
414.426	757.16
414.87	818.02
415.314	1021.64
415.758	946.75
416.202	853.13
416.646	862.49
417.09	813.34
417.534	841.42
417.978	771.21
418.421	616.73
418.865	579.28
419.309	516.09
419.752	539.49
420.196	546.52
420.639	539.49
421.083	553.54
421.526	476.3
421.969	488
422.412	532.47
422.856	558.22
423.299	523.11
423.742	595.67
424.185	565.24
424.628	511.41
425.071	548.86
425.513	511.41
425.956	469.28
426.399	518.43
426.842	511.41
427.284	511.41
427.727	534.81
428.169	499.7
428.612	499.7
429.054	488
429.497	506.73
429.939	466.94
430.381	485.66
430.823	476.3
431.265	485.66
431.707	495.02
432.149	511.41
432.591	459.92
433.033	520.77
433.475	478.64
433.917	483.32
434.359	516.09
434.8	565.24
435.242	548.86
435.684	495.02
436.125	436.51
436.567	518.43
437.008	401.4
437.449	497.36
437.891	455.23
438.332	473.96
438.773	527.79
439.214	469.28
439.656	513.75
440.097	492.68
440.538	455.23
440.978	499.7
441.419	480.98
441.86	525.45
442.301	595.67
442.742	544.17
443.182	598.01
443.623	616.73
444.063	588.64
444.504	712.69
444.944	583.96
445.385	745.46
445.825	689.29
446.265	811
446.706	967.81
447.146	1178.46
447.586	1354
448.026	1602.1
448.466	1808.06
448.906	1599.76
449.346	1199.52
449.786	1148.03
450.225	963.13
450.665	1009.94
451.105	1194.84
451.544	1562.31
451.984	1625.5
452.424	1564.65
452.863	1606.78
453.302	2154.46
453.742	2159.14
454.181	1522.52
454.62	944.41
455.059	693.97
455.499	635.46
455.938	520.77
456.377	502.04
456.816	553.54
457.254	471.62
457.693	441.19
458.132	530.13
458.571	441.19
459.01	471.62
459.448	420.13
459.887	527.79
460.325	530.13
460.764	546.52
461.202	527.79
461.641	534.81
462.079	541.83
462.517	506.73
462.955	579.28
463.393	607.37
463.832	583.96
464.27	567.58
464.708	551.2
465.145	553.54
465.583	600.35
466.021	672.9
466.459	839.08
466.897	1073.14
467.334	878.87
467.772	635.46
468.209	553.54
468.647	431.83
469.084	441.19
469.522	469.28
469.959	473.96
470.396	523.11
470.833	565.24
471.271	523.11
471.708	504.39
472.145	469.28
472.582	511.41
473.019	452.89
473.456	469.28
473.892	516.09
474.329	499.7
474.766	478.64
475.202	392.04
475.639	443.53
476.076	448.21
476.512	457.57
476.949	490.34
477.385	497.36
477.821	457.57
478.258	455.23
478.694	483.32
479.13	499.7
479.566	476.3
480.002	483.32
480.438	516.09
480.874	469.28
481.31	490.34
481.746	488
482.181	497.36
482.617	532.47
483.053	471.62
483.488	495.02
483.924	527.79
484.36	537.15
484.795	539.49
485.23	537.15
485.666	670.56
486.101	658.86
486.536	649.5
486.971	670.56
487.407	686.95
487.842	605.03
488.277	569.92
488.712	588.64
489.146	497.36
489.581	480.98
490.016	459.92
490.451	502.04
490.885	586.3
491.32	537.15
491.755	480.98
492.189	551.2
492.624	562.9
493.058	492.68
493.492	532.47
493.927	555.88
494.361	488
494.795	471.62
495.229	427.15
495.663	464.6
496.097	518.43
496.531	509.07
496.965	480.98
497.399	520.77
497.833	534.81
498.266	532.47
498.7	476.3
499.134	569.92
499.567	633.11
500.001	700.99
500.434	811
500.868	937.38
501.301	932.7
501.734	834.4
502.168	740.78
502.601	558.22
503.034	499.7
503.467	553.54
503.9	560.56
504.333	541.83
504.766	558.22
505.199	663.54
505.632	555.88
506.064	492.68
506.497	511.41
506.93	492.68
507.362	516.09
507.795	560.56
508.227	516.09
508.66	548.86
509.092	506.73
509.524	471.62
509.956	525.45
510.389	541.83
510.821	525.45
511.253	598.01
511.685	555.88
512.117	490.34
512.549	516.09
512.981	537.15
513.412	572.26
513.844	541.83
514.276	541.83
514.707	499.7
515.139	598.01
515.571	527.79
516.002	590.99
516.433	661.2
516.865	672.9
517.296	637.8
517.727	710.35
518.159	794.61
518.59	754.82
519.021	703.33
519.452	644.82
519.883	651.84
520.314	619.07
520.744	586.3
521.175	504.39
521.606	581.62
522.037	642.48
522.467	649.5
522.898	562.9
523.328	633.11
523.759	607.37
524.189	590.99
524.62	546.52
525.05	551.2
525.48	600.35
525.91	581.62
526.341	607.37
526.771	612.05
527.201	693.97
527.631	724.4
528.061	794.61
528.49	857.81
528.92	1033.35
529.35	1361.02
529.78	2709.17
530.209	12640.06
530.639	31064.76
531.068	49126.67
531.498	63034.14
531.927	63034.14
532.357	63034.14
532.786	63034.14
533.215	63034.14
533.644	41449.72
534.074	15415.94
534.503	6285.51
534.932	2858.96
535.361	1639.55
535.79	1136.33
536.218	881.21
536.647	715.03
537.076	738.44
537.505	616.73
537.933	551.2
538.362	593.33
538.79	504.39
539.219	511.41
539.647	516.09
540.076	497.36
540.504	424.81
540.932	385.02
541.36	464.6
541.788	546.52
542.217	555.88
542.645	462.26
543.073	471.62
543.5	445.87
543.928	476.3
544.356	424.81
544.784	448.21
545.211	396.72
545.639	459.92
546.067	478.64
546.494	457.57
546.922	455.23
547.349	466.94
547.776	485.66
548.204	462.26
548.631	431.83
549.058	441.19
549.485	408.42
549.912	473.96
550.339	424.81
550.766	429.49
551.193	509.07
551.62	394.38
552.047	464.6
552.474	443.53
552.9	473.96
553.327	457.57
553.754	434.17
554.18	497.36
554.607	401.4
555.033	431.83
555.459	436.51
555.886	485.66
556.312	495.02
556.738	483.32
557.164	349.91
557.59	502.04
558.016	436.51
558.442	455.23
558.868	558.22
559.294	560.56
559.72	637.8
560.145	750.14
560.571	679.93
560.997	590.99
561.422	525.45
561.848	471.62
562.273	429.49
562.699	385.02
563.124	424.81
563.549	382.68
563.974	415.45
564.4	469.28
564.825	466.94
565.25	434.17
565.675	445.87
566.1	462.26
566.525	495.02
566.95	534.81
567.374	583.96
567.799	558.22
568.224	602.69
568.648	731.42
569.073	766.53
569.497	916.32
569.922	1311.87
570.346	1801.04
570.771	1538.9
571.195	904.62
571.619	726.74
572.043	733.76
572.467	752.48
572.891	1117.61
573.315	974.83
573.739	722.06
574.163	518.43
574.587	490.34
575.011	523.11
575.435	401.4
575.858	401.4
576.282	363.95
576.705	368.63
577.129	366.29
577.552	338.21
577.976	375.66
578.399	403.74
578.822	410.76
579.245	321.82
579.669	382.68
580.092	420.13
580.515	382.68
580.938	324.16
581.361	387.36
581.784	408.42
582.206	324.16
582.629	375.66
583.052	366.29
583.474	406.08
583.897	413.1
584.32	333.53
584.742	410.76
585.165	363.95
585.587	359.27
586.009	392.04
586.431	436.51
586.854	314.8
587.276	385.02
587.698	387.36
588.12	361.61
588.542	385.02
588.964	417.79
589.386	387.36
589.807	476.3
590.229	469.28
590.651	457.57
591.073	413.1
591.494	378
591.916	366.29
592.337	401.4
592.759	445.87
593.18	415.45
593.601	392.04
594.022	438.85
594.444	473.96
594.865	427.15
595.286	424.81
595.707	394.38
596.128	342.89
596.549	361.61
596.97	361.61
597.39	349.91
597.811	424.81
598.232	399.06
598.652	417.79
599.073	408.42
599.494	345.23
599.914	392.04
600.334	380.34
600.755	366.29
601.175	389.7
601.595	380.34
602.015	361.61
602.436	356.93
602.856	499.7
603.276	356.93
603.696	427.15
604.115	310.12
604.535	382.68
604.955	438.85
605.375	378
605.794	380.34
606.214	363.95
606.634	370.97
607.053	399.06
607.473	349.91
607.892	314.8
608.311	408.42
608.731	459.92
609.15	394.38
609.569	406.08
609.988	408.42
610.407	338.21
610.826	359.27
611.245	392.04
611.664	363.95
612.083	342.89
612.501	410.76
612.92	345.23
613.339	338.21
613.757	370.97
614.176	394.38
614.594	338.21
615.013	385.02
615.431	406.08
615.85	399.06
616.268	359.27
616.686	392.04
617.104	452.89
617.522	424.81
617.94	431.83
618.358	448.21
618.776	427.15
619.194	476.3
619.612	424.81
620.03	387.36
620.447	441.19
620.865	370.97
621.282	427.15
621.7	452.89
622.117	462.26
622.535	466.94
622.952	562.9
623.369	586.3
623.787	827.38
624.204	925.68
624.621	881.21
625.038	991.22
625.455	1049.73
625.872	794.61
626.289	642.48
626.706	499.7
627.123	436.51
627.539	392.04
627.956	417.79
628.373	408.42
628.789	298.42
629.206	427.15
629.622	361.61
630.038	408.42
630.455	399.06
630.871	375.66
631.287	342.89
631.703	282.03
632.12	403.74
632.536	296.08
632.952	410.76
633.368	380.34
633.783	410.76
634.199	382.68
634.615	399.06
635.031	399.06
635.446	375.66
635.862	459.92
636.277	347.57
636.693	375.66
637.108	296.08
637.524	471.62
637.939	424.81
638.354	368.63
638.77	331.19
639.185	375.66
639.6	378
640.015	392.04
640.43	387.36
640.845	354.59
641.259	331.19
641.674	340.55
642.089	352.25
642.504	401.4
642.918	319.48
643.333	368.63
643.747	349.91
644.162	356.93
644.576	380.34
644.991	326.5
645.405	382.68
645.819	378
646.233	326.5
646.647	394.38
647.061	319.48
647.475	389.7
647.889	396.72
648.303	385.02
648.717	359.27
649.131	410.76
649.545	441.19
649.958	335.87
650.372	345.23
650.785	349.91
651.199	403.74
651.612	392.04
652.026	450.55
652.439	427.15
652.852	363.95
653.266	359.27
653.679	399.06
654.092	382.68
654.505	389.7
654.918	483.32
655.331	471.62
655.744	558.22
656.156	684.61
656.569	806.31
656.982	918.66
657.394	836.74
657.807	717.37
658.22	569.92
658.632	443.53
659.044	420.13
659.457	368.63
659.869	478.64
660.281	380.34
660.693	368.63
661.106	375.66
661.518	335.87
661.93	396.72
662.342	450.55
662.754	378
663.165	349.91
663.577	370.97
663.989	340.55
664.401	373.32
664.812	331.19
665.224	345.23
665.635	310.12
666.047	354.59
666.458	422.47
666.869	363.95
667.281	352.25
667.692	303.1
668.103	385.02
668.514	279.69
668.925	366.29
669.336	347.57
669.747	378
670.158	387.36
670.569	328.85
670.979	331.19
671.39	396.72
671.801	429.49
672.211	378
672.622	279.69
673.032	368.63
673.443	298.42
673.853	399.06
674.263	326.5
674.674	324.16
675.084	335.87
675.494	370.97
675.904	324.16
676.314	291.4
676.724	338.21
677.134	324.16
677.544	319.48
677.953	319.48
678.363	415.45
678.773	438.85
679.182	282.03
679.592	331.19
680.001	349.91
680.411	303.1
680.82	370.97
681.23	359.27
681.639	326.5
682.048	345.23
682.457	392.04
682.866	394.38
683.275	429.49
683.684	356.93
684.093	413.1
684.502	441.19
684.911	415.45
685.32	380.34
685.728	429.49
686.137	368.63
686.546	387.36
686.954	303.1
687.363	389.7
687.771	314.8
688.179	378
688.588	349.91
688.996	345.23
689.404	319.48
689.812	370.97
690.22	378
690.628	345.23
691.036	356.93
691.444	307.78
691.852	333.53
692.26	331.19
692.667	389.7
693.075	331.19
693.483	333.53
693.89	385.02
694.298	373.32
694.705	324.16
695.112	378
695.52	352.25
695.927	345.23
696.334	417.79
696.741	314.8
697.148	293.74
697.555	296.08
697.962	328.85
698.369	319.48
698.776	370.97
699.183	363.95
699.59	333.53
699.996	373.32
700.403	298.42
700.81	338.21
701.216	366.29
701.623	366.29
702.029	380.34
702.435	370.97
702.842	420.13
703.248	392.04
703.654	331.19
704.06	413.1
704.466	572.26
704.872	656.52
705.278	511.41
705.684	480.98
706.09	504.39
706.496	546.52
706.901	466.94
707.307	422.47
707.712	378
708.118	352.25
708.523	326.5
708.929	394.38
709.334	312.46
709.74	335.87
710.145	324.16
710.55	305.44
710.955	345.23
711.36	354.59
711.765	305.44
712.17	338.21
712.575	277.35
712.98	857.81
713.385	342.89
713.789	338.21
714.194	382.68
714.599	338.21
715.003	361.61
715.408	333.53
715.812	373.32
716.217	361.61
716.621	321.82
717.025	328.85
717.429	352.25
717.833	263.31
718.238	267.99
718.642	331.19
719.046	298.42
719.449	305.44
719.853	406.08
720.257	310.12
720.661	378
721.065	342.89
721.468	282.03
721.872	349.91
722.275	326.5
722.679	317.14
723.082	282.03
723.485	363.95
723.889	410.76
724.292	328.85
724.695	314.8
725.098	275.01
725.501	380.34
725.904	342.89
726.307	303.1
726.71	366.29
727.113	260.97
727.516	305.44
727.918	286.72
728.321	312.46
728.724	331.19
729.126	296.08
729.529	286.72
729.931	286.72
730.333	378
730.736	293.74
731.138	282.03
731.54	286.72
731.942	310.12
732.344	378
732.746	340.55
733.148	312.46
733.55	385.02
733.952	317.14
734.354	326.5
734.756	303.1
735.157	293.74
735.559	279.69
735.96	366.29
736.362	352.25
736.763	335.87
737.165	410.76
737.566	249.27
737.967	331.19
738.368	352.25
738.77	286.72
739.171	314.8
739.572	324.16
739.973	307.78
740.374	305.44
740.774	356.93
741.175	338.21
741.576	342.89
741.977	385.02
742.377	375.66
742.778	335.87
743.178	345.23
743.579	338.21
743.979	401.4
744.379	331.19
744.78	394.38
745.18	399.06
745.58	340.55
745.98	342.89
746.38	349.91
746.78	382.68
747.18	403.74
747.58	368.63
747.98	380.34
748.38	387.36
748.779	310.12
749.179	303.1
749.578	363.95
749.978	352.25
750.377	406.08
750.777	452.89
751.176	303.1
751.575	338.21
751.975	277.35
752.374	303.1
752.773	284.38
753.172	307.78
753.571	368.63
753.97	310.12
754.369	303.1
754.768	289.06
755.166	314.8
755.565	345.23
755.964	363.95
756.362	321.82
756.761	356.93
757.159	319.48
757.558	300.76
757.956	342.89
758.354	354.59
758.753	354.59
759.151	265.65
759.549	345.23
759.947	342.89
760.345	310.12
760.743	277.35
761.141	359.27
761.539	310.12
761.936	253.95
762.334	256.29
762.732	319.48
763.129	326.5
763.527	326.5
763.924	354.59
764.322	317.14
764.719	359.27
765.117	324.16
765.514	314.8
765.911	324.16
766.308	282.03
766.705	317.14
767.102	342.89
767.499	389.7
767.896	296.08
768.293	303.1
768.69	291.4
769.086	328.85
769.483	375.66
769.88	342.89
770.276	303.1
770.673	363.95
771.069	321.82
771.466	340.55
771.862	370.97
772.258	298.42
772.654	324.16
773.05	293.74
773.447	438.85
773.843	403.74
774.239	300.76
774.634	277.35
775.03	335.87
775.426	328.85
775.822	340.55
776.218	363.95
776.613	385.02
777.009	502.04
777.404	401.4
777.8	429.49
778.195	356.93
778.59	392.04
778.986	291.4
779.381	324.16
779.776	352.25
780.171	368.63
780.566	310.12
780.961	326.5
781.356	408.42
781.751	324.16
782.146	275.01
782.54	392.04
782.935	282.03
783.33	319.48
783.724	370.97
784.119	246.93
784.513	277.35
784.908	378
785.302	303.1
785.696	342.89
786.09	359.27
786.485	342.89
786.879	354.59
787.273	312.46
787.667	333.53
788.061	335.87
788.454	328.85
788.848	338.21
789.242	317.14
789.636	291.4
790.029	305.44
790.423	335.87
790.816	354.59
791.21	291.4
791.603	373.32
791.997	356.93
792.39	263.31
792.783	356.93
793.176	335.87
793.569	314.8
793.962	265.65
794.355	303.1
794.748	368.63
795.141	370.97
795.534	366.29
795.927	378
796.319	331.19
796.712	359.27
797.105	300.76
797.497	373.32
797.89	349.91
798.282	340.55
798.674	345.23
799.067	303.1
799.459	389.7
799.851	345.23
800.243	321.82
800.635	333.53
801.027	303.1
801.419	296.08
801.811	352.25
802.203	270.33
802.594	338.21
802.986	307.78
803.378	370.97
803.769	361.61
804.161	272.67
804.552	340.55
804.944	333.53
805.335	291.4
805.726	319.48
806.118	335.87
806.509	368.63
806.9	272.67
807.291	321.82
807.682	265.65
808.073	324.16
808.464	331.19
808.855	368.63
809.245	312.46
809.636	279.69
810.027	352.25
810.417	340.55
810.808	335.87
811.198	279.69
811.589	328.85
811.979	253.95
812.369	345.23
812.759	296.08
813.15	277.35
813.54	378
813.93	349.91
814.32	328.85
814.71	319.48
815.1	347.57
815.489	349.91
815.879	326.5
816.269	312.46
816.658	298.42
817.048	378
817.438	378
817.827	324.16
818.216	354.59
818.606	333.53
818.995	331.19
819.384	284.38
819.773	319.48
820.163	356.93
820.552	324.16
820.941	331.19
821.33	335.87
821.718	260.97
822.107	326.5
822.496	324.16
822.885	270.33
823.273	310.12
823.662	328.85
824.05	310.12
824.439	324.16
824.827	338.21
825.216	392.04
825.604	289.06
825.992	303.1
826.38	338.21
826.768	335.87
827.156	314.8
827.544	342.89
827.932	345.23
828.32	298.42
828.708	356.93
829.096	296.08
829.483	328.85
829.871	333.53
830.259	366.29
830.646	260.97
831.034	291.4
831.421	331.19
831.808	333.53
832.196	345.23
832.583	352.25
832.97	298.42
833.357	312.46
833.744	296.08
834.131	244.59
834.518	291.4
834.905	333.53
835.292	303.1
835.678	277.35
836.065	354.59
836.452	303.1
836.838	291.4
837.225	270.33
837.611	310.12
837.998	324.16
838.384	382.68
838.77	270.33
839.157	286.72
839.543	279.69
839.929	263.31
840.315	253.95
840.701	286.72
841.087	342.89
841.473	338.21
841.858	270.33
842.244	256.29
842.63	342.89
843.015	338.21
843.401	331.19
843.787	366.29
844.172	298.42
844.557	310.12
844.943	340.55
845.328	326.5
845.713	340.55
846.098	291.4
846.483	298.42
846.868	303.1
847.253	380.34
847.638	303.1
848.023	284.38
848.408	361.61
848.793	363.95
849.177	310.12
849.562	307.78
849.947	340.55
850.331	291.4
850.715	314.8
851.1	307.78
851.484	361.61
851.868	349.91
852.253	298.42
852.637	324.16
853.021	282.03
853.405	328.85
853.789	228.2
854.173	319.48
854.557	300.76
854.94	293.74
855.324	340.55
855.708	289.06
856.091	363.95
856.475	265.65
856.858	349.91
857.242	307.78
857.625	338.21
858.009	356.93
858.392	373.32
858.775	312.46
859.158	319.48
859.541	401.4
859.924	242.25
860.307	370.97
860.69	284.38
861.073	349.91
861.456	319.48
861.838	352.25
862.221	296.08
862.604	265.65
862.986	265.65
863.369	312.46
863.751	328.85
864.133	352.25
864.516	363.95
864.898	321.82
865.28	279.69
865.662	303.1
866.044	347.57
866.426	375.66
866.808	359.27
867.19	347.57
867.572	218.84
867.954	293.74
868.336	298.42
868.717	289.06
869.099	289.06
869.48	326.5
869.862	345.23
870.243	258.63
870.625	342.89
871.006	366.29
871.387	361.61
871.768	361.61
872.149	394.38
872.53	333.53
872.911	307.78
873.292	356.93
873.673	366.29
874.054	326.5
874.435	216.5
874.815	296.08
875.196	340.55
875.577	293.74
875.957	282.03
876.338	293.74
876.718	296.08
877.098	279.69
877.479	270.33
877.859	340.55
878.239	321.82
878.619	291.4
878.999	366.29
879.379	324.16
879.759	293.74
880.139	349.91
880.519	340.55
880.898	275.01
881.278	282.03
881.658	293.74
882.037	345.23
882.417	321.82
882.796	340.55
883.176	382.68
883.555	317.14
883.934	272.67
884.313	401.4
884.693	284.38
885.072	314.8
885.451	314.8
885.83	298.42
886.209	342.89
886.587	326.5
886.966	286.72
887.345	300.76
887.724	352.25
888.102	356.93
888.481	310.12
888.859	249.27
889.238	284.38
889.616	366.29
889.994	312.46
890.373	289.06
890.751	319.48
891.129	312.46
891.507	265.65
891.885	279.69
892.263	263.31
892.641	349.91
893.019	289.06
893.396	326.5
893.774	310.12
894.152	326.5
894.529	359.27
894.907	300.76
895.284	328.85
895.662	317.14
896.039	282.03
896.416	363.95
896.794	275.01
897.171	312.46
897.548	338.21
897.925	340.55
898.302	370.97
898.679	317.14
899.056	256.29
899.433	303.1
899.809	317.14
900.186	380.34
900.563	319.48
900.939	312.46
901.316	265.65
901.692	324.16
902.069	310.12
902.445	303.1
902.821	382.68
903.197	349.91
903.574	286.72
903.95	335.87
904.326	359.27
904.702	267.99
905.078	289.06
905.454	310.12
905.829	305.44
906.205	256.29
906.581	352.25
906.956	305.44
907.332	321.82
907.707	296.08
908.083	321.82
908.458	333.53
908.833	347.57
909.209	289.06
909.584	314.8
909.959	307.78
910.334	282.03
910.709	321.82
911.084	300.76
911.459	282.03
911.834	277.35
912.209	359.27
912.583	303.1
912.958	228.2
913.333	321.82
913.707	272.67
914.082	340.55
914.456	242.25
914.83	260.97
915.205	293.74
915.579	340.55
915.953	293.74
916.327	342.89
916.701	202.46
917.075	298.42
917.449	354.59
917.823	340.55
918.197	314.8
918.571	286.72
918.944	296.08
919.318	286.72
919.692	284.38
920.065	333.53
920.438	328.85
920.812	282.03
921.185	342.89
921.558	340.55
921.932	385.02
922.305	349.91
922.678	317.14
923.051	324.16
923.424	246.93
923.797	270.33
924.17	326.5
924.542	324.16
924.915	342.89
925.288	260.97
925.661	375.66
926.033	314.8
926.406	291.4
926.778	338.21
927.15	370.97
927.523	312.46
927.895	342.89
928.267	293.74
928.639	307.78
929.011	328.85
929.383	359.27
929.755	300.76
930.127	312.46
930.499	277.35
930.871	260.97
931.242	307.78
931.614	293.74
931.986	331.19
932.357	291.4
932.729	305.44
933.1	319.48
933.471	246.93
933.843	260.97
934.214	349.91
934.585	342.89
934.956	312.46
935.327	256.29
935.698	328.85
936.069	335.87
936.44	277.35
936.811	326.5
937.182	298.42
937.552	340.55
937.923	277.35
938.293	300.76
938.664	342.89
939.034	361.61
939.405	260.97
939.775	314.8
940.145	335.87
940.516	258.63
940.886	286.72
941.256	282.03
941.626	282.03
941.996	338.21
942.366	310.12
942.735	296.08
943.105	317.14
943.475	331.19
943.845	260.97
944.214	317.14
944.584	296.08
944.953	258.63
945.323	275.01
945.692	249.27
946.061	347.57
946.43	342.89
946.8	305.44
947.169	349.91
947.538	333.53
947.907	275.01
948.276	338.21
948.645	291.4
949.013	293.74
949.382	333.53
949.751	298.42
950.119	260.97
950.488	312.46
950.857	298.42
951.225	324.16
951.593	253.95
951.962	328.85
952.33	256.29
952.698	324.16
953.066	366.29
953.434	335.87
953.802	284.38
954.17	270.33
954.538	267.99
954.906	349.91
955.274	272.67
955.642	312.46
956.009	333.53
956.377	356.93
956.744	401.4
957.112	303.1
957.479	232.88
957.847	314.8
958.214	307.78
958.581	286.72
958.948	284.38
959.315	319.48
959.683	338.21
960.05	296.08
960.416	305.44
960.783	298.42
961.15	284.38
961.517	307.78
961.884	324.16
962.25	352.25
962.617	300.76
962.983	368.63
963.35	380.34
963.716	324.16
964.082	333.53
964.449	331.19
964.815	298.42
965.181	296.08
965.547	342.89
965.913	328.85
966.279	307.78
966.645	328.85
967.011	352.25
967.377	249.27
967.742	317.14
968.108	342.89
968.474	345.23
968.839	296.08
969.205	333.53
969.57	403.74
969.935	263.31
970.301	324.16
970.666	314.8
971.031	361.61
971.396	359.27
971.761	289.06
972.126	333.53
972.491	286.72
972.856	300.76
973.221	321.82
973.586	277.35
973.95	324.16
974.315	319.48
974.679	335.87
975.044	289.06
975.408	282.03
975.773	352.25
976.137	312.46
976.501	225.86
976.866	253.95
977.23	284.38
977.594	352.25
977.958	260.97
978.322	331.19
978.686	298.42
979.049	289.06
979.413	324.16
979.777	338.21
980.141	359.27
980.504	305.44
980.868	305.44
981.231	286.72
981.595	331.19
981.958	373.32
982.321	310.12
982.684	310.12
983.048	272.67
983.411	340.55
983.774	300.76
984.137	298.42
984.5	293.74
984.862	298.42
985.225	340.55
985.588	326.5
985.951	305.44
986.313	265.65
986.676	291.4
987.038	303.1
987.401	277.35
987.763	314.8
988.125	326.5
988.488	312.46
988.85	335.87
989.212	286.72
989.574	258.63
989.936	328.85
990.298	298.42
990.66	300.76
991.022	324.16
991.383	300.76
991.745	378
992.107	333.53
992.468	293.74
992.83	258.63
993.191	326.5
993.553	279.69
993.914	338.21
994.275	312.46
994.637	324.16
994.998	324.16
995.359	258.63
995.72	317.14
996.081	317.14
996.442	333.53
996.803	319.48
997.163	282.03
997.524	286.72
997.885	324.16
998.245	300.76
998.606	335.87
998.966	354.59
999.327	314.8
999.687	291.4
1000.047	246.93
1000.408	291.4
1000.768	296.08
1001.128	291.4
1001.488	345.23
1001.848	298.42
1002.208	307.78
1002.568	338.21
1002.927	307.78
1003.287	296.08
1003.647	282.03
1004.007	300.76
1004.366	312.46
1004.726	277.35
1005.085	277.35
1005.444	312.46
1005.804	354.59
1006.163	284.38
1006.522	310.12
1006.881	263.31
1007.24	307.78
1007.599	333.53
1007.958	289.06
1008.317	307.78
1008.676	223.52
1009.035	300.76
1009.393	333.53
1009.752	282.03
1010.111	286.72
1010.469	286.72
1010.828	331.19
1011.186	282.03
1011.544	293.74
1011.903	305.44
1012.261	296.08
1012.619	326.5
1012.977	289.06
1013.335	340.55
1013.693	300.76
1014.051	305.44
1014.409	319.48
1014.767	380.34
1015.124	270.33
1015.482	363.95
1015.84	249.27
1016.197	321.82
1016.555	347.57
1016.912	296.08
1017.269	263.31
1017.627	352.25
1017.984	279.69
1018.341	312.46
1018.698	263.31
1019.055	298.42
1019.412	267.99
1019.769	258.63
1020.126	298.42
1020.483	345.23
1020.84	263.31
1021.196	277.35
1021.553	296.08
1021.909	356.93
1022.266	291.4
1022.622	335.87
1022.979	310.12
1023.335	305.44
1023.691	293.74
1024.047	260.97
1024.404	277.35
1024.76	275.01
1025.116	282.03
1025.472	279.69
1025.827	253.95
1026.183	291.4
1026.539	307.78
1026.895	368.63
1027.25	277.35
1027.606	345.23
1027.961	284.38
1028.317	300.76
1028.672	260.97
1029.028	272.67
1029.383	356.93
1029.738	312.46
1030.093	317.14
1030.448	338.21
1030.803	340.55
1031.158	307.78
1031.513	279.69
1031.868	324.16
1032.223	284.38
1032.577	284.38
1032.932	249.27
1033.287	291.4
1033.641	300.76
1033.996	331.19
1034.35	275.01
1034.704	225.86
1035.059	270.33
1035.413	284.38
1035.767	284.38
1036.121	284.38
