Data from Al_FLMS009871__1116__16-31-48-000.txt Node

Date: Fri Mar 08 16:31:48 CST 2024
User: pe5414po
Spectrometer: FLMS00987
Trigger mode: 0
Integration Time (sec): 1.000000E-1
Scans to average: 1
Electric dark correction enabled: true
Nonlinearity correction enabled: false
Boxcar width: 0
XAxis mode: Wavelengths
Number of Pixels in Spectrum: 2048
>>>>>Begin Spectral Data<<<<<
188.938	-8.19
189.409	-8.19
189.879	-8.19
190.349	-169.69
190.819	-101.81
191.29	-104.15
191.76	-125.22
192.23	-118.2
192.7	-127.56
193.17	-10.53
193.64	-29.26
194.109	-12.87
194.579	-26.92
195.049	-17.55
195.519	-29.26
195.988	50.32
196.458	104.15
196.927	101.81
197.397	125.22
197.866	87.77
198.336	132.24
198.805	181.39
199.274	181.39
199.744	207.14
200.213	207.14
200.682	265.65
201.151	263.31
201.62	277.35
202.089	279.69
202.558	204.8
203.027	263.31
203.495	307.78
203.964	319.48
204.433	284.38
204.902	293.74
205.37	321.82
205.839	317.14
206.307	317.14
206.776	352.25
207.244	408.42
207.712	305.44
208.181	335.87
208.649	246.93
209.117	258.63
209.585	361.61
210.053	286.72
210.521	354.59
210.989	202.46
211.457	305.44
211.925	282.03
212.393	291.4
212.861	265.65
213.328	319.48
213.796	249.27
214.264	312.46
214.731	270.33
215.199	244.59
215.666	260.97
216.133	253.95
216.601	300.76
217.068	218.84
217.535	307.78
218.003	279.69
218.47	298.42
218.937	237.56
219.404	249.27
219.871	260.97
220.338	349.91
220.805	242.25
221.271	305.44
221.738	249.27
222.205	218.84
222.671	300.76
223.138	218.84
223.605	314.8
224.071	338.21
224.538	267.99
225.004	265.65
225.47	338.21
225.937	282.03
226.403	284.38
226.869	333.53
227.335	338.21
227.801	349.91
228.267	284.38
228.733	291.4
229.199	244.59
229.665	298.42
230.131	258.63
230.597	211.82
231.062	279.69
231.528	289.06
231.994	340.55
232.459	291.4
232.925	197.78
233.39	228.2
233.856	331.19
234.321	286.72
234.786	284.38
235.252	321.82
235.717	277.35
236.182	244.59
236.647	202.46
237.112	328.85
237.577	314.8
238.042	352.25
238.507	331.19
238.972	286.72
239.436	289.06
239.901	253.95
240.366	310.12
240.83	263.31
241.295	296.08
241.76	317.14
242.224	293.74
242.688	256.29
243.153	378
243.617	286.72
244.081	279.69
244.545	328.85
245.01	239.9
245.474	249.27
245.938	258.63
246.402	289.06
246.866	321.82
247.33	319.48
247.793	366.29
248.257	277.35
248.721	270.33
249.185	277.35
249.648	298.42
250.112	270.33
250.575	328.85
251.039	303.1
251.502	328.85
251.965	340.55
252.429	317.14
252.892	349.91
253.355	347.57
253.818	340.55
254.281	319.48
254.744	326.5
255.207	305.44
255.67	307.78
256.133	338.21
256.596	326.5
257.059	246.93
257.522	291.4
257.984	265.65
258.447	340.55
258.909	256.29
259.372	282.03
259.834	307.78
260.297	258.63
260.759	225.86
261.221	291.4
261.684	284.38
262.146	289.06
262.608	253.95
263.07	298.42
263.532	317.14
263.994	291.4
264.456	307.78
264.918	321.82
265.38	303.1
265.842	331.19
266.303	321.82
266.765	289.06
267.227	310.12
267.688	342.89
268.15	347.57
268.611	342.89
269.072	307.78
269.534	307.78
269.995	319.48
270.456	340.55
270.918	296.08
271.379	293.74
271.84	331.19
272.301	312.46
272.762	314.8
273.223	300.76
273.684	314.8
274.144	342.89
274.605	239.9
275.066	328.85
275.527	345.23
275.987	291.4
276.448	342.89
276.908	272.67
277.369	270.33
277.829	331.19
278.289	303.1
278.75	272.67
279.21	326.5
279.67	331.19
280.13	291.4
280.59	328.85
281.05	270.33
281.51	289.06
281.97	286.72
282.43	312.46
282.89	312.46
283.35	289.06
283.809	331.19
284.269	342.89
284.729	291.4
285.188	310.12
285.648	307.78
286.107	347.57
286.567	244.59
287.026	265.65
287.485	331.19
287.944	293.74
288.404	289.06
288.863	321.82
289.322	253.95
289.781	314.8
290.24	352.25
290.699	303.1
291.158	319.48
291.616	387.36
292.075	300.76
292.534	310.12
292.992	347.57
293.451	307.78
293.91	305.44
294.368	312.46
294.827	321.82
295.285	326.5
295.743	345.23
296.202	305.44
296.66	314.8
297.118	356.93
297.576	335.87
298.034	326.5
298.492	272.67
298.95	296.08
299.408	373.32
299.866	345.23
300.324	331.19
300.781	354.59
301.239	328.85
301.697	303.1
302.154	270.33
302.612	342.89
303.069	260.97
303.527	340.55
303.984	403.74
304.441	317.14
304.899	366.29
305.356	363.95
305.813	282.03
306.27	349.91
306.727	373.32
307.184	396.72
307.641	326.5
308.098	317.14
308.555	305.44
309.012	345.23
309.468	352.25
309.925	265.65
310.382	293.74
310.838	286.72
311.295	349.91
311.751	296.08
312.208	324.16
312.664	300.76
313.12	282.03
313.577	291.4
314.033	282.03
314.489	361.61
314.945	345.23
315.401	331.19
315.857	303.1
316.313	307.78
316.769	324.16
317.225	335.87
317.681	310.12
318.136	333.53
318.592	303.1
319.048	342.89
319.503	363.95
319.959	349.91
320.414	291.4
320.869	314.8
321.325	249.27
321.78	312.46
322.235	342.89
322.691	410.76
323.146	338.21
323.601	310.12
324.056	305.44
324.511	291.4
324.966	303.1
325.421	289.06
325.875	321.82
326.33	324.16
326.785	303.1
327.24	385.02
327.694	303.1
328.149	296.08
328.603	300.76
329.058	272.67
329.512	363.95
329.966	286.72
330.421	291.4
330.875	363.95
331.329	396.72
331.783	326.5
332.237	314.8
332.691	317.14
333.145	326.5
333.599	310.12
334.053	317.14
334.507	305.44
334.96	307.78
335.414	307.78
335.868	354.59
336.321	331.19
336.775	319.48
337.228	335.87
337.682	387.36
338.135	331.19
338.588	389.7
339.042	326.5
339.495	307.78
339.948	328.85
340.401	333.53
340.854	370.97
341.307	321.82
341.76	293.74
342.213	326.5
342.666	328.85
343.119	286.72
343.571	385.02
344.024	333.53
344.477	326.5
344.929	303.1
345.382	342.89
345.834	317.14
346.287	338.21
346.739	293.74
347.191	258.63
347.644	314.8
348.096	354.59
348.548	363.95
349	300.76
349.452	328.85
349.904	282.03
350.356	382.68
350.808	298.42
351.26	335.87
351.711	275.01
352.163	298.42
352.615	289.06
353.066	312.46
353.518	275.01
353.969	394.38
354.421	392.04
354.872	317.14
355.324	314.8
355.775	314.8
356.226	363.95
356.677	340.55
357.128	326.5
357.579	272.67
358.03	291.4
358.481	298.42
358.932	347.57
359.383	246.93
359.834	368.63
360.285	312.46
360.735	303.1
361.186	406.08
361.637	366.29
362.087	352.25
362.538	370.97
362.988	436.51
363.438	310.12
363.889	349.91
364.339	385.02
364.789	319.48
365.239	328.85
365.689	354.59
366.139	314.8
366.589	275.01
367.039	335.87
367.489	331.19
367.939	317.14
368.389	296.08
368.839	361.61
369.288	326.5
369.738	338.21
370.187	345.23
370.637	342.89
371.086	324.16
371.536	298.42
371.985	303.1
372.434	256.29
372.884	328.85
373.333	319.48
373.782	246.93
374.231	422.47
374.68	286.72
375.129	335.87
375.578	284.38
376.027	282.03
376.475	345.23
376.924	361.61
377.373	349.91
377.822	328.85
378.27	335.87
378.719	349.91
379.167	342.89
379.616	366.29
380.064	307.78
380.512	326.5
380.961	310.12
381.409	333.53
381.857	293.74
382.305	303.1
382.753	359.27
383.201	279.69
383.649	267.99
384.097	324.16
384.545	385.02
384.992	385.02
385.44	420.13
385.888	328.85
386.335	286.72
386.783	349.91
387.231	289.06
387.678	312.46
388.125	326.5
388.573	296.08
389.02	263.31
389.467	331.19
389.914	338.21
390.362	382.68
390.809	296.08
391.256	354.59
391.703	291.4
392.15	317.14
392.596	321.82
393.043	347.57
393.49	368.63
393.937	312.46
394.383	349.91
394.83	375.66
395.276	289.06
395.723	286.72
396.169	291.4
396.616	272.67
397.062	312.46
397.508	293.74
397.954	282.03
398.401	307.78
398.847	307.78
399.293	338.21
399.739	310.12
400.185	396.72
400.631	331.19
401.076	293.74
401.522	387.36
401.968	354.59
402.414	394.38
402.859	305.44
403.305	328.85
403.75	380.34
404.196	354.59
404.641	335.87
405.086	366.29
405.532	368.63
405.977	267.99
406.422	359.27
406.867	331.19
407.312	232.88
407.757	314.8
408.202	328.85
408.647	328.85
409.092	342.89
409.537	368.63
409.982	356.93
410.426	373.32
410.871	335.87
411.316	342.89
411.76	263.31
412.205	392.04
412.649	331.19
413.093	378
413.538	338.21
413.982	335.87
414.426	293.74
414.87	356.93
415.314	366.29
415.758	307.78
416.202	345.23
416.646	324.16
417.09	279.69
417.534	349.91
417.978	279.69
418.421	340.55
418.865	305.44
419.309	401.4
419.752	342.89
420.196	326.5
420.639	347.57
421.083	310.12
421.526	275.01
421.969	389.7
422.412	359.27
422.856	298.42
423.299	331.19
423.742	291.4
424.185	314.8
424.628	380.34
425.071	359.27
425.513	338.21
425.956	349.91
426.399	356.93
426.842	333.53
427.284	356.93
427.727	335.87
428.169	356.93
428.612	331.19
429.054	324.16
429.497	331.19
429.939	354.59
430.381	378
430.823	356.93
431.265	328.85
431.707	319.48
432.149	298.42
432.591	310.12
433.033	321.82
433.475	373.32
433.917	307.78
434.359	331.19
434.8	317.14
435.242	300.76
435.684	312.46
436.125	298.42
436.567	263.31
437.008	289.06
437.449	331.19
437.891	328.85
438.332	354.59
438.773	317.14
439.214	345.23
439.656	338.21
440.097	359.27
440.538	401.4
440.978	349.91
441.419	279.69
441.86	340.55
442.301	380.34
442.742	345.23
443.182	399.06
443.623	378
444.063	342.89
444.504	324.16
444.944	275.01
445.385	333.53
445.825	352.25
446.265	324.16
446.706	356.93
447.146	319.48
447.586	333.53
448.026	324.16
448.466	366.29
448.906	321.82
449.346	321.82
449.786	291.4
450.225	249.27
450.665	335.87
451.105	291.4
451.544	338.21
451.984	349.91
452.424	296.08
452.863	321.82
453.302	321.82
453.742	298.42
454.181	361.61
454.62	352.25
455.059	342.89
455.499	361.61
455.938	331.19
456.377	291.4
456.816	291.4
457.254	342.89
457.693	310.12
458.132	324.16
458.571	378
459.01	359.27
459.448	267.99
459.887	284.38
460.325	310.12
460.764	342.89
461.202	300.76
461.641	356.93
462.079	319.48
462.517	326.5
462.955	380.34
463.393	345.23
463.832	368.63
464.27	359.27
464.708	307.78
465.145	370.97
465.583	378
466.021	291.4
466.459	282.03
466.897	293.74
467.334	305.44
467.772	328.85
468.209	387.36
468.647	289.06
469.084	277.35
469.522	389.7
469.959	326.5
470.396	352.25
470.833	279.69
471.271	352.25
471.708	328.85
472.145	415.45
472.582	375.66
473.019	340.55
473.456	300.76
473.892	406.08
474.329	361.61
474.766	312.46
475.202	324.16
475.639	331.19
476.076	310.12
476.512	324.16
476.949	394.38
477.385	352.25
477.821	333.53
478.258	270.33
478.694	338.21
479.13	284.38
479.566	314.8
480.002	333.53
480.438	298.42
480.874	373.32
481.31	356.93
481.746	310.12
482.181	338.21
482.617	345.23
483.053	317.14
483.488	354.59
483.924	387.36
484.36	354.59
484.795	331.19
485.23	331.19
485.666	363.95
486.101	314.8
486.536	317.14
486.971	310.12
487.407	324.16
487.842	303.1
488.277	338.21
488.712	331.19
489.146	363.95
489.581	319.48
490.016	338.21
490.451	354.59
490.885	300.76
491.32	340.55
491.755	275.01
492.189	396.72
492.624	331.19
493.058	321.82
493.492	272.67
493.927	342.89
494.361	300.76
494.795	324.16
495.229	305.44
495.663	368.63
496.097	385.02
496.531	312.46
496.965	314.8
497.399	347.57
497.833	361.61
498.266	378
498.7	300.76
499.134	342.89
499.567	345.23
500.001	342.89
500.434	314.8
500.868	401.4
501.301	338.21
501.734	317.14
502.168	342.89
502.601	361.61
503.034	326.5
503.467	303.1
503.9	298.42
504.333	338.21
504.766	361.61
505.199	298.42
505.632	356.93
506.064	321.82
506.497	349.91
506.93	286.72
507.362	359.27
507.795	312.46
508.227	370.97
508.66	286.72
509.092	319.48
509.524	328.85
509.956	333.53
510.389	333.53
510.821	338.21
511.253	401.4
511.685	326.5
512.117	300.76
512.549	314.8
512.981	340.55
513.412	335.87
513.844	359.27
514.276	331.19
514.707	342.89
515.139	342.89
515.571	312.46
516.002	338.21
516.433	385.02
516.865	333.53
517.296	324.16
517.727	352.25
518.159	340.55
518.59	354.59
519.021	347.57
519.452	333.53
519.883	385.02
520.314	277.35
520.744	363.95
521.175	354.59
521.606	342.89
522.037	354.59
522.467	291.4
522.898	331.19
523.328	340.55
523.759	324.16
524.189	345.23
524.62	359.27
525.05	296.08
525.48	385.02
525.91	310.12
526.341	303.1
526.771	319.48
527.201	291.4
527.631	424.81
528.061	335.87
528.49	413.1
528.92	406.08
529.35	312.46
529.78	366.29
530.209	317.14
530.639	387.36
531.068	333.53
531.498	342.89
531.927	340.55
532.357	284.38
532.786	366.29
533.215	310.12
533.644	338.21
534.074	370.97
534.503	333.53
534.932	265.65
535.361	326.5
535.79	265.65
536.218	380.34
536.647	324.16
537.076	305.44
537.505	340.55
537.933	324.16
538.362	380.34
538.79	338.21
539.219	342.89
539.647	356.93
540.076	296.08
540.504	328.85
540.932	326.5
541.36	342.89
541.788	349.91
542.217	328.85
542.645	373.32
543.073	279.69
543.5	319.48
543.928	319.48
544.356	317.14
544.784	335.87
545.211	303.1
545.639	331.19
546.067	335.87
546.494	321.82
546.922	359.27
547.349	333.53
547.776	352.25
548.204	363.95
548.631	324.16
549.058	272.67
549.485	347.57
549.912	338.21
550.339	349.91
550.766	352.25
551.193	354.59
551.62	331.19
552.047	373.32
552.474	356.93
552.9	342.89
553.327	349.91
553.754	333.53
554.18	312.46
554.607	317.14
555.033	319.48
555.459	239.9
555.886	333.53
556.312	324.16
556.738	317.14
557.164	340.55
557.59	319.48
558.016	277.35
558.442	272.67
558.868	359.27
559.294	347.57
559.72	335.87
560.145	347.57
560.571	321.82
560.997	342.89
561.422	307.78
561.848	359.27
562.273	349.91
562.699	225.86
563.124	310.12
563.549	349.91
563.974	291.4
564.4	310.12
564.825	246.93
565.25	289.06
565.675	300.76
566.1	354.59
566.525	321.82
566.95	347.57
567.374	326.5
567.799	317.14
568.224	363.95
568.648	338.21
569.073	340.55
569.497	335.87
569.922	363.95
570.346	401.4
570.771	349.91
571.195	324.16
571.619	359.27
572.043	312.46
572.467	363.95
572.891	305.44
573.315	305.44
573.739	305.44
574.163	277.35
574.587	396.72
575.011	277.35
575.435	394.38
575.858	328.85
576.282	314.8
576.705	333.53
577.129	282.03
577.552	284.38
577.976	359.27
578.399	300.76
578.822	296.08
579.245	368.63
579.669	291.4
580.092	338.21
580.515	260.97
580.938	347.57
581.361	296.08
581.784	260.97
582.206	359.27
582.629	331.19
583.052	317.14
583.474	361.61
583.897	359.27
584.32	324.16
584.742	328.85
585.165	279.69
585.587	324.16
586.009	347.57
586.431	324.16
586.854	349.91
587.276	349.91
587.698	324.16
588.12	349.91
588.542	380.34
588.964	370.97
589.386	375.66
589.807	375.66
590.229	380.34
590.651	356.93
591.073	342.89
591.494	326.5
591.916	340.55
592.337	370.97
592.759	256.29
593.18	333.53
593.601	232.88
594.022	319.48
594.444	310.12
594.865	296.08
595.286	314.8
595.707	345.23
596.128	340.55
596.549	354.59
596.97	314.8
597.39	361.61
597.811	321.82
598.232	342.89
598.652	401.4
599.073	328.85
599.494	305.44
599.914	352.25
600.334	356.93
600.755	335.87
601.175	298.42
601.595	352.25
602.015	319.48
602.436	378
602.856	438.85
603.276	317.14
603.696	319.48
604.115	317.14
604.535	319.48
604.955	378
605.375	331.19
605.794	354.59
606.214	270.33
606.634	359.27
607.053	300.76
607.473	314.8
607.892	354.59
608.311	354.59
608.731	296.08
609.15	307.78
609.569	352.25
609.988	345.23
610.407	335.87
610.826	375.66
611.245	368.63
611.664	310.12
612.083	345.23
612.501	349.91
612.92	354.59
613.339	361.61
613.757	312.46
614.176	401.4
614.594	310.12
615.013	303.1
615.431	338.21
615.85	286.72
616.268	293.74
616.686	354.59
617.104	375.66
617.522	321.82
617.94	333.53
618.358	305.44
618.776	326.5
619.194	345.23
619.612	314.8
620.03	300.76
620.447	385.02
620.865	321.82
621.282	340.55
621.7	361.61
622.117	303.1
622.535	363.95
622.952	296.08
623.369	305.44
623.787	366.29
624.204	352.25
624.621	387.36
625.038	319.48
625.455	389.7
625.872	349.91
626.289	347.57
626.706	314.8
627.123	335.87
627.539	366.29
627.956	356.93
628.373	363.95
628.789	370.97
629.206	331.19
629.622	349.91
630.038	387.36
630.455	279.69
630.871	310.12
631.287	352.25
631.703	328.85
632.12	342.89
632.536	321.82
632.952	321.82
633.368	258.63
633.783	349.91
634.199	342.89
634.615	333.53
635.031	333.53
635.446	333.53
635.862	286.72
636.277	319.48
636.693	267.99
637.108	328.85
637.524	370.97
637.939	328.85
638.354	279.69
638.77	347.57
639.185	284.38
639.6	347.57
640.015	382.68
640.43	321.82
640.845	359.27
641.259	394.38
641.674	303.1
642.089	279.69
642.504	314.8
642.918	370.97
643.333	349.91
643.747	324.16
644.162	349.91
644.576	380.34
644.991	296.08
645.405	310.12
645.819	342.89
646.233	347.57
646.647	403.74
647.061	338.21
647.475	378
647.889	272.67
648.303	289.06
648.717	340.55
649.131	293.74
649.545	258.63
649.958	401.4
650.372	415.45
650.785	361.61
651.199	356.93
651.612	375.66
652.026	359.27
652.439	347.57
652.852	324.16
653.266	359.27
653.679	331.19
654.092	352.25
654.505	289.06
654.918	286.72
655.331	338.21
655.744	286.72
656.156	366.29
656.569	345.23
656.982	352.25
657.394	368.63
657.807	305.44
658.22	373.32
658.632	326.5
659.044	347.57
659.457	333.53
659.869	267.99
660.281	359.27
660.693	317.14
661.106	284.38
661.518	380.34
661.93	328.85
662.342	305.44
662.754	326.5
663.165	342.89
663.577	272.67
663.989	293.74
664.401	282.03
664.812	335.87
665.224	291.4
665.635	368.63
666.047	342.89
666.458	354.59
666.869	345.23
667.281	298.42
667.692	310.12
668.103	300.76
668.514	345.23
668.925	317.14
669.336	363.95
669.747	326.5
670.158	321.82
670.569	312.46
670.979	312.46
671.39	321.82
671.801	326.5
672.211	310.12
672.622	338.21
673.032	375.66
673.443	282.03
673.853	349.91
674.263	382.68
674.674	307.78
675.084	317.14
675.494	368.63
675.904	263.31
676.314	307.78
676.724	331.19
677.134	359.27
677.544	352.25
677.953	312.46
678.363	378
678.773	361.61
679.182	282.03
679.592	375.66
680.001	347.57
680.411	342.89
680.82	328.85
681.23	392.04
681.639	373.32
682.048	359.27
682.457	352.25
682.866	354.59
683.275	237.56
683.684	312.46
684.093	347.57
684.502	319.48
684.911	331.19
685.32	314.8
685.728	314.8
686.137	410.76
686.546	420.13
686.954	277.35
687.363	324.16
687.771	352.25
688.179	345.23
688.588	326.5
688.996	385.02
689.404	300.76
689.812	324.16
690.22	284.38
690.628	326.5
691.036	335.87
691.444	345.23
691.852	305.44
692.26	370.97
692.667	331.19
693.075	321.82
693.483	401.4
693.89	305.44
694.298	338.21
694.705	319.48
695.112	328.85
695.52	335.87
695.927	258.63
696.334	326.5
696.741	289.06
697.148	373.32
697.555	279.69
697.962	328.85
698.369	359.27
698.776	345.23
699.183	307.78
699.59	368.63
699.996	392.04
700.403	385.02
700.81	345.23
701.216	345.23
701.623	338.21
702.029	378
702.435	298.42
702.842	321.82
703.248	335.87
703.654	349.91
704.06	366.29
704.466	378
704.872	291.4
705.278	378
705.684	324.16
706.09	326.5
706.496	342.89
706.901	321.82
707.307	300.76
707.712	305.44
708.118	340.55
708.523	342.89
708.929	277.35
709.334	349.91
709.74	310.12
710.145	361.61
710.55	296.08
710.955	347.57
711.36	324.16
711.765	335.87
712.17	328.85
712.575	375.66
712.98	766.53
713.385	356.93
713.789	345.23
714.194	335.87
714.599	321.82
715.003	331.19
715.408	312.46
715.812	331.19
716.217	359.27
716.621	286.72
717.025	342.89
717.429	356.93
717.833	324.16
718.238	314.8
718.642	375.66
719.046	258.63
719.449	284.38
719.853	324.16
720.257	352.25
720.661	317.14
721.065	314.8
721.468	328.85
721.872	277.35
722.275	333.53
722.679	293.74
723.082	380.34
723.485	242.25
723.889	328.85
724.292	300.76
724.695	361.61
725.098	352.25
725.501	303.1
725.904	349.91
726.307	307.78
726.71	324.16
727.113	370.97
727.516	370.97
727.918	314.8
728.321	293.74
728.724	310.12
729.126	370.97
729.529	375.66
729.931	342.89
730.333	300.76
730.736	260.97
731.138	333.53
731.54	307.78
731.942	314.8
732.344	354.59
732.746	335.87
733.148	291.4
733.55	317.14
733.952	328.85
734.354	382.68
734.756	284.38
735.157	345.23
735.559	303.1
735.96	321.82
736.362	373.32
736.763	305.44
737.165	321.82
737.566	272.67
737.967	286.72
738.368	354.59
738.77	253.95
739.171	347.57
739.572	359.27
739.973	324.16
740.374	368.63
740.774	307.78
741.175	345.23
741.576	296.08
741.977	291.4
742.377	352.25
742.778	284.38
743.178	396.72
743.579	328.85
743.979	340.55
744.379	300.76
744.78	342.89
745.18	333.53
745.58	359.27
745.98	324.16
746.38	406.08
746.78	333.53
747.18	375.66
747.58	314.8
747.98	319.48
748.38	291.4
748.779	319.48
749.179	354.59
749.578	366.29
749.978	354.59
750.377	378
750.777	246.93
751.176	335.87
751.575	331.19
751.975	326.5
752.374	347.57
752.773	352.25
753.172	382.68
753.571	319.48
753.97	359.27
754.369	307.78
754.768	286.72
755.166	378
755.565	321.82
755.964	366.29
756.362	312.46
756.761	272.67
757.159	361.61
757.558	338.21
757.956	312.46
758.354	314.8
758.753	321.82
759.151	328.85
759.549	363.95
759.947	286.72
760.345	333.53
760.743	272.67
761.141	256.29
761.539	359.27
761.936	324.16
762.334	305.44
762.732	284.38
763.129	352.25
763.527	422.47
763.924	324.16
764.322	328.85
764.719	272.67
765.117	324.16
765.514	317.14
765.911	347.57
766.308	382.68
766.705	345.23
767.102	296.08
767.499	345.23
767.896	298.42
768.293	382.68
768.69	312.46
769.086	272.67
769.483	378
769.88	275.01
770.276	284.38
770.673	328.85
771.069	359.27
771.466	342.89
771.862	286.72
772.258	328.85
772.654	331.19
773.05	319.48
773.447	342.89
773.843	399.06
774.239	378
774.634	267.99
775.03	354.59
775.426	314.8
775.822	319.48
776.218	286.72
776.613	361.61
777.009	354.59
777.404	319.48
777.8	340.55
778.195	338.21
778.59	342.89
778.986	382.68
779.381	345.23
779.776	333.53
780.171	396.72
780.566	328.85
780.961	307.78
781.356	368.63
781.751	338.21
782.146	356.93
782.54	312.46
782.935	279.69
783.33	352.25
783.724	345.23
784.119	303.1
784.513	347.57
784.908	307.78
785.302	286.72
785.696	359.27
786.09	272.67
786.485	340.55
786.879	359.27
787.273	291.4
787.667	356.93
788.061	321.82
788.454	314.8
788.848	282.03
789.242	340.55
789.636	317.14
790.029	314.8
790.423	324.16
790.816	312.46
791.21	361.61
791.603	368.63
791.997	291.4
792.39	394.38
792.783	244.59
793.176	291.4
793.569	277.35
793.962	256.29
794.355	289.06
794.748	359.27
795.141	359.27
795.534	324.16
795.927	305.44
796.319	298.42
796.712	314.8
797.105	310.12
797.497	314.8
797.89	342.89
798.282	298.42
798.674	347.57
799.067	275.01
799.459	282.03
799.851	267.99
800.243	378
800.635	345.23
801.027	272.67
801.419	307.78
801.811	342.89
802.203	244.59
802.594	345.23
802.986	321.82
803.378	312.46
803.769	361.61
804.161	317.14
804.552	368.63
804.944	347.57
805.335	352.25
805.726	291.4
806.118	279.69
806.509	277.35
806.9	349.91
807.291	385.02
807.682	331.19
808.073	340.55
808.464	272.67
808.855	305.44
809.245	321.82
809.636	310.12
810.027	300.76
810.417	382.68
810.808	370.97
811.198	361.61
811.589	349.91
811.979	317.14
812.369	298.42
812.759	319.48
813.15	370.97
813.54	356.93
813.93	354.59
814.32	326.5
814.71	265.65
815.1	352.25
815.489	279.69
815.879	359.27
816.269	303.1
816.658	333.53
817.048	286.72
817.438	312.46
817.827	305.44
818.216	258.63
818.606	272.67
818.995	394.38
819.384	272.67
819.773	300.76
820.163	328.85
820.552	270.33
820.941	335.87
821.33	326.5
821.718	326.5
822.107	378
822.496	331.19
822.885	354.59
823.273	307.78
823.662	326.5
824.05	305.44
824.439	352.25
824.827	359.27
825.216	354.59
825.604	303.1
825.992	305.44
826.38	286.72
826.768	239.9
827.156	298.42
827.544	319.48
827.932	328.85
828.32	314.8
828.708	324.16
829.096	275.01
829.483	303.1
829.871	396.72
830.259	296.08
830.646	356.93
831.034	282.03
831.421	258.63
831.808	319.48
832.196	338.21
832.583	354.59
832.97	326.5
833.357	319.48
833.744	307.78
834.131	256.29
834.518	303.1
834.905	307.78
835.292	312.46
835.678	335.87
836.065	366.29
836.452	319.48
836.838	410.76
837.225	366.29
837.611	335.87
837.998	340.55
838.384	359.27
838.77	321.82
839.157	354.59
839.543	232.88
839.929	342.89
840.315	314.8
840.701	286.72
841.087	335.87
841.473	331.19
841.858	324.16
842.244	258.63
842.63	338.21
843.015	289.06
843.401	380.34
843.787	324.16
844.172	310.12
844.557	312.46
844.943	335.87
845.328	333.53
845.713	342.89
846.098	265.65
846.483	422.47
846.868	298.42
847.253	310.12
847.638	225.86
848.023	338.21
848.408	368.63
848.793	307.78
849.177	326.5
849.562	326.5
849.947	331.19
850.331	305.44
850.715	363.95
851.1	289.06
851.484	354.59
851.868	342.89
852.253	366.29
852.637	378
853.021	378
853.405	298.42
853.789	291.4
854.173	378
854.557	282.03
854.94	366.29
855.324	392.04
855.708	410.76
856.091	305.44
856.475	340.55
856.858	307.78
857.242	312.46
857.625	321.82
858.009	328.85
858.392	310.12
858.775	317.14
859.158	333.53
859.541	282.03
859.924	354.59
860.307	345.23
860.69	387.36
861.073	310.12
861.456	331.19
861.838	321.82
862.221	279.69
862.604	333.53
862.986	340.55
863.369	305.44
863.751	263.31
864.133	293.74
864.516	338.21
864.898	338.21
865.28	286.72
865.662	359.27
866.044	324.16
866.426	312.46
866.808	326.5
867.19	366.29
867.572	282.03
867.954	333.53
868.336	361.61
868.717	326.5
869.099	335.87
869.48	312.46
869.862	328.85
870.243	277.35
870.625	303.1
871.006	368.63
871.387	361.61
871.768	317.14
872.149	356.93
872.53	324.16
872.911	291.4
873.292	324.16
873.673	321.82
874.054	307.78
874.435	263.31
874.815	331.19
875.196	310.12
875.577	366.29
875.957	298.42
876.338	307.78
876.718	328.85
877.098	321.82
877.479	289.06
877.859	321.82
878.239	303.1
878.619	307.78
878.999	324.16
879.379	382.68
879.759	352.25
880.139	300.76
880.519	307.78
880.898	361.61
881.278	349.91
881.658	310.12
882.037	284.38
882.417	378
882.796	282.03
883.176	324.16
883.555	378
883.934	370.97
884.313	300.76
884.693	265.65
885.072	305.44
885.451	310.12
885.83	324.16
886.209	289.06
886.587	305.44
886.966	324.16
887.345	284.38
887.724	328.85
888.102	298.42
888.481	291.4
888.859	296.08
889.238	314.8
889.616	335.87
889.994	359.27
890.373	246.93
890.751	286.72
891.129	333.53
891.507	303.1
891.885	324.16
892.263	272.67
892.641	300.76
893.019	370.97
893.396	342.89
893.774	286.72
894.152	293.74
894.529	354.59
894.907	319.48
895.284	314.8
895.662	300.76
896.039	385.02
896.416	326.5
896.794	326.5
897.171	347.57
897.548	279.69
897.925	359.27
898.302	387.36
898.679	378
899.056	429.49
899.433	349.91
899.809	361.61
900.186	286.72
900.563	394.38
900.939	307.78
901.316	370.97
901.692	300.76
902.069	263.31
902.445	378
902.821	317.14
903.197	328.85
903.574	321.82
903.95	321.82
904.326	342.89
904.702	354.59
905.078	303.1
905.454	352.25
905.829	324.16
906.205	291.4
906.581	260.97
906.956	291.4
907.332	282.03
907.707	296.08
908.083	303.1
908.458	345.23
908.833	335.87
909.209	307.78
909.584	324.16
909.959	314.8
910.334	312.46
910.709	303.1
911.084	275.01
911.459	296.08
911.834	277.35
912.209	356.93
912.583	366.29
912.958	300.76
913.333	314.8
913.707	314.8
914.082	354.59
914.456	289.06
914.83	345.23
915.205	310.12
915.579	258.63
915.953	307.78
916.327	335.87
916.701	312.46
917.075	289.06
917.449	356.93
917.823	363.95
918.197	307.78
918.571	385.02
918.944	321.82
919.318	293.74
919.692	293.74
920.065	312.46
920.438	363.95
920.812	347.57
921.185	347.57
921.558	272.67
921.932	347.57
922.305	312.46
922.678	317.14
923.051	317.14
923.424	368.63
923.797	307.78
924.17	305.44
924.542	321.82
924.915	321.82
925.288	408.42
925.661	246.93
926.033	356.93
926.406	305.44
926.778	305.44
927.15	338.21
927.523	310.12
927.895	335.87
928.267	296.08
928.639	328.85
929.011	289.06
929.383	317.14
929.755	284.38
930.127	286.72
930.499	317.14
930.871	284.38
931.242	312.46
931.614	249.27
931.986	314.8
932.357	354.59
932.729	314.8
933.1	272.67
933.471	286.72
933.843	333.53
934.214	307.78
934.585	370.97
934.956	387.36
935.327	427.15
935.698	356.93
936.069	345.23
936.44	356.93
936.811	324.16
937.182	305.44
937.552	289.06
937.923	382.68
938.293	326.5
938.664	361.61
939.034	352.25
939.405	349.91
939.775	373.32
940.145	312.46
940.516	272.67
940.886	286.72
941.256	347.57
941.626	354.59
941.996	427.15
942.366	293.74
942.735	342.89
943.105	312.46
943.475	345.23
943.845	300.76
944.214	319.48
944.584	291.4
944.953	338.21
945.323	335.87
945.692	312.46
946.061	298.42
946.43	354.59
946.8	401.4
947.169	298.42
947.538	300.76
947.907	270.33
948.276	303.1
948.645	317.14
949.013	345.23
949.382	335.87
949.751	312.46
950.119	380.34
950.488	326.5
950.857	335.87
951.225	312.46
951.593	347.57
951.962	300.76
952.33	326.5
952.698	293.74
953.066	296.08
953.434	321.82
953.802	298.42
954.17	359.27
954.538	361.61
954.906	282.03
955.274	286.72
955.642	303.1
956.009	342.89
956.377	300.76
956.744	331.19
957.112	361.61
957.479	282.03
957.847	310.12
958.214	317.14
958.581	361.61
958.948	310.12
959.315	349.91
959.683	331.19
960.05	359.27
960.416	282.03
960.783	345.23
961.15	291.4
961.517	366.29
961.884	310.12
962.25	349.91
962.617	293.74
962.983	303.1
963.35	349.91
963.716	331.19
964.082	310.12
964.449	366.29
964.815	286.72
965.181	305.44
965.547	305.44
965.913	317.14
966.279	335.87
966.645	319.48
967.011	314.8
967.377	328.85
967.742	303.1
968.108	373.32
968.474	382.68
968.839	319.48
969.205	251.61
969.57	352.25
969.935	312.46
970.301	279.69
970.666	317.14
971.031	363.95
971.396	342.89
971.761	342.89
972.126	373.32
972.491	335.87
972.856	284.38
973.221	300.76
973.586	272.67
973.95	251.61
974.315	317.14
974.679	282.03
975.044	373.32
975.408	321.82
975.773	326.5
976.137	345.23
976.501	303.1
976.866	298.42
977.23	333.53
977.594	307.78
977.958	354.59
978.322	352.25
978.686	317.14
979.049	356.93
979.413	317.14
979.777	354.59
980.141	324.16
980.504	335.87
980.868	284.38
981.231	331.19
981.595	331.19
981.958	300.76
982.321	293.74
982.684	239.9
983.048	399.06
983.411	291.4
983.774	321.82
984.137	314.8
984.5	314.8
984.862	342.89
985.225	279.69
985.588	338.21
985.951	249.27
986.313	258.63
986.676	314.8
987.038	331.19
987.401	335.87
987.763	333.53
988.125	310.12
988.488	277.35
988.85	347.57
989.212	321.82
989.574	356.93
989.936	251.61
990.298	296.08
990.66	387.36
991.022	356.93
991.383	326.5
991.745	312.46
992.107	324.16
992.468	356.93
992.83	340.55
993.191	317.14
993.553	282.03
993.914	342.89
994.275	354.59
994.637	338.21
994.998	293.74
995.359	307.78
995.72	333.53
996.081	326.5
996.442	298.42
996.803	300.76
997.163	307.78
997.524	385.02
997.885	312.46
998.245	265.65
998.606	326.5
998.966	303.1
999.327	363.95
999.687	296.08
1000.047	338.21
1000.408	378
1000.768	277.35
1001.128	307.78
1001.488	258.63
1001.848	284.38
1002.208	286.72
1002.568	277.35
1002.927	303.1
1003.287	286.72
1003.647	347.57
1004.007	310.12
1004.366	305.44
1004.726	375.66
1005.085	370.97
1005.444	312.46
1005.804	307.78
1006.163	282.03
1006.522	321.82
1006.881	314.8
1007.24	328.85
1007.599	354.59
1007.958	345.23
1008.317	366.29
1008.676	314.8
1009.035	340.55
1009.393	340.55
1009.752	312.46
1010.111	260.97
1010.469	333.53
1010.828	389.7
1011.186	305.44
1011.544	300.76
1011.903	345.23
1012.261	230.54
1012.619	267.99
1012.977	328.85
1013.335	349.91
1013.693	293.74
1014.051	366.29
1014.409	380.34
1014.767	298.42
1015.124	352.25
1015.482	356.93
1015.84	363.95
1016.197	258.63
1016.555	335.87
1016.912	300.76
1017.269	317.14
1017.627	368.63
1017.984	356.93
1018.341	293.74
1018.698	331.19
1019.055	298.42
1019.412	347.57
1019.769	345.23
1020.126	333.53
1020.483	375.66
1020.84	349.91
1021.196	303.1
1021.553	284.38
1021.909	277.35
1022.266	340.55
1022.622	347.57
1022.979	394.38
1023.335	413.1
1023.691	342.89
1024.047	333.53
1024.404	368.63
1024.76	368.63
1025.116	279.69
1025.472	347.57
1025.827	239.9
1026.183	328.85
1026.539	277.35
1026.895	275.01
1027.25	317.14
1027.606	310.12
1027.961	260.97
1028.317	342.89
1028.672	319.48
1029.028	349.91
1029.383	317.14
1029.738	349.91
1030.093	267.99
1030.448	307.78
1030.803	291.4
1031.158	317.14
1031.513	338.21
1031.868	310.12
1032.223	326.5
1032.577	359.27
1032.932	363.95
1033.287	298.42
1033.641	340.55
1033.996	331.19
1034.35	319.48
1034.704	321.82
1035.059	406.08
1035.413	385.02
1035.767	385.02
1036.121	385.02
