Data from Al_FLMS009871__1102__16-31-46-600.txt Node

Date: Fri Mar 08 16:31:46 CST 2024
User: pe5414po
Spectrometer: FLMS00987
Trigger mode: 0
Integration Time (sec): 1.000000E-1
Scans to average: 1
Electric dark correction enabled: true
Nonlinearity correction enabled: false
Boxcar width: 0
XAxis mode: Wavelengths
Number of Pixels in Spectrum: 2048
>>>>>Begin Spectral Data<<<<<
188.938	-110.01
189.409	-110.01
189.879	-110.01
190.349	-70.22
190.819	-88.94
191.29	-77.24
191.76	-107.66
192.23	-81.92
192.7	-114.69
193.17	-44.47
193.64	-0
194.109	-72.56
194.579	-16.38
195.049	-42.13
195.519	-25.75
195.988	14.04
196.458	91.28
196.927	67.88
197.397	77.24
197.866	161.5
198.336	170.86
198.805	159.16
199.274	194.26
199.744	184.9
200.213	236.39
200.682	166.18
201.151	163.84
201.62	229.37
202.089	299.59
202.558	231.71
203.027	299.59
203.495	306.61
203.964	330.02
204.433	322.99
204.902	327.67
205.37	369.8
205.839	299.59
206.307	315.97
206.776	283.2
207.244	290.23
207.712	315.97
208.181	351.08
208.649	365.12
209.117	348.74
209.585	266.82
210.053	341.72
210.521	367.46
210.989	421.3
211.457	292.57
211.925	297.25
212.393	306.61
212.861	273.84
213.328	304.27
213.796	259.8
214.264	248.1
214.731	313.63
215.199	325.33
215.666	259.8
216.133	276.18
216.601	241.08
217.068	269.16
217.535	243.42
218.003	271.5
218.47	315.97
218.937	318.31
219.404	285.55
219.871	252.78
220.338	266.82
220.805	252.78
221.271	266.82
221.738	287.89
222.205	276.18
222.671	250.44
223.138	243.42
223.605	255.12
224.071	205.97
224.538	287.89
225.004	215.33
225.47	327.67
225.937	245.76
226.403	308.95
226.869	262.14
227.335	280.86
227.801	220.01
228.267	306.61
228.733	327.67
229.199	280.86
229.665	369.8
230.131	297.25
230.597	238.73
231.062	276.18
231.528	304.27
231.994	320.65
232.459	313.63
232.925	273.84
233.39	297.25
233.856	250.44
234.321	306.61
234.786	287.89
235.252	339.38
235.717	308.95
236.182	238.73
236.647	327.67
237.112	280.86
237.577	330.02
238.042	257.46
238.507	325.33
238.972	215.33
239.436	351.08
239.901	330.02
240.366	269.16
240.83	276.18
241.295	262.14
241.76	301.93
242.224	250.44
242.688	299.59
243.153	315.97
243.617	229.37
244.081	320.65
244.545	276.18
245.01	365.12
245.474	294.91
245.938	334.7
246.402	273.84
246.866	320.65
247.33	308.95
247.793	278.52
248.257	285.55
248.721	344.06
249.185	348.74
249.648	299.59
250.112	313.63
250.575	306.61
251.039	290.23
251.502	255.12
251.965	257.46
252.429	358.1
252.892	308.95
253.355	322.99
253.818	301.93
254.281	292.57
254.744	330.02
255.207	266.82
255.67	269.16
256.133	320.65
256.596	245.76
257.059	297.25
257.522	278.52
257.984	276.18
258.447	287.89
258.909	278.52
259.372	304.27
259.834	332.36
260.297	311.29
260.759	341.72
261.221	290.23
261.684	334.7
262.146	292.57
262.608	339.38
263.07	283.2
263.532	262.14
263.994	262.14
264.456	330.02
264.918	278.52
265.38	203.63
265.842	285.55
266.303	299.59
266.765	278.52
267.227	234.05
267.688	294.91
268.15	287.89
268.611	271.5
269.072	290.23
269.534	271.5
269.995	301.93
270.456	360.44
270.918	337.04
271.379	360.44
271.84	332.36
272.301	306.61
272.762	283.2
273.223	285.55
273.684	301.93
274.144	367.46
274.605	337.04
275.066	278.52
275.527	306.61
275.987	297.25
276.448	297.25
276.908	337.04
277.369	276.18
277.829	332.36
278.289	252.78
278.75	252.78
279.21	304.27
279.67	353.42
280.13	292.57
280.59	276.18
281.05	280.86
281.51	297.25
281.97	299.59
282.43	325.33
282.89	362.78
283.35	327.67
283.809	294.91
284.269	290.23
284.729	285.55
285.188	351.08
285.648	276.18
286.107	390.87
286.567	262.14
287.026	315.97
287.485	348.74
287.944	273.84
288.404	318.31
288.863	332.36
289.322	262.14
289.781	390.87
290.24	301.93
290.699	355.76
291.158	315.97
291.616	332.36
292.075	332.36
292.534	297.25
292.992	271.5
293.451	365.12
293.91	264.48
294.368	287.89
294.827	276.18
295.285	318.31
295.743	304.27
296.202	273.84
296.66	332.36
297.118	348.74
297.576	294.91
298.034	330.02
298.492	278.52
298.95	269.16
299.408	320.65
299.866	353.42
300.324	325.33
300.781	290.23
301.239	290.23
301.697	306.61
302.154	294.91
302.612	271.5
303.069	341.72
303.527	322.99
303.984	304.27
304.441	344.06
304.899	341.72
305.356	283.2
305.813	301.93
306.27	315.97
306.727	332.36
307.184	325.33
307.641	315.97
308.098	381.51
308.555	313.63
309.012	311.29
309.468	299.59
309.925	308.95
310.382	365.12
310.838	283.2
311.295	306.61
311.751	365.12
312.208	369.8
312.664	262.14
313.12	311.29
313.577	327.67
314.033	341.72
314.489	320.65
314.945	280.86
315.401	334.7
315.857	238.73
316.313	339.38
316.769	259.8
317.225	322.99
317.681	290.23
318.136	348.74
318.592	348.74
319.048	388.53
319.503	334.7
319.959	313.63
320.414	339.38
320.869	330.02
321.325	353.42
321.78	346.4
322.235	325.33
322.691	325.33
323.146	367.46
323.601	351.08
324.056	322.99
324.511	355.76
324.966	355.76
325.421	330.02
325.875	334.7
326.33	320.65
326.785	327.67
327.24	308.95
327.694	358.1
328.149	294.91
328.603	325.33
329.058	332.36
329.512	397.89
329.966	315.97
330.421	287.89
330.875	332.36
331.329	376.83
331.783	311.29
332.237	332.36
332.691	290.23
333.145	330.02
333.599	330.02
334.053	320.65
334.507	395.55
334.96	322.99
335.414	297.25
335.868	315.97
336.321	236.39
336.775	339.38
337.228	315.97
337.682	383.85
338.135	276.18
338.588	334.7
339.042	334.7
339.495	355.76
339.948	365.12
340.401	320.65
340.854	290.23
341.307	285.55
341.76	351.08
342.213	299.59
342.666	301.93
343.119	308.95
343.571	390.87
344.024	339.38
344.477	318.31
344.929	325.33
345.382	313.63
345.834	360.44
346.287	297.25
346.739	285.55
347.191	262.14
347.644	330.02
348.096	353.42
348.548	355.76
349	353.42
349.452	379.17
349.904	390.87
350.356	266.82
350.808	299.59
351.26	341.72
351.711	381.51
352.163	337.04
352.615	372.15
353.066	351.08
353.518	372.15
353.969	318.31
354.421	271.5
354.872	299.59
355.324	353.42
355.775	388.53
356.226	308.95
356.677	346.4
357.128	351.08
357.579	276.18
358.03	301.93
358.481	355.76
358.932	360.44
359.383	292.57
359.834	287.89
360.285	301.93
360.735	313.63
361.186	292.57
361.637	301.93
362.087	318.31
362.538	320.65
362.988	320.65
363.438	297.25
363.889	344.06
364.339	276.18
364.789	344.06
365.239	372.15
365.689	341.72
366.139	346.4
366.589	400.23
367.039	365.12
367.489	341.72
367.939	311.29
368.389	332.36
368.839	318.31
369.288	337.04
369.738	297.25
370.187	315.97
370.637	325.33
371.086	322.99
371.536	280.86
371.985	379.17
372.434	355.76
372.884	337.04
373.333	344.06
373.782	276.18
374.231	325.33
374.68	290.23
375.129	355.76
375.578	308.95
376.027	297.25
376.475	355.76
376.924	351.08
377.373	360.44
377.822	341.72
378.27	304.27
378.719	313.63
379.167	358.1
379.616	330.02
380.064	222.35
380.512	372.15
380.961	301.93
381.409	372.15
381.857	386.19
382.305	322.99
382.753	383.85
383.201	339.38
383.649	304.27
384.097	315.97
384.545	344.06
384.992	379.17
385.44	344.06
385.888	334.7
386.335	393.21
386.783	322.99
387.231	320.65
387.678	341.72
388.125	365.12
388.573	327.67
389.02	372.15
389.467	334.7
389.914	292.57
390.362	360.44
390.809	299.59
391.256	346.4
391.703	351.08
392.15	259.8
392.596	297.25
393.043	374.49
393.49	365.12
393.937	325.33
394.383	313.63
394.83	346.4
395.276	290.23
395.723	299.59
396.169	313.63
396.616	320.65
397.062	351.08
397.508	369.8
397.954	332.36
398.401	330.02
398.847	301.93
399.293	297.25
399.739	348.74
400.185	339.38
400.631	344.06
401.076	283.2
401.522	337.04
401.968	362.78
402.414	344.06
402.859	341.72
403.305	315.97
403.75	327.67
404.196	322.99
404.641	402.57
405.086	353.42
405.532	285.55
405.977	351.08
406.422	358.1
406.867	304.27
407.312	337.04
407.757	372.15
408.202	372.15
408.647	334.7
409.092	386.19
409.537	308.95
409.982	411.93
410.426	365.12
410.871	346.4
411.316	376.83
411.76	355.76
412.205	351.08
412.649	379.17
413.093	327.67
413.538	306.61
413.982	337.04
414.426	325.33
414.87	344.06
415.314	271.5
415.758	304.27
416.202	369.8
416.646	346.4
417.09	360.44
417.534	304.27
417.978	386.19
418.421	334.7
418.865	351.08
419.309	344.06
419.752	334.7
420.196	311.29
420.639	346.4
421.083	376.83
421.526	346.4
421.969	369.8
422.412	334.7
422.856	318.31
423.299	348.74
423.742	304.27
424.185	306.61
424.628	271.5
425.071	346.4
425.513	376.83
425.956	339.38
426.399	383.85
426.842	318.31
427.284	327.67
427.727	348.74
428.169	339.38
428.612	327.67
429.054	332.36
429.497	383.85
429.939	353.42
430.381	334.7
430.823	369.8
431.265	330.02
431.707	266.82
432.149	341.72
432.591	299.59
433.033	278.52
433.475	330.02
433.917	362.78
434.359	358.1
434.8	397.89
435.242	332.36
435.684	367.46
436.125	262.14
436.567	301.93
437.008	348.74
437.449	320.65
437.891	330.02
438.332	318.31
438.773	297.25
439.214	358.1
439.656	362.78
440.097	358.1
440.538	379.17
440.978	388.53
441.419	330.02
441.86	355.76
442.301	348.74
442.742	348.74
443.182	409.59
443.623	344.06
444.063	351.08
444.504	334.7
444.944	311.29
445.385	318.31
445.825	266.82
446.265	372.15
446.706	402.57
447.146	283.2
447.586	327.67
448.026	348.74
448.466	397.89
448.906	327.67
449.346	409.59
449.786	397.89
450.225	334.7
450.665	376.83
451.105	318.31
451.544	369.8
451.984	325.33
452.424	383.85
452.863	315.97
453.302	332.36
453.742	325.33
454.181	355.76
454.62	238.73
455.059	341.72
455.499	339.38
455.938	341.72
456.377	346.4
456.816	344.06
457.254	325.33
457.693	395.55
458.132	353.42
458.571	318.31
459.01	332.36
459.448	393.21
459.887	325.33
460.325	304.27
460.764	397.89
461.202	283.2
461.641	313.63
462.079	402.57
462.517	330.02
462.955	311.29
463.393	344.06
463.832	278.52
464.27	355.76
464.708	358.1
465.145	358.1
465.583	290.23
466.021	294.91
466.459	304.27
466.897	330.02
467.334	348.74
467.772	337.04
468.209	315.97
468.647	325.33
469.084	362.78
469.522	306.61
469.959	402.57
470.396	322.99
470.833	369.8
471.271	290.23
471.708	304.27
472.145	308.95
472.582	325.33
473.019	334.7
473.456	351.08
473.892	367.46
474.329	341.72
474.766	341.72
475.202	337.04
475.639	325.33
476.076	306.61
476.512	339.38
476.949	362.78
477.385	341.72
477.821	313.63
478.258	332.36
478.694	297.25
479.13	393.21
479.566	372.15
480.002	292.57
480.438	320.65
480.874	383.85
481.31	346.4
481.746	397.89
482.181	306.61
482.617	339.38
483.053	322.99
483.488	351.08
483.924	414.27
484.36	308.95
484.795	330.02
485.23	376.83
485.666	348.74
486.101	404.91
486.536	355.76
486.971	320.65
487.407	344.06
487.842	311.29
488.277	320.65
488.712	360.44
489.146	358.1
489.581	313.63
490.016	348.74
490.451	372.15
490.885	367.46
491.32	325.33
491.755	409.59
492.189	301.93
492.624	299.59
493.058	320.65
493.492	299.59
493.927	322.99
494.361	344.06
494.795	327.67
495.229	386.19
495.663	346.4
496.097	339.38
496.531	411.93
496.965	322.99
497.399	292.57
497.833	402.57
498.266	395.55
498.7	346.4
499.134	297.25
499.567	344.06
500.001	425.98
500.434	325.33
500.868	369.8
501.301	299.59
501.734	327.67
502.168	325.33
502.601	351.08
503.034	301.93
503.467	313.63
503.9	341.72
504.333	337.04
504.766	297.25
505.199	362.78
505.632	348.74
506.064	358.1
506.497	322.99
506.93	346.4
507.362	355.76
507.795	362.78
508.227	386.19
508.66	372.15
509.092	332.36
509.524	351.08
509.956	318.31
510.389	376.83
510.821	379.17
511.253	344.06
511.685	339.38
512.117	379.17
512.549	301.93
512.981	311.29
513.412	393.21
513.844	358.1
514.276	386.19
514.707	376.83
515.139	348.74
515.571	248.1
516.002	273.84
516.433	283.2
516.865	301.93
517.296	283.2
517.727	376.83
518.159	344.06
518.59	348.74
519.021	372.15
519.452	400.23
519.883	362.78
520.314	290.23
520.744	390.87
521.175	337.04
521.606	327.67
522.037	285.55
522.467	337.04
522.898	351.08
523.328	280.86
523.759	355.76
524.189	339.38
524.62	280.86
525.05	353.42
525.48	374.49
525.91	308.95
526.341	222.35
526.771	308.95
527.201	308.95
527.631	369.8
528.061	337.04
528.49	360.44
528.92	308.95
529.35	341.72
529.78	287.89
530.209	308.95
530.639	325.33
531.068	318.31
531.498	320.65
531.927	308.95
532.357	332.36
532.786	322.99
533.215	327.67
533.644	353.42
534.074	346.4
534.503	372.15
534.932	367.46
535.361	346.4
535.79	355.76
536.218	355.76
536.647	308.95
537.076	386.19
537.505	337.04
537.933	425.98
538.362	360.44
538.79	266.82
539.219	348.74
539.647	355.76
540.076	330.02
540.504	362.78
540.932	330.02
541.36	278.52
541.788	369.8
542.217	353.42
542.645	346.4
543.073	301.93
543.5	304.27
543.928	353.42
544.356	360.44
544.784	337.04
545.211	353.42
545.639	311.29
546.067	290.23
546.494	330.02
546.922	402.57
547.349	304.27
547.776	306.61
548.204	341.72
548.631	325.33
549.058	322.99
549.485	409.59
549.912	369.8
550.339	358.1
550.766	351.08
551.193	348.74
551.62	322.99
552.047	315.97
552.474	306.61
552.9	264.48
553.327	353.42
553.754	362.78
554.18	369.8
554.607	318.31
555.033	428.32
555.459	308.95
555.886	304.27
556.312	367.46
556.738	294.91
557.164	341.72
557.59	332.36
558.016	283.2
558.442	358.1
558.868	330.02
559.294	292.57
559.72	344.06
560.145	330.02
560.571	418.96
560.997	315.97
561.422	339.38
561.848	341.72
562.273	381.51
562.699	365.12
563.124	383.85
563.549	362.78
563.974	381.51
564.4	346.4
564.825	369.8
565.25	248.1
565.675	351.08
566.1	304.27
566.525	327.67
566.95	372.15
567.374	344.06
567.799	306.61
568.224	306.61
568.648	327.67
569.073	369.8
569.497	308.95
569.922	351.08
570.346	327.67
570.771	280.86
571.195	320.65
571.619	383.85
572.043	339.38
572.467	304.27
572.891	308.95
573.315	297.25
573.739	337.04
574.163	339.38
574.587	348.74
575.011	369.8
575.435	374.49
575.858	322.99
576.282	348.74
576.705	301.93
577.129	353.42
577.552	355.76
577.976	353.42
578.399	376.83
578.822	353.42
579.245	285.55
579.669	294.91
580.092	374.49
580.515	315.97
580.938	411.93
581.361	264.48
581.784	334.7
582.206	355.76
582.629	313.63
583.052	332.36
583.474	348.74
583.897	294.91
584.32	341.72
584.742	330.02
585.165	334.7
585.587	297.25
586.009	339.38
586.431	311.29
586.854	386.19
587.276	332.36
587.698	379.17
588.12	315.97
588.542	330.02
588.964	390.87
589.386	400.23
589.807	348.74
590.229	360.44
590.651	320.65
591.073	355.76
591.494	308.95
591.916	306.61
592.337	376.83
592.759	348.74
593.18	318.31
593.601	243.42
594.022	355.76
594.444	301.93
594.865	311.29
595.286	318.31
595.707	332.36
596.128	322.99
596.549	390.87
596.97	344.06
597.39	313.63
597.811	325.33
598.232	339.38
598.652	346.4
599.073	355.76
599.494	311.29
599.914	313.63
600.334	348.74
600.755	322.99
601.175	369.8
601.595	330.02
602.015	404.91
602.436	334.7
602.856	489.17
603.276	367.46
603.696	395.55
604.115	311.29
604.535	421.3
604.955	390.87
605.375	353.42
605.794	353.42
606.214	386.19
606.634	365.12
607.053	290.23
607.473	276.18
607.892	332.36
608.311	334.7
608.731	308.95
609.15	322.99
609.569	367.46
609.988	325.33
610.407	337.04
610.826	290.23
611.245	344.06
611.664	273.84
612.083	318.31
612.501	374.49
612.92	360.44
613.339	308.95
613.757	348.74
614.176	313.63
614.594	285.55
615.013	306.61
615.431	397.89
615.85	344.06
616.268	325.33
616.686	306.61
617.104	407.25
617.522	381.51
617.94	341.72
618.358	365.12
618.776	294.91
619.194	344.06
619.612	397.89
620.03	339.38
620.447	337.04
620.865	330.02
621.282	327.67
621.7	400.23
622.117	297.25
622.535	337.04
622.952	330.02
623.369	355.76
623.787	322.99
624.204	332.36
624.621	337.04
625.038	339.38
625.455	383.85
625.872	358.1
626.289	320.65
626.706	308.95
627.123	348.74
627.539	304.27
627.956	301.93
628.373	330.02
628.789	322.99
629.206	372.15
629.622	306.61
630.038	269.16
630.455	404.91
630.871	287.89
631.287	369.8
631.703	299.59
632.12	360.44
632.536	372.15
632.952	407.25
633.368	315.97
633.783	337.04
634.199	344.06
634.615	341.72
635.031	339.38
635.446	355.76
635.862	280.86
636.277	299.59
636.693	315.97
637.108	292.57
637.524	355.76
637.939	327.67
638.354	388.53
638.77	332.36
639.185	376.83
639.6	304.27
640.015	402.57
640.43	301.93
640.845	292.57
641.259	301.93
641.674	358.1
642.089	304.27
642.504	330.02
642.918	390.87
643.333	311.29
643.747	301.93
644.162	348.74
644.576	362.78
644.991	304.27
645.405	367.46
645.819	297.25
646.233	301.93
646.647	355.76
647.061	372.15
647.475	390.87
647.889	360.44
648.303	283.2
648.717	365.12
649.131	294.91
649.545	327.67
649.958	390.87
650.372	320.65
650.785	308.95
651.199	344.06
651.612	337.04
652.026	304.27
652.439	344.06
652.852	337.04
653.266	313.63
653.679	360.44
654.092	372.15
654.505	318.31
654.918	337.04
655.331	362.78
655.744	348.74
656.156	280.86
656.569	322.99
656.982	379.17
657.394	276.18
657.807	287.89
658.22	327.67
658.632	348.74
659.044	315.97
659.457	353.42
659.869	308.95
660.281	262.14
660.693	320.65
661.106	360.44
661.518	299.59
661.93	299.59
662.342	318.31
662.754	348.74
663.165	315.97
663.577	313.63
663.989	332.36
664.401	290.23
664.812	311.29
665.224	290.23
665.635	348.74
666.047	269.16
666.458	369.8
666.869	311.29
667.281	351.08
667.692	344.06
668.103	355.76
668.514	372.15
668.925	395.55
669.336	334.7
669.747	369.8
670.158	341.72
670.569	393.21
670.979	311.29
671.39	332.36
671.801	358.1
672.211	344.06
672.622	294.91
673.032	325.33
673.443	334.7
673.853	334.7
674.263	294.91
674.674	339.38
675.084	351.08
675.494	388.53
675.904	262.14
676.314	301.93
676.724	367.46
677.134	245.76
677.544	348.74
677.953	322.99
678.363	315.97
678.773	348.74
679.182	372.15
679.592	315.97
680.001	353.42
680.411	365.12
680.82	330.02
681.23	379.17
681.639	365.12
682.048	332.36
682.457	243.42
682.866	376.83
683.275	283.2
683.684	351.08
684.093	330.02
684.502	337.04
684.911	301.93
685.32	278.52
685.728	334.7
686.137	386.19
686.546	299.59
686.954	353.42
687.363	369.8
687.771	374.49
688.179	386.19
688.588	252.78
688.996	360.44
689.404	297.25
689.812	285.55
690.22	330.02
690.628	299.59
691.036	325.33
691.444	351.08
691.852	320.65
692.26	278.52
692.667	341.72
693.075	346.4
693.483	283.2
693.89	372.15
694.298	304.27
694.705	334.7
695.112	271.5
695.52	344.06
695.927	337.04
696.334	325.33
696.741	383.85
697.148	322.99
697.555	332.36
697.962	332.36
698.369	397.89
698.776	332.36
699.183	334.7
699.59	353.42
699.996	301.93
700.403	287.89
700.81	367.46
701.216	327.67
701.623	327.67
702.029	264.48
702.435	341.72
702.842	395.55
703.248	322.99
703.654	285.55
704.06	362.78
704.466	358.1
704.872	287.89
705.278	315.97
705.684	362.78
706.09	379.17
706.496	358.1
706.901	322.99
707.307	337.04
707.712	299.59
708.118	320.65
708.523	320.65
708.929	334.7
709.334	327.67
709.74	360.44
710.145	339.38
710.55	287.89
710.955	383.85
711.36	351.08
711.765	283.2
712.17	353.42
712.575	271.5
712.98	828.55
713.385	344.06
713.789	283.2
714.194	355.76
714.599	379.17
715.003	320.65
715.408	332.36
715.812	348.74
716.217	322.99
716.621	339.38
717.025	353.42
717.429	339.38
717.833	344.06
718.238	320.65
718.642	297.25
719.046	332.36
719.449	344.06
719.853	397.89
720.257	315.97
720.661	332.36
721.065	344.06
721.468	294.91
721.872	297.25
722.275	365.12
722.679	339.38
723.082	341.72
723.485	301.93
723.889	327.67
724.292	313.63
724.695	325.33
725.098	297.25
725.501	362.78
725.904	351.08
726.307	344.06
726.71	285.55
727.113	294.91
727.516	220.01
727.918	311.29
728.321	360.44
728.724	404.91
729.126	330.02
729.529	348.74
729.931	358.1
730.333	311.29
730.736	376.83
731.138	344.06
731.54	381.51
731.942	320.65
732.344	301.93
732.746	292.57
733.148	337.04
733.55	341.72
733.952	344.06
734.354	311.29
734.756	301.93
735.157	308.95
735.559	283.2
735.96	327.67
736.362	348.74
736.763	362.78
737.165	308.95
737.566	381.51
737.967	393.21
738.368	381.51
738.77	318.31
739.171	365.12
739.572	337.04
739.973	332.36
740.374	332.36
740.774	318.31
741.175	369.8
741.576	276.18
741.977	311.29
742.377	390.87
742.778	304.27
743.178	283.2
743.579	297.25
743.979	334.7
744.379	355.76
744.78	348.74
745.18	320.65
745.58	351.08
745.98	280.86
746.38	285.55
746.78	315.97
747.18	362.78
747.58	353.42
747.98	318.31
748.38	334.7
748.779	304.27
749.179	313.63
749.578	299.59
749.978	346.4
750.377	290.23
750.777	292.57
751.176	311.29
751.575	327.67
751.975	355.76
752.374	337.04
752.773	348.74
753.172	311.29
753.571	313.63
753.97	341.72
754.369	332.36
754.768	320.65
755.166	344.06
755.565	339.38
755.964	297.25
756.362	348.74
756.761	372.15
757.159	327.67
757.558	320.65
757.956	304.27
758.354	390.87
758.753	332.36
759.151	341.72
759.549	330.02
759.947	330.02
760.345	337.04
760.743	311.29
761.141	264.48
761.539	301.93
761.936	311.29
762.334	341.72
762.732	297.25
763.129	259.8
763.527	325.33
763.924	330.02
764.322	334.7
764.719	257.46
765.117	351.08
765.514	294.91
765.911	372.15
766.308	383.85
766.705	348.74
767.102	306.61
767.499	297.25
767.896	346.4
768.293	360.44
768.69	334.7
769.086	351.08
769.483	299.59
769.88	327.67
770.276	311.29
770.673	346.4
771.069	362.78
771.466	304.27
771.862	294.91
772.258	320.65
772.654	341.72
773.05	327.67
773.447	376.83
773.843	325.33
774.239	292.57
774.634	311.29
775.03	304.27
775.426	334.7
775.822	346.4
776.218	334.7
776.613	367.46
777.009	311.29
777.404	318.31
777.8	360.44
778.195	351.08
778.59	344.06
778.986	325.33
779.381	308.95
779.776	400.23
780.171	334.7
780.566	322.99
780.961	313.63
781.356	393.21
781.751	379.17
782.146	374.49
782.54	330.02
782.935	376.83
783.33	290.23
783.724	330.02
784.119	351.08
784.513	301.93
784.908	320.65
785.302	351.08
785.696	330.02
786.09	334.7
786.485	353.42
786.879	325.33
787.273	278.52
787.667	311.29
788.061	341.72
788.454	346.4
788.848	290.23
789.242	332.36
789.636	367.46
790.029	362.78
790.423	290.23
790.816	257.46
791.21	320.65
791.603	278.52
791.997	374.49
792.39	318.31
792.783	306.61
793.176	311.29
793.569	337.04
793.962	327.67
794.355	308.95
794.748	388.53
795.141	330.02
795.534	294.91
795.927	318.31
796.319	322.99
796.712	320.65
797.105	325.33
797.497	330.02
797.89	393.21
798.282	292.57
798.674	334.7
799.067	313.63
799.459	315.97
799.851	332.36
800.243	400.23
800.635	360.44
801.027	311.29
801.419	374.49
801.811	320.65
802.203	308.95
802.594	325.33
802.986	311.29
803.378	332.36
803.769	301.93
804.161	313.63
804.552	257.46
804.944	334.7
805.335	400.23
805.726	362.78
806.118	325.33
806.509	301.93
806.9	360.44
807.291	369.8
807.682	322.99
808.073	294.91
808.464	358.1
808.855	386.19
809.245	320.65
809.636	334.7
810.027	315.97
810.417	315.97
810.808	376.83
811.198	353.42
811.589	327.67
811.979	294.91
812.369	304.27
812.759	325.33
813.15	411.93
813.54	351.08
813.93	311.29
814.32	339.38
814.71	402.57
815.1	322.99
815.489	358.1
815.879	320.65
816.269	250.44
816.658	337.04
817.048	315.97
817.438	306.61
817.827	334.7
818.216	360.44
818.606	341.72
818.995	332.36
819.384	313.63
819.773	308.95
820.163	325.33
820.552	372.15
820.941	376.83
821.33	353.42
821.718	322.99
822.107	318.31
822.496	313.63
822.885	348.74
823.273	360.44
823.662	334.7
824.05	383.85
824.439	292.57
824.827	339.38
825.216	358.1
825.604	332.36
825.992	346.4
826.38	372.15
826.768	264.48
827.156	311.29
827.544	292.57
827.932	337.04
828.32	351.08
828.708	348.74
829.096	367.46
829.483	320.65
829.871	280.86
830.259	255.12
830.646	292.57
831.034	358.1
831.421	344.06
831.808	322.99
832.196	339.38
832.583	330.02
832.97	306.61
833.357	332.36
833.744	330.02
834.131	390.87
834.518	339.38
834.905	407.25
835.292	278.52
835.678	376.83
836.065	341.72
836.452	311.29
836.838	315.97
837.225	327.67
837.611	320.65
837.998	344.06
838.384	367.46
838.77	299.59
839.157	308.95
839.543	348.74
839.929	369.8
840.315	400.23
840.701	365.12
841.087	360.44
841.473	404.91
841.858	269.16
842.244	299.59
842.63	252.78
843.015	315.97
843.401	409.59
843.787	290.23
844.172	290.23
844.557	383.85
844.943	332.36
845.328	313.63
845.713	304.27
846.098	318.31
846.483	318.31
846.868	320.65
847.253	311.29
847.638	278.52
848.023	318.31
848.408	351.08
848.793	334.7
849.177	301.93
849.562	271.5
849.947	351.08
850.331	362.78
850.715	313.63
851.1	320.65
851.484	308.95
851.868	325.33
852.253	337.04
852.637	297.25
853.021	306.61
853.405	322.99
853.789	360.44
854.173	294.91
854.557	322.99
854.94	351.08
855.324	344.06
855.708	311.29
856.091	344.06
856.475	339.38
856.858	334.7
857.242	308.95
857.625	330.02
858.009	369.8
858.392	301.93
858.775	304.27
859.158	332.36
859.541	400.23
859.924	325.33
860.307	367.46
860.69	339.38
861.073	250.44
861.456	290.23
861.838	313.63
862.221	330.02
862.604	339.38
862.986	365.12
863.369	365.12
863.751	358.1
864.133	259.8
864.516	311.29
864.898	351.08
865.28	369.8
865.662	390.87
866.044	337.04
866.426	367.46
866.808	320.65
867.19	287.89
867.572	299.59
867.954	341.72
868.336	311.29
868.717	353.42
869.099	294.91
869.48	374.49
869.862	320.65
870.243	381.51
870.625	294.91
871.006	376.83
871.387	276.18
871.768	311.29
872.149	337.04
872.53	353.42
872.911	330.02
873.292	297.25
873.673	330.02
874.054	322.99
874.435	341.72
874.815	353.42
875.196	276.18
875.577	278.52
875.957	311.29
876.338	297.25
876.718	341.72
877.098	297.25
877.479	290.23
877.859	330.02
878.239	351.08
878.619	283.2
878.999	341.72
879.379	383.85
879.759	330.02
880.139	325.33
880.519	339.38
880.898	283.2
881.278	271.5
881.658	297.25
882.037	294.91
882.417	315.97
882.796	320.65
883.176	332.36
883.555	318.31
883.934	414.27
884.313	360.44
884.693	245.76
885.072	311.29
885.451	351.08
885.83	390.87
886.209	306.61
886.587	283.2
886.966	367.46
887.345	334.7
887.724	332.36
888.102	308.95
888.481	330.02
888.859	245.76
889.238	327.67
889.616	390.87
889.994	313.63
890.373	381.51
890.751	334.7
891.129	285.55
891.507	365.12
891.885	334.7
892.263	290.23
892.641	355.76
893.019	404.91
893.396	365.12
893.774	299.59
894.152	313.63
894.529	379.17
894.907	306.61
895.284	360.44
895.662	280.86
896.039	306.61
896.416	395.55
896.794	322.99
897.171	325.33
897.548	299.59
897.925	379.17
898.302	315.97
898.679	325.33
899.056	355.76
899.433	337.04
899.809	372.15
900.186	327.67
900.563	322.99
900.939	337.04
901.316	285.55
901.692	299.59
902.069	290.23
902.445	269.16
902.821	360.44
903.197	306.61
903.574	346.4
903.95	332.36
904.326	262.14
904.702	353.42
905.078	369.8
905.454	327.67
905.829	358.1
906.205	327.67
906.581	346.4
906.956	344.06
907.332	304.27
907.707	353.42
908.083	327.67
908.458	355.76
908.833	351.08
909.209	390.87
909.584	341.72
909.959	248.1
910.334	365.12
910.709	330.02
911.084	360.44
911.459	287.89
911.834	344.06
912.209	318.31
912.583	325.33
912.958	353.42
913.333	308.95
913.707	327.67
914.082	266.82
914.456	351.08
914.83	290.23
915.205	369.8
915.579	313.63
915.953	306.61
916.327	287.89
916.701	332.36
917.075	339.38
917.449	362.78
917.823	266.82
918.197	337.04
918.571	325.33
918.944	372.15
919.318	318.31
919.692	315.97
920.065	294.91
920.438	313.63
920.812	299.59
921.185	308.95
921.558	355.76
921.932	278.52
922.305	283.2
922.678	369.8
923.051	308.95
923.424	280.86
923.797	374.49
924.17	325.33
924.542	358.1
924.915	374.49
925.288	351.08
925.661	337.04
926.033	374.49
926.406	273.84
926.778	374.49
927.15	311.29
927.523	355.76
927.895	327.67
928.267	301.93
928.639	322.99
929.011	334.7
929.383	379.17
929.755	416.62
930.127	306.61
930.499	292.57
930.871	351.08
931.242	362.78
931.614	330.02
931.986	388.53
932.357	297.25
932.729	236.39
933.1	299.59
933.471	311.29
933.843	348.74
934.214	346.4
934.585	353.42
934.956	346.4
935.327	311.29
935.698	358.1
936.069	355.76
936.44	346.4
936.811	313.63
937.182	325.33
937.552	278.52
937.923	290.23
938.293	346.4
938.664	344.06
939.034	318.31
939.405	374.49
939.775	252.78
940.145	365.12
940.516	346.4
940.886	290.23
941.256	322.99
941.626	369.8
941.996	355.76
942.366	271.5
942.735	266.82
943.105	320.65
943.475	330.02
943.845	351.08
944.214	355.76
944.584	395.55
944.953	306.61
945.323	344.06
945.692	344.06
946.061	322.99
946.43	250.44
946.8	290.23
947.169	346.4
947.538	327.67
947.907	306.61
948.276	308.95
948.645	374.49
949.013	346.4
949.382	341.72
949.751	360.44
950.119	327.67
950.488	285.55
950.857	280.86
951.225	339.38
951.593	339.38
951.962	365.12
952.33	339.38
952.698	383.85
953.066	376.83
953.434	390.87
953.802	332.36
954.17	376.83
954.538	318.31
954.906	315.97
955.274	304.27
955.642	418.96
956.009	344.06
956.377	299.59
956.744	299.59
957.112	297.25
957.479	341.72
957.847	407.25
958.214	327.67
958.581	290.23
958.948	294.91
959.315	330.02
959.683	315.97
960.05	337.04
960.416	299.59
960.783	255.12
961.15	320.65
961.517	266.82
961.884	397.89
962.25	318.31
962.617	325.33
962.983	330.02
963.35	353.42
963.716	334.7
964.082	365.12
964.449	313.63
964.815	381.51
965.181	346.4
965.547	351.08
965.913	397.89
966.279	325.33
966.645	322.99
967.011	327.67
967.377	367.46
967.742	362.78
968.108	351.08
968.474	348.74
968.839	285.55
969.205	311.29
969.57	313.63
969.935	259.8
970.301	292.57
970.666	348.74
971.031	353.42
971.396	353.42
971.761	355.76
972.126	339.38
972.491	348.74
972.856	327.67
973.221	299.59
973.586	327.67
973.95	311.29
974.315	269.16
974.679	383.85
975.044	294.91
975.408	322.99
975.773	339.38
976.137	360.44
976.501	346.4
976.866	320.65
977.23	269.16
977.594	334.7
977.958	292.57
978.322	355.76
978.686	334.7
979.049	299.59
979.413	332.36
979.777	301.93
980.141	304.27
980.504	388.53
980.868	318.31
981.231	301.93
981.595	339.38
981.958	395.55
982.321	315.97
982.684	337.04
983.048	269.16
983.411	386.19
983.774	292.57
984.137	271.5
984.5	322.99
984.862	346.4
985.225	339.38
985.588	315.97
985.951	318.31
986.313	362.78
986.676	327.67
987.038	320.65
987.401	313.63
987.763	332.36
988.125	266.82
988.488	346.4
988.85	339.38
989.212	344.06
989.574	297.25
989.936	255.12
990.298	304.27
990.66	348.74
991.022	341.72
991.383	379.17
991.745	292.57
992.107	278.52
992.468	315.97
992.83	330.02
993.191	376.83
993.553	301.93
993.914	355.76
994.275	322.99
994.637	381.51
994.998	311.29
995.359	311.29
995.72	332.36
996.081	344.06
996.442	294.91
996.803	325.33
997.163	367.46
997.524	278.52
997.885	383.85
998.245	386.19
998.606	369.8
998.966	306.61
999.327	318.31
999.687	346.4
1000.047	367.46
1000.408	292.57
1000.768	308.95
1001.128	304.27
1001.488	341.72
1001.848	292.57
1002.208	353.42
1002.568	351.08
1002.927	367.46
1003.287	297.25
1003.647	376.83
1004.007	360.44
1004.366	325.33
1004.726	320.65
1005.085	276.18
1005.444	292.57
1005.804	306.61
1006.163	308.95
1006.522	292.57
1006.881	306.61
1007.24	330.02
1007.599	285.55
1007.958	304.27
1008.317	386.19
1008.676	290.23
1009.035	353.42
1009.393	306.61
1009.752	320.65
1010.111	376.83
1010.469	318.31
1010.828	308.95
1011.186	337.04
1011.544	334.7
1011.903	344.06
1012.261	318.31
1012.619	374.49
1012.977	280.86
1013.335	388.53
1013.693	294.91
1014.051	322.99
1014.409	308.95
1014.767	271.5
1015.124	292.57
1015.482	315.97
1015.84	367.46
1016.197	327.67
1016.555	322.99
1016.912	320.65
1017.269	304.27
1017.627	283.2
1017.984	360.44
1018.341	325.33
1018.698	320.65
1019.055	348.74
1019.412	344.06
1019.769	297.25
1020.126	346.4
1020.483	315.97
1020.84	297.25
1021.196	341.72
1021.553	341.72
1021.909	276.18
1022.266	304.27
1022.622	351.08
1022.979	287.89
1023.335	259.8
1023.691	339.38
1024.047	292.57
1024.404	348.74
1024.76	346.4
1025.116	313.63
1025.472	353.42
1025.827	325.33
1026.183	311.29
1026.539	383.85
1026.895	325.33
1027.25	337.04
1027.606	285.55
1027.961	348.74
1028.317	374.49
1028.672	318.31
1029.028	351.08
1029.383	330.02
1029.738	386.19
1030.093	308.95
1030.448	374.49
1030.803	283.2
1031.158	348.74
1031.513	325.33
1031.868	341.72
1032.223	276.18
1032.577	339.38
1032.932	315.97
1033.287	322.99
1033.641	344.06
1033.996	278.52
1034.35	362.78
1034.704	374.49
1035.059	367.46
1035.413	341.72
1035.767	341.72
1036.121	341.72
