Data from Al_FLMS009871__1107__16-31-47-100.txt Node

Date: Fri Mar 08 16:31:47 CST 2024
User: pe5414po
Spectrometer: FLMS00987
Trigger mode: 0
Integration Time (sec): 1.000000E-1
Scans to average: 1
Electric dark correction enabled: true
Nonlinearity correction enabled: false
Boxcar width: 0
XAxis mode: Wavelengths
Number of Pixels in Spectrum: 2048
>>>>>Begin Spectral Data<<<<<
188.938	-63.05
189.409	-63.05
189.879	-63.05
190.349	-149.65
190.819	-194.12
191.29	-86.45
191.76	-63.05
192.23	-123.9
192.7	-84.11
193.17	-6.88
193.64	-70.07
194.109	30.57
194.579	-13.9
195.049	-37.3
195.519	21.21
195.988	-25.6
196.458	63.34
196.927	35.25
197.397	103.13
197.866	96.11
198.336	161.64
198.805	168.66
199.274	163.98
199.744	135.9
200.213	222.5
200.682	199.09
201.151	168.66
201.62	264.63
202.089	161.64
202.558	257.61
203.027	250.58
203.495	271.65
203.964	255.26
204.433	245.9
204.902	213.14
205.37	229.52
205.839	355.91
206.307	297.39
206.776	278.67
207.244	304.42
207.712	227.18
208.181	285.69
208.649	257.61
209.117	290.37
209.585	306.76
210.053	269.31
210.521	288.03
210.989	250.58
211.457	285.69
211.925	323.14
212.393	309.1
212.861	332.5
213.328	341.86
213.796	283.35
214.264	278.67
214.731	323.14
215.199	297.39
215.666	231.86
216.133	302.08
216.601	271.65
217.068	208.45
217.535	341.86
218.003	257.61
218.47	273.99
218.937	281.01
219.404	217.82
219.871	255.26
220.338	302.08
220.805	203.77
221.271	271.65
221.738	292.71
222.205	245.9
222.671	241.22
223.138	252.92
223.605	262.29
224.071	264.63
224.538	264.63
225.004	262.29
225.47	266.97
225.937	281.01
226.403	288.03
226.869	194.41
227.335	238.88
227.801	231.86
228.267	229.52
228.733	243.56
229.199	257.61
229.665	288.03
230.131	234.2
230.597	283.35
231.062	248.24
231.528	339.52
231.994	309.1
232.459	266.97
232.925	259.95
233.39	236.54
233.856	227.18
234.321	257.61
234.786	273.99
235.252	346.55
235.717	250.58
236.182	292.71
236.647	259.95
237.112	311.44
237.577	257.61
238.042	281.01
238.507	320.8
238.972	323.14
239.436	302.08
239.901	264.63
240.366	281.01
240.83	213.14
241.295	367.61
241.76	283.35
242.224	236.54
242.688	262.29
243.153	295.05
243.617	283.35
244.081	259.95
244.545	292.71
245.01	262.29
245.474	283.35
245.938	273.99
246.402	243.56
246.866	288.03
247.33	257.61
247.793	297.39
248.257	259.95
248.721	290.37
249.185	327.82
249.648	292.71
250.112	281.01
250.575	229.52
251.039	323.14
251.502	224.84
251.965	273.99
252.429	276.33
252.892	180.37
253.355	278.67
253.818	299.73
254.281	316.12
254.744	334.84
255.207	311.44
255.67	210.79
256.133	252.92
256.596	290.37
257.059	313.78
257.522	288.03
257.984	269.31
258.447	299.73
258.909	295.05
259.372	297.39
259.834	360.59
260.297	281.01
260.759	248.24
261.221	231.86
261.684	281.01
262.146	269.31
262.608	234.2
263.07	283.35
263.532	285.69
263.994	257.61
264.456	257.61
264.918	224.84
265.38	302.08
265.842	264.63
266.303	241.22
266.765	320.8
267.227	271.65
267.688	259.95
268.15	259.95
268.611	295.05
269.072	255.26
269.534	290.37
269.995	220.16
270.456	248.24
270.918	330.16
271.379	264.63
271.84	243.56
272.301	236.54
272.762	306.76
273.223	330.16
273.684	264.63
274.144	229.52
274.605	325.48
275.066	323.14
275.527	250.58
275.987	231.86
276.448	269.31
276.908	327.82
277.369	236.54
277.829	281.01
278.289	248.24
278.75	238.88
279.21	313.78
279.67	288.03
280.13	290.37
280.59	316.12
281.05	264.63
281.51	231.86
281.97	220.16
282.43	243.56
282.89	266.97
283.35	292.71
283.809	281.01
284.269	236.54
284.729	323.14
285.188	306.76
285.648	292.71
286.107	243.56
286.567	283.35
287.026	316.12
287.485	266.97
287.944	297.39
288.404	257.61
288.863	278.67
289.322	276.33
289.781	302.08
290.24	285.69
290.699	376.97
291.158	332.5
291.616	250.58
292.075	245.9
292.534	311.44
292.992	320.8
293.451	334.84
293.91	299.73
294.368	306.76
294.827	278.67
295.285	353.57
295.743	224.84
296.202	266.97
296.66	323.14
297.118	295.05
297.576	295.05
298.034	295.05
298.492	330.16
298.95	236.54
299.408	283.35
299.866	316.12
300.324	283.35
300.781	316.12
301.239	222.5
301.697	292.71
302.154	299.73
302.612	278.67
303.069	285.69
303.527	304.42
303.984	330.16
304.441	313.78
304.899	337.18
305.356	288.03
305.813	381.65
306.27	273.99
306.727	292.71
307.184	257.61
307.641	327.82
308.098	290.37
308.555	316.12
309.012	278.67
309.468	231.86
309.925	295.05
310.382	281.01
310.838	341.86
311.295	355.91
311.751	271.65
312.208	306.76
312.664	309.1
313.12	334.84
313.577	295.05
314.033	257.61
314.489	281.01
314.945	248.24
315.401	285.69
315.857	330.16
316.313	264.63
316.769	313.78
317.225	264.63
317.681	311.44
318.136	292.71
318.592	311.44
319.048	278.67
319.503	316.12
319.959	245.9
320.414	259.95
320.869	292.71
321.325	295.05
321.78	290.37
322.235	273.99
322.691	337.18
323.146	306.76
323.601	245.9
324.056	341.86
324.511	306.76
324.966	243.56
325.421	299.73
325.875	302.08
326.33	344.21
326.785	243.56
327.24	234.2
327.694	299.73
328.149	316.12
328.603	318.46
329.058	285.69
329.512	285.69
329.966	299.73
330.421	346.55
330.875	295.05
331.329	334.84
331.783	297.39
332.237	337.18
332.691	285.69
333.145	297.39
333.599	337.18
334.053	285.69
334.507	337.18
334.96	330.16
335.414	351.23
335.868	313.78
336.321	325.48
336.775	299.73
337.228	330.16
337.682	316.12
338.135	288.03
338.588	327.82
339.042	285.69
339.495	292.71
339.948	309.1
340.401	313.78
340.854	252.92
341.307	259.95
341.76	269.31
342.213	360.59
342.666	302.08
343.119	281.01
343.571	309.1
344.024	262.29
344.477	306.76
344.929	339.52
345.382	281.01
345.834	304.42
346.287	285.69
346.739	295.05
347.191	306.76
347.644	374.63
348.096	325.48
348.548	339.52
349	348.89
349.452	266.97
349.904	290.37
350.356	262.29
350.808	330.16
351.26	278.67
351.711	339.52
352.163	257.61
352.615	379.31
353.066	381.65
353.518	285.69
353.969	330.16
354.421	325.48
354.872	283.35
355.324	374.63
355.775	245.9
356.226	344.21
356.677	295.05
357.128	311.44
357.579	295.05
358.03	236.54
358.481	248.24
358.932	339.52
359.383	292.71
359.834	405.06
360.285	302.08
360.735	306.76
361.186	306.76
361.637	273.99
362.087	306.76
362.538	292.71
362.988	285.69
363.438	290.37
363.889	353.57
364.339	346.55
364.789	278.67
365.239	320.8
365.689	360.59
366.139	266.97
366.589	351.23
367.039	327.82
367.489	358.25
367.939	297.39
368.389	316.12
368.839	288.03
369.288	271.65
369.738	278.67
370.187	271.65
370.637	266.97
371.086	323.14
371.536	224.84
371.985	309.1
372.434	313.78
372.884	306.76
373.333	278.67
373.782	304.42
374.231	313.78
374.68	344.21
375.129	257.61
375.578	304.42
376.027	330.16
376.475	297.39
376.924	313.78
377.373	288.03
377.822	348.89
378.27	297.39
378.719	304.42
379.167	297.39
379.616	327.82
380.064	344.21
380.512	266.97
380.961	302.08
381.409	281.01
381.857	369.95
382.305	337.18
382.753	297.39
383.201	334.84
383.649	224.84
384.097	311.44
384.545	374.63
384.992	337.18
385.44	290.37
385.888	332.5
386.335	302.08
386.783	309.1
387.231	285.69
387.678	332.5
388.125	292.71
388.573	264.63
389.02	276.33
389.467	325.48
389.914	311.44
390.362	330.16
390.809	330.16
391.256	353.57
391.703	337.18
392.15	348.89
392.596	334.84
393.043	320.8
393.49	271.65
393.937	285.69
394.383	325.48
394.83	309.1
395.276	302.08
395.723	351.23
396.169	283.35
396.616	355.91
397.062	318.46
397.508	297.39
397.954	367.61
398.401	259.95
398.847	309.1
399.293	285.69
399.739	318.46
400.185	316.12
400.631	304.42
401.076	304.42
401.522	302.08
401.968	337.18
402.414	299.73
402.859	348.89
403.305	236.54
403.75	330.16
404.196	295.05
404.641	309.1
405.086	288.03
405.532	311.44
405.977	292.71
406.422	302.08
406.867	285.69
407.312	248.24
407.757	264.63
408.202	269.31
408.647	344.21
409.092	334.84
409.537	288.03
409.982	334.84
410.426	262.29
410.871	341.86
411.316	341.86
411.76	351.23
412.205	285.69
412.649	290.37
413.093	292.71
413.538	292.71
413.982	297.39
414.426	311.44
414.87	332.5
415.314	362.93
415.758	348.89
416.202	257.61
416.646	288.03
417.09	288.03
417.534	318.46
417.978	311.44
418.421	320.8
418.865	304.42
419.309	290.37
419.752	309.1
420.196	297.39
420.639	283.35
421.083	283.35
421.526	323.14
421.969	281.01
422.412	304.42
422.856	278.67
423.299	316.12
423.742	297.39
424.185	337.18
424.628	334.84
425.071	337.18
425.513	243.56
425.956	337.18
426.399	290.37
426.842	379.31
427.284	285.69
427.727	313.78
428.169	257.61
428.612	266.97
429.054	395.7
429.497	367.61
429.939	386.33
430.381	339.52
430.823	311.44
431.265	302.08
431.707	320.8
432.149	316.12
432.591	302.08
433.033	259.95
433.475	292.71
433.917	334.84
434.359	309.1
434.8	325.48
435.242	318.46
435.684	278.67
436.125	327.82
436.567	276.33
437.008	220.16
437.449	351.23
437.891	252.92
438.332	234.2
438.773	297.39
439.214	297.39
439.656	316.12
440.097	309.1
440.538	318.46
440.978	252.92
441.419	327.82
441.86	229.52
442.301	262.29
442.742	238.88
443.182	332.5
443.623	285.69
444.063	316.12
444.504	295.05
444.944	316.12
445.385	334.84
445.825	353.57
446.265	323.14
446.706	311.44
447.146	369.95
447.586	323.14
448.026	285.69
448.466	302.08
448.906	288.03
449.346	306.76
449.786	353.57
450.225	316.12
450.665	334.84
451.105	318.46
451.544	248.24
451.984	337.18
452.424	341.86
452.863	299.73
453.302	341.86
453.742	320.8
454.181	290.37
454.62	292.71
455.059	243.56
455.499	292.71
455.938	330.16
456.377	332.5
456.816	358.25
457.254	318.46
457.693	278.67
458.132	297.39
458.571	311.44
459.01	330.16
459.448	276.33
459.887	327.82
460.325	290.37
460.764	334.84
461.202	348.89
461.641	269.31
462.079	341.86
462.517	276.33
462.955	341.86
463.393	297.39
463.832	318.46
464.27	288.03
464.708	292.71
465.145	330.16
465.583	327.82
466.021	295.05
466.459	281.01
466.897	311.44
467.334	292.71
467.772	304.42
468.209	292.71
468.647	304.42
469.084	245.9
469.522	348.89
469.959	311.44
470.396	367.61
470.833	339.52
471.271	288.03
471.708	217.82
472.145	334.84
472.582	358.25
473.019	330.16
473.456	313.78
473.892	264.63
474.329	332.5
474.766	348.89
475.202	297.39
475.639	316.12
476.076	330.16
476.512	273.99
476.949	344.21
477.385	341.86
477.821	262.29
478.258	278.67
478.694	269.31
479.13	309.1
479.566	344.21
480.002	262.29
480.438	337.18
480.874	313.78
481.31	299.73
481.746	323.14
482.181	332.5
482.617	271.65
483.053	386.33
483.488	337.18
483.924	306.76
484.36	362.93
484.795	285.69
485.23	283.35
485.666	327.82
486.101	248.24
486.536	299.73
486.971	306.76
487.407	292.71
487.842	374.63
488.277	273.99
488.712	271.65
489.146	271.65
489.581	259.95
490.016	299.73
490.451	292.71
490.885	337.18
491.32	276.33
491.755	299.73
492.189	346.55
492.624	278.67
493.058	360.59
493.492	316.12
493.927	313.78
494.361	313.78
494.795	276.33
495.229	325.48
495.663	299.73
496.097	330.16
496.531	241.22
496.965	372.29
497.399	309.1
497.833	304.42
498.266	330.16
498.7	281.01
499.134	332.5
499.567	299.73
500.001	330.16
500.434	353.57
500.868	295.05
501.301	273.99
501.734	383.99
502.168	283.35
502.601	295.05
503.034	306.76
503.467	348.89
503.9	309.1
504.333	339.52
504.766	311.44
505.199	323.14
505.632	288.03
506.064	290.37
506.497	316.12
506.93	348.89
507.362	302.08
507.795	323.14
508.227	224.84
508.66	262.29
509.092	273.99
509.524	330.16
509.956	311.44
510.389	323.14
510.821	281.01
511.253	353.57
511.685	362.93
512.117	334.84
512.549	306.76
512.981	346.55
513.412	323.14
513.844	304.42
514.276	281.01
514.707	304.42
515.139	276.33
515.571	367.61
516.002	320.8
516.433	238.88
516.865	302.08
517.296	376.97
517.727	283.35
518.159	292.71
518.59	325.48
519.021	320.8
519.452	302.08
519.883	288.03
520.314	302.08
520.744	323.14
521.175	273.99
521.606	316.12
522.037	346.55
522.467	344.21
522.898	320.8
523.328	348.89
523.759	327.82
524.189	374.63
524.62	262.29
525.05	283.35
525.48	316.12
525.91	224.84
526.341	262.29
526.771	318.46
527.201	306.76
527.631	318.46
528.061	332.5
528.49	327.82
528.92	271.65
529.35	346.55
529.78	281.01
530.209	241.22
530.639	266.97
531.068	313.78
531.498	323.14
531.927	313.78
532.357	285.69
532.786	302.08
533.215	344.21
533.644	292.71
534.074	217.82
534.503	302.08
534.932	306.76
535.361	383.99
535.79	339.52
536.218	278.67
536.647	316.12
537.076	290.37
537.505	323.14
537.933	344.21
538.362	299.73
538.79	341.86
539.219	290.37
539.647	316.12
540.076	285.69
540.504	257.61
540.932	283.35
541.36	299.73
541.788	262.29
542.217	278.67
542.645	320.8
543.073	250.58
543.5	346.55
543.928	248.24
544.356	304.42
544.784	330.16
545.211	337.18
545.639	290.37
546.067	334.84
546.494	273.99
546.922	283.35
547.349	327.82
547.776	318.46
548.204	281.01
548.631	353.57
549.058	297.39
549.485	281.01
549.912	313.78
550.339	313.78
550.766	285.69
551.193	323.14
551.62	341.86
552.047	348.89
552.474	288.03
552.9	334.84
553.327	288.03
553.754	320.8
554.18	367.61
554.607	285.69
555.033	323.14
555.459	323.14
555.886	273.99
556.312	330.16
556.738	306.76
557.164	264.63
557.59	348.89
558.016	316.12
558.442	288.03
558.868	243.56
559.294	292.71
559.72	311.44
560.145	313.78
560.571	355.91
560.997	309.1
561.422	353.57
561.848	292.71
562.273	348.89
562.699	285.69
563.124	332.5
563.549	304.42
563.974	339.52
564.4	334.84
564.825	297.39
565.25	269.31
565.675	288.03
566.1	348.89
566.525	271.65
566.95	337.18
567.374	309.1
567.799	323.14
568.224	292.71
568.648	276.33
569.073	304.42
569.497	313.78
569.922	283.35
570.346	273.99
570.771	348.89
571.195	358.25
571.619	283.35
572.043	273.99
572.467	306.76
572.891	278.67
573.315	353.57
573.739	283.35
574.163	283.35
574.587	360.59
575.011	327.82
575.435	248.24
575.858	278.67
576.282	222.5
576.705	320.8
577.129	266.97
577.552	273.99
577.976	295.05
578.399	383.99
578.822	297.39
579.245	259.95
579.669	278.67
580.092	269.31
580.515	318.46
580.938	318.46
581.361	299.73
581.784	266.97
582.206	351.23
582.629	285.69
583.052	323.14
583.474	276.33
583.897	311.44
584.32	292.71
584.742	353.57
585.165	339.52
585.587	334.84
586.009	306.76
586.431	292.71
586.854	276.33
587.276	278.67
587.698	276.33
588.12	238.88
588.542	273.99
588.964	344.21
589.386	299.73
589.807	325.48
590.229	344.21
590.651	269.31
591.073	313.78
591.494	285.69
591.916	360.59
592.337	290.37
592.759	337.18
593.18	288.03
593.601	325.48
594.022	339.52
594.444	327.82
594.865	295.05
595.286	327.82
595.707	281.01
596.128	302.08
596.549	327.82
596.97	306.76
597.39	318.46
597.811	266.97
598.232	376.97
598.652	285.69
599.073	304.42
599.494	299.73
599.914	316.12
600.334	217.82
600.755	283.35
601.175	255.26
601.595	285.69
602.015	313.78
602.436	330.16
602.856	428.46
603.276	311.44
603.696	278.67
604.115	264.63
604.535	273.99
604.955	337.18
605.375	231.86
605.794	290.37
606.214	297.39
606.634	320.8
607.053	266.97
607.473	332.5
607.892	276.33
608.311	337.18
608.731	245.9
609.15	320.8
609.569	316.12
609.988	348.89
610.407	276.33
610.826	259.95
611.245	344.21
611.664	346.55
612.083	236.54
612.501	269.31
612.92	351.23
613.339	369.95
613.757	337.18
614.176	334.84
614.594	285.69
615.013	302.08
615.431	288.03
615.85	313.78
616.268	285.69
616.686	302.08
617.104	297.39
617.522	323.14
617.94	288.03
618.358	316.12
618.776	316.12
619.194	327.82
619.612	334.84
620.03	327.82
620.447	379.31
620.865	313.78
621.282	295.05
621.7	299.73
622.117	341.86
622.535	241.22
622.952	231.86
623.369	320.8
623.787	299.73
624.204	273.99
624.621	309.1
625.038	234.2
625.455	409.74
625.872	257.61
626.289	292.71
626.706	252.92
627.123	276.33
627.539	299.73
627.956	302.08
628.373	297.39
628.789	309.1
629.206	297.39
629.622	257.61
630.038	311.44
630.455	257.61
630.871	266.97
631.287	337.18
631.703	302.08
632.12	316.12
632.536	353.57
632.952	306.76
633.368	285.69
633.783	302.08
634.199	337.18
634.615	360.59
635.031	341.86
635.446	311.44
635.862	288.03
636.277	309.1
636.693	273.99
637.108	320.8
637.524	311.44
637.939	299.73
638.354	351.23
638.77	330.16
639.185	255.26
639.6	311.44
640.015	309.1
640.43	358.25
640.845	344.21
641.259	302.08
641.674	316.12
642.089	323.14
642.504	283.35
642.918	313.78
643.333	316.12
643.747	224.84
644.162	316.12
644.576	273.99
644.991	330.16
645.405	285.69
645.819	290.37
646.233	295.05
646.647	283.35
647.061	367.61
647.475	297.39
647.889	309.1
648.303	358.25
648.717	288.03
649.131	320.8
649.545	262.29
649.958	323.14
650.372	283.35
650.785	229.52
651.199	311.44
651.612	309.1
652.026	283.35
652.439	320.8
652.852	320.8
653.266	255.26
653.679	266.97
654.092	367.61
654.505	255.26
654.918	273.99
655.331	269.31
655.744	306.76
656.156	311.44
656.569	311.44
656.982	283.35
657.394	383.99
657.807	402.72
658.22	339.52
658.632	311.44
659.044	245.9
659.457	327.82
659.869	360.59
660.281	269.31
660.693	245.9
661.106	269.31
661.518	299.73
661.93	264.63
662.342	243.56
662.754	269.31
663.165	327.82
663.577	290.37
663.989	306.76
664.401	323.14
664.812	304.42
665.224	327.82
665.635	313.78
666.047	360.59
666.458	283.35
666.869	292.71
667.281	318.46
667.692	283.35
668.103	264.63
668.514	217.82
668.925	278.67
669.336	304.42
669.747	292.71
670.158	292.71
670.569	334.84
670.979	318.46
671.39	372.29
671.801	325.48
672.211	330.16
672.622	355.91
673.032	281.01
673.443	295.05
673.853	276.33
674.263	334.84
674.674	355.91
675.084	290.37
675.494	283.35
675.904	325.48
676.314	266.97
676.724	262.29
677.134	365.27
677.544	320.8
677.953	388.68
678.363	353.57
678.773	365.27
679.182	295.05
679.592	283.35
680.001	330.16
680.411	313.78
680.82	252.92
681.23	311.44
681.639	372.29
682.048	288.03
682.457	297.39
682.866	276.33
683.275	288.03
683.684	285.69
684.093	285.69
684.502	266.97
684.911	353.57
685.32	332.5
685.728	302.08
686.137	288.03
686.546	334.84
686.954	332.5
687.363	259.95
687.771	292.71
688.179	281.01
688.588	313.78
688.996	320.8
689.404	327.82
689.812	330.16
690.22	318.46
690.628	348.89
691.036	306.76
691.444	266.97
691.852	320.8
692.26	262.29
692.667	358.25
693.075	355.91
693.483	302.08
693.89	320.8
694.298	281.01
694.705	278.67
695.112	271.65
695.52	255.26
695.927	297.39
696.334	271.65
696.741	276.33
697.148	323.14
697.555	283.35
697.962	318.46
698.369	299.73
698.776	391.02
699.183	264.63
699.59	283.35
699.996	351.23
700.403	379.31
700.81	281.01
701.216	316.12
701.623	344.21
702.029	292.71
702.435	339.52
702.842	318.46
703.248	290.37
703.654	304.42
704.06	376.97
704.466	311.44
704.872	299.73
705.278	309.1
705.684	316.12
706.09	311.44
706.496	264.63
706.901	304.42
707.307	295.05
707.712	276.33
708.118	320.8
708.523	245.9
708.929	302.08
709.334	259.95
709.74	358.25
710.145	358.25
710.55	339.52
710.955	302.08
711.36	285.69
711.765	381.65
712.17	273.99
712.575	288.03
712.98	845.08
713.385	292.71
713.789	276.33
714.194	292.71
714.599	295.05
715.003	320.8
715.408	264.63
715.812	330.16
716.217	297.39
716.621	316.12
717.025	334.84
717.429	344.21
717.833	325.48
718.238	276.33
718.642	299.73
719.046	281.01
719.449	304.42
719.853	290.37
720.257	250.58
720.661	304.42
721.065	290.37
721.468	283.35
721.872	276.33
722.275	299.73
722.679	283.35
723.082	271.65
723.485	250.58
723.889	325.48
724.292	281.01
724.695	288.03
725.098	332.5
725.501	295.05
725.904	313.78
726.307	309.1
726.71	309.1
727.113	330.16
727.516	241.22
727.918	269.31
728.321	271.65
728.724	337.18
729.126	278.67
729.529	299.73
729.931	355.91
730.333	351.23
730.736	299.73
731.138	365.27
731.54	337.18
731.942	313.78
732.344	344.21
732.746	248.24
733.148	309.1
733.55	365.27
733.952	320.8
734.354	295.05
734.756	264.63
735.157	229.52
735.559	276.33
735.96	259.95
736.362	334.84
736.763	288.03
737.165	320.8
737.566	288.03
737.967	290.37
738.368	309.1
738.77	327.82
739.171	311.44
739.572	318.46
739.973	309.1
740.374	341.86
740.774	295.05
741.175	362.93
741.576	285.69
741.977	369.95
742.377	288.03
742.778	362.93
743.178	304.42
743.579	320.8
743.979	297.39
744.379	243.56
744.78	295.05
745.18	236.54
745.58	292.71
745.98	295.05
746.38	299.73
746.78	362.93
747.18	320.8
747.58	334.84
747.98	255.26
748.38	290.37
748.779	318.46
749.179	278.67
749.578	379.31
749.978	250.58
750.377	299.73
750.777	318.46
751.176	243.56
751.575	283.35
751.975	327.82
752.374	276.33
752.773	327.82
753.172	341.86
753.571	288.03
753.97	248.24
754.369	320.8
754.768	271.65
755.166	320.8
755.565	351.23
755.964	316.12
756.362	334.84
756.761	295.05
757.159	311.44
757.558	306.76
757.956	276.33
758.354	229.52
758.753	288.03
759.151	306.76
759.549	313.78
759.947	269.31
760.345	302.08
760.743	271.65
761.141	276.33
761.539	320.8
761.936	285.69
762.334	292.71
762.732	295.05
763.129	344.21
763.527	250.58
763.924	344.21
764.322	269.31
764.719	175.69
765.117	276.33
765.514	346.55
765.911	313.78
766.308	290.37
766.705	327.82
767.102	306.76
767.499	346.55
767.896	273.99
768.293	299.73
768.69	327.82
769.086	304.42
769.483	341.86
769.88	273.99
770.276	318.46
770.673	276.33
771.069	316.12
771.466	259.95
771.862	255.26
772.258	313.78
772.654	302.08
773.05	309.1
773.447	281.01
773.843	320.8
774.239	297.39
774.634	320.8
775.03	351.23
775.426	290.37
775.822	292.71
776.218	355.91
776.613	339.52
777.009	362.93
777.404	299.73
777.8	316.12
778.195	276.33
778.59	330.16
778.986	276.33
779.381	337.18
779.776	229.52
780.171	306.76
780.566	297.39
780.961	320.8
781.356	332.5
781.751	283.35
782.146	248.24
782.54	309.1
782.935	288.03
783.33	292.71
783.724	372.29
784.119	278.67
784.513	234.2
784.908	323.14
785.302	339.52
785.696	332.5
786.09	252.92
786.485	285.69
786.879	311.44
787.273	339.52
787.667	339.52
788.061	266.97
788.454	297.39
788.848	255.26
789.242	344.21
789.636	381.65
790.029	273.99
790.423	323.14
790.816	334.84
791.21	351.23
791.603	295.05
791.997	372.29
792.39	306.76
792.783	299.73
793.176	273.99
793.569	273.99
793.962	276.33
794.355	332.5
794.748	295.05
795.141	278.67
795.534	325.48
795.927	330.16
796.319	241.22
796.712	306.76
797.105	266.97
797.497	309.1
797.89	330.16
798.282	299.73
798.674	271.65
799.067	339.52
799.459	262.29
799.851	306.76
800.243	281.01
800.635	252.92
801.027	273.99
801.419	285.69
801.811	341.86
802.203	323.14
802.594	229.52
802.986	325.48
803.378	316.12
803.769	264.63
804.161	255.26
804.552	334.84
804.944	252.92
805.335	262.29
805.726	316.12
806.118	353.57
806.509	257.61
806.9	295.05
807.291	337.18
807.682	327.82
808.073	271.65
808.464	297.39
808.855	320.8
809.245	243.56
809.636	332.5
810.027	285.69
810.417	332.5
810.808	269.31
811.198	299.73
811.589	358.25
811.979	245.9
812.369	344.21
812.759	248.24
813.15	393.36
813.54	339.52
813.93	273.99
814.32	309.1
814.71	269.31
815.1	313.78
815.489	273.99
815.879	325.48
816.269	313.78
816.658	379.31
817.048	297.39
817.438	273.99
817.827	365.27
818.216	264.63
818.606	316.12
818.995	276.33
819.384	302.08
819.773	313.78
820.163	344.21
820.552	313.78
820.941	288.03
821.33	306.76
821.718	273.99
822.107	285.69
822.496	231.86
822.885	299.73
823.273	276.33
823.662	316.12
824.05	311.44
824.439	318.46
824.827	290.37
825.216	250.58
825.604	309.1
825.992	288.03
826.38	360.59
826.768	323.14
827.156	285.69
827.544	285.69
827.932	271.65
828.32	292.71
828.708	358.25
829.096	316.12
829.483	292.71
829.871	318.46
830.259	269.31
830.646	273.99
831.034	309.1
831.421	320.8
831.808	337.18
832.196	318.46
832.583	358.25
832.97	304.42
833.357	316.12
833.744	266.97
834.131	290.37
834.518	344.21
834.905	236.54
835.292	332.5
835.678	302.08
836.065	290.37
836.452	285.69
836.838	362.93
837.225	288.03
837.611	288.03
837.998	355.91
838.384	302.08
838.77	299.73
839.157	271.65
839.543	365.27
839.929	276.33
840.315	311.44
840.701	346.55
841.087	271.65
841.473	276.33
841.858	288.03
842.244	316.12
842.63	257.61
843.015	337.18
843.401	316.12
843.787	285.69
844.172	379.31
844.557	311.44
844.943	299.73
845.328	285.69
845.713	278.67
846.098	311.44
846.483	372.29
846.868	285.69
847.253	288.03
847.638	252.92
848.023	255.26
848.408	360.59
848.793	273.99
849.177	299.73
849.562	323.14
849.947	297.39
850.331	325.48
850.715	297.39
851.1	346.55
851.484	316.12
851.868	309.1
852.253	327.82
852.637	276.33
853.021	313.78
853.405	248.24
853.789	327.82
854.173	332.5
854.557	236.54
854.94	339.52
855.324	395.7
855.708	332.5
856.091	325.48
856.475	334.84
856.858	292.71
857.242	273.99
857.625	311.44
858.009	327.82
858.392	238.88
858.775	297.39
859.158	273.99
859.541	344.21
859.924	271.65
860.307	344.21
860.69	355.91
861.073	302.08
861.456	332.5
861.838	257.61
862.221	304.42
862.604	271.65
862.986	241.22
863.369	283.35
863.751	316.12
864.133	269.31
864.516	304.42
864.898	276.33
865.28	334.84
865.662	323.14
866.044	266.97
866.426	283.35
866.808	297.39
867.19	379.31
867.572	339.52
867.954	320.8
868.336	259.95
868.717	313.78
869.099	325.48
869.48	311.44
869.862	283.35
870.243	248.24
870.625	288.03
871.006	304.42
871.387	264.63
871.768	362.93
872.149	278.67
872.53	337.18
872.911	306.76
873.292	292.71
873.673	346.55
874.054	262.29
874.435	252.92
874.815	248.24
875.196	339.52
875.577	290.37
875.957	346.55
876.338	313.78
876.718	283.35
877.098	306.76
877.479	276.33
877.859	360.59
878.239	381.65
878.619	320.8
878.999	323.14
879.379	372.29
879.759	241.22
880.139	318.46
880.519	302.08
880.898	245.9
881.278	281.01
881.658	248.24
882.037	318.46
882.417	362.93
882.796	330.16
883.176	332.5
883.555	292.71
883.934	290.37
884.313	323.14
884.693	269.31
885.072	339.52
885.451	288.03
885.83	290.37
886.209	334.84
886.587	327.82
886.966	306.76
887.345	271.65
887.724	318.46
888.102	332.5
888.481	276.33
888.859	276.33
889.238	210.79
889.616	327.82
889.994	306.76
890.373	311.44
890.751	316.12
891.129	297.39
891.507	285.69
891.885	360.59
892.263	283.35
892.641	234.2
893.019	295.05
893.396	320.8
893.774	330.16
894.152	288.03
894.529	295.05
894.907	269.31
895.284	288.03
895.662	250.58
896.039	299.73
896.416	376.97
896.794	332.5
897.171	360.59
897.548	262.29
897.925	341.86
898.302	208.45
898.679	344.21
899.056	288.03
899.433	206.11
899.809	278.67
900.186	264.63
900.563	285.69
900.939	285.69
901.316	271.65
901.692	374.63
902.069	302.08
902.445	283.35
902.821	334.84
903.197	323.14
903.574	290.37
903.95	292.71
904.326	241.22
904.702	295.05
905.078	348.89
905.454	323.14
905.829	283.35
906.205	318.46
906.581	334.84
906.956	353.57
907.332	273.99
907.707	292.71
908.083	281.01
908.458	323.14
908.833	332.5
909.209	302.08
909.584	339.52
909.959	295.05
910.334	269.31
910.709	292.71
911.084	241.22
911.459	203.77
911.834	320.8
912.209	295.05
912.583	292.71
912.958	332.5
913.333	309.1
913.707	330.16
914.082	288.03
914.456	348.89
914.83	320.8
915.205	229.52
915.579	320.8
915.953	285.69
916.327	334.84
916.701	297.39
917.075	288.03
917.449	302.08
917.823	316.12
918.197	262.29
918.571	238.88
918.944	346.55
919.318	255.26
919.692	299.73
920.065	243.56
920.438	292.71
920.812	313.78
921.185	325.48
921.558	351.23
921.932	271.65
922.305	302.08
922.678	273.99
923.051	318.46
923.424	311.44
923.797	290.37
924.17	306.76
924.542	273.99
924.915	295.05
925.288	283.35
925.661	266.97
926.033	299.73
926.406	325.48
926.778	288.03
927.15	269.31
927.523	292.71
927.895	313.78
928.267	318.46
928.639	327.82
929.011	266.97
929.383	231.86
929.755	297.39
930.127	360.59
930.499	304.42
930.871	316.12
931.242	281.01
931.614	309.1
931.986	330.16
932.357	250.58
932.729	290.37
933.1	313.78
933.471	304.42
933.843	362.93
934.214	248.24
934.585	266.97
934.956	227.18
935.327	344.21
935.698	323.14
936.069	311.44
936.44	316.12
936.811	283.35
937.182	299.73
937.552	306.76
937.923	334.84
938.293	224.84
938.664	273.99
939.034	327.82
939.405	266.97
939.775	276.33
940.145	276.33
940.516	278.67
940.886	337.18
941.256	372.29
941.626	264.63
941.996	259.95
942.366	309.1
942.735	337.18
943.105	295.05
943.475	292.71
943.845	309.1
944.214	309.1
944.584	318.46
944.953	231.86
945.323	236.54
945.692	281.01
946.061	332.5
946.43	290.37
946.8	285.69
947.169	362.93
947.538	295.05
947.907	325.48
948.276	332.5
948.645	283.35
949.013	323.14
949.382	236.54
949.751	304.42
950.119	269.31
950.488	306.76
950.857	311.44
951.225	330.16
951.593	292.71
951.962	309.1
952.33	285.69
952.698	283.35
953.066	306.76
953.434	311.44
953.802	337.18
954.17	264.63
954.538	302.08
954.906	295.05
955.274	236.54
955.642	332.5
956.009	311.44
956.377	358.25
956.744	325.48
957.112	330.16
957.479	278.67
957.847	334.84
958.214	283.35
958.581	304.42
958.948	297.39
959.315	313.78
959.683	304.42
960.05	283.35
960.416	306.76
960.783	252.92
961.15	269.31
961.517	297.39
961.884	302.08
962.25	313.78
962.617	337.18
962.983	257.61
963.35	271.65
963.716	306.76
964.082	372.29
964.449	290.37
964.815	236.54
965.181	281.01
965.547	332.5
965.913	290.37
966.279	365.27
966.645	283.35
967.011	346.55
967.377	334.84
967.742	290.37
968.108	276.33
968.474	292.71
968.839	238.88
969.205	285.69
969.57	365.27
969.935	245.9
970.301	292.71
970.666	269.31
971.031	316.12
971.396	295.05
971.761	288.03
972.126	339.52
972.491	299.73
972.856	285.69
973.221	297.39
973.586	295.05
973.95	283.35
974.315	224.84
974.679	278.67
975.044	346.55
975.408	259.95
975.773	339.52
976.137	295.05
976.501	351.23
976.866	238.88
977.23	262.29
977.594	330.16
977.958	362.93
978.322	372.29
978.686	344.21
979.049	341.86
979.413	259.95
979.777	262.29
980.141	351.23
980.504	295.05
980.868	292.71
981.231	332.5
981.595	351.23
981.958	306.76
982.321	316.12
982.684	217.82
983.048	236.54
983.411	288.03
983.774	304.42
984.137	276.33
984.5	339.52
984.862	316.12
985.225	285.69
985.588	316.12
985.951	292.71
986.313	297.39
986.676	285.69
987.038	273.99
987.401	271.65
987.763	269.31
988.125	252.92
988.488	264.63
988.85	320.8
989.212	299.73
989.574	309.1
989.936	257.61
990.298	302.08
990.66	297.39
991.022	304.42
991.383	327.82
991.745	325.48
992.107	269.31
992.468	323.14
992.83	320.8
993.191	355.91
993.553	351.23
993.914	248.24
994.275	283.35
994.637	358.25
994.998	299.73
995.359	269.31
995.72	302.08
996.081	339.52
996.442	302.08
996.803	351.23
997.163	262.29
997.524	273.99
997.885	316.12
998.245	245.9
998.606	372.29
998.966	290.37
999.327	358.25
999.687	290.37
1000.047	302.08
1000.408	257.61
1000.768	295.05
1001.128	288.03
1001.488	290.37
1001.848	306.76
1002.208	264.63
1002.568	241.22
1002.927	276.33
1003.287	285.69
1003.647	252.92
1004.007	273.99
1004.366	323.14
1004.726	306.76
1005.085	292.71
1005.444	271.65
1005.804	330.16
1006.163	273.99
1006.522	276.33
1006.881	353.57
1007.24	271.65
1007.599	259.95
1007.958	273.99
1008.317	306.76
1008.676	295.05
1009.035	341.86
1009.393	313.78
1009.752	273.99
1010.111	285.69
1010.469	222.5
1010.828	208.45
1011.186	222.5
1011.544	297.39
1011.903	278.67
1012.261	243.56
1012.619	316.12
1012.977	337.18
1013.335	295.05
1013.693	295.05
1014.051	281.01
1014.409	332.5
1014.767	276.33
1015.124	320.8
1015.482	376.97
1015.84	257.61
1016.197	278.67
1016.555	348.89
1016.912	325.48
1017.269	330.16
1017.627	288.03
1017.984	337.18
1018.341	302.08
1018.698	327.82
1019.055	339.52
1019.412	281.01
1019.769	332.5
1020.126	259.95
1020.483	262.29
1020.84	297.39
1021.196	285.69
1021.553	245.9
1021.909	262.29
1022.266	309.1
1022.622	383.99
1022.979	273.99
1023.335	362.93
1023.691	299.73
1024.047	248.24
1024.404	299.73
1024.76	283.35
1025.116	248.24
1025.472	257.61
1025.827	241.22
1026.183	318.46
1026.539	325.48
1026.895	283.35
1027.25	339.52
1027.606	313.78
1027.961	295.05
1028.317	281.01
1028.672	245.9
1029.028	339.52
1029.383	283.35
1029.738	288.03
1030.093	285.69
1030.448	330.16
1030.803	320.8
1031.158	306.76
1031.513	215.48
1031.868	241.22
1032.223	203.77
1032.577	283.35
1032.932	290.37
1033.287	266.97
1033.641	313.78
1033.996	285.69
1034.35	245.9
1034.704	295.05
1035.059	302.08
1035.413	311.44
1035.767	311.44
1036.121	311.44
