Data from Al_FLMS009871__1113__16-31-47-700.txt Node

Date: Fri Mar 08 16:31:47 CST 2024
User: pe5414po
Spectrometer: FLMS00987
Trigger mode: 0
Integration Time (sec): 1.000000E-1
Scans to average: 1
Electric dark correction enabled: true
Nonlinearity correction enabled: false
Boxcar width: 0
XAxis mode: Wavelengths
Number of Pixels in Spectrum: 2048
>>>>>Begin Spectral Data<<<<<
188.938	-83.97
189.409	-83.97
189.879	-83.97
190.349	-121.42
190.819	-105.03
191.29	-158.86
191.76	-95.67
192.23	-72.26
192.7	-107.37
193.17	-44.18
193.64	-65.24
194.109	35.4
194.579	-51.2
195.049	-39.5
195.519	-4.39
195.988	51.78
196.458	68.17
196.927	35.4
197.397	147.75
197.866	124.34
198.336	175.83
198.805	145.41
199.274	100.94
199.744	161.79
200.213	164.13
200.682	194.56
201.151	213.28
201.62	311.58
202.089	253.07
202.558	217.96
203.027	274.14
203.495	283.5
203.964	248.39
204.433	229.67
204.902	309.24
205.37	253.07
205.839	332.65
206.307	297.54
206.776	320.95
207.244	267.11
207.712	342.01
208.181	334.99
208.649	269.45
209.117	276.48
209.585	320.95
210.053	255.41
210.521	260.09
210.989	325.63
211.457	330.31
211.925	309.24
212.393	309.24
212.861	349.03
213.328	288.18
213.796	285.84
214.264	346.69
214.731	327.97
215.199	220.3
215.666	311.58
216.133	260.09
216.601	327.97
217.068	351.37
217.535	260.09
218.003	220.3
218.47	311.58
218.937	267.11
219.404	232.01
219.871	311.58
220.338	236.69
220.805	285.84
221.271	320.95
221.738	241.37
222.205	253.07
222.671	290.52
223.138	241.37
223.605	243.71
224.071	255.41
224.538	285.84
225.004	290.52
225.47	269.45
225.937	295.2
226.403	309.24
226.869	208.6
227.335	215.62
227.801	306.9
228.267	330.31
228.733	253.07
229.199	276.48
229.665	267.11
230.131	269.45
230.597	196.9
231.062	323.29
231.528	344.35
231.994	246.05
232.459	246.05
232.925	295.2
233.39	316.26
233.856	241.37
234.321	285.84
234.786	313.92
235.252	344.35
235.717	311.58
236.182	297.54
236.647	325.63
237.112	320.95
237.577	283.5
238.042	271.79
238.507	250.73
238.972	241.37
239.436	332.65
239.901	215.62
240.366	327.97
240.83	311.58
241.295	269.45
241.76	297.54
242.224	332.65
242.688	309.24
243.153	304.56
243.617	311.58
244.081	264.77
244.545	269.45
245.01	313.92
245.474	316.26
245.938	262.43
246.402	295.2
246.866	325.63
247.33	222.64
247.793	302.22
248.257	337.33
248.721	311.58
249.185	274.14
249.648	208.6
250.112	234.35
250.575	243.71
251.039	290.52
251.502	234.35
251.965	253.07
252.429	309.24
252.892	309.24
253.355	295.2
253.818	337.33
254.281	229.67
254.744	295.2
255.207	281.16
255.67	302.22
256.133	309.24
256.596	316.26
257.059	306.9
257.522	224.98
257.984	318.61
258.447	309.24
258.909	311.58
259.372	325.63
259.834	295.2
260.297	313.92
260.759	267.11
261.221	304.56
261.684	306.9
262.146	288.18
262.608	316.26
263.07	297.54
263.532	330.31
263.994	278.82
264.456	283.5
264.918	325.63
265.38	306.9
265.842	262.43
266.303	283.5
266.765	299.88
267.227	274.14
267.688	278.82
268.15	365.42
268.611	346.69
269.072	285.84
269.534	281.16
269.995	236.69
270.456	309.24
270.918	267.11
271.379	325.63
271.84	332.65
272.301	257.75
272.762	351.37
273.223	269.45
273.684	292.86
274.144	250.73
274.605	264.77
275.066	255.41
275.527	288.18
275.987	285.84
276.448	292.86
276.908	290.52
277.369	323.29
277.829	236.69
278.289	306.9
278.75	370.1
279.21	313.92
279.67	334.99
280.13	295.2
280.59	320.95
281.05	283.5
281.51	311.58
281.97	264.77
282.43	306.9
282.89	295.2
283.35	239.03
283.809	346.69
284.269	332.65
284.729	311.58
285.188	316.26
285.648	288.18
286.107	309.24
286.567	278.82
287.026	243.71
287.485	316.26
287.944	222.64
288.404	271.79
288.863	297.54
289.322	365.42
289.781	363.08
290.24	297.54
290.699	262.43
291.158	320.95
291.616	337.33
292.075	297.54
292.534	320.95
292.992	290.52
293.451	309.24
293.91	318.61
294.368	278.82
294.827	356.05
295.285	290.52
295.743	304.56
296.202	323.29
296.66	306.9
297.118	309.24
297.576	309.24
298.034	325.63
298.492	278.82
298.95	325.63
299.408	290.52
299.866	271.79
300.324	278.82
300.781	400.52
301.239	292.86
301.697	356.05
302.154	318.61
302.612	269.45
303.069	260.09
303.527	271.79
303.984	313.92
304.441	327.97
304.899	363.08
305.356	325.63
305.813	295.2
306.27	292.86
306.727	337.33
307.184	330.31
307.641	320.95
308.098	344.35
308.555	281.16
309.012	299.88
309.468	318.61
309.925	281.16
310.382	278.82
310.838	281.16
311.295	370.1
311.751	346.69
312.208	327.97
312.664	292.86
313.12	290.52
313.577	363.08
314.033	276.48
314.489	281.16
314.945	262.43
315.401	313.92
315.857	358.39
316.313	367.76
316.769	356.05
317.225	337.33
317.681	306.9
318.136	309.24
318.592	323.29
319.048	304.56
319.503	309.24
319.959	297.54
320.414	327.97
320.869	334.99
321.325	283.5
321.78	337.33
322.235	344.35
322.691	346.69
323.146	297.54
323.601	281.16
324.056	327.97
324.511	363.08
324.966	365.42
325.421	297.54
325.875	342.01
326.33	276.48
326.785	283.5
327.24	304.56
327.694	349.03
328.149	344.35
328.603	330.31
329.058	295.2
329.512	306.9
329.966	351.37
330.421	264.77
330.875	299.88
331.329	330.31
331.783	334.99
332.237	344.35
332.691	323.29
333.145	318.61
333.599	309.24
334.053	372.44
334.507	325.63
334.96	269.45
335.414	309.24
335.868	304.56
336.321	311.58
336.775	264.77
337.228	344.35
337.682	309.24
338.135	264.77
338.588	327.97
339.042	290.52
339.495	363.08
339.948	402.86
340.401	365.42
340.854	271.79
341.307	234.35
341.76	274.14
342.213	337.33
342.666	309.24
343.119	299.88
343.571	327.97
344.024	285.84
344.477	318.61
344.929	356.05
345.382	253.07
345.834	332.65
346.287	367.76
346.739	332.65
347.191	313.92
347.644	360.74
348.096	325.63
348.548	281.16
349	250.73
349.452	330.31
349.904	316.26
350.356	278.82
350.808	374.78
351.26	363.08
351.711	332.65
352.163	288.18
352.615	297.54
353.066	304.56
353.518	297.54
353.969	339.67
354.421	325.63
354.872	306.9
355.324	367.76
355.775	367.76
356.226	332.65
356.677	320.95
357.128	278.82
357.579	327.97
358.03	304.56
358.481	320.95
358.932	323.29
359.383	330.31
359.834	384.14
360.285	334.99
360.735	248.39
361.186	325.63
361.637	276.48
362.087	290.52
362.538	306.9
362.988	334.99
363.438	316.26
363.889	274.14
364.339	379.46
364.789	334.99
365.239	325.63
365.689	367.76
366.139	323.29
366.589	344.35
367.039	330.31
367.489	320.95
367.939	290.52
368.389	227.32
368.839	320.95
369.288	374.78
369.738	295.2
370.187	360.74
370.637	309.24
371.086	393.5
371.536	313.92
371.985	339.67
372.434	316.26
372.884	313.92
373.333	337.33
373.782	283.5
374.231	323.29
374.68	306.9
375.129	330.31
375.578	309.24
376.027	323.29
376.475	306.9
376.924	344.35
377.373	327.97
377.822	318.61
378.27	297.54
378.719	344.35
379.167	297.54
379.616	281.16
380.064	346.69
380.512	334.99
380.961	367.76
381.409	325.63
381.857	295.2
382.305	337.33
382.753	288.18
383.201	304.56
383.649	320.95
384.097	353.71
384.545	384.14
384.992	325.63
385.44	349.03
385.888	267.11
386.335	349.03
386.783	346.69
387.231	274.14
387.678	337.33
388.125	334.99
388.573	290.52
389.02	224.98
389.467	327.97
389.914	337.33
390.362	372.44
390.809	304.56
391.256	318.61
391.703	285.84
392.15	304.56
392.596	316.26
393.043	325.63
393.49	342.01
393.937	363.08
394.383	330.31
394.83	246.05
395.276	311.58
395.723	311.58
396.169	358.39
396.616	276.48
397.062	290.52
397.508	313.92
397.954	281.16
398.401	313.92
398.847	269.45
399.293	281.16
399.739	344.35
400.185	337.33
400.631	367.76
401.076	325.63
401.522	342.01
401.968	344.35
402.414	318.61
402.859	313.92
403.305	353.71
403.75	372.44
404.196	349.03
404.641	337.33
405.086	320.95
405.532	325.63
405.977	363.08
406.422	299.88
406.867	304.56
407.312	365.42
407.757	330.31
408.202	339.67
408.647	295.2
409.092	306.9
409.537	323.29
409.982	318.61
410.426	304.56
410.871	353.71
411.316	339.67
411.76	377.12
412.205	346.69
412.649	316.26
413.093	306.9
413.538	346.69
413.982	327.97
414.426	356.05
414.87	320.95
415.314	292.86
415.758	290.52
416.202	323.29
416.646	257.75
417.09	327.97
417.534	285.84
417.978	327.97
418.421	283.5
418.865	311.58
419.309	290.52
419.752	320.95
420.196	313.92
420.639	332.65
421.083	332.65
421.526	281.16
421.969	337.33
422.412	330.31
422.856	349.03
423.299	353.71
423.742	290.52
424.185	309.24
424.628	313.92
425.071	351.37
425.513	325.63
425.956	318.61
426.399	299.88
426.842	269.45
427.284	344.35
427.727	367.76
428.169	295.2
428.612	262.43
429.054	316.26
429.497	353.71
429.939	318.61
430.381	320.95
430.823	346.69
431.265	292.86
431.707	339.67
432.149	318.61
432.591	332.65
433.033	356.05
433.475	295.2
433.917	360.74
434.359	332.65
434.8	274.14
435.242	337.33
435.684	339.67
436.125	302.22
436.567	344.35
437.008	299.88
437.449	323.29
437.891	370.1
438.332	374.78
438.773	320.95
439.214	332.65
439.656	353.71
440.097	311.58
440.538	299.88
440.978	351.37
441.419	344.35
441.86	325.63
442.301	337.33
442.742	276.48
443.182	311.58
443.623	363.08
444.063	283.5
444.504	271.79
444.944	339.67
445.385	346.69
445.825	325.63
446.265	318.61
446.706	304.56
447.146	318.61
447.586	332.65
448.026	334.99
448.466	290.52
448.906	325.63
449.346	271.79
449.786	363.08
450.225	302.22
450.665	342.01
451.105	292.86
451.544	309.24
451.984	330.31
452.424	342.01
452.863	292.86
453.302	365.42
453.742	318.61
454.181	342.01
454.62	311.58
455.059	295.2
455.499	327.97
455.938	276.48
456.377	367.76
456.816	281.16
457.254	311.58
457.693	239.03
458.132	372.44
458.571	276.48
459.01	384.14
459.448	309.24
459.887	311.58
460.325	395.84
460.764	339.67
461.202	304.56
461.641	337.33
462.079	318.61
462.517	379.46
462.955	313.92
463.393	339.67
463.832	337.33
464.27	332.65
464.708	302.22
465.145	339.67
465.583	309.24
466.021	337.33
466.459	363.08
466.897	346.69
467.334	318.61
467.772	346.69
468.209	327.97
468.647	330.31
469.084	299.88
469.522	299.88
469.959	276.48
470.396	285.84
470.833	337.33
471.271	342.01
471.708	248.39
472.145	334.99
472.582	330.31
473.019	332.65
473.456	283.5
473.892	325.63
474.329	306.9
474.766	342.01
475.202	367.76
475.639	360.74
476.076	283.5
476.512	288.18
476.949	334.99
477.385	327.97
477.821	334.99
478.258	332.65
478.694	306.9
479.13	334.99
479.566	299.88
480.002	311.58
480.438	372.44
480.874	400.52
481.31	297.54
481.746	365.42
482.181	346.69
482.617	334.99
483.053	339.67
483.488	367.76
483.924	304.56
484.36	309.24
484.795	358.39
485.23	351.37
485.666	318.61
486.101	349.03
486.536	342.01
486.971	313.92
487.407	316.26
487.842	360.74
488.277	281.16
488.712	381.8
489.146	377.12
489.581	339.67
490.016	344.35
490.451	337.33
490.885	320.95
491.32	309.24
491.755	393.5
492.189	297.54
492.624	332.65
493.058	370.1
493.492	370.1
493.927	323.29
494.361	316.26
494.795	344.35
495.229	297.54
495.663	400.52
496.097	334.99
496.531	311.58
496.965	320.95
497.399	344.35
497.833	283.5
498.266	334.99
498.7	412.23
499.134	285.84
499.567	306.9
500.001	323.29
500.434	325.63
500.868	346.69
501.301	306.9
501.734	330.31
502.168	320.95
502.601	367.76
503.034	313.92
503.467	334.99
503.9	370.1
504.333	379.46
504.766	276.48
505.199	316.26
505.632	334.99
506.064	302.22
506.497	320.95
506.93	334.99
507.362	353.71
507.795	320.95
508.227	309.24
508.66	309.24
509.092	316.26
509.524	302.22
509.956	313.92
510.389	318.61
510.821	323.29
511.253	339.67
511.685	267.11
512.117	320.95
512.549	290.52
512.981	330.31
513.412	327.97
513.844	260.09
514.276	342.01
514.707	332.65
515.139	267.11
515.571	309.24
516.002	339.67
516.433	306.9
516.865	311.58
517.296	325.63
517.727	337.33
518.159	337.33
518.59	330.31
519.021	332.65
519.452	302.22
519.883	327.97
520.314	337.33
520.744	393.5
521.175	283.5
521.606	262.43
522.037	351.37
522.467	271.79
522.898	267.11
523.328	346.69
523.759	327.97
524.189	367.76
524.62	351.37
525.05	302.22
525.48	243.71
525.91	313.92
526.341	332.65
526.771	320.95
527.201	281.16
527.631	342.01
528.061	283.5
528.49	395.84
528.92	304.56
529.35	379.46
529.78	349.03
530.209	370.1
530.639	342.01
531.068	316.26
531.498	292.86
531.927	313.92
532.357	292.86
532.786	377.12
533.215	306.9
533.644	299.88
534.074	330.31
534.503	285.84
534.932	323.29
535.361	260.09
535.79	253.07
536.218	285.84
536.647	264.77
537.076	381.8
537.505	288.18
537.933	342.01
538.362	344.35
538.79	290.52
539.219	306.9
539.647	419.25
540.076	334.99
540.504	302.22
540.932	337.33
541.36	353.71
541.788	349.03
542.217	334.99
542.645	351.37
543.073	342.01
543.5	353.71
543.928	360.74
544.356	227.32
544.784	246.05
545.211	292.86
545.639	260.09
546.067	330.31
546.494	290.52
546.922	332.65
547.349	346.69
547.776	325.63
548.204	337.33
548.631	332.65
549.058	241.37
549.485	346.69
549.912	292.86
550.339	356.05
550.766	363.08
551.193	325.63
551.62	374.78
552.047	379.46
552.474	290.52
552.9	363.08
553.327	363.08
553.754	281.16
554.18	330.31
554.607	327.97
555.033	283.5
555.459	325.63
555.886	313.92
556.312	388.82
556.738	323.29
557.164	309.24
557.59	349.03
558.016	349.03
558.442	334.99
558.868	325.63
559.294	346.69
559.72	318.61
560.145	318.61
560.571	358.39
560.997	288.18
561.422	304.56
561.848	290.52
562.273	374.78
562.699	323.29
563.124	297.54
563.549	330.31
563.974	299.88
564.4	370.1
564.825	367.76
565.25	330.31
565.675	346.69
566.1	313.92
566.525	283.5
566.95	365.42
567.374	262.43
567.799	356.05
568.224	320.95
568.648	342.01
569.073	327.97
569.497	262.43
569.922	304.56
570.346	346.69
570.771	386.48
571.195	388.82
571.619	290.52
572.043	363.08
572.467	327.97
572.891	295.2
573.315	283.5
573.739	332.65
574.163	288.18
574.587	332.65
575.011	283.5
575.435	309.24
575.858	344.35
576.282	316.26
576.705	358.39
577.129	332.65
577.552	304.56
577.976	302.22
578.399	353.71
578.822	304.56
579.245	334.99
579.669	344.35
580.092	295.2
580.515	316.26
580.938	269.45
581.361	339.67
581.784	320.95
582.206	302.22
582.629	302.22
583.052	302.22
583.474	323.29
583.897	318.61
584.32	327.97
584.742	327.97
585.165	323.29
585.587	264.77
586.009	304.56
586.431	351.37
586.854	323.29
587.276	306.9
587.698	295.2
588.12	306.9
588.542	330.31
588.964	288.18
589.386	372.44
589.807	316.26
590.229	353.71
590.651	299.88
591.073	386.48
591.494	349.03
591.916	297.54
592.337	325.63
592.759	327.97
593.18	379.46
593.601	267.11
594.022	320.95
594.444	330.31
594.865	379.46
595.286	283.5
595.707	334.99
596.128	356.05
596.549	379.46
596.97	325.63
597.39	342.01
597.811	320.95
598.232	332.65
598.652	325.63
599.073	395.84
599.494	260.09
599.914	327.97
600.334	264.77
600.755	349.03
601.175	309.24
601.595	330.31
602.015	248.39
602.436	323.29
602.856	388.82
603.276	342.01
603.696	337.33
604.115	334.99
604.535	306.9
604.955	274.14
605.375	283.5
605.794	356.05
606.214	250.73
606.634	330.31
607.053	281.16
607.473	285.84
607.892	370.1
608.311	288.18
608.731	285.84
609.15	337.33
609.569	288.18
609.988	330.31
610.407	353.71
610.826	297.54
611.245	309.24
611.664	320.95
612.083	346.69
612.501	297.54
612.92	367.76
613.339	295.2
613.757	342.01
614.176	285.84
614.594	330.31
615.013	365.42
615.431	349.03
615.85	278.82
616.268	334.99
616.686	360.74
617.104	337.33
617.522	384.14
617.94	325.63
618.358	339.67
618.776	278.82
619.194	365.42
619.612	299.88
620.03	325.63
620.447	304.56
620.865	395.84
621.282	299.88
621.7	346.69
622.117	353.71
622.535	330.31
622.952	313.92
623.369	309.24
623.787	309.24
624.204	320.95
624.621	318.61
625.038	302.22
625.455	374.78
625.872	318.61
626.289	327.97
626.706	346.69
627.123	313.92
627.539	276.48
627.956	384.14
628.373	337.33
628.789	276.48
629.206	325.63
629.622	395.84
630.038	313.92
630.455	365.42
630.871	274.14
631.287	311.58
631.703	323.29
632.12	274.14
632.536	318.61
632.952	332.65
633.368	299.88
633.783	316.26
634.199	304.56
634.615	351.37
635.031	353.71
635.446	332.65
635.862	325.63
636.277	330.31
636.693	292.86
637.108	372.44
637.524	311.58
637.939	306.9
638.354	337.33
638.77	285.84
639.185	344.35
639.6	356.05
640.015	288.18
640.43	393.5
640.845	386.48
641.259	353.71
641.674	276.48
642.089	306.9
642.504	342.01
642.918	281.16
643.333	344.35
643.747	339.67
644.162	353.71
644.576	306.9
644.991	285.84
645.405	358.39
645.819	337.33
646.233	316.26
646.647	297.54
647.061	339.67
647.475	337.33
647.889	318.61
648.303	288.18
648.717	363.08
649.131	351.37
649.545	299.88
649.958	295.2
650.372	372.44
650.785	320.95
651.199	349.03
651.612	323.29
652.026	339.67
652.439	316.26
652.852	393.5
653.266	384.14
653.679	325.63
654.092	318.61
654.505	274.14
654.918	346.69
655.331	370.1
655.744	283.5
656.156	351.37
656.569	337.33
656.982	337.33
657.394	283.5
657.807	271.79
658.22	377.12
658.632	309.24
659.044	276.48
659.457	276.48
659.869	285.84
660.281	356.05
660.693	295.2
661.106	316.26
661.518	320.95
661.93	320.95
662.342	248.39
662.754	344.35
663.165	334.99
663.577	323.29
663.989	224.98
664.401	246.05
664.812	353.71
665.224	311.58
665.635	255.41
666.047	351.37
666.458	337.33
666.869	334.99
667.281	313.92
667.692	332.65
668.103	283.5
668.514	309.24
668.925	292.86
669.336	302.22
669.747	213.28
670.158	295.2
670.569	323.29
670.979	299.88
671.39	351.37
671.801	442.65
672.211	292.86
672.622	260.09
673.032	374.78
673.443	414.57
673.853	388.82
674.263	370.1
674.674	297.54
675.084	342.01
675.494	351.37
675.904	358.39
676.314	353.71
676.724	283.5
677.134	311.58
677.544	367.76
677.953	327.97
678.363	363.08
678.773	337.33
679.182	356.05
679.592	309.24
680.001	356.05
680.411	316.26
680.82	318.61
681.23	276.48
681.639	351.37
682.048	360.74
682.457	297.54
682.866	304.56
683.275	349.03
683.684	320.95
684.093	288.18
684.502	297.54
684.911	292.86
685.32	332.65
685.728	309.24
686.137	344.35
686.546	311.58
686.954	285.84
687.363	358.39
687.771	379.46
688.179	325.63
688.588	318.61
688.996	372.44
689.404	309.24
689.812	250.73
690.22	405.21
690.628	360.74
691.036	236.69
691.444	360.74
691.852	353.71
692.26	318.61
692.667	358.39
693.075	285.84
693.483	236.69
693.89	278.82
694.298	313.92
694.705	327.97
695.112	386.48
695.52	337.33
695.927	311.58
696.334	320.95
696.741	346.69
697.148	304.56
697.555	351.37
697.962	342.01
698.369	299.88
698.776	318.61
699.183	217.96
699.59	339.67
699.996	292.86
700.403	356.05
700.81	342.01
701.216	332.65
701.623	281.16
702.029	295.2
702.435	304.56
702.842	311.58
703.248	344.35
703.654	248.39
704.06	274.14
704.466	358.39
704.872	285.84
705.278	306.9
705.684	297.54
706.09	290.52
706.496	281.16
706.901	320.95
707.307	377.12
707.712	339.67
708.118	327.97
708.523	342.01
708.929	332.65
709.334	248.39
709.74	309.24
710.145	262.43
710.55	250.73
710.955	306.9
711.36	306.9
711.765	342.01
712.17	304.56
712.575	269.45
712.98	821.82
713.385	311.58
713.789	334.99
714.194	274.14
714.599	292.86
715.003	283.5
715.408	309.24
715.812	339.67
716.217	342.01
716.621	360.74
717.025	388.82
717.429	309.24
717.833	309.24
718.238	349.03
718.642	330.31
719.046	274.14
719.449	304.56
719.853	318.61
720.257	346.69
720.661	313.92
721.065	379.46
721.468	325.63
721.872	360.74
722.275	327.97
722.679	316.26
723.082	311.58
723.485	325.63
723.889	386.48
724.292	313.92
724.695	316.26
725.098	309.24
725.501	339.67
725.904	318.61
726.307	320.95
726.71	320.95
727.113	327.97
727.516	323.29
727.918	295.2
728.321	346.69
728.724	351.37
729.126	351.37
729.529	316.26
729.931	358.39
730.333	309.24
730.736	334.99
731.138	320.95
731.54	344.35
731.942	290.52
732.344	374.78
732.746	349.03
733.148	346.69
733.55	297.54
733.952	313.92
734.354	337.33
734.756	337.33
735.157	351.37
735.559	306.9
735.96	260.09
736.362	299.88
736.763	356.05
737.165	381.8
737.566	316.26
737.967	325.63
738.368	299.88
738.77	337.33
739.171	330.31
739.572	334.99
739.973	278.82
740.374	309.24
740.774	290.52
741.175	360.74
741.576	330.31
741.977	409.89
742.377	290.52
742.778	271.79
743.178	278.82
743.579	290.52
743.979	381.8
744.379	346.69
744.78	281.16
745.18	302.22
745.58	309.24
745.98	353.71
746.38	327.97
746.78	262.43
747.18	337.33
747.58	309.24
747.98	264.77
748.38	309.24
748.779	299.88
749.179	323.29
749.578	318.61
749.978	342.01
750.377	323.29
750.777	337.33
751.176	320.95
751.575	295.2
751.975	297.54
752.374	297.54
752.773	290.52
753.172	365.42
753.571	325.63
753.97	339.67
754.369	353.71
754.768	262.43
755.166	304.56
755.565	363.08
755.964	346.69
756.362	325.63
756.761	313.92
757.159	260.09
757.558	372.44
757.956	281.16
758.354	297.54
758.753	292.86
759.151	344.35
759.549	316.26
759.947	290.52
760.345	316.26
760.743	346.69
761.141	349.03
761.539	292.86
761.936	318.61
762.334	297.54
762.732	342.01
763.129	327.97
763.527	290.52
763.924	299.88
764.322	334.99
764.719	306.9
765.117	332.65
765.514	332.65
765.911	327.97
766.308	288.18
766.705	339.67
767.102	381.8
767.499	377.12
767.896	318.61
768.293	288.18
768.69	360.74
769.086	306.9
769.483	346.69
769.88	267.11
770.276	283.5
770.673	306.9
771.069	377.12
771.466	271.79
771.862	316.26
772.258	318.61
772.654	311.58
773.05	356.05
773.447	337.33
773.843	395.84
774.239	342.01
774.634	384.14
775.03	388.82
775.426	271.79
775.822	309.24
776.218	349.03
776.613	388.82
777.009	363.08
777.404	327.97
777.8	281.16
778.195	299.88
778.59	297.54
778.986	255.41
779.381	299.88
779.776	327.97
780.171	332.65
780.566	288.18
780.961	370.1
781.356	379.46
781.751	299.88
782.146	278.82
782.54	334.99
782.935	302.22
783.33	306.9
783.724	374.78
784.119	292.86
784.513	306.9
784.908	346.69
785.302	349.03
785.696	281.16
786.09	285.84
786.485	349.03
786.879	337.33
787.273	346.69
787.667	332.65
788.061	334.99
788.454	281.16
788.848	262.43
789.242	309.24
789.636	330.31
790.029	325.63
790.423	271.79
790.816	323.29
791.21	267.11
791.603	342.01
791.997	306.9
792.39	299.88
792.783	241.37
793.176	334.99
793.569	325.63
793.962	288.18
794.355	318.61
794.748	349.03
795.141	316.26
795.534	334.99
795.927	311.58
796.319	309.24
796.712	309.24
797.105	288.18
797.497	395.84
797.89	356.05
798.282	313.92
798.674	374.78
799.067	391.16
799.459	299.88
799.851	276.48
800.243	320.95
800.635	313.92
801.027	292.86
801.419	351.37
801.811	409.89
802.203	262.43
802.594	306.9
802.986	346.69
803.378	292.86
803.769	297.54
804.161	299.88
804.552	297.54
804.944	299.88
805.335	318.61
805.726	330.31
806.118	285.84
806.509	288.18
806.9	313.92
807.291	285.84
807.682	271.79
808.073	311.58
808.464	349.03
808.855	330.31
809.245	358.39
809.636	262.43
810.027	327.97
810.417	285.84
810.808	360.74
811.198	332.65
811.589	281.16
811.979	332.65
812.369	344.35
812.759	250.73
813.15	330.31
813.54	337.33
813.93	363.08
814.32	302.22
814.71	320.95
815.1	374.78
815.489	346.69
815.879	306.9
816.269	290.52
816.658	337.33
817.048	290.52
817.438	370.1
817.827	241.37
818.216	332.65
818.606	295.2
818.995	309.24
819.384	311.58
819.773	311.58
820.163	349.03
820.552	344.35
820.941	360.74
821.33	299.88
821.718	299.88
822.107	327.97
822.496	306.9
822.885	297.54
823.273	332.65
823.662	262.43
824.05	257.75
824.439	283.5
824.827	241.37
825.216	297.54
825.604	346.69
825.992	358.39
826.38	243.71
826.768	377.12
827.156	316.26
827.544	281.16
827.932	290.52
828.32	309.24
828.708	342.01
829.096	358.39
829.483	271.79
829.871	323.29
830.259	299.88
830.646	311.58
831.034	234.35
831.421	318.61
831.808	339.67
832.196	365.42
832.583	267.11
832.97	299.88
833.357	384.14
833.744	351.37
834.131	313.92
834.518	302.22
834.905	337.33
835.292	285.84
835.678	302.22
836.065	344.35
836.452	276.48
836.838	337.33
837.225	311.58
837.611	360.74
837.998	306.9
838.384	306.9
838.77	313.92
839.157	267.11
839.543	349.03
839.929	325.63
840.315	269.45
840.701	316.26
841.087	246.05
841.473	257.75
841.858	278.82
842.244	269.45
842.63	395.84
843.015	313.92
843.401	349.03
843.787	306.9
844.172	353.71
844.557	318.61
844.943	260.09
845.328	295.2
845.713	377.12
846.098	297.54
846.483	365.42
846.868	283.5
847.253	306.9
847.638	313.92
848.023	264.77
848.408	313.92
848.793	323.29
849.177	339.67
849.562	311.58
849.947	332.65
850.331	353.71
850.715	339.67
851.1	299.88
851.484	351.37
851.868	311.58
852.253	358.39
852.637	313.92
853.021	323.29
853.405	316.26
853.789	351.37
854.173	332.65
854.557	297.54
854.94	330.31
855.324	353.71
855.708	325.63
856.091	283.5
856.475	363.08
856.858	257.75
857.242	325.63
857.625	400.52
858.009	365.42
858.392	297.54
858.775	283.5
859.158	269.45
859.541	330.31
859.924	295.2
860.307	316.26
860.69	360.74
861.073	316.26
861.456	318.61
861.838	302.22
862.221	325.63
862.604	344.35
862.986	363.08
863.369	402.86
863.751	398.18
864.133	334.99
864.516	316.26
864.898	316.26
865.28	313.92
865.662	330.31
866.044	419.25
866.426	311.58
866.808	232.01
867.19	311.58
867.572	346.69
867.954	292.86
868.336	337.33
868.717	344.35
869.099	374.78
869.48	304.56
869.862	356.05
870.243	384.14
870.625	316.26
871.006	253.07
871.387	302.22
871.768	271.79
872.149	304.56
872.53	316.26
872.911	327.97
873.292	342.01
873.673	304.56
874.054	255.41
874.435	334.99
874.815	262.43
875.196	283.5
875.577	236.69
875.957	313.92
876.338	320.95
876.718	351.37
877.098	337.33
877.479	285.84
877.859	292.86
878.239	374.78
878.619	325.63
878.999	332.65
879.379	372.44
879.759	360.74
880.139	309.24
880.519	283.5
880.898	292.86
881.278	297.54
881.658	278.82
882.037	342.01
882.417	332.65
882.796	332.65
883.176	339.67
883.555	288.18
883.934	320.95
884.313	255.41
884.693	344.35
885.072	290.52
885.451	320.95
885.83	290.52
886.209	327.97
886.587	344.35
886.966	360.74
887.345	309.24
887.724	374.78
888.102	304.56
888.481	349.03
888.859	292.86
889.238	346.69
889.616	290.52
889.994	283.5
890.373	393.5
890.751	332.65
891.129	323.29
891.507	290.52
891.885	342.01
892.263	299.88
892.641	306.9
893.019	363.08
893.396	313.92
893.774	316.26
894.152	337.33
894.529	306.9
894.907	302.22
895.284	292.86
895.662	334.99
896.039	365.42
896.416	306.9
896.794	239.03
897.171	323.29
897.548	358.39
897.925	332.65
898.302	344.35
898.679	316.26
899.056	255.41
899.433	299.88
899.809	325.63
900.186	306.9
900.563	330.31
900.939	327.97
901.316	323.29
901.692	330.31
902.069	297.54
902.445	299.88
902.821	351.37
903.197	274.14
903.574	332.65
903.95	344.35
904.326	276.48
904.702	302.22
905.078	332.65
905.454	339.67
905.829	302.22
906.205	344.35
906.581	323.29
906.956	367.76
907.332	290.52
907.707	346.69
908.083	325.63
908.458	330.31
908.833	313.92
909.209	309.24
909.584	295.2
909.959	344.35
910.334	346.69
910.709	264.77
911.084	346.69
911.459	302.22
911.834	377.12
912.209	313.92
912.583	318.61
912.958	318.61
913.333	323.29
913.707	365.42
914.082	297.54
914.456	304.56
914.83	337.33
915.205	391.16
915.579	374.78
915.953	255.41
916.327	236.69
916.701	360.74
917.075	330.31
917.449	253.07
917.823	309.24
918.197	342.01
918.571	306.9
918.944	318.61
919.318	234.35
919.692	257.75
920.065	297.54
920.438	349.03
920.812	295.2
921.185	323.29
921.558	391.16
921.932	391.16
922.305	365.42
922.678	278.82
923.051	297.54
923.424	344.35
923.797	264.77
924.17	313.92
924.542	283.5
924.915	320.95
925.288	334.99
925.661	257.75
926.033	358.39
926.406	271.79
926.778	309.24
927.15	269.45
927.523	283.5
927.895	370.1
928.267	374.78
928.639	285.84
929.011	278.82
929.383	313.92
929.755	330.31
930.127	351.37
930.499	311.58
930.871	306.9
931.242	316.26
931.614	374.78
931.986	320.95
932.357	313.92
932.729	367.76
933.1	260.09
933.471	332.65
933.843	327.97
934.214	344.35
934.585	356.05
934.956	302.22
935.327	330.31
935.698	267.11
936.069	320.95
936.44	346.69
936.811	356.05
937.182	276.48
937.552	358.39
937.923	309.24
938.293	435.63
938.664	356.05
939.034	302.22
939.405	304.56
939.775	342.01
940.145	302.22
940.516	313.92
940.886	323.29
941.256	274.14
941.626	269.45
941.996	323.29
942.366	334.99
942.735	367.76
943.105	313.92
943.475	395.84
943.845	246.05
944.214	278.82
944.584	342.01
944.953	311.58
945.323	337.33
945.692	370.1
946.061	325.63
946.43	316.26
946.8	313.92
947.169	248.39
947.538	250.73
947.907	292.86
948.276	306.9
948.645	297.54
949.013	306.9
949.382	316.26
949.751	323.29
950.119	372.44
950.488	302.22
950.857	292.86
951.225	353.71
951.593	274.14
951.962	297.54
952.33	304.56
952.698	318.61
953.066	288.18
953.434	356.05
953.802	372.44
954.17	320.95
954.538	299.88
954.906	344.35
955.274	276.48
955.642	288.18
956.009	309.24
956.377	304.56
956.744	297.54
957.112	367.76
957.479	278.82
957.847	323.29
958.214	306.9
958.581	339.67
958.948	318.61
959.315	363.08
959.683	316.26
960.05	302.22
960.416	323.29
960.783	370.1
961.15	269.45
961.517	255.41
961.884	337.33
962.25	302.22
962.617	316.26
962.983	260.09
963.35	346.69
963.716	318.61
964.082	299.88
964.449	344.35
964.815	334.99
965.181	276.48
965.547	285.84
965.913	360.74
966.279	302.22
966.645	311.58
967.011	349.03
967.377	306.9
967.742	339.67
968.108	332.65
968.474	295.2
968.839	285.84
969.205	292.86
969.57	337.33
969.935	302.22
970.301	264.77
970.666	292.86
971.031	299.88
971.396	379.46
971.761	402.86
972.126	318.61
972.491	290.52
972.856	262.43
973.221	349.03
973.586	295.2
973.95	295.2
974.315	327.97
974.679	281.16
975.044	299.88
975.408	358.39
975.773	325.63
976.137	327.97
976.501	304.56
976.866	271.79
977.23	299.88
977.594	330.31
977.958	356.05
978.322	316.26
978.686	295.2
979.049	323.29
979.413	327.97
979.777	239.03
980.141	306.9
980.504	274.14
980.868	353.71
981.231	332.65
981.595	302.22
981.958	320.95
982.321	276.48
982.684	339.67
983.048	255.41
983.411	267.11
983.774	365.42
984.137	297.54
984.5	299.88
984.862	337.33
985.225	288.18
985.588	365.42
985.951	316.26
986.313	309.24
986.676	299.88
987.038	311.58
987.401	346.69
987.763	306.9
988.125	332.65
988.488	313.92
988.85	360.74
989.212	285.84
989.574	260.09
989.936	302.22
990.298	325.63
990.66	344.35
991.022	334.99
991.383	353.71
991.745	295.2
992.107	292.86
992.468	292.86
992.83	306.9
993.191	353.71
993.553	353.71
993.914	346.69
994.275	384.14
994.637	297.54
994.998	349.03
995.359	269.45
995.72	327.97
996.081	299.88
996.442	264.77
996.803	332.65
997.163	306.9
997.524	295.2
997.885	290.52
998.245	342.01
998.606	306.9
998.966	283.5
999.327	297.54
999.687	342.01
1000.047	292.86
1000.408	292.86
1000.768	360.74
1001.128	377.12
1001.488	283.5
1001.848	309.24
1002.208	309.24
1002.568	241.37
1002.927	257.75
1003.287	346.69
1003.647	393.5
1004.007	285.84
1004.366	349.03
1004.726	358.39
1005.085	281.16
1005.444	271.79
1005.804	311.58
1006.163	332.65
1006.522	295.2
1006.881	323.29
1007.24	370.1
1007.599	342.01
1007.958	353.71
1008.317	349.03
1008.676	288.18
1009.035	306.9
1009.393	269.45
1009.752	377.12
1010.111	332.65
1010.469	358.39
1010.828	302.22
1011.186	297.54
1011.544	337.33
1011.903	269.45
1012.261	285.84
1012.619	295.2
1012.977	349.03
1013.335	332.65
1013.693	278.82
1014.051	283.5
1014.409	274.14
1014.767	299.88
1015.124	353.71
1015.482	297.54
1015.84	323.29
1016.197	262.43
1016.555	276.48
1016.912	278.82
1017.269	358.39
1017.627	274.14
1017.984	332.65
1018.341	367.76
1018.698	297.54
1019.055	323.29
1019.412	276.48
1019.769	349.03
1020.126	295.2
1020.483	264.77
1020.84	349.03
1021.196	297.54
1021.553	360.74
1021.909	344.35
1022.266	290.52
1022.622	299.88
1022.979	292.86
1023.335	358.39
1023.691	320.95
1024.047	290.52
1024.404	295.2
1024.76	360.74
1025.116	304.56
1025.472	384.14
1025.827	342.01
1026.183	306.9
1026.539	311.58
1026.895	306.9
1027.25	384.14
1027.606	320.95
1027.961	344.35
1028.317	253.07
1028.672	306.9
1029.028	313.92
1029.383	374.78
1029.738	349.03
1030.093	281.16
1030.448	377.12
1030.803	339.67
1031.158	360.74
1031.513	332.65
1031.868	313.92
1032.223	337.33
1032.577	253.07
1032.932	283.5
1033.287	274.14
1033.641	363.08
1033.996	304.56
1034.35	313.92
1034.704	295.2
1035.059	262.43
1035.413	316.26
1035.767	316.26
1036.121	316.26
