Data from Al_FLMS009871__1109__16-31-47-300.txt Node

Date: Fri Mar 08 16:31:47 CST 2024
User: pe5414po
Spectrometer: FLMS00987
Trigger mode: 0
Integration Time (sec): 1.000000E-1
Scans to average: 1
Electric dark correction enabled: true
Nonlinearity correction enabled: false
Boxcar width: 0
XAxis mode: Wavelengths
Number of Pixels in Spectrum: 2048
>>>>>Begin Spectral Data<<<<<
188.938	-118.49
189.409	-118.49
189.879	-118.49
190.349	-111.47
190.819	-113.81
191.29	-36.57
191.76	-139.55
192.23	-92.74
192.7	-85.72
193.17	-48.27
193.64	-43.59
194.109	21.94
194.579	-15.51
195.049	21.94
195.519	3.22
195.988	10.24
196.458	38.33
196.927	0.88
197.397	99.18
197.866	145.99
198.336	120.25
198.805	162.37
199.274	181.1
199.744	155.35
200.213	244.29
200.682	270.04
201.151	216.21
201.62	216.21
202.089	323.87
202.558	321.53
203.027	256
203.495	246.63
203.964	223.23
204.433	300.47
204.902	291.1
205.37	286.42
205.839	286.42
206.307	316.85
206.776	270.04
207.244	260.68
207.712	291.1
208.181	272.38
208.649	302.81
209.117	312.17
209.585	293.44
210.053	260.68
210.521	335.57
210.989	319.19
211.457	272.38
211.925	286.42
212.393	213.87
212.861	354.3
213.328	241.95
213.796	256
214.264	244.29
214.731	279.4
215.199	373.02
215.666	270.04
216.133	225.57
216.601	293.44
217.068	251.32
217.535	232.59
218.003	284.08
218.47	284.08
218.937	263.02
219.404	326.21
219.871	298.13
220.338	272.38
220.805	188.12
221.271	316.85
221.738	190.46
222.205	251.32
222.671	199.82
223.138	246.63
223.605	204.5
224.071	263.02
224.538	274.72
225.004	333.23
225.47	263.02
225.937	218.55
226.403	321.53
226.869	225.57
227.335	230.25
227.801	284.08
228.267	239.61
228.733	244.29
229.199	256
229.665	263.02
230.131	225.57
230.597	258.34
231.062	256
231.528	258.34
231.994	298.13
232.459	349.62
232.925	263.02
233.39	248.97
233.856	267.7
234.321	260.68
234.786	230.25
235.252	260.68
235.717	267.7
236.182	295.79
236.647	293.44
237.112	202.16
237.577	209.19
238.042	286.42
238.507	244.29
238.972	263.02
239.436	305.15
239.901	319.19
240.366	248.97
240.83	293.44
241.295	232.59
241.76	206.84
242.224	307.49
242.688	202.16
243.153	300.47
243.617	307.49
244.081	274.72
244.545	246.63
245.01	258.34
245.474	298.13
245.938	307.49
246.402	333.23
246.866	309.83
247.33	258.34
247.793	330.89
248.257	246.63
248.721	263.02
249.185	307.49
249.648	258.34
250.112	305.15
250.575	272.38
251.039	274.72
251.502	302.81
251.965	291.1
252.429	281.74
252.892	298.13
253.355	277.06
253.818	239.61
254.281	312.17
254.744	335.57
255.207	251.32
255.67	328.55
256.133	263.02
256.596	211.53
257.059	293.44
257.522	298.13
257.984	312.17
258.447	298.13
258.909	291.1
259.372	216.21
259.834	293.44
260.297	328.55
260.759	321.53
261.221	293.44
261.684	274.72
262.146	258.34
262.608	298.13
263.07	309.83
263.532	309.83
263.994	337.91
264.456	234.93
264.918	270.04
265.38	241.95
265.842	279.4
266.303	256
266.765	279.4
267.227	270.04
267.688	293.44
268.15	302.81
268.611	337.91
269.072	284.08
269.534	307.49
269.995	216.21
270.456	230.25
270.918	316.85
271.379	286.42
271.84	279.4
272.301	246.63
272.762	225.57
273.223	288.76
273.684	281.74
274.144	274.72
274.605	305.15
275.066	265.36
275.527	284.08
275.987	293.44
276.448	300.47
276.908	211.53
277.369	323.87
277.829	220.89
278.289	347.28
278.75	256
279.21	258.34
279.67	300.47
280.13	267.7
280.59	284.08
281.05	342.6
281.51	234.93
281.97	298.13
282.43	263.02
282.89	300.47
283.35	277.06
283.809	335.57
284.269	326.21
284.729	260.68
285.188	316.85
285.648	239.61
286.107	312.17
286.567	279.4
287.026	349.62
287.485	218.55
287.944	300.47
288.404	234.93
288.863	302.81
289.322	258.34
289.781	286.42
290.24	321.53
290.699	246.63
291.158	253.66
291.616	281.74
292.075	309.83
292.534	309.83
292.992	323.87
293.451	316.85
293.91	293.44
294.368	293.44
294.827	270.04
295.285	267.7
295.743	270.04
296.202	328.55
296.66	267.7
297.118	265.36
297.576	305.15
298.034	302.81
298.492	298.13
298.95	333.23
299.408	319.19
299.866	263.02
300.324	333.23
300.781	377.7
301.239	309.83
301.697	307.49
302.154	270.04
302.612	295.79
303.069	309.83
303.527	312.17
303.984	363.66
304.441	312.17
304.899	267.7
305.356	293.44
305.813	328.55
306.27	284.08
306.727	258.34
307.184	263.02
307.641	281.74
308.098	387.07
308.555	291.1
309.012	323.87
309.468	279.4
309.925	284.08
310.382	267.7
310.838	335.57
311.295	277.06
311.751	251.32
312.208	309.83
312.664	356.64
313.12	302.81
313.577	366
314.033	298.13
314.489	279.4
314.945	321.53
315.401	319.19
315.857	316.85
316.313	312.17
316.769	274.72
317.225	305.15
317.681	298.13
318.136	293.44
318.592	323.87
319.048	281.74
319.503	300.47
319.959	307.49
320.414	305.15
320.869	295.79
321.325	284.08
321.78	270.04
322.235	340.26
322.691	356.64
323.146	263.02
323.601	277.06
324.056	284.08
324.511	272.38
324.966	307.49
325.421	293.44
325.875	333.23
326.33	277.06
326.785	298.13
327.24	354.3
327.694	384.73
328.149	305.15
328.603	361.32
329.058	330.89
329.512	326.21
329.966	335.57
330.421	337.91
330.875	337.91
331.329	281.74
331.783	251.32
332.237	256
332.691	326.21
333.145	349.62
333.599	284.08
334.053	298.13
334.507	295.79
334.96	326.21
335.414	305.15
335.868	272.38
336.321	335.57
336.775	309.83
337.228	335.57
337.682	375.36
338.135	326.21
338.588	307.49
339.042	270.04
339.495	335.57
339.948	288.76
340.401	260.68
340.854	312.17
341.307	265.36
341.76	312.17
342.213	316.85
342.666	293.44
343.119	300.47
343.571	314.51
344.024	277.06
344.477	284.08
344.929	319.19
345.382	335.57
345.834	244.29
346.287	295.79
346.739	253.66
347.191	349.62
347.644	312.17
348.096	293.44
348.548	267.7
349	256
349.452	286.42
349.904	323.87
350.356	323.87
350.808	253.66
351.26	319.19
351.711	300.47
352.163	300.47
352.615	305.15
353.066	288.76
353.518	288.76
353.969	302.81
354.421	363.66
354.872	394.09
355.324	298.13
355.775	270.04
356.226	319.19
356.677	284.08
357.128	344.94
357.579	321.53
358.03	354.3
358.481	321.53
358.932	323.87
359.383	265.36
359.834	342.6
360.285	330.89
360.735	291.1
361.186	234.93
361.637	272.38
362.087	267.7
362.538	253.66
362.988	312.17
363.438	312.17
363.889	284.08
364.339	277.06
364.789	330.89
365.239	281.74
365.689	277.06
366.139	342.6
366.589	281.74
367.039	314.51
367.489	270.04
367.939	281.74
368.389	244.29
368.839	265.36
369.288	337.91
369.738	293.44
370.187	330.89
370.637	326.21
371.086	319.19
371.536	232.59
371.985	328.55
372.434	323.87
372.884	270.04
373.333	246.63
373.782	270.04
374.231	312.17
374.68	342.6
375.129	373.02
375.578	295.79
376.027	330.89
376.475	333.23
376.924	267.7
377.373	270.04
377.822	305.15
378.27	225.57
378.719	347.28
379.167	314.51
379.616	373.02
380.064	286.42
380.512	246.63
380.961	251.32
381.409	263.02
381.857	265.36
382.305	319.19
382.753	295.79
383.201	288.76
383.649	298.13
384.097	337.91
384.545	368.34
384.992	286.42
385.44	218.55
385.888	274.72
386.335	279.4
386.783	351.96
387.231	300.47
387.678	314.51
388.125	281.74
388.573	302.81
389.02	351.96
389.467	349.62
389.914	300.47
390.362	321.53
390.809	295.79
391.256	281.74
391.703	286.42
392.15	321.53
392.596	337.91
393.043	328.55
393.49	302.81
393.937	328.55
394.383	253.66
394.83	307.49
395.276	270.04
395.723	380.04
396.169	298.13
396.616	321.53
397.062	260.68
397.508	288.76
397.954	291.1
398.401	316.85
398.847	342.6
399.293	288.76
399.739	288.76
400.185	293.44
400.631	358.98
401.076	351.96
401.522	312.17
401.968	302.81
402.414	286.42
402.859	319.19
403.305	380.04
403.75	295.79
404.196	323.87
404.641	272.38
405.086	368.34
405.532	337.91
405.977	314.51
406.422	356.64
406.867	307.49
407.312	314.51
407.757	307.49
408.202	295.79
408.647	344.94
409.092	246.63
409.537	323.87
409.982	358.98
410.426	319.19
410.871	326.21
411.316	286.42
411.76	314.51
412.205	295.79
412.649	298.13
413.093	358.98
413.538	286.42
413.982	347.28
414.426	319.19
414.87	284.08
415.314	347.28
415.758	281.74
416.202	316.85
416.646	302.81
417.09	305.15
417.534	405.79
417.978	279.4
418.421	288.76
418.865	309.83
419.309	314.51
419.752	366
420.196	251.32
420.639	354.3
421.083	330.89
421.526	328.55
421.969	307.49
422.412	307.49
422.856	284.08
423.299	277.06
423.742	293.44
424.185	335.57
424.628	293.44
425.071	323.87
425.513	277.06
425.956	309.83
426.399	288.76
426.842	347.28
427.284	337.91
427.727	309.83
428.169	232.59
428.612	260.68
429.054	307.49
429.497	293.44
429.939	293.44
430.381	326.21
430.823	270.04
431.265	321.53
431.707	277.06
432.149	300.47
432.591	344.94
433.033	344.94
433.475	309.83
433.917	309.83
434.359	349.62
434.8	312.17
435.242	307.49
435.684	316.85
436.125	316.85
436.567	300.47
437.008	305.15
437.449	330.89
437.891	302.81
438.332	340.26
438.773	349.62
439.214	309.83
439.656	375.36
440.097	323.87
440.538	272.38
440.978	370.68
441.419	307.49
441.86	302.81
442.301	272.38
442.742	373.02
443.182	277.06
443.623	265.36
444.063	272.38
444.504	391.75
444.944	340.26
445.385	300.47
445.825	366
446.265	340.26
446.706	298.13
447.146	319.19
447.586	316.85
448.026	349.62
448.466	286.42
448.906	307.49
449.346	223.23
449.786	293.44
450.225	333.23
450.665	253.66
451.105	288.76
451.544	279.4
451.984	263.02
452.424	295.79
452.863	358.98
453.302	354.3
453.742	312.17
454.181	232.59
454.62	323.87
455.059	295.79
455.499	396.43
455.938	305.15
456.377	321.53
456.816	333.23
457.254	328.55
457.693	328.55
458.132	244.29
458.571	305.15
459.01	319.19
459.448	340.26
459.887	298.13
460.325	312.17
460.764	337.91
461.202	326.21
461.641	342.6
462.079	316.85
462.517	263.02
462.955	358.98
463.393	274.72
463.832	281.74
464.27	288.76
464.708	330.89
465.145	328.55
465.583	314.51
466.021	265.36
466.459	358.98
466.897	309.83
467.334	279.4
467.772	300.47
468.209	347.28
468.647	323.87
469.084	316.85
469.522	335.57
469.959	335.57
470.396	316.85
470.833	295.79
471.271	349.62
471.708	302.81
472.145	330.89
472.582	256
473.019	328.55
473.456	314.51
473.892	309.83
474.329	333.23
474.766	323.87
475.202	316.85
475.639	351.96
476.076	316.85
476.512	319.19
476.949	328.55
477.385	344.94
477.821	370.68
478.258	307.49
478.694	312.17
479.13	330.89
479.566	298.13
480.002	361.32
480.438	288.76
480.874	309.83
481.31	337.91
481.746	274.72
482.181	305.15
482.617	270.04
483.053	293.44
483.488	354.3
483.924	347.28
484.36	286.42
484.795	330.89
485.23	342.6
485.666	344.94
486.101	284.08
486.536	291.1
486.971	248.97
487.407	300.47
487.842	302.81
488.277	272.38
488.712	265.36
489.146	239.61
489.581	274.72
490.016	281.74
490.451	293.44
490.885	319.19
491.32	300.47
491.755	328.55
492.189	312.17
492.624	333.23
493.058	344.94
493.492	312.17
493.927	321.53
494.361	263.02
494.795	309.83
495.229	316.85
495.663	305.15
496.097	291.1
496.531	363.66
496.965	344.94
497.399	307.49
497.833	309.83
498.266	316.85
498.7	312.17
499.134	316.85
499.567	270.04
500.001	321.53
500.434	270.04
500.868	351.96
501.301	279.4
501.734	354.3
502.168	281.74
502.601	312.17
503.034	351.96
503.467	330.89
503.9	284.08
504.333	307.49
504.766	300.47
505.199	319.19
505.632	305.15
506.064	295.79
506.497	307.49
506.93	302.81
507.362	284.08
507.795	342.6
508.227	319.19
508.66	293.44
509.092	295.79
509.524	342.6
509.956	361.32
510.389	344.94
510.821	347.28
511.253	323.87
511.685	319.19
512.117	337.91
512.549	288.76
512.981	279.4
513.412	295.79
513.844	307.49
514.276	344.94
514.707	298.13
515.139	270.04
515.571	328.55
516.002	284.08
516.433	312.17
516.865	330.89
517.296	270.04
517.727	288.76
518.159	351.96
518.59	305.15
519.021	309.83
519.452	302.81
519.883	307.49
520.314	281.74
520.744	323.87
521.175	321.53
521.606	277.06
522.037	260.68
522.467	321.53
522.898	366
523.328	277.06
523.759	398.77
524.189	326.21
524.62	305.15
525.05	349.62
525.48	356.64
525.91	300.47
526.341	316.85
526.771	328.55
527.201	300.47
527.631	330.89
528.061	326.21
528.49	321.53
528.92	330.89
529.35	326.21
529.78	314.51
530.209	293.44
530.639	366
531.068	309.83
531.498	307.49
531.927	286.42
532.357	300.47
532.786	316.85
533.215	302.81
533.644	349.62
534.074	277.06
534.503	340.26
534.932	256
535.361	300.47
535.79	309.83
536.218	323.87
536.647	314.51
537.076	291.1
537.505	256
537.933	298.13
538.362	380.04
538.79	305.15
539.219	358.98
539.647	333.23
540.076	312.17
540.504	319.19
540.932	309.83
541.36	366
541.788	314.51
542.217	277.06
542.645	246.63
543.073	232.59
543.5	316.85
543.928	305.15
544.356	314.51
544.784	281.74
545.211	307.49
545.639	340.26
546.067	263.02
546.494	305.15
546.922	321.53
547.349	270.04
547.776	300.47
548.204	330.89
548.631	291.1
549.058	267.7
549.485	284.08
549.912	326.21
550.339	291.1
550.766	279.4
551.193	244.29
551.62	347.28
552.047	307.49
552.474	270.04
552.9	260.68
553.327	302.81
553.754	307.49
554.18	312.17
554.607	288.76
555.033	302.81
555.459	305.15
555.886	316.85
556.312	323.87
556.738	237.27
557.164	281.74
557.59	295.79
558.016	293.44
558.442	309.83
558.868	314.51
559.294	358.98
559.72	319.19
560.145	337.91
560.571	340.26
560.997	295.79
561.422	258.34
561.848	330.89
562.273	265.36
562.699	244.29
563.124	258.34
563.549	272.38
563.974	328.55
564.4	253.66
564.825	302.81
565.25	314.51
565.675	312.17
566.1	312.17
566.525	377.7
566.95	286.42
567.374	351.96
567.799	323.87
568.224	305.15
568.648	305.15
569.073	286.42
569.497	272.38
569.922	305.15
570.346	319.19
570.771	337.91
571.195	314.51
571.619	330.89
572.043	328.55
572.467	274.72
572.891	307.49
573.315	323.87
573.739	291.1
574.163	344.94
574.587	281.74
575.011	288.76
575.435	351.96
575.858	387.07
576.282	340.26
576.705	330.89
577.129	321.53
577.552	342.6
577.976	267.7
578.399	333.23
578.822	356.64
579.245	323.87
579.669	366
580.092	286.42
580.515	305.15
580.938	270.04
581.361	351.96
581.784	340.26
582.206	281.74
582.629	263.02
583.052	260.68
583.474	267.7
583.897	291.1
584.32	302.81
584.742	288.76
585.165	251.32
585.587	272.38
586.009	330.89
586.431	333.23
586.854	321.53
587.276	321.53
587.698	330.89
588.12	291.1
588.542	314.51
588.964	244.29
589.386	337.91
589.807	295.79
590.229	302.81
590.651	277.06
591.073	312.17
591.494	321.53
591.916	281.74
592.337	319.19
592.759	328.55
593.18	361.32
593.601	291.1
594.022	326.21
594.444	274.72
594.865	288.76
595.286	300.47
595.707	344.94
596.128	260.68
596.549	295.79
596.97	237.27
597.39	298.13
597.811	256
598.232	344.94
598.652	314.51
599.073	351.96
599.494	335.57
599.914	347.28
600.334	330.89
600.755	323.87
601.175	319.19
601.595	354.3
602.015	419.83
602.436	319.19
602.856	426.86
603.276	349.62
603.696	330.89
604.115	340.26
604.535	312.17
604.955	291.1
605.375	314.51
605.794	291.1
606.214	253.66
606.634	286.42
607.053	330.89
607.473	356.64
607.892	279.4
608.311	340.26
608.731	361.32
609.15	281.74
609.569	274.72
609.988	335.57
610.407	323.87
610.826	309.83
611.245	354.3
611.664	314.51
612.083	270.04
612.501	291.1
612.92	279.4
613.339	358.98
613.757	351.96
614.176	326.21
614.594	274.72
615.013	307.49
615.431	248.97
615.85	286.42
616.268	316.85
616.686	295.79
617.104	326.21
617.522	333.23
617.94	300.47
618.358	293.44
618.776	230.25
619.194	326.21
619.612	337.91
620.03	344.94
620.447	277.06
620.865	258.34
621.282	312.17
621.7	312.17
622.117	335.57
622.535	291.1
622.952	347.28
623.369	333.23
623.787	314.51
624.204	270.04
624.621	326.21
625.038	340.26
625.455	333.23
625.872	333.23
626.289	288.76
626.706	354.3
627.123	291.1
627.539	309.83
627.956	323.87
628.373	265.36
628.789	335.57
629.206	326.21
629.622	373.02
630.038	309.83
630.455	309.83
630.871	293.44
631.287	279.4
631.703	270.04
632.12	223.23
632.536	326.21
632.952	328.55
633.368	349.62
633.783	326.21
634.199	293.44
634.615	335.57
635.031	363.66
635.446	291.1
635.862	260.68
636.277	328.55
636.693	302.81
637.108	307.49
637.524	298.13
637.939	274.72
638.354	326.21
638.77	272.38
639.185	265.36
639.6	312.17
640.015	309.83
640.43	265.36
640.845	265.36
641.259	319.19
641.674	333.23
642.089	237.27
642.504	309.83
642.918	333.23
643.333	307.49
643.747	272.38
644.162	351.96
644.576	241.95
644.991	323.87
645.405	293.44
645.819	288.76
646.233	277.06
646.647	312.17
647.061	305.15
647.475	333.23
647.889	302.81
648.303	342.6
648.717	309.83
649.131	295.79
649.545	370.68
649.958	351.96
650.372	361.32
650.785	312.17
651.199	333.23
651.612	286.42
652.026	351.96
652.439	300.47
652.852	333.23
653.266	342.6
653.679	305.15
654.092	337.91
654.505	321.53
654.918	314.51
655.331	295.79
655.744	295.79
656.156	373.02
656.569	333.23
656.982	295.79
657.394	323.87
657.807	300.47
658.22	349.62
658.632	239.61
659.044	366
659.457	258.34
659.869	358.98
660.281	333.23
660.693	314.51
661.106	330.89
661.518	281.74
661.93	314.51
662.342	230.25
662.754	347.28
663.165	319.19
663.577	340.26
663.989	267.7
664.401	188.12
664.812	246.63
665.224	335.57
665.635	314.51
666.047	314.51
666.458	270.04
666.869	253.66
667.281	293.44
667.692	295.79
668.103	277.06
668.514	330.89
668.925	246.63
669.336	309.83
669.747	239.61
670.158	286.42
670.569	272.38
670.979	314.51
671.39	321.53
671.801	351.96
672.211	300.47
672.622	340.26
673.032	319.19
673.443	248.97
673.853	370.68
674.263	354.3
674.674	356.64
675.084	218.55
675.494	314.51
675.904	337.91
676.314	284.08
676.724	279.4
677.134	272.38
677.544	305.15
677.953	312.17
678.363	347.28
678.773	284.08
679.182	312.17
679.592	342.6
680.001	426.86
680.411	340.26
680.82	366
681.23	300.47
681.639	342.6
682.048	309.83
682.457	356.64
682.866	265.36
683.275	349.62
683.684	347.28
684.093	330.89
684.502	288.76
684.911	295.79
685.32	286.42
685.728	298.13
686.137	323.87
686.546	340.26
686.954	356.64
687.363	323.87
687.771	330.89
688.179	342.6
688.588	366
688.996	302.81
689.404	314.51
689.812	300.47
690.22	263.02
690.628	293.44
691.036	361.32
691.444	361.32
691.852	284.08
692.26	335.57
692.667	277.06
693.075	305.15
693.483	253.66
693.89	244.29
694.298	349.62
694.705	342.6
695.112	333.23
695.52	340.26
695.927	293.44
696.334	277.06
696.741	333.23
697.148	328.55
697.555	291.1
697.962	351.96
698.369	267.7
698.776	267.7
699.183	363.66
699.59	302.81
699.996	281.74
700.403	328.55
700.81	248.97
701.216	288.76
701.623	305.15
702.029	358.98
702.435	321.53
702.842	263.02
703.248	293.44
703.654	328.55
704.06	281.74
704.466	295.79
704.872	340.26
705.278	295.79
705.684	265.36
706.09	344.94
706.496	384.73
706.901	277.06
707.307	337.91
707.712	244.29
708.118	354.3
708.523	340.26
708.929	263.02
709.334	293.44
709.74	302.81
710.145	227.91
710.55	300.47
710.955	321.53
711.36	272.38
711.765	281.74
712.17	361.32
712.575	335.57
712.98	857.51
713.385	387.07
713.789	260.68
714.194	309.83
714.599	340.26
715.003	253.66
715.408	244.29
715.812	358.98
716.217	312.17
716.621	248.97
717.025	344.94
717.429	223.23
717.833	342.6
718.238	356.64
718.642	314.51
719.046	298.13
719.449	270.04
719.853	277.06
720.257	260.68
720.661	286.42
721.065	330.89
721.468	312.17
721.872	337.91
722.275	321.53
722.679	295.79
723.082	300.47
723.485	314.51
723.889	284.08
724.292	342.6
724.695	305.15
725.098	344.94
725.501	356.64
725.904	244.29
726.307	300.47
726.71	342.6
727.113	302.81
727.516	316.85
727.918	326.21
728.321	284.08
728.724	305.15
729.126	295.79
729.529	344.94
729.931	368.34
730.333	300.47
730.736	281.74
731.138	277.06
731.54	246.63
731.942	323.87
732.344	312.17
732.746	293.44
733.148	281.74
733.55	286.42
733.952	263.02
734.354	319.19
734.756	375.36
735.157	312.17
735.559	300.47
735.96	288.76
736.362	349.62
736.763	288.76
737.165	295.79
737.566	298.13
737.967	335.57
738.368	366
738.77	330.89
739.171	300.47
739.572	349.62
739.973	274.72
740.374	344.94
740.774	337.91
741.175	256
741.576	342.6
741.977	319.19
742.377	321.53
742.778	270.04
743.178	305.15
743.579	291.1
743.979	270.04
744.379	286.42
744.78	340.26
745.18	323.87
745.58	330.89
745.98	298.13
746.38	319.19
746.78	305.15
747.18	281.74
747.58	281.74
747.98	330.89
748.38	307.49
748.779	277.06
749.179	330.89
749.578	307.49
749.978	314.51
750.377	260.68
750.777	295.79
751.176	305.15
751.575	232.59
751.975	272.38
752.374	326.21
752.773	342.6
753.172	277.06
753.571	307.49
753.97	307.49
754.369	293.44
754.768	375.36
755.166	300.47
755.565	330.89
755.964	368.34
756.362	351.96
756.761	302.81
757.159	368.34
757.558	263.02
757.956	314.51
758.354	248.97
758.753	295.79
759.151	328.55
759.549	279.4
759.947	305.15
760.345	239.61
760.743	300.47
761.141	307.49
761.539	270.04
761.936	309.83
762.334	286.42
762.732	307.49
763.129	274.72
763.527	237.27
763.924	321.53
764.322	286.42
764.719	298.13
765.117	300.47
765.514	267.7
765.911	314.51
766.308	281.74
766.705	293.44
767.102	256
767.499	319.19
767.896	281.74
768.293	316.85
768.69	305.15
769.086	281.74
769.483	302.81
769.88	316.85
770.276	279.4
770.673	305.15
771.069	335.57
771.466	286.42
771.862	307.49
772.258	284.08
772.654	272.38
773.05	340.26
773.447	328.55
773.843	382.39
774.239	323.87
774.634	307.49
775.03	351.96
775.426	237.27
775.822	358.98
776.218	323.87
776.613	241.95
777.009	263.02
777.404	309.83
777.8	277.06
778.195	309.83
778.59	270.04
778.986	330.89
779.381	330.89
779.776	295.79
780.171	354.3
780.566	279.4
780.961	272.38
781.356	337.91
781.751	281.74
782.146	344.94
782.54	256
782.935	284.08
783.33	302.81
783.724	288.76
784.119	349.62
784.513	328.55
784.908	305.15
785.302	300.47
785.696	316.85
786.09	347.28
786.485	298.13
786.879	295.79
787.273	312.17
787.667	358.98
788.061	344.94
788.454	344.94
788.848	319.19
789.242	300.47
789.636	347.28
790.029	284.08
790.423	237.27
790.816	312.17
791.21	344.94
791.603	279.4
791.997	300.47
792.39	337.91
792.783	305.15
793.176	270.04
793.569	335.57
793.962	279.4
794.355	284.08
794.748	281.74
795.141	312.17
795.534	307.49
795.927	241.95
796.319	281.74
796.712	316.85
797.105	384.73
797.497	307.49
797.89	340.26
798.282	330.89
798.674	307.49
799.067	373.02
799.459	316.85
799.851	337.91
800.243	300.47
800.635	382.39
801.027	349.62
801.419	335.57
801.811	218.55
802.203	340.26
802.594	241.95
802.986	263.02
803.378	396.43
803.769	263.02
804.161	272.38
804.552	321.53
804.944	316.85
805.335	286.42
805.726	330.89
806.118	246.63
806.509	291.1
806.9	279.4
807.291	305.15
807.682	347.28
808.073	281.74
808.464	312.17
808.855	330.89
809.245	305.15
809.636	307.49
810.027	312.17
810.417	291.1
810.808	277.06
811.198	351.96
811.589	335.57
811.979	370.68
812.369	340.26
812.759	248.97
813.15	220.89
813.54	312.17
813.93	375.36
814.32	295.79
814.71	300.47
815.1	337.91
815.489	291.1
815.879	302.81
816.269	305.15
816.658	330.89
817.048	330.89
817.438	298.13
817.827	272.38
818.216	319.19
818.606	295.79
818.995	244.29
819.384	251.32
819.773	330.89
820.163	274.72
820.552	305.15
820.941	321.53
821.33	354.3
821.718	258.34
822.107	342.6
822.496	375.36
822.885	351.96
823.273	326.21
823.662	333.23
824.05	309.83
824.439	241.95
824.827	263.02
825.216	298.13
825.604	239.61
825.992	288.76
826.38	326.21
826.768	298.13
827.156	241.95
827.544	295.79
827.932	302.81
828.32	321.53
828.708	307.49
829.096	335.57
829.483	333.23
829.871	328.55
830.259	314.51
830.646	358.98
831.034	265.36
831.421	342.6
831.808	316.85
832.196	272.38
832.583	291.1
832.97	277.06
833.357	337.91
833.744	302.81
834.131	260.68
834.518	284.08
834.905	258.34
835.292	326.21
835.678	286.42
836.065	260.68
836.452	272.38
836.838	319.19
837.225	344.94
837.611	300.47
837.998	321.53
838.384	358.98
838.77	335.57
839.157	274.72
839.543	307.49
839.929	286.42
840.315	281.74
840.701	288.76
841.087	253.66
841.473	298.13
841.858	277.06
842.244	316.85
842.63	326.21
843.015	298.13
843.401	321.53
843.787	305.15
844.172	293.44
844.557	298.13
844.943	302.81
845.328	347.28
845.713	258.34
846.098	286.42
846.483	326.21
846.868	309.83
847.253	330.89
847.638	314.51
848.023	337.91
848.408	344.94
848.793	307.49
849.177	305.15
849.562	337.91
849.947	330.89
850.331	260.68
850.715	321.53
851.1	305.15
851.484	316.85
851.868	272.38
852.253	326.21
852.637	281.74
853.021	300.47
853.405	340.26
853.789	223.23
854.173	288.76
854.557	312.17
854.94	349.62
855.324	253.66
855.708	340.26
856.091	344.94
856.475	286.42
856.858	272.38
857.242	270.04
857.625	328.55
858.009	312.17
858.392	291.1
858.775	288.76
859.158	307.49
859.541	302.81
859.924	314.51
860.307	260.68
860.69	241.95
861.073	256
861.456	323.87
861.838	328.55
862.221	293.44
862.604	321.53
862.986	286.42
863.369	366
863.751	358.98
864.133	314.51
864.516	319.19
864.898	337.91
865.28	288.76
865.662	277.06
866.044	291.1
866.426	270.04
866.808	340.26
867.19	256
867.572	225.57
867.954	241.95
868.336	279.4
868.717	295.79
869.099	272.38
869.48	321.53
869.862	326.21
870.243	321.53
870.625	239.61
871.006	284.08
871.387	309.83
871.768	344.94
872.149	323.87
872.53	295.79
872.911	323.87
873.292	373.02
873.673	279.4
874.054	244.29
874.435	267.7
874.815	333.23
875.196	349.62
875.577	307.49
875.957	293.44
876.338	347.28
876.718	253.66
877.098	328.55
877.479	302.81
877.859	309.83
878.239	279.4
878.619	326.21
878.999	265.36
879.379	337.91
879.759	326.21
880.139	307.49
880.519	312.17
880.898	319.19
881.278	335.57
881.658	279.4
882.037	316.85
882.417	291.1
882.796	279.4
883.176	270.04
883.555	344.94
883.934	288.76
884.313	340.26
884.693	363.66
885.072	302.81
885.451	326.21
885.83	326.21
886.209	267.7
886.587	349.62
886.966	300.47
887.345	335.57
887.724	246.63
888.102	323.87
888.481	375.36
888.859	326.21
889.238	293.44
889.616	267.7
889.994	309.83
890.373	293.44
890.751	349.62
891.129	277.06
891.507	333.23
891.885	274.72
892.263	258.34
892.641	253.66
893.019	323.87
893.396	253.66
893.774	366
894.152	211.53
894.529	358.98
894.907	337.91
895.284	340.26
895.662	307.49
896.039	277.06
896.416	309.83
896.794	321.53
897.171	281.74
897.548	293.44
897.925	244.29
898.302	330.89
898.679	258.34
899.056	330.89
899.433	309.83
899.809	293.44
900.186	258.34
900.563	295.79
900.939	225.57
901.316	340.26
901.692	319.19
902.069	239.61
902.445	295.79
902.821	288.76
903.197	295.79
903.574	302.81
903.95	328.55
904.326	281.74
904.702	260.68
905.078	337.91
905.454	300.47
905.829	316.85
906.205	288.76
906.581	251.32
906.956	321.53
907.332	326.21
907.707	307.49
908.083	312.17
908.458	330.89
908.833	300.47
909.209	260.68
909.584	284.08
909.959	328.55
910.334	309.83
910.709	293.44
911.084	293.44
911.459	286.42
911.834	265.36
912.209	284.08
912.583	319.19
912.958	309.83
913.333	295.79
913.707	351.96
914.082	333.23
914.456	302.81
914.83	358.98
915.205	309.83
915.579	370.68
915.953	277.06
916.327	305.15
916.701	309.83
917.075	405.79
917.449	263.02
917.823	342.6
918.197	342.6
918.571	340.26
918.944	351.96
919.318	279.4
919.692	291.1
920.065	314.51
920.438	277.06
920.812	394.09
921.185	279.4
921.558	321.53
921.932	337.91
922.305	253.66
922.678	330.89
923.051	302.81
923.424	309.83
923.797	330.89
924.17	330.89
924.542	272.38
924.915	309.83
925.288	349.62
925.661	309.83
926.033	253.66
926.406	256
926.778	307.49
927.15	248.97
927.523	307.49
927.895	298.13
928.267	295.79
928.639	279.4
929.011	239.61
929.383	288.76
929.755	302.81
930.127	305.15
930.499	265.36
930.871	295.79
931.242	288.76
931.614	295.79
931.986	361.32
932.357	230.25
932.729	295.79
933.1	270.04
933.471	295.79
933.843	277.06
934.214	305.15
934.585	333.23
934.956	256
935.327	281.74
935.698	281.74
936.069	286.42
936.44	305.15
936.811	323.87
937.182	270.04
937.552	316.85
937.923	291.1
938.293	258.34
938.664	263.02
939.034	274.72
939.405	326.21
939.775	293.44
940.145	305.15
940.516	344.94
940.886	323.87
941.256	316.85
941.626	305.15
941.996	351.96
942.366	279.4
942.735	277.06
943.105	302.81
943.475	356.64
943.845	319.19
944.214	302.81
944.584	328.55
944.953	300.47
945.323	307.49
945.692	298.13
946.061	319.19
946.43	316.85
946.8	302.81
947.169	335.57
947.538	251.32
947.907	288.76
948.276	256
948.645	277.06
949.013	265.36
949.382	316.85
949.751	316.85
950.119	333.23
950.488	314.51
950.857	277.06
951.225	321.53
951.593	321.53
951.962	300.47
952.33	305.15
952.698	342.6
953.066	314.51
953.434	319.19
953.802	293.44
954.17	286.42
954.538	314.51
954.906	234.93
955.274	368.34
955.642	277.06
956.009	244.29
956.377	281.74
956.744	288.76
957.112	319.19
957.479	291.1
957.847	373.02
958.214	302.81
958.581	344.94
958.948	307.49
959.315	265.36
959.683	312.17
960.05	300.47
960.416	368.34
960.783	302.81
961.15	291.1
961.517	281.74
961.884	246.63
962.25	342.6
962.617	328.55
962.983	279.4
963.35	246.63
963.716	361.32
964.082	314.51
964.449	335.57
964.815	316.85
965.181	286.42
965.547	351.96
965.913	277.06
966.279	316.85
966.645	284.08
967.011	323.87
967.377	305.15
967.742	356.64
968.108	302.81
968.474	333.23
968.839	305.15
969.205	305.15
969.57	307.49
969.935	277.06
970.301	375.36
970.666	230.25
971.031	244.29
971.396	218.55
971.761	272.38
972.126	316.85
972.491	216.21
972.856	279.4
973.221	286.42
973.586	344.94
973.95	270.04
974.315	326.21
974.679	358.98
975.044	342.6
975.408	307.49
975.773	279.4
976.137	302.81
976.501	295.79
976.866	281.74
977.23	321.53
977.594	251.32
977.958	258.34
978.322	244.29
978.686	316.85
979.049	328.55
979.413	354.3
979.777	300.47
980.141	256
980.504	307.49
980.868	340.26
981.231	307.49
981.595	302.81
981.958	305.15
982.321	298.13
982.684	309.83
983.048	316.85
983.411	239.61
983.774	300.47
984.137	321.53
984.5	298.13
984.862	302.81
985.225	305.15
985.588	288.76
985.951	337.91
986.313	335.57
986.676	305.15
987.038	319.19
987.401	256
987.763	302.81
988.125	354.3
988.488	351.96
988.85	316.85
989.212	263.02
989.574	281.74
989.936	293.44
990.298	333.23
990.66	288.76
991.022	298.13
991.383	279.4
991.745	295.79
992.107	356.64
992.468	298.13
992.83	288.76
993.191	293.44
993.553	295.79
993.914	316.85
994.275	270.04
994.637	260.68
994.998	277.06
995.359	291.1
995.72	274.72
996.081	312.17
996.442	256
996.803	291.1
997.163	302.81
997.524	319.19
997.885	244.29
998.245	328.55
998.606	312.17
998.966	328.55
999.327	316.85
999.687	307.49
1000.047	284.08
1000.408	305.15
1000.768	307.49
1001.128	316.85
1001.488	270.04
1001.848	314.51
1002.208	281.74
1002.568	307.49
1002.927	316.85
1003.287	377.7
1003.647	309.83
1004.007	293.44
1004.366	260.68
1004.726	251.32
1005.085	277.06
1005.444	316.85
1005.804	286.42
1006.163	232.59
1006.522	307.49
1006.881	305.15
1007.24	274.72
1007.599	234.93
1007.958	288.76
1008.317	213.87
1008.676	380.04
1009.035	272.38
1009.393	335.57
1009.752	260.68
1010.111	330.89
1010.469	295.79
1010.828	307.49
1011.186	307.49
1011.544	312.17
1011.903	309.83
1012.261	253.66
1012.619	321.53
1012.977	293.44
1013.335	305.15
1013.693	270.04
1014.051	251.32
1014.409	295.79
1014.767	239.61
1015.124	253.66
1015.482	321.53
1015.84	307.49
1016.197	309.83
1016.555	272.38
1016.912	312.17
1017.269	277.06
1017.627	307.49
1017.984	288.76
1018.341	373.02
1018.698	258.34
1019.055	337.91
1019.412	256
1019.769	349.62
1020.126	256
1020.483	361.32
1020.84	279.4
1021.196	347.28
1021.553	244.29
1021.909	337.91
1022.266	286.42
1022.622	326.21
1022.979	340.26
1023.335	349.62
1023.691	326.21
1024.047	305.15
1024.404	270.04
1024.76	319.19
1025.116	337.91
1025.472	358.98
1025.827	366
1026.183	288.76
1026.539	354.3
1026.895	227.91
1027.25	244.29
1027.606	265.36
1027.961	335.57
1028.317	274.72
1028.672	347.28
1029.028	307.49
1029.383	328.55
1029.738	293.44
1030.093	291.1
1030.448	302.81
1030.803	326.21
1031.158	302.81
1031.513	286.42
1031.868	330.89
1032.223	337.91
1032.577	256
1032.932	328.55
1033.287	384.73
1033.641	248.97
1033.996	293.44
1034.35	253.66
1034.704	298.13
1035.059	265.36
1035.413	281.74
1035.767	281.74
1036.121	281.74
