Data from Al_FLMS009871__126__11-53-25-388.txt Node

Date: Fri Mar 08 11:53:25 CST 2024
User: pe5414po
Spectrometer: FLMS00987
Trigger mode: 0
Integration Time (sec): 1.000000E-1
Scans to average: 1
Electric dark correction enabled: true
Nonlinearity correction enabled: false
Boxcar width: 0
XAxis mode: Wavelengths
Number of Pixels in Spectrum: 2048
>>>>>Begin Spectral Data<<<<<
188.938	-38.18
189.409	-38.18
189.879	-38.18
190.349	-54.56
190.819	-113.08
191.29	-80.31
191.76	-80.31
192.23	-68.61
192.7	-106.06
193.17	-47.54
193.64	-45.2
194.109	-110.74
194.579	-19.46
195.049	36.72
195.519	64.8
195.988	67.14
196.458	10.97
196.927	17.99
197.397	120.98
197.866	125.66
198.336	113.95
198.805	123.32
199.274	144.38
199.744	153.74
200.213	254.39
200.682	207.58
201.151	240.34
201.62	221.62
202.089	221.62
202.558	221.62
203.027	235.66
203.495	228.64
203.964	275.45
204.433	266.09
204.902	298.86
205.37	273.11
205.839	319.92
206.307	301.2
206.776	329.28
207.244	336.31
207.712	282.47
208.181	230.98
208.649	329.28
209.117	319.92
209.585	308.22
210.053	287.15
210.521	298.86
210.989	268.43
211.457	376.09
211.925	340.99
212.393	266.09
212.861	345.67
213.328	294.18
213.796	254.39
214.264	263.75
214.731	221.62
215.199	238
215.666	324.6
216.133	240.34
216.601	245.02
217.068	233.32
217.535	263.75
218.003	233.32
218.47	238
218.937	235.66
219.404	317.58
219.871	230.98
220.338	284.81
220.805	273.11
221.271	249.71
221.738	266.09
222.205	266.09
222.671	282.47
223.138	301.2
223.605	233.32
224.071	259.07
224.538	282.47
225.004	301.2
225.47	324.6
225.937	266.09
226.403	252.05
226.869	305.88
227.335	287.15
227.801	284.81
228.267	291.84
228.733	322.26
229.199	298.86
229.665	336.31
230.131	263.75
230.597	305.88
231.062	226.3
231.528	289.5
231.994	298.86
232.459	202.9
232.925	303.54
233.39	315.24
233.856	275.45
234.321	266.09
234.786	280.13
235.252	357.37
235.717	289.5
236.182	287.15
236.647	254.39
237.112	280.13
237.577	357.37
238.042	294.18
238.507	322.26
238.972	329.28
239.436	312.9
239.901	357.37
240.366	259.07
240.83	333.97
241.295	235.66
241.76	319.92
242.224	259.07
242.688	256.73
243.153	284.81
243.617	259.07
244.081	366.73
244.545	289.5
245.01	268.43
245.474	315.24
245.938	312.9
246.402	240.34
246.866	242.68
247.33	252.05
247.793	228.64
248.257	230.98
248.721	247.37
249.185	336.31
249.648	298.86
250.112	249.71
250.575	266.09
251.039	282.47
251.502	317.58
251.965	256.73
252.429	233.32
252.892	324.6
253.355	296.52
253.818	289.5
254.281	277.79
254.744	256.73
255.207	289.5
255.67	238
256.133	303.54
256.596	336.31
257.059	305.88
257.522	284.81
257.984	282.47
258.447	352.69
258.909	247.37
259.372	359.71
259.834	333.97
260.297	310.56
260.759	340.99
261.221	291.84
261.684	268.43
262.146	336.31
262.608	245.02
263.07	277.79
263.532	245.02
263.994	270.77
264.456	355.03
264.918	310.56
265.38	317.58
265.842	282.47
266.303	270.77
266.765	280.13
267.227	291.84
267.688	317.58
268.15	263.75
268.611	289.5
269.072	308.22
269.534	277.79
269.995	345.67
270.456	268.43
270.918	298.86
271.379	294.18
271.84	312.9
272.301	340.99
272.762	233.32
273.223	355.03
273.684	319.92
274.144	291.84
274.605	296.52
275.066	298.86
275.527	261.41
275.987	301.2
276.448	282.47
276.908	289.5
277.369	233.32
277.829	233.32
278.289	319.92
278.75	273.11
279.21	326.94
279.67	312.9
280.13	336.31
280.59	296.52
281.05	315.24
281.51	303.54
281.97	263.75
282.43	312.9
282.89	350.35
283.35	331.62
283.809	324.6
284.269	319.92
284.729	371.41
285.188	254.39
285.648	319.92
286.107	322.26
286.567	329.28
287.026	326.94
287.485	310.56
287.944	319.92
288.404	348.01
288.863	338.65
289.322	280.13
289.781	221.62
290.24	282.47
290.699	287.15
291.158	357.37
291.616	294.18
292.075	303.54
292.534	366.73
292.992	298.86
293.451	315.24
293.91	301.2
294.368	296.52
294.827	263.75
295.285	331.62
295.743	308.22
296.202	310.56
296.66	326.94
297.118	338.65
297.576	277.79
298.034	280.13
298.492	263.75
298.95	336.31
299.408	310.56
299.866	331.62
300.324	364.39
300.781	333.97
301.239	331.62
301.697	296.52
302.154	245.02
302.612	364.39
303.069	284.81
303.527	338.65
303.984	270.77
304.441	287.15
304.899	247.37
305.356	371.41
305.813	333.97
306.27	383.12
306.727	340.99
307.184	291.84
307.641	322.26
308.098	280.13
308.555	242.68
309.012	333.97
309.468	385.46
309.925	287.15
310.382	298.86
310.838	331.62
311.295	355.03
311.751	268.43
312.208	303.54
312.664	312.9
313.12	310.56
313.577	317.58
314.033	326.94
314.489	282.47
314.945	296.52
315.401	343.33
315.857	308.22
316.313	303.54
316.769	319.92
317.225	322.26
317.681	284.81
318.136	350.35
318.592	357.37
319.048	301.2
319.503	310.56
319.959	287.15
320.414	333.97
320.869	305.88
321.325	324.6
321.78	230.98
322.235	326.94
322.691	340.99
323.146	322.26
323.601	322.26
324.056	340.99
324.511	270.77
324.966	277.79
325.421	277.79
325.875	348.01
326.33	273.11
326.785	350.35
327.24	322.26
327.694	289.5
328.149	249.71
328.603	259.07
329.058	305.88
329.512	268.43
329.966	312.9
330.421	266.09
330.875	340.99
331.329	298.86
331.783	317.58
332.237	305.88
332.691	338.65
333.145	338.65
333.599	284.81
334.053	308.22
334.507	312.9
334.96	319.92
335.414	348.01
335.868	291.84
336.321	275.45
336.775	301.2
337.228	324.6
337.682	273.11
338.135	319.92
338.588	366.73
339.042	362.05
339.495	364.39
339.948	319.92
340.401	319.92
340.854	273.11
341.307	340.99
341.76	331.62
342.213	319.92
342.666	273.11
343.119	301.2
343.571	319.92
344.024	291.84
344.477	333.97
344.929	287.15
345.382	273.11
345.834	277.79
346.287	268.43
346.739	317.58
347.191	303.54
347.644	324.6
348.096	326.94
348.548	284.81
349	340.99
349.452	319.92
349.904	392.48
350.356	350.35
350.808	282.47
351.26	333.97
351.711	333.97
352.163	298.86
352.615	287.15
353.066	296.52
353.518	364.39
353.969	317.58
354.421	312.9
354.872	322.26
355.324	308.22
355.775	280.13
356.226	336.31
356.677	310.56
357.128	329.28
357.579	383.12
358.03	261.41
358.481	317.58
358.932	319.92
359.383	291.84
359.834	312.9
360.285	298.86
360.735	345.67
361.186	390.14
361.637	319.92
362.087	301.2
362.538	317.58
362.988	336.31
363.438	308.22
363.889	343.33
364.339	319.92
364.789	294.18
365.239	308.22
365.689	378.44
366.139	312.9
366.589	338.65
367.039	301.2
367.489	270.77
367.939	357.37
368.389	338.65
368.839	348.01
369.288	338.65
369.738	359.71
370.187	310.56
370.637	366.73
371.086	282.47
371.536	310.56
371.985	301.2
372.434	390.14
372.884	319.92
373.333	273.11
373.782	315.24
374.231	319.92
374.68	322.26
375.129	324.6
375.578	249.71
376.027	308.22
376.475	319.92
376.924	296.52
377.373	369.07
377.822	270.77
378.27	270.77
378.719	301.2
379.167	336.31
379.616	390.14
380.064	383.12
380.512	289.5
380.961	305.88
381.409	326.94
381.857	252.05
382.305	322.26
382.753	298.86
383.201	289.5
383.649	326.94
384.097	345.67
384.545	296.52
384.992	326.94
385.44	350.35
385.888	350.35
386.335	266.09
386.783	289.5
387.231	266.09
387.678	291.84
388.125	305.88
388.573	352.69
389.02	336.31
389.467	296.52
389.914	245.02
390.362	345.67
390.809	345.67
391.256	345.67
391.703	298.86
392.15	301.2
392.596	345.67
393.043	364.39
393.49	340.99
393.937	355.03
394.383	352.69
394.83	355.03
395.276	387.8
395.723	366.73
396.169	406.52
396.616	350.35
397.062	317.58
397.508	333.97
397.954	380.78
398.401	273.11
398.847	348.01
399.293	355.03
399.739	322.26
400.185	345.67
400.631	333.97
401.076	348.01
401.522	364.39
401.968	366.73
402.414	336.31
402.859	373.75
403.305	315.24
403.75	336.31
404.196	315.24
404.641	359.71
405.086	350.35
405.532	331.62
405.977	275.45
406.422	280.13
406.867	301.2
407.312	291.84
407.757	282.47
408.202	357.37
408.647	312.9
409.092	343.33
409.537	324.6
409.982	319.92
410.426	287.15
410.871	343.33
411.316	308.22
411.76	312.9
412.205	329.28
412.649	298.86
413.093	303.54
413.538	355.03
413.982	305.88
414.426	319.92
414.87	322.26
415.314	366.73
415.758	355.03
416.202	415.88
416.646	277.79
417.09	362.05
417.534	319.92
417.978	308.22
418.421	287.15
418.865	387.8
419.309	350.35
419.752	315.24
420.196	364.39
420.639	411.2
421.083	282.47
421.526	301.2
421.969	294.18
422.412	317.58
422.856	401.84
423.299	385.46
423.742	399.5
424.185	380.78
424.628	387.8
425.071	359.71
425.513	310.56
425.956	355.03
426.399	369.07
426.842	343.33
427.284	333.97
427.727	296.52
428.169	336.31
428.612	352.69
429.054	378.44
429.497	326.94
429.939	340.99
430.381	397.16
430.823	359.71
431.265	357.37
431.707	378.44
432.149	376.09
432.591	338.65
433.033	436.95
433.475	436.95
433.917	380.78
434.359	483.76
434.8	488.44
435.242	546.95
435.684	481.42
436.125	476.74
436.567	443.97
437.008	465.04
437.449	450.99
437.891	465.04
438.332	476.74
438.773	441.63
439.214	429.93
439.656	404.18
440.097	439.29
440.538	453.33
440.978	483.76
441.419	401.84
441.86	474.4
442.301	486.1
442.742	450.99
443.182	518.87
443.623	425.25
444.063	495.46
444.504	546.95
444.944	460.35
445.385	469.72
445.825	507.16
446.265	514.19
446.706	441.63
447.146	422.91
447.586	479.08
448.026	493.12
448.466	504.82
448.906	539.93
449.346	479.08
449.786	469.72
450.225	359.71
450.665	472.06
451.105	411.2
451.544	544.61
451.984	465.04
452.424	469.72
452.863	488.44
453.302	425.25
453.742	441.63
454.181	448.65
454.62	446.31
455.059	422.91
455.499	390.14
455.938	441.63
456.377	467.38
456.816	392.48
457.254	441.63
457.693	481.42
458.132	413.54
458.571	397.16
459.01	369.07
459.448	460.35
459.887	413.54
460.325	371.41
460.764	432.27
461.202	399.5
461.641	376.09
462.079	376.09
462.517	467.38
462.955	319.92
463.393	355.03
463.832	450.99
464.27	366.73
464.708	429.93
465.145	436.95
465.583	434.61
466.021	338.65
466.459	352.69
466.897	345.67
467.334	387.8
467.772	394.82
468.209	427.59
468.647	401.84
469.084	439.29
469.522	408.86
469.959	329.28
470.396	401.84
470.833	397.16
471.271	406.52
471.708	392.48
472.145	371.41
472.582	373.75
473.019	357.37
473.456	376.09
473.892	411.2
474.329	345.67
474.766	369.07
475.202	333.97
475.639	366.73
476.076	392.48
476.512	369.07
476.949	390.14
477.385	369.07
477.821	296.52
478.258	406.52
478.694	376.09
479.13	336.31
479.566	432.27
480.002	392.48
480.438	319.92
480.874	352.69
481.31	392.48
481.746	366.73
482.181	453.33
482.617	413.54
483.053	359.71
483.488	355.03
483.924	413.54
484.36	418.22
484.795	418.22
485.23	450.99
485.666	453.33
486.101	441.63
486.536	490.78
486.971	481.42
487.407	450.99
487.842	460.35
488.277	446.31
488.712	418.22
489.146	465.04
489.581	394.82
490.016	516.53
490.451	472.06
490.885	458.01
491.32	467.38
491.755	413.54
492.189	441.63
492.624	399.5
493.058	500.14
493.492	401.84
493.927	413.54
494.361	455.67
494.795	364.39
495.229	413.54
495.663	462.69
496.097	446.31
496.531	401.84
496.965	383.12
497.399	380.78
497.833	441.63
498.266	434.61
498.7	359.71
499.134	359.71
499.567	443.97
500.001	450.99
500.434	413.54
500.868	404.18
501.301	380.78
501.734	404.18
502.168	408.86
502.601	408.86
503.034	479.08
503.467	397.16
503.9	394.82
504.333	420.57
504.766	383.12
505.199	385.46
505.632	399.5
506.064	385.46
506.497	369.07
506.93	373.75
507.362	432.27
507.795	397.16
508.227	404.18
508.66	362.05
509.092	439.29
509.524	408.86
509.956	483.76
510.389	493.12
510.821	500.14
511.253	373.75
511.685	425.25
512.117	448.65
512.549	401.84
512.981	394.82
513.412	378.44
513.844	422.91
514.276	387.8
514.707	420.57
515.139	371.41
515.571	441.63
516.002	333.97
516.433	474.4
516.865	401.84
517.296	401.84
517.727	376.09
518.159	387.8
518.59	406.52
519.021	397.16
519.452	392.48
519.883	427.59
520.314	394.82
520.744	427.59
521.175	413.54
521.606	453.33
522.037	439.29
522.467	427.59
522.898	443.97
523.328	394.82
523.759	455.67
524.189	340.99
524.62	434.61
525.05	408.86
525.48	427.59
525.91	383.12
526.341	488.44
526.771	455.67
527.201	443.97
527.631	425.25
528.061	453.33
528.49	427.59
528.92	434.61
529.35	535.25
529.78	736.54
530.209	1962.98
530.639	7952.41
531.068	15126.15
531.498	21707.74
531.927	21967.54
532.357	23694.85
532.786	17920.75
533.215	7292.38
533.644	3379
534.074	1569.77
534.503	813.78
534.932	553.98
535.361	518.87
535.79	528.23
536.218	532.91
536.647	397.16
537.076	455.67
537.505	488.44
537.933	507.16
538.362	458.01
538.79	483.76
539.219	486.1
539.647	479.08
540.076	474.4
540.504	542.27
540.932	607.81
541.36	673.34
541.788	680.36
542.217	743.56
542.645	724.83
543.073	766.96
543.5	799.73
543.928	766.96
544.356	675.68
544.784	750.58
545.211	734.2
545.639	694.41
546.067	738.88
546.494	619.51
546.922	563.34
547.349	558.66
547.776	483.76
548.204	481.42
548.631	507.16
549.058	497.8
549.485	532.91
549.912	448.65
550.339	507.16
550.766	465.04
551.193	455.67
551.62	462.69
552.047	462.69
552.474	502.48
552.9	448.65
553.327	425.25
553.754	422.91
554.18	530.57
554.607	378.44
555.033	373.75
555.459	394.82
555.886	371.41
556.312	420.57
556.738	399.5
557.164	406.52
557.59	352.69
558.016	434.61
558.442	387.8
558.868	406.52
559.294	348.01
559.72	401.84
560.145	427.59
560.571	465.04
560.997	483.76
561.422	404.18
561.848	411.2
562.273	453.33
562.699	383.12
563.124	369.07
563.549	436.95
563.974	439.29
564.4	479.08
564.825	369.07
565.25	441.63
565.675	392.48
566.1	387.8
566.525	413.54
566.95	390.14
567.374	348.01
567.799	392.48
568.224	432.27
568.648	362.05
569.073	434.61
569.497	413.54
569.922	397.16
570.346	390.14
570.771	397.16
571.195	380.78
571.619	432.27
572.043	422.91
572.467	387.8
572.891	338.65
573.315	429.93
573.739	380.78
574.163	385.46
574.587	385.46
575.011	348.01
575.435	429.93
575.858	439.29
576.282	465.04
576.705	399.5
577.129	441.63
577.552	406.52
577.976	415.88
578.399	378.44
578.822	392.48
579.245	413.54
579.669	394.82
580.092	465.04
580.515	460.35
580.938	472.06
581.361	427.59
581.784	404.18
582.206	345.67
582.629	422.91
583.052	497.8
583.474	476.74
583.897	469.72
584.32	415.88
584.742	422.91
585.165	404.18
585.587	453.33
586.009	408.86
586.431	469.72
586.854	460.35
587.276	376.09
587.698	502.48
588.12	443.97
588.542	455.67
588.964	380.78
589.386	465.04
589.807	429.93
590.229	427.59
590.651	420.57
591.073	448.65
591.494	425.25
591.916	350.35
592.337	476.74
592.759	392.48
593.18	383.12
593.601	418.22
594.022	432.27
594.444	392.48
594.865	401.84
595.286	331.62
595.707	373.75
596.128	399.5
596.549	340.99
596.97	434.61
597.39	408.86
597.811	340.99
598.232	401.84
598.652	357.37
599.073	390.14
599.494	401.84
599.914	399.5
600.334	476.74
600.755	338.65
601.175	397.16
601.595	392.48
602.015	472.06
602.436	340.99
602.856	511.85
603.276	422.91
603.696	364.39
604.115	390.14
604.535	333.97
604.955	355.03
605.375	380.78
605.794	355.03
606.214	415.88
606.634	439.29
607.053	411.2
607.473	397.16
607.892	406.52
608.311	338.65
608.731	448.65
609.15	453.33
609.569	568.02
609.988	591.42
610.407	806.75
610.826	813.78
611.245	848.88
611.664	795.05
612.083	736.54
612.501	671
612.92	575.04
613.339	617.17
613.757	546.95
614.176	514.19
614.594	504.82
615.013	502.48
615.431	406.52
615.85	427.59
616.268	429.93
616.686	355.03
617.104	481.42
617.522	422.91
617.94	397.16
618.358	364.39
618.776	415.88
619.194	357.37
619.612	399.5
620.03	408.86
620.447	415.88
620.865	432.27
621.282	408.86
621.7	448.65
622.117	406.52
622.535	390.14
622.952	394.82
623.369	359.71
623.787	383.12
624.204	348.01
624.621	378.44
625.038	390.14
625.455	362.05
625.872	378.44
626.289	338.65
626.706	413.54
627.123	369.07
627.539	350.35
627.956	380.78
628.373	399.5
628.789	399.5
629.206	357.37
629.622	399.5
630.038	359.71
630.455	383.12
630.871	340.99
631.287	408.86
631.703	373.75
632.12	310.56
632.536	355.03
632.952	408.86
633.368	355.03
633.783	289.5
634.199	333.97
634.615	266.09
635.031	364.39
635.446	415.88
635.862	387.8
636.277	336.31
636.693	324.6
637.108	350.35
637.524	348.01
637.939	319.92
638.354	312.9
638.77	383.12
639.185	404.18
639.6	385.46
640.015	273.11
640.43	348.01
640.845	298.86
641.259	324.6
641.674	315.24
642.089	324.6
642.504	338.65
642.918	317.58
643.333	355.03
643.747	369.07
644.162	355.03
644.576	422.91
644.991	383.12
645.405	336.31
645.819	319.92
646.233	336.31
646.647	366.73
647.061	284.81
647.475	317.58
647.889	348.01
648.303	317.58
648.717	333.97
649.131	338.65
649.545	345.67
649.958	394.82
650.372	378.44
650.785	359.71
651.199	333.97
651.612	303.54
652.026	390.14
652.439	305.88
652.852	362.05
653.266	336.31
653.679	319.92
654.092	350.35
654.505	280.13
654.918	336.31
655.331	355.03
655.744	348.01
656.156	277.79
656.569	298.86
656.982	242.68
657.394	331.62
657.807	324.6
658.22	355.03
658.632	392.48
659.044	378.44
659.457	399.5
659.869	312.9
660.281	294.18
660.693	373.75
661.106	394.82
661.518	355.03
661.93	329.28
662.342	399.5
662.754	331.62
663.165	291.84
663.577	326.94
663.989	301.2
664.401	359.71
664.812	413.54
665.224	390.14
665.635	336.31
666.047	319.92
666.458	366.73
666.869	343.33
667.281	317.58
667.692	294.18
668.103	376.09
668.514	352.69
668.925	322.26
669.336	355.03
669.747	315.24
670.158	380.78
670.569	312.9
670.979	310.56
671.39	312.9
671.801	294.18
672.211	326.94
672.622	371.41
673.032	399.5
673.443	324.6
673.853	329.28
674.263	331.62
674.674	322.26
675.084	364.39
675.494	331.62
675.904	343.33
676.314	376.09
676.724	296.52
677.134	312.9
677.544	287.15
677.953	336.31
678.363	432.27
678.773	373.75
679.182	357.37
679.592	340.99
680.001	303.54
680.411	329.28
680.82	308.22
681.23	273.11
681.639	376.09
682.048	319.92
682.457	324.6
682.866	294.18
683.275	348.01
683.684	282.47
684.093	301.2
684.502	401.84
684.911	273.11
685.32	357.37
685.728	338.65
686.137	366.73
686.546	369.07
686.954	371.41
687.363	333.97
687.771	296.52
688.179	348.01
688.588	287.15
688.996	303.54
689.404	280.13
689.812	331.62
690.22	333.97
690.628	326.94
691.036	357.37
691.444	397.16
691.852	333.97
692.26	317.58
692.667	331.62
693.075	343.33
693.483	329.28
693.89	298.86
694.298	355.03
694.705	404.18
695.112	336.31
695.52	296.52
695.927	322.26
696.334	303.54
696.741	254.39
697.148	284.81
697.555	270.77
697.962	338.65
698.369	348.01
698.776	319.92
699.183	282.47
699.59	308.22
699.996	343.33
700.403	338.65
700.81	315.24
701.216	319.92
701.623	308.22
702.029	298.86
702.435	291.84
702.842	312.9
703.248	296.52
703.654	308.22
704.06	308.22
704.466	343.33
704.872	343.33
705.278	350.35
705.684	322.26
706.09	308.22
706.496	369.07
706.901	392.48
707.307	277.79
707.712	338.65
708.118	345.67
708.523	394.82
708.929	284.81
709.334	336.31
709.74	352.69
710.145	359.71
710.55	338.65
710.955	315.24
711.36	392.48
711.765	340.99
712.17	324.6
712.575	338.65
712.98	912.08
713.385	392.48
713.789	343.33
714.194	369.07
714.599	310.56
715.003	333.97
715.408	345.67
715.812	303.54
716.217	352.69
716.621	380.78
717.025	308.22
717.429	340.99
717.833	305.88
718.238	355.03
718.642	350.35
719.046	308.22
719.449	235.66
719.853	336.31
720.257	284.81
720.661	277.79
721.065	298.86
721.468	319.92
721.872	261.41
722.275	315.24
722.679	275.45
723.082	261.41
723.485	282.47
723.889	308.22
724.292	359.71
724.695	315.24
725.098	270.77
725.501	249.71
725.904	340.99
726.307	329.28
726.71	289.5
727.113	317.58
727.516	298.86
727.918	362.05
728.321	273.11
728.724	312.9
729.126	312.9
729.529	322.26
729.931	336.31
730.333	315.24
730.736	259.07
731.138	333.97
731.54	324.6
731.942	280.13
732.344	312.9
732.746	322.26
733.148	331.62
733.55	303.54
733.952	298.86
734.354	263.75
734.756	357.37
735.157	282.47
735.559	259.07
735.96	275.45
736.362	338.65
736.763	333.97
737.165	301.2
737.566	247.37
737.967	357.37
738.368	343.33
738.77	275.45
739.171	348.01
739.572	245.02
739.973	315.24
740.374	317.58
740.774	287.15
741.175	329.28
741.576	319.92
741.977	322.26
742.377	280.13
742.778	275.45
743.178	333.97
743.579	343.33
743.979	245.02
744.379	350.35
744.78	287.15
745.18	270.77
745.58	270.77
745.98	287.15
746.38	287.15
746.78	331.62
747.18	312.9
747.58	317.58
747.98	233.32
748.38	266.09
748.779	282.47
749.179	291.84
749.578	312.9
749.978	247.37
750.377	291.84
750.777	357.37
751.176	319.92
751.575	333.97
751.975	319.92
752.374	305.88
752.773	277.79
753.172	319.92
753.571	298.86
753.97	376.09
754.369	350.35
754.768	261.41
755.166	287.15
755.565	359.71
755.964	245.02
756.362	343.33
756.761	284.81
757.159	261.41
757.558	329.28
757.956	376.09
758.354	345.67
758.753	287.15
759.151	355.03
759.549	315.24
759.947	240.34
760.345	312.9
760.743	280.13
761.141	284.81
761.539	280.13
761.936	298.86
762.334	277.79
762.732	340.99
763.129	240.34
763.527	326.94
763.924	303.54
764.322	270.77
764.719	348.01
765.117	308.22
765.514	326.94
765.911	273.11
766.308	322.26
766.705	287.15
767.102	317.58
767.499	359.71
767.896	263.75
768.293	324.6
768.69	345.67
769.086	256.73
769.483	324.6
769.88	329.28
770.276	369.07
770.673	373.75
771.069	310.56
771.466	294.18
771.862	259.07
772.258	268.43
772.654	298.86
773.05	259.07
773.447	338.65
773.843	322.26
774.239	355.03
774.634	261.41
775.03	322.26
775.426	324.6
775.822	385.46
776.218	298.86
776.613	350.35
777.009	380.78
777.404	284.81
777.8	296.52
778.195	345.67
778.59	310.56
778.986	336.31
779.381	296.52
779.776	261.41
780.171	298.86
780.566	305.88
780.961	294.18
781.356	331.62
781.751	420.57
782.146	275.45
782.54	415.88
782.935	371.41
783.33	291.84
783.724	326.94
784.119	352.69
784.513	282.47
784.908	322.26
785.302	310.56
785.696	312.9
786.09	378.44
786.485	357.37
786.879	296.52
787.273	352.69
787.667	333.97
788.061	305.88
788.454	273.11
788.848	336.31
789.242	308.22
789.636	303.54
790.029	387.8
790.423	362.05
790.816	345.67
791.21	317.58
791.603	249.71
791.997	277.79
792.39	238
792.783	252.05
793.176	317.58
793.569	256.73
793.962	284.81
794.355	277.79
794.748	289.5
795.141	308.22
795.534	282.47
795.927	338.65
796.319	284.81
796.712	364.39
797.105	266.09
797.497	296.52
797.89	268.43
798.282	343.33
798.674	303.54
799.067	296.52
799.459	331.62
799.851	284.81
800.243	308.22
800.635	305.88
801.027	303.54
801.419	324.6
801.811	305.88
802.203	195.87
802.594	322.26
802.986	259.07
803.378	275.45
803.769	369.07
804.161	228.64
804.552	291.84
804.944	266.09
805.335	329.28
805.726	333.97
806.118	338.65
806.509	343.33
806.9	338.65
807.291	357.37
807.682	280.13
808.073	282.47
808.464	308.22
808.855	343.33
809.245	376.09
809.636	326.94
810.027	324.6
810.417	317.58
810.808	284.81
811.198	357.37
811.589	326.94
811.979	294.18
812.369	308.22
812.759	273.11
813.15	268.43
813.54	308.22
813.93	315.24
814.32	266.09
814.71	305.88
815.1	294.18
815.489	369.07
815.879	345.67
816.269	287.15
816.658	298.86
817.048	319.92
817.438	305.88
817.827	298.86
818.216	280.13
818.606	308.22
818.995	329.28
819.384	322.26
819.773	284.81
820.163	326.94
820.552	289.5
820.941	319.92
821.33	348.01
821.718	301.2
822.107	270.77
822.496	303.54
822.885	319.92
823.273	305.88
823.662	291.84
824.05	289.5
824.439	324.6
824.827	338.65
825.216	284.81
825.604	263.75
825.992	261.41
826.38	326.94
826.768	338.65
827.156	324.6
827.544	273.11
827.932	312.9
828.32	322.26
828.708	245.02
829.096	303.54
829.483	296.52
829.871	282.47
830.259	319.92
830.646	329.28
831.034	277.79
831.421	298.86
831.808	287.15
832.196	249.71
832.583	301.2
832.97	355.03
833.357	345.67
833.744	340.99
834.131	331.62
834.518	291.84
834.905	266.09
835.292	223.96
835.678	352.69
836.065	394.82
836.452	277.79
836.838	273.11
837.225	252.05
837.611	298.86
837.998	348.01
838.384	308.22
838.77	287.15
839.157	284.81
839.543	312.9
839.929	245.02
840.315	275.45
840.701	308.22
841.087	301.2
841.473	259.07
841.858	259.07
842.244	315.24
842.63	312.9
843.015	226.3
843.401	654.62
843.787	331.62
844.172	397.16
844.557	230.98
844.943	324.6
845.328	322.26
845.713	263.75
846.098	296.52
846.483	289.5
846.868	317.58
847.253	259.07
847.638	296.52
848.023	340.99
848.408	303.54
848.793	392.48
849.177	284.81
849.562	355.03
849.947	282.47
850.331	315.24
850.715	256.73
851.1	310.56
851.484	284.81
851.868	324.6
852.253	336.31
852.637	324.6
853.021	296.52
853.405	329.28
853.789	289.5
854.173	359.71
854.557	308.22
854.94	284.81
855.324	301.2
855.708	298.86
856.091	287.15
856.475	322.26
856.858	310.56
857.242	362.05
857.625	308.22
858.009	312.9
858.392	338.65
858.775	329.28
859.158	312.9
859.541	326.94
859.924	291.84
860.307	245.02
860.69	291.84
861.073	348.01
861.456	336.31
861.838	385.46
862.221	315.24
862.604	291.84
862.986	338.65
863.369	359.71
863.751	315.24
864.133	298.86
864.516	376.09
864.898	296.52
865.28	329.28
865.662	308.22
866.044	359.71
866.426	315.24
866.808	275.45
867.19	216.94
867.572	317.58
867.954	310.56
868.336	289.5
868.717	333.97
869.099	282.47
869.48	326.94
869.862	273.11
870.243	298.86
870.625	322.26
871.006	245.02
871.387	336.31
871.768	338.65
872.149	294.18
872.53	291.84
872.911	277.79
873.292	298.86
873.673	329.28
874.054	301.2
874.435	310.56
874.815	340.99
875.196	369.07
875.577	315.24
875.957	249.71
876.338	333.97
876.718	273.11
877.098	315.24
877.479	261.41
877.859	242.68
878.239	294.18
878.619	348.01
878.999	350.35
879.379	308.22
879.759	308.22
880.139	352.69
880.519	390.14
880.898	254.39
881.278	284.81
881.658	350.35
882.037	355.03
882.417	312.9
882.796	348.01
883.176	287.15
883.555	324.6
883.934	303.54
884.313	376.09
884.693	319.92
885.072	284.81
885.451	364.39
885.83	371.41
886.209	357.37
886.587	310.56
886.966	310.56
887.345	303.54
887.724	275.45
888.102	348.01
888.481	319.92
888.859	343.33
889.238	329.28
889.616	263.75
889.994	263.75
890.373	263.75
890.751	317.58
891.129	305.88
891.507	240.34
891.885	273.11
892.263	305.88
892.641	294.18
893.019	322.26
893.396	355.03
893.774	301.2
894.152	266.09
894.529	296.52
894.907	348.01
895.284	303.54
895.662	259.07
896.039	362.05
896.416	345.67
896.794	296.52
897.171	301.2
897.548	298.86
897.925	289.5
898.302	340.99
898.679	345.67
899.056	198.21
899.433	359.71
899.809	322.26
900.186	273.11
900.563	326.94
900.939	376.09
901.316	305.88
901.692	287.15
902.069	371.41
902.445	345.67
902.821	380.78
903.197	317.58
903.574	317.58
903.95	289.5
904.326	387.8
904.702	294.18
905.078	364.39
905.454	294.18
905.829	345.67
906.205	296.52
906.581	333.97
906.956	308.22
907.332	329.28
907.707	308.22
908.083	322.26
908.458	336.31
908.833	350.35
909.209	315.24
909.584	266.09
909.959	343.33
910.334	247.37
910.709	296.52
911.084	326.94
911.459	315.24
911.834	308.22
912.209	259.07
912.583	350.35
912.958	294.18
913.333	355.03
913.707	317.58
914.082	397.16
914.456	305.88
914.83	291.84
915.205	308.22
915.579	350.35
915.953	277.79
916.327	312.9
916.701	254.39
917.075	294.18
917.449	310.56
917.823	312.9
918.197	319.92
918.571	254.39
918.944	263.75
919.318	268.43
919.692	310.56
920.065	352.69
920.438	212.26
920.812	310.56
921.185	294.18
921.558	287.15
921.932	350.35
922.305	298.86
922.678	333.97
923.051	254.39
923.424	266.09
923.797	366.73
924.17	275.45
924.542	284.81
924.915	305.88
925.288	338.65
925.661	268.43
926.033	287.15
926.406	343.33
926.778	317.58
927.15	249.71
927.523	340.99
927.895	336.31
928.267	369.07
928.639	326.94
929.011	373.75
929.383	310.56
929.755	336.31
930.127	296.52
930.499	312.9
930.871	280.13
931.242	333.97
931.614	294.18
931.986	303.54
932.357	324.6
932.729	261.41
933.1	350.35
933.471	287.15
933.843	357.37
934.214	261.41
934.585	266.09
934.956	249.71
935.327	308.22
935.698	366.73
936.069	355.03
936.44	273.11
936.811	331.62
937.182	298.86
937.552	277.79
937.923	261.41
938.293	296.52
938.664	315.24
939.034	364.39
939.405	270.77
939.775	308.22
940.145	303.54
940.516	317.58
940.886	312.9
941.256	336.31
941.626	308.22
941.996	338.65
942.366	294.18
942.735	291.84
943.105	256.73
943.475	326.94
943.845	333.97
944.214	399.5
944.584	310.56
944.953	305.88
945.323	336.31
945.692	284.81
946.061	331.62
946.43	296.52
946.8	317.58
947.169	326.94
947.538	305.88
947.907	277.79
948.276	322.26
948.645	242.68
949.013	284.81
949.382	247.37
949.751	326.94
950.119	249.71
950.488	266.09
950.857	338.65
951.225	240.34
951.593	312.9
951.962	247.37
952.33	329.28
952.698	301.2
953.066	280.13
953.434	277.79
953.802	287.15
954.17	319.92
954.538	324.6
954.906	275.45
955.274	294.18
955.642	383.12
956.009	380.78
956.377	340.99
956.744	324.6
957.112	310.56
957.479	289.5
957.847	355.03
958.214	310.56
958.581	392.48
958.948	263.75
959.315	242.68
959.683	308.22
960.05	333.97
960.416	312.9
960.783	277.79
961.15	350.35
961.517	322.26
961.884	275.45
962.25	338.65
962.617	289.5
962.983	273.11
963.35	315.24
963.716	315.24
964.082	310.56
964.449	270.77
964.815	249.71
965.181	247.37
965.547	312.9
965.913	277.79
966.279	261.41
966.645	289.5
967.011	263.75
967.377	245.02
967.742	270.77
968.108	322.26
968.474	256.73
968.839	305.88
969.205	291.84
969.57	233.32
969.935	338.65
970.301	343.33
970.666	340.99
971.031	287.15
971.396	350.35
971.761	333.97
972.126	308.22
972.491	324.6
972.856	280.13
973.221	305.88
973.586	350.35
973.95	326.94
974.315	312.9
974.679	275.45
975.044	340.99
975.408	254.39
975.773	308.22
976.137	268.43
976.501	352.69
976.866	240.34
977.23	343.33
977.594	312.9
977.958	303.54
978.322	350.35
978.686	312.9
979.049	303.54
979.413	301.2
979.777	366.73
980.141	305.88
980.504	319.92
980.868	324.6
981.231	249.71
981.595	273.11
981.958	308.22
982.321	301.2
982.684	336.31
983.048	340.99
983.411	268.43
983.774	331.62
984.137	263.75
984.5	359.71
984.862	296.52
985.225	326.94
985.588	291.84
985.951	291.84
986.313	385.46
986.676	326.94
987.038	308.22
987.401	324.6
987.763	287.15
988.125	263.75
988.488	252.05
988.85	275.45
989.212	280.13
989.574	280.13
989.936	343.33
990.298	275.45
990.66	376.09
991.022	275.45
991.383	266.09
991.745	284.81
992.107	277.79
992.468	310.56
992.83	170.13
993.191	348.01
993.553	296.52
993.914	340.99
994.275	282.47
994.637	348.01
994.998	254.39
995.359	247.37
995.72	324.6
996.081	310.56
996.442	315.24
996.803	376.09
997.163	348.01
997.524	364.39
997.885	338.65
998.245	303.54
998.606	329.28
998.966	310.56
999.327	252.05
999.687	249.71
1000.047	282.47
1000.408	296.52
1000.768	240.34
1001.128	331.62
1001.488	294.18
1001.848	296.52
1002.208	317.58
1002.568	322.26
1002.927	315.24
1003.287	240.34
1003.647	312.9
1004.007	317.58
1004.366	301.2
1004.726	331.62
1005.085	308.22
1005.444	324.6
1005.804	298.86
1006.163	296.52
1006.522	263.75
1006.881	280.13
1007.24	331.62
1007.599	284.81
1007.958	336.31
1008.317	259.07
1008.676	326.94
1009.035	315.24
1009.393	329.28
1009.752	289.5
1010.111	350.35
1010.469	270.77
1010.828	233.32
1011.186	315.24
1011.544	355.03
1011.903	315.24
1012.261	322.26
1012.619	280.13
1012.977	298.86
1013.335	369.07
1013.693	312.9
1014.051	287.15
1014.409	294.18
1014.767	326.94
1015.124	329.28
1015.482	268.43
1015.84	252.05
1016.197	310.56
1016.555	359.71
1016.912	296.52
1017.269	387.8
1017.627	345.67
1017.984	282.47
1018.341	245.02
1018.698	280.13
1019.055	319.92
1019.412	289.5
1019.769	315.24
1020.126	357.37
1020.483	326.94
1020.84	249.71
1021.196	298.86
1021.553	350.35
1021.909	240.34
1022.266	392.48
1022.622	350.35
1022.979	387.8
1023.335	366.73
1023.691	317.58
1024.047	364.39
1024.404	301.2
1024.76	362.05
1025.116	277.79
1025.472	284.81
1025.827	359.71
1026.183	333.97
1026.539	317.58
1026.895	345.67
1027.25	273.11
1027.606	343.33
1027.961	289.5
1028.317	289.5
1028.672	261.41
1029.028	338.65
1029.383	322.26
1029.738	326.94
1030.093	308.22
1030.448	336.31
1030.803	263.75
1031.158	254.39
1031.513	284.81
1031.868	275.45
1032.223	289.5
1032.577	343.33
1032.932	268.43
1033.287	324.6
1033.641	282.47
1033.996	261.41
1034.35	284.81
1034.704	284.81
1035.059	322.26
1035.413	352.69
1035.767	352.69
1036.121	352.69
