Data from Al_FLMS009871__127__11-53-25-488.txt Node

Date: Fri Mar 08 11:53:25 CST 2024
User: pe5414po
Spectrometer: FLMS00987
Trigger mode: 0
Integration Time (sec): 1.000000E-1
Scans to average: 1
Electric dark correction enabled: true
Nonlinearity correction enabled: false
Boxcar width: 0
XAxis mode: Wavelengths
Number of Pixels in Spectrum: 2048
>>>>>Begin Spectral Data<<<<<
188.938	13.6
189.409	13.6
189.879	13.6
190.349	-65.97
190.819	-108.1
191.29	-61.29
191.76	-108.1
192.23	-103.42
192.7	-82.36
193.17	-112.78
193.64	-61.29
194.109	-61.29
194.579	6.58
195.049	-0.44
195.519	34.67
195.988	37.01
196.458	55.73
196.927	104.89
197.397	81.48
197.866	147.01
198.336	123.61
198.805	165.74
199.274	97.86
199.744	179.78
200.213	235.96
200.682	158.72
201.151	189.14
201.62	219.57
202.089	158.72
202.558	252.34
203.027	226.59
203.495	242.98
203.964	242.98
204.433	245.32
204.902	254.68
205.37	271.06
205.839	278.08
206.307	310.85
206.776	303.83
207.244	252.34
207.712	357.66
208.181	264.04
208.649	331.92
209.117	275.74
209.585	268.72
210.053	331.92
210.521	233.61
210.989	308.51
211.457	294.47
211.925	273.4
212.393	275.74
212.861	184.46
213.328	292.13
213.796	303.83
214.264	257.02
214.731	294.47
215.199	250
215.666	303.83
216.133	299.15
216.601	285.11
217.068	261.7
217.535	217.23
218.003	275.74
218.47	292.13
218.937	252.34
219.404	301.49
219.871	317.87
220.338	228.93
220.805	261.7
221.271	264.04
221.738	303.83
222.205	250
222.671	242.98
223.138	240.64
223.605	257.02
224.071	257.02
224.538	268.72
225.004	217.23
225.47	203.19
225.937	219.57
226.403	252.34
226.869	203.19
227.335	242.98
227.801	240.64
228.267	275.74
228.733	231.27
229.199	315.53
229.665	245.32
230.131	250
230.597	261.7
231.062	203.19
231.528	212.55
231.994	294.47
232.459	292.13
232.925	221.91
233.39	231.27
233.856	315.53
234.321	242.98
234.786	294.47
235.252	301.49
235.717	221.91
236.182	268.72
236.647	287.45
237.112	219.57
237.577	271.06
238.042	292.13
238.507	221.91
238.972	235.96
239.436	266.38
239.901	226.59
240.366	313.19
240.83	264.04
241.295	336.6
241.76	322.56
242.224	280.43
242.688	242.98
243.153	247.66
243.617	287.45
244.081	242.98
244.545	329.58
245.01	240.64
245.474	299.15
245.938	282.77
246.402	287.45
246.866	336.6
247.33	259.36
247.793	292.13
248.257	280.43
248.721	221.91
249.185	240.64
249.648	235.96
250.112	224.25
250.575	301.49
251.039	235.96
251.502	306.17
251.965	247.66
252.429	240.64
252.892	219.57
253.355	266.38
253.818	310.85
254.281	228.93
254.744	282.77
255.207	219.57
255.67	331.92
256.133	285.11
256.596	275.74
257.059	238.3
257.522	242.98
257.984	271.06
258.447	294.47
258.909	294.47
259.372	289.79
259.834	221.91
260.297	245.32
260.759	355.32
261.221	303.83
261.684	254.68
262.146	301.49
262.608	299.15
263.07	278.08
263.532	275.74
263.994	299.15
264.456	275.74
264.918	245.32
265.38	273.4
265.842	275.74
266.303	292.13
266.765	238.3
267.227	247.66
267.688	261.7
268.15	271.06
268.611	303.83
269.072	261.7
269.534	285.11
269.995	278.08
270.456	245.32
270.918	285.11
271.379	287.45
271.84	257.02
272.301	259.36
272.762	242.98
273.223	327.24
273.684	348.3
274.144	266.38
274.605	240.64
275.066	254.68
275.527	287.45
275.987	228.93
276.448	247.66
276.908	348.3
277.369	257.02
277.829	306.17
278.289	289.79
278.75	303.83
279.21	257.02
279.67	252.34
280.13	306.17
280.59	268.72
281.05	275.74
281.51	210.21
281.97	329.58
282.43	362.34
282.89	282.77
283.35	289.79
283.809	205.53
284.269	327.24
284.729	273.4
285.188	275.74
285.648	278.08
286.107	296.81
286.567	235.96
287.026	299.15
287.485	350.64
287.944	296.81
288.404	306.17
288.863	228.93
289.322	343.62
289.781	294.47
290.24	287.45
290.699	268.72
291.158	271.06
291.616	221.91
292.075	261.7
292.534	306.17
292.992	273.4
293.451	250
293.91	264.04
294.368	268.72
294.827	315.53
295.285	289.79
295.743	273.4
296.202	336.6
296.66	273.4
297.118	245.32
297.576	250
298.034	317.87
298.492	292.13
298.95	294.47
299.408	322.56
299.866	231.27
300.324	221.91
300.781	350.64
301.239	308.51
301.697	303.83
302.154	273.4
302.612	338.94
303.069	261.7
303.527	301.49
303.984	252.34
304.441	299.15
304.899	341.28
305.356	334.26
305.813	196.17
306.27	320.21
306.727	315.53
307.184	266.38
307.641	329.58
308.098	278.08
308.555	266.38
309.012	287.45
309.468	289.79
309.925	327.24
310.382	352.98
310.838	322.56
311.295	235.96
311.751	296.81
312.208	282.77
312.664	296.81
313.12	261.7
313.577	266.38
314.033	287.45
314.489	360
314.945	348.3
315.401	292.13
315.857	303.83
316.313	264.04
316.769	266.38
317.225	289.79
317.681	238.3
318.136	322.56
318.592	331.92
319.048	280.43
319.503	301.49
319.959	299.15
320.414	360
320.869	374.05
321.325	278.08
321.78	303.83
322.235	301.49
322.691	327.24
323.146	329.58
323.601	329.58
324.056	285.11
324.511	299.15
324.966	292.13
325.421	271.06
325.875	294.47
326.33	257.02
326.785	273.4
327.24	317.87
327.694	282.77
328.149	275.74
328.603	252.34
329.058	308.51
329.512	301.49
329.966	345.96
330.421	317.87
330.875	306.17
331.329	338.94
331.783	266.38
332.237	240.64
332.691	273.4
333.145	301.49
333.599	303.83
334.053	299.15
334.507	362.34
334.96	350.64
335.414	280.43
335.868	233.61
336.321	254.68
336.775	315.53
337.228	299.15
337.682	320.21
338.135	273.4
338.588	294.47
339.042	268.72
339.495	320.21
339.948	294.47
340.401	369.37
340.854	317.87
341.307	175.1
341.76	308.51
342.213	275.74
342.666	247.66
343.119	301.49
343.571	212.55
344.024	259.36
344.477	299.15
344.929	331.92
345.382	331.92
345.834	264.04
346.287	329.58
346.739	329.58
347.191	294.47
347.644	294.47
348.096	289.79
348.548	317.87
349	280.43
349.452	266.38
349.904	313.19
350.356	278.08
350.808	268.72
351.26	315.53
351.711	308.51
352.163	308.51
352.615	278.08
353.066	352.98
353.518	278.08
353.969	343.62
354.421	306.17
354.872	315.53
355.324	343.62
355.775	268.72
356.226	273.4
356.677	338.94
357.128	273.4
357.579	376.39
358.03	324.9
358.481	242.98
358.932	317.87
359.383	355.32
359.834	336.6
360.285	254.68
360.735	259.36
361.186	231.27
361.637	273.4
362.087	254.68
362.538	341.28
362.988	338.94
363.438	310.85
363.889	247.66
364.339	303.83
364.789	360
365.239	228.93
365.689	331.92
366.139	364.68
366.589	233.61
367.039	308.51
367.489	294.47
367.939	242.98
368.389	250
368.839	212.55
369.288	310.85
369.738	247.66
370.187	259.36
370.637	235.96
371.086	301.49
371.536	313.19
371.985	299.15
372.434	315.53
372.884	285.11
373.333	257.02
373.782	275.74
374.231	329.58
374.68	320.21
375.129	378.73
375.578	303.83
376.027	364.68
376.475	336.6
376.924	374.05
377.373	317.87
377.822	247.66
378.27	320.21
378.719	315.53
379.167	287.45
379.616	334.26
380.064	369.37
380.512	275.74
380.961	329.58
381.409	334.26
381.857	296.81
382.305	327.24
382.753	313.19
383.201	261.7
383.649	306.17
384.097	245.32
384.545	338.94
384.992	313.19
385.44	273.4
385.888	259.36
386.335	411.5
386.783	374.05
387.231	257.02
387.678	299.15
388.125	296.81
388.573	282.77
389.02	296.81
389.467	364.68
389.914	315.53
390.362	381.07
390.809	308.51
391.256	259.36
391.703	268.72
392.15	343.62
392.596	278.08
393.043	329.58
393.49	301.49
393.937	348.3
394.383	287.45
394.83	250
395.276	322.56
395.723	299.15
396.169	289.79
396.616	315.53
397.062	231.27
397.508	257.02
397.954	264.04
398.401	310.85
398.847	254.68
399.293	264.04
399.739	261.7
400.185	322.56
400.631	266.38
401.076	322.56
401.522	303.83
401.968	292.13
402.414	303.83
402.859	336.6
403.305	327.24
403.75	355.32
404.196	374.05
404.641	289.79
405.086	301.49
405.532	282.77
405.977	320.21
406.422	306.17
406.867	329.58
407.312	289.79
407.757	280.43
408.202	345.96
408.647	348.3
409.092	285.11
409.537	278.08
409.982	320.21
410.426	329.58
410.871	345.96
411.316	341.28
411.76	292.13
412.205	331.92
412.649	308.51
413.093	324.9
413.538	289.79
413.982	341.28
414.426	350.64
414.87	381.07
415.314	306.17
415.758	418.52
416.202	308.51
416.646	331.92
417.09	306.17
417.534	310.85
417.978	352.98
418.421	371.71
418.865	327.24
419.309	273.4
419.752	388.09
420.196	273.4
420.639	310.85
421.083	320.21
421.526	313.19
421.969	327.24
422.412	327.24
422.856	327.24
423.299	327.24
423.742	364.68
424.185	278.08
424.628	376.39
425.071	343.62
425.513	352.98
425.956	329.58
426.399	287.45
426.842	397.45
427.284	324.9
427.727	343.62
428.169	331.92
428.612	287.45
429.054	336.6
429.497	409.15
429.939	315.53
430.381	369.37
430.823	348.3
431.265	367.03
431.707	371.71
432.149	390.43
432.591	439.58
433.033	341.28
433.475	388.09
433.917	329.58
434.359	418.52
434.8	488.73
435.242	509.8
435.684	519.16
436.125	509.8
436.567	455.97
437.008	355.32
437.449	388.09
437.891	481.71
438.332	369.37
438.773	432.56
439.214	399.79
439.656	369.37
440.097	420.86
440.538	495.75
440.978	374.05
441.419	399.79
441.86	523.84
442.301	493.41
442.742	409.15
443.182	455.97
443.623	437.24
444.063	455.97
444.504	441.92
444.944	432.56
445.385	427.88
445.825	498.1
446.265	502.78
446.706	523.84
447.146	491.07
447.586	446.6
448.026	430.22
448.466	460.65
448.906	455.97
449.346	378.73
449.786	446.6
450.225	488.73
450.665	458.31
451.105	460.65
451.544	434.9
451.984	516.82
452.424	444.26
452.863	441.92
453.302	434.9
453.742	406.81
454.181	411.5
454.62	411.5
455.059	425.54
455.499	406.81
455.938	364.68
456.377	395.11
456.816	413.84
457.254	360
457.693	406.81
458.132	395.11
458.571	369.37
459.01	430.22
459.448	420.86
459.887	411.5
460.325	392.77
460.764	392.77
461.202	385.75
461.641	381.07
462.079	357.66
462.517	320.21
462.955	376.39
463.393	350.64
463.832	399.79
464.27	345.96
464.708	341.28
465.145	364.68
465.583	369.37
466.021	282.77
466.459	451.28
466.897	467.67
467.334	376.39
467.772	397.45
468.209	397.45
468.647	392.77
469.084	362.34
469.522	364.68
469.959	350.64
470.396	406.81
470.833	381.07
471.271	413.84
471.708	399.79
472.145	378.73
472.582	420.86
473.019	441.92
473.456	355.32
473.892	371.71
474.329	369.37
474.766	338.94
475.202	383.41
475.639	348.3
476.076	399.79
476.512	327.24
476.949	378.73
477.385	376.39
477.821	402.13
478.258	343.62
478.694	278.08
479.13	364.68
479.566	402.13
480.002	390.43
480.438	376.39
480.874	367.03
481.31	315.53
481.746	362.34
482.181	381.07
482.617	364.68
483.053	345.96
483.488	395.11
483.924	357.66
484.36	409.15
484.795	441.92
485.23	395.11
485.666	383.41
486.101	434.9
486.536	385.75
486.971	430.22
487.407	350.64
487.842	352.98
488.277	439.58
488.712	434.9
489.146	395.11
489.581	397.45
490.016	418.52
490.451	437.24
490.885	425.54
491.32	420.86
491.755	392.77
492.189	338.94
492.624	367.03
493.058	458.31
493.492	390.43
493.927	367.03
494.361	425.54
494.795	322.56
495.229	385.75
495.663	357.66
496.097	341.28
496.531	378.73
496.965	425.54
497.399	383.41
497.833	397.45
498.266	369.37
498.7	411.5
499.134	392.77
499.567	437.24
500.001	458.31
500.434	350.64
500.868	348.3
501.301	357.66
501.734	385.75
502.168	334.26
502.601	406.81
503.034	345.96
503.467	388.09
503.9	355.32
504.333	418.52
504.766	416.18
505.199	441.92
505.632	360
506.064	404.47
506.497	451.28
506.93	364.68
507.362	397.45
507.795	369.37
508.227	350.64
508.66	439.58
509.092	418.52
509.524	397.45
509.956	374.05
510.389	345.96
510.821	399.79
511.253	395.11
511.685	374.05
512.117	385.75
512.549	381.07
512.981	409.15
513.412	392.77
513.844	357.66
514.276	378.73
514.707	362.34
515.139	418.52
515.571	367.03
516.002	388.09
516.433	374.05
516.865	404.47
517.296	348.3
517.727	308.51
518.159	439.58
518.59	371.71
519.021	378.73
519.452	388.09
519.883	376.39
520.314	371.71
520.744	390.43
521.175	388.09
521.606	448.94
522.037	327.24
522.467	423.2
522.898	315.53
523.328	345.96
523.759	455.97
524.189	404.47
524.62	383.41
525.05	413.84
525.48	399.79
525.91	451.28
526.341	462.99
526.771	385.75
527.201	397.45
527.631	390.43
528.061	402.13
528.49	364.68
528.92	364.68
529.35	430.22
529.78	352.98
530.209	418.52
530.639	338.94
531.068	423.2
531.498	329.58
531.927	432.56
532.357	432.56
532.786	388.09
533.215	458.31
533.644	392.77
534.074	397.45
534.503	402.13
534.932	402.13
535.361	437.24
535.79	320.21
536.218	383.41
536.647	441.92
537.076	427.88
537.505	381.07
537.933	448.94
538.362	479.37
538.79	481.71
539.219	451.28
539.647	479.37
540.076	437.24
540.504	495.75
540.932	570.65
541.36	612.78
541.788	603.42
542.217	704.06
542.645	605.76
543.073	746.19
543.5	753.21
543.928	687.68
544.356	678.32
544.784	746.19
545.211	811.73
545.639	734.49
546.067	598.74
546.494	551.93
546.922	657.25
547.349	587.04
547.776	551.93
548.204	568.31
548.631	530.86
549.058	453.63
549.485	409.15
549.912	474.69
550.339	512.14
550.766	418.52
551.193	458.31
551.62	493.41
552.047	427.88
552.474	446.6
552.9	441.92
553.327	493.41
553.754	465.33
554.18	371.71
554.607	427.88
555.033	472.35
555.459	348.3
555.886	329.58
556.312	385.75
556.738	348.3
557.164	388.09
557.59	402.13
558.016	434.9
558.442	355.32
558.868	331.92
559.294	406.81
559.72	381.07
560.145	350.64
560.571	367.03
560.997	350.64
561.422	378.73
561.848	367.03
562.273	411.5
562.699	378.73
563.124	444.26
563.549	364.68
563.974	397.45
564.4	362.34
564.825	355.32
565.25	317.87
565.675	451.28
566.1	388.09
566.525	357.66
566.95	409.15
567.374	404.47
567.799	374.05
568.224	364.68
568.648	350.64
569.073	376.39
569.497	378.73
569.922	385.75
570.346	390.43
570.771	369.37
571.195	350.64
571.619	392.77
572.043	416.18
572.467	413.84
572.891	425.54
573.315	388.09
573.739	399.79
574.163	388.09
574.587	411.5
575.011	383.41
575.435	458.31
575.858	437.24
576.282	374.05
576.705	376.39
577.129	418.52
577.552	385.75
577.976	395.11
578.399	437.24
578.822	420.86
579.245	413.84
579.669	430.22
580.092	462.99
580.515	451.28
580.938	423.2
581.361	406.81
581.784	451.28
582.206	458.31
582.629	397.45
583.052	458.31
583.474	397.45
583.897	345.96
584.32	413.84
584.742	458.31
585.165	385.75
585.587	500.44
586.009	418.52
586.431	472.35
586.854	446.6
587.276	481.71
587.698	462.99
588.12	484.05
588.542	434.9
588.964	441.92
589.386	383.41
589.807	406.81
590.229	399.79
590.651	378.73
591.073	406.81
591.494	474.69
591.916	360
592.337	409.15
592.759	402.13
593.18	280.43
593.601	296.81
594.022	383.41
594.444	352.98
594.865	385.75
595.286	432.56
595.707	348.3
596.128	371.71
596.549	287.45
596.97	406.81
597.39	341.28
597.811	406.81
598.232	413.84
598.652	338.94
599.073	341.28
599.494	355.32
599.914	420.86
600.334	425.54
600.755	369.37
601.175	369.37
601.595	409.15
602.015	264.04
602.436	374.05
602.856	500.44
603.276	388.09
603.696	376.39
604.115	336.6
604.535	371.71
604.955	364.68
605.375	392.77
605.794	402.13
606.214	367.03
606.634	427.88
607.053	418.52
607.473	385.75
607.892	441.92
608.311	434.9
608.731	446.6
609.15	446.6
609.569	537.88
609.988	654.91
610.407	757.89
610.826	858.54
611.245	760.24
611.664	767.26
612.083	727.47
612.501	610.44
612.92	605.76
613.339	542.57
613.757	568.31
614.176	455.97
614.594	388.09
615.013	488.73
615.431	418.52
615.85	404.47
616.268	385.75
616.686	406.81
617.104	383.41
617.522	427.88
617.94	364.68
618.358	355.32
618.776	378.73
619.194	310.85
619.612	423.2
620.03	418.52
620.447	427.88
620.865	397.45
621.282	406.81
621.7	369.37
622.117	385.75
622.535	357.66
622.952	317.87
623.369	388.09
623.787	383.41
624.204	383.41
624.621	331.92
625.038	348.3
625.455	350.64
625.872	418.52
626.289	390.43
626.706	299.15
627.123	392.77
627.539	341.28
627.956	371.71
628.373	324.9
628.789	409.15
629.206	324.9
629.622	308.51
630.038	292.13
630.455	343.62
630.871	446.6
631.287	432.56
631.703	310.85
632.12	355.32
632.536	348.3
632.952	352.98
633.368	341.28
633.783	331.92
634.199	381.07
634.615	299.15
635.031	315.53
635.446	308.51
635.862	327.24
636.277	320.21
636.693	381.07
637.108	282.77
637.524	423.2
637.939	381.07
638.354	360
638.77	329.58
639.185	317.87
639.6	350.64
640.015	367.03
640.43	378.73
640.845	280.43
641.259	338.94
641.674	294.47
642.089	271.06
642.504	355.32
642.918	282.77
643.333	285.11
643.747	345.96
644.162	362.34
644.576	329.58
644.991	303.83
645.405	374.05
645.819	292.13
646.233	315.53
646.647	341.28
647.061	378.73
647.475	348.3
647.889	322.56
648.303	329.58
648.717	331.92
649.131	303.83
649.545	242.98
649.958	374.05
650.372	378.73
650.785	331.92
651.199	322.56
651.612	324.9
652.026	338.94
652.439	374.05
652.852	313.19
653.266	355.32
653.679	348.3
654.092	364.68
654.505	292.13
654.918	313.19
655.331	324.9
655.744	336.6
656.156	320.21
656.569	252.34
656.982	360
657.394	348.3
657.807	245.32
658.22	369.37
658.632	324.9
659.044	317.87
659.457	322.56
659.869	392.77
660.281	299.15
660.693	334.26
661.106	329.58
661.518	336.6
661.93	287.45
662.342	343.62
662.754	362.34
663.165	345.96
663.577	381.07
663.989	310.85
664.401	310.85
664.812	352.98
665.224	320.21
665.635	348.3
666.047	364.68
666.458	285.11
666.869	306.17
667.281	341.28
667.692	327.24
668.103	315.53
668.514	285.11
668.925	310.85
669.336	266.38
669.747	315.53
670.158	287.45
670.569	434.9
670.979	360
671.39	411.5
671.801	245.32
672.211	338.94
672.622	341.28
673.032	336.6
673.443	362.34
673.853	294.47
674.263	313.19
674.674	350.64
675.084	320.21
675.494	357.66
675.904	299.15
676.314	336.6
676.724	289.79
677.134	266.38
677.544	294.47
677.953	324.9
678.363	315.53
678.773	343.62
679.182	345.96
679.592	341.28
680.001	334.26
680.411	282.77
680.82	273.4
681.23	310.85
681.639	345.96
682.048	334.26
682.457	336.6
682.866	331.92
683.275	345.96
683.684	324.9
684.093	292.13
684.502	264.04
684.911	289.79
685.32	315.53
685.728	259.36
686.137	374.05
686.546	317.87
686.954	338.94
687.363	278.08
687.771	352.98
688.179	292.13
688.588	362.34
688.996	341.28
689.404	268.72
689.812	376.39
690.22	317.87
690.628	343.62
691.036	355.32
691.444	287.45
691.852	336.6
692.26	226.59
692.667	301.49
693.075	254.68
693.483	343.62
693.89	292.13
694.298	327.24
694.705	327.24
695.112	378.73
695.52	301.49
695.927	317.87
696.334	376.39
696.741	264.04
697.148	285.11
697.555	285.11
697.962	296.81
698.369	289.79
698.776	261.7
699.183	299.15
699.59	285.11
699.996	306.17
700.403	329.58
700.81	310.85
701.216	287.45
701.623	327.24
702.029	306.17
702.435	345.96
702.842	247.66
703.248	306.17
703.654	338.94
704.06	254.68
704.466	278.08
704.872	266.38
705.278	338.94
705.684	350.64
706.09	336.6
706.496	320.21
706.901	355.32
707.307	355.32
707.712	317.87
708.118	367.03
708.523	392.77
708.929	357.66
709.334	315.53
709.74	320.21
710.145	313.19
710.55	296.81
710.955	317.87
711.36	376.39
711.765	317.87
712.17	350.64
712.575	343.62
712.98	872.58
713.385	341.28
713.789	282.77
714.194	294.47
714.599	296.81
715.003	327.24
715.408	322.56
715.812	317.87
716.217	322.56
716.621	352.98
717.025	250
717.429	294.47
717.833	287.45
718.238	242.98
718.642	362.34
719.046	348.3
719.449	341.28
719.853	334.26
720.257	301.49
720.661	282.77
721.065	317.87
721.468	299.15
721.872	334.26
722.275	228.93
722.679	271.06
723.082	282.77
723.485	381.07
723.889	296.81
724.292	294.47
724.695	273.4
725.098	317.87
725.501	278.08
725.904	301.49
726.307	303.83
726.71	285.11
727.113	292.13
727.516	259.36
727.918	327.24
728.321	327.24
728.724	257.02
729.126	313.19
729.529	329.58
729.931	273.4
730.333	315.53
730.736	242.98
731.138	308.51
731.54	275.74
731.942	355.32
732.344	306.17
732.746	235.96
733.148	320.21
733.55	364.68
733.952	273.4
734.354	362.34
734.756	285.11
735.157	252.34
735.559	334.26
735.96	331.92
736.362	250
736.763	308.51
737.165	343.62
737.566	268.72
737.967	317.87
738.368	352.98
738.77	282.77
739.171	268.72
739.572	306.17
739.973	287.45
740.374	334.26
740.774	303.83
741.175	310.85
741.576	254.68
741.977	352.98
742.377	301.49
742.778	285.11
743.178	289.79
743.579	308.51
743.979	371.71
744.379	341.28
744.78	303.83
745.18	357.66
745.58	329.58
745.98	268.72
746.38	285.11
746.78	275.74
747.18	285.11
747.58	271.06
747.98	292.13
748.38	294.47
748.779	308.51
749.179	257.02
749.578	296.81
749.978	308.51
750.377	317.87
750.777	287.45
751.176	350.64
751.575	282.77
751.975	329.58
752.374	287.45
752.773	334.26
753.172	345.96
753.571	242.98
753.97	308.51
754.369	338.94
754.768	268.72
755.166	310.85
755.565	338.94
755.964	259.36
756.362	317.87
756.761	357.66
757.159	266.38
757.558	313.19
757.956	367.03
758.354	362.34
758.753	313.19
759.151	336.6
759.549	322.56
759.947	299.15
760.345	334.26
760.743	308.51
761.141	334.26
761.539	327.24
761.936	296.81
762.334	292.13
762.732	376.39
763.129	306.17
763.527	273.4
763.924	334.26
764.322	275.74
764.719	322.56
765.117	306.17
765.514	303.83
765.911	324.9
766.308	242.98
766.705	313.19
767.102	287.45
767.499	303.83
767.896	324.9
768.293	278.08
768.69	308.51
769.086	310.85
769.483	252.34
769.88	329.58
770.276	310.85
770.673	292.13
771.069	336.6
771.466	296.81
771.862	350.64
772.258	341.28
772.654	308.51
773.05	324.9
773.447	254.68
773.843	303.83
774.239	303.83
774.634	324.9
775.03	320.21
775.426	331.92
775.822	275.74
776.218	327.24
776.613	334.26
777.009	303.83
777.404	299.15
777.8	308.51
778.195	264.04
778.59	259.36
778.986	313.19
779.381	315.53
779.776	324.9
780.171	374.05
780.566	310.85
780.961	252.34
781.356	254.68
781.751	306.17
782.146	254.68
782.54	271.06
782.935	296.81
783.33	252.34
783.724	320.21
784.119	360
784.513	268.72
784.908	287.45
785.302	343.62
785.696	275.74
786.09	294.47
786.485	310.85
786.879	273.4
787.273	348.3
787.667	299.15
788.061	252.34
788.454	303.83
788.848	280.43
789.242	299.15
789.636	254.68
790.029	296.81
790.423	261.7
790.816	324.9
791.21	343.62
791.603	369.37
791.997	334.26
792.39	315.53
792.783	278.08
793.176	264.04
793.569	271.06
793.962	296.81
794.355	268.72
794.748	259.36
795.141	308.51
795.534	282.77
795.927	301.49
796.319	315.53
796.712	287.45
797.105	329.58
797.497	331.92
797.89	313.19
798.282	376.39
798.674	273.4
799.067	350.64
799.459	308.51
799.851	285.11
800.243	336.6
800.635	350.64
801.027	285.11
801.419	324.9
801.811	308.51
802.203	310.85
802.594	266.38
802.986	336.6
803.378	254.68
803.769	329.58
804.161	261.7
804.552	299.15
804.944	310.85
805.335	308.51
805.726	350.64
806.118	324.9
806.509	278.08
806.9	322.56
807.291	329.58
807.682	313.19
808.073	221.91
808.464	226.59
808.855	327.24
809.245	308.51
809.636	341.28
810.027	357.66
810.417	336.6
810.808	282.77
811.198	324.9
811.589	331.92
811.979	294.47
812.369	273.4
812.759	275.74
813.15	324.9
813.54	294.47
813.93	275.74
814.32	252.34
814.71	289.79
815.1	292.13
815.489	247.66
815.879	308.51
816.269	212.55
816.658	315.53
817.048	266.38
817.438	280.43
817.827	301.49
818.216	320.21
818.606	352.98
818.995	210.21
819.384	320.21
819.773	336.6
820.163	289.79
820.552	338.94
820.941	317.87
821.33	257.02
821.718	334.26
822.107	254.68
822.496	322.56
822.885	226.59
823.273	280.43
823.662	310.85
824.05	271.06
824.439	266.38
824.827	345.96
825.216	343.62
825.604	327.24
825.992	338.94
826.38	336.6
826.768	282.77
827.156	348.3
827.544	320.21
827.932	303.83
828.32	282.77
828.708	345.96
829.096	294.47
829.483	322.56
829.871	317.87
830.259	299.15
830.646	287.45
831.034	285.11
831.421	299.15
831.808	287.45
832.196	301.49
832.583	343.62
832.97	345.96
833.357	343.62
833.744	348.3
834.131	317.87
834.518	315.53
834.905	282.77
835.292	315.53
835.678	350.64
836.065	315.53
836.452	338.94
836.838	350.64
837.225	296.81
837.611	360
837.998	292.13
838.384	266.38
838.77	271.06
839.157	287.45
839.543	261.7
839.929	228.93
840.315	322.56
840.701	282.77
841.087	292.13
841.473	320.21
841.858	289.79
842.244	355.32
842.63	313.19
843.015	275.74
843.401	706.4
843.787	385.75
844.172	324.9
844.557	289.79
844.943	392.77
845.328	257.02
845.713	331.92
846.098	217.23
846.483	292.13
846.868	334.26
847.253	289.79
847.638	383.41
848.023	308.51
848.408	327.24
848.793	287.45
849.177	306.17
849.562	338.94
849.947	320.21
850.331	343.62
850.715	306.17
851.1	254.68
851.484	280.43
851.868	233.61
852.253	348.3
852.637	296.81
853.021	327.24
853.405	296.81
853.789	296.81
854.173	271.06
854.557	399.79
854.94	320.21
855.324	296.81
855.708	343.62
856.091	268.72
856.475	310.85
856.858	322.56
857.242	320.21
857.625	292.13
858.009	343.62
858.392	299.15
858.775	275.74
859.158	317.87
859.541	275.74
859.924	292.13
860.307	329.58
860.69	350.64
861.073	310.85
861.456	341.28
861.838	261.7
862.221	322.56
862.604	331.92
862.986	275.74
863.369	261.7
863.751	329.58
864.133	313.19
864.516	317.87
864.898	280.43
865.28	296.81
865.662	336.6
866.044	275.74
866.426	287.45
866.808	315.53
867.19	226.59
867.572	292.13
867.954	299.15
868.336	320.21
868.717	343.62
869.099	360
869.48	257.02
869.862	338.94
870.243	299.15
870.625	367.03
871.006	331.92
871.387	364.68
871.768	355.32
872.149	338.94
872.53	378.73
872.911	322.56
873.292	250
873.673	287.45
874.054	266.38
874.435	233.61
874.815	322.56
875.196	310.85
875.577	301.49
875.957	374.05
876.338	320.21
876.718	341.28
877.098	299.15
877.479	289.79
877.859	254.68
878.239	308.51
878.619	308.51
878.999	273.4
879.379	310.85
879.759	275.74
880.139	324.9
880.519	320.21
880.898	280.43
881.278	308.51
881.658	280.43
882.037	287.45
882.417	294.47
882.796	264.04
883.176	324.9
883.555	273.4
883.934	352.98
884.313	308.51
884.693	313.19
885.072	329.58
885.451	266.38
885.83	259.36
886.209	292.13
886.587	285.11
886.966	247.66
887.345	294.47
887.724	231.27
888.102	355.32
888.481	317.87
888.859	285.11
889.238	280.43
889.616	320.21
889.994	268.72
890.373	329.58
890.751	252.34
891.129	306.17
891.507	322.56
891.885	301.49
892.263	336.6
892.641	235.96
893.019	338.94
893.396	327.24
893.774	289.79
894.152	287.45
894.529	313.19
894.907	247.66
895.284	259.36
895.662	273.4
896.039	250
896.416	271.06
896.794	345.96
897.171	315.53
897.548	275.74
897.925	334.26
898.302	278.08
898.679	352.98
899.056	259.36
899.433	331.92
899.809	301.49
900.186	381.07
900.563	310.85
900.939	338.94
901.316	238.3
901.692	247.66
902.069	315.53
902.445	374.05
902.821	308.51
903.197	317.87
903.574	322.56
903.95	273.4
904.326	296.81
904.702	207.87
905.078	315.53
905.454	341.28
905.829	299.15
906.205	282.77
906.581	294.47
906.956	296.81
907.332	266.38
907.707	287.45
908.083	261.7
908.458	360
908.833	301.49
909.209	331.92
909.584	315.53
909.959	320.21
910.334	317.87
910.709	299.15
911.084	327.24
911.459	282.77
911.834	336.6
912.209	306.17
912.583	357.66
912.958	273.4
913.333	280.43
913.707	315.53
914.082	315.53
914.456	289.79
914.83	294.47
915.205	348.3
915.579	292.13
915.953	287.45
916.327	301.49
916.701	294.47
917.075	308.51
917.449	317.87
917.823	315.53
918.197	322.56
918.571	308.51
918.944	348.3
919.318	296.81
919.692	296.81
920.065	322.56
920.438	348.3
920.812	303.83
921.185	250
921.558	348.3
921.932	299.15
922.305	252.34
922.678	275.74
923.051	352.98
923.424	224.25
923.797	343.62
924.17	334.26
924.542	285.11
924.915	357.66
925.288	376.39
925.661	278.08
926.033	334.26
926.406	271.06
926.778	313.19
927.15	252.34
927.523	306.17
927.895	264.04
928.267	292.13
928.639	224.25
929.011	287.45
929.383	231.27
929.755	313.19
930.127	308.51
930.499	282.77
930.871	273.4
931.242	264.04
931.614	285.11
931.986	306.17
932.357	341.28
932.729	271.06
933.1	271.06
933.471	355.32
933.843	343.62
934.214	308.51
934.585	296.81
934.956	278.08
935.327	273.4
935.698	273.4
936.069	226.59
936.44	268.72
936.811	301.49
937.182	261.7
937.552	299.15
937.923	317.87
938.293	292.13
938.664	345.96
939.034	329.58
939.405	278.08
939.775	301.49
940.145	308.51
940.516	264.04
940.886	317.87
941.256	151.7
941.626	289.79
941.996	357.66
942.366	303.83
942.735	310.85
943.105	294.47
943.475	315.53
943.845	308.51
944.214	308.51
944.584	280.43
944.953	275.74
945.323	390.43
945.692	320.21
946.061	278.08
946.43	296.81
946.8	378.73
947.169	278.08
947.538	364.68
947.907	259.36
948.276	278.08
948.645	242.98
949.013	306.17
949.382	306.17
949.751	278.08
950.119	324.9
950.488	282.77
950.857	315.53
951.225	273.4
951.593	306.17
951.962	306.17
952.33	317.87
952.698	264.04
953.066	289.79
953.434	292.13
953.802	296.81
954.17	315.53
954.538	294.47
954.906	329.58
955.274	313.19
955.642	245.32
956.009	306.17
956.377	247.66
956.744	238.3
957.112	341.28
957.479	247.66
957.847	310.85
958.214	303.83
958.581	242.98
958.948	341.28
959.315	280.43
959.683	299.15
960.05	303.83
960.416	324.9
960.783	336.6
961.15	273.4
961.517	315.53
961.884	299.15
962.25	292.13
962.617	329.58
962.983	308.51
963.35	259.36
963.716	292.13
964.082	261.7
964.449	331.92
964.815	301.49
965.181	324.9
965.547	303.83
965.913	301.49
966.279	341.28
966.645	289.79
967.011	320.21
967.377	355.32
967.742	322.56
968.108	238.3
968.474	329.58
968.839	247.66
969.205	292.13
969.57	350.64
969.935	313.19
970.301	331.92
970.666	271.06
971.031	303.83
971.396	280.43
971.761	313.19
972.126	360
972.491	259.36
972.856	388.09
973.221	264.04
973.586	275.74
973.95	266.38
974.315	315.53
974.679	355.32
975.044	388.09
975.408	242.98
975.773	308.51
976.137	254.68
976.501	381.07
976.866	294.47
977.23	301.49
977.594	329.58
977.958	313.19
978.322	217.23
978.686	233.61
979.049	331.92
979.413	317.87
979.777	345.96
980.141	294.47
980.504	245.32
980.868	266.38
981.231	217.23
981.595	315.53
981.958	247.66
982.321	345.96
982.684	242.98
983.048	322.56
983.411	348.3
983.774	294.47
984.137	310.85
984.5	310.85
984.862	224.25
985.225	257.02
985.588	252.34
985.951	275.74
986.313	285.11
986.676	296.81
987.038	341.28
987.401	296.81
987.763	266.38
988.125	285.11
988.488	259.36
988.85	317.87
989.212	310.85
989.574	280.43
989.936	303.83
990.298	268.72
990.66	282.77
991.022	238.3
991.383	268.72
991.745	261.7
992.107	320.21
992.468	303.83
992.83	242.98
993.191	338.94
993.553	296.81
993.914	327.24
994.275	313.19
994.637	338.94
994.998	294.47
995.359	296.81
995.72	306.17
996.081	285.11
996.442	331.92
996.803	299.15
997.163	282.77
997.524	301.49
997.885	299.15
998.245	364.68
998.606	306.17
998.966	341.28
999.327	303.83
999.687	352.98
1000.047	282.77
1000.408	315.53
1000.768	191.49
1001.128	322.56
1001.488	250
1001.848	294.47
1002.208	357.66
1002.568	327.24
1002.927	261.7
1003.287	212.55
1003.647	289.79
1004.007	294.47
1004.366	334.26
1004.726	254.68
1005.085	292.13
1005.444	264.04
1005.804	313.19
1006.163	268.72
1006.522	364.68
1006.881	299.15
1007.24	280.43
1007.599	266.38
1007.958	310.85
1008.317	296.81
1008.676	352.98
1009.035	348.3
1009.393	322.56
1009.752	266.38
1010.111	235.96
1010.469	264.04
1010.828	233.61
1011.186	317.87
1011.544	285.11
1011.903	317.87
1012.261	303.83
1012.619	306.17
1012.977	338.94
1013.335	364.68
1013.693	301.49
1014.051	317.87
1014.409	306.17
1014.767	271.06
1015.124	320.21
1015.482	439.58
1015.84	268.72
1016.197	338.94
1016.555	315.53
1016.912	285.11
1017.269	343.62
1017.627	315.53
1017.984	247.66
1018.341	282.77
1018.698	317.87
1019.055	240.64
1019.412	264.04
1019.769	285.11
1020.126	299.15
1020.483	287.45
1020.84	268.72
1021.196	345.96
1021.553	224.25
1021.909	306.17
1022.266	273.4
1022.622	315.53
1022.979	390.43
1023.335	329.58
1023.691	338.94
1024.047	266.38
1024.404	320.21
1024.76	268.72
1025.116	317.87
1025.472	331.92
1025.827	322.56
1026.183	252.34
1026.539	292.13
1026.895	334.26
1027.25	285.11
1027.606	271.06
1027.961	357.66
1028.317	327.24
1028.672	315.53
1029.028	275.74
1029.383	367.03
1029.738	285.11
1030.093	315.53
1030.448	245.32
1030.803	294.47
1031.158	266.38
1031.513	345.96
1031.868	324.9
1032.223	322.56
1032.577	233.61
1032.932	345.96
1033.287	292.13
1033.641	418.52
1033.996	331.92
1034.35	310.85
1034.704	296.81
1035.059	336.6
1035.413	352.98
1035.767	352.98
1036.121	352.98
