Data from Al_FLMS009871__106__11-49-26-994.txt Node

Date: Fri Mar 08 11:49:26 CST 2024
User: pe5414po
Spectrometer: FLMS00987
Trigger mode: 0
Integration Time (sec): 1.000000E-1
Scans to average: 1
Electric dark correction enabled: true
Nonlinearity correction enabled: false
Boxcar width: 0
XAxis mode: Wavelengths
Number of Pixels in Spectrum: 2048
>>>>>Begin Spectral Data<<<<<
188.938	-40.52
189.409	-40.52
189.879	-40.52
190.349	-87.33
190.819	-82.65
191.29	-117.76
191.76	-52.22
192.23	-92.01
192.7	-94.35
193.17	-73.29
193.64	-38.18
194.109	-38.18
194.579	-7.75
195.049	29.7
195.519	-17.12
195.988	-26.48
196.458	146.72
196.927	48.42
197.397	104.59
197.866	113.95
198.336	113.95
198.805	106.93
199.274	146.72
199.744	193.53
200.213	226.3
200.682	188.85
201.151	228.64
201.62	172.47
202.089	177.15
202.558	273.11
203.027	221.62
203.495	247.37
203.964	233.32
204.433	291.84
204.902	254.39
205.37	308.22
205.839	336.31
206.307	216.94
206.776	315.24
207.244	310.56
207.712	319.92
208.181	240.34
208.649	301.2
209.117	322.26
209.585	324.6
210.053	305.88
210.521	340.99
210.989	305.88
211.457	280.13
211.925	275.45
212.393	298.86
212.861	303.54
213.328	308.22
213.796	259.07
214.264	280.13
214.731	343.33
215.199	247.37
215.666	282.47
216.133	289.5
216.601	263.75
217.068	275.45
217.535	270.77
218.003	263.75
218.47	235.66
218.937	235.66
219.404	247.37
219.871	254.39
220.338	240.34
220.805	235.66
221.271	245.02
221.738	359.71
222.205	301.2
222.671	238
223.138	296.52
223.605	268.43
224.071	256.73
224.538	287.15
225.004	322.26
225.47	195.87
225.937	270.77
226.403	322.26
226.869	209.92
227.335	275.45
227.801	319.92
228.267	273.11
228.733	219.28
229.199	308.22
229.665	312.9
230.131	254.39
230.597	230.98
231.062	284.81
231.528	291.84
231.994	308.22
232.459	273.11
232.925	322.26
233.39	289.5
233.856	240.34
234.321	263.75
234.786	273.11
235.252	289.5
235.717	343.33
236.182	284.81
236.647	235.66
237.112	249.71
237.577	305.88
238.042	228.64
238.507	294.18
238.972	273.11
239.436	280.13
239.901	303.54
240.366	303.54
240.83	266.09
241.295	216.94
241.76	273.11
242.224	284.81
242.688	284.81
243.153	284.81
243.617	291.84
244.081	268.43
244.545	294.18
245.01	289.5
245.474	266.09
245.938	305.88
246.402	312.9
246.866	280.13
247.33	254.39
247.793	261.41
248.257	312.9
248.721	289.5
249.185	315.24
249.648	249.71
250.112	235.66
250.575	266.09
251.039	249.71
251.502	303.54
251.965	266.09
252.429	235.66
252.892	238
253.355	256.73
253.818	322.26
254.281	336.31
254.744	245.02
255.207	289.5
255.67	270.77
256.133	326.94
256.596	296.52
257.059	221.62
257.522	343.33
257.984	296.52
258.447	277.79
258.909	289.5
259.372	275.45
259.834	242.68
260.297	280.13
260.759	270.77
261.221	282.47
261.684	275.45
262.146	301.2
262.608	259.07
263.07	273.11
263.532	263.75
263.994	228.64
264.456	296.52
264.918	369.07
265.38	268.43
265.842	263.75
266.303	298.86
266.765	294.18
267.227	275.45
267.688	247.37
268.15	235.66
268.611	245.02
269.072	303.54
269.534	252.05
269.995	303.54
270.456	291.84
270.918	333.97
271.379	308.22
271.84	240.34
272.301	289.5
272.762	287.15
273.223	369.07
273.684	338.65
274.144	317.58
274.605	343.33
275.066	303.54
275.527	298.86
275.987	296.52
276.448	296.52
276.908	270.77
277.369	284.81
277.829	259.07
278.289	294.18
278.75	312.9
279.21	254.39
279.67	298.86
280.13	284.81
280.59	256.73
281.05	294.18
281.51	259.07
281.97	249.71
282.43	312.9
282.89	266.09
283.35	308.22
283.809	242.68
284.269	256.73
284.729	298.86
285.188	312.9
285.648	329.28
286.107	282.47
286.567	355.03
287.026	263.75
287.485	280.13
287.944	329.28
288.404	249.71
288.863	310.56
289.322	362.05
289.781	315.24
290.24	263.75
290.699	275.45
291.158	240.34
291.616	364.39
292.075	252.05
292.534	263.75
292.992	317.58
293.451	275.45
293.91	287.15
294.368	245.02
294.827	273.11
295.285	343.33
295.743	350.35
296.202	317.58
296.66	305.88
297.118	338.65
297.576	298.86
298.034	289.5
298.492	277.79
298.95	308.22
299.408	324.6
299.866	338.65
300.324	338.65
300.781	270.77
301.239	366.73
301.697	345.67
302.154	315.24
302.612	315.24
303.069	273.11
303.527	249.71
303.984	333.97
304.441	326.94
304.899	284.81
305.356	301.2
305.813	303.54
306.27	317.58
306.727	273.11
307.184	359.71
307.641	319.92
308.098	322.26
308.555	287.15
309.012	301.2
309.468	350.35
309.925	268.43
310.382	298.86
310.838	303.54
311.295	301.2
311.751	317.58
312.208	284.81
312.664	296.52
313.12	242.68
313.577	329.28
314.033	254.39
314.489	345.67
314.945	326.94
315.401	305.88
315.857	230.98
316.313	202.9
316.769	254.39
317.225	291.84
317.681	317.58
318.136	209.92
318.592	326.94
319.048	366.73
319.503	338.65
319.959	310.56
320.414	298.86
320.869	301.2
321.325	240.34
321.78	273.11
322.235	329.28
322.691	315.24
323.146	254.39
323.601	238
324.056	277.79
324.511	319.92
324.966	298.86
325.421	268.43
325.875	275.45
326.33	303.54
326.785	277.79
327.24	390.14
327.694	275.45
328.149	340.99
328.603	383.12
329.058	261.41
329.512	312.9
329.966	345.67
330.421	298.86
330.875	348.01
331.329	249.71
331.783	280.13
332.237	329.28
332.691	385.46
333.145	282.47
333.599	294.18
334.053	366.73
334.507	282.47
334.96	277.79
335.414	310.56
335.868	228.64
336.321	362.05
336.775	310.56
337.228	289.5
337.682	301.2
338.135	242.68
338.588	294.18
339.042	352.69
339.495	366.73
339.948	310.56
340.401	301.2
340.854	312.9
341.307	294.18
341.76	319.92
342.213	319.92
342.666	296.52
343.119	326.94
343.571	303.54
344.024	282.47
344.477	319.92
344.929	280.13
345.382	319.92
345.834	359.71
346.287	329.28
346.739	291.84
347.191	259.07
347.644	305.88
348.096	326.94
348.548	315.24
349	305.88
349.452	289.5
349.904	275.45
350.356	287.15
350.808	359.71
351.26	369.07
351.711	319.92
352.163	294.18
352.615	336.31
353.066	289.5
353.518	303.54
353.969	343.33
354.421	252.05
354.872	315.24
355.324	301.2
355.775	312.9
356.226	298.86
356.677	366.73
357.128	317.58
357.579	305.88
358.03	289.5
358.481	329.28
358.932	357.37
359.383	282.47
359.834	326.94
360.285	348.01
360.735	268.43
361.186	329.28
361.637	287.15
362.087	273.11
362.538	287.15
362.988	298.86
363.438	366.73
363.889	350.35
364.339	291.84
364.789	326.94
365.239	277.79
365.689	324.6
366.139	303.54
366.589	282.47
367.039	305.88
367.489	294.18
367.939	336.31
368.389	345.67
368.839	296.52
369.288	336.31
369.738	289.5
370.187	282.47
370.637	230.98
371.086	326.94
371.536	343.33
371.985	362.05
372.434	296.52
372.884	303.54
373.333	338.65
373.782	308.22
374.231	298.86
374.68	326.94
375.129	317.58
375.578	268.43
376.027	343.33
376.475	268.43
376.924	319.92
377.373	329.28
377.822	326.94
378.27	266.09
378.719	373.75
379.167	338.65
379.616	357.37
380.064	305.88
380.512	275.45
380.961	273.11
381.409	305.88
381.857	329.28
382.305	322.26
382.753	317.58
383.201	343.33
383.649	340.99
384.097	343.33
384.545	298.86
384.992	338.65
385.44	340.99
385.888	303.54
386.335	238
386.783	296.52
387.231	362.05
387.678	275.45
388.125	359.71
388.573	326.94
389.02	298.86
389.467	312.9
389.914	275.45
390.362	294.18
390.809	348.01
391.256	366.73
391.703	303.54
392.15	350.35
392.596	294.18
393.043	296.52
393.49	338.65
393.937	340.99
394.383	350.35
394.83	340.99
395.276	308.22
395.723	174.81
396.169	294.18
396.616	252.05
397.062	336.31
397.508	291.84
397.954	298.86
398.401	331.62
398.847	315.24
399.293	310.56
399.739	277.79
400.185	324.6
400.631	331.62
401.076	284.81
401.522	273.11
401.968	331.62
402.414	331.62
402.859	364.39
403.305	331.62
403.75	348.01
404.196	345.67
404.641	359.71
405.086	296.52
405.532	317.58
405.977	329.28
406.422	301.2
406.867	331.62
407.312	369.07
407.757	376.09
408.202	333.97
408.647	277.79
409.092	317.58
409.537	355.03
409.982	348.01
410.426	256.73
410.871	336.31
411.316	277.79
411.76	282.47
412.205	329.28
412.649	261.41
413.093	319.92
413.538	275.45
413.982	329.28
414.426	291.84
414.87	324.6
415.314	338.65
415.758	312.9
416.202	362.05
416.646	305.88
417.09	322.26
417.534	376.09
417.978	317.58
418.421	308.22
418.865	317.58
419.309	340.99
419.752	315.24
420.196	333.97
420.639	301.2
421.083	324.6
421.526	340.99
421.969	345.67
422.412	284.81
422.856	348.01
423.299	303.54
423.742	392.48
424.185	357.37
424.628	289.5
425.071	348.01
425.513	331.62
425.956	357.37
426.399	362.05
426.842	357.37
427.284	333.97
427.727	378.44
428.169	362.05
428.612	345.67
429.054	362.05
429.497	359.71
429.939	387.8
430.381	350.35
430.823	301.2
431.265	336.31
431.707	364.39
432.149	401.84
432.591	387.8
433.033	399.5
433.475	380.78
433.917	422.91
434.359	418.22
434.8	448.65
435.242	537.59
435.684	514.19
436.125	465.04
436.567	453.33
437.008	446.31
437.449	345.67
437.891	418.22
438.332	397.16
438.773	429.93
439.214	420.57
439.656	418.22
440.097	420.57
440.538	472.06
440.978	418.22
441.419	399.5
441.86	476.74
442.301	455.67
442.742	434.61
443.182	490.78
443.623	462.69
444.063	450.99
444.504	443.97
444.944	425.25
445.385	490.78
445.825	397.16
446.265	460.35
446.706	434.61
447.146	509.51
447.586	467.38
448.026	448.65
448.466	479.08
448.906	472.06
449.346	448.65
449.786	450.99
450.225	427.59
450.665	441.63
451.105	472.06
451.544	502.48
451.984	441.63
452.424	476.74
452.863	474.4
453.302	401.84
453.742	443.97
454.181	516.53
454.62	441.63
455.059	406.52
455.499	404.18
455.938	378.44
456.377	413.54
456.816	394.82
457.254	448.65
457.693	446.31
458.132	406.52
458.571	399.5
459.01	348.01
459.448	394.82
459.887	420.57
460.325	392.48
460.764	387.8
461.202	310.56
461.641	432.27
462.079	371.41
462.517	338.65
462.955	383.12
463.393	343.33
463.832	390.14
464.27	411.2
464.708	394.82
465.145	413.54
465.583	387.8
466.021	369.07
466.459	385.46
466.897	390.14
467.334	343.33
467.772	397.16
468.209	415.88
468.647	399.5
469.084	387.8
469.522	359.71
469.959	317.58
470.396	359.71
470.833	429.93
471.271	392.48
471.708	401.84
472.145	394.82
472.582	420.57
473.019	357.37
473.456	446.31
473.892	376.09
474.329	418.22
474.766	305.88
475.202	371.41
475.639	340.99
476.076	366.73
476.512	383.12
476.949	373.75
477.385	322.26
477.821	289.5
478.258	366.73
478.694	357.37
479.13	319.92
479.566	359.71
480.002	348.01
480.438	380.78
480.874	376.09
481.31	408.86
481.746	336.31
482.181	319.92
482.617	345.67
483.053	343.33
483.488	345.67
483.924	399.5
484.36	357.37
484.795	315.24
485.23	383.12
485.666	455.67
486.101	387.8
486.536	493.12
486.971	462.69
487.407	422.91
487.842	373.75
488.277	509.51
488.712	429.93
489.146	340.99
489.581	366.73
490.016	371.41
490.451	397.16
490.885	399.5
491.32	434.61
491.755	338.65
492.189	397.16
492.624	397.16
493.058	467.38
493.492	340.99
493.927	418.22
494.361	350.35
494.795	378.44
495.229	427.59
495.663	383.12
496.097	443.97
496.531	439.29
496.965	350.35
497.399	350.35
497.833	432.27
498.266	401.84
498.7	390.14
499.134	387.8
499.567	387.8
500.001	413.54
500.434	418.22
500.868	383.12
501.301	387.8
501.734	392.48
502.168	385.46
502.601	298.86
503.034	385.46
503.467	420.57
503.9	343.33
504.333	385.46
504.766	404.18
505.199	427.59
505.632	348.01
506.064	378.44
506.497	408.86
506.93	432.27
507.362	401.84
507.795	380.78
508.227	411.2
508.66	387.8
509.092	315.24
509.524	343.33
509.956	308.22
510.389	399.5
510.821	387.8
511.253	340.99
511.685	355.03
512.117	427.59
512.549	355.03
512.981	355.03
513.412	340.99
513.844	357.37
514.276	448.65
514.707	404.18
515.139	348.01
515.571	378.44
516.002	404.18
516.433	422.91
516.865	483.76
517.296	385.46
517.727	420.57
518.159	418.22
518.59	432.27
519.021	443.97
519.452	371.41
519.883	404.18
520.314	355.03
520.744	418.22
521.175	434.61
521.606	364.39
522.037	399.5
522.467	422.91
522.898	411.2
523.328	289.5
523.759	450.99
524.189	434.61
524.62	394.82
525.05	390.14
525.48	432.27
525.91	413.54
526.341	429.93
526.771	469.72
527.201	420.57
527.631	422.91
528.061	385.46
528.49	371.41
528.92	310.56
529.35	348.01
529.78	446.31
530.209	404.18
530.639	397.16
531.068	404.18
531.498	413.54
531.927	397.16
532.357	413.54
532.786	387.8
533.215	357.37
533.644	465.04
534.074	439.29
534.503	390.14
534.932	350.35
535.361	422.91
535.79	397.16
536.218	394.82
536.647	392.48
537.076	448.65
537.505	413.54
537.933	415.88
538.362	413.54
538.79	441.63
539.219	441.63
539.647	479.08
540.076	472.06
540.504	511.85
540.932	525.89
541.36	535.25
541.788	638.23
542.217	649.94
542.645	678.02
543.073	671
543.5	680.36
543.928	661.64
544.356	720.15
544.784	673.34
545.211	757.6
545.639	678.02
546.067	654.62
546.494	633.55
546.922	638.23
547.349	483.76
547.776	532.91
548.204	460.35
548.631	500.14
549.058	413.54
549.485	462.69
549.912	521.21
550.339	432.27
550.766	434.61
551.193	436.95
551.62	434.61
552.047	425.25
552.474	380.78
552.9	383.12
553.327	420.57
553.754	443.97
554.18	434.61
554.607	415.88
555.033	436.95
555.459	422.91
555.886	397.16
556.312	434.61
556.738	434.61
557.164	453.33
557.59	366.73
558.016	429.93
558.442	411.2
558.868	472.06
559.294	345.67
559.72	394.82
560.145	394.82
560.571	460.35
560.997	443.97
561.422	394.82
561.848	432.27
562.273	408.86
562.699	399.5
563.124	448.65
563.549	390.14
563.974	408.86
564.4	392.48
564.825	378.44
565.25	432.27
565.675	373.75
566.1	387.8
566.525	376.09
566.95	350.35
567.374	427.59
567.799	436.95
568.224	359.71
568.648	376.09
569.073	392.48
569.497	425.25
569.922	345.67
570.346	340.99
570.771	422.91
571.195	348.01
571.619	401.84
572.043	427.59
572.467	364.39
572.891	376.09
573.315	479.08
573.739	432.27
574.163	411.2
574.587	465.04
575.011	366.73
575.435	422.91
575.858	413.54
576.282	436.95
576.705	326.94
577.129	408.86
577.552	394.82
577.976	399.5
578.399	406.52
578.822	413.54
579.245	429.93
579.669	408.86
580.092	415.88
580.515	476.74
580.938	418.22
581.361	446.31
581.784	420.57
582.206	448.65
582.629	493.12
583.052	532.91
583.474	429.93
583.897	427.59
584.32	450.99
584.742	439.29
585.165	352.69
585.587	390.14
586.009	411.2
586.431	408.86
586.854	408.86
587.276	462.69
587.698	411.2
588.12	422.91
588.542	397.16
588.964	467.38
589.386	387.8
589.807	469.72
590.229	385.46
590.651	364.39
591.073	366.73
591.494	425.25
591.916	432.27
592.337	404.18
592.759	404.18
593.18	338.65
593.601	467.38
594.022	376.09
594.444	366.73
594.865	418.22
595.286	348.01
595.707	329.28
596.128	319.92
596.549	380.78
596.97	387.8
597.39	371.41
597.811	422.91
598.232	291.84
598.652	294.18
599.073	397.16
599.494	383.12
599.914	380.78
600.334	394.82
600.755	387.8
601.175	383.12
601.595	329.28
602.015	340.99
602.436	329.28
602.856	495.46
603.276	413.54
603.696	338.65
604.115	406.52
604.535	413.54
604.955	404.18
605.375	380.78
605.794	315.24
606.214	331.62
606.634	380.78
607.053	418.22
607.473	397.16
607.892	392.48
608.311	443.97
608.731	420.57
609.15	420.57
609.569	565.68
609.988	661.64
610.407	743.56
610.826	797.39
611.245	806.75
611.664	720.15
612.083	710.79
612.501	593.76
612.92	535.25
613.339	577.38
613.757	525.89
614.176	488.44
614.594	514.19
615.013	474.4
615.431	378.44
615.85	413.54
616.268	376.09
616.686	460.35
617.104	425.25
617.522	401.84
617.94	418.22
618.358	460.35
618.776	404.18
619.194	378.44
619.612	436.95
620.03	406.52
620.447	333.97
620.865	324.6
621.282	373.75
621.7	387.8
622.117	420.57
622.535	369.07
622.952	415.88
623.369	348.01
623.787	387.8
624.204	371.41
624.621	406.52
625.038	345.67
625.455	380.78
625.872	359.71
626.289	369.07
626.706	383.12
627.123	315.24
627.539	350.35
627.956	420.57
628.373	373.75
628.789	296.52
629.206	387.8
629.622	420.57
630.038	366.73
630.455	380.78
630.871	392.48
631.287	378.44
631.703	427.59
632.12	366.73
632.536	383.12
632.952	338.65
633.368	401.84
633.783	406.52
634.199	399.5
634.615	357.37
635.031	310.56
635.446	390.14
635.862	350.35
636.277	383.12
636.693	310.56
637.108	245.02
637.524	359.71
637.939	308.22
638.354	343.33
638.77	338.65
639.185	362.05
639.6	336.31
640.015	366.73
640.43	331.62
640.845	404.18
641.259	373.75
641.674	362.05
642.089	315.24
642.504	383.12
642.918	287.15
643.333	352.69
643.747	308.22
644.162	284.81
644.576	338.65
644.991	322.26
645.405	308.22
645.819	324.6
646.233	266.09
646.647	343.33
647.061	383.12
647.475	259.07
647.889	406.52
648.303	350.35
648.717	359.71
649.131	338.65
649.545	383.12
649.958	336.31
650.372	336.31
650.785	326.94
651.199	296.52
651.612	348.01
652.026	319.92
652.439	357.37
652.852	273.11
653.266	373.75
653.679	362.05
654.092	268.43
654.505	352.69
654.918	277.79
655.331	366.73
655.744	312.9
656.156	350.35
656.569	326.94
656.982	308.22
657.394	324.6
657.807	308.22
658.22	322.26
658.632	333.97
659.044	296.52
659.457	336.31
659.869	329.28
660.281	359.71
660.693	355.03
661.106	326.94
661.518	315.24
661.93	432.27
662.342	252.05
662.754	362.05
663.165	399.5
663.577	303.54
663.989	348.01
664.401	240.34
664.812	252.05
665.224	280.13
665.635	289.5
666.047	333.97
666.458	298.86
666.869	329.28
667.281	324.6
667.692	310.56
668.103	331.62
668.514	380.78
668.925	352.69
669.336	270.77
669.747	319.92
670.158	336.31
670.569	326.94
670.979	317.58
671.39	413.54
671.801	338.65
672.211	362.05
672.622	324.6
673.032	362.05
673.443	254.39
673.853	249.71
674.263	289.5
674.674	340.99
675.084	378.44
675.494	273.11
675.904	308.22
676.314	338.65
676.724	326.94
677.134	284.81
677.544	301.2
677.953	305.88
678.363	268.43
678.773	352.69
679.182	275.45
679.592	385.46
680.001	298.86
680.411	289.5
680.82	298.86
681.23	322.26
681.639	362.05
682.048	268.43
682.457	324.6
682.866	319.92
683.275	322.26
683.684	350.35
684.093	326.94
684.502	345.67
684.911	362.05
685.32	322.26
685.728	280.13
686.137	390.14
686.546	357.37
686.954	331.62
687.363	308.22
687.771	296.52
688.179	355.03
688.588	333.97
688.996	312.9
689.404	399.5
689.812	355.03
690.22	362.05
690.628	275.45
691.036	294.18
691.444	308.22
691.852	324.6
692.26	336.31
692.667	261.41
693.075	289.5
693.483	305.88
693.89	289.5
694.298	324.6
694.705	245.02
695.112	338.65
695.52	350.35
695.927	324.6
696.334	322.26
696.741	305.88
697.148	287.15
697.555	331.62
697.962	317.58
698.369	312.9
698.776	378.44
699.183	336.31
699.59	355.03
699.996	352.69
700.403	340.99
700.81	298.86
701.216	371.41
701.623	357.37
702.029	340.99
702.435	340.99
702.842	319.92
703.248	294.18
703.654	268.43
704.06	345.67
704.466	345.67
704.872	296.52
705.278	387.8
705.684	298.86
706.09	338.65
706.496	310.56
706.901	303.54
707.307	326.94
707.712	319.92
708.118	319.92
708.523	305.88
708.929	336.31
709.334	333.97
709.74	310.56
710.145	282.47
710.55	340.99
710.955	324.6
711.36	298.86
711.765	357.37
712.17	376.09
712.575	364.39
712.98	1029.1
713.385	380.78
713.789	366.73
714.194	268.43
714.599	291.84
715.003	296.52
715.408	331.62
715.812	277.79
716.217	280.13
716.621	310.56
717.025	284.81
717.429	275.45
717.833	289.5
718.238	305.88
718.642	315.24
719.046	317.58
719.449	355.03
719.853	287.15
720.257	261.41
720.661	322.26
721.065	277.79
721.468	245.02
721.872	317.58
722.275	296.52
722.679	308.22
723.082	294.18
723.485	268.43
723.889	399.5
724.292	364.39
724.695	287.15
725.098	331.62
725.501	284.81
725.904	298.86
726.307	408.86
726.71	261.41
727.113	252.05
727.516	336.31
727.918	291.84
728.321	312.9
728.724	301.2
729.126	301.2
729.529	296.52
729.931	282.47
730.333	280.13
730.736	352.69
731.138	291.84
731.54	336.31
731.942	352.69
732.344	329.28
732.746	369.07
733.148	315.24
733.55	282.47
733.952	270.77
734.354	315.24
734.756	340.99
735.157	280.13
735.559	305.88
735.96	301.2
736.362	284.81
736.763	326.94
737.165	287.15
737.566	345.67
737.967	263.75
738.368	289.5
738.77	319.92
739.171	289.5
739.572	245.02
739.973	432.27
740.374	319.92
740.774	385.46
741.175	273.11
741.576	305.88
741.977	348.01
742.377	291.84
742.778	315.24
743.178	291.84
743.579	303.54
743.979	263.75
744.379	376.09
744.78	256.73
745.18	333.97
745.58	284.81
745.98	259.07
746.38	268.43
746.78	336.31
747.18	359.71
747.58	317.58
747.98	261.41
748.38	345.67
748.779	338.65
749.179	298.86
749.578	310.56
749.978	263.75
750.377	315.24
750.777	310.56
751.176	291.84
751.575	357.37
751.975	263.75
752.374	322.26
752.773	277.79
753.172	329.28
753.571	273.11
753.97	343.33
754.369	340.99
754.768	336.31
755.166	301.2
755.565	333.97
755.964	308.22
756.362	322.26
756.761	338.65
757.159	343.33
757.558	261.41
757.956	282.47
758.354	308.22
758.753	310.56
759.151	312.9
759.549	291.84
759.947	301.2
760.345	371.41
760.743	282.47
761.141	284.81
761.539	352.69
761.936	413.54
762.334	359.71
762.732	291.84
763.129	294.18
763.527	270.77
763.924	287.15
764.322	298.86
764.719	301.2
765.117	294.18
765.514	352.69
765.911	284.81
766.308	315.24
766.705	348.01
767.102	312.9
767.499	308.22
767.896	322.26
768.293	233.32
768.69	357.37
769.086	326.94
769.483	338.65
769.88	303.54
770.276	348.01
770.673	366.73
771.069	385.46
771.466	240.34
771.862	266.09
772.258	343.33
772.654	333.97
773.05	324.6
773.447	298.86
773.843	308.22
774.239	322.26
774.634	256.73
775.03	289.5
775.426	249.71
775.822	310.56
776.218	369.07
776.613	340.99
777.009	333.97
777.404	261.41
777.8	268.43
778.195	242.68
778.59	294.18
778.986	223.96
779.381	301.2
779.776	284.81
780.171	259.07
780.566	303.54
780.961	333.97
781.356	348.01
781.751	289.5
782.146	359.71
782.54	303.54
782.935	373.75
783.33	268.43
783.724	319.92
784.119	345.67
784.513	247.37
784.908	305.88
785.302	317.58
785.696	362.05
786.09	287.15
786.485	280.13
786.879	303.54
787.273	380.78
787.667	312.9
788.061	270.77
788.454	273.11
788.848	266.09
789.242	387.8
789.636	336.31
790.029	249.71
790.423	296.52
790.816	364.39
791.21	266.09
791.603	301.2
791.997	252.05
792.39	340.99
792.783	348.01
793.176	298.86
793.569	296.52
793.962	376.09
794.355	336.31
794.748	338.65
795.141	310.56
795.534	261.41
795.927	263.75
796.319	324.6
796.712	287.15
797.105	362.05
797.497	366.73
797.89	305.88
798.282	280.13
798.674	326.94
799.067	289.5
799.459	301.2
799.851	308.22
800.243	259.07
800.635	291.84
801.027	282.47
801.419	310.56
801.811	319.92
802.203	383.12
802.594	329.28
802.986	329.28
803.378	362.05
803.769	310.56
804.161	357.37
804.552	329.28
804.944	221.62
805.335	331.62
805.726	343.33
806.118	315.24
806.509	338.65
806.9	294.18
807.291	355.03
807.682	312.9
808.073	345.67
808.464	273.11
808.855	284.81
809.245	329.28
809.636	326.94
810.027	259.07
810.417	310.56
810.808	355.03
811.198	366.73
811.589	310.56
811.979	340.99
812.369	357.37
812.759	245.02
813.15	296.52
813.54	296.52
813.93	350.35
814.32	399.5
814.71	310.56
815.1	303.54
815.489	270.77
815.879	284.81
816.269	322.26
816.658	324.6
817.048	355.03
817.438	348.01
817.827	270.77
818.216	242.68
818.606	280.13
818.995	338.65
819.384	348.01
819.773	315.24
820.163	329.28
820.552	343.33
820.941	291.84
821.33	338.65
821.718	270.77
822.107	380.78
822.496	312.9
822.885	319.92
823.273	324.6
823.662	282.47
824.05	312.9
824.439	331.62
824.827	329.28
825.216	359.71
825.604	287.15
825.992	303.54
826.38	294.18
826.768	329.28
827.156	233.32
827.544	326.94
827.932	364.39
828.32	284.81
828.708	310.56
829.096	324.6
829.483	362.05
829.871	235.66
830.259	294.18
830.646	324.6
831.034	284.81
831.421	242.68
831.808	291.84
832.196	266.09
832.583	350.35
832.97	261.41
833.357	291.84
833.744	310.56
834.131	298.86
834.518	284.81
834.905	282.47
835.292	324.6
835.678	277.79
836.065	305.88
836.452	373.75
836.838	380.78
837.225	289.5
837.611	275.45
837.998	289.5
838.384	263.75
838.77	326.94
839.157	357.37
839.543	294.18
839.929	296.52
840.315	268.43
840.701	376.09
841.087	324.6
841.473	317.58
841.858	331.62
842.244	415.88
842.63	348.01
843.015	303.54
843.401	788.03
843.787	303.54
844.172	317.58
844.557	268.43
844.943	303.54
845.328	291.84
845.713	350.35
846.098	315.24
846.483	322.26
846.868	317.58
847.253	333.97
847.638	289.5
848.023	350.35
848.408	387.8
848.793	259.07
849.177	256.73
849.562	310.56
849.947	340.99
850.331	312.9
850.715	270.77
851.1	345.67
851.484	301.2
851.868	359.71
852.253	312.9
852.637	324.6
853.021	333.97
853.405	273.11
853.789	289.5
854.173	270.77
854.557	298.86
854.94	322.26
855.324	212.26
855.708	366.73
856.091	249.71
856.475	212.26
856.858	308.22
857.242	256.73
857.625	235.66
858.009	303.54
858.392	298.86
858.775	226.3
859.158	270.77
859.541	324.6
859.924	266.09
860.307	333.97
860.69	296.52
861.073	305.88
861.456	317.58
861.838	369.07
862.221	340.99
862.604	331.62
862.986	326.94
863.369	343.33
863.751	266.09
864.133	270.77
864.516	252.05
864.898	282.47
865.28	252.05
865.662	345.67
866.044	324.6
866.426	352.69
866.808	277.79
867.19	291.84
867.572	287.15
867.954	331.62
868.336	266.09
868.717	322.26
869.099	319.92
869.48	326.94
869.862	284.81
870.243	289.5
870.625	392.48
871.006	296.52
871.387	315.24
871.768	308.22
872.149	319.92
872.53	310.56
872.911	238
873.292	247.37
873.673	273.11
874.054	319.92
874.435	315.24
874.815	275.45
875.196	312.9
875.577	296.52
875.957	310.56
876.338	223.96
876.718	294.18
877.098	373.75
877.479	228.64
877.859	315.24
878.239	310.56
878.619	308.22
878.999	348.01
879.379	373.75
879.759	312.9
880.139	254.39
880.519	277.79
880.898	390.14
881.278	333.97
881.658	294.18
882.037	263.75
882.417	303.54
882.796	280.13
883.176	340.99
883.555	387.8
883.934	366.73
884.313	284.81
884.693	371.41
885.072	326.94
885.451	326.94
885.83	343.33
886.209	252.05
886.587	289.5
886.966	343.33
887.345	333.97
887.724	289.5
888.102	362.05
888.481	338.65
888.859	331.62
889.238	261.41
889.616	324.6
889.994	326.94
890.373	324.6
890.751	336.31
891.129	352.69
891.507	350.35
891.885	319.92
892.263	345.67
892.641	310.56
893.019	308.22
893.396	317.58
893.774	296.52
894.152	329.28
894.529	263.75
894.907	263.75
895.284	282.47
895.662	284.81
896.039	366.73
896.416	338.65
896.794	324.6
897.171	315.24
897.548	284.81
897.925	277.79
898.302	352.69
898.679	266.09
899.056	228.64
899.433	312.9
899.809	326.94
900.186	326.94
900.563	284.81
900.939	284.81
901.316	298.86
901.692	263.75
902.069	352.69
902.445	270.77
902.821	355.03
903.197	324.6
903.574	291.84
903.95	340.99
904.326	301.2
904.702	394.82
905.078	298.86
905.454	333.97
905.829	303.54
906.205	310.56
906.581	310.56
906.956	263.75
907.332	345.67
907.707	317.58
908.083	268.43
908.458	296.52
908.833	348.01
909.209	287.15
909.584	301.2
909.959	322.26
910.334	317.58
910.709	188.85
911.084	336.31
911.459	376.09
911.834	280.13
912.209	315.24
912.583	305.88
912.958	301.2
913.333	352.69
913.707	315.24
914.082	312.9
914.456	336.31
914.83	277.79
915.205	397.16
915.579	326.94
915.953	345.67
916.327	305.88
916.701	340.99
917.075	270.77
917.449	348.01
917.823	249.71
918.197	331.62
918.571	303.54
918.944	282.47
919.318	362.05
919.692	317.58
920.065	270.77
920.438	312.9
920.812	296.52
921.185	336.31
921.558	291.84
921.932	273.11
922.305	303.54
922.678	284.81
923.051	216.94
923.424	301.2
923.797	319.92
924.17	322.26
924.542	205.24
924.915	324.6
925.288	319.92
925.661	352.69
926.033	280.13
926.406	296.52
926.778	266.09
927.15	259.07
927.523	298.86
927.895	296.52
928.267	317.58
928.639	298.86
929.011	256.73
929.383	348.01
929.755	312.9
930.127	408.86
930.499	324.6
930.871	340.99
931.242	254.39
931.614	247.37
931.986	275.45
932.357	275.45
932.729	373.75
933.1	305.88
933.471	322.26
933.843	266.09
934.214	322.26
934.585	287.15
934.956	355.03
935.327	219.28
935.698	294.18
936.069	317.58
936.44	228.64
936.811	329.28
937.182	298.86
937.552	270.77
937.923	287.15
938.293	280.13
938.664	315.24
939.034	254.39
939.405	324.6
939.775	270.77
940.145	376.09
940.516	303.54
940.886	268.43
941.256	336.31
941.626	310.56
941.996	287.15
942.366	345.67
942.735	345.67
943.105	305.88
943.475	273.11
943.845	326.94
944.214	357.37
944.584	319.92
944.953	312.9
945.323	357.37
945.692	296.52
946.061	333.97
946.43	282.47
946.8	350.35
947.169	240.34
947.538	238
947.907	284.81
948.276	254.39
948.645	280.13
949.013	275.45
949.382	308.22
949.751	209.92
950.119	366.73
950.488	291.84
950.857	298.86
951.225	310.56
951.593	308.22
951.962	329.28
952.33	277.79
952.698	301.2
953.066	212.26
953.434	263.75
953.802	352.69
954.17	270.77
954.538	319.92
954.906	261.41
955.274	348.01
955.642	303.54
956.009	310.56
956.377	343.33
956.744	268.43
957.112	291.84
957.479	242.68
957.847	333.97
958.214	322.26
958.581	345.67
958.948	352.69
959.315	348.01
959.683	261.41
960.05	326.94
960.416	277.79
960.783	298.86
961.15	305.88
961.517	305.88
961.884	362.05
962.25	294.18
962.617	357.37
962.983	340.99
963.35	298.86
963.716	284.81
964.082	261.41
964.449	324.6
964.815	261.41
965.181	319.92
965.547	284.81
965.913	310.56
966.279	340.99
966.645	348.01
967.011	263.75
967.377	294.18
967.742	319.92
968.108	350.35
968.474	277.79
968.839	301.2
969.205	266.09
969.57	338.65
969.935	275.45
970.301	280.13
970.666	371.41
971.031	308.22
971.396	352.69
971.761	294.18
972.126	343.33
972.491	350.35
972.856	333.97
973.221	280.13
973.586	336.31
973.95	289.5
974.315	322.26
974.679	340.99
975.044	273.11
975.408	282.47
975.773	329.28
976.137	331.62
976.501	383.12
976.866	301.2
977.23	329.28
977.594	324.6
977.958	350.35
978.322	333.97
978.686	343.33
979.049	287.15
979.413	331.62
979.777	308.22
980.141	284.81
980.504	336.31
980.868	336.31
981.231	294.18
981.595	305.88
981.958	256.73
982.321	296.52
982.684	324.6
983.048	280.13
983.411	350.35
983.774	312.9
984.137	322.26
984.5	326.94
984.862	226.3
985.225	312.9
985.588	350.35
985.951	322.26
986.313	277.79
986.676	366.73
987.038	317.58
987.401	336.31
987.763	284.81
988.125	261.41
988.488	230.98
988.85	385.46
989.212	329.28
989.574	219.28
989.936	277.79
990.298	308.22
990.66	263.75
991.022	277.79
991.383	308.22
991.745	242.68
992.107	277.79
992.468	287.15
992.83	284.81
993.191	319.92
993.553	259.07
993.914	322.26
994.275	364.39
994.637	303.54
994.998	324.6
995.359	294.18
995.72	322.26
996.081	366.73
996.442	303.54
996.803	322.26
997.163	242.68
997.524	298.86
997.885	315.24
998.245	261.41
998.606	331.62
998.966	273.11
999.327	366.73
999.687	270.77
1000.047	254.39
1000.408	303.54
1000.768	287.15
1001.128	249.71
1001.488	291.84
1001.848	282.47
1002.208	298.86
1002.568	355.03
1002.927	289.5
1003.287	333.97
1003.647	310.56
1004.007	249.71
1004.366	366.73
1004.726	301.2
1005.085	252.05
1005.444	324.6
1005.804	355.03
1006.163	282.47
1006.522	296.52
1006.881	277.79
1007.24	289.5
1007.599	287.15
1007.958	263.75
1008.317	275.45
1008.676	275.45
1009.035	362.05
1009.393	331.62
1009.752	305.88
1010.111	256.73
1010.469	317.58
1010.828	233.32
1011.186	294.18
1011.544	280.13
1011.903	294.18
1012.261	296.52
1012.619	245.02
1012.977	359.71
1013.335	371.41
1013.693	345.67
1014.051	280.13
1014.409	357.37
1014.767	303.54
1015.124	317.58
1015.482	348.01
1015.84	268.43
1016.197	333.97
1016.555	336.31
1016.912	352.69
1017.269	282.47
1017.627	308.22
1017.984	289.5
1018.341	362.05
1018.698	340.99
1019.055	329.28
1019.412	310.56
1019.769	315.24
1020.126	261.41
1020.483	233.32
1020.84	301.2
1021.196	282.47
1021.553	270.77
1021.909	249.71
1022.266	287.15
1022.622	259.07
1022.979	329.28
1023.335	329.28
1023.691	252.05
1024.047	294.18
1024.404	317.58
1024.76	282.47
1025.116	296.52
1025.472	273.11
1025.827	312.9
1026.183	296.52
1026.539	305.88
1026.895	364.39
1027.25	249.71
1027.606	308.22
1027.961	261.41
1028.317	242.68
1028.672	277.79
1029.028	280.13
1029.383	254.39
1029.738	287.15
1030.093	296.52
1030.448	312.9
1030.803	249.71
1031.158	249.71
1031.513	340.99
1031.868	303.54
1032.223	261.41
1032.577	298.86
1032.932	355.03
1033.287	289.5
1033.641	312.9
1033.996	301.2
1034.35	324.6
1034.704	305.88
1035.059	273.11
1035.413	247.37
1035.767	247.37
1036.121	247.37
