Data from Al_FLMS009871__107__11-49-27-094.txt Node

Date: Fri Mar 08 11:49:27 CST 2024
User: pe5414po
Spectrometer: FLMS00987
Trigger mode: 0
Integration Time (sec): 1.000000E-1
Scans to average: 1
Electric dark correction enabled: true
Nonlinearity correction enabled: false
Boxcar width: 0
XAxis mode: Wavelengths
Number of Pixels in Spectrum: 2048
>>>>>Begin Spectral Data<<<<<
188.938	-33.06
189.409	-33.06
189.879	-33.06
190.349	-89.23
190.819	-140.72
191.29	-89.23
191.76	-117.32
192.23	-114.98
192.7	-84.55
193.17	-26.04
193.64	-33.06
194.109	-65.83
194.579	-30.72
195.049	-54.12
195.519	37.16
195.988	37.16
196.458	105.03
196.927	76.95
197.397	60.56
197.866	165.89
198.336	133.12
198.805	149.5
199.274	135.46
199.744	229.08
200.213	203.33
200.682	200.99
201.151	278.23
201.62	261.85
202.089	210.36
202.558	254.83
203.027	252.49
203.495	273.55
203.964	212.7
204.433	303.98
204.902	252.49
205.37	236.1
205.839	266.53
206.307	339.09
206.776	360.15
207.244	287.59
207.712	299.3
208.181	280.57
208.649	275.89
209.117	280.57
209.585	278.23
210.053	311
210.521	329.72
210.989	257.17
211.457	287.59
211.925	339.09
212.393	275.89
212.861	271.21
213.328	266.53
213.796	273.55
214.264	318.02
214.731	289.93
215.199	259.51
215.666	243.12
216.133	219.72
216.601	268.87
217.068	329.72
217.535	240.78
218.003	306.32
218.47	261.85
218.937	259.51
219.404	229.08
219.871	236.1
220.338	329.72
220.805	259.51
221.271	240.78
221.738	289.93
222.205	219.72
222.671	266.53
223.138	226.74
223.605	282.91
224.071	292.27
224.538	285.25
225.004	196.31
225.47	243.12
225.937	247.8
226.403	252.49
226.869	275.89
227.335	212.7
227.801	250.14
228.267	313.34
228.733	306.32
229.199	266.53
229.665	287.59
230.131	268.87
230.597	252.49
231.062	306.32
231.528	318.02
231.994	240.78
232.459	250.14
232.925	259.51
233.39	268.87
233.856	208.02
234.321	273.55
234.786	282.91
235.252	296.96
235.717	306.32
236.182	229.08
236.647	303.98
237.112	252.49
237.577	268.87
238.042	320.36
238.507	285.25
238.972	322.7
239.436	362.49
239.901	231.42
240.366	294.61
240.83	233.76
241.295	219.72
241.76	236.1
242.224	320.36
242.688	266.53
243.153	311
243.617	285.25
244.081	336.74
244.545	261.85
245.01	336.74
245.474	289.93
245.938	261.85
246.402	311
246.866	268.87
247.33	282.91
247.793	315.68
248.257	264.19
248.721	336.74
249.185	343.77
249.648	318.02
250.112	306.32
250.575	303.98
251.039	339.09
251.502	325.04
251.965	236.1
252.429	306.32
252.892	285.25
253.355	350.79
253.818	273.55
254.281	299.3
254.744	296.96
255.207	289.93
255.67	266.53
256.133	294.61
256.596	296.96
257.059	273.55
257.522	268.87
257.984	318.02
258.447	318.02
258.909	381.21
259.372	266.53
259.834	353.13
260.297	217.38
260.759	278.23
261.221	278.23
261.684	341.43
262.146	292.27
262.608	299.3
263.07	306.32
263.532	320.36
263.994	327.38
264.456	327.38
264.918	268.87
265.38	334.4
265.842	261.85
266.303	306.32
266.765	254.83
267.227	339.09
267.688	259.51
268.15	226.74
268.611	250.14
269.072	332.06
269.534	299.3
269.995	320.36
270.456	289.93
270.918	343.77
271.379	322.7
271.84	320.36
272.301	318.02
272.762	292.27
273.223	315.68
273.684	247.8
274.144	294.61
274.605	311
275.066	243.12
275.527	282.91
275.987	257.17
276.448	257.17
276.908	327.38
277.369	222.06
277.829	294.61
278.289	257.17
278.75	280.57
279.21	362.49
279.67	306.32
280.13	243.12
280.59	336.74
281.05	301.64
281.51	339.09
281.97	334.4
282.43	311
282.89	292.27
283.35	318.02
283.809	355.47
284.269	273.55
284.729	308.66
285.188	327.38
285.648	339.09
286.107	311
286.567	261.85
287.026	325.04
287.485	343.77
287.944	285.25
288.404	327.38
288.863	367.17
289.322	259.51
289.781	278.23
290.24	303.98
290.699	329.72
291.158	299.3
291.616	371.85
292.075	339.09
292.534	322.7
292.992	275.89
293.451	329.72
293.91	287.59
294.368	294.61
294.827	275.89
295.285	313.34
295.743	332.06
296.202	334.4
296.66	313.34
297.118	308.66
297.576	299.3
298.034	280.57
298.492	301.64
298.95	299.3
299.408	287.59
299.866	301.64
300.324	292.27
300.781	346.11
301.239	311
301.697	334.4
302.154	322.7
302.612	318.02
303.069	353.13
303.527	285.25
303.984	306.32
304.441	378.87
304.899	236.1
305.356	306.32
305.813	332.06
306.27	296.96
306.727	313.34
307.184	355.47
307.641	273.55
308.098	261.85
308.555	362.49
309.012	313.34
309.468	301.64
309.925	266.53
310.382	296.96
310.838	236.1
311.295	275.89
311.751	271.21
312.208	346.11
312.664	259.51
313.12	294.61
313.577	303.98
314.033	320.36
314.489	278.23
314.945	311
315.401	406.96
315.857	322.7
316.313	336.74
316.769	278.23
317.225	299.3
317.681	261.85
318.136	336.74
318.592	301.64
319.048	320.36
319.503	306.32
319.959	334.4
320.414	334.4
320.869	303.98
321.325	285.25
321.78	367.17
322.235	325.04
322.691	325.04
323.146	271.21
323.601	346.11
324.056	318.02
324.511	353.13
324.966	292.27
325.421	320.36
325.875	306.32
326.33	287.59
326.785	296.96
327.24	355.47
327.694	285.25
328.149	320.36
328.603	381.21
329.058	296.96
329.512	282.91
329.966	299.3
330.421	308.66
330.875	287.59
331.329	306.32
331.783	355.47
332.237	362.49
332.691	306.32
333.145	334.4
333.599	329.72
334.053	357.81
334.507	320.36
334.96	343.77
335.414	325.04
335.868	397.6
336.321	327.38
336.775	327.38
337.228	301.64
337.682	343.77
338.135	271.21
338.588	236.1
339.042	381.21
339.495	275.89
339.948	320.36
340.401	282.91
340.854	308.66
341.307	301.64
341.76	313.34
342.213	266.53
342.666	285.25
343.119	329.72
343.571	289.93
344.024	346.11
344.477	252.49
344.929	271.21
345.382	289.93
345.834	348.45
346.287	301.64
346.739	264.19
347.191	320.36
347.644	273.55
348.096	378.87
348.548	332.06
349	388.24
349.452	336.74
349.904	332.06
350.356	299.3
350.808	280.57
351.26	285.25
351.711	301.64
352.163	299.3
352.615	273.55
353.066	292.27
353.518	336.74
353.969	308.66
354.421	287.59
354.872	303.98
355.324	332.06
355.775	268.87
356.226	306.32
356.677	325.04
357.128	313.34
357.579	350.79
358.03	329.72
358.481	339.09
358.932	311
359.383	289.93
359.834	303.98
360.285	299.3
360.735	313.34
361.186	303.98
361.637	371.85
362.087	294.61
362.538	339.09
362.988	257.17
363.438	341.43
363.889	315.68
364.339	318.02
364.789	364.83
365.239	299.3
365.689	350.79
366.139	399.94
366.589	353.13
367.039	325.04
367.489	362.49
367.939	346.11
368.389	311
368.839	282.91
369.288	278.23
369.738	357.81
370.187	315.68
370.637	318.02
371.086	341.43
371.536	320.36
371.985	378.87
372.434	348.45
372.884	334.4
373.333	294.61
373.782	308.66
374.231	299.3
374.68	327.38
375.129	320.36
375.578	271.21
376.027	301.64
376.475	367.17
376.924	315.68
377.373	313.34
377.822	320.36
378.27	355.47
378.719	299.3
379.167	320.36
379.616	294.61
380.064	280.57
380.512	292.27
380.961	339.09
381.409	336.74
381.857	327.38
382.305	282.91
382.753	271.21
383.201	266.53
383.649	325.04
384.097	292.27
384.545	355.47
384.992	315.68
385.44	332.06
385.888	315.68
386.335	275.89
386.783	357.81
387.231	367.17
387.678	332.06
388.125	339.09
388.573	430.37
389.02	313.34
389.467	336.74
389.914	369.51
390.362	369.51
390.809	357.81
391.256	313.34
391.703	334.4
392.15	322.7
392.596	378.87
393.043	299.3
393.49	280.57
393.937	306.32
394.383	243.12
394.83	303.98
395.276	320.36
395.723	395.26
396.169	278.23
396.616	254.83
397.062	243.12
397.508	257.17
397.954	332.06
398.401	325.04
398.847	360.15
399.293	362.49
399.739	318.02
400.185	313.34
400.631	353.13
401.076	341.43
401.522	343.77
401.968	395.26
402.414	322.7
402.859	339.09
403.305	318.02
403.75	343.77
404.196	360.15
404.641	346.11
405.086	355.47
405.532	334.4
405.977	325.04
406.422	322.7
406.867	390.58
407.312	353.13
407.757	292.27
408.202	292.27
408.647	332.06
409.092	325.04
409.537	329.72
409.982	425.68
410.426	313.34
410.871	252.49
411.316	334.4
411.76	336.74
412.205	341.43
412.649	318.02
413.093	343.77
413.538	334.4
413.982	311
414.426	350.79
414.87	357.81
415.314	315.68
415.758	320.36
416.202	318.02
416.646	350.79
417.09	360.15
417.534	395.26
417.978	346.11
418.421	334.4
418.865	299.3
419.309	313.34
419.752	303.98
420.196	343.77
420.639	278.23
421.083	343.77
421.526	318.02
421.969	346.11
422.412	376.53
422.856	404.62
423.299	343.77
423.742	362.49
424.185	334.4
424.628	336.74
425.071	374.19
425.513	395.26
425.956	381.21
426.399	371.85
426.842	329.72
427.284	362.49
427.727	355.47
428.169	390.58
428.612	343.77
429.054	383.56
429.497	315.68
429.939	404.62
430.381	296.96
430.823	371.85
431.265	329.72
431.707	357.81
432.149	355.47
432.591	390.58
433.033	329.72
433.475	355.47
433.917	392.92
434.359	432.71
434.8	479.52
435.242	523.99
435.684	535.69
436.125	460.79
436.567	444.41
437.008	435.05
437.449	470.16
437.891	495.9
438.332	397.6
438.773	425.68
439.214	425.68
439.656	439.73
440.097	432.71
440.538	444.41
440.978	378.87
441.419	402.28
441.86	442.07
442.301	458.45
442.742	444.41
443.182	444.41
443.623	470.16
444.063	388.24
444.504	502.92
444.944	519.31
445.385	435.05
445.825	388.24
446.265	477.18
446.706	507.6
447.146	435.05
447.586	505.26
448.026	481.86
448.466	516.97
448.906	542.71
449.346	458.45
449.786	488.88
450.225	435.05
450.665	411.64
451.105	428.03
451.544	432.71
451.984	439.73
452.424	467.81
452.863	442.07
453.302	484.2
453.742	406.96
454.181	493.56
454.62	423.34
455.059	416.32
455.499	418.66
455.938	430.37
456.377	339.09
456.816	369.51
457.254	397.6
457.693	395.26
458.132	404.62
458.571	481.86
459.01	439.73
459.448	369.51
459.887	430.37
460.325	378.87
460.764	374.19
461.202	376.53
461.641	435.05
462.079	479.52
462.517	341.43
462.955	376.53
463.393	449.09
463.832	374.19
464.27	364.83
464.708	378.87
465.145	388.24
465.583	390.58
466.021	376.53
466.459	390.58
466.897	421
467.334	388.24
467.772	357.81
468.209	360.15
468.647	343.77
469.084	292.27
469.522	411.64
469.959	467.81
470.396	336.74
470.833	381.21
471.271	406.96
471.708	428.03
472.145	442.07
472.582	367.17
473.019	390.58
473.456	327.38
473.892	390.58
474.329	392.92
474.766	364.83
475.202	395.26
475.639	339.09
476.076	362.49
476.512	404.62
476.949	339.09
477.385	374.19
477.821	402.28
478.258	371.85
478.694	406.96
479.13	392.92
479.566	442.07
480.002	409.3
480.438	367.17
480.874	402.28
481.31	348.45
481.746	374.19
482.181	395.26
482.617	388.24
483.053	399.94
483.488	458.45
483.924	451.43
484.36	360.15
484.795	383.56
485.23	428.03
485.666	404.62
486.101	397.6
486.536	397.6
486.971	451.43
487.407	399.94
487.842	449.09
488.277	430.37
488.712	397.6
489.146	439.73
489.581	428.03
490.016	371.85
490.451	315.68
490.885	383.56
491.32	428.03
491.755	371.85
492.189	367.17
492.624	395.26
493.058	484.2
493.492	376.53
493.927	409.3
494.361	341.43
494.795	421
495.229	367.17
495.663	430.37
496.097	428.03
496.531	360.15
496.965	428.03
497.399	327.38
497.833	418.66
498.266	353.13
498.7	425.68
499.134	404.62
499.567	371.85
500.001	367.17
500.434	432.71
500.868	369.51
501.301	369.51
501.734	381.21
502.168	411.64
502.601	406.96
503.034	388.24
503.467	392.92
503.9	381.21
504.333	362.49
504.766	430.37
505.199	355.47
505.632	311
506.064	376.53
506.497	339.09
506.93	395.26
507.362	399.94
507.795	425.68
508.227	318.02
508.66	383.56
509.092	378.87
509.524	413.98
509.956	378.87
510.389	362.49
510.821	404.62
511.253	402.28
511.685	402.28
512.117	406.96
512.549	418.66
512.981	388.24
513.412	399.94
513.844	390.58
514.276	491.22
514.707	507.6
515.139	430.37
515.571	399.94
516.002	399.94
516.433	435.05
516.865	374.19
517.296	329.72
517.727	409.3
518.159	367.17
518.59	369.51
519.021	371.85
519.452	411.64
519.883	381.21
520.314	350.79
520.744	383.56
521.175	385.9
521.606	385.9
522.037	376.53
522.467	430.37
522.898	399.94
523.328	397.6
523.759	463.13
524.189	439.73
524.62	432.71
525.05	418.66
525.48	383.56
525.91	374.19
526.341	413.98
526.771	449.09
527.201	446.75
527.631	418.66
528.061	376.53
528.49	519.31
528.92	428.03
529.35	418.66
529.78	315.68
530.209	397.6
530.639	355.47
531.068	451.43
531.498	371.85
531.927	418.66
532.357	392.92
532.786	395.26
533.215	421
533.644	385.9
534.074	404.62
534.503	287.59
534.932	406.96
535.361	437.39
535.79	374.19
536.218	369.51
536.647	516.97
537.076	458.45
537.505	399.94
537.933	399.94
538.362	528.67
538.79	477.18
539.219	456.11
539.647	531.01
540.076	516.97
540.504	523.99
540.932	521.65
541.36	629.31
541.788	643.35
542.217	711.23
542.645	694.85
543.073	718.25
543.5	687.82
543.928	760.38
544.356	648.04
544.784	767.4
545.211	741.66
545.639	669.1
546.067	626.97
546.494	687.82
546.922	662.08
547.349	533.35
547.776	505.26
548.204	479.52
548.631	472.5
549.058	409.3
549.485	474.84
549.912	488.88
550.339	444.41
550.766	444.41
551.193	470.16
551.62	442.07
552.047	481.86
552.474	463.13
552.9	430.37
553.327	519.31
553.754	486.54
554.18	439.73
554.607	416.32
555.033	432.71
555.459	491.22
555.886	413.98
556.312	409.3
556.738	388.24
557.164	411.64
557.59	514.63
558.016	430.37
558.442	395.26
558.868	383.56
559.294	470.16
559.72	371.85
560.145	428.03
560.571	378.87
560.997	348.45
561.422	378.87
561.848	376.53
562.273	362.49
562.699	378.87
563.124	364.83
563.549	444.41
563.974	435.05
564.4	437.39
564.825	430.37
565.25	339.09
565.675	449.09
566.1	472.5
566.525	371.85
566.95	357.81
567.374	411.64
567.799	418.66
568.224	350.79
568.648	353.13
569.073	411.64
569.497	413.98
569.922	404.62
570.346	392.92
570.771	409.3
571.195	395.26
571.619	364.83
572.043	378.87
572.467	371.85
572.891	362.49
573.315	350.79
573.739	385.9
574.163	383.56
574.587	357.81
575.011	423.34
575.435	383.56
575.858	439.73
576.282	409.3
576.705	383.56
577.129	406.96
577.552	357.81
577.976	460.79
578.399	385.9
578.822	385.9
579.245	383.56
579.669	406.96
580.092	458.45
580.515	369.51
580.938	453.77
581.361	456.11
581.784	430.37
582.206	404.62
582.629	463.13
583.052	467.81
583.474	442.07
583.897	413.98
584.32	406.96
584.742	481.86
585.165	484.2
585.587	439.73
586.009	491.22
586.431	467.81
586.854	477.18
587.276	484.2
587.698	404.62
588.12	472.5
588.542	493.56
588.964	451.43
589.386	409.3
589.807	449.09
590.229	435.05
590.651	451.43
591.073	458.45
591.494	357.81
591.916	390.58
592.337	378.87
592.759	378.87
593.18	395.26
593.601	402.28
594.022	339.09
594.444	392.92
594.865	364.83
595.286	481.86
595.707	404.62
596.128	453.77
596.549	381.21
596.97	446.75
597.39	336.74
597.811	397.6
598.232	388.24
598.652	399.94
599.073	395.26
599.494	376.53
599.914	392.92
600.334	332.06
600.755	348.45
601.175	355.47
601.595	392.92
602.015	385.9
602.436	402.28
602.856	505.26
603.276	460.79
603.696	362.49
604.115	322.7
604.535	376.53
604.955	381.21
605.375	392.92
605.794	399.94
606.214	411.64
606.634	421
607.053	474.84
607.473	418.66
607.892	442.07
608.311	432.71
608.731	442.07
609.15	535.69
609.569	573.14
609.988	641.01
610.407	687.82
610.826	804.85
611.245	772.08
611.664	781.45
612.083	603.57
612.501	622.29
612.92	582.5
613.339	561.44
613.757	528.67
614.176	556.75
614.594	495.9
615.013	523.99
615.431	413.98
615.85	472.5
616.268	406.96
616.686	423.34
617.104	437.39
617.522	421
617.94	327.38
618.358	444.41
618.776	369.51
619.194	442.07
619.612	413.98
620.03	381.21
620.447	444.41
620.865	369.51
621.282	411.64
621.7	435.05
622.117	413.98
622.535	392.92
622.952	463.13
623.369	404.62
623.787	388.24
624.204	346.11
624.621	432.71
625.038	327.38
625.455	327.38
625.872	313.34
626.289	371.85
626.706	364.83
627.123	334.4
627.539	371.85
627.956	280.57
628.373	362.49
628.789	367.17
629.206	493.56
629.622	376.53
630.038	395.26
630.455	376.53
630.871	388.24
631.287	395.26
631.703	332.06
632.12	435.05
632.536	341.43
632.952	355.47
633.368	355.47
633.783	313.34
634.199	374.19
634.615	378.87
635.031	329.72
635.446	404.62
635.862	378.87
636.277	325.04
636.693	369.51
637.108	350.79
637.524	360.15
637.939	346.11
638.354	301.64
638.77	355.47
639.185	341.43
639.6	271.21
640.015	348.45
640.43	341.43
640.845	301.64
641.259	341.43
641.674	329.72
642.089	355.47
642.504	318.02
642.918	266.53
643.333	322.7
643.747	318.02
644.162	348.45
644.576	343.77
644.991	275.89
645.405	336.74
645.819	376.53
646.233	388.24
646.647	306.32
647.061	364.83
647.475	301.64
647.889	299.3
648.303	280.57
648.717	343.77
649.131	371.85
649.545	313.34
649.958	334.4
650.372	385.9
650.785	348.45
651.199	353.13
651.612	280.57
652.026	357.81
652.439	318.02
652.852	275.89
653.266	292.27
653.679	315.68
654.092	355.47
654.505	334.4
654.918	318.02
655.331	397.6
655.744	273.55
656.156	371.85
656.569	339.09
656.982	339.09
657.394	397.6
657.807	299.3
658.22	432.71
658.632	336.74
659.044	313.34
659.457	364.83
659.869	301.64
660.281	360.15
660.693	278.23
661.106	322.7
661.518	292.27
661.93	383.56
662.342	322.7
662.754	367.17
663.165	327.38
663.577	327.38
663.989	404.62
664.401	355.47
664.812	346.11
665.224	301.64
665.635	339.09
666.047	341.43
666.458	334.4
666.869	315.68
667.281	360.15
667.692	355.47
668.103	336.74
668.514	306.32
668.925	381.21
669.336	378.87
669.747	301.64
670.158	339.09
670.569	339.09
670.979	339.09
671.39	341.43
671.801	257.17
672.211	275.89
672.622	346.11
673.032	397.6
673.443	313.34
673.853	369.51
674.263	275.89
674.674	353.13
675.084	355.47
675.494	336.74
675.904	280.57
676.314	285.25
676.724	329.72
677.134	376.53
677.544	287.59
677.953	348.45
678.363	299.3
678.773	336.74
679.182	308.66
679.592	329.72
680.001	332.06
680.411	339.09
680.82	357.81
681.23	339.09
681.639	280.57
682.048	369.51
682.457	322.7
682.866	299.3
683.275	313.34
683.684	287.59
684.093	280.57
684.502	346.11
684.911	292.27
685.32	308.66
685.728	296.96
686.137	306.32
686.546	371.85
686.954	341.43
687.363	287.59
687.771	329.72
688.179	334.4
688.588	325.04
688.996	364.83
689.404	362.49
689.812	397.6
690.22	292.27
690.628	381.21
691.036	329.72
691.444	273.55
691.852	350.79
692.26	360.15
692.667	343.77
693.075	332.06
693.483	392.92
693.89	299.3
694.298	313.34
694.705	329.72
695.112	346.11
695.52	357.81
695.927	278.23
696.334	294.61
696.741	327.38
697.148	306.32
697.555	275.89
697.962	306.32
698.369	332.06
698.776	353.13
699.183	325.04
699.59	360.15
699.996	273.55
700.403	266.53
700.81	296.96
701.216	339.09
701.623	308.66
702.029	285.25
702.435	308.66
702.842	301.64
703.248	313.34
703.654	334.4
704.06	313.34
704.466	236.1
704.872	336.74
705.278	308.66
705.684	315.68
706.09	350.79
706.496	322.7
706.901	367.17
707.307	343.77
707.712	343.77
708.118	360.15
708.523	397.6
708.929	346.11
709.334	334.4
709.74	334.4
710.145	341.43
710.55	346.11
710.955	362.49
711.36	353.13
711.765	353.13
712.17	360.15
712.575	339.09
712.98	1125.51
713.385	311
713.789	367.17
714.194	327.38
714.599	374.19
715.003	299.3
715.408	252.49
715.812	233.76
716.217	287.59
716.621	259.51
717.025	292.27
717.429	296.96
717.833	273.55
718.238	306.32
718.642	268.87
719.046	271.21
719.449	357.81
719.853	322.7
720.257	334.4
720.661	273.55
721.065	315.68
721.468	346.11
721.872	289.93
722.275	320.36
722.679	388.24
723.082	315.68
723.485	296.96
723.889	296.96
724.292	322.7
724.695	322.7
725.098	339.09
725.501	273.55
725.904	296.96
726.307	266.53
726.71	327.38
727.113	336.74
727.516	294.61
727.918	399.94
728.321	308.66
728.724	296.96
729.126	254.83
729.529	369.51
729.931	343.77
730.333	320.36
730.736	325.04
731.138	289.93
731.54	289.93
731.942	348.45
732.344	336.74
732.746	362.49
733.148	325.04
733.55	334.4
733.952	318.02
734.354	329.72
734.756	315.68
735.157	329.72
735.559	306.32
735.96	329.72
736.362	360.15
736.763	311
737.165	332.06
737.566	343.77
737.967	318.02
738.368	355.47
738.77	322.7
739.171	350.79
739.572	296.96
739.973	311
740.374	315.68
740.774	299.3
741.175	341.43
741.576	245.46
741.977	289.93
742.377	311
742.778	282.91
743.178	289.93
743.579	294.61
743.979	315.68
744.379	346.11
744.78	383.56
745.18	311
745.58	280.57
745.98	292.27
746.38	362.49
746.78	287.59
747.18	308.66
747.58	381.21
747.98	327.38
748.38	282.91
748.779	292.27
749.179	278.23
749.578	348.45
749.978	339.09
750.377	327.38
750.777	322.7
751.176	320.36
751.575	369.51
751.975	341.43
752.374	311
752.773	280.57
753.172	350.79
753.571	299.3
753.97	346.11
754.369	303.98
754.768	287.59
755.166	299.3
755.565	301.64
755.964	306.32
756.362	332.06
756.761	282.91
757.159	287.59
757.558	336.74
757.956	282.91
758.354	341.43
758.753	378.87
759.151	367.17
759.549	339.09
759.947	303.98
760.345	289.93
760.743	332.06
761.141	341.43
761.539	327.38
761.936	294.61
762.334	315.68
762.732	303.98
763.129	303.98
763.527	282.91
763.924	303.98
764.322	301.64
764.719	332.06
765.117	327.38
765.514	275.89
765.911	303.98
766.308	355.47
766.705	313.34
767.102	306.32
767.499	271.21
767.896	275.89
768.293	320.36
768.69	313.34
769.086	343.77
769.483	301.64
769.88	313.34
770.276	406.96
770.673	285.25
771.069	296.96
771.466	374.19
771.862	369.51
772.258	289.93
772.654	388.24
773.05	376.53
773.447	367.17
773.843	383.56
774.239	236.1
774.634	266.53
775.03	322.7
775.426	285.25
775.822	296.96
776.218	350.79
776.613	303.98
777.009	346.11
777.404	318.02
777.8	231.42
778.195	294.61
778.59	332.06
778.986	296.96
779.381	385.9
779.776	306.32
780.171	327.38
780.566	341.43
780.961	292.27
781.356	280.57
781.751	348.45
782.146	362.49
782.54	327.38
782.935	369.51
783.33	236.1
783.724	346.11
784.119	311
784.513	287.59
784.908	303.98
785.302	350.79
785.696	301.64
786.09	327.38
786.485	315.68
786.879	327.38
787.273	327.38
787.667	332.06
788.061	292.27
788.454	343.77
788.848	292.27
789.242	311
789.636	271.21
790.029	275.89
790.423	311
790.816	280.57
791.21	266.53
791.603	301.64
791.997	364.83
792.39	341.43
792.783	273.55
793.176	336.74
793.569	355.47
793.962	254.83
794.355	308.66
794.748	364.83
795.141	371.85
795.534	268.87
795.927	303.98
796.319	306.32
796.712	353.13
797.105	357.81
797.497	357.81
797.89	332.06
798.282	282.91
798.674	282.91
799.067	285.25
799.459	313.34
799.851	294.61
800.243	322.7
800.635	341.43
801.027	332.06
801.419	341.43
801.811	322.7
802.203	336.74
802.594	332.06
802.986	275.89
803.378	266.53
803.769	299.3
804.161	282.91
804.552	261.85
804.944	350.79
805.335	313.34
805.726	348.45
806.118	308.66
806.509	250.14
806.9	303.98
807.291	294.61
807.682	266.53
808.073	348.45
808.464	348.45
808.855	285.25
809.245	332.06
809.636	388.24
810.027	350.79
810.417	350.79
810.808	374.19
811.198	341.43
811.589	313.34
811.979	289.93
812.369	308.66
812.759	282.91
813.15	336.74
813.54	280.57
813.93	311
814.32	315.68
814.71	355.47
815.1	315.68
815.489	329.72
815.879	318.02
816.269	306.32
816.658	367.17
817.048	320.36
817.438	369.51
817.827	320.36
818.216	264.19
818.606	369.51
818.995	332.06
819.384	318.02
819.773	266.53
820.163	266.53
820.552	285.25
820.941	355.47
821.33	311
821.718	313.34
822.107	313.34
822.496	275.89
822.885	329.72
823.273	322.7
823.662	318.02
824.05	280.57
824.439	285.25
824.827	313.34
825.216	303.98
825.604	306.32
825.992	353.13
826.38	219.72
826.768	360.15
827.156	322.7
827.544	357.81
827.932	315.68
828.32	360.15
828.708	275.89
829.096	346.11
829.483	327.38
829.871	339.09
830.259	322.7
830.646	308.66
831.034	264.19
831.421	311
831.808	360.15
832.196	327.38
832.583	306.32
832.97	257.17
833.357	346.11
833.744	299.3
834.131	315.68
834.518	334.4
834.905	341.43
835.292	278.23
835.678	278.23
836.065	385.9
836.452	334.4
836.838	332.06
837.225	320.36
837.611	357.81
837.998	318.02
838.384	282.91
838.77	271.21
839.157	285.25
839.543	322.7
839.929	264.19
840.315	336.74
840.701	287.59
841.087	318.02
841.473	294.61
841.858	322.7
842.244	348.45
842.63	306.32
843.015	254.83
843.401	795.49
843.787	257.17
844.172	275.89
844.557	367.17
844.943	322.7
845.328	306.32
845.713	341.43
846.098	299.3
846.483	336.74
846.868	332.06
847.253	296.96
847.638	318.02
848.023	292.27
848.408	334.4
848.793	280.57
849.177	325.04
849.562	278.23
849.947	346.11
850.331	306.32
850.715	362.49
851.1	325.04
851.484	282.91
851.868	240.78
852.253	306.32
852.637	320.36
853.021	259.51
853.405	416.32
853.789	362.49
854.173	320.36
854.557	308.66
854.94	339.09
855.324	378.87
855.708	292.27
856.091	341.43
856.475	329.72
856.858	303.98
857.242	303.98
857.625	271.21
858.009	332.06
858.392	322.7
858.775	341.43
859.158	294.61
859.541	245.46
859.924	271.21
860.307	257.17
860.69	360.15
861.073	313.34
861.456	229.08
861.838	306.32
862.221	308.66
862.604	336.74
862.986	364.83
863.369	346.11
863.751	282.91
864.133	325.04
864.516	273.55
864.898	376.53
865.28	404.62
865.662	313.34
866.044	268.87
866.426	350.79
866.808	303.98
867.19	346.11
867.572	275.89
867.954	339.09
868.336	336.74
868.717	285.25
869.099	273.55
869.48	299.3
869.862	350.79
870.243	250.14
870.625	364.83
871.006	336.74
871.387	357.81
871.768	322.7
872.149	334.4
872.53	311
872.911	362.49
873.292	285.25
873.673	261.85
874.054	264.19
874.435	308.66
874.815	254.83
875.196	341.43
875.577	311
875.957	322.7
876.338	264.19
876.718	322.7
877.098	313.34
877.479	322.7
877.859	285.25
878.239	332.06
878.619	327.38
878.999	322.7
879.379	327.38
879.759	308.66
880.139	327.38
880.519	292.27
880.898	303.98
881.278	315.68
881.658	325.04
882.037	437.39
882.417	308.66
882.796	346.11
883.176	362.49
883.555	320.36
883.934	334.4
884.313	301.64
884.693	236.1
885.072	311
885.451	285.25
885.83	282.91
886.209	275.89
886.587	266.53
886.966	336.74
887.345	266.53
887.724	271.21
888.102	332.06
888.481	289.93
888.859	334.4
889.238	308.66
889.616	357.81
889.994	336.74
890.373	362.49
890.751	282.91
891.129	320.36
891.507	332.06
891.885	306.32
892.263	311
892.641	336.74
893.019	332.06
893.396	299.3
893.774	320.36
894.152	285.25
894.529	320.36
894.907	266.53
895.284	325.04
895.662	275.89
896.039	327.38
896.416	364.83
896.794	243.12
897.171	339.09
897.548	327.38
897.925	306.32
898.302	357.81
898.679	367.17
899.056	378.87
899.433	268.87
899.809	315.68
900.186	308.66
900.563	350.79
900.939	252.49
901.316	409.3
901.692	306.32
902.069	287.59
902.445	285.25
902.821	334.4
903.197	348.45
903.574	306.32
903.95	282.91
904.326	327.38
904.702	292.27
905.078	364.83
905.454	278.23
905.829	294.61
906.205	254.83
906.581	332.06
906.956	362.49
907.332	315.68
907.707	318.02
908.083	346.11
908.458	355.47
908.833	353.13
909.209	320.36
909.584	329.72
909.959	343.77
910.334	320.36
910.709	240.78
911.084	350.79
911.459	364.83
911.834	334.4
912.209	252.49
912.583	268.87
912.958	261.85
913.333	306.32
913.707	245.46
914.082	329.72
914.456	268.87
914.83	306.32
915.205	296.96
915.579	336.74
915.953	252.49
916.327	348.45
916.701	329.72
917.075	367.17
917.449	296.96
917.823	334.4
918.197	322.7
918.571	294.61
918.944	261.85
919.318	353.13
919.692	240.78
920.065	378.87
920.438	346.11
920.812	348.45
921.185	301.64
921.558	273.55
921.932	261.85
922.305	371.85
922.678	332.06
923.051	355.47
923.424	252.49
923.797	264.19
924.17	329.72
924.542	346.11
924.915	381.21
925.288	362.49
925.661	280.57
926.033	271.21
926.406	282.91
926.778	306.32
927.15	254.83
927.523	259.51
927.895	259.51
928.267	308.66
928.639	311
929.011	308.66
929.383	320.36
929.755	287.59
930.127	334.4
930.499	308.66
930.871	339.09
931.242	360.15
931.614	301.64
931.986	311
932.357	259.51
932.729	341.43
933.1	308.66
933.471	280.57
933.843	294.61
934.214	385.9
934.585	289.93
934.956	273.55
935.327	315.68
935.698	299.3
936.069	322.7
936.44	362.49
936.811	308.66
937.182	367.17
937.552	343.77
937.923	327.38
938.293	282.91
938.664	334.4
939.034	383.56
939.405	334.4
939.775	278.23
940.145	257.17
940.516	287.59
940.886	311
941.256	353.13
941.626	348.45
941.996	266.53
942.366	268.87
942.735	369.51
943.105	292.27
943.475	289.93
943.845	360.15
944.214	273.55
944.584	303.98
944.953	350.79
945.323	357.81
945.692	350.79
946.061	341.43
946.43	275.89
946.8	266.53
947.169	341.43
947.538	327.38
947.907	313.34
948.276	327.38
948.645	303.98
949.013	261.85
949.382	315.68
949.751	280.57
950.119	320.36
950.488	332.06
950.857	311
951.225	311
951.593	320.36
951.962	350.79
952.33	378.87
952.698	355.47
953.066	313.34
953.434	294.61
953.802	322.7
954.17	294.61
954.538	264.19
954.906	332.06
955.274	257.17
955.642	318.02
956.009	285.25
956.377	336.74
956.744	308.66
957.112	355.47
957.479	339.09
957.847	280.57
958.214	343.77
958.581	306.32
958.948	353.13
959.315	266.53
959.683	329.72
960.05	320.36
960.416	282.91
960.783	334.4
961.15	294.61
961.517	294.61
961.884	327.38
962.25	313.34
962.617	357.81
962.983	275.89
963.35	313.34
963.716	268.87
964.082	266.53
964.449	299.3
964.815	360.15
965.181	280.57
965.547	268.87
965.913	275.89
966.279	273.55
966.645	308.66
967.011	245.46
967.377	306.32
967.742	299.3
968.108	318.02
968.474	413.98
968.839	299.3
969.205	301.64
969.57	329.72
969.935	282.91
970.301	275.89
970.666	329.72
971.031	261.85
971.396	332.06
971.761	346.11
972.126	266.53
972.491	327.38
972.856	315.68
973.221	327.38
973.586	348.45
973.95	294.61
974.315	325.04
974.679	311
975.044	348.45
975.408	327.38
975.773	285.25
976.137	306.32
976.501	271.21
976.866	294.61
977.23	268.87
977.594	294.61
977.958	306.32
978.322	254.83
978.686	332.06
979.049	353.13
979.413	303.98
979.777	268.87
980.141	374.19
980.504	308.66
980.868	311
981.231	280.57
981.595	212.7
981.958	306.32
982.321	282.91
982.684	303.98
983.048	301.64
983.411	311
983.774	311
984.137	327.38
984.5	257.17
984.862	332.06
985.225	341.43
985.588	280.57
985.951	334.4
986.313	243.12
986.676	341.43
987.038	322.7
987.401	301.64
987.763	296.96
988.125	264.19
988.488	308.66
988.85	299.3
989.212	341.43
989.574	376.53
989.936	299.3
990.298	306.32
990.66	325.04
991.022	280.57
991.383	275.89
991.745	329.72
992.107	296.96
992.468	254.83
992.83	367.17
993.191	336.74
993.553	280.57
993.914	287.59
994.275	383.56
994.637	374.19
994.998	325.04
995.359	334.4
995.72	315.68
996.081	320.36
996.442	343.77
996.803	357.81
997.163	273.55
997.524	278.23
997.885	341.43
998.245	381.21
998.606	336.74
998.966	303.98
999.327	278.23
999.687	346.11
1000.047	282.91
1000.408	339.09
1000.768	341.43
1001.128	292.27
1001.488	343.77
1001.848	299.3
1002.208	257.17
1002.568	257.17
1002.927	275.89
1003.287	226.74
1003.647	367.17
1004.007	327.38
1004.366	322.7
1004.726	261.85
1005.085	341.43
1005.444	341.43
1005.804	301.64
1006.163	318.02
1006.522	348.45
1006.881	275.89
1007.24	247.8
1007.599	332.06
1007.958	264.19
1008.317	252.49
1008.676	327.38
1009.035	350.79
1009.393	364.83
1009.752	261.85
1010.111	329.72
1010.469	287.59
1010.828	261.85
1011.186	339.09
1011.544	320.36
1011.903	308.66
1012.261	292.27
1012.619	278.23
1012.977	318.02
1013.335	406.96
1013.693	296.96
1014.051	299.3
1014.409	273.55
1014.767	301.64
1015.124	374.19
1015.482	320.36
1015.84	311
1016.197	280.57
1016.555	280.57
1016.912	329.72
1017.269	275.89
1017.627	294.61
1017.984	311
1018.341	348.45
1018.698	285.25
1019.055	322.7
1019.412	308.66
1019.769	322.7
1020.126	294.61
1020.483	336.74
1020.84	369.51
1021.196	329.72
1021.553	341.43
1021.909	285.25
1022.266	320.36
1022.622	327.38
1022.979	350.79
1023.335	360.15
1023.691	294.61
1024.047	341.43
1024.404	287.59
1024.76	322.7
1025.116	318.02
1025.472	374.19
1025.827	397.6
1026.183	339.09
1026.539	378.87
1026.895	292.27
1027.25	390.58
1027.606	313.34
1027.961	369.51
1028.317	313.34
1028.672	369.51
1029.028	357.81
1029.383	355.47
1029.738	332.06
1030.093	313.34
1030.448	374.19
1030.803	313.34
1031.158	339.09
1031.513	280.57
1031.868	285.25
1032.223	296.96
1032.577	266.53
1032.932	374.19
1033.287	339.09
1033.641	294.61
1033.996	268.87
1034.35	346.11
1034.704	254.83
1035.059	308.66
1035.413	341.43
1035.767	341.43
1036.121	341.43
