Data from Al_FLMS009871__843__15-31-14-994.txt Node

Date: Fri Mar 08 15:31:14 CST 2024
User: pe5414po
Spectrometer: FLMS00987
Trigger mode: 0
Integration Time (sec): 1.000000E-1
Scans to average: 1
Electric dark correction enabled: true
Nonlinearity correction enabled: false
Boxcar width: 0
XAxis mode: Wavelengths
Number of Pixels in Spectrum: 2048
>>>>>Begin Spectral Data<<<<<
188.938	-66.85
189.409	-66.85
189.879	-66.85
190.349	-153.45
190.819	-94.94
191.29	-113.66
191.76	-130.05
192.23	-139.41
192.7	-57.49
193.17	-48.13
193.64	-29.4
194.109	-36.42
194.579	-22.38
195.049	-52.81
195.519	64.22
195.988	22.09
196.458	113.37
196.927	115.71
197.397	71.24
197.866	148.48
198.336	94.65
198.805	183.59
199.274	178.9
199.744	214.01
200.213	190.61
200.682	202.31
201.151	153.16
201.62	281.89
202.089	237.42
202.558	281.89
203.027	223.37
203.495	216.35
203.964	225.72
204.433	300.61
204.902	239.76
205.37	265.5
205.839	309.97
206.307	347.42
206.776	267.85
207.244	302.95
207.712	244.44
208.181	319.34
208.649	333.38
209.117	260.82
209.585	309.97
210.053	300.61
210.521	300.61
210.989	302.95
211.457	274.87
211.925	277.21
212.393	300.61
212.861	239.76
213.328	253.8
213.796	295.93
214.264	242.1
214.731	263.16
215.199	293.59
215.666	249.12
216.133	279.55
216.601	293.59
217.068	253.8
217.535	258.48
218.003	270.19
218.47	331.04
218.937	244.44
219.404	272.53
219.871	307.63
220.338	331.04
220.805	225.72
221.271	258.48
221.738	305.29
222.205	302.95
222.671	324.02
223.138	263.16
223.605	265.5
224.071	246.78
224.538	295.93
225.004	223.37
225.47	291.25
225.937	258.48
226.403	244.44
226.869	195.29
227.335	218.69
227.801	277.21
228.267	274.87
228.733	295.93
229.199	228.06
229.665	263.16
230.131	218.69
230.597	258.48
231.062	214.01
231.528	258.48
231.994	253.8
232.459	277.21
232.925	326.36
233.39	284.23
233.856	232.74
234.321	263.16
234.786	190.61
235.252	209.33
235.717	305.29
236.182	279.55
236.647	319.34
237.112	253.8
237.577	244.44
238.042	181.25
238.507	274.87
238.972	309.97
239.436	263.16
239.901	267.85
240.366	281.89
240.83	235.08
241.295	281.89
241.76	328.7
242.224	237.42
242.688	239.76
243.153	277.21
243.617	258.48
244.081	230.4
244.545	235.08
245.01	279.55
245.474	321.68
245.938	237.42
246.402	237.42
246.866	352.1
247.33	256.14
247.793	263.16
248.257	277.21
248.721	249.12
249.185	260.82
249.648	286.57
250.112	272.53
250.575	345.08
251.039	242.1
251.502	321.68
251.965	288.91
252.429	305.29
252.892	331.04
253.355	265.5
253.818	281.89
254.281	251.46
254.744	340.4
255.207	295.93
255.67	272.53
256.133	295.93
256.596	302.95
257.059	235.08
257.522	242.1
257.984	267.85
258.447	251.46
258.909	281.89
259.372	328.7
259.834	317
260.297	293.59
260.759	307.63
261.221	211.67
261.684	221.03
262.146	251.46
262.608	314.66
263.07	307.63
263.532	284.23
263.994	228.06
264.456	284.23
264.918	326.36
265.38	256.14
265.842	281.89
266.303	300.61
266.765	338.06
267.227	279.55
267.688	286.57
268.15	319.34
268.611	272.53
269.072	244.44
269.534	274.87
269.995	279.55
270.456	314.66
270.918	253.8
271.379	239.76
271.84	235.08
272.301	307.63
272.762	317
273.223	324.02
273.684	284.23
274.144	272.53
274.605	340.4
275.066	284.23
275.527	260.82
275.987	249.12
276.448	281.89
276.908	239.76
277.369	309.97
277.829	340.4
278.289	307.63
278.75	328.7
279.21	302.95
279.67	249.12
280.13	319.34
280.59	237.42
281.05	286.57
281.51	295.93
281.97	293.59
282.43	300.61
282.89	267.85
283.35	246.78
283.809	321.68
284.269	253.8
284.729	281.89
285.188	288.91
285.648	216.35
286.107	244.44
286.567	202.31
287.026	305.29
287.485	368.49
287.944	295.93
288.404	295.93
288.863	270.19
289.322	288.91
289.781	221.03
290.24	288.91
290.699	326.36
291.158	298.27
291.616	265.5
292.075	298.27
292.534	302.95
292.992	288.91
293.451	317
293.91	324.02
294.368	274.87
294.827	267.85
295.285	265.5
295.743	288.91
296.202	317
296.66	305.29
297.118	265.5
297.576	324.02
298.034	279.55
298.492	354.44
298.95	312.32
299.408	221.03
299.866	270.19
300.324	298.27
300.781	326.36
301.239	305.29
301.697	312.32
302.154	270.19
302.612	293.59
303.069	321.68
303.527	307.63
303.984	281.89
304.441	340.4
304.899	277.21
305.356	309.97
305.813	312.32
306.27	267.85
306.727	356.79
307.184	349.76
307.641	258.48
308.098	305.29
308.555	312.32
309.012	319.34
309.468	258.48
309.925	317
310.382	331.04
310.838	277.21
311.295	286.57
311.751	293.59
312.208	270.19
312.664	272.53
313.12	307.63
313.577	345.08
314.033	286.57
314.489	298.27
314.945	305.29
315.401	260.82
315.857	335.72
316.313	298.27
316.769	279.55
317.225	270.19
317.681	307.63
318.136	312.32
318.592	326.36
319.048	284.23
319.503	288.91
319.959	256.14
320.414	314.66
320.869	288.91
321.325	305.29
321.78	279.55
322.235	295.93
322.691	321.68
323.146	321.68
323.601	279.55
324.056	293.59
324.511	279.55
324.966	295.93
325.421	277.21
325.875	298.27
326.33	277.21
326.785	307.63
327.24	335.72
327.694	317
328.149	387.21
328.603	345.08
329.058	340.4
329.512	331.04
329.966	349.76
330.421	319.34
330.875	335.72
331.329	338.06
331.783	333.38
332.237	277.21
332.691	347.42
333.145	368.49
333.599	305.29
334.053	345.08
334.507	331.04
334.96	295.93
335.414	272.53
335.868	214.01
336.321	345.08
336.775	389.55
337.228	326.36
337.682	352.1
338.135	368.49
338.588	345.08
339.042	331.04
339.495	288.91
339.948	274.87
340.401	286.57
340.854	274.87
341.307	258.48
341.76	349.76
342.213	286.57
342.666	279.55
343.119	300.61
343.571	298.27
344.024	309.97
344.477	288.91
344.929	317
345.382	253.8
345.834	218.69
346.287	230.4
346.739	274.87
347.191	288.91
347.644	249.12
348.096	328.7
348.548	242.1
349	309.97
349.452	274.87
349.904	218.69
350.356	366.15
350.808	321.68
351.26	319.34
351.711	216.35
352.163	272.53
352.615	305.29
353.066	286.57
353.518	352.1
353.969	309.97
354.421	281.89
354.872	307.63
355.324	326.36
355.775	340.4
356.226	249.12
356.677	333.38
357.128	265.5
357.579	317
358.03	324.02
358.481	288.91
358.932	312.32
359.383	342.74
359.834	302.95
360.285	326.36
360.735	317
361.186	324.02
361.637	326.36
362.087	324.02
362.538	321.68
362.988	321.68
363.438	321.68
363.889	312.32
364.339	293.59
364.789	333.38
365.239	281.89
365.689	277.21
366.139	314.66
366.589	305.29
367.039	270.19
367.489	277.21
367.939	307.63
368.389	321.68
368.839	312.32
369.288	335.72
369.738	302.95
370.187	274.87
370.637	267.85
371.086	281.89
371.536	373.17
371.985	277.21
372.434	235.08
372.884	274.87
373.333	291.25
373.782	288.91
374.231	298.27
374.68	225.72
375.129	370.83
375.578	347.42
376.027	270.19
376.475	349.76
376.924	295.93
377.373	345.08
377.822	249.12
378.27	284.23
378.719	300.61
379.167	345.08
379.616	317
380.064	373.17
380.512	370.83
380.961	361.47
381.409	312.32
381.857	335.72
382.305	307.63
382.753	284.23
383.201	293.59
383.649	291.25
384.097	349.76
384.545	363.81
384.992	277.21
385.44	272.53
385.888	319.34
386.335	309.97
386.783	359.13
387.231	232.74
387.678	263.16
388.125	300.61
388.573	328.7
389.02	277.21
389.467	312.32
389.914	338.06
390.362	324.02
390.809	352.1
391.256	340.4
391.703	352.1
392.15	314.66
392.596	345.08
393.043	340.4
393.49	281.89
393.937	288.91
394.383	331.04
394.83	359.13
395.276	295.93
395.723	263.16
396.169	331.04
396.616	314.66
397.062	281.89
397.508	307.63
397.954	258.48
398.401	272.53
398.847	359.13
399.293	305.29
399.739	298.27
400.185	298.27
400.631	291.25
401.076	267.85
401.522	326.36
401.968	298.27
402.414	274.87
402.859	309.97
403.305	302.95
403.75	317
404.196	307.63
404.641	267.85
405.086	352.1
405.532	324.02
405.977	317
406.422	335.72
406.867	279.55
407.312	312.32
407.757	345.08
408.202	410.62
408.647	293.59
409.092	335.72
409.537	319.34
409.982	359.13
410.426	340.4
410.871	305.29
411.316	326.36
411.76	300.61
412.205	328.7
412.649	328.7
413.093	349.76
413.538	293.59
413.982	328.7
414.426	253.8
414.87	258.48
415.314	230.4
415.758	314.66
416.202	380.19
416.646	286.57
417.09	302.95
417.534	298.27
417.978	307.63
418.421	317
418.865	326.36
419.309	319.34
419.752	326.36
420.196	293.59
420.639	340.4
421.083	265.5
421.526	277.21
421.969	284.23
422.412	338.06
422.856	277.21
423.299	352.1
423.742	242.1
424.185	324.02
424.628	328.7
425.071	265.5
425.513	246.78
425.956	326.36
426.399	288.91
426.842	328.7
427.284	380.19
427.727	295.93
428.169	331.04
428.612	326.36
429.054	300.61
429.497	298.27
429.939	237.42
430.381	324.02
430.823	312.32
431.265	300.61
431.707	251.46
432.149	324.02
432.591	279.55
433.033	253.8
433.475	309.97
433.917	270.19
434.359	293.59
434.8	312.32
435.242	319.34
435.684	281.89
436.125	246.78
436.567	295.93
437.008	342.74
437.449	286.57
437.891	314.66
438.332	277.21
438.773	302.95
439.214	302.95
439.656	293.59
440.097	293.59
440.538	302.95
440.978	324.02
441.419	267.85
441.86	291.25
442.301	328.7
442.742	253.8
443.182	349.76
443.623	307.63
444.063	342.74
444.504	305.29
444.944	309.97
445.385	324.02
445.825	326.36
446.265	368.49
446.706	321.68
447.146	281.89
447.586	279.55
448.026	326.36
448.466	375.51
448.906	300.61
449.346	291.25
449.786	326.36
450.225	335.72
450.665	291.25
451.105	291.25
451.544	361.47
451.984	293.59
452.424	331.04
452.863	277.21
453.302	253.8
453.742	331.04
454.181	309.97
454.62	244.44
455.059	288.91
455.499	305.29
455.938	295.93
456.377	272.53
456.816	291.25
457.254	312.32
457.693	274.87
458.132	251.46
458.571	309.97
459.01	366.15
459.448	366.15
459.887	347.42
460.325	373.17
460.764	384.87
461.202	277.21
461.641	249.12
462.079	277.21
462.517	317
462.955	352.1
463.393	317
463.832	443.39
464.27	382.53
464.708	349.76
465.145	340.4
465.583	321.68
466.021	441.04
466.459	349.76
466.897	281.89
467.334	324.02
467.772	300.61
468.209	305.29
468.647	314.66
469.084	356.79
469.522	317
469.959	328.7
470.396	298.27
470.833	321.68
471.271	370.83
471.708	312.32
472.145	342.74
472.582	288.91
473.019	277.21
473.456	331.04
473.892	342.74
474.329	321.68
474.766	317
475.202	331.04
475.639	295.93
476.076	317
476.512	305.29
476.949	340.4
477.385	305.29
477.821	265.5
478.258	288.91
478.694	242.1
479.13	333.38
479.566	340.4
480.002	319.34
480.438	302.95
480.874	293.59
481.31	284.23
481.746	319.34
482.181	380.19
482.617	384.87
483.053	300.61
483.488	370.83
483.924	338.06
484.36	274.87
484.795	338.06
485.23	319.34
485.666	270.19
486.101	319.34
486.536	366.15
486.971	380.19
487.407	356.79
487.842	331.04
488.277	295.93
488.712	319.34
489.146	256.14
489.581	319.34
490.016	347.42
490.451	307.63
490.885	324.02
491.32	295.93
491.755	281.89
492.189	295.93
492.624	317
493.058	288.91
493.492	317
493.927	221.03
494.361	321.68
494.795	251.46
495.229	265.5
495.663	270.19
496.097	354.44
496.531	324.02
496.965	279.55
497.399	333.38
497.833	288.91
498.266	317
498.7	270.19
499.134	265.5
499.567	317
500.001	293.59
500.434	349.76
500.868	265.5
501.301	319.34
501.734	279.55
502.168	342.74
502.601	366.15
503.034	333.38
503.467	352.1
503.9	274.87
504.333	317
504.766	319.34
505.199	312.32
505.632	298.27
506.064	328.7
506.497	307.63
506.93	295.93
507.362	286.57
507.795	307.63
508.227	333.38
508.66	340.4
509.092	345.08
509.524	265.5
509.956	382.53
510.389	312.32
510.821	286.57
511.253	368.49
511.685	300.61
512.117	326.36
512.549	295.93
512.981	298.27
513.412	305.29
513.844	352.1
514.276	302.95
514.707	298.27
515.139	251.46
515.571	345.08
516.002	340.4
516.433	333.38
516.865	321.68
517.296	279.55
517.727	354.44
518.159	309.97
518.59	335.72
519.021	253.8
519.452	321.68
519.883	274.87
520.314	319.34
520.744	340.4
521.175	314.66
521.606	277.21
522.037	366.15
522.467	281.89
522.898	333.38
523.328	307.63
523.759	359.13
524.189	258.48
524.62	408.28
525.05	321.68
525.48	293.59
525.91	342.74
526.341	321.68
526.771	274.87
527.201	333.38
527.631	286.57
528.061	307.63
528.49	319.34
528.92	324.02
529.35	302.95
529.78	279.55
530.209	326.36
530.639	338.06
531.068	349.76
531.498	305.29
531.927	331.04
532.357	382.53
532.786	272.53
533.215	324.02
533.644	345.08
534.074	267.85
534.503	354.44
534.932	291.25
535.361	288.91
535.79	298.27
536.218	317
536.647	279.55
537.076	291.25
537.505	331.04
537.933	312.32
538.362	317
538.79	331.04
539.219	263.16
539.647	333.38
540.076	408.28
540.504	293.59
540.932	324.02
541.36	314.66
541.788	368.49
542.217	377.85
542.645	281.89
543.073	326.36
543.5	265.5
543.928	314.66
544.356	319.34
544.784	380.19
545.211	317
545.639	291.25
546.067	335.72
546.494	291.25
546.922	284.23
547.349	274.87
547.776	356.79
548.204	326.36
548.631	230.4
549.058	342.74
549.485	272.53
549.912	267.85
550.339	345.08
550.766	307.63
551.193	363.81
551.62	281.89
552.047	331.04
552.474	340.4
552.9	382.53
553.327	312.32
553.754	328.7
554.18	291.25
554.607	277.21
555.033	307.63
555.459	249.12
555.886	366.15
556.312	305.29
556.738	293.59
557.164	307.63
557.59	265.5
558.016	244.44
558.442	284.23
558.868	291.25
559.294	317
559.72	314.66
560.145	347.42
560.571	324.02
560.997	309.97
561.422	340.4
561.848	312.32
562.273	366.15
562.699	288.91
563.124	417.64
563.549	319.34
563.974	309.97
564.4	319.34
564.825	368.49
565.25	302.95
565.675	305.29
566.1	328.7
566.525	347.42
566.95	272.53
567.374	389.55
567.799	321.68
568.224	380.19
568.648	309.97
569.073	263.16
569.497	298.27
569.922	286.57
570.346	293.59
570.771	295.93
571.195	281.89
571.619	335.72
572.043	331.04
572.467	272.53
572.891	298.27
573.315	328.7
573.739	274.87
574.163	314.66
574.587	286.57
575.011	321.68
575.435	267.85
575.858	286.57
576.282	312.32
576.705	302.95
577.129	333.38
577.552	331.04
577.976	312.32
578.399	305.29
578.822	286.57
579.245	349.76
579.669	295.93
580.092	286.57
580.515	331.04
580.938	321.68
581.361	272.53
581.784	260.82
582.206	345.08
582.629	342.74
583.052	305.29
583.474	333.38
583.897	274.87
584.32	354.44
584.742	317
585.165	317
585.587	317
586.009	319.34
586.431	288.91
586.854	288.91
587.276	363.81
587.698	335.72
588.12	328.7
588.542	288.91
588.964	307.63
589.386	251.46
589.807	223.37
590.229	281.89
590.651	340.4
591.073	321.68
591.494	256.14
591.916	265.5
592.337	305.29
592.759	342.74
593.18	300.61
593.601	352.1
594.022	314.66
594.444	256.14
594.865	317
595.286	347.42
595.707	326.36
596.128	298.27
596.549	366.15
596.97	307.63
597.39	319.34
597.811	363.81
598.232	317
598.652	291.25
599.073	251.46
599.494	281.89
599.914	377.85
600.334	293.59
600.755	333.38
601.175	307.63
601.595	347.42
602.015	328.7
602.436	277.21
602.856	457.43
603.276	363.81
603.696	305.29
604.115	295.93
604.535	293.59
604.955	312.32
605.375	232.74
605.794	317
606.214	326.36
606.634	328.7
607.053	319.34
607.473	251.46
607.892	373.17
608.311	298.27
608.731	328.7
609.15	258.48
609.569	302.95
609.988	302.95
610.407	321.68
610.826	352.1
611.245	359.13
611.664	267.85
612.083	309.97
612.501	309.97
612.92	354.44
613.339	324.02
613.757	331.04
614.176	347.42
614.594	230.4
615.013	302.95
615.431	293.59
615.85	309.97
616.268	338.06
616.686	279.55
617.104	291.25
617.522	272.53
617.94	366.15
618.358	324.02
618.776	246.78
619.194	361.47
619.612	281.89
620.03	253.8
620.447	279.55
620.865	338.06
621.282	340.4
621.7	286.57
622.117	314.66
622.535	340.4
622.952	333.38
623.369	319.34
623.787	326.36
624.204	307.63
624.621	295.93
625.038	265.5
625.455	324.02
625.872	312.32
626.289	279.55
626.706	317
627.123	281.89
627.539	349.76
627.956	314.66
628.373	228.06
628.789	331.04
629.206	267.85
629.622	342.74
630.038	335.72
630.455	305.29
630.871	305.29
631.287	265.5
631.703	317
632.12	363.81
632.536	321.68
632.952	265.5
633.368	286.57
633.783	293.59
634.199	293.59
634.615	342.74
635.031	244.44
635.446	284.23
635.862	286.57
636.277	202.31
636.693	321.68
637.108	305.29
637.524	295.93
637.939	307.63
638.354	354.44
638.77	272.53
639.185	312.32
639.6	373.17
640.015	288.91
640.43	340.4
640.845	333.38
641.259	305.29
641.674	307.63
642.089	321.68
642.504	324.02
642.918	317
643.333	401.26
643.747	335.72
644.162	352.1
644.576	288.91
644.991	317
645.405	302.95
645.819	307.63
646.233	326.36
646.647	345.08
647.061	228.06
647.475	277.21
647.889	340.4
648.303	284.23
648.717	307.63
649.131	291.25
649.545	279.55
649.958	314.66
650.372	324.02
650.785	274.87
651.199	319.34
651.612	288.91
652.026	288.91
652.439	312.32
652.852	305.29
653.266	239.76
653.679	270.19
654.092	317
654.505	319.34
654.918	260.82
655.331	298.27
655.744	312.32
656.156	274.87
656.569	361.47
656.982	265.5
657.394	317
657.807	295.93
658.22	314.66
658.632	284.23
659.044	286.57
659.457	321.68
659.869	293.59
660.281	293.59
660.693	333.38
661.106	246.78
661.518	305.29
661.93	277.21
662.342	267.85
662.754	274.87
663.165	314.66
663.577	293.59
663.989	354.44
664.401	354.44
664.812	239.76
665.224	312.32
665.635	249.12
666.047	354.44
666.458	293.59
666.869	317
667.281	347.42
667.692	312.32
668.103	307.63
668.514	347.42
668.925	279.55
669.336	235.08
669.747	281.89
670.158	307.63
670.569	338.06
670.979	354.44
671.39	328.7
671.801	328.7
672.211	326.36
672.622	347.42
673.032	284.23
673.443	324.02
673.853	300.61
674.263	321.68
674.674	305.29
675.084	277.21
675.494	354.44
675.904	305.29
676.314	281.89
676.724	317
677.134	345.08
677.544	298.27
677.953	293.59
678.363	347.42
678.773	335.72
679.182	298.27
679.592	335.72
680.001	384.87
680.411	338.06
680.82	260.82
681.23	317
681.639	363.81
682.048	295.93
682.457	324.02
682.866	335.72
683.275	270.19
683.684	326.36
684.093	377.85
684.502	312.32
684.911	345.08
685.32	293.59
685.728	317
686.137	258.48
686.546	300.61
686.954	340.4
687.363	281.89
687.771	242.1
688.179	331.04
688.588	347.42
688.996	281.89
689.404	309.97
689.812	279.55
690.22	319.34
690.628	253.8
691.036	295.93
691.444	314.66
691.852	260.82
692.26	305.29
692.667	305.29
693.075	331.04
693.483	349.76
693.89	307.63
694.298	373.17
694.705	396.57
695.112	380.19
695.52	286.57
695.927	331.04
696.334	349.76
696.741	300.61
697.148	260.82
697.555	326.36
697.962	281.89
698.369	333.38
698.776	206.99
699.183	345.08
699.59	288.91
699.996	333.38
700.403	377.85
700.81	291.25
701.216	345.08
701.623	298.27
702.029	331.04
702.435	291.25
702.842	258.48
703.248	340.4
703.654	307.63
704.06	342.74
704.466	361.47
704.872	345.08
705.278	281.89
705.684	359.13
706.09	349.76
706.496	331.04
706.901	288.91
707.307	305.29
707.712	338.06
708.118	300.61
708.523	342.74
708.929	321.68
709.334	312.32
709.74	300.61
710.145	333.38
710.55	265.5
710.955	295.93
711.36	272.53
711.765	333.38
712.17	279.55
712.575	319.34
712.98	785.1
713.385	300.61
713.789	326.36
714.194	293.59
714.599	309.97
715.003	349.76
715.408	267.85
715.812	302.95
716.217	291.25
716.621	333.38
717.025	347.42
717.429	298.27
717.833	324.02
718.238	314.66
718.642	321.68
719.046	300.61
719.449	345.08
719.853	293.59
720.257	340.4
720.661	272.53
721.065	361.47
721.468	288.91
721.872	361.47
722.275	309.97
722.679	291.25
723.082	246.78
723.485	288.91
723.889	302.95
724.292	272.53
724.695	211.67
725.098	352.1
725.501	345.08
725.904	342.74
726.307	244.44
726.71	279.55
727.113	302.95
727.516	331.04
727.918	274.87
728.321	370.83
728.724	251.46
729.126	295.93
729.529	272.53
729.931	319.34
730.333	284.23
730.736	321.68
731.138	312.32
731.54	300.61
731.942	300.61
732.344	422.32
732.746	342.74
733.148	305.29
733.55	342.74
733.952	300.61
734.354	216.35
734.756	288.91
735.157	284.23
735.559	307.63
735.96	291.25
736.362	277.21
736.763	312.32
737.165	384.87
737.566	312.32
737.967	328.7
738.368	265.5
738.77	272.53
739.171	319.34
739.572	277.21
739.973	295.93
740.374	277.21
740.774	305.29
741.175	380.19
741.576	312.32
741.977	228.06
742.377	359.13
742.778	321.68
743.178	349.76
743.579	361.47
743.979	333.38
744.379	375.51
744.78	300.61
745.18	328.7
745.58	349.76
745.98	307.63
746.38	319.34
746.78	352.1
747.18	305.29
747.58	314.66
747.98	317
748.38	291.25
748.779	293.59
749.179	349.76
749.578	326.36
749.978	288.91
750.377	347.42
750.777	328.7
751.176	328.7
751.575	326.36
751.975	335.72
752.374	263.16
752.773	291.25
753.172	314.66
753.571	274.87
753.97	293.59
754.369	352.1
754.768	281.89
755.166	317
755.565	263.16
755.964	324.02
756.362	293.59
756.761	314.66
757.159	331.04
757.558	319.34
757.956	312.32
758.354	366.15
758.753	331.04
759.151	342.74
759.549	338.06
759.947	338.06
760.345	253.8
760.743	300.61
761.141	326.36
761.539	291.25
761.936	361.47
762.334	249.12
762.732	324.02
763.129	317
763.527	286.57
763.924	349.76
764.322	368.49
764.719	274.87
765.117	302.95
765.514	359.13
765.911	272.53
766.308	305.29
766.705	281.89
767.102	295.93
767.499	324.02
767.896	347.42
768.293	298.27
768.69	295.93
769.086	284.23
769.483	307.63
769.88	356.79
770.276	317
770.673	359.13
771.069	286.57
771.466	293.59
771.862	295.93
772.258	317
772.654	366.15
773.05	293.59
773.447	272.53
773.843	373.17
774.239	307.63
774.634	305.29
775.03	309.97
775.426	314.66
775.822	331.04
776.218	345.08
776.613	335.72
777.009	305.29
777.404	317
777.8	324.02
778.195	288.91
778.59	312.32
778.986	331.04
779.381	321.68
779.776	302.95
780.171	349.76
780.566	291.25
780.961	277.21
781.356	305.29
781.751	356.79
782.146	216.35
782.54	366.15
782.935	359.13
783.33	265.5
783.724	309.97
784.119	286.57
784.513	272.53
784.908	319.34
785.302	361.47
785.696	300.61
786.09	391.89
786.485	286.57
786.879	277.21
787.273	331.04
787.667	300.61
788.061	302.95
788.454	326.36
788.848	288.91
789.242	305.29
789.636	300.61
790.029	338.06
790.423	326.36
790.816	340.4
791.21	340.4
791.603	295.93
791.997	295.93
792.39	298.27
792.783	281.89
793.176	249.12
793.569	335.72
793.962	307.63
794.355	326.36
794.748	328.7
795.141	317
795.534	331.04
795.927	321.68
796.319	321.68
796.712	309.97
797.105	274.87
797.497	338.06
797.89	235.08
798.282	375.51
798.674	347.42
799.067	258.48
799.459	267.85
799.851	305.29
800.243	314.66
800.635	366.15
801.027	293.59
801.419	284.23
801.811	270.19
802.203	242.1
802.594	328.7
802.986	352.1
803.378	347.42
803.769	298.27
804.161	321.68
804.552	305.29
804.944	293.59
805.335	342.74
805.726	317
806.118	277.21
806.509	260.82
806.9	314.66
807.291	354.44
807.682	293.59
808.073	331.04
808.464	331.04
808.855	335.72
809.245	218.69
809.636	291.25
810.027	281.89
810.417	309.97
810.808	256.14
811.198	352.1
811.589	295.93
811.979	291.25
812.369	300.61
812.759	338.06
813.15	256.14
813.54	284.23
813.93	272.53
814.32	286.57
814.71	291.25
815.1	295.93
815.489	342.74
815.879	258.48
816.269	302.95
816.658	319.34
817.048	349.76
817.438	302.95
817.827	279.55
818.216	361.47
818.606	356.79
818.995	333.38
819.384	267.85
819.773	321.68
820.163	321.68
820.552	352.1
820.941	312.32
821.33	293.59
821.718	230.4
822.107	333.38
822.496	335.72
822.885	309.97
823.273	295.93
823.662	302.95
824.05	335.72
824.439	265.5
824.827	291.25
825.216	293.59
825.604	300.61
825.992	326.36
826.38	272.53
826.768	375.51
827.156	314.66
827.544	277.21
827.932	279.55
828.32	305.29
828.708	300.61
829.096	298.27
829.483	298.27
829.871	363.81
830.259	279.55
830.646	300.61
831.034	293.59
831.421	256.14
831.808	279.55
832.196	284.23
832.583	253.8
832.97	263.16
833.357	286.57
833.744	274.87
834.131	352.1
834.518	347.42
834.905	314.66
835.292	270.19
835.678	258.48
836.065	312.32
836.452	328.7
836.838	345.08
837.225	349.76
837.611	279.55
837.998	333.38
838.384	300.61
838.77	307.63
839.157	319.34
839.543	293.59
839.929	293.59
840.315	319.34
840.701	251.46
841.087	333.38
841.473	272.53
841.858	291.25
842.244	305.29
842.63	302.95
843.015	302.95
843.401	618.93
843.787	314.66
844.172	377.85
844.557	356.79
844.943	319.34
845.328	361.47
845.713	298.27
846.098	309.97
846.483	361.47
846.868	408.28
847.253	335.72
847.638	312.32
848.023	314.66
848.408	321.68
848.793	326.36
849.177	302.95
849.562	309.97
849.947	335.72
850.331	338.06
850.715	288.91
851.1	258.48
851.484	267.85
851.868	312.32
852.253	272.53
852.637	317
853.021	279.55
853.405	312.32
853.789	309.97
854.173	300.61
854.557	335.72
854.94	345.08
855.324	295.93
855.708	281.89
856.091	366.15
856.475	307.63
856.858	302.95
857.242	265.5
857.625	366.15
858.009	286.57
858.392	298.27
858.775	277.21
859.158	281.89
859.541	352.1
859.924	293.59
860.307	349.76
860.69	284.23
861.073	333.38
861.456	302.95
861.838	342.74
862.221	263.16
862.604	235.08
862.986	274.87
863.369	291.25
863.751	331.04
864.133	309.97
864.516	263.16
864.898	361.47
865.28	249.12
865.662	380.19
866.044	328.7
866.426	347.42
866.808	377.85
867.19	302.95
867.572	331.04
867.954	342.74
868.336	319.34
868.717	305.29
869.099	319.34
869.48	356.79
869.862	251.46
870.243	300.61
870.625	284.23
871.006	305.29
871.387	291.25
871.768	288.91
872.149	333.38
872.53	342.74
872.911	307.63
873.292	300.61
873.673	349.76
874.054	265.5
874.435	312.32
874.815	340.4
875.196	319.34
875.577	314.66
875.957	361.47
876.338	328.7
876.718	295.93
877.098	281.89
877.479	265.5
877.859	363.81
878.239	333.38
878.619	288.91
878.999	324.02
879.379	286.57
879.759	335.72
880.139	331.04
880.519	270.19
880.898	321.68
881.278	298.27
881.658	199.97
882.037	300.61
882.417	340.4
882.796	295.93
883.176	279.55
883.555	277.21
883.934	272.53
884.313	291.25
884.693	298.27
885.072	298.27
885.451	293.59
885.83	277.21
886.209	277.21
886.587	340.4
886.966	293.59
887.345	314.66
887.724	345.08
888.102	307.63
888.481	366.15
888.859	314.66
889.238	302.95
889.616	302.95
889.994	321.68
890.373	352.1
890.751	321.68
891.129	272.53
891.507	347.42
891.885	347.42
892.263	331.04
892.641	319.34
893.019	324.02
893.396	272.53
893.774	342.74
894.152	324.02
894.529	305.29
894.907	354.44
895.284	319.34
895.662	391.89
896.039	284.23
896.416	321.68
896.794	302.95
897.171	305.29
897.548	284.23
897.925	286.57
898.302	347.42
898.679	366.15
899.056	279.55
899.433	324.02
899.809	274.87
900.186	314.66
900.563	277.21
900.939	345.08
901.316	293.59
901.692	286.57
902.069	321.68
902.445	279.55
902.821	321.68
903.197	305.29
903.574	302.95
903.95	370.83
904.326	302.95
904.702	286.57
905.078	312.32
905.454	300.61
905.829	307.63
906.205	319.34
906.581	265.5
906.956	305.29
907.332	277.21
907.707	256.14
908.083	314.66
908.458	305.29
908.833	279.55
909.209	331.04
909.584	309.97
909.959	317
910.334	331.04
910.709	312.32
911.084	281.89
911.459	253.8
911.834	331.04
912.209	272.53
912.583	300.61
912.958	309.97
913.333	347.42
913.707	333.38
914.082	249.12
914.456	221.03
914.83	324.02
915.205	324.02
915.579	256.14
915.953	335.72
916.327	326.36
916.701	326.36
917.075	284.23
917.449	272.53
917.823	302.95
918.197	279.55
918.571	307.63
918.944	277.21
919.318	272.53
919.692	305.29
920.065	279.55
920.438	326.36
920.812	326.36
921.185	286.57
921.558	345.08
921.932	265.5
922.305	312.32
922.678	237.42
923.051	260.82
923.424	354.44
923.797	309.97
924.17	361.47
924.542	333.38
924.915	293.59
925.288	274.87
925.661	272.53
926.033	228.06
926.406	246.78
926.778	319.34
927.15	347.42
927.523	328.7
927.895	305.29
928.267	333.38
928.639	338.06
929.011	333.38
929.383	277.21
929.755	307.63
930.127	349.76
930.499	356.79
930.871	312.32
931.242	331.04
931.614	321.68
931.986	277.21
932.357	239.76
932.729	352.1
933.1	314.66
933.471	216.35
933.843	256.14
934.214	288.91
934.585	288.91
934.956	335.72
935.327	314.66
935.698	277.21
936.069	331.04
936.44	246.78
936.811	335.72
937.182	298.27
937.552	288.91
937.923	309.97
938.293	309.97
938.664	312.32
939.034	302.95
939.405	326.36
939.775	295.93
940.145	291.25
940.516	356.79
940.886	347.42
941.256	288.91
941.626	359.13
941.996	356.79
942.366	333.38
942.735	309.97
943.105	265.5
943.475	305.29
943.845	286.57
944.214	274.87
944.584	225.72
944.953	277.21
945.323	284.23
945.692	302.95
946.061	338.06
946.43	272.53
946.8	331.04
947.169	324.02
947.538	338.06
947.907	347.42
948.276	333.38
948.645	328.7
949.013	331.04
949.382	291.25
949.751	295.93
950.119	335.72
950.488	305.29
950.857	305.29
951.225	239.76
951.593	326.36
951.962	274.87
952.33	335.72
952.698	359.13
953.066	298.27
953.434	288.91
953.802	286.57
954.17	312.32
954.538	314.66
954.906	307.63
955.274	237.42
955.642	288.91
956.009	324.02
956.377	307.63
956.744	288.91
957.112	342.74
957.479	321.68
957.847	387.21
958.214	284.23
958.581	387.21
958.948	326.36
959.315	352.1
959.683	352.1
960.05	281.89
960.416	277.21
960.783	312.32
961.15	312.32
961.517	279.55
961.884	291.25
962.25	274.87
962.617	333.38
962.983	333.38
963.35	307.63
963.716	342.74
964.082	370.83
964.449	312.32
964.815	298.27
965.181	288.91
965.547	293.59
965.913	302.95
966.279	319.34
966.645	335.72
967.011	302.95
967.377	309.97
967.742	263.16
968.108	328.7
968.474	326.36
968.839	281.89
969.205	314.66
969.57	267.85
969.935	295.93
970.301	279.55
970.666	305.29
971.031	302.95
971.396	284.23
971.761	298.27
972.126	335.72
972.491	312.32
972.856	239.76
973.221	333.38
973.586	345.08
973.95	274.87
974.315	319.34
974.679	312.32
975.044	307.63
975.408	298.27
975.773	347.42
976.137	305.29
976.501	300.61
976.866	242.1
977.23	312.32
977.594	295.93
977.958	340.4
978.322	267.85
978.686	242.1
979.049	225.72
979.413	293.59
979.777	258.48
980.141	293.59
980.504	317
980.868	324.02
981.231	305.29
981.595	246.78
981.958	281.89
982.321	321.68
982.684	284.23
983.048	340.4
983.411	253.8
983.774	342.74
984.137	324.02
984.5	309.97
984.862	309.97
985.225	291.25
985.588	387.21
985.951	349.76
986.313	319.34
986.676	370.83
987.038	333.38
987.401	291.25
987.763	267.85
988.125	267.85
988.488	265.5
988.85	288.91
989.212	319.34
989.574	274.87
989.936	256.14
990.298	309.97
990.66	326.36
991.022	305.29
991.383	239.76
991.745	300.61
992.107	309.97
992.468	345.08
992.83	368.49
993.191	274.87
993.553	286.57
993.914	342.74
994.275	270.19
994.637	412.96
994.998	338.06
995.359	317
995.72	270.19
996.081	279.55
996.442	333.38
996.803	277.21
997.163	321.68
997.524	326.36
997.885	302.95
998.245	335.72
998.606	302.95
998.966	272.53
999.327	377.85
999.687	384.87
1000.047	284.23
1000.408	286.57
1000.768	352.1
1001.128	295.93
1001.488	295.93
1001.848	347.42
1002.208	284.23
1002.568	293.59
1002.927	293.59
1003.287	363.81
1003.647	366.15
1004.007	300.61
1004.366	239.76
1004.726	314.66
1005.085	237.42
1005.444	305.29
1005.804	300.61
1006.163	302.95
1006.522	302.95
1006.881	286.57
1007.24	340.4
1007.599	286.57
1007.958	314.66
1008.317	309.97
1008.676	321.68
1009.035	328.7
1009.393	326.36
1009.752	331.04
1010.111	300.61
1010.469	309.97
1010.828	267.85
1011.186	302.95
1011.544	277.21
1011.903	324.02
1012.261	305.29
1012.619	368.49
1012.977	324.02
1013.335	354.44
1013.693	293.59
1014.051	326.36
1014.409	272.53
1014.767	368.49
1015.124	307.63
1015.482	347.42
1015.84	260.82
1016.197	361.47
1016.555	206.99
1016.912	265.5
1017.269	272.53
1017.627	279.55
1017.984	242.1
1018.341	319.34
1018.698	366.15
1019.055	324.02
1019.412	321.68
1019.769	354.44
1020.126	338.06
1020.483	235.08
1020.84	270.19
1021.196	277.21
1021.553	298.27
1021.909	267.85
1022.266	263.16
1022.622	270.19
1022.979	260.82
1023.335	307.63
1023.691	312.32
1024.047	277.21
1024.404	279.55
1024.76	274.87
1025.116	312.32
1025.472	281.89
1025.827	293.59
1026.183	326.36
1026.539	216.35
1026.895	342.74
1027.25	258.48
1027.606	319.34
1027.961	293.59
1028.317	295.93
1028.672	298.27
1029.028	228.06
1029.383	300.61
1029.738	333.38
1030.093	321.68
1030.448	288.91
1030.803	305.29
1031.158	338.06
1031.513	312.32
1031.868	277.21
1032.223	279.55
1032.577	288.91
1032.932	291.25
1033.287	272.53
1033.641	223.37
1033.996	302.95
1034.35	354.44
1034.704	338.06
1035.059	277.21
1035.413	345.08
1035.767	345.08
1036.121	345.08
