Data from Al_FLMS009871__857__15-31-16-394.txt Node

Date: Fri Mar 08 15:31:16 CST 2024
User: pe5414po
Spectrometer: FLMS00987
Trigger mode: 0
Integration Time (sec): 1.000000E-1
Scans to average: 1
Electric dark correction enabled: true
Nonlinearity correction enabled: false
Boxcar width: 0
XAxis mode: Wavelengths
Number of Pixels in Spectrum: 2048
>>>>>Begin Spectral Data<<<<<
188.938	-94.21
189.409	-94.21
189.879	-94.21
190.349	-134
190.819	-45.06
191.29	-119.95
191.76	-89.53
192.23	-82.5
192.7	-54.42
193.17	-80.16
193.64	-28.67
194.109	36.86
194.579	-42.71
195.049	-38.03
195.519	27.5
195.988	6.44
196.458	81.33
196.927	111.76
197.397	71.97
197.866	100.06
198.336	100.06
198.805	118.78
199.274	146.87
199.744	212.4
200.213	160.91
200.682	198.36
201.151	207.72
201.62	240.49
202.089	212.4
202.558	322.41
203.027	256.87
203.495	359.86
203.964	259.21
204.433	268.58
204.902	322.41
205.37	266.24
205.839	284.96
206.307	334.11
206.776	366.88
207.244	284.96
207.712	313.05
208.181	256.87
208.649	254.53
209.117	331.77
209.585	284.96
210.053	331.77
210.521	327.09
210.989	289.64
211.457	336.45
211.925	270.92
212.393	327.09
212.861	263.9
213.328	277.94
213.796	249.85
214.264	296.66
214.731	296.66
215.199	303.68
215.666	259.21
216.133	277.94
216.601	306.03
217.068	235.81
217.535	284.96
218.003	193.68
218.47	282.62
218.937	282.62
219.404	256.87
219.871	294.32
220.338	282.62
220.805	317.73
221.271	252.19
221.738	270.92
222.205	275.6
222.671	247.51
223.138	296.66
223.605	245.17
224.071	254.53
224.538	252.19
225.004	294.32
225.47	287.3
225.937	210.06
226.403	341.13
226.869	315.39
227.335	214.74
227.801	324.75
228.267	275.6
228.733	266.24
229.199	282.62
229.665	324.75
230.131	282.62
230.597	294.32
231.062	336.45
231.528	327.09
231.994	287.3
232.459	327.09
232.925	280.28
233.39	301.34
233.856	282.62
234.321	291.98
234.786	273.26
235.252	348.15
235.717	308.37
236.182	261.55
236.647	350.5
237.112	275.6
237.577	270.92
238.042	277.94
238.507	296.66
238.972	308.37
239.436	270.92
239.901	259.21
240.366	282.62
240.83	291.98
241.295	301.34
241.76	249.85
242.224	296.66
242.688	284.96
243.153	266.24
243.617	270.92
244.081	315.39
244.545	306.03
245.01	313.05
245.474	313.05
245.938	277.94
246.402	287.3
246.866	263.9
247.33	439.44
247.793	275.6
248.257	315.39
248.721	240.49
249.185	275.6
249.648	207.72
250.112	322.41
250.575	287.3
251.039	306.03
251.502	270.92
251.965	270.92
252.429	280.28
252.892	273.26
253.355	306.03
253.818	338.79
254.281	343.47
254.744	277.94
255.207	261.55
255.67	296.66
256.133	350.5
256.596	296.66
257.059	338.79
257.522	310.71
257.984	287.3
258.447	289.64
258.909	310.71
259.372	313.05
259.834	280.28
260.297	315.39
260.759	287.3
261.221	233.47
261.684	308.37
262.146	291.98
262.608	291.98
263.07	343.47
263.532	263.9
263.994	315.39
264.456	364.54
264.918	313.05
265.38	259.21
265.842	313.05
266.303	315.39
266.765	348.15
267.227	242.83
267.688	245.17
268.15	275.6
268.611	343.47
269.072	303.68
269.534	259.21
269.995	331.77
270.456	252.19
270.918	306.03
271.379	266.24
271.84	291.98
272.301	355.18
272.762	324.75
273.223	320.07
273.684	294.32
274.144	336.45
274.605	338.79
275.066	235.81
275.527	303.68
275.987	308.37
276.448	334.11
276.908	224.11
277.369	270.92
277.829	317.73
278.289	310.71
278.75	329.43
279.21	329.43
279.67	277.94
280.13	306.03
280.59	308.37
281.05	303.68
281.51	256.87
281.97	306.03
282.43	348.15
282.89	334.11
283.35	275.6
283.809	299
284.269	282.62
284.729	322.41
285.188	282.62
285.648	270.92
286.107	324.75
286.567	345.81
287.026	299
287.485	322.41
287.944	245.17
288.404	371.56
288.863	352.84
289.322	362.2
289.781	280.28
290.24	289.64
290.699	324.75
291.158	334.11
291.616	287.3
292.075	282.62
292.534	301.34
292.992	306.03
293.451	306.03
293.91	296.66
294.368	289.64
294.827	275.6
295.285	306.03
295.743	334.11
296.202	268.58
296.66	259.21
297.118	266.24
297.576	296.66
298.034	277.94
298.492	291.98
298.95	287.3
299.408	336.45
299.866	301.34
300.324	263.9
300.781	294.32
301.239	329.43
301.697	282.62
302.154	280.28
302.612	355.18
303.069	313.05
303.527	289.64
303.984	270.92
304.441	310.71
304.899	334.11
305.356	303.68
305.813	263.9
306.27	277.94
306.727	275.6
307.184	315.39
307.641	275.6
308.098	331.77
308.555	310.71
309.012	341.13
309.468	301.34
309.925	275.6
310.382	355.18
310.838	270.92
311.295	294.32
311.751	247.51
312.208	289.64
312.664	334.11
313.12	357.52
313.577	284.96
314.033	303.68
314.489	357.52
314.945	273.26
315.401	261.55
315.857	331.77
316.313	341.13
316.769	331.77
317.225	355.18
317.681	277.94
318.136	341.13
318.592	345.81
319.048	350.5
319.503	348.15
319.959	320.07
320.414	252.19
320.869	352.84
321.325	303.68
321.78	327.09
322.235	350.5
322.691	334.11
323.146	320.07
323.601	327.09
324.056	324.75
324.511	284.96
324.966	329.43
325.421	317.73
325.875	329.43
326.33	301.34
326.785	317.73
327.24	317.73
327.694	249.85
328.149	313.05
328.603	313.05
329.058	287.3
329.512	348.15
329.966	315.39
330.421	327.09
330.875	317.73
331.329	301.34
331.783	369.22
332.237	306.03
332.691	296.66
333.145	315.39
333.599	252.19
334.053	275.6
334.507	357.52
334.96	296.66
335.414	320.07
335.868	301.34
336.321	341.13
336.775	331.77
337.228	399.65
337.682	299
338.135	289.64
338.588	289.64
339.042	341.13
339.495	329.43
339.948	306.03
340.401	357.52
340.854	306.03
341.307	345.81
341.76	289.64
342.213	273.26
342.666	289.64
343.119	296.66
343.571	348.15
344.024	343.47
344.477	355.18
344.929	366.88
345.382	254.53
345.834	303.68
346.287	277.94
346.739	291.98
347.191	345.81
347.644	299
348.096	317.73
348.548	338.79
349	280.28
349.452	268.58
349.904	338.79
350.356	366.88
350.808	355.18
351.26	385.6
351.711	296.66
352.163	289.64
352.615	313.05
353.066	394.97
353.518	313.05
353.969	320.07
354.421	338.79
354.872	303.68
355.324	364.54
355.775	336.45
356.226	308.37
356.677	313.05
357.128	327.09
357.579	329.43
358.03	362.2
358.481	287.3
358.932	378.58
359.383	348.15
359.834	284.96
360.285	352.84
360.735	273.26
361.186	303.68
361.637	336.45
362.087	294.32
362.538	338.79
362.988	280.28
363.438	317.73
363.889	301.34
364.339	238.15
364.789	331.77
365.239	315.39
365.689	306.03
366.139	345.81
366.589	364.54
367.039	294.32
367.489	315.39
367.939	343.47
368.389	376.24
368.839	273.26
369.288	327.09
369.738	306.03
370.187	362.2
370.637	331.77
371.086	275.6
371.536	338.79
371.985	338.79
372.434	310.71
372.884	350.5
373.333	383.26
373.782	331.77
374.231	299
374.68	364.54
375.129	364.54
375.578	324.75
376.027	299
376.475	357.52
376.924	315.39
377.373	413.69
377.822	348.15
378.27	320.07
378.719	317.73
379.167	357.52
379.616	345.81
380.064	270.92
380.512	336.45
380.961	296.66
381.409	280.28
381.857	282.62
382.305	310.71
382.753	357.52
383.201	306.03
383.649	348.15
384.097	317.73
384.545	359.86
384.992	327.09
385.44	320.07
385.888	275.6
386.335	259.21
386.783	303.68
387.231	324.75
387.678	322.41
388.125	317.73
388.573	296.66
389.02	359.86
389.467	306.03
389.914	331.77
390.362	315.39
390.809	301.34
391.256	331.77
391.703	334.11
392.15	392.62
392.596	277.94
393.043	299
393.49	378.58
393.937	334.11
394.383	268.58
394.83	249.85
395.276	315.39
395.723	331.77
396.169	366.88
396.616	301.34
397.062	334.11
397.508	306.03
397.954	345.81
398.401	303.68
398.847	322.41
399.293	338.79
399.739	315.39
400.185	296.66
400.631	280.28
401.076	359.86
401.522	341.13
401.968	399.65
402.414	362.2
402.859	329.43
403.305	299
403.75	322.41
404.196	282.62
404.641	306.03
405.086	322.41
405.532	371.56
405.977	280.28
406.422	327.09
406.867	306.03
407.312	383.26
407.757	287.3
408.202	324.75
408.647	268.58
409.092	362.2
409.537	287.3
409.982	334.11
410.426	315.39
410.871	306.03
411.316	315.39
411.76	254.53
412.205	287.3
412.649	320.07
413.093	329.43
413.538	371.56
413.982	294.32
414.426	291.98
414.87	313.05
415.314	355.18
415.758	291.98
416.202	336.45
416.646	303.68
417.09	313.05
417.534	301.34
417.978	313.05
418.421	357.52
418.865	322.41
419.309	322.41
419.752	275.6
420.196	322.41
420.639	284.96
421.083	313.05
421.526	299
421.969	322.41
422.412	317.73
422.856	294.32
423.299	387.94
423.742	320.07
424.185	387.94
424.628	296.66
425.071	308.37
425.513	322.41
425.956	336.45
426.399	327.09
426.842	338.79
427.284	334.11
427.727	303.68
428.169	329.43
428.612	376.24
429.054	303.68
429.497	310.71
429.939	294.32
430.381	294.32
430.823	313.05
431.265	327.09
431.707	359.86
432.149	308.37
432.591	373.9
433.033	359.86
433.475	352.84
433.917	359.86
434.359	315.39
434.8	315.39
435.242	284.96
435.684	291.98
436.125	294.32
436.567	357.52
437.008	291.98
437.449	317.73
437.891	341.13
438.332	383.26
438.773	303.68
439.214	369.22
439.656	348.15
440.097	350.5
440.538	301.34
440.978	308.37
441.419	341.13
441.86	327.09
442.301	284.96
442.742	341.13
443.182	291.98
443.623	327.09
444.063	343.47
444.504	331.77
444.944	275.6
445.385	327.09
445.825	315.39
446.265	348.15
446.706	331.77
447.146	289.64
447.586	338.79
448.026	287.3
448.466	336.45
448.906	378.58
449.346	287.3
449.786	322.41
450.225	310.71
450.665	343.47
451.105	378.58
451.544	362.2
451.984	327.09
452.424	303.68
452.863	315.39
453.302	261.55
453.742	343.47
454.181	385.6
454.62	383.26
455.059	301.34
455.499	334.11
455.938	263.9
456.377	373.9
456.816	291.98
457.254	294.32
457.693	352.84
458.132	303.68
458.571	282.62
459.01	275.6
459.448	252.19
459.887	291.98
460.325	341.13
460.764	350.5
461.202	317.73
461.641	348.15
462.079	313.05
462.517	322.41
462.955	247.51
463.393	324.75
463.832	355.18
464.27	303.68
464.708	280.28
465.145	345.81
465.583	315.39
466.021	315.39
466.459	373.9
466.897	338.79
467.334	273.26
467.772	291.98
468.209	338.79
468.647	371.56
469.084	336.45
469.522	341.13
469.959	331.77
470.396	317.73
470.833	287.3
471.271	376.24
471.708	406.67
472.145	327.09
472.582	301.34
473.019	287.3
473.456	373.9
473.892	284.96
474.329	338.79
474.766	266.24
475.202	334.11
475.639	357.52
476.076	284.96
476.512	317.73
476.949	336.45
477.385	380.92
477.821	387.94
478.258	345.81
478.694	306.03
479.13	301.34
479.566	306.03
480.002	369.22
480.438	306.03
480.874	357.52
481.31	308.37
481.746	357.52
482.181	284.96
482.617	306.03
483.053	341.13
483.488	338.79
483.924	317.73
484.36	308.37
484.795	324.75
485.23	322.41
485.666	378.58
486.101	254.53
486.536	315.39
486.971	334.11
487.407	336.45
487.842	341.13
488.277	294.32
488.712	348.15
489.146	310.71
489.581	315.39
490.016	355.18
490.451	345.81
490.885	299
491.32	299
491.755	366.88
492.189	282.62
492.624	329.43
493.058	394.97
493.492	338.79
493.927	336.45
494.361	308.37
494.795	327.09
495.229	345.81
495.663	336.45
496.097	259.21
496.531	362.2
496.965	315.39
497.399	315.39
497.833	315.39
498.266	315.39
498.7	310.71
499.134	380.92
499.567	287.3
500.001	296.66
500.434	329.43
500.868	331.77
501.301	334.11
501.734	268.58
502.168	390.28
502.601	228.79
503.034	313.05
503.467	334.11
503.9	287.3
504.333	352.84
504.766	313.05
505.199	303.68
505.632	263.9
506.064	366.88
506.497	329.43
506.93	331.77
507.362	341.13
507.795	313.05
508.227	317.73
508.66	266.24
509.092	341.13
509.524	261.55
509.956	336.45
510.389	324.75
510.821	322.41
511.253	299
511.685	371.56
512.117	259.21
512.549	296.66
512.981	294.32
513.412	380.92
513.844	324.75
514.276	343.47
514.707	315.39
515.139	336.45
515.571	282.62
516.002	282.62
516.433	273.26
516.865	376.24
517.296	338.79
517.727	299
518.159	341.13
518.59	284.96
519.021	228.79
519.452	327.09
519.883	343.47
520.314	270.92
520.744	331.77
521.175	350.5
521.606	371.56
522.037	310.71
522.467	296.66
522.898	313.05
523.328	359.86
523.759	362.2
524.189	341.13
524.62	329.43
525.05	345.81
525.48	280.28
525.91	334.11
526.341	359.86
526.771	331.77
527.201	362.2
527.631	310.71
528.061	357.52
528.49	401.99
528.92	345.81
529.35	334.11
529.78	308.37
530.209	317.73
530.639	324.75
531.068	310.71
531.498	282.62
531.927	334.11
532.357	362.2
532.786	338.79
533.215	266.24
533.644	284.96
534.074	301.34
534.503	329.43
534.932	345.81
535.361	317.73
535.79	289.64
536.218	280.28
536.647	313.05
537.076	310.71
537.505	338.79
537.933	357.52
538.362	343.47
538.79	364.54
539.219	369.22
539.647	359.86
540.076	378.58
540.504	334.11
540.932	334.11
541.36	341.13
541.788	317.73
542.217	359.86
542.645	343.47
543.073	287.3
543.5	350.5
543.928	348.15
544.356	345.81
544.784	277.94
545.211	259.21
545.639	350.5
546.067	355.18
546.494	352.84
546.922	362.2
547.349	348.15
547.776	317.73
548.204	315.39
548.631	310.71
549.058	315.39
549.485	299
549.912	277.94
550.339	324.75
550.766	313.05
551.193	366.88
551.62	296.66
552.047	268.58
552.474	348.15
552.9	331.77
553.327	345.81
553.754	282.62
554.18	343.47
554.607	289.64
555.033	308.37
555.459	273.26
555.886	284.96
556.312	352.84
556.738	334.11
557.164	291.98
557.59	359.86
558.016	303.68
558.442	366.88
558.868	366.88
559.294	336.45
559.72	378.58
560.145	327.09
560.571	261.55
560.997	303.68
561.422	296.66
561.848	378.58
562.273	277.94
562.699	329.43
563.124	350.5
563.549	287.3
563.974	294.32
564.4	352.84
564.825	364.54
565.25	289.64
565.675	394.97
566.1	336.45
566.525	338.79
566.95	287.3
567.374	259.21
567.799	294.32
568.224	329.43
568.648	336.45
569.073	385.6
569.497	334.11
569.922	322.41
570.346	322.41
570.771	423.05
571.195	317.73
571.619	362.2
572.043	299
572.467	350.5
572.891	303.68
573.315	301.34
573.739	306.03
574.163	423.05
574.587	317.73
575.011	308.37
575.435	275.6
575.858	315.39
576.282	345.81
576.705	357.52
577.129	338.79
577.552	317.73
577.976	348.15
578.399	357.52
578.822	336.45
579.245	355.18
579.669	329.43
580.092	336.45
580.515	280.28
580.938	371.56
581.361	334.11
581.784	317.73
582.206	306.03
582.629	296.66
583.052	259.21
583.474	291.98
583.897	343.47
584.32	348.15
584.742	348.15
585.165	282.62
585.587	331.77
586.009	376.24
586.431	373.9
586.854	284.96
587.276	359.86
587.698	294.32
588.12	322.41
588.542	315.39
588.964	284.96
589.386	313.05
589.807	359.86
590.229	317.73
590.651	291.98
591.073	369.22
591.494	341.13
591.916	331.77
592.337	310.71
592.759	355.18
593.18	322.41
593.601	364.54
594.022	313.05
594.444	280.28
594.865	310.71
595.286	350.5
595.707	352.84
596.128	313.05
596.549	357.52
596.97	289.64
597.39	303.68
597.811	324.75
598.232	350.5
598.652	247.51
599.073	315.39
599.494	280.28
599.914	282.62
600.334	341.13
600.755	327.09
601.175	301.34
601.595	282.62
602.015	280.28
602.436	275.6
602.856	437.1
603.276	299
603.696	317.73
604.115	296.66
604.535	275.6
604.955	310.71
605.375	338.79
605.794	263.9
606.214	348.15
606.634	303.68
607.053	327.09
607.473	364.54
607.892	359.86
608.311	359.86
608.731	289.64
609.15	329.43
609.569	324.75
609.988	350.5
610.407	350.5
610.826	310.71
611.245	341.13
611.664	376.24
612.083	280.28
612.501	359.86
612.92	280.28
613.339	275.6
613.757	401.99
614.176	371.56
614.594	270.92
615.013	320.07
615.431	387.94
615.85	348.15
616.268	362.2
616.686	306.03
617.104	322.41
617.522	364.54
617.94	284.96
618.358	338.79
618.776	380.92
619.194	364.54
619.612	348.15
620.03	252.19
620.447	397.31
620.865	320.07
621.282	362.2
621.7	313.05
622.117	418.37
622.535	355.18
622.952	299
623.369	273.26
623.787	299
624.204	380.92
624.621	324.75
625.038	277.94
625.455	336.45
625.872	371.56
626.289	357.52
626.706	273.26
627.123	315.39
627.539	329.43
627.956	357.52
628.373	317.73
628.789	303.68
629.206	320.07
629.622	392.62
630.038	341.13
630.455	357.52
630.871	322.41
631.287	327.09
631.703	329.43
632.12	364.54
632.536	299
632.952	350.5
633.368	320.07
633.783	373.9
634.199	348.15
634.615	291.98
635.031	350.5
635.446	355.18
635.862	334.11
636.277	238.15
636.693	303.68
637.108	341.13
637.524	338.79
637.939	376.24
638.354	266.24
638.77	294.32
639.185	359.86
639.6	294.32
640.015	336.45
640.43	280.28
640.845	341.13
641.259	345.81
641.674	397.31
642.089	338.79
642.504	296.66
642.918	303.68
643.333	263.9
643.747	294.32
644.162	345.81
644.576	296.66
644.991	317.73
645.405	322.41
645.819	270.92
646.233	306.03
646.647	348.15
647.061	357.52
647.475	369.22
647.889	385.6
648.303	301.34
648.717	359.86
649.131	289.64
649.545	336.45
649.958	284.96
650.372	331.77
650.785	327.09
651.199	329.43
651.612	310.71
652.026	359.86
652.439	303.68
652.852	324.75
653.266	317.73
653.679	336.45
654.092	327.09
654.505	345.81
654.918	357.52
655.331	301.34
655.744	320.07
656.156	268.58
656.569	287.3
656.982	331.77
657.394	387.94
657.807	303.68
658.22	306.03
658.632	306.03
659.044	284.96
659.457	345.81
659.869	331.77
660.281	291.98
660.693	301.34
661.106	345.81
661.518	301.34
661.93	327.09
662.342	327.09
662.754	336.45
663.165	376.24
663.577	313.05
663.989	296.66
664.401	315.39
664.812	352.84
665.224	317.73
665.635	299
666.047	329.43
666.458	343.47
666.869	296.66
667.281	334.11
667.692	362.2
668.103	284.96
668.514	310.71
668.925	306.03
669.336	376.24
669.747	306.03
670.158	327.09
670.569	303.68
670.979	362.2
671.39	322.41
671.801	306.03
672.211	287.3
672.622	317.73
673.032	320.07
673.443	327.09
673.853	343.47
674.263	254.53
674.674	329.43
675.084	308.37
675.494	329.43
675.904	338.79
676.314	336.45
676.724	294.32
677.134	324.75
677.544	383.26
677.953	275.6
678.363	348.15
678.773	411.35
679.182	310.71
679.592	366.88
680.001	322.41
680.411	242.83
680.82	287.3
681.23	313.05
681.639	308.37
682.048	317.73
682.457	320.07
682.866	329.43
683.275	313.05
683.684	277.94
684.093	310.71
684.502	341.13
684.911	322.41
685.32	313.05
685.728	301.34
686.137	327.09
686.546	369.22
686.954	350.5
687.363	317.73
687.771	341.13
688.179	245.17
688.588	378.58
688.996	299
689.404	324.75
689.812	289.64
690.22	275.6
690.628	294.32
691.036	376.24
691.444	338.79
691.852	249.85
692.26	299
692.667	299
693.075	341.13
693.483	350.5
693.89	390.28
694.298	385.6
694.705	320.07
695.112	317.73
695.52	369.22
695.927	301.34
696.334	322.41
696.741	247.51
697.148	329.43
697.555	317.73
697.962	345.81
698.369	299
698.776	308.37
699.183	308.37
699.59	334.11
699.996	334.11
700.403	310.71
700.81	371.56
701.216	296.66
701.623	352.84
702.029	380.92
702.435	345.81
702.842	348.15
703.248	329.43
703.654	385.6
704.06	273.26
704.466	338.79
704.872	341.13
705.278	383.26
705.684	350.5
706.09	256.87
706.496	336.45
706.901	308.37
707.307	277.94
707.712	284.96
708.118	313.05
708.523	291.98
708.929	394.97
709.334	277.94
709.74	369.22
710.145	331.77
710.55	299
710.955	284.96
711.36	338.79
711.765	392.62
712.17	299
712.575	343.47
712.98	846.69
713.385	341.13
713.789	329.43
714.194	277.94
714.599	348.15
715.003	322.41
715.408	397.31
715.812	327.09
716.217	371.56
716.621	299
717.025	401.99
717.429	270.92
717.833	394.97
718.238	334.11
718.642	413.69
719.046	291.98
719.449	291.98
719.853	313.05
720.257	394.97
720.661	341.13
721.065	289.64
721.468	364.54
721.872	308.37
722.275	355.18
722.679	345.81
723.082	343.47
723.485	310.71
723.889	376.24
724.292	306.03
724.695	352.84
725.098	390.28
725.501	373.9
725.904	266.24
726.307	385.6
726.71	380.92
727.113	338.79
727.516	306.03
727.918	331.77
728.321	299
728.724	357.52
729.126	341.13
729.529	376.24
729.931	336.45
730.333	296.66
730.736	308.37
731.138	322.41
731.54	303.68
731.942	329.43
732.344	343.47
732.746	352.84
733.148	331.77
733.55	252.19
733.952	261.55
734.354	338.79
734.756	287.3
735.157	308.37
735.559	320.07
735.96	320.07
736.362	308.37
736.763	334.11
737.165	343.47
737.566	289.64
737.967	359.86
738.368	268.58
738.77	306.03
739.171	287.3
739.572	343.47
739.973	383.26
740.374	306.03
740.774	306.03
741.175	390.28
741.576	324.75
741.977	291.98
742.377	310.71
742.778	282.62
743.178	394.97
743.579	301.34
743.979	350.5
744.379	359.86
744.78	373.9
745.18	341.13
745.58	345.81
745.98	355.18
746.38	303.68
746.78	287.3
747.18	322.41
747.58	357.52
747.98	343.47
748.38	313.05
748.779	338.79
749.179	294.32
749.578	387.94
749.978	329.43
750.377	313.05
750.777	270.92
751.176	336.45
751.575	355.18
751.975	294.32
752.374	387.94
752.773	357.52
753.172	291.98
753.571	306.03
753.97	303.68
754.369	289.64
754.768	322.41
755.166	247.51
755.565	338.79
755.964	336.45
756.362	376.24
756.761	266.24
757.159	359.86
757.558	359.86
757.956	334.11
758.354	303.68
758.753	350.5
759.151	313.05
759.549	308.37
759.947	315.39
760.345	308.37
760.743	270.92
761.141	280.28
761.539	249.85
761.936	320.07
762.334	315.39
762.732	329.43
763.129	296.66
763.527	343.47
763.924	387.94
764.322	324.75
764.719	317.73
765.117	329.43
765.514	329.43
765.911	299
766.308	273.26
766.705	334.11
767.102	359.86
767.499	350.5
767.896	296.66
768.293	327.09
768.69	380.92
769.086	327.09
769.483	322.41
769.88	320.07
770.276	245.17
770.673	268.58
771.069	385.6
771.466	327.09
771.862	233.47
772.258	416.03
772.654	385.6
773.05	350.5
773.447	310.71
773.843	348.15
774.239	355.18
774.634	322.41
775.03	350.5
775.426	308.37
775.822	345.81
776.218	329.43
776.613	275.6
777.009	336.45
777.404	296.66
777.8	301.34
778.195	308.37
778.59	327.09
778.986	352.84
779.381	334.11
779.776	322.41
780.171	409.01
780.566	273.26
780.961	413.69
781.356	324.75
781.751	308.37
782.146	376.24
782.54	303.68
782.935	355.18
783.33	348.15
783.724	273.26
784.119	313.05
784.513	364.54
784.908	348.15
785.302	336.45
785.696	359.86
786.09	317.73
786.485	310.71
786.879	341.13
787.273	338.79
787.667	317.73
788.061	348.15
788.454	317.73
788.848	331.77
789.242	308.37
789.636	385.6
790.029	331.77
790.423	409.01
790.816	303.68
791.21	352.84
791.603	322.41
791.997	313.05
792.39	394.97
792.783	308.37
793.176	324.75
793.569	303.68
793.962	355.18
794.355	401.99
794.748	315.39
795.141	334.11
795.534	294.32
795.927	277.94
796.319	277.94
796.712	366.88
797.105	268.58
797.497	383.26
797.89	287.3
798.282	362.2
798.674	331.77
799.067	310.71
799.459	348.15
799.851	334.11
800.243	343.47
800.635	266.24
801.027	336.45
801.419	308.37
801.811	315.39
802.203	310.71
802.594	331.77
802.986	338.79
803.378	352.84
803.769	348.15
804.161	280.28
804.552	387.94
804.944	322.41
805.335	338.79
805.726	378.58
806.118	329.43
806.509	383.26
806.9	322.41
807.291	252.19
807.682	308.37
808.073	289.64
808.464	334.11
808.855	373.9
809.245	338.79
809.636	329.43
810.027	310.71
810.417	362.2
810.808	334.11
811.198	327.09
811.589	345.81
811.979	355.18
812.369	329.43
812.759	315.39
813.15	334.11
813.54	282.62
813.93	306.03
814.32	350.5
814.71	376.24
815.1	390.28
815.489	378.58
815.879	315.39
816.269	359.86
816.658	280.28
817.048	282.62
817.438	331.77
817.827	306.03
818.216	308.37
818.606	315.39
818.995	345.81
819.384	270.92
819.773	324.75
820.163	310.71
820.552	348.15
820.941	277.94
821.33	320.07
821.718	348.15
822.107	331.77
822.496	303.68
822.885	306.03
823.273	303.68
823.662	313.05
824.05	359.86
824.439	317.73
824.827	306.03
825.216	308.37
825.604	242.83
825.992	331.77
826.38	357.52
826.768	352.84
827.156	343.47
827.544	329.43
827.932	303.68
828.32	331.77
828.708	352.84
829.096	343.47
829.483	341.13
829.871	397.31
830.259	284.96
830.646	362.2
831.034	329.43
831.421	327.09
831.808	434.75
832.196	322.41
832.583	324.75
832.97	345.81
833.357	249.85
833.744	308.37
834.131	369.22
834.518	324.75
834.905	380.92
835.292	338.79
835.678	334.11
836.065	331.77
836.452	334.11
836.838	315.39
837.225	317.73
837.611	324.75
837.998	359.86
838.384	306.03
838.77	371.56
839.157	334.11
839.543	320.07
839.929	299
840.315	306.03
840.701	348.15
841.087	338.79
841.473	317.73
841.858	343.47
842.244	291.98
842.63	308.37
843.015	331.77
843.401	582.21
843.787	310.71
844.172	303.68
844.557	343.47
844.943	336.45
845.328	359.86
845.713	280.28
846.098	256.87
846.483	306.03
846.868	348.15
847.253	247.51
847.638	334.11
848.023	355.18
848.408	301.34
848.793	322.41
849.177	303.68
849.562	315.39
849.947	282.62
850.331	308.37
850.715	303.68
851.1	303.68
851.484	324.75
851.868	313.05
852.253	371.56
852.637	341.13
853.021	242.83
853.405	334.11
853.789	359.86
854.173	338.79
854.557	308.37
854.94	334.11
855.324	362.2
855.708	331.77
856.091	322.41
856.475	362.2
856.858	320.07
857.242	315.39
857.625	308.37
858.009	317.73
858.392	348.15
858.775	308.37
859.158	296.66
859.541	338.79
859.924	310.71
860.307	303.68
860.69	324.75
861.073	296.66
861.456	401.99
861.838	387.94
862.221	322.41
862.604	334.11
862.986	357.52
863.369	296.66
863.751	289.64
864.133	261.55
864.516	315.39
864.898	350.5
865.28	320.07
865.662	296.66
866.044	329.43
866.426	362.2
866.808	336.45
867.19	331.77
867.572	291.98
867.954	331.77
868.336	259.21
868.717	240.49
869.099	270.92
869.48	317.73
869.862	364.54
870.243	352.84
870.625	287.3
871.006	338.79
871.387	329.43
871.768	362.2
872.149	338.79
872.53	343.47
872.911	331.77
873.292	336.45
873.673	334.11
874.054	341.13
874.435	282.62
874.815	261.55
875.196	301.34
875.577	273.26
875.957	317.73
876.338	308.37
876.718	306.03
877.098	355.18
877.479	345.81
877.859	348.15
878.239	291.98
878.619	348.15
878.999	263.9
879.379	371.56
879.759	383.26
880.139	369.22
880.519	341.13
880.898	345.81
881.278	334.11
881.658	315.39
882.037	331.77
882.417	303.68
882.796	324.75
883.176	357.52
883.555	357.52
883.934	350.5
884.313	322.41
884.693	296.66
885.072	308.37
885.451	303.68
885.83	341.13
886.209	336.45
886.587	343.47
886.966	371.56
887.345	359.86
887.724	242.83
888.102	380.92
888.481	366.88
888.859	315.39
889.238	341.13
889.616	324.75
889.994	315.39
890.373	327.09
890.751	296.66
891.129	322.41
891.507	301.34
891.885	348.15
892.263	315.39
892.641	273.26
893.019	336.45
893.396	224.11
893.774	369.22
894.152	306.03
894.529	359.86
894.907	287.3
895.284	324.75
895.662	289.64
896.039	245.17
896.416	331.77
896.794	348.15
897.171	366.88
897.548	343.47
897.925	270.92
898.302	331.77
898.679	336.45
899.056	406.67
899.433	296.66
899.809	296.66
900.186	327.09
900.563	268.58
900.939	247.51
901.316	296.66
901.692	282.62
902.069	320.07
902.445	357.52
902.821	336.45
903.197	409.01
903.574	322.41
903.95	317.73
904.326	364.54
904.702	296.66
905.078	324.75
905.454	341.13
905.829	315.39
906.205	362.2
906.581	348.15
906.956	329.43
907.332	336.45
907.707	306.03
908.083	301.34
908.458	308.37
908.833	331.77
909.209	296.66
909.584	301.34
909.959	270.92
910.334	366.88
910.709	345.81
911.084	221.77
911.459	345.81
911.834	291.98
912.209	341.13
912.583	348.15
912.958	343.47
913.333	385.6
913.707	317.73
914.082	313.05
914.456	322.41
914.83	282.62
915.205	270.92
915.579	310.71
915.953	327.09
916.327	350.5
916.701	359.86
917.075	352.84
917.449	345.81
917.823	343.47
918.197	261.55
918.571	327.09
918.944	315.39
919.318	263.9
919.692	334.11
920.065	343.47
920.438	306.03
920.812	334.11
921.185	270.92
921.558	301.34
921.932	296.66
922.305	352.84
922.678	320.07
923.051	324.75
923.424	270.92
923.797	291.98
924.17	287.3
924.542	308.37
924.915	348.15
925.288	329.43
925.661	336.45
926.033	306.03
926.406	310.71
926.778	313.05
927.15	313.05
927.523	315.39
927.895	310.71
928.267	359.86
928.639	317.73
929.011	266.24
929.383	291.98
929.755	392.62
930.127	313.05
930.499	301.34
930.871	303.68
931.242	303.68
931.614	291.98
931.986	331.77
932.357	313.05
932.729	313.05
933.1	313.05
933.471	383.26
933.843	350.5
934.214	299
934.585	359.86
934.956	327.09
935.327	268.58
935.698	345.81
936.069	338.79
936.44	331.77
936.811	301.34
937.182	310.71
937.552	301.34
937.923	275.6
938.293	378.58
938.664	341.13
939.034	355.18
939.405	303.68
939.775	331.77
940.145	359.86
940.516	294.32
940.886	348.15
941.256	256.87
941.626	308.37
941.996	359.86
942.366	280.28
942.735	308.37
943.105	299
943.475	282.62
943.845	242.83
944.214	287.3
944.584	315.39
944.953	324.75
945.323	313.05
945.692	357.52
946.061	291.98
946.43	310.71
946.8	291.98
947.169	327.09
947.538	313.05
947.907	294.32
948.276	242.83
948.645	322.41
949.013	263.9
949.382	341.13
949.751	345.81
950.119	338.79
950.488	289.64
950.857	359.86
951.225	308.37
951.593	277.94
951.962	303.68
952.33	301.34
952.698	299
953.066	329.43
953.434	343.47
953.802	327.09
954.17	373.9
954.538	329.43
954.906	322.41
955.274	362.2
955.642	366.88
956.009	357.52
956.377	256.87
956.744	369.22
957.112	320.07
957.479	345.81
957.847	270.92
958.214	350.5
958.581	392.62
958.948	327.09
959.315	371.56
959.683	310.71
960.05	341.13
960.416	371.56
960.783	282.62
961.15	329.43
961.517	308.37
961.884	369.22
962.25	287.3
962.617	327.09
962.983	299
963.35	310.71
963.716	359.86
964.082	320.07
964.449	352.84
964.815	385.6
965.181	359.86
965.547	280.28
965.913	317.73
966.279	376.24
966.645	359.86
967.011	378.58
967.377	259.21
967.742	343.47
968.108	317.73
968.474	322.41
968.839	322.41
969.205	366.88
969.57	338.79
969.935	310.71
970.301	364.54
970.666	303.68
971.031	336.45
971.396	345.81
971.761	336.45
972.126	352.84
972.491	270.92
972.856	301.34
973.221	226.45
973.586	357.52
973.95	296.66
974.315	291.98
974.679	336.45
975.044	327.09
975.408	289.64
975.773	315.39
976.137	317.73
976.501	287.3
976.866	296.66
977.23	306.03
977.594	310.71
977.958	338.79
978.322	296.66
978.686	376.24
979.049	334.11
979.413	378.58
979.777	355.18
980.141	320.07
980.504	247.51
980.868	231.13
981.231	345.81
981.595	249.85
981.958	252.19
982.321	313.05
982.684	343.47
983.048	310.71
983.411	315.39
983.774	263.9
984.137	284.96
984.5	273.26
984.862	359.86
985.225	301.34
985.588	308.37
985.951	289.64
986.313	294.32
986.676	294.32
987.038	327.09
987.401	324.75
987.763	352.84
988.125	373.9
988.488	341.13
988.85	310.71
989.212	343.47
989.574	287.3
989.936	301.34
990.298	336.45
990.66	350.5
991.022	315.39
991.383	352.84
991.745	355.18
992.107	329.43
992.468	289.64
992.83	366.88
993.191	291.98
993.553	334.11
993.914	252.19
994.275	366.88
994.637	308.37
994.998	341.13
995.359	306.03
995.72	380.92
996.081	303.68
996.442	334.11
996.803	364.54
997.163	357.52
997.524	334.11
997.885	331.77
998.245	320.07
998.606	324.75
998.966	252.19
999.327	376.24
999.687	355.18
1000.047	299
1000.408	282.62
1000.768	362.2
1001.128	313.05
1001.488	338.79
1001.848	380.92
1002.208	331.77
1002.568	320.07
1002.927	280.28
1003.287	261.55
1003.647	320.07
1004.007	284.96
1004.366	331.77
1004.726	357.52
1005.085	301.34
1005.444	247.51
1005.804	364.54
1006.163	284.96
1006.522	350.5
1006.881	289.64
1007.24	322.41
1007.599	376.24
1007.958	313.05
1008.317	331.77
1008.676	254.53
1009.035	299
1009.393	322.41
1009.752	313.05
1010.111	303.68
1010.469	331.77
1010.828	320.07
1011.186	317.73
1011.544	331.77
1011.903	308.37
1012.261	345.81
1012.619	369.22
1012.977	320.07
1013.335	378.58
1013.693	268.58
1014.051	348.15
1014.409	341.13
1014.767	284.96
1015.124	322.41
1015.482	273.26
1015.84	317.73
1016.197	303.68
1016.555	322.41
1016.912	373.9
1017.269	350.5
1017.627	320.07
1017.984	364.54
1018.341	294.32
1018.698	404.33
1019.055	317.73
1019.412	322.41
1019.769	306.03
1020.126	350.5
1020.483	416.03
1020.84	352.84
1021.196	308.37
1021.553	334.11
1021.909	331.77
1022.266	378.58
1022.622	296.66
1022.979	376.24
1023.335	366.88
1023.691	345.81
1024.047	331.77
1024.404	329.43
1024.76	350.5
1025.116	341.13
1025.472	291.98
1025.827	331.77
1026.183	341.13
1026.539	322.41
1026.895	303.68
1027.25	341.13
1027.606	317.73
1027.961	261.55
1028.317	313.05
1028.672	303.68
1029.028	270.92
1029.383	296.66
1029.738	287.3
1030.093	299
1030.448	303.68
1030.803	273.26
1031.158	329.43
1031.513	357.52
1031.868	338.79
1032.223	331.77
1032.577	299
1032.932	266.24
1033.287	359.86
1033.641	350.5
1033.996	322.41
1034.35	376.24
1034.704	294.32
1035.059	256.87
1035.413	327.09
1035.767	327.09
1036.121	327.09
