Data from Al_FLMS009871__850__15-31-15-695.txt Node

Date: Fri Mar 08 15:31:15 CST 2024
User: pe5414po
Spectrometer: FLMS00987
Trigger mode: 0
Integration Time (sec): 1.000000E-1
Scans to average: 1
Electric dark correction enabled: true
Nonlinearity correction enabled: false
Boxcar width: 0
XAxis mode: Wavelengths
Number of Pixels in Spectrum: 2048
>>>>>Begin Spectral Data<<<<<
188.938	-39.06
189.409	-39.06
189.879	-39.06
190.349	-64.8
190.819	-83.53
191.29	-111.61
191.76	-99.91
192.23	-48.42
192.7	-99.91
193.17	-67.14
193.64	-25.01
194.109	-67.14
194.579	-78.85
195.049	7.75
195.519	14.77
195.988	12.43
196.458	66.27
196.927	99.03
197.397	75.63
197.866	211.38
198.336	110.74
198.805	162.23
199.274	117.76
199.744	176.27
200.213	183.29
200.682	155.21
201.151	237.13
201.62	225.42
202.089	262.87
202.558	192.66
203.027	197.34
203.495	269.89
203.964	279.26
204.433	232.44
204.902	290.96
205.37	316.7
205.839	281.6
206.307	333.09
206.776	333.09
207.244	312.02
207.712	300.32
208.181	297.98
208.649	281.6
209.117	328.41
209.585	255.85
210.053	274.57
210.521	342.45
210.989	274.57
211.457	223.08
211.925	232.44
212.393	297.98
212.861	248.83
213.328	274.57
213.796	286.28
214.264	309.68
214.731	230.1
215.199	267.55
215.666	218.4
216.133	295.64
216.601	251.17
217.068	244.15
217.535	234.78
218.003	232.44
218.47	281.6
218.937	197.34
219.404	293.3
219.871	204.36
220.338	225.42
220.805	204.36
221.271	209.04
221.738	251.17
222.205	244.15
222.671	269.89
223.138	290.96
223.605	232.44
224.071	290.96
224.538	288.62
225.004	286.28
225.47	218.4
225.937	319.04
226.403	237.13
226.869	262.87
227.335	300.32
227.801	288.62
228.267	283.94
228.733	302.66
229.199	265.21
229.665	316.7
230.131	314.36
230.597	227.76
231.062	279.26
231.528	260.53
231.994	295.64
232.459	267.55
232.925	260.53
233.39	305
233.856	173.93
234.321	220.74
234.786	267.55
235.252	244.15
235.717	281.6
236.182	295.64
236.647	323.73
237.112	300.32
237.577	218.4
238.042	297.98
238.507	244.15
238.972	319.04
239.436	297.98
239.901	316.7
240.366	258.19
240.83	255.85
241.295	246.49
241.76	272.23
242.224	267.55
242.688	290.96
243.153	255.85
243.617	283.94
244.081	302.66
244.545	225.42
245.01	265.21
245.474	326.07
245.938	269.89
246.402	293.3
246.866	279.26
247.33	274.57
247.793	305
248.257	290.96
248.721	293.3
249.185	300.32
249.648	321.38
250.112	314.36
250.575	297.98
251.039	307.34
251.502	260.53
251.965	288.62
252.429	267.55
252.892	234.78
253.355	337.77
253.818	258.19
254.281	347.13
254.744	234.78
255.207	321.38
255.67	316.7
256.133	314.36
256.596	283.94
257.059	312.02
257.522	326.07
257.984	267.55
258.447	286.28
258.909	330.75
259.372	297.98
259.834	328.41
260.297	248.83
260.759	323.73
261.221	269.89
261.684	262.87
262.146	237.13
262.608	319.04
263.07	295.64
263.532	286.28
263.994	265.21
264.456	293.3
264.918	274.57
265.38	239.47
265.842	305
266.303	232.44
266.765	293.3
267.227	288.62
267.688	309.68
268.15	230.1
268.611	286.28
269.072	269.89
269.534	309.68
269.995	241.81
270.456	295.64
270.918	216.06
271.379	276.91
271.84	316.7
272.301	333.09
272.762	314.36
273.223	279.26
273.684	276.91
274.144	365.85
274.605	342.45
275.066	295.64
275.527	323.73
275.987	305
276.448	241.81
276.908	295.64
277.369	300.32
277.829	276.91
278.289	305
278.75	300.32
279.21	239.47
279.67	326.07
280.13	328.41
280.59	309.68
281.05	274.57
281.51	290.96
281.97	281.6
282.43	363.51
282.89	255.85
283.35	265.21
283.809	302.66
284.269	279.26
284.729	328.41
285.188	274.57
285.648	297.98
286.107	274.57
286.567	244.15
287.026	302.66
287.485	288.62
287.944	262.87
288.404	312.02
288.863	283.94
289.322	302.66
289.781	272.23
290.24	265.21
290.699	251.17
291.158	279.26
291.616	312.02
292.075	302.66
292.534	316.7
292.992	328.41
293.451	290.96
293.91	354.15
294.368	297.98
294.827	337.77
295.285	340.11
295.743	321.38
296.202	328.41
296.66	319.04
297.118	335.43
297.576	316.7
298.034	274.57
298.492	227.76
298.95	279.26
299.408	290.96
299.866	375.22
300.324	302.66
300.781	288.62
301.239	258.19
301.697	265.21
302.154	335.43
302.612	302.66
303.069	337.77
303.527	272.23
303.984	302.66
304.441	286.28
304.899	312.02
305.356	297.98
305.813	279.26
306.27	302.66
306.727	337.77
307.184	288.62
307.641	305
308.098	244.15
308.555	279.26
309.012	293.3
309.468	347.13
309.925	319.04
310.382	297.98
310.838	333.09
311.295	316.7
311.751	283.94
312.208	302.66
312.664	286.28
313.12	356.49
313.577	305
314.033	265.21
314.489	288.62
314.945	281.6
315.401	326.07
315.857	300.32
316.313	302.66
316.769	314.36
317.225	330.75
317.681	323.73
318.136	349.47
318.592	283.94
319.048	333.09
319.503	293.3
319.959	248.83
320.414	307.34
320.869	307.34
321.325	342.45
321.78	232.44
322.235	258.19
322.691	300.32
323.146	384.58
323.601	323.73
324.056	276.91
324.511	351.81
324.966	279.26
325.421	260.53
325.875	305
326.33	290.96
326.785	356.49
327.24	290.96
327.694	295.64
328.149	342.45
328.603	312.02
329.058	321.38
329.512	283.94
329.966	323.73
330.421	309.68
330.875	335.43
331.329	302.66
331.783	358.83
332.237	290.96
332.691	269.89
333.145	286.28
333.599	321.38
334.053	326.07
334.507	363.51
334.96	300.32
335.414	290.96
335.868	349.47
336.321	370.54
336.775	323.73
337.228	288.62
337.682	307.34
338.135	297.98
338.588	328.41
339.042	370.54
339.495	323.73
339.948	295.64
340.401	309.68
340.854	354.15
341.307	361.17
341.76	290.96
342.213	351.81
342.666	288.62
343.119	389.26
343.571	290.96
344.024	349.47
344.477	384.58
344.929	375.22
345.382	314.36
345.834	297.98
346.287	307.34
346.739	297.98
347.191	307.34
347.644	309.68
348.096	328.41
348.548	333.09
349	384.58
349.452	300.32
349.904	260.53
350.356	269.89
350.808	290.96
351.26	330.75
351.711	283.94
352.163	328.41
352.615	281.6
353.066	297.98
353.518	307.34
353.969	260.53
354.421	363.51
354.872	330.75
355.324	295.64
355.775	305
356.226	276.91
356.677	281.6
357.128	340.11
357.579	286.28
358.03	342.45
358.481	272.23
358.932	312.02
359.383	255.85
359.834	309.68
360.285	276.91
360.735	349.47
361.186	297.98
361.637	288.62
362.087	265.21
362.538	337.77
362.988	326.07
363.438	314.36
363.889	286.28
364.339	312.02
364.789	326.07
365.239	319.04
365.689	272.23
366.139	323.73
366.589	354.15
367.039	258.19
367.489	302.66
367.939	400.96
368.389	365.85
368.839	323.73
369.288	295.64
369.738	274.57
370.187	323.73
370.637	274.57
371.086	370.54
371.536	262.87
371.985	293.3
372.434	248.83
372.884	358.83
373.333	305
373.782	316.7
374.231	223.08
374.68	365.85
375.129	335.43
375.578	356.49
376.027	365.85
376.475	342.45
376.924	354.15
377.373	333.09
377.822	321.38
378.27	372.88
378.719	351.81
379.167	337.77
379.616	403.3
380.064	349.47
380.512	342.45
380.961	276.91
381.409	335.43
381.857	321.38
382.305	265.21
382.753	356.49
383.201	351.81
383.649	347.13
384.097	372.88
384.545	297.98
384.992	386.92
385.44	323.73
385.888	302.66
386.335	365.85
386.783	351.81
387.231	251.17
387.678	258.19
388.125	302.66
388.573	302.66
389.02	365.85
389.467	286.28
389.914	314.36
390.362	260.53
390.809	335.43
391.256	335.43
391.703	295.64
392.15	286.28
392.596	258.19
393.043	342.45
393.49	309.68
393.937	267.55
394.383	384.58
394.83	244.15
395.276	262.87
395.723	260.53
396.169	309.68
396.616	396.28
397.062	316.7
397.508	279.26
397.954	323.73
398.401	354.15
398.847	297.98
399.293	276.91
399.739	323.73
400.185	314.36
400.631	347.13
401.076	300.32
401.522	393.94
401.968	319.04
402.414	328.41
402.859	368.2
403.305	297.98
403.75	293.3
404.196	297.98
404.641	321.38
405.086	326.07
405.532	286.28
405.977	312.02
406.422	328.41
406.867	312.02
407.312	342.45
407.757	323.73
408.202	321.38
408.647	330.75
409.092	312.02
409.537	272.23
409.982	281.6
410.426	297.98
410.871	326.07
411.316	279.26
411.76	321.38
412.205	265.21
412.649	375.22
413.093	314.36
413.538	281.6
413.982	316.7
414.426	344.79
414.87	316.7
415.314	262.87
415.758	349.47
416.202	267.55
416.646	351.81
417.09	323.73
417.534	354.15
417.978	312.02
418.421	333.09
418.865	351.81
419.309	319.04
419.752	337.77
420.196	326.07
420.639	305
421.083	342.45
421.526	316.7
421.969	344.79
422.412	333.09
422.856	286.28
423.299	300.32
423.742	398.62
424.185	319.04
424.628	323.73
425.071	305
425.513	326.07
425.956	328.41
426.399	391.6
426.842	370.54
427.284	309.68
427.727	314.36
428.169	321.38
428.612	384.58
429.054	290.96
429.497	288.62
429.939	272.23
430.381	288.62
430.823	382.24
431.265	330.75
431.707	300.32
432.149	321.38
432.591	300.32
433.033	342.45
433.475	321.38
433.917	316.7
434.359	316.7
434.8	302.66
435.242	286.28
435.684	326.07
436.125	272.23
436.567	319.04
437.008	377.56
437.449	337.77
437.891	333.09
438.332	293.3
438.773	316.7
439.214	288.62
439.656	330.75
440.097	286.28
440.538	312.02
440.978	375.22
441.419	351.81
441.86	297.98
442.301	290.96
442.742	260.53
443.182	330.75
443.623	333.09
444.063	347.13
444.504	340.11
444.944	309.68
445.385	368.2
445.825	281.6
446.265	307.34
446.706	326.07
447.146	312.02
447.586	335.43
448.026	283.94
448.466	370.54
448.906	328.41
449.346	283.94
449.786	281.6
450.225	326.07
450.665	375.22
451.105	358.83
451.544	297.98
451.984	312.02
452.424	309.68
452.863	344.79
453.302	335.43
453.742	286.28
454.181	358.83
454.62	335.43
455.059	262.87
455.499	290.96
455.938	314.36
456.377	382.24
456.816	262.87
457.254	340.11
457.693	344.79
458.132	323.73
458.571	314.36
459.01	274.57
459.448	279.26
459.887	333.09
460.325	337.77
460.764	281.6
461.202	293.3
461.641	290.96
462.079	337.77
462.517	358.83
462.955	363.51
463.393	307.34
463.832	372.88
464.27	321.38
464.708	297.98
465.145	328.41
465.583	375.22
466.021	351.81
466.459	283.94
466.897	248.83
467.334	312.02
467.772	297.98
468.209	314.36
468.647	251.17
469.084	290.96
469.522	227.76
469.959	300.32
470.396	314.36
470.833	295.64
471.271	283.94
471.708	321.38
472.145	302.66
472.582	323.73
473.019	361.17
473.456	363.51
473.892	335.43
474.329	330.75
474.766	379.9
475.202	328.41
475.639	356.49
476.076	356.49
476.512	297.98
476.949	389.26
477.385	354.15
477.821	368.2
478.258	204.36
478.694	276.91
479.13	295.64
479.566	342.45
480.002	335.43
480.438	305
480.874	319.04
481.31	286.28
481.746	314.36
482.181	286.28
482.617	314.36
483.053	363.51
483.488	300.32
483.924	295.64
484.36	300.32
484.795	276.91
485.23	253.51
485.666	288.62
486.101	370.54
486.536	344.79
486.971	342.45
487.407	335.43
487.842	328.41
488.277	365.85
488.712	314.36
489.146	347.13
489.581	244.15
490.016	349.47
490.451	251.17
490.885	347.13
491.32	302.66
491.755	297.98
492.189	302.66
492.624	281.6
493.058	344.79
493.492	330.75
493.927	417.35
494.361	326.07
494.795	363.51
495.229	342.45
495.663	340.11
496.097	370.54
496.531	300.32
496.965	337.77
497.399	323.73
497.833	307.34
498.266	328.41
498.7	358.83
499.134	312.02
499.567	305
500.001	342.45
500.434	283.94
500.868	302.66
501.301	283.94
501.734	328.41
502.168	272.23
502.601	368.2
503.034	312.02
503.467	326.07
503.9	302.66
504.333	382.24
504.766	321.38
505.199	279.26
505.632	356.49
506.064	307.34
506.497	300.32
506.93	330.75
507.362	258.19
507.795	302.66
508.227	333.09
508.66	400.96
509.092	316.7
509.524	230.1
509.956	340.11
510.389	323.73
510.821	379.9
511.253	319.04
511.685	319.04
512.117	293.3
512.549	281.6
512.981	305
513.412	321.38
513.844	316.7
514.276	307.34
514.707	288.62
515.139	295.64
515.571	354.15
516.002	370.54
516.433	328.41
516.865	328.41
517.296	300.32
517.727	351.81
518.159	356.49
518.59	260.53
519.021	349.47
519.452	354.15
519.883	300.32
520.314	358.83
520.744	328.41
521.175	326.07
521.606	295.64
522.037	368.2
522.467	297.98
522.898	321.38
523.328	295.64
523.759	375.22
524.189	279.26
524.62	300.32
525.05	293.3
525.48	375.22
525.91	354.15
526.341	370.54
526.771	344.79
527.201	344.79
527.631	302.66
528.061	295.64
528.49	361.17
528.92	295.64
529.35	295.64
529.78	312.02
530.209	305
530.639	333.09
531.068	333.09
531.498	290.96
531.927	302.66
532.357	314.36
532.786	323.73
533.215	295.64
533.644	335.43
534.074	344.79
534.503	347.13
534.932	342.45
535.361	333.09
535.79	295.64
536.218	295.64
536.647	321.38
537.076	305
537.505	234.78
537.933	337.77
538.362	305
538.79	330.75
539.219	333.09
539.647	302.66
540.076	321.38
540.504	314.36
540.932	288.62
541.36	286.28
541.788	312.02
542.217	354.15
542.645	333.09
543.073	262.87
543.5	253.51
543.928	279.26
544.356	300.32
544.784	281.6
545.211	316.7
545.639	330.75
546.067	305
546.494	368.2
546.922	316.7
547.349	225.42
547.776	358.83
548.204	319.04
548.631	279.26
549.058	286.28
549.485	358.83
549.912	349.47
550.339	297.98
550.766	379.9
551.193	342.45
551.62	293.3
552.047	283.94
552.474	431.39
552.9	295.64
553.327	328.41
553.754	302.66
554.18	321.38
554.607	349.47
555.033	375.22
555.459	326.07
555.886	307.34
556.312	372.88
556.738	382.24
557.164	377.56
557.59	314.36
558.016	314.36
558.442	342.45
558.868	328.41
559.294	288.62
559.72	319.04
560.145	333.09
560.571	333.09
560.997	326.07
561.422	295.64
561.848	297.98
562.273	286.28
562.699	272.23
563.124	300.32
563.549	305
563.974	309.68
564.4	309.68
564.825	288.62
565.25	344.79
565.675	267.55
566.1	265.21
566.525	354.15
566.95	356.49
567.374	290.96
567.799	323.73
568.224	307.34
568.648	337.77
569.073	335.43
569.497	391.6
569.922	319.04
570.346	342.45
570.771	349.47
571.195	328.41
571.619	309.68
572.043	288.62
572.467	351.81
572.891	340.11
573.315	312.02
573.739	255.85
574.163	272.23
574.587	314.36
575.011	326.07
575.435	288.62
575.858	246.49
576.282	279.26
576.705	309.68
577.129	375.22
577.552	305
577.976	330.75
578.399	290.96
578.822	358.83
579.245	302.66
579.669	328.41
580.092	316.7
580.515	312.02
580.938	316.7
581.361	344.79
581.784	354.15
582.206	347.13
582.629	279.26
583.052	342.45
583.474	309.68
583.897	398.62
584.32	279.26
584.742	286.28
585.165	351.81
585.587	293.3
586.009	333.09
586.431	375.22
586.854	337.77
587.276	309.68
587.698	330.75
588.12	276.91
588.542	340.11
588.964	340.11
589.386	335.43
589.807	340.11
590.229	267.55
590.651	349.47
591.073	316.7
591.494	351.81
591.916	368.2
592.337	365.85
592.759	302.66
593.18	337.77
593.601	328.41
594.022	326.07
594.444	255.85
594.865	307.34
595.286	424.37
595.707	269.89
596.128	319.04
596.549	307.34
596.97	319.04
597.39	326.07
597.811	375.22
598.232	321.38
598.652	253.51
599.073	340.11
599.494	248.83
599.914	335.43
600.334	382.24
600.755	312.02
601.175	312.02
601.595	295.64
602.015	314.36
602.436	290.96
602.856	443.09
603.276	297.98
603.696	356.49
604.115	295.64
604.535	335.43
604.955	354.15
605.375	333.09
605.794	344.79
606.214	351.81
606.634	342.45
607.053	286.28
607.473	262.87
607.892	342.45
608.311	412.67
608.731	295.64
609.15	295.64
609.569	335.43
609.988	295.64
610.407	297.98
610.826	253.51
611.245	389.26
611.664	393.94
612.083	295.64
612.501	328.41
612.92	321.38
613.339	276.91
613.757	312.02
614.176	333.09
614.594	274.57
615.013	312.02
615.431	347.13
615.85	396.28
616.268	290.96
616.686	344.79
617.104	330.75
617.522	335.43
617.94	316.7
618.358	312.02
618.776	286.28
619.194	349.47
619.612	384.58
620.03	342.45
620.447	349.47
620.865	323.73
621.282	251.17
621.7	279.26
622.117	262.87
622.535	302.66
622.952	337.77
623.369	314.36
623.787	267.55
624.204	368.2
624.621	288.62
625.038	293.3
625.455	356.49
625.872	314.36
626.289	330.75
626.706	361.17
627.123	330.75
627.539	330.75
627.956	337.77
628.373	297.98
628.789	290.96
629.206	340.11
629.622	293.3
630.038	326.07
630.455	337.77
630.871	344.79
631.287	297.98
631.703	344.79
632.12	370.54
632.536	279.26
632.952	351.81
633.368	300.32
633.783	365.85
634.199	333.09
634.615	262.87
635.031	328.41
635.446	312.02
635.862	326.07
636.277	333.09
636.693	358.83
637.108	335.43
637.524	288.62
637.939	300.32
638.354	281.6
638.77	326.07
639.185	370.54
639.6	300.32
640.015	326.07
640.43	246.49
640.845	267.55
641.259	272.23
641.674	283.94
642.089	337.77
642.504	344.79
642.918	323.73
643.333	283.94
643.747	302.66
644.162	283.94
644.576	333.09
644.991	239.47
645.405	307.34
645.819	293.3
646.233	255.85
646.647	281.6
647.061	290.96
647.475	361.17
647.889	321.38
648.303	269.89
648.717	274.57
649.131	265.21
649.545	276.91
649.958	326.07
650.372	379.9
650.785	358.83
651.199	316.7
651.612	314.36
652.026	276.91
652.439	290.96
652.852	260.53
653.266	286.28
653.679	370.54
654.092	230.1
654.505	269.89
654.918	379.9
655.331	398.62
655.744	333.09
656.156	328.41
656.569	305
656.982	328.41
657.394	361.17
657.807	286.28
658.22	321.38
658.632	328.41
659.044	326.07
659.457	295.64
659.869	342.45
660.281	349.47
660.693	321.38
661.106	305
661.518	323.73
661.93	262.87
662.342	302.66
662.754	316.7
663.165	309.68
663.577	347.13
663.989	312.02
664.401	321.38
664.812	384.58
665.224	363.51
665.635	358.83
666.047	307.34
666.458	288.62
666.869	312.02
667.281	337.77
667.692	288.62
668.103	309.68
668.514	361.17
668.925	307.34
669.336	279.26
669.747	342.45
670.158	283.94
670.569	342.45
670.979	356.49
671.39	286.28
671.801	309.68
672.211	330.75
672.622	356.49
673.032	279.26
673.443	309.68
673.853	293.3
674.263	372.88
674.674	321.38
675.084	314.36
675.494	293.3
675.904	330.75
676.314	361.17
676.724	283.94
677.134	300.32
677.544	316.7
677.953	377.56
678.363	426.71
678.773	377.56
679.182	326.07
679.592	319.04
680.001	363.51
680.411	389.26
680.82	354.15
681.23	347.13
681.639	335.43
682.048	361.17
682.457	319.04
682.866	337.77
683.275	368.2
683.684	281.6
684.093	370.54
684.502	363.51
684.911	312.02
685.32	330.75
685.728	274.57
686.137	300.32
686.546	319.04
686.954	321.38
687.363	288.62
687.771	335.43
688.179	241.81
688.588	354.15
688.996	279.26
689.404	356.49
689.812	314.36
690.22	305
690.628	253.51
691.036	309.68
691.444	358.83
691.852	305
692.26	379.9
692.667	293.3
693.075	326.07
693.483	354.15
693.89	328.41
694.298	295.64
694.705	354.15
695.112	328.41
695.52	328.41
695.927	293.3
696.334	361.17
696.741	342.45
697.148	316.7
697.555	283.94
697.962	265.21
698.369	351.81
698.776	281.6
699.183	300.32
699.59	330.75
699.996	344.79
700.403	305
700.81	288.62
701.216	354.15
701.623	274.57
702.029	337.77
702.435	272.23
702.842	337.77
703.248	300.32
703.654	302.66
704.06	237.13
704.466	297.98
704.872	279.26
705.278	344.79
705.684	363.51
706.09	326.07
706.496	323.73
706.901	314.36
707.307	309.68
707.712	300.32
708.118	319.04
708.523	342.45
708.929	389.26
709.334	363.51
709.74	363.51
710.145	349.47
710.55	286.28
710.955	342.45
711.36	333.09
711.765	300.32
712.17	330.75
712.575	319.04
712.98	768.43
713.385	361.17
713.789	335.43
714.194	260.53
714.599	283.94
715.003	237.13
715.408	319.04
715.812	337.77
716.217	333.09
716.621	354.15
717.025	335.43
717.429	363.51
717.833	307.34
718.238	239.47
718.642	347.13
719.046	314.36
719.449	300.32
719.853	337.77
720.257	295.64
720.661	279.26
721.065	295.64
721.468	316.7
721.872	386.92
722.275	314.36
722.679	342.45
723.082	305
723.485	323.73
723.889	316.7
724.292	286.28
724.695	309.68
725.098	267.55
725.501	342.45
725.904	323.73
726.307	272.23
726.71	330.75
727.113	216.06
727.516	314.36
727.918	319.04
728.321	326.07
728.724	274.57
729.126	293.3
729.529	370.54
729.931	335.43
730.333	290.96
730.736	316.7
731.138	265.21
731.54	290.96
731.942	379.9
732.344	349.47
732.746	281.6
733.148	302.66
733.55	344.79
733.952	337.77
734.354	265.21
734.756	307.34
735.157	382.24
735.559	305
735.96	307.34
736.362	400.96
736.763	403.3
737.165	305
737.566	295.64
737.967	337.77
738.368	281.6
738.77	307.34
739.171	328.41
739.572	319.04
739.973	363.51
740.374	312.02
740.774	281.6
741.175	302.66
741.576	330.75
741.977	295.64
742.377	279.26
742.778	265.21
743.178	358.83
743.579	340.11
743.979	370.54
744.379	286.28
744.78	265.21
745.18	368.2
745.58	260.53
745.98	328.41
746.38	319.04
746.78	340.11
747.18	297.98
747.58	309.68
747.98	265.21
748.38	283.94
748.779	302.66
749.179	365.85
749.578	330.75
749.978	354.15
750.377	340.11
750.777	326.07
751.176	316.7
751.575	302.66
751.975	305
752.374	297.98
752.773	379.9
753.172	333.09
753.571	368.2
753.97	342.45
754.369	309.68
754.768	300.32
755.166	328.41
755.565	279.26
755.964	398.62
756.362	321.38
756.761	330.75
757.159	307.34
757.558	300.32
757.956	356.49
758.354	349.47
758.753	363.51
759.151	356.49
759.549	316.7
759.947	274.57
760.345	312.02
760.743	328.41
761.141	302.66
761.539	323.73
761.936	218.4
762.334	269.89
762.732	255.85
763.129	335.43
763.527	319.04
763.924	307.34
764.322	295.64
764.719	400.96
765.117	244.15
765.514	288.62
765.911	309.68
766.308	290.96
766.705	300.32
767.102	307.34
767.499	305
767.896	312.02
768.293	326.07
768.69	344.79
769.086	319.04
769.483	379.9
769.88	330.75
770.276	295.64
770.673	375.22
771.069	391.6
771.466	323.73
771.862	344.79
772.258	342.45
772.654	326.07
773.05	328.41
773.447	314.36
773.843	295.64
774.239	328.41
774.634	276.91
775.03	246.49
775.426	314.36
775.822	370.54
776.218	344.79
776.613	337.77
777.009	349.47
777.404	375.22
777.8	319.04
778.195	319.04
778.59	326.07
778.986	372.88
779.381	326.07
779.776	363.51
780.171	349.47
780.566	361.17
780.961	262.87
781.356	375.22
781.751	305
782.146	302.66
782.54	290.96
782.935	396.28
783.33	312.02
783.724	333.09
784.119	335.43
784.513	283.94
784.908	326.07
785.302	372.88
785.696	351.81
786.09	370.54
786.485	321.38
786.879	337.77
787.273	295.64
787.667	342.45
788.061	333.09
788.454	330.75
788.848	251.17
789.242	281.6
789.636	305
790.029	290.96
790.423	340.11
790.816	337.77
791.21	274.57
791.603	333.09
791.997	255.85
792.39	269.89
792.783	279.26
793.176	274.57
793.569	365.85
793.962	396.28
794.355	351.81
794.748	281.6
795.141	269.89
795.534	326.07
795.927	302.66
796.319	314.36
796.712	354.15
797.105	295.64
797.497	328.41
797.89	354.15
798.282	379.9
798.674	342.45
799.067	290.96
799.459	335.43
799.851	347.13
800.243	342.45
800.635	309.68
801.027	354.15
801.419	300.32
801.811	312.02
802.203	286.28
802.594	363.51
802.986	323.73
803.378	358.83
803.769	288.62
804.161	290.96
804.552	309.68
804.944	347.13
805.335	302.66
805.726	248.83
806.118	307.34
806.509	283.94
806.9	293.3
807.291	335.43
807.682	286.28
808.073	337.77
808.464	307.34
808.855	326.07
809.245	370.54
809.636	286.28
810.027	307.34
810.417	253.51
810.808	262.87
811.198	351.81
811.589	351.81
811.979	342.45
812.369	293.3
812.759	260.53
813.15	337.77
813.54	351.81
813.93	347.13
814.32	269.89
814.71	295.64
815.1	321.38
815.489	276.91
815.879	321.38
816.269	267.55
816.658	319.04
817.048	312.02
817.438	365.85
817.827	316.7
818.216	319.04
818.606	274.57
818.995	382.24
819.384	335.43
819.773	290.96
820.163	316.7
820.552	279.26
820.941	220.74
821.33	328.41
821.718	326.07
822.107	323.73
822.496	305
822.885	267.55
823.273	330.75
823.662	337.77
824.05	365.85
824.439	333.09
824.827	276.91
825.216	307.34
825.604	302.66
825.992	344.79
826.38	314.36
826.768	328.41
827.156	290.96
827.544	321.38
827.932	239.47
828.32	337.77
828.708	246.49
829.096	321.38
829.483	279.26
829.871	333.09
830.259	293.3
830.646	340.11
831.034	279.26
831.421	309.68
831.808	351.81
832.196	307.34
832.583	344.79
832.97	342.45
833.357	288.62
833.744	276.91
834.131	220.74
834.518	347.13
834.905	290.96
835.292	337.77
835.678	276.91
836.065	333.09
836.452	335.43
836.838	312.02
837.225	349.47
837.611	305
837.998	314.36
838.384	314.36
838.77	274.57
839.157	316.7
839.543	300.32
839.929	262.87
840.315	258.19
840.701	321.38
841.087	351.81
841.473	302.66
841.858	330.75
842.244	319.04
842.63	302.66
843.015	314.36
843.401	606.93
843.787	335.43
844.172	241.81
844.557	363.51
844.943	333.09
845.328	323.73
845.713	333.09
846.098	290.96
846.483	323.73
846.868	361.17
847.253	314.36
847.638	356.49
848.023	297.98
848.408	300.32
848.793	328.41
849.177	300.32
849.562	279.26
849.947	305
850.331	349.47
850.715	251.17
851.1	312.02
851.484	267.55
851.868	333.09
852.253	307.34
852.637	281.6
853.021	405.64
853.405	319.04
853.789	262.87
854.173	272.23
854.557	363.51
854.94	358.83
855.324	330.75
855.708	363.51
856.091	297.98
856.475	281.6
856.858	307.34
857.242	349.47
857.625	323.73
858.009	333.09
858.392	297.98
858.775	300.32
859.158	358.83
859.541	276.91
859.924	314.36
860.307	281.6
860.69	354.15
861.073	335.43
861.456	305
861.838	323.73
862.221	312.02
862.604	281.6
862.986	286.28
863.369	262.87
863.751	337.77
864.133	246.49
864.516	363.51
864.898	309.68
865.28	302.66
865.662	326.07
866.044	335.43
866.426	328.41
866.808	260.53
867.19	297.98
867.572	323.73
867.954	281.6
868.336	335.43
868.717	300.32
869.099	309.68
869.48	234.78
869.862	335.43
870.243	309.68
870.625	335.43
871.006	335.43
871.387	330.75
871.768	384.58
872.149	349.47
872.53	389.26
872.911	286.28
873.292	302.66
873.673	274.57
874.054	293.3
874.435	351.81
874.815	337.77
875.196	312.02
875.577	340.11
875.957	307.34
876.338	342.45
876.718	312.02
877.098	372.88
877.479	283.94
877.859	295.64
878.239	305
878.619	293.3
878.999	389.26
879.379	218.4
879.759	262.87
880.139	276.91
880.519	335.43
880.898	314.36
881.278	316.7
881.658	302.66
882.037	276.91
882.417	286.28
882.796	286.28
883.176	337.77
883.555	283.94
883.934	333.09
884.313	239.47
884.693	314.36
885.072	274.57
885.451	312.02
885.83	314.36
886.209	295.64
886.587	290.96
886.966	340.11
887.345	340.11
887.724	361.17
888.102	300.32
888.481	330.75
888.859	316.7
889.238	260.53
889.616	281.6
889.994	297.98
890.373	293.3
890.751	272.23
891.129	389.26
891.507	326.07
891.885	333.09
892.263	358.83
892.641	354.15
893.019	361.17
893.396	333.09
893.774	351.81
894.152	358.83
894.529	230.1
894.907	319.04
895.284	267.55
895.662	323.73
896.039	307.34
896.416	300.32
896.794	349.47
897.171	309.68
897.548	342.45
897.925	281.6
898.302	321.38
898.679	297.98
899.056	340.11
899.433	319.04
899.809	326.07
900.186	288.62
900.563	258.19
900.939	265.21
901.316	265.21
901.692	314.36
902.069	281.6
902.445	351.81
902.821	358.83
903.197	260.53
903.574	276.91
903.95	349.47
904.326	361.17
904.702	326.07
905.078	305
905.454	276.91
905.829	307.34
906.205	262.87
906.581	300.32
906.956	281.6
907.332	347.13
907.707	300.32
908.083	349.47
908.458	316.7
908.833	279.26
909.209	326.07
909.584	297.98
909.959	312.02
910.334	244.15
910.709	370.54
911.084	295.64
911.459	305
911.834	349.47
912.209	302.66
912.583	328.41
912.958	290.96
913.333	276.91
913.707	330.75
914.082	302.66
914.456	326.07
914.83	326.07
915.205	323.73
915.579	349.47
915.953	255.85
916.327	319.04
916.701	276.91
917.075	295.64
917.449	307.34
917.823	302.66
918.197	251.17
918.571	342.45
918.944	319.04
919.318	305
919.692	232.44
920.065	295.64
920.438	276.91
920.812	307.34
921.185	272.23
921.558	248.83
921.932	337.77
922.305	281.6
922.678	281.6
923.051	326.07
923.424	258.19
923.797	279.26
924.17	232.44
924.542	326.07
924.915	286.28
925.288	323.73
925.661	295.64
926.033	333.09
926.406	365.85
926.778	309.68
927.15	253.51
927.523	365.85
927.895	309.68
928.267	279.26
928.639	293.3
929.011	340.11
929.383	316.7
929.755	321.38
930.127	323.73
930.499	283.94
930.871	335.43
931.242	361.17
931.614	316.7
931.986	342.45
932.357	358.83
932.729	319.04
933.1	309.68
933.471	365.85
933.843	337.77
934.214	283.94
934.585	372.88
934.956	344.79
935.327	251.17
935.698	302.66
936.069	265.21
936.44	370.54
936.811	337.77
937.182	337.77
937.552	321.38
937.923	358.83
938.293	323.73
938.664	335.43
939.034	335.43
939.405	321.38
939.775	307.34
940.145	300.32
940.516	370.54
940.886	351.81
941.256	288.62
941.626	290.96
941.996	283.94
942.366	328.41
942.735	342.45
943.105	370.54
943.475	307.34
943.845	307.34
944.214	316.7
944.584	319.04
944.953	328.41
945.323	309.68
945.692	267.55
946.061	375.22
946.43	297.98
946.8	297.98
947.169	344.79
947.538	295.64
947.907	312.02
948.276	286.28
948.645	342.45
949.013	337.77
949.382	314.36
949.751	288.62
950.119	305
950.488	258.19
950.857	288.62
951.225	323.73
951.593	286.28
951.962	356.49
952.33	272.23
952.698	370.54
953.066	323.73
953.434	276.91
953.802	288.62
954.17	302.66
954.538	351.81
954.906	347.13
955.274	323.73
955.642	290.96
956.009	260.53
956.377	300.32
956.744	312.02
957.112	328.41
957.479	302.66
957.847	337.77
958.214	316.7
958.581	265.21
958.948	330.75
959.315	246.49
959.683	265.21
960.05	361.17
960.416	307.34
960.783	274.57
961.15	326.07
961.517	316.7
961.884	262.87
962.25	314.36
962.617	293.3
962.983	276.91
963.35	333.09
963.716	316.7
964.082	267.55
964.449	269.89
964.815	393.94
965.181	248.83
965.547	300.32
965.913	244.15
966.279	258.19
966.645	321.38
967.011	328.41
967.377	288.62
967.742	358.83
968.108	323.73
968.474	269.89
968.839	302.66
969.205	300.32
969.57	312.02
969.935	347.13
970.301	309.68
970.666	297.98
971.031	279.26
971.396	265.21
971.761	391.6
972.126	302.66
972.491	290.96
972.856	276.91
973.221	274.57
973.586	342.45
973.95	368.2
974.315	330.75
974.679	281.6
975.044	321.38
975.408	300.32
975.773	274.57
976.137	288.62
976.501	302.66
976.866	265.21
977.23	288.62
977.594	307.34
977.958	309.68
978.322	312.02
978.686	279.26
979.049	276.91
979.413	375.22
979.777	330.75
980.141	297.98
980.504	290.96
980.868	234.78
981.231	283.94
981.595	297.98
981.958	258.19
982.321	274.57
982.684	279.26
983.048	321.38
983.411	375.22
983.774	309.68
984.137	279.26
984.5	309.68
984.862	312.02
985.225	321.38
985.588	307.34
985.951	328.41
986.313	326.07
986.676	321.38
987.038	335.43
987.401	319.04
987.763	363.51
988.125	253.51
988.488	321.38
988.85	356.49
989.212	297.98
989.574	286.28
989.936	297.98
990.298	283.94
990.66	302.66
991.022	305
991.383	290.96
991.745	361.17
992.107	400.96
992.468	312.02
992.83	319.04
993.191	335.43
993.553	333.09
993.914	309.68
994.275	391.6
994.637	316.7
994.998	333.09
995.359	361.17
995.72	354.15
996.081	379.9
996.442	328.41
996.803	333.09
997.163	267.55
997.524	202.02
997.885	361.17
998.245	363.51
998.606	351.81
998.966	272.23
999.327	328.41
999.687	323.73
1000.047	272.23
1000.408	337.77
1000.768	288.62
1001.128	302.66
1001.488	295.64
1001.848	330.75
1002.208	293.3
1002.568	300.32
1002.927	354.15
1003.287	319.04
1003.647	293.3
1004.007	312.02
1004.366	391.6
1004.726	309.68
1005.085	321.38
1005.444	279.26
1005.804	358.83
1006.163	384.58
1006.522	349.47
1006.881	354.15
1007.24	267.55
1007.599	302.66
1007.958	330.75
1008.317	302.66
1008.676	328.41
1009.035	262.87
1009.393	326.07
1009.752	307.34
1010.111	312.02
1010.469	260.53
1010.828	372.88
1011.186	337.77
1011.544	290.96
1011.903	307.34
1012.261	333.09
1012.619	300.32
1012.977	274.57
1013.335	340.11
1013.693	328.41
1014.051	328.41
1014.409	326.07
1014.767	269.89
1015.124	260.53
1015.482	340.11
1015.84	344.79
1016.197	286.28
1016.555	300.32
1016.912	300.32
1017.269	335.43
1017.627	314.36
1017.984	328.41
1018.341	283.94
1018.698	386.92
1019.055	319.04
1019.412	276.91
1019.769	368.2
1020.126	335.43
1020.483	321.38
1020.84	297.98
1021.196	276.91
1021.553	340.11
1021.909	281.6
1022.266	316.7
1022.622	286.28
1022.979	389.26
1023.335	354.15
1023.691	237.13
1024.047	290.96
1024.404	300.32
1024.76	333.09
1025.116	309.68
1025.472	326.07
1025.827	283.94
1026.183	363.51
1026.539	323.73
1026.895	274.57
1027.25	258.19
1027.606	321.38
1027.961	342.45
1028.317	314.36
1028.672	344.79
1029.028	300.32
1029.383	199.68
1029.738	276.91
1030.093	262.87
1030.448	305
1030.803	354.15
1031.158	293.3
1031.513	314.36
1031.868	307.34
1032.223	276.91
1032.577	295.64
1032.932	302.66
1033.287	342.45
1033.641	361.17
1033.996	389.26
1034.35	319.04
1034.704	368.2
1035.059	290.96
1035.413	305
1035.767	305
1036.121	305
