Data from Al_FLMS009871__373__12-32-02-827.txt Node

Date: Fri Mar 08 12:32:02 CST 2024
User: pe5414po
Spectrometer: FLMS00987
Trigger mode: 0
Integration Time (sec): 1.000000E-1
Scans to average: 1
Electric dark correction enabled: true
Nonlinearity correction enabled: false
Boxcar width: 0
XAxis mode: Wavelengths
Number of Pixels in Spectrum: 2048
>>>>>Begin Spectral Data<<<<<
188.938	-59.39
189.409	-59.39
189.879	-59.39
190.349	-134.29
190.819	-141.31
191.29	-155.35
191.76	-31.3
192.23	-87.48
192.7	-57.05
193.17	-57.05
193.64	-7.9
194.109	-57.05
194.579	-52.37
195.049	-5.56
195.519	13.17
195.988	48.27
196.458	17.85
196.927	85.72
197.397	95.08
197.866	104.45
198.336	146.58
198.805	102.11
199.274	155.94
199.744	221.47
200.213	198.07
200.682	223.81
201.151	191.05
201.62	205.09
202.089	251.9
202.558	221.47
203.027	284.67
203.495	296.37
203.964	247.22
204.433	251.9
204.902	275.31
205.37	240.2
205.839	312.75
206.307	296.37
206.776	237.86
207.244	277.65
207.712	298.71
208.181	254.24
208.649	294.03
209.117	310.41
209.585	265.94
210.053	251.9
210.521	235.52
210.989	277.65
211.457	291.69
211.925	282.33
212.393	298.71
212.861	329.14
213.328	284.67
213.796	202.75
214.264	244.88
214.731	275.31
215.199	263.6
215.666	198.07
216.133	237.86
216.601	301.05
217.068	319.78
217.535	310.41
218.003	315.09
218.47	324.46
218.937	291.69
219.404	254.24
219.871	296.37
220.338	228.49
220.805	223.81
221.271	235.52
221.738	235.52
222.205	279.99
222.671	315.09
223.138	298.71
223.605	296.37
224.071	258.92
224.538	261.26
225.004	195.73
225.47	209.77
225.937	261.26
226.403	279.99
226.869	279.99
227.335	214.45
227.801	240.2
228.267	331.48
228.733	237.86
229.199	205.09
229.665	294.03
230.131	298.71
230.597	268.28
231.062	301.05
231.528	209.77
231.994	240.2
232.459	317.44
232.925	284.67
233.39	291.69
233.856	287.01
234.321	317.44
234.786	242.54
235.252	221.47
235.717	235.52
236.182	298.71
236.647	261.26
237.112	256.58
237.577	270.62
238.042	268.28
238.507	228.49
238.972	256.58
239.436	277.65
239.901	233.18
240.366	294.03
240.83	305.73
241.295	249.56
241.76	294.03
242.224	214.45
242.688	254.24
243.153	251.9
243.617	265.94
244.081	212.11
244.545	303.39
245.01	282.33
245.474	242.54
245.938	244.88
246.402	270.62
246.866	268.28
247.33	268.28
247.793	270.62
248.257	249.56
248.721	298.71
249.185	265.94
249.648	326.8
250.112	265.94
250.575	261.26
251.039	289.35
251.502	240.2
251.965	223.81
252.429	249.56
252.892	237.86
253.355	284.67
253.818	256.58
254.281	209.77
254.744	294.03
255.207	287.01
255.67	249.56
256.133	305.73
256.596	291.69
257.059	277.65
257.522	256.58
257.984	298.71
258.447	195.73
258.909	249.56
259.372	265.94
259.834	277.65
260.297	284.67
260.759	322.12
261.221	308.07
261.684	329.14
262.146	317.44
262.608	277.65
263.07	291.69
263.532	284.67
263.994	235.52
264.456	326.8
264.918	289.35
265.38	263.6
265.842	282.33
266.303	254.24
266.765	303.39
267.227	336.16
267.688	272.96
268.15	291.69
268.611	268.28
269.072	272.96
269.534	275.31
269.995	324.46
270.456	244.88
270.918	279.99
271.379	287.01
271.84	277.65
272.301	265.94
272.762	268.28
273.223	298.71
273.684	265.94
274.144	294.03
274.605	291.69
275.066	322.12
275.527	233.18
275.987	282.33
276.448	291.69
276.908	324.46
277.369	263.6
277.829	308.07
278.289	240.2
278.75	315.09
279.21	298.71
279.67	352.54
280.13	279.99
280.59	317.44
281.05	256.58
281.51	298.71
281.97	284.67
282.43	284.67
282.89	233.18
283.35	268.28
283.809	270.62
284.269	347.86
284.729	272.96
285.188	298.71
285.648	275.31
286.107	289.35
286.567	315.09
287.026	287.01
287.485	298.71
287.944	347.86
288.404	270.62
288.863	322.12
289.322	308.07
289.781	279.99
290.24	240.2
290.699	317.44
291.158	291.69
291.616	336.16
292.075	331.48
292.534	326.8
292.992	270.62
293.451	235.52
293.91	265.94
294.368	329.14
294.827	312.75
295.285	317.44
295.743	315.09
296.202	198.07
296.66	296.37
297.118	282.33
297.576	336.16
298.034	247.22
298.492	268.28
298.95	284.67
299.408	282.33
299.866	261.26
300.324	244.88
300.781	279.99
301.239	301.05
301.697	305.73
302.154	265.94
302.612	310.41
303.069	308.07
303.527	277.65
303.984	331.48
304.441	272.96
304.899	202.75
305.356	265.94
305.813	265.94
306.27	287.01
306.727	258.92
307.184	294.03
307.641	254.24
308.098	263.6
308.555	275.31
309.012	340.84
309.468	315.09
309.925	287.01
310.382	315.09
310.838	244.88
311.295	347.86
311.751	284.67
312.208	284.67
312.664	364.25
313.12	287.01
313.577	291.69
314.033	258.92
314.489	357.22
314.945	392.33
315.401	261.26
315.857	315.09
316.313	392.33
316.769	254.24
317.225	223.81
317.681	275.31
318.136	294.03
318.592	298.71
319.048	249.56
319.503	256.58
319.959	272.96
320.414	272.96
320.869	265.94
321.325	284.67
321.78	263.6
322.235	268.28
322.691	291.69
323.146	329.14
323.601	305.73
324.056	296.37
324.511	303.39
324.966	282.33
325.421	268.28
325.875	322.12
326.33	270.62
326.785	319.78
327.24	268.28
327.694	303.39
328.149	305.73
328.603	317.44
329.058	319.78
329.512	289.35
329.966	282.33
330.421	312.75
330.875	214.45
331.329	287.01
331.783	298.71
332.237	310.41
332.691	305.73
333.145	289.35
333.599	223.81
334.053	219.13
334.507	249.56
334.96	359.56
335.414	289.35
335.868	279.99
336.321	263.6
336.775	368.93
337.228	301.05
337.682	275.31
338.135	265.94
338.588	324.46
339.042	371.27
339.495	315.09
339.948	329.14
340.401	287.01
340.854	308.07
341.307	303.39
341.76	265.94
342.213	310.41
342.666	270.62
343.119	298.71
343.571	254.24
344.024	254.24
344.477	287.01
344.929	294.03
345.382	265.94
345.834	240.2
346.287	343.18
346.739	331.48
347.191	385.31
347.644	324.46
348.096	298.71
348.548	228.49
349	291.69
349.452	319.78
349.904	294.03
350.356	289.35
350.808	305.73
351.26	268.28
351.711	319.78
352.163	272.96
352.615	406.38
353.066	294.03
353.518	317.44
353.969	301.05
354.421	249.56
354.872	249.56
355.324	277.65
355.775	354.88
356.226	319.78
356.677	308.07
357.128	350.2
357.579	289.35
358.03	265.94
358.481	315.09
358.932	312.75
359.383	235.52
359.834	298.71
360.285	291.69
360.735	294.03
361.186	291.69
361.637	244.88
362.087	331.48
362.538	319.78
362.988	287.01
363.438	301.05
363.889	324.46
364.339	385.31
364.789	324.46
365.239	312.75
365.689	361.91
366.139	359.56
366.589	305.73
367.039	294.03
367.489	338.5
367.939	331.48
368.389	329.14
368.839	322.12
369.288	361.91
369.738	371.27
370.187	296.37
370.637	268.28
371.086	310.41
371.536	308.07
371.985	336.16
372.434	345.52
372.884	284.67
373.333	305.73
373.782	322.12
374.231	378.29
374.68	284.67
375.129	263.6
375.578	359.56
376.027	319.78
376.475	291.69
376.924	272.96
377.373	315.09
377.822	347.86
378.27	249.56
378.719	305.73
379.167	310.41
379.616	331.48
380.064	301.05
380.512	279.99
380.961	284.67
381.409	333.82
381.857	249.56
382.305	310.41
382.753	322.12
383.201	277.65
383.649	359.56
384.097	317.44
384.545	291.69
384.992	258.92
385.44	270.62
385.888	352.54
386.335	298.71
386.783	305.73
387.231	294.03
387.678	308.07
388.125	275.31
388.573	298.71
389.02	251.9
389.467	329.14
389.914	312.75
390.362	347.86
390.809	279.99
391.256	359.56
391.703	296.37
392.15	305.73
392.596	357.22
393.043	308.07
393.49	333.82
393.937	331.48
394.383	368.93
394.83	291.69
395.276	354.88
395.723	294.03
396.169	361.91
396.616	315.09
397.062	329.14
397.508	261.26
397.954	282.33
398.401	275.31
398.847	326.8
399.293	296.37
399.739	340.84
400.185	301.05
400.631	375.95
401.076	336.16
401.522	303.39
401.968	277.65
402.414	296.37
402.859	315.09
403.305	317.44
403.75	333.82
404.196	340.84
404.641	294.03
405.086	284.67
405.532	298.71
405.977	312.75
406.422	287.01
406.867	287.01
407.312	296.37
407.757	256.58
408.202	305.73
408.647	317.44
409.092	331.48
409.537	317.44
409.982	338.5
410.426	312.75
410.871	284.67
411.316	277.65
411.76	284.67
412.205	324.46
412.649	347.86
413.093	399.35
413.538	289.35
413.982	301.05
414.426	275.31
414.87	319.78
415.314	340.84
415.758	270.62
416.202	291.69
416.646	333.82
417.09	310.41
417.534	366.59
417.978	289.35
418.421	277.65
418.865	326.8
419.309	324.46
419.752	366.59
420.196	354.88
420.639	378.29
421.083	340.84
421.526	336.16
421.969	347.86
422.412	387.65
422.856	301.05
423.299	277.65
423.742	298.71
424.185	366.59
424.628	366.59
425.071	352.54
425.513	303.39
425.956	382.97
426.399	404.03
426.842	394.67
427.284	279.99
427.727	343.18
428.169	378.29
428.612	357.22
429.054	315.09
429.497	359.56
429.939	364.25
430.381	263.6
430.823	324.46
431.265	401.69
431.707	436.8
432.149	401.69
432.591	385.31
433.033	406.38
433.475	378.29
433.917	457.87
434.359	528.08
434.8	483.61
435.242	530.42
435.684	525.74
436.125	453.19
436.567	446.16
437.008	411.06
437.449	425.1
437.891	389.99
438.332	385.31
438.773	401.69
439.214	467.23
439.656	450.85
440.097	481.27
440.538	450.85
440.978	457.87
441.419	425.1
441.86	511.7
442.301	507.02
442.742	460.21
443.182	518.72
443.623	469.57
444.063	401.69
444.504	516.38
444.944	539.79
445.385	474.25
445.825	460.21
446.265	401.69
446.706	497.66
447.146	467.23
447.586	514.04
448.026	488.29
448.466	471.91
448.906	511.7
449.346	485.95
449.786	434.46
450.225	469.57
450.665	516.38
451.105	467.23
451.544	490.63
451.984	404.03
452.424	446.16
452.863	432.12
453.302	420.42
453.742	516.38
454.181	408.72
454.62	425.1
455.059	436.8
455.499	485.95
455.938	455.53
456.377	434.46
456.816	441.48
457.254	476.59
457.693	439.14
458.132	397.01
458.571	371.27
459.01	404.03
459.448	439.14
459.887	387.65
460.325	460.21
460.764	434.46
461.202	446.16
461.641	429.78
462.079	361.91
462.517	324.46
462.955	441.48
463.393	387.65
463.832	453.19
464.27	406.38
464.708	434.46
465.145	408.72
465.583	347.86
466.021	404.03
466.459	385.31
466.897	343.18
467.334	350.2
467.772	389.99
468.209	380.63
468.647	357.22
469.084	331.48
469.522	357.22
469.959	411.06
470.396	397.01
470.833	366.59
471.271	413.4
471.708	338.5
472.145	392.33
472.582	366.59
473.019	385.31
473.456	432.12
473.892	361.91
474.329	345.52
474.766	422.76
475.202	305.73
475.639	389.99
476.076	387.65
476.512	322.12
476.949	343.18
477.385	368.93
477.821	392.33
478.258	389.99
478.694	394.67
479.13	359.56
479.566	375.95
480.002	382.97
480.438	298.71
480.874	375.95
481.31	380.63
481.746	422.76
482.181	354.88
482.617	420.42
483.053	441.48
483.488	368.93
483.924	347.86
484.36	392.33
484.795	439.14
485.23	380.63
485.666	361.91
486.101	422.76
486.536	401.69
486.971	457.87
487.407	425.1
487.842	401.69
488.277	427.44
488.712	406.38
489.146	415.74
489.581	450.85
490.016	378.29
490.451	336.16
490.885	389.99
491.32	385.31
491.755	394.67
492.189	352.54
492.624	382.97
493.058	406.38
493.492	450.85
493.927	394.67
494.361	471.91
494.795	397.01
495.229	408.72
495.663	422.76
496.097	455.53
496.531	399.35
496.965	446.16
497.399	401.69
497.833	361.91
498.266	392.33
498.7	387.65
499.134	397.01
499.567	448.51
500.001	397.01
500.434	415.74
500.868	361.91
501.301	375.95
501.734	411.06
502.168	413.4
502.601	361.91
503.034	434.46
503.467	385.31
503.9	289.35
504.333	399.35
504.766	359.56
505.199	436.8
505.632	357.22
506.064	429.78
506.497	453.19
506.93	389.99
507.362	401.69
507.795	371.27
508.227	359.56
508.66	385.31
509.092	345.52
509.524	448.51
509.956	354.88
510.389	408.72
510.821	361.91
511.253	453.19
511.685	350.2
512.117	397.01
512.549	397.01
512.981	401.69
513.412	427.44
513.844	422.76
514.276	399.35
514.707	446.16
515.139	453.19
515.571	406.38
516.002	366.59
516.433	312.75
516.865	392.33
517.296	394.67
517.727	432.12
518.159	441.48
518.59	455.53
519.021	453.19
519.452	357.22
519.883	455.53
520.314	446.16
520.744	397.01
521.175	469.57
521.606	385.31
522.037	392.33
522.467	443.82
522.898	338.5
523.328	399.35
523.759	408.72
524.189	439.14
524.62	408.72
525.05	319.78
525.48	415.74
525.91	429.78
526.341	415.74
526.771	476.59
527.201	418.08
527.631	404.03
528.061	406.38
528.49	361.91
528.92	439.14
529.35	382.97
529.78	413.4
530.209	436.8
530.639	406.38
531.068	481.27
531.498	387.65
531.927	427.44
532.357	420.42
532.786	427.44
533.215	413.4
533.644	366.59
534.074	336.16
534.503	425.1
534.932	425.1
535.361	483.61
535.79	399.35
536.218	434.46
536.647	436.8
537.076	399.35
537.505	387.65
537.933	392.33
538.362	460.21
538.79	415.74
539.219	425.1
539.647	539.79
540.076	528.08
540.504	558.51
540.932	525.74
541.36	600.64
541.788	715.33
542.217	722.35
542.645	762.14
543.073	703.62
543.5	642.77
543.928	670.86
544.356	652.13
544.784	755.12
545.211	694.26
545.639	710.65
546.067	635.75
546.494	588.94
546.922	551.49
547.349	549.15
547.776	509.36
548.204	467.23
548.631	518.72
549.058	462.55
549.485	523.4
549.912	469.57
550.339	481.27
550.766	446.16
551.193	488.29
551.62	485.95
552.047	502.34
552.474	464.89
552.9	453.19
553.327	460.21
553.754	425.1
554.18	411.06
554.607	378.29
555.033	427.44
555.459	436.8
555.886	375.95
556.312	373.61
556.738	389.99
557.164	359.56
557.59	411.06
558.016	404.03
558.442	364.25
558.868	364.25
559.294	436.8
559.72	336.16
560.145	389.99
560.571	420.42
560.997	406.38
561.422	392.33
561.848	481.27
562.273	387.65
562.699	443.82
563.124	385.31
563.549	397.01
563.974	389.99
564.4	432.12
564.825	446.16
565.25	436.8
565.675	352.54
566.1	439.14
566.525	399.35
566.95	373.61
567.374	378.29
567.799	378.29
568.224	401.69
568.648	415.74
569.073	392.33
569.497	389.99
569.922	380.63
570.346	368.93
570.771	455.53
571.195	378.29
571.619	392.33
572.043	425.1
572.467	408.72
572.891	411.06
573.315	432.12
573.739	364.25
574.163	394.67
574.587	382.97
575.011	425.1
575.435	418.08
575.858	457.87
576.282	446.16
576.705	434.46
577.129	422.76
577.552	439.14
577.976	476.59
578.399	397.01
578.822	380.63
579.245	385.31
579.669	453.19
580.092	495.32
580.515	357.22
580.938	425.1
581.361	450.85
581.784	460.21
582.206	420.42
582.629	511.7
583.052	492.98
583.474	422.76
583.897	375.95
584.32	368.93
584.742	471.91
585.165	439.14
585.587	422.76
586.009	422.76
586.431	469.57
586.854	446.16
587.276	462.55
587.698	418.08
588.12	389.99
588.542	394.67
588.964	439.14
589.386	455.53
589.807	392.33
590.229	485.95
590.651	422.76
591.073	439.14
591.494	397.01
591.916	434.46
592.337	378.29
592.759	432.12
593.18	415.74
593.601	413.4
594.022	352.54
594.444	357.22
594.865	380.63
595.286	371.27
595.707	366.59
596.128	340.84
596.549	361.91
596.97	406.38
597.39	401.69
597.811	343.18
598.232	361.91
598.652	392.33
599.073	450.85
599.494	382.97
599.914	397.01
600.334	382.97
600.755	415.74
601.175	352.54
601.595	378.29
602.015	361.91
602.436	429.78
602.856	483.61
603.276	340.84
603.696	380.63
604.115	359.56
604.535	336.16
604.955	289.35
605.375	375.95
605.794	373.61
606.214	408.72
606.634	368.93
607.053	448.51
607.473	413.4
607.892	382.97
608.311	359.56
608.731	464.89
609.15	490.63
609.569	591.28
609.988	518.72
610.407	741.07
610.826	790.22
611.245	787.88
611.664	736.39
612.083	712.99
612.501	656.81
612.92	633.41
613.339	600.64
613.757	574.89
614.176	492.98
614.594	474.25
615.013	411.06
615.431	474.25
615.85	418.08
616.268	392.33
616.686	453.19
617.104	387.65
617.522	387.65
617.94	415.74
618.358	368.93
618.776	380.63
619.194	441.48
619.612	399.35
620.03	427.44
620.447	324.46
620.865	387.65
621.282	389.99
621.7	401.69
622.117	411.06
622.535	392.33
622.952	436.8
623.369	336.16
623.787	368.93
624.204	350.2
624.621	382.97
625.038	364.25
625.455	411.06
625.872	375.95
626.289	347.86
626.706	406.38
627.123	364.25
627.539	354.88
627.956	413.4
628.373	305.73
628.789	347.86
629.206	345.52
629.622	340.84
630.038	404.03
630.455	373.61
630.871	389.99
631.287	387.65
631.703	427.44
632.12	389.99
632.536	411.06
632.952	359.56
633.368	413.4
633.783	336.16
634.199	322.12
634.615	378.29
635.031	301.05
635.446	338.5
635.862	322.12
636.277	347.86
636.693	385.31
637.108	399.35
637.524	361.91
637.939	301.05
638.354	329.14
638.77	301.05
639.185	317.44
639.6	317.44
640.015	338.5
640.43	305.73
640.845	315.09
641.259	270.62
641.674	368.93
642.089	272.96
642.504	284.67
642.918	279.99
643.333	308.07
643.747	305.73
644.162	347.86
644.576	324.46
644.991	392.33
645.405	336.16
645.819	345.52
646.233	394.67
646.647	415.74
647.061	289.35
647.475	350.2
647.889	397.01
648.303	301.05
648.717	319.78
649.131	336.16
649.545	343.18
649.958	296.37
650.372	338.5
650.785	310.41
651.199	340.84
651.612	350.2
652.026	331.48
652.439	291.69
652.852	310.41
653.266	329.14
653.679	343.18
654.092	287.01
654.505	375.95
654.918	371.27
655.331	366.59
655.744	294.03
656.156	298.71
656.569	352.54
656.982	354.88
657.394	310.41
657.807	343.18
658.22	331.48
658.632	312.75
659.044	303.39
659.457	319.78
659.869	340.84
660.281	282.33
660.693	343.18
661.106	287.01
661.518	324.46
661.93	305.73
662.342	333.82
662.754	368.93
663.165	350.2
663.577	336.16
663.989	382.97
664.401	284.67
664.812	305.73
665.224	324.46
665.635	303.39
666.047	340.84
666.458	291.69
666.869	298.71
667.281	265.94
667.692	333.82
668.103	319.78
668.514	305.73
668.925	364.25
669.336	333.82
669.747	331.48
670.158	301.05
670.569	350.2
670.979	298.71
671.39	345.52
671.801	216.79
672.211	263.6
672.622	268.28
673.032	350.2
673.443	298.71
673.853	324.46
674.263	296.37
674.674	289.35
675.084	310.41
675.494	294.03
675.904	284.67
676.314	279.99
676.724	284.67
677.134	310.41
677.544	301.05
677.953	324.46
678.363	340.84
678.773	366.59
679.182	338.5
679.592	291.69
680.001	312.75
680.411	338.5
680.82	324.46
681.23	413.4
681.639	305.73
682.048	315.09
682.457	310.41
682.866	308.07
683.275	282.33
683.684	364.25
684.093	275.31
684.502	254.24
684.911	331.48
685.32	338.5
685.728	289.35
686.137	287.01
686.546	291.69
686.954	319.78
687.363	371.27
687.771	270.62
688.179	312.75
688.588	296.37
688.996	287.01
689.404	298.71
689.812	359.56
690.22	324.46
690.628	312.75
691.036	261.26
691.444	279.99
691.852	287.01
692.26	387.65
692.667	319.78
693.075	256.58
693.483	279.99
693.89	275.31
694.298	287.01
694.705	329.14
695.112	310.41
695.52	354.88
695.927	291.69
696.334	308.07
696.741	272.96
697.148	268.28
697.555	326.8
697.962	305.73
698.369	256.58
698.776	357.22
699.183	308.07
699.59	378.29
699.996	294.03
700.403	380.63
700.81	244.88
701.216	284.67
701.623	347.86
702.029	301.05
702.435	350.2
702.842	296.37
703.248	272.96
703.654	272.96
704.06	371.27
704.466	315.09
704.872	298.71
705.278	310.41
705.684	301.05
706.09	312.75
706.496	364.25
706.901	331.48
707.307	301.05
707.712	310.41
708.118	333.82
708.523	364.25
708.929	380.63
709.334	352.54
709.74	287.01
710.145	298.71
710.55	294.03
710.955	317.44
711.36	326.8
711.765	406.38
712.17	373.61
712.575	343.18
712.98	804.27
713.385	368.93
713.789	357.22
714.194	331.48
714.599	294.03
715.003	312.75
715.408	301.05
715.812	315.09
716.217	296.37
716.621	272.96
717.025	291.69
717.429	338.5
717.833	350.2
718.238	336.16
718.642	268.28
719.046	296.37
719.449	254.24
719.853	333.82
720.257	279.99
720.661	261.26
721.065	298.71
721.468	296.37
721.872	331.48
722.275	256.58
722.679	303.39
723.082	294.03
723.485	261.26
723.889	324.46
724.292	287.01
724.695	254.24
725.098	329.14
725.501	317.44
725.904	265.94
726.307	256.58
726.71	258.92
727.113	357.22
727.516	331.48
727.918	291.69
728.321	338.5
728.724	326.8
729.126	315.09
729.529	375.95
729.931	389.99
730.333	333.82
730.736	322.12
731.138	275.31
731.54	272.96
731.942	279.99
732.344	303.39
732.746	329.14
733.148	375.95
733.55	329.14
733.952	322.12
734.354	361.91
734.756	287.01
735.157	315.09
735.559	287.01
735.96	240.2
736.362	336.16
736.763	294.03
737.165	308.07
737.566	340.84
737.967	237.86
738.368	364.25
738.77	287.01
739.171	308.07
739.572	315.09
739.973	329.14
740.374	322.12
740.774	275.31
741.175	326.8
741.576	326.8
741.977	338.5
742.377	352.54
742.778	305.73
743.178	265.94
743.579	359.56
743.979	291.69
744.379	345.52
744.78	317.44
745.18	324.46
745.58	235.52
745.98	315.09
746.38	275.31
746.78	279.99
747.18	308.07
747.58	282.33
747.98	265.94
748.38	352.54
748.779	312.75
749.179	247.22
749.578	272.96
749.978	329.14
750.377	359.56
750.777	277.65
751.176	305.73
751.575	249.56
751.975	315.09
752.374	347.86
752.773	284.67
753.172	322.12
753.571	312.75
753.97	322.12
754.369	310.41
754.768	333.82
755.166	310.41
755.565	282.33
755.964	324.46
756.362	324.46
756.761	350.2
757.159	305.73
757.558	352.54
757.956	251.9
758.354	284.67
758.753	305.73
759.151	373.61
759.549	331.48
759.947	303.39
760.345	394.67
760.743	317.44
761.141	294.03
761.539	310.41
761.936	329.14
762.334	324.46
762.732	317.44
763.129	287.01
763.527	319.78
763.924	380.63
764.322	279.99
764.719	317.44
765.117	294.03
765.514	277.65
765.911	270.62
766.308	298.71
766.705	303.39
767.102	282.33
767.499	261.26
767.896	289.35
768.293	336.16
768.69	366.59
769.086	319.78
769.483	340.84
769.88	308.07
770.276	289.35
770.673	347.86
771.069	338.5
771.466	394.67
771.862	350.2
772.258	312.75
772.654	343.18
773.05	296.37
773.447	338.5
773.843	310.41
774.239	268.28
774.634	345.52
775.03	237.86
775.426	347.86
775.822	338.5
776.218	270.62
776.613	331.48
777.009	347.86
777.404	310.41
777.8	301.05
778.195	284.67
778.59	319.78
778.986	347.86
779.381	315.09
779.776	282.33
780.171	329.14
780.566	324.46
780.961	315.09
781.356	331.48
781.751	263.6
782.146	268.28
782.54	265.94
782.935	279.99
783.33	329.14
783.724	277.65
784.119	331.48
784.513	338.5
784.908	359.56
785.302	240.2
785.696	298.71
786.09	244.88
786.485	324.46
786.879	287.01
787.273	308.07
787.667	326.8
788.061	366.59
788.454	317.44
788.848	289.35
789.242	223.81
789.636	331.48
790.029	268.28
790.423	359.56
790.816	345.52
791.21	382.97
791.603	338.5
791.997	256.58
792.39	310.41
792.783	312.75
793.176	279.99
793.569	244.88
793.962	301.05
794.355	301.05
794.748	324.46
795.141	298.71
795.534	287.01
795.927	272.96
796.319	315.09
796.712	284.67
797.105	289.35
797.497	354.88
797.89	282.33
798.282	322.12
798.674	305.73
799.067	303.39
799.459	350.2
799.851	268.28
800.243	287.01
800.635	322.12
801.027	329.14
801.419	305.73
801.811	265.94
802.203	298.71
802.594	333.82
802.986	310.41
803.378	256.58
803.769	357.22
804.161	340.84
804.552	312.75
804.944	333.82
805.335	301.05
805.726	319.78
806.118	305.73
806.509	296.37
806.9	312.75
807.291	343.18
807.682	389.99
808.073	317.44
808.464	336.16
808.855	291.69
809.245	317.44
809.636	256.58
810.027	317.44
810.417	261.26
810.808	338.5
811.198	308.07
811.589	324.46
811.979	312.75
812.369	237.86
812.759	324.46
813.15	345.52
813.54	303.39
813.93	352.54
814.32	277.65
814.71	308.07
815.1	294.03
815.489	315.09
815.879	279.99
816.269	279.99
816.658	312.75
817.048	305.73
817.438	340.84
817.827	326.8
818.216	294.03
818.606	310.41
818.995	326.8
819.384	268.28
819.773	298.71
820.163	315.09
820.552	305.73
820.941	331.48
821.33	270.62
821.718	312.75
822.107	336.16
822.496	233.18
822.885	324.46
823.273	331.48
823.662	347.86
824.05	289.35
824.439	223.81
824.827	247.22
825.216	319.78
825.604	305.73
825.992	378.29
826.38	312.75
826.768	347.86
827.156	287.01
827.544	354.88
827.932	301.05
828.32	272.96
828.708	324.46
829.096	298.71
829.483	350.2
829.871	258.92
830.259	301.05
830.646	312.75
831.034	261.26
831.421	235.52
831.808	284.67
832.196	272.96
832.583	277.65
832.97	378.29
833.357	305.73
833.744	272.96
834.131	249.56
834.518	308.07
834.905	296.37
835.292	350.2
835.678	226.15
836.065	322.12
836.452	233.18
836.838	378.29
837.225	268.28
837.611	282.33
837.998	221.47
838.384	308.07
838.77	329.14
839.157	279.99
839.543	315.09
839.929	326.8
840.315	308.07
840.701	291.69
841.087	350.2
841.473	345.52
841.858	312.75
842.244	322.12
842.63	301.05
843.015	305.73
843.401	359.56
843.787	272.96
844.172	338.5
844.557	301.05
844.943	331.48
845.328	240.2
845.713	291.69
846.098	329.14
846.483	310.41
846.868	296.37
847.253	326.8
847.638	324.46
848.023	352.54
848.408	291.69
848.793	317.44
849.177	294.03
849.562	265.94
849.947	279.99
850.331	287.01
850.715	336.16
851.1	291.69
851.484	301.05
851.868	308.07
852.253	251.9
852.637	303.39
853.021	315.09
853.405	277.65
853.789	284.67
854.173	354.88
854.557	249.56
854.94	312.75
855.324	340.84
855.708	357.22
856.091	322.12
856.475	336.16
856.858	263.6
857.242	240.2
857.625	310.41
858.009	277.65
858.392	308.07
858.775	272.96
859.158	294.03
859.541	338.5
859.924	350.2
860.307	251.9
860.69	272.96
861.073	258.92
861.456	305.73
861.838	296.37
862.221	289.35
862.604	268.28
862.986	298.71
863.369	308.07
863.751	247.22
864.133	265.94
864.516	317.44
864.898	294.03
865.28	270.62
865.662	291.69
866.044	291.69
866.426	350.2
866.808	296.37
867.19	308.07
867.572	329.14
867.954	282.33
868.336	258.92
868.717	275.31
869.099	317.44
869.48	310.41
869.862	305.73
870.243	284.67
870.625	221.47
871.006	345.52
871.387	324.46
871.768	298.71
872.149	282.33
872.53	312.75
872.911	289.35
873.292	298.71
873.673	284.67
874.054	357.22
874.435	305.73
874.815	294.03
875.196	322.12
875.577	263.6
875.957	333.82
876.338	322.12
876.718	324.46
877.098	277.65
877.479	319.78
877.859	331.48
878.239	338.5
878.619	378.29
878.999	247.22
879.379	333.82
879.759	282.33
880.139	352.54
880.519	310.41
880.898	291.69
881.278	270.62
881.658	272.96
882.037	251.9
882.417	244.88
882.796	287.01
883.176	317.44
883.555	296.37
883.934	322.12
884.313	291.69
884.693	354.88
885.072	256.58
885.451	317.44
885.83	324.46
886.209	282.33
886.587	265.94
886.966	296.37
887.345	298.71
887.724	256.58
888.102	296.37
888.481	319.78
888.859	312.75
889.238	326.8
889.616	324.46
889.994	298.71
890.373	282.33
890.751	329.14
891.129	322.12
891.507	326.8
891.885	284.67
892.263	375.95
892.641	263.6
893.019	277.65
893.396	279.99
893.774	301.05
894.152	258.92
894.529	277.65
894.907	294.03
895.284	270.62
895.662	357.22
896.039	317.44
896.416	242.54
896.794	347.86
897.171	317.44
897.548	249.56
897.925	209.77
898.302	312.75
898.679	338.5
899.056	294.03
899.433	284.67
899.809	282.33
900.186	305.73
900.563	343.18
900.939	319.78
901.316	263.6
901.692	263.6
902.069	326.8
902.445	317.44
902.821	268.28
903.197	324.46
903.574	296.37
903.95	303.39
904.326	265.94
904.702	279.99
905.078	326.8
905.454	298.71
905.829	287.01
906.205	324.46
906.581	331.48
906.956	340.84
907.332	317.44
907.707	308.07
908.083	336.16
908.458	310.41
908.833	301.05
909.209	392.33
909.584	247.22
909.959	284.67
910.334	319.78
910.709	291.69
911.084	312.75
911.459	249.56
911.834	277.65
912.209	357.22
912.583	310.41
912.958	287.01
913.333	247.22
913.707	294.03
914.082	268.28
914.456	352.54
914.83	322.12
915.205	347.86
915.579	305.73
915.953	303.39
916.327	294.03
916.701	291.69
917.075	301.05
917.449	326.8
917.823	277.65
918.197	287.01
918.571	291.69
918.944	221.47
919.318	242.54
919.692	331.48
920.065	303.39
920.438	305.73
920.812	256.58
921.185	308.07
921.558	324.46
921.932	324.46
922.305	298.71
922.678	301.05
923.051	298.71
923.424	350.2
923.797	308.07
924.17	289.35
924.542	352.54
924.915	294.03
925.288	315.09
925.661	303.39
926.033	294.03
926.406	294.03
926.778	310.41
927.15	317.44
927.523	258.92
927.895	333.82
928.267	310.41
928.639	361.91
929.011	270.62
929.383	284.67
929.755	261.26
930.127	263.6
930.499	270.62
930.871	294.03
931.242	277.65
931.614	265.94
931.986	272.96
932.357	326.8
932.729	338.5
933.1	284.67
933.471	324.46
933.843	282.33
934.214	270.62
934.585	263.6
934.956	333.82
935.327	294.03
935.698	347.86
936.069	247.22
936.44	338.5
936.811	345.52
937.182	324.46
937.552	240.2
937.923	324.46
938.293	338.5
938.664	275.31
939.034	312.75
939.405	368.93
939.775	368.93
940.145	268.28
940.516	296.37
940.886	333.82
941.256	343.18
941.626	268.28
941.996	279.99
942.366	228.49
942.735	303.39
943.105	303.39
943.475	322.12
943.845	298.71
944.214	310.41
944.584	277.65
944.953	357.22
945.323	291.69
945.692	228.49
946.061	333.82
946.43	303.39
946.8	291.69
947.169	282.33
947.538	258.92
947.907	298.71
948.276	357.22
948.645	404.03
949.013	319.78
949.382	326.8
949.751	242.54
950.119	258.92
950.488	291.69
950.857	263.6
951.225	368.93
951.593	251.9
951.962	284.67
952.33	324.46
952.698	263.6
953.066	347.86
953.434	289.35
953.802	226.15
954.17	275.31
954.538	258.92
954.906	389.99
955.274	275.31
955.642	263.6
956.009	263.6
956.377	279.99
956.744	322.12
957.112	329.14
957.479	366.59
957.847	263.6
958.214	303.39
958.581	254.24
958.948	216.79
959.315	272.96
959.683	319.78
960.05	315.09
960.416	301.05
960.783	263.6
961.15	343.18
961.517	305.73
961.884	298.71
962.25	324.46
962.617	258.92
962.983	340.84
963.35	364.25
963.716	303.39
964.082	265.94
964.449	284.67
964.815	258.92
965.181	289.35
965.547	301.05
965.913	287.01
966.279	343.18
966.645	326.8
967.011	289.35
967.377	315.09
967.742	279.99
968.108	350.2
968.474	336.16
968.839	308.07
969.205	308.07
969.57	322.12
969.935	291.69
970.301	345.52
970.666	326.8
971.031	350.2
971.396	258.92
971.761	310.41
972.126	298.71
972.491	265.94
972.856	291.69
973.221	247.22
973.586	296.37
973.95	345.52
974.315	324.46
974.679	329.14
975.044	324.46
975.408	317.44
975.773	289.35
976.137	237.86
976.501	305.73
976.866	242.54
977.23	275.31
977.594	312.75
977.958	291.69
978.322	261.26
978.686	322.12
979.049	296.37
979.413	305.73
979.777	310.41
980.141	340.84
980.504	319.78
980.868	298.71
981.231	322.12
981.595	263.6
981.958	272.96
982.321	301.05
982.684	284.67
983.048	333.82
983.411	305.73
983.774	291.69
984.137	272.96
984.5	305.73
984.862	326.8
985.225	317.44
985.588	291.69
985.951	263.6
986.313	256.58
986.676	261.26
987.038	294.03
987.401	230.84
987.763	287.01
988.125	272.96
988.488	331.48
988.85	282.33
989.212	336.16
989.574	298.71
989.936	254.24
990.298	268.28
990.66	361.91
991.022	275.31
991.383	256.58
991.745	371.27
992.107	331.48
992.468	336.16
992.83	329.14
993.191	310.41
993.553	303.39
993.914	329.14
994.275	340.84
994.637	282.33
994.998	287.01
995.359	319.78
995.72	287.01
996.081	258.92
996.442	301.05
996.803	312.75
997.163	329.14
997.524	247.22
997.885	270.62
998.245	333.82
998.606	352.54
998.966	315.09
999.327	310.41
999.687	270.62
1000.047	345.52
1000.408	312.75
1000.768	303.39
1001.128	324.46
1001.488	265.94
1001.848	251.9
1002.208	315.09
1002.568	324.46
1002.927	340.84
1003.287	258.92
1003.647	350.2
1004.007	251.9
1004.366	279.99
1004.726	338.5
1005.085	359.56
1005.444	324.46
1005.804	303.39
1006.163	275.31
1006.522	282.33
1006.881	268.28
1007.24	303.39
1007.599	296.37
1007.958	305.73
1008.317	296.37
1008.676	275.31
1009.035	249.56
1009.393	336.16
1009.752	340.84
1010.111	279.99
1010.469	291.69
1010.828	294.03
1011.186	251.9
1011.544	329.14
1011.903	359.56
1012.261	305.73
1012.619	296.37
1012.977	275.31
1013.335	315.09
1013.693	315.09
1014.051	336.16
1014.409	294.03
1014.767	272.96
1015.124	317.44
1015.482	256.58
1015.84	354.88
1016.197	301.05
1016.555	301.05
1016.912	279.99
1017.269	305.73
1017.627	354.88
1017.984	315.09
1018.341	310.41
1018.698	289.35
1019.055	298.71
1019.412	279.99
1019.769	242.54
1020.126	258.92
1020.483	247.22
1020.84	242.54
1021.196	345.52
1021.553	308.07
1021.909	322.12
1022.266	282.33
1022.622	294.03
1022.979	317.44
1023.335	261.26
1023.691	282.33
1024.047	272.96
1024.404	268.28
1024.76	364.25
1025.116	303.39
1025.472	282.33
1025.827	287.01
1026.183	237.86
1026.539	336.16
1026.895	287.01
1027.25	282.33
1027.606	308.07
1027.961	287.01
1028.317	256.58
1028.672	289.35
1029.028	287.01
1029.383	275.31
1029.738	331.48
1030.093	282.33
1030.448	294.03
1030.803	312.75
1031.158	282.33
1031.513	287.01
1031.868	301.05
1032.223	333.82
1032.577	310.41
1032.932	277.65
1033.287	256.58
1033.641	230.84
1033.996	326.8
1034.35	347.86
1034.704	289.35
1035.059	240.2
1035.413	326.8
1035.767	326.8
1036.121	326.8
