Data from Al_FLMS009871__377__12-32-03-227.txt Node

Date: Fri Mar 08 12:32:03 CST 2024
User: pe5414po
Spectrometer: FLMS00987
Trigger mode: 0
Integration Time (sec): 1.000000E-1
Scans to average: 1
Electric dark correction enabled: true
Nonlinearity correction enabled: false
Boxcar width: 0
XAxis mode: Wavelengths
Number of Pixels in Spectrum: 2048
>>>>>Begin Spectral Data<<<<<
188.938	-48.86
189.409	-48.86
189.879	-48.86
190.349	-109.71
190.819	-86.31
191.29	-48.86
191.76	-86.31
192.23	-48.86
192.7	-69.92
193.17	-72.26
193.64	-11.41
194.109	-95.67
194.579	7.31
195.049	-30.13
195.519	-4.39
195.988	26.04
196.458	68.17
196.927	138.38
197.397	82.21
197.866	54.12
198.336	91.57
198.805	117.32
199.274	143.07
199.744	203.92
200.213	222.64
200.682	171.15
201.151	138.38
201.62	239.03
202.089	246.05
202.558	194.56
203.027	248.39
203.495	236.69
203.964	203.92
204.433	267.11
204.902	264.77
205.37	241.37
205.839	257.75
206.307	334.99
206.776	320.95
207.244	323.29
207.712	269.45
208.181	302.22
208.649	269.45
209.117	304.56
209.585	264.77
210.053	278.82
210.521	304.56
210.989	316.26
211.457	278.82
211.925	276.48
212.393	260.09
212.861	269.45
213.328	260.09
213.796	353.71
214.264	260.09
214.731	260.09
215.199	260.09
215.666	288.18
216.133	232.01
216.601	302.22
217.068	292.86
217.535	232.01
218.003	260.09
218.47	278.82
218.937	276.48
219.404	332.65
219.871	297.54
220.338	260.09
220.805	260.09
221.271	255.41
221.738	288.18
222.205	325.63
222.671	278.82
223.138	260.09
223.605	257.75
224.071	260.09
224.538	260.09
225.004	232.01
225.47	278.82
225.937	232.01
226.403	316.26
226.869	217.96
227.335	152.43
227.801	278.82
228.267	274.14
228.733	320.95
229.199	210.94
229.665	295.2
230.131	232.01
230.597	313.92
231.062	267.11
231.528	274.14
231.994	297.54
232.459	288.18
232.925	255.41
233.39	260.09
233.856	248.39
234.321	232.01
234.786	297.54
235.252	276.48
235.717	288.18
236.182	269.45
236.647	288.18
237.112	292.86
237.577	246.05
238.042	278.82
238.507	260.09
238.972	269.45
239.436	267.11
239.901	253.07
240.366	255.41
240.83	232.01
241.295	269.45
241.76	283.5
242.224	295.2
242.688	276.48
243.153	325.63
243.617	269.45
244.081	257.75
244.545	283.5
245.01	297.54
245.474	288.18
245.938	306.9
246.402	269.45
246.866	220.3
247.33	227.32
247.793	264.77
248.257	269.45
248.721	320.95
249.185	330.31
249.648	285.84
250.112	178.17
250.575	227.32
251.039	257.75
251.502	253.07
251.965	260.09
252.429	285.84
252.892	323.29
253.355	320.95
253.818	276.48
254.281	250.73
254.744	283.5
255.207	260.09
255.67	276.48
256.133	302.22
256.596	278.82
257.059	285.84
257.522	367.76
257.984	246.05
258.447	285.84
258.909	325.63
259.372	297.54
259.834	313.92
260.297	304.56
260.759	297.54
261.221	288.18
261.684	232.01
262.146	320.95
262.608	325.63
263.07	302.22
263.532	208.6
263.994	250.73
264.456	313.92
264.918	260.09
265.38	304.56
265.842	323.29
266.303	316.26
266.765	288.18
267.227	232.01
267.688	241.37
268.15	283.5
268.611	269.45
269.072	264.77
269.534	274.14
269.995	278.82
270.456	323.29
270.918	260.09
271.379	239.03
271.84	313.92
272.301	246.05
272.762	269.45
273.223	264.77
273.684	297.54
274.144	250.73
274.605	318.61
275.066	339.67
275.527	285.84
275.987	241.37
276.448	260.09
276.908	192.22
277.369	304.56
277.829	306.9
278.289	311.58
278.75	269.45
279.21	339.67
279.67	260.09
280.13	344.35
280.59	253.07
281.05	283.5
281.51	295.2
281.97	241.37
282.43	302.22
282.89	285.84
283.35	309.24
283.809	311.58
284.269	306.9
284.729	313.92
285.188	302.22
285.648	342.01
286.107	299.88
286.567	246.05
287.026	269.45
287.485	276.48
287.944	316.26
288.404	234.35
288.863	257.75
289.322	283.5
289.781	255.41
290.24	306.9
290.699	295.2
291.158	227.32
291.616	257.75
292.075	365.42
292.534	325.63
292.992	232.01
293.451	318.61
293.91	316.26
294.368	304.56
294.827	255.41
295.285	344.35
295.743	248.39
296.202	302.22
296.66	288.18
297.118	304.56
297.576	358.39
298.034	236.69
298.492	281.16
298.95	316.26
299.408	274.14
299.866	351.37
300.324	276.48
300.781	299.88
301.239	344.35
301.697	276.48
302.154	292.86
302.612	320.95
303.069	313.92
303.527	269.45
303.984	306.9
304.441	313.92
304.899	257.75
305.356	344.35
305.813	260.09
306.27	344.35
306.727	306.9
307.184	269.45
307.641	306.9
308.098	302.22
308.555	292.86
309.012	339.67
309.468	288.18
309.925	255.41
310.382	295.2
310.838	351.37
311.295	285.84
311.751	278.82
312.208	342.01
312.664	302.22
313.12	306.9
313.577	255.41
314.033	311.58
314.489	269.45
314.945	295.2
315.401	278.82
315.857	332.65
316.313	304.56
316.769	241.37
317.225	278.82
317.681	288.18
318.136	302.22
318.592	320.95
319.048	320.95
319.503	311.58
319.959	353.71
320.414	281.16
320.869	285.84
321.325	243.71
321.78	295.2
322.235	260.09
322.691	299.88
323.146	344.35
323.601	356.05
324.056	288.18
324.511	306.9
324.966	290.52
325.421	292.86
325.875	323.29
326.33	325.63
326.785	278.82
327.24	313.92
327.694	313.92
328.149	367.76
328.603	274.14
329.058	320.95
329.512	306.9
329.966	311.58
330.421	257.75
330.875	365.42
331.329	337.33
331.783	320.95
332.237	342.01
332.691	372.44
333.145	351.37
333.599	327.97
334.053	299.88
334.507	334.99
334.96	306.9
335.414	302.22
335.868	323.29
336.321	393.5
336.775	274.14
337.228	288.18
337.682	285.84
338.135	330.31
338.588	356.05
339.042	337.33
339.495	320.95
339.948	278.82
340.401	234.35
340.854	271.79
341.307	276.48
341.76	356.05
342.213	264.77
342.666	271.79
343.119	290.52
343.571	386.48
344.024	327.97
344.477	351.37
344.929	281.16
345.382	332.65
345.834	332.65
346.287	290.52
346.739	306.9
347.191	313.92
347.644	320.95
348.096	344.35
348.548	327.97
349	302.22
349.452	372.44
349.904	327.97
350.356	306.9
350.808	313.92
351.26	351.37
351.711	278.82
352.163	276.48
352.615	367.76
353.066	325.63
353.518	363.08
353.969	372.44
354.421	320.95
354.872	342.01
355.324	264.77
355.775	381.8
356.226	316.26
356.677	323.29
357.128	316.26
357.579	313.92
358.03	316.26
358.481	339.67
358.932	269.45
359.383	288.18
359.834	288.18
360.285	283.5
360.735	248.39
361.186	320.95
361.637	306.9
362.087	325.63
362.538	365.42
362.988	316.26
363.438	295.2
363.889	302.22
364.339	349.03
364.789	323.29
365.239	292.86
365.689	358.39
366.139	313.92
366.589	384.14
367.039	306.9
367.489	285.84
367.939	323.29
368.389	320.95
368.839	285.84
369.288	278.82
369.738	349.03
370.187	302.22
370.637	248.39
371.086	274.14
371.536	274.14
371.985	304.56
372.434	295.2
372.884	232.01
373.333	313.92
373.782	323.29
374.231	330.31
374.68	306.9
375.129	344.35
375.578	288.18
376.027	344.35
376.475	285.84
376.924	367.76
377.373	288.18
377.822	320.95
378.27	349.03
378.719	344.35
379.167	332.65
379.616	297.54
380.064	281.16
380.512	229.67
380.961	316.26
381.409	334.99
381.857	306.9
382.305	253.07
382.753	339.67
383.201	344.35
383.649	306.9
384.097	349.03
384.545	332.65
384.992	351.37
385.44	330.31
385.888	334.99
386.335	342.01
386.783	302.22
387.231	269.45
387.678	327.97
388.125	306.9
388.573	306.9
389.02	309.24
389.467	349.03
389.914	262.43
390.362	372.44
390.809	325.63
391.256	337.33
391.703	257.75
392.15	318.61
392.596	311.58
393.043	297.54
393.49	365.42
393.937	344.35
394.383	285.84
394.83	360.74
395.276	353.71
395.723	276.48
396.169	353.71
396.616	250.73
397.062	306.9
397.508	264.77
397.954	255.41
398.401	325.63
398.847	325.63
399.293	302.22
399.739	356.05
400.185	281.16
400.631	283.5
401.076	297.54
401.522	304.56
401.968	318.61
402.414	379.46
402.859	313.92
403.305	325.63
403.75	330.31
404.196	323.29
404.641	302.22
405.086	353.71
405.532	381.8
405.977	342.01
406.422	391.16
406.867	285.84
407.312	339.67
407.757	292.86
408.202	297.54
408.647	349.03
409.092	344.35
409.537	318.61
409.982	327.97
410.426	288.18
410.871	299.88
411.316	320.95
411.76	304.56
412.205	370.1
412.649	325.63
413.093	384.14
413.538	309.24
413.982	306.9
414.426	311.58
414.87	302.22
415.314	398.18
415.758	327.97
416.202	353.71
416.646	304.56
417.09	374.78
417.534	349.03
417.978	332.65
418.421	297.54
418.865	274.14
419.309	290.52
419.752	342.01
420.196	334.99
420.639	316.26
421.083	332.65
421.526	295.2
421.969	339.67
422.412	358.39
422.856	377.12
423.299	377.12
423.742	419.25
424.185	295.2
424.628	332.65
425.071	295.2
425.513	388.82
425.956	339.67
426.399	278.82
426.842	334.99
427.284	405.21
427.727	363.08
428.169	337.33
428.612	391.16
429.054	405.21
429.497	416.91
429.939	377.12
430.381	356.05
430.823	381.8
431.265	454.36
431.707	367.76
432.149	374.78
432.591	421.59
433.033	372.44
433.475	433.29
433.917	402.86
434.359	505.85
434.8	519.89
435.242	522.23
435.684	487.12
436.125	482.44
436.567	454.36
437.008	447.33
437.449	494.15
437.891	468.4
438.332	414.57
438.773	423.93
439.214	377.12
439.656	442.65
440.097	501.17
440.538	473.08
440.978	487.12
441.419	491.81
441.86	487.12
442.301	470.74
442.742	498.83
443.182	557.34
443.623	522.23
444.063	496.49
444.504	487.12
444.944	496.49
445.385	578.4
445.825	447.33
446.265	501.17
446.706	524.57
447.146	491.81
447.586	433.29
448.026	461.38
448.466	508.19
448.906	566.7
449.346	503.51
449.786	533.93
450.225	487.12
450.665	435.63
451.105	512.87
451.544	526.91
451.984	519.89
452.424	468.4
452.863	461.38
453.302	405.21
453.742	529.25
454.181	461.38
454.62	430.95
455.059	412.23
455.499	468.4
455.938	423.93
456.377	421.59
456.816	426.27
457.254	468.4
457.693	416.91
458.132	374.78
458.571	393.5
459.01	358.39
459.448	398.18
459.887	349.03
460.325	444.99
460.764	384.14
461.202	463.72
461.641	428.61
462.079	421.59
462.517	381.8
462.955	393.5
463.393	480.1
463.832	363.08
464.27	342.01
464.708	395.84
465.145	360.74
465.583	463.72
466.021	400.52
466.459	395.84
466.897	463.72
467.334	423.93
467.772	414.57
468.209	372.44
468.647	402.86
469.084	405.21
469.522	416.91
469.959	459.04
470.396	442.65
470.833	337.33
471.271	398.18
471.708	372.44
472.145	416.91
472.582	299.88
473.019	351.37
473.456	344.35
473.892	386.48
474.329	419.25
474.766	370.1
475.202	400.52
475.639	358.39
476.076	356.05
476.512	344.35
476.949	358.39
477.385	353.71
477.821	426.27
478.258	332.65
478.694	391.16
479.13	351.37
479.566	297.54
480.002	456.7
480.438	395.84
480.874	367.76
481.31	405.21
481.746	395.84
482.181	367.76
482.617	323.29
483.053	379.46
483.488	332.65
483.924	351.37
484.36	370.1
484.795	414.57
485.23	320.95
485.666	461.38
486.101	372.44
486.536	381.8
486.971	393.5
487.407	407.55
487.842	477.76
488.277	400.52
488.712	466.06
489.146	491.81
489.581	475.42
490.016	440.31
490.451	423.93
490.885	452.02
491.32	456.7
491.755	475.42
492.189	356.05
492.624	402.86
493.058	393.5
493.492	381.8
493.927	381.8
494.361	421.59
494.795	384.14
495.229	384.14
495.663	395.84
496.097	414.57
496.531	416.91
496.965	416.91
497.399	393.5
497.833	412.23
498.266	360.74
498.7	367.76
499.134	447.33
499.567	393.5
500.001	384.14
500.434	405.21
500.868	327.97
501.301	480.1
501.734	323.29
502.168	449.68
502.601	384.14
503.034	393.5
503.467	393.5
503.9	372.44
504.333	356.05
504.766	346.69
505.199	473.08
505.632	473.08
506.064	405.21
506.497	402.86
506.93	426.27
507.362	386.48
507.795	447.33
508.227	398.18
508.66	365.42
509.092	423.93
509.524	379.46
509.956	395.84
510.389	409.89
510.821	332.65
511.253	402.86
511.685	353.71
512.117	416.91
512.549	405.21
512.981	391.16
513.412	421.59
513.844	428.61
514.276	363.08
514.707	379.46
515.139	414.57
515.571	407.55
516.002	386.48
516.433	428.61
516.865	419.25
517.296	440.31
517.727	353.71
518.159	454.36
518.59	461.38
519.021	391.16
519.452	426.27
519.883	330.31
520.314	428.61
520.744	370.1
521.175	447.33
521.606	428.61
522.037	360.74
522.467	409.89
522.898	395.84
523.328	433.29
523.759	475.42
524.189	442.65
524.62	433.29
525.05	473.08
525.48	402.86
525.91	386.48
526.341	407.55
526.771	435.63
527.201	419.25
527.631	398.18
528.061	454.36
528.49	419.25
528.92	381.8
529.35	428.61
529.78	381.8
530.209	456.7
530.639	489.46
531.068	456.7
531.498	428.61
531.927	400.52
532.357	498.83
532.786	374.78
533.215	409.89
533.644	409.89
534.074	400.52
534.503	426.27
534.932	416.91
535.361	456.7
535.79	447.33
536.218	423.93
536.647	395.84
537.076	456.7
537.505	428.61
537.933	456.7
538.362	435.63
538.79	491.81
539.219	540.96
539.647	484.78
540.076	508.19
540.504	512.87
540.932	587.77
541.36	583.09
541.788	667.35
542.217	693.09
542.645	672.03
543.073	723.52
543.5	739.9
543.928	697.77
544.356	707.13
544.784	709.47
545.211	782.03
545.639	711.82
546.067	667.35
546.494	690.75
546.922	639.26
547.349	526.91
547.776	519.89
548.204	547.98
548.631	447.33
549.058	463.72
549.485	402.86
549.912	475.42
550.339	531.59
550.766	512.87
551.193	480.1
551.62	430.95
552.047	452.02
552.474	484.78
552.9	494.15
553.327	473.08
553.754	496.49
554.18	412.23
554.607	447.33
555.033	395.84
555.459	423.93
555.886	398.18
556.312	510.53
556.738	466.06
557.164	435.63
557.59	449.68
558.016	414.57
558.442	466.06
558.868	461.38
559.294	437.97
559.72	416.91
560.145	430.95
560.571	433.29
560.997	430.95
561.422	423.93
561.848	433.29
562.273	421.59
562.699	337.33
563.124	459.04
563.549	430.95
563.974	398.18
564.4	435.63
564.825	407.55
565.25	463.72
565.675	459.04
566.1	367.76
566.525	381.8
566.95	386.48
567.374	433.29
567.799	360.74
568.224	435.63
568.648	386.48
569.073	388.82
569.497	482.44
569.922	377.12
570.346	461.38
570.771	426.27
571.195	447.33
571.619	428.61
572.043	398.18
572.467	407.55
572.891	409.89
573.315	395.84
573.739	414.57
574.163	452.02
574.587	400.52
575.011	480.1
575.435	440.31
575.858	482.44
576.282	473.08
576.705	466.06
577.129	398.18
577.552	412.23
577.976	437.97
578.399	428.61
578.822	484.78
579.245	512.87
579.669	412.23
580.092	456.7
580.515	461.38
580.938	452.02
581.361	503.51
581.784	482.44
582.206	522.23
582.629	430.95
583.052	421.59
583.474	442.65
583.897	442.65
584.32	409.89
584.742	463.72
585.165	463.72
585.587	487.12
586.009	430.95
586.431	447.33
586.854	395.84
587.276	447.33
587.698	444.99
588.12	459.04
588.542	381.8
588.964	402.86
589.386	419.25
589.807	470.74
590.229	416.91
590.651	456.7
591.073	430.95
591.494	461.38
591.916	459.04
592.337	405.21
592.759	405.21
593.18	426.27
593.601	412.23
594.022	356.05
594.444	412.23
594.865	412.23
595.286	367.76
595.707	407.55
596.128	379.46
596.549	384.14
596.97	407.55
597.39	398.18
597.811	447.33
598.232	423.93
598.652	393.5
599.073	442.65
599.494	377.12
599.914	466.06
600.334	426.27
600.755	430.95
601.175	384.14
601.595	370.1
602.015	400.52
602.436	395.84
602.856	435.63
603.276	379.46
603.696	414.57
604.115	419.25
604.535	342.01
604.955	386.48
605.375	386.48
605.794	407.55
606.214	409.89
606.634	428.61
607.053	412.23
607.473	496.49
607.892	405.21
608.311	423.93
608.731	437.97
609.15	430.95
609.569	524.57
609.988	641.6
610.407	721.18
610.826	775.01
611.245	852.25
611.664	838.2
612.083	728.2
612.501	669.69
612.92	625.22
613.339	557.34
613.757	540.96
614.176	531.59
614.594	480.1
615.013	456.7
615.431	461.38
615.85	377.12
616.268	433.29
616.686	421.59
617.104	367.76
617.522	379.46
617.94	393.5
618.358	435.63
618.776	398.18
619.194	332.65
619.612	447.33
620.03	393.5
620.447	442.65
620.865	442.65
621.282	363.08
621.7	377.12
622.117	370.1
622.535	407.55
622.952	379.46
623.369	372.44
623.787	365.42
624.204	353.71
624.621	414.57
625.038	437.97
625.455	470.74
625.872	398.18
626.289	353.71
626.706	327.97
627.123	353.71
627.539	327.97
627.956	400.52
628.373	311.58
628.789	342.01
629.206	339.67
629.622	421.59
630.038	386.48
630.455	374.78
630.871	363.08
631.287	346.69
631.703	407.55
632.12	346.69
632.536	351.37
632.952	395.84
633.368	360.74
633.783	367.76
634.199	365.42
634.615	386.48
635.031	356.05
635.446	344.35
635.862	370.1
636.277	426.27
636.693	356.05
637.108	356.05
637.524	339.67
637.939	367.76
638.354	405.21
638.77	342.01
639.185	365.42
639.6	323.29
640.015	374.78
640.43	304.56
640.845	377.12
641.259	318.61
641.674	320.95
642.089	290.52
642.504	274.14
642.918	356.05
643.333	398.18
643.747	290.52
644.162	351.37
644.576	412.23
644.991	309.24
645.405	377.12
645.819	299.88
646.233	349.03
646.647	327.97
647.061	323.29
647.475	313.92
647.889	318.61
648.303	342.01
648.717	299.88
649.131	339.67
649.545	292.86
649.958	356.05
650.372	353.71
650.785	374.78
651.199	379.46
651.612	398.18
652.026	388.82
652.439	395.84
652.852	444.99
653.266	330.31
653.679	330.31
654.092	316.26
654.505	327.97
654.918	400.52
655.331	351.37
655.744	304.56
656.156	358.39
656.569	365.42
656.982	391.16
657.394	297.54
657.807	330.31
658.22	398.18
658.632	356.05
659.044	297.54
659.457	367.76
659.869	351.37
660.281	330.31
660.693	304.56
661.106	330.31
661.518	346.69
661.93	288.18
662.342	402.86
662.754	288.18
663.165	285.84
663.577	323.29
663.989	386.48
664.401	360.74
664.812	377.12
665.224	358.39
665.635	236.69
666.047	323.29
666.458	414.57
666.869	332.65
667.281	407.55
667.692	271.79
668.103	339.67
668.514	337.33
668.925	377.12
669.336	386.48
669.747	356.05
670.158	290.52
670.569	229.67
670.979	360.74
671.39	360.74
671.801	337.33
672.211	351.37
672.622	208.6
673.032	320.95
673.443	222.64
673.853	290.52
674.263	325.63
674.674	374.78
675.084	309.24
675.494	297.54
675.904	299.88
676.314	297.54
676.724	313.92
677.134	290.52
677.544	311.58
677.953	379.46
678.363	344.35
678.773	306.9
679.182	304.56
679.592	253.07
680.001	320.95
680.411	292.86
680.82	377.12
681.23	372.44
681.639	365.42
682.048	342.01
682.457	342.01
682.866	285.84
683.275	367.76
683.684	309.24
684.093	278.82
684.502	334.99
684.911	297.54
685.32	318.61
685.728	342.01
686.137	316.26
686.546	292.86
686.954	381.8
687.363	365.42
687.771	330.31
688.179	353.71
688.588	337.33
688.996	320.95
689.404	253.07
689.812	351.37
690.22	320.95
690.628	332.65
691.036	318.61
691.444	295.2
691.852	367.76
692.26	346.69
692.667	311.58
693.075	332.65
693.483	283.5
693.89	318.61
694.298	374.78
694.705	257.75
695.112	334.99
695.52	267.11
695.927	304.56
696.334	309.24
696.741	325.63
697.148	400.52
697.555	325.63
697.962	306.9
698.369	365.42
698.776	339.67
699.183	316.26
699.59	349.03
699.996	311.58
700.403	356.05
700.81	327.97
701.216	288.18
701.623	290.52
702.029	262.43
702.435	267.11
702.842	295.2
703.248	311.58
703.654	327.97
704.06	318.61
704.466	311.58
704.872	363.08
705.278	281.16
705.684	360.74
706.09	416.91
706.496	309.24
706.901	381.8
707.307	365.42
707.712	339.67
708.118	353.71
708.523	313.92
708.929	297.54
709.334	346.69
709.74	295.2
710.145	339.67
710.55	334.99
710.955	353.71
711.36	388.82
711.765	339.67
712.17	323.29
712.575	330.31
712.98	892.04
713.385	363.08
713.789	271.79
714.194	372.44
714.599	262.43
715.003	295.2
715.408	325.63
715.812	351.37
716.217	302.22
716.621	360.74
717.025	325.63
717.429	386.48
717.833	227.32
718.238	318.61
718.642	344.35
719.046	283.5
719.449	318.61
719.853	239.03
720.257	290.52
720.661	367.76
721.065	313.92
721.468	234.35
721.872	269.45
722.275	388.82
722.679	332.65
723.082	320.95
723.485	309.24
723.889	320.95
724.292	269.45
724.695	283.5
725.098	337.33
725.501	267.11
725.904	313.92
726.307	334.99
726.71	356.05
727.113	290.52
727.516	311.58
727.918	344.35
728.321	306.9
728.724	313.92
729.126	370.1
729.529	332.65
729.931	334.99
730.333	269.45
730.736	349.03
731.138	334.99
731.54	367.76
731.942	292.86
732.344	292.86
732.746	309.24
733.148	283.5
733.55	313.92
733.952	276.48
734.354	342.01
734.756	327.97
735.157	384.14
735.559	227.32
735.96	236.69
736.362	311.58
736.763	262.43
737.165	234.35
737.566	337.33
737.967	323.29
738.368	276.48
738.77	323.29
739.171	304.56
739.572	299.88
739.973	325.63
740.374	358.39
740.774	288.18
741.175	320.95
741.576	257.75
741.977	325.63
742.377	327.97
742.778	320.95
743.178	327.97
743.579	302.22
743.979	274.14
744.379	318.61
744.78	388.82
745.18	342.01
745.58	276.48
745.98	304.56
746.38	295.2
746.78	283.5
747.18	395.84
747.58	311.58
747.98	278.82
748.38	330.31
748.779	370.1
749.179	346.69
749.578	393.5
749.978	330.31
750.377	290.52
750.777	306.9
751.176	267.11
751.575	309.24
751.975	365.42
752.374	276.48
752.773	325.63
753.172	334.99
753.571	299.88
753.97	309.24
754.369	320.95
754.768	316.26
755.166	278.82
755.565	365.42
755.964	318.61
756.362	253.07
756.761	358.39
757.159	363.08
757.558	318.61
757.956	309.24
758.354	332.65
758.753	337.33
759.151	288.18
759.549	374.78
759.947	271.79
760.345	363.08
760.743	318.61
761.141	306.9
761.539	356.05
761.936	271.79
762.334	405.21
762.732	299.88
763.129	349.03
763.527	299.88
763.924	430.95
764.322	351.37
764.719	374.78
765.117	309.24
765.514	295.2
765.911	346.69
766.308	334.99
766.705	304.56
767.102	323.29
767.499	316.26
767.896	262.43
768.293	320.95
768.69	325.63
769.086	241.37
769.483	297.54
769.88	337.33
770.276	299.88
770.673	306.9
771.069	320.95
771.466	288.18
771.862	257.75
772.258	267.11
772.654	325.63
773.05	299.88
773.447	306.9
773.843	325.63
774.239	363.08
774.634	316.26
775.03	346.69
775.426	278.82
775.822	367.76
776.218	278.82
776.613	339.67
777.009	346.69
777.404	363.08
777.8	309.24
778.195	264.77
778.59	374.78
778.986	318.61
779.381	288.18
779.776	304.56
780.171	262.43
780.566	276.48
780.961	262.43
781.356	306.9
781.751	414.57
782.146	229.67
782.54	353.71
782.935	356.05
783.33	334.99
783.724	365.42
784.119	185.19
784.513	292.86
784.908	337.33
785.302	339.67
785.696	351.37
786.09	269.45
786.485	285.84
786.879	267.11
787.273	318.61
787.667	334.99
788.061	311.58
788.454	283.5
788.848	325.63
789.242	304.56
789.636	320.95
790.029	290.52
790.423	290.52
790.816	386.48
791.21	297.54
791.603	313.92
791.997	285.84
792.39	281.16
792.783	309.24
793.176	292.86
793.569	297.54
793.962	349.03
794.355	309.24
794.748	346.69
795.141	309.24
795.534	297.54
795.927	318.61
796.319	276.48
796.712	356.05
797.105	313.92
797.497	372.44
797.89	224.98
798.282	288.18
798.674	281.16
799.067	283.5
799.459	353.71
799.851	299.88
800.243	255.41
800.635	327.97
801.027	309.24
801.419	302.22
801.811	327.97
802.203	271.79
802.594	304.56
802.986	304.56
803.378	309.24
803.769	295.2
804.161	337.33
804.552	269.45
804.944	320.95
805.335	318.61
805.726	264.77
806.118	351.37
806.509	278.82
806.9	295.2
807.291	374.78
807.682	295.2
808.073	325.63
808.464	391.16
808.855	334.99
809.245	290.52
809.636	353.71
810.027	334.99
810.417	334.99
810.808	269.45
811.198	271.79
811.589	246.05
811.979	278.82
812.369	344.35
812.759	264.77
813.15	318.61
813.54	290.52
813.93	278.82
814.32	339.67
814.71	356.05
815.1	318.61
815.489	299.88
815.879	274.14
816.269	332.65
816.658	342.01
817.048	309.24
817.438	379.46
817.827	262.43
818.216	316.26
818.606	232.01
818.995	337.33
819.384	260.09
819.773	253.07
820.163	302.22
820.552	297.54
820.941	309.24
821.33	306.9
821.718	271.79
822.107	309.24
822.496	292.86
822.885	351.37
823.273	334.99
823.662	271.79
824.05	342.01
824.439	295.2
824.827	311.58
825.216	320.95
825.604	351.37
825.992	297.54
826.38	274.14
826.768	299.88
827.156	267.11
827.544	269.45
827.932	334.99
828.32	234.35
828.708	229.67
829.096	353.71
829.483	344.35
829.871	302.22
830.259	384.14
830.646	297.54
831.034	274.14
831.421	339.67
831.808	318.61
832.196	295.2
832.583	316.26
832.97	370.1
833.357	248.39
833.744	281.16
834.131	306.9
834.518	311.58
834.905	306.9
835.292	320.95
835.678	342.01
836.065	292.86
836.452	356.05
836.838	339.67
837.225	351.37
837.611	344.35
837.998	281.16
838.384	299.88
838.77	224.98
839.157	297.54
839.543	353.71
839.929	276.48
840.315	290.52
840.701	318.61
841.087	227.32
841.473	320.95
841.858	260.09
842.244	327.97
842.63	248.39
843.015	384.14
843.401	374.78
843.787	302.22
844.172	290.52
844.557	246.05
844.943	295.2
845.328	271.79
845.713	356.05
846.098	290.52
846.483	323.29
846.868	339.67
847.253	327.97
847.638	299.88
848.023	356.05
848.408	311.58
848.793	365.42
849.177	337.33
849.562	262.43
849.947	342.01
850.331	309.24
850.715	351.37
851.1	346.69
851.484	309.24
851.868	363.08
852.253	290.52
852.637	297.54
853.021	304.56
853.405	271.79
853.789	288.18
854.173	360.74
854.557	311.58
854.94	283.5
855.324	304.56
855.708	306.9
856.091	358.39
856.475	304.56
856.858	342.01
857.242	269.45
857.625	278.82
858.009	323.29
858.392	320.95
858.775	288.18
859.158	283.5
859.541	367.76
859.924	316.26
860.307	342.01
860.69	316.26
861.073	356.05
861.456	342.01
861.838	325.63
862.221	325.63
862.604	278.82
862.986	360.74
863.369	255.41
863.751	353.71
864.133	264.77
864.516	269.45
864.898	306.9
865.28	220.3
865.662	320.95
866.044	295.2
866.426	325.63
866.808	339.67
867.19	316.26
867.572	365.42
867.954	288.18
868.336	363.08
868.717	356.05
869.099	311.58
869.48	290.52
869.862	297.54
870.243	316.26
870.625	309.24
871.006	313.92
871.387	351.37
871.768	302.22
872.149	334.99
872.53	290.52
872.911	377.12
873.292	269.45
873.673	402.86
874.054	358.39
874.435	342.01
874.815	304.56
875.196	306.9
875.577	323.29
875.957	356.05
876.338	292.86
876.718	260.09
877.098	316.26
877.479	320.95
877.859	271.79
878.239	299.88
878.619	330.31
878.999	288.18
879.379	351.37
879.759	295.2
880.139	313.92
880.519	323.29
880.898	292.86
881.278	334.99
881.658	306.9
882.037	306.9
882.417	269.45
882.796	351.37
883.176	264.77
883.555	264.77
883.934	288.18
884.313	330.31
884.693	246.05
885.072	351.37
885.451	327.97
885.83	306.9
886.209	327.97
886.587	290.52
886.966	372.44
887.345	290.52
887.724	283.5
888.102	281.16
888.481	285.84
888.859	260.09
889.238	365.42
889.616	295.2
889.994	276.48
890.373	330.31
890.751	278.82
891.129	304.56
891.507	339.67
891.885	283.5
892.263	295.2
892.641	260.09
893.019	325.63
893.396	229.67
893.774	370.1
894.152	311.58
894.529	274.14
894.907	297.54
895.284	381.8
895.662	306.9
896.039	267.11
896.416	299.88
896.794	386.48
897.171	292.86
897.548	363.08
897.925	325.63
898.302	304.56
898.679	295.2
899.056	313.92
899.433	278.82
899.809	288.18
900.186	246.05
900.563	325.63
900.939	302.22
901.316	377.12
901.692	334.99
902.069	267.11
902.445	386.48
902.821	290.52
903.197	257.75
903.574	320.95
903.95	330.31
904.326	295.2
904.702	253.07
905.078	283.5
905.454	234.35
905.829	224.98
906.205	311.58
906.581	271.79
906.956	342.01
907.332	323.29
907.707	332.65
908.083	351.37
908.458	346.69
908.833	278.82
909.209	320.95
909.584	344.35
909.959	325.63
910.334	271.79
910.709	353.71
911.084	281.16
911.459	269.45
911.834	297.54
912.209	360.74
912.583	269.45
912.958	313.92
913.333	260.09
913.707	264.77
914.082	363.08
914.456	325.63
914.83	306.9
915.205	395.84
915.579	327.97
915.953	386.48
916.327	344.35
916.701	311.58
917.075	323.29
917.449	290.52
917.823	290.52
918.197	297.54
918.571	285.84
918.944	297.54
919.318	327.97
919.692	281.16
920.065	316.26
920.438	292.86
920.812	316.26
921.185	304.56
921.558	257.75
921.932	283.5
922.305	323.29
922.678	278.82
923.051	358.39
923.424	349.03
923.797	262.43
924.17	255.41
924.542	292.86
924.915	295.2
925.288	299.88
925.661	356.05
926.033	360.74
926.406	342.01
926.778	367.76
927.15	281.16
927.523	309.24
927.895	302.22
928.267	344.35
928.639	295.2
929.011	290.52
929.383	295.2
929.755	290.52
930.127	330.31
930.499	278.82
930.871	323.29
931.242	316.26
931.614	346.69
931.986	299.88
932.357	278.82
932.729	288.18
933.1	283.5
933.471	351.37
933.843	295.2
934.214	269.45
934.585	339.67
934.956	351.37
935.327	330.31
935.698	274.14
936.069	297.54
936.44	299.88
936.811	274.14
937.182	304.56
937.552	351.37
937.923	274.14
938.293	295.2
938.664	285.84
939.034	395.84
939.405	283.5
939.775	374.78
940.145	367.76
940.516	334.99
940.886	281.16
941.256	304.56
941.626	295.2
941.996	332.65
942.366	292.86
942.735	309.24
943.105	344.35
943.475	320.95
943.845	334.99
944.214	351.37
944.584	379.46
944.953	381.8
945.323	267.11
945.692	283.5
946.061	316.26
946.43	297.54
946.8	250.73
947.169	288.18
947.538	327.97
947.907	292.86
948.276	353.71
948.645	330.31
949.013	316.26
949.382	337.33
949.751	351.37
950.119	292.86
950.488	356.05
950.857	311.58
951.225	276.48
951.593	306.9
951.962	309.24
952.33	313.92
952.698	327.97
953.066	306.9
953.434	278.82
953.802	309.24
954.17	278.82
954.538	313.92
954.906	292.86
955.274	353.71
955.642	271.79
956.009	292.86
956.377	325.63
956.744	323.29
957.112	283.5
957.479	290.52
957.847	309.24
958.214	274.14
958.581	288.18
958.948	290.52
959.315	318.61
959.683	318.61
960.05	267.11
960.416	288.18
960.783	337.33
961.15	281.16
961.517	295.2
961.884	278.82
962.25	297.54
962.617	351.37
962.983	342.01
963.35	306.9
963.716	330.31
964.082	306.9
964.449	297.54
964.815	292.86
965.181	316.26
965.547	309.24
965.913	330.31
966.279	269.45
966.645	309.24
967.011	381.8
967.377	267.11
967.742	262.43
968.108	302.22
968.474	337.33
968.839	344.35
969.205	302.22
969.57	285.84
969.935	299.88
970.301	318.61
970.666	306.9
971.031	304.56
971.396	316.26
971.761	318.61
972.126	257.75
972.491	278.82
972.856	316.26
973.221	363.08
973.586	309.24
973.95	306.9
974.315	316.26
974.679	334.99
975.044	302.22
975.408	239.03
975.773	260.09
976.137	274.14
976.501	302.22
976.866	309.24
977.23	288.18
977.594	208.6
977.958	346.69
978.322	370.1
978.686	304.56
979.049	311.58
979.413	290.52
979.777	327.97
980.141	325.63
980.504	260.09
980.868	253.07
981.231	332.65
981.595	309.24
981.958	334.99
982.321	306.9
982.684	253.07
983.048	330.31
983.411	323.29
983.774	297.54
984.137	260.09
984.5	309.24
984.862	299.88
985.225	358.39
985.588	334.99
985.951	353.71
986.313	332.65
986.676	309.24
987.038	313.92
987.401	236.69
987.763	236.69
988.125	311.58
988.488	281.16
988.85	316.26
989.212	342.01
989.574	290.52
989.936	262.43
990.298	295.2
990.66	363.08
991.022	283.5
991.383	323.29
991.745	318.61
992.107	358.39
992.468	358.39
992.83	271.79
993.191	320.95
993.553	281.16
993.914	281.16
994.275	299.88
994.637	327.97
994.998	313.92
995.359	318.61
995.72	276.48
996.081	327.97
996.442	304.56
996.803	283.5
997.163	318.61
997.524	278.82
997.885	327.97
998.245	297.54
998.606	309.24
998.966	285.84
999.327	288.18
999.687	309.24
1000.047	297.54
1000.408	318.61
1000.768	325.63
1001.128	269.45
1001.488	295.2
1001.848	269.45
1002.208	276.48
1002.568	278.82
1002.927	255.41
1003.287	316.26
1003.647	283.5
1004.007	283.5
1004.366	311.58
1004.726	309.24
1005.085	316.26
1005.444	295.2
1005.804	285.84
1006.163	327.97
1006.522	346.69
1006.881	292.86
1007.24	232.01
1007.599	288.18
1007.958	342.01
1008.317	318.61
1008.676	327.97
1009.035	325.63
1009.393	386.48
1009.752	278.82
1010.111	351.37
1010.469	332.65
1010.828	349.03
1011.186	267.11
1011.544	320.95
1011.903	288.18
1012.261	311.58
1012.619	295.2
1012.977	274.14
1013.335	356.05
1013.693	311.58
1014.051	337.33
1014.409	302.22
1014.767	327.97
1015.124	271.79
1015.482	337.33
1015.84	262.43
1016.197	290.52
1016.555	290.52
1016.912	295.2
1017.269	360.74
1017.627	318.61
1017.984	323.29
1018.341	309.24
1018.698	283.5
1019.055	260.09
1019.412	346.69
1019.769	302.22
1020.126	318.61
1020.483	309.24
1020.84	320.95
1021.196	313.92
1021.553	337.33
1021.909	351.37
1022.266	332.65
1022.622	351.37
1022.979	316.26
1023.335	313.92
1023.691	306.9
1024.047	269.45
1024.404	334.99
1024.76	274.14
1025.116	311.58
1025.472	306.9
1025.827	325.63
1026.183	349.03
1026.539	304.56
1026.895	332.65
1027.25	316.26
1027.606	288.18
1027.961	356.05
1028.317	250.73
1028.672	325.63
1029.028	330.31
1029.383	316.26
1029.738	271.79
1030.093	278.82
1030.448	283.5
1030.803	342.01
1031.158	344.35
1031.513	323.29
1031.868	372.44
1032.223	332.65
1032.577	339.67
1032.932	302.22
1033.287	278.82
1033.641	292.86
1033.996	306.9
1034.35	342.01
1034.704	360.74
1035.059	264.77
1035.413	285.84
1035.767	285.84
1036.121	285.84
