Data from Al_FLMS009871__372__12-32-02-727.txt Node

Date: Fri Mar 08 12:32:02 CST 2024
User: pe5414po
Spectrometer: FLMS00987
Trigger mode: 0
Integration Time (sec): 1.000000E-1
Scans to average: 1
Electric dark correction enabled: true
Nonlinearity correction enabled: false
Boxcar width: 0
XAxis mode: Wavelengths
Number of Pixels in Spectrum: 2048
>>>>>Begin Spectral Data<<<<<
188.938	-79.43
189.409	-79.43
189.879	-79.43
190.349	-91.13
190.819	-168.37
191.29	-98.16
191.76	-65.39
192.23	-100.5
192.7	-81.77
193.17	-63.05
193.64	-93.48
194.109	-58.37
194.579	16.53
195.049	-16.24
195.519	25.89
195.988	100.79
196.458	65.68
196.927	46.96
197.397	77.38
197.866	89.09
198.336	154.62
198.805	231.86
199.274	180.37
199.744	213.14
200.213	192.07
200.682	220.16
201.151	238.88
201.62	185.05
202.089	271.65
202.558	337.18
203.027	266.97
203.495	309.1
203.964	281.01
204.433	241.22
204.902	353.57
205.37	271.65
205.839	236.54
206.307	339.52
206.776	243.56
207.244	257.61
207.712	231.86
208.181	344.21
208.649	269.31
209.117	325.48
209.585	257.61
210.053	262.29
210.521	262.29
210.989	285.69
211.457	337.18
211.925	262.29
212.393	259.95
212.861	259.95
213.328	290.37
213.796	283.35
214.264	292.71
214.731	262.29
215.199	257.61
215.666	302.08
216.133	288.03
216.601	269.31
217.068	255.26
217.535	248.24
218.003	278.67
218.47	295.05
218.937	252.92
219.404	264.63
219.871	187.39
220.338	220.16
220.805	257.61
221.271	255.26
221.738	245.9
222.205	292.71
222.671	337.18
223.138	248.24
223.605	255.26
224.071	278.67
224.538	213.14
225.004	273.99
225.47	313.78
225.937	227.18
226.403	229.52
226.869	224.84
227.335	311.44
227.801	262.29
228.267	292.71
228.733	313.78
229.199	269.31
229.665	269.31
230.131	316.12
230.597	334.84
231.062	295.05
231.528	243.56
231.994	295.05
232.459	266.97
232.925	243.56
233.39	257.61
233.856	236.54
234.321	323.14
234.786	243.56
235.252	320.8
235.717	271.65
236.182	250.58
236.647	248.24
237.112	288.03
237.577	311.44
238.042	288.03
238.507	290.37
238.972	285.69
239.436	257.61
239.901	259.95
240.366	309.1
240.83	302.08
241.295	271.65
241.76	304.42
242.224	290.37
242.688	273.99
243.153	302.08
243.617	283.35
244.081	295.05
244.545	288.03
245.01	344.21
245.474	302.08
245.938	250.58
246.402	238.88
246.866	276.33
247.33	295.05
247.793	278.67
248.257	290.37
248.721	266.97
249.185	229.52
249.648	290.37
250.112	276.33
250.575	222.5
251.039	248.24
251.502	257.61
251.965	344.21
252.429	281.01
252.892	262.29
253.355	266.97
253.818	243.56
254.281	257.61
254.744	316.12
255.207	316.12
255.67	266.97
256.133	320.8
256.596	262.29
257.059	229.52
257.522	281.01
257.984	318.46
258.447	306.76
258.909	264.63
259.372	290.37
259.834	245.9
260.297	283.35
260.759	215.48
261.221	334.84
261.684	245.9
262.146	273.99
262.608	250.58
263.07	269.31
263.532	252.92
263.994	330.16
264.456	278.67
264.918	290.37
265.38	257.61
265.842	302.08
266.303	213.14
266.765	295.05
267.227	292.71
267.688	346.55
268.15	292.71
268.611	252.92
269.072	262.29
269.534	283.35
269.995	288.03
270.456	283.35
270.918	264.63
271.379	325.48
271.84	339.52
272.301	318.46
272.762	245.9
273.223	325.48
273.684	309.1
274.144	297.39
274.605	245.9
275.066	320.8
275.527	295.05
275.987	325.48
276.448	210.79
276.908	255.26
277.369	283.35
277.829	276.33
278.289	266.97
278.75	309.1
279.21	302.08
279.67	273.99
280.13	266.97
280.59	243.56
281.05	236.54
281.51	264.63
281.97	292.71
282.43	355.91
282.89	288.03
283.35	250.58
283.809	292.71
284.269	344.21
284.729	278.67
285.188	309.1
285.648	243.56
286.107	250.58
286.567	248.24
287.026	257.61
287.485	297.39
287.944	255.26
288.404	351.23
288.863	299.73
289.322	313.78
289.781	295.05
290.24	306.76
290.699	337.18
291.158	292.71
291.616	295.05
292.075	318.46
292.534	262.29
292.992	362.93
293.451	306.76
293.91	271.65
294.368	386.33
294.827	292.71
295.285	271.65
295.743	323.14
296.202	283.35
296.66	344.21
297.118	372.29
297.576	320.8
298.034	351.23
298.492	255.26
298.95	304.42
299.408	313.78
299.866	283.35
300.324	248.24
300.781	306.76
301.239	276.33
301.697	234.2
302.154	339.52
302.612	271.65
303.069	243.56
303.527	295.05
303.984	339.52
304.441	269.31
304.899	316.12
305.356	292.71
305.813	304.42
306.27	283.35
306.727	332.5
307.184	281.01
307.641	302.08
308.098	243.56
308.555	278.67
309.012	313.78
309.468	255.26
309.925	302.08
310.382	302.08
310.838	318.46
311.295	285.69
311.751	297.39
312.208	288.03
312.664	325.48
313.12	376.97
313.577	313.78
314.033	234.2
314.489	341.86
314.945	299.73
315.401	348.89
315.857	355.91
316.313	316.12
316.769	369.95
317.225	288.03
317.681	302.08
318.136	288.03
318.592	276.33
319.048	276.33
319.503	252.92
319.959	288.03
320.414	266.97
320.869	327.82
321.325	341.86
321.78	306.76
322.235	332.5
322.691	281.01
323.146	306.76
323.601	299.73
324.056	295.05
324.511	295.05
324.966	288.03
325.421	318.46
325.875	288.03
326.33	304.42
326.785	341.86
327.24	323.14
327.694	372.29
328.149	355.91
328.603	318.46
329.058	238.88
329.512	388.68
329.966	281.01
330.421	311.44
330.875	292.71
331.329	318.46
331.783	271.65
332.237	241.22
332.691	297.39
333.145	292.71
333.599	278.67
334.053	334.84
334.507	299.73
334.96	248.24
335.414	334.84
335.868	327.82
336.321	309.1
336.775	316.12
337.228	281.01
337.682	262.29
338.135	278.67
338.588	306.76
339.042	365.27
339.495	316.12
339.948	358.25
340.401	285.69
340.854	266.97
341.307	302.08
341.76	271.65
342.213	297.39
342.666	351.23
343.119	327.82
343.571	339.52
344.024	320.8
344.477	290.37
344.929	365.27
345.382	273.99
345.834	330.16
346.287	362.93
346.739	320.8
347.191	367.61
347.644	348.89
348.096	292.71
348.548	379.31
349	292.71
349.452	273.99
349.904	334.84
350.356	259.95
350.808	309.1
351.26	217.82
351.711	288.03
352.163	309.1
352.615	332.5
353.066	302.08
353.518	306.76
353.969	285.69
354.421	330.16
354.872	262.29
355.324	367.61
355.775	337.18
356.226	323.14
356.677	348.89
357.128	320.8
357.579	325.48
358.03	320.8
358.481	285.69
358.932	302.08
359.383	245.9
359.834	252.92
360.285	306.76
360.735	383.99
361.186	325.48
361.637	348.89
362.087	283.35
362.538	323.14
362.988	241.22
363.438	295.05
363.889	339.52
364.339	348.89
364.789	351.23
365.239	276.33
365.689	299.73
366.139	344.21
366.589	311.44
367.039	290.37
367.489	309.1
367.939	330.16
368.389	369.95
368.839	278.67
369.288	302.08
369.738	306.76
370.187	325.48
370.637	327.82
371.086	323.14
371.536	288.03
371.985	271.65
372.434	299.73
372.884	325.48
373.333	304.42
373.782	276.33
374.231	316.12
374.68	311.44
375.129	276.33
375.578	318.46
376.027	327.82
376.475	295.05
376.924	339.52
377.373	323.14
377.822	283.35
378.27	297.39
378.719	257.61
379.167	348.89
379.616	318.46
380.064	320.8
380.512	327.82
380.961	243.56
381.409	311.44
381.857	358.25
382.305	334.84
382.753	320.8
383.201	381.65
383.649	316.12
384.097	367.61
384.545	295.05
384.992	348.89
385.44	276.33
385.888	309.1
386.335	339.52
386.783	309.1
387.231	316.12
387.678	276.33
388.125	288.03
388.573	339.52
389.02	273.99
389.467	323.14
389.914	257.61
390.362	383.99
390.809	227.18
391.256	348.89
391.703	299.73
392.15	257.61
392.596	217.82
393.043	297.39
393.49	320.8
393.937	292.71
394.383	299.73
394.83	288.03
395.276	304.42
395.723	259.95
396.169	255.26
396.616	334.84
397.062	276.33
397.508	313.78
397.954	295.05
398.401	325.48
398.847	266.97
399.293	243.56
399.739	369.95
400.185	299.73
400.631	313.78
401.076	285.69
401.522	292.71
401.968	332.5
402.414	302.08
402.859	369.95
403.305	285.69
403.75	367.61
404.196	332.5
404.641	306.76
405.086	388.68
405.532	304.42
405.977	306.76
406.422	412.08
406.867	309.1
407.312	323.14
407.757	281.01
408.202	252.92
408.647	302.08
409.092	334.84
409.537	318.46
409.982	269.31
410.426	306.76
410.871	358.25
411.316	290.37
411.76	320.8
412.205	295.05
412.649	266.97
413.093	311.44
413.538	283.35
413.982	311.44
414.426	346.55
414.87	276.33
415.314	339.52
415.758	339.52
416.202	362.93
416.646	362.93
417.09	383.99
417.534	339.52
417.978	348.89
418.421	388.68
418.865	360.59
419.309	367.61
419.752	344.21
420.196	292.71
420.639	309.1
421.083	285.69
421.526	297.39
421.969	379.31
422.412	400.38
422.856	376.97
423.299	388.68
423.742	360.59
424.185	355.91
424.628	304.42
425.071	311.44
425.513	309.1
425.956	374.63
426.399	325.48
426.842	337.18
427.284	297.39
427.727	306.76
428.169	334.84
428.612	379.31
429.054	273.99
429.497	374.63
429.939	351.23
430.381	374.63
430.823	412.08
431.265	306.76
431.707	344.21
432.149	440.17
432.591	428.46
433.033	423.78
433.475	393.36
433.917	430.8
434.359	470.59
434.8	472.93
435.242	526.77
435.684	522.09
436.125	475.28
436.567	498.68
437.008	519.75
437.449	433.15
437.891	369.95
438.332	421.44
438.773	447.19
439.214	398.04
439.656	423.78
440.097	468.25
440.538	414.42
440.978	515.06
441.419	463.57
441.86	479.96
442.301	423.78
442.742	512.72
443.182	414.42
443.623	482.3
444.063	479.96
444.504	484.64
444.944	440.17
445.385	522.09
445.825	449.53
446.265	526.77
446.706	515.06
447.146	503.36
447.586	519.75
448.026	550.17
448.466	494
448.906	498.68
449.346	421.44
449.786	510.38
450.225	472.93
450.665	458.89
451.105	494
451.544	508.04
451.984	477.62
452.424	477.62
452.863	498.68
453.302	491.66
453.742	465.91
454.181	447.19
454.62	503.36
455.059	437.83
455.499	435.49
455.938	468.25
456.377	435.49
456.816	444.85
457.254	407.4
457.693	444.85
458.132	442.51
458.571	351.23
459.01	426.12
459.448	402.72
459.887	426.12
460.325	461.23
460.764	374.63
461.202	454.21
461.641	376.97
462.079	388.68
462.517	423.78
462.955	428.46
463.393	426.12
463.832	362.93
464.27	337.18
464.708	367.61
465.145	393.36
465.583	388.68
466.021	383.99
466.459	376.97
466.897	391.02
467.334	414.42
467.772	369.95
468.209	348.89
468.647	367.61
469.084	374.63
469.522	395.7
469.959	398.04
470.396	320.8
470.833	376.97
471.271	320.8
471.708	400.38
472.145	407.4
472.582	362.93
473.019	348.89
473.456	381.65
473.892	426.12
474.329	398.04
474.766	313.78
475.202	381.65
475.639	402.72
476.076	355.91
476.512	318.46
476.949	355.91
477.385	388.68
477.821	428.46
478.258	386.33
478.694	400.38
479.13	339.52
479.566	398.04
480.002	402.72
480.438	414.42
480.874	360.59
481.31	372.29
481.746	407.4
482.181	325.48
482.617	419.1
483.053	430.8
483.488	374.63
483.924	388.68
484.36	355.91
484.795	402.72
485.23	428.46
485.666	419.1
486.101	454.21
486.536	348.89
486.971	437.83
487.407	379.31
487.842	412.08
488.277	421.44
488.712	409.74
489.146	435.49
489.581	454.21
490.016	433.15
490.451	395.7
490.885	416.76
491.32	454.21
491.755	412.08
492.189	367.61
492.624	297.39
493.058	435.49
493.492	393.36
493.927	433.15
494.361	405.06
494.795	402.72
495.229	426.12
495.663	344.21
496.097	372.29
496.531	395.7
496.965	423.78
497.399	440.17
497.833	351.23
498.266	402.72
498.7	419.1
499.134	372.29
499.567	428.46
500.001	313.78
500.434	423.78
500.868	444.85
501.301	365.27
501.734	351.23
502.168	374.63
502.601	372.29
503.034	346.55
503.467	428.46
503.9	341.86
504.333	330.16
504.766	426.12
505.199	353.57
505.632	426.12
506.064	351.23
506.497	391.02
506.93	351.23
507.362	379.31
507.795	374.63
508.227	435.49
508.66	477.62
509.092	388.68
509.524	393.36
509.956	428.46
510.389	440.17
510.821	428.46
511.253	351.23
511.685	391.02
512.117	426.12
512.549	391.02
512.981	388.68
513.412	393.36
513.844	374.63
514.276	421.44
514.707	477.62
515.139	463.57
515.571	414.42
516.002	376.97
516.433	479.96
516.865	442.51
517.296	407.4
517.727	386.33
518.159	419.1
518.59	437.83
519.021	437.83
519.452	426.12
519.883	381.65
520.314	454.21
520.744	449.53
521.175	341.86
521.606	402.72
522.037	393.36
522.467	421.44
522.898	362.93
523.328	416.76
523.759	391.02
524.189	470.59
524.62	503.36
525.05	440.17
525.48	327.82
525.91	435.49
526.341	386.33
526.771	444.85
527.201	405.06
527.631	409.74
528.061	421.44
528.49	409.74
528.92	383.99
529.35	405.06
529.78	402.72
530.209	447.19
530.639	412.08
531.068	419.1
531.498	405.06
531.927	465.91
532.357	472.93
532.786	419.1
533.215	454.21
533.644	437.83
534.074	430.8
534.503	398.04
534.932	440.17
535.361	421.44
535.79	440.17
536.218	494
536.647	416.76
537.076	465.91
537.505	344.21
537.933	484.64
538.362	444.85
538.79	477.62
539.219	491.66
539.647	501.02
540.076	477.62
540.504	538.47
540.932	578.26
541.36	632.09
541.788	683.58
542.217	699.97
542.645	664.86
543.073	721.03
543.5	735.07
543.928	667.2
544.356	772.52
544.784	629.75
545.211	718.69
545.639	716.35
546.067	653.16
546.494	594.64
546.922	601.66
547.349	552.51
547.776	589.96
548.204	501.02
548.631	468.25
549.058	479.96
549.485	470.59
549.912	470.59
550.339	486.98
550.766	437.83
551.193	437.83
551.62	517.4
552.047	522.09
552.474	386.33
552.9	449.53
553.327	533.79
553.754	484.64
554.18	463.57
554.607	437.83
555.033	433.15
555.459	447.19
555.886	402.72
556.312	463.57
556.738	444.85
557.164	465.91
557.59	426.12
558.016	442.51
558.442	449.53
558.868	416.76
559.294	402.72
559.72	458.89
560.145	475.28
560.571	400.38
560.997	374.63
561.422	414.42
561.848	437.83
562.273	421.44
562.699	463.57
563.124	419.1
563.549	437.83
563.974	388.68
564.4	409.74
564.825	449.53
565.25	472.93
565.675	463.57
566.1	365.27
566.525	379.31
566.95	386.33
567.374	444.85
567.799	435.49
568.224	330.16
568.648	402.72
569.073	395.7
569.497	393.36
569.922	388.68
570.346	414.42
570.771	400.38
571.195	376.97
571.619	386.33
572.043	388.68
572.467	358.25
572.891	454.21
573.315	423.78
573.739	386.33
574.163	379.31
574.587	395.7
575.011	383.99
575.435	433.15
575.858	423.78
576.282	426.12
576.705	475.28
577.129	423.78
577.552	405.06
577.976	409.74
578.399	472.93
578.822	421.44
579.245	503.36
579.669	423.78
580.092	472.93
580.515	491.66
580.938	451.87
581.361	412.08
581.784	442.51
582.206	379.31
582.629	444.85
583.052	461.23
583.474	442.51
583.897	423.78
584.32	477.62
584.742	472.93
585.165	433.15
585.587	456.55
586.009	447.19
586.431	451.87
586.854	454.21
587.276	461.23
587.698	491.66
588.12	486.98
588.542	442.51
588.964	398.04
589.386	362.93
589.807	421.44
590.229	451.87
590.651	465.91
591.073	472.93
591.494	388.68
591.916	409.74
592.337	433.15
592.759	398.04
593.18	398.04
593.601	402.72
594.022	407.4
594.444	348.89
594.865	379.31
595.286	430.8
595.707	376.97
596.128	374.63
596.549	381.65
596.97	463.57
597.39	372.29
597.811	395.7
598.232	405.06
598.652	444.85
599.073	383.99
599.494	454.21
599.914	414.42
600.334	437.83
600.755	379.31
601.175	376.97
601.595	426.12
602.015	423.78
602.436	393.36
602.856	524.43
603.276	386.33
603.696	369.95
604.115	353.57
604.535	334.84
604.955	367.61
605.375	381.65
605.794	369.95
606.214	407.4
606.634	323.14
607.053	409.74
607.473	332.5
607.892	374.63
608.311	421.44
608.731	444.85
609.15	463.57
609.569	529.11
609.988	620.39
610.407	714.01
610.826	767.84
611.245	800.61
611.664	767.84
612.083	728.05
612.501	676.56
612.92	596.98
613.339	538.47
613.757	625.07
614.176	566.56
614.594	470.59
615.013	486.98
615.431	416.76
615.85	365.27
616.268	393.36
616.686	395.7
617.104	409.74
617.522	435.49
617.94	348.89
618.358	391.02
618.776	447.19
619.194	369.95
619.612	463.57
620.03	447.19
620.447	426.12
620.865	412.08
621.282	426.12
621.7	444.85
622.117	444.85
622.535	393.36
622.952	334.84
623.369	346.55
623.787	369.95
624.204	444.85
624.621	423.78
625.038	440.17
625.455	376.97
625.872	416.76
626.289	332.5
626.706	372.29
627.123	320.8
627.539	395.7
627.956	374.63
628.373	304.42
628.789	346.55
629.206	433.15
629.622	395.7
630.038	419.1
630.455	383.99
630.871	395.7
631.287	372.29
631.703	428.46
632.12	383.99
632.536	381.65
632.952	344.21
633.368	365.27
633.783	318.46
634.199	316.12
634.615	416.76
635.031	360.59
635.446	353.57
635.862	344.21
636.277	351.23
636.693	369.95
637.108	388.68
637.524	435.49
637.939	365.27
638.354	299.73
638.77	295.05
639.185	426.12
639.6	299.73
640.015	358.25
640.43	339.52
640.845	304.42
641.259	309.1
641.674	339.52
642.089	339.52
642.504	330.16
642.918	313.78
643.333	273.99
643.747	288.03
644.162	344.21
644.576	311.44
644.991	299.73
645.405	311.44
645.819	374.63
646.233	383.99
646.647	320.8
647.061	372.29
647.475	325.48
647.889	302.08
648.303	278.67
648.717	348.89
649.131	323.14
649.545	323.14
649.958	334.84
650.372	365.27
650.785	348.89
651.199	323.14
651.612	309.1
652.026	369.95
652.439	386.33
652.852	297.39
653.266	299.73
653.679	292.71
654.092	351.23
654.505	334.84
654.918	337.18
655.331	292.71
655.744	339.52
656.156	304.42
656.569	323.14
656.982	302.08
657.394	311.44
657.807	381.65
658.22	304.42
658.632	327.82
659.044	353.57
659.457	316.12
659.869	341.86
660.281	290.37
660.693	339.52
661.106	426.12
661.518	313.78
661.93	369.95
662.342	334.84
662.754	358.25
663.165	337.18
663.577	369.95
663.989	318.46
664.401	369.95
664.812	278.67
665.224	278.67
665.635	398.04
666.047	367.61
666.458	360.59
666.869	346.55
667.281	351.23
667.692	327.82
668.103	311.44
668.514	281.01
668.925	391.02
669.336	332.5
669.747	231.86
670.158	330.16
670.569	344.21
670.979	229.52
671.39	271.65
671.801	266.97
672.211	325.48
672.622	299.73
673.032	346.55
673.443	278.67
673.853	271.65
674.263	379.31
674.674	283.35
675.084	316.12
675.494	346.55
675.904	297.39
676.314	313.78
676.724	391.02
677.134	309.1
677.544	353.57
677.953	341.86
678.363	332.5
678.773	323.14
679.182	334.84
679.592	299.73
680.001	374.63
680.411	318.46
680.82	346.55
681.23	318.46
681.639	330.16
682.048	353.57
682.457	376.97
682.866	311.44
683.275	316.12
683.684	297.39
684.093	313.78
684.502	325.48
684.911	325.48
685.32	309.1
685.728	351.23
686.137	295.05
686.546	355.91
686.954	383.99
687.363	344.21
687.771	327.82
688.179	318.46
688.588	353.57
688.996	334.84
689.404	341.86
689.812	376.97
690.22	376.97
690.628	365.27
691.036	341.86
691.444	327.82
691.852	330.16
692.26	330.16
692.667	391.02
693.075	304.42
693.483	376.97
693.89	320.8
694.298	344.21
694.705	271.65
695.112	365.27
695.52	320.8
695.927	353.57
696.334	252.92
696.741	376.97
697.148	283.35
697.555	302.08
697.962	248.24
698.369	278.67
698.776	334.84
699.183	316.12
699.59	306.76
699.996	323.14
700.403	299.73
700.81	355.91
701.216	360.59
701.623	295.05
702.029	341.86
702.435	283.35
702.842	334.84
703.248	327.82
703.654	299.73
704.06	309.1
704.466	344.21
704.872	304.42
705.278	348.89
705.684	348.89
706.09	278.67
706.496	262.29
706.901	304.42
707.307	428.46
707.712	362.93
708.118	365.27
708.523	339.52
708.929	337.18
709.334	360.59
709.74	360.59
710.145	367.61
710.55	381.65
710.955	381.65
711.36	266.97
711.765	318.46
712.17	353.57
712.575	365.27
712.98	894.23
713.385	360.59
713.789	353.57
714.194	262.29
714.599	306.76
715.003	299.73
715.408	299.73
715.812	257.61
716.217	320.8
716.621	229.52
717.025	316.12
717.429	334.84
717.833	341.86
718.238	334.84
718.642	416.76
719.046	318.46
719.449	337.18
719.853	281.01
720.257	257.61
720.661	416.76
721.065	320.8
721.468	250.58
721.872	203.77
722.275	337.18
722.679	332.5
723.082	288.03
723.485	281.01
723.889	323.14
724.292	339.52
724.695	318.46
725.098	318.46
725.501	269.31
725.904	309.1
726.307	288.03
726.71	302.08
727.113	255.26
727.516	271.65
727.918	316.12
728.321	332.5
728.724	306.76
729.126	297.39
729.529	334.84
729.931	337.18
730.333	337.18
730.736	290.37
731.138	281.01
731.54	327.82
731.942	339.52
732.344	302.08
732.746	320.8
733.148	288.03
733.55	311.44
733.952	344.21
734.354	297.39
734.756	339.52
735.157	285.69
735.559	325.48
735.96	309.1
736.362	295.05
736.763	316.12
737.165	285.69
737.566	379.31
737.967	330.16
738.368	327.82
738.77	276.33
739.171	341.86
739.572	332.5
739.973	339.52
740.374	330.16
740.774	309.1
741.175	290.37
741.576	355.91
741.977	344.21
742.377	320.8
742.778	316.12
743.178	273.99
743.579	348.89
743.979	290.37
744.379	273.99
744.78	290.37
745.18	273.99
745.58	358.25
745.98	353.57
746.38	330.16
746.78	306.76
747.18	353.57
747.58	330.16
747.98	341.86
748.38	297.39
748.779	313.78
749.179	304.42
749.578	316.12
749.978	299.73
750.377	299.73
750.777	285.69
751.176	299.73
751.575	379.31
751.975	344.21
752.374	339.52
752.773	313.78
753.172	292.71
753.571	337.18
753.97	271.65
754.369	292.71
754.768	266.97
755.166	320.8
755.565	269.31
755.964	358.25
756.362	330.16
756.761	290.37
757.159	283.35
757.558	313.78
757.956	292.71
758.354	339.52
758.753	372.29
759.151	288.03
759.549	271.65
759.947	358.25
760.345	306.76
760.743	271.65
761.141	243.56
761.539	311.44
761.936	344.21
762.334	262.29
762.732	316.12
763.129	283.35
763.527	325.48
763.924	337.18
764.322	353.57
764.719	351.23
765.117	330.16
765.514	276.33
765.911	320.8
766.308	285.69
766.705	224.84
767.102	302.08
767.499	271.65
767.896	316.12
768.293	281.01
768.69	325.48
769.086	330.16
769.483	348.89
769.88	281.01
770.276	297.39
770.673	313.78
771.069	358.25
771.466	316.12
771.862	288.03
772.258	341.86
772.654	369.95
773.05	269.31
773.447	299.73
773.843	355.91
774.239	355.91
774.634	276.33
775.03	369.95
775.426	288.03
775.822	283.35
776.218	325.48
776.613	295.05
777.009	318.46
777.404	369.95
777.8	344.21
778.195	281.01
778.59	276.33
778.986	316.12
779.381	323.14
779.776	243.56
780.171	311.44
780.566	299.73
780.961	295.05
781.356	346.55
781.751	339.52
782.146	325.48
782.54	325.48
782.935	295.05
783.33	306.76
783.724	278.67
784.119	313.78
784.513	285.69
784.908	327.82
785.302	327.82
785.696	318.46
786.09	318.46
786.485	327.82
786.879	292.71
787.273	283.35
787.667	339.52
788.061	241.22
788.454	278.67
788.848	306.76
789.242	288.03
789.636	306.76
790.029	318.46
790.423	290.37
790.816	309.1
791.21	313.78
791.603	257.61
791.997	348.89
792.39	376.97
792.783	302.08
793.176	318.46
793.569	332.5
793.962	344.21
794.355	259.95
794.748	283.35
795.141	311.44
795.534	346.55
795.927	355.91
796.319	290.37
796.712	259.95
797.105	269.31
797.497	306.76
797.89	302.08
798.282	292.71
798.674	295.05
799.067	276.33
799.459	323.14
799.851	372.29
800.243	306.76
800.635	290.37
801.027	313.78
801.419	332.5
801.811	309.1
802.203	295.05
802.594	297.39
802.986	360.59
803.378	360.59
803.769	316.12
804.161	313.78
804.552	271.65
804.944	224.84
805.335	323.14
805.726	313.78
806.118	304.42
806.509	288.03
806.9	316.12
807.291	355.91
807.682	295.05
808.073	295.05
808.464	374.63
808.855	327.82
809.245	297.39
809.636	327.82
810.027	355.91
810.417	302.08
810.808	330.16
811.198	327.82
811.589	344.21
811.979	330.16
812.369	245.9
812.759	311.44
813.15	259.95
813.54	341.86
813.93	320.8
814.32	259.95
814.71	278.67
815.1	299.73
815.489	327.82
815.879	362.93
816.269	318.46
816.658	309.1
817.048	302.08
817.438	362.93
817.827	252.92
818.216	358.25
818.606	339.52
818.995	325.48
819.384	346.55
819.773	311.44
820.163	334.84
820.552	264.63
820.941	281.01
821.33	372.29
821.718	288.03
822.107	304.42
822.496	302.08
822.885	245.9
823.273	234.2
823.662	327.82
824.05	313.78
824.439	302.08
824.827	330.16
825.216	292.71
825.604	353.57
825.992	304.42
826.38	264.63
826.768	273.99
827.156	325.48
827.544	313.78
827.932	327.82
828.32	330.16
828.708	283.35
829.096	309.1
829.483	365.27
829.871	320.8
830.259	353.57
830.646	269.31
831.034	306.76
831.421	316.12
831.808	288.03
832.196	309.1
832.583	220.16
832.97	309.1
833.357	383.99
833.744	285.69
834.131	278.67
834.518	295.05
834.905	292.71
835.292	306.76
835.678	337.18
836.065	266.97
836.452	281.01
836.838	334.84
837.225	332.5
837.611	330.16
837.998	309.1
838.384	311.44
838.77	304.42
839.157	248.24
839.543	269.31
839.929	273.99
840.315	302.08
840.701	266.97
841.087	252.92
841.473	351.23
841.858	339.52
842.244	311.44
842.63	313.78
843.015	344.21
843.401	379.31
843.787	320.8
844.172	316.12
844.557	295.05
844.943	304.42
845.328	285.69
845.713	311.44
846.098	299.73
846.483	369.95
846.868	304.42
847.253	313.78
847.638	362.93
848.023	241.22
848.408	323.14
848.793	332.5
849.177	271.65
849.562	299.73
849.947	323.14
850.331	304.42
850.715	290.37
851.1	302.08
851.484	297.39
851.868	266.97
852.253	313.78
852.637	245.9
853.021	376.97
853.405	313.78
853.789	327.82
854.173	379.31
854.557	297.39
854.94	273.99
855.324	332.5
855.708	269.31
856.091	299.73
856.475	365.27
856.858	273.99
857.242	262.29
857.625	295.05
858.009	306.76
858.392	302.08
858.775	297.39
859.158	339.52
859.541	304.42
859.924	281.01
860.307	231.86
860.69	341.86
861.073	288.03
861.456	295.05
861.838	320.8
862.221	299.73
862.604	323.14
862.986	299.73
863.369	365.27
863.751	255.26
864.133	273.99
864.516	365.27
864.898	288.03
865.28	297.39
865.662	283.35
866.044	241.22
866.426	306.76
866.808	327.82
867.19	262.29
867.572	259.95
867.954	295.05
868.336	304.42
868.717	316.12
869.099	283.35
869.48	276.33
869.862	290.37
870.243	360.59
870.625	323.14
871.006	273.99
871.387	318.46
871.768	339.52
872.149	304.42
872.53	327.82
872.911	311.44
873.292	353.57
873.673	372.29
874.054	318.46
874.435	245.9
874.815	273.99
875.196	327.82
875.577	266.97
875.957	302.08
876.338	325.48
876.718	278.67
877.098	358.25
877.479	323.14
877.859	330.16
878.239	369.95
878.619	360.59
878.999	311.44
879.379	346.55
879.759	306.76
880.139	285.69
880.519	220.16
880.898	376.97
881.278	302.08
881.658	281.01
882.037	295.05
882.417	318.46
882.796	306.76
883.176	269.31
883.555	320.8
883.934	369.95
884.313	264.63
884.693	332.5
885.072	337.18
885.451	358.25
885.83	299.73
886.209	288.03
886.587	313.78
886.966	245.9
887.345	311.44
887.724	344.21
888.102	337.18
888.481	341.86
888.859	316.12
889.238	288.03
889.616	313.78
889.994	278.67
890.373	295.05
890.751	290.37
891.129	295.05
891.507	262.29
891.885	383.99
892.263	374.63
892.641	297.39
893.019	304.42
893.396	306.76
893.774	311.44
894.152	259.95
894.529	341.86
894.907	351.23
895.284	281.01
895.662	288.03
896.039	365.27
896.416	281.01
896.794	285.69
897.171	292.71
897.548	313.78
897.925	330.16
898.302	302.08
898.679	318.46
899.056	344.21
899.433	318.46
899.809	297.39
900.186	330.16
900.563	306.76
900.939	332.5
901.316	278.67
901.692	276.33
902.069	250.58
902.445	252.92
902.821	271.65
903.197	341.86
903.574	295.05
903.95	355.91
904.326	306.76
904.702	320.8
905.078	365.27
905.454	299.73
905.829	325.48
906.205	276.33
906.581	330.16
906.956	288.03
907.332	344.21
907.707	346.55
908.083	304.42
908.458	269.31
908.833	276.33
909.209	290.37
909.584	325.48
909.959	318.46
910.334	327.82
910.709	351.23
911.084	334.84
911.459	262.29
911.834	344.21
912.209	339.52
912.583	290.37
912.958	295.05
913.333	292.71
913.707	313.78
914.082	325.48
914.456	334.84
914.83	299.73
915.205	320.8
915.579	299.73
915.953	318.46
916.327	318.46
916.701	302.08
917.075	334.84
917.449	334.84
917.823	302.08
918.197	306.76
918.571	367.61
918.944	365.27
919.318	257.61
919.692	302.08
920.065	234.2
920.438	288.03
920.812	320.8
921.185	355.91
921.558	339.52
921.932	325.48
922.305	318.46
922.678	297.39
923.051	344.21
923.424	344.21
923.797	313.78
924.17	283.35
924.542	327.82
924.915	327.82
925.288	304.42
925.661	285.69
926.033	273.99
926.406	245.9
926.778	372.29
927.15	318.46
927.523	234.2
927.895	330.16
928.267	245.9
928.639	299.73
929.011	264.63
929.383	245.9
929.755	306.76
930.127	344.21
930.499	320.8
930.871	316.12
931.242	339.52
931.614	341.86
931.986	234.2
932.357	344.21
932.729	313.78
933.1	288.03
933.471	238.88
933.843	278.67
934.214	309.1
934.585	332.5
934.956	327.82
935.327	318.46
935.698	281.01
936.069	325.48
936.44	252.92
936.811	264.63
937.182	255.26
937.552	311.44
937.923	304.42
938.293	269.31
938.664	283.35
939.034	302.08
939.405	353.57
939.775	341.86
940.145	295.05
940.516	325.48
940.886	302.08
941.256	295.05
941.626	262.29
941.996	383.99
942.366	304.42
942.735	273.99
943.105	341.86
943.475	358.25
943.845	250.58
944.214	295.05
944.584	264.63
944.953	318.46
945.323	288.03
945.692	271.65
946.061	323.14
946.43	334.84
946.8	330.16
947.169	304.42
947.538	358.25
947.907	266.97
948.276	332.5
948.645	283.35
949.013	304.42
949.382	245.9
949.751	369.95
950.119	299.73
950.488	330.16
950.857	346.55
951.225	297.39
951.593	313.78
951.962	344.21
952.33	302.08
952.698	273.99
953.066	323.14
953.434	327.82
953.802	196.75
954.17	250.58
954.538	339.52
954.906	309.1
955.274	339.52
955.642	325.48
956.009	295.05
956.377	264.63
956.744	255.26
957.112	330.16
957.479	351.23
957.847	266.97
958.214	306.76
958.581	302.08
958.948	297.39
959.315	351.23
959.683	257.61
960.05	295.05
960.416	353.57
960.783	276.33
961.15	318.46
961.517	252.92
961.884	281.01
962.25	281.01
962.617	309.1
962.983	292.71
963.35	297.39
963.716	278.67
964.082	250.58
964.449	339.52
964.815	316.12
965.181	266.97
965.547	285.69
965.913	323.14
966.279	325.48
966.645	332.5
967.011	299.73
967.377	281.01
967.742	266.97
968.108	365.27
968.474	252.92
968.839	283.35
969.205	297.39
969.57	295.05
969.935	297.39
970.301	348.89
970.666	339.52
971.031	318.46
971.396	248.24
971.761	229.52
972.126	269.31
972.491	334.84
972.856	292.71
973.221	281.01
973.586	332.5
973.95	299.73
974.315	355.91
974.679	330.16
975.044	325.48
975.408	266.97
975.773	330.16
976.137	255.26
976.501	330.16
976.866	295.05
977.23	351.23
977.594	316.12
977.958	334.84
978.322	306.76
978.686	229.52
979.049	323.14
979.413	313.78
979.777	295.05
980.141	304.42
980.504	318.46
980.868	276.33
981.231	379.31
981.595	281.01
981.958	337.18
982.321	292.71
982.684	304.42
983.048	295.05
983.411	316.12
983.774	255.26
984.137	278.67
984.5	295.05
984.862	257.61
985.225	351.23
985.588	334.84
985.951	327.82
986.313	271.65
986.676	252.92
987.038	243.56
987.401	299.73
987.763	292.71
988.125	264.63
988.488	306.76
988.85	339.52
989.212	283.35
989.574	292.71
989.936	316.12
990.298	351.23
990.66	316.12
991.022	288.03
991.383	325.48
991.745	276.33
992.107	290.37
992.468	327.82
992.83	332.5
993.191	234.2
993.553	281.01
993.914	297.39
994.275	250.58
994.637	248.24
994.998	292.71
995.359	395.7
995.72	309.1
996.081	318.46
996.442	295.05
996.803	245.9
997.163	283.35
997.524	259.95
997.885	278.67
998.245	323.14
998.606	344.21
998.966	245.9
999.327	327.82
999.687	281.01
1000.047	304.42
1000.408	304.42
1000.768	292.71
1001.128	320.8
1001.488	311.44
1001.848	243.56
1002.208	304.42
1002.568	344.21
1002.927	325.48
1003.287	372.29
1003.647	381.65
1004.007	337.18
1004.366	266.97
1004.726	299.73
1005.085	318.46
1005.444	309.1
1005.804	259.95
1006.163	285.69
1006.522	292.71
1006.881	297.39
1007.24	362.93
1007.599	257.61
1007.958	295.05
1008.317	297.39
1008.676	327.82
1009.035	257.61
1009.393	351.23
1009.752	299.73
1010.111	323.14
1010.469	316.12
1010.828	341.86
1011.186	346.55
1011.544	208.45
1011.903	285.69
1012.261	318.46
1012.619	295.05
1012.977	348.89
1013.335	344.21
1013.693	323.14
1014.051	306.76
1014.409	318.46
1014.767	339.52
1015.124	262.29
1015.482	341.86
1015.84	243.56
1016.197	292.71
1016.555	297.39
1016.912	273.99
1017.269	271.65
1017.627	273.99
1017.984	330.16
1018.341	271.65
1018.698	278.67
1019.055	325.48
1019.412	325.48
1019.769	330.16
1020.126	273.99
1020.483	276.33
1020.84	295.05
1021.196	266.97
1021.553	320.8
1021.909	306.76
1022.266	351.23
1022.622	351.23
1022.979	351.23
1023.335	325.48
1023.691	337.18
1024.047	318.46
1024.404	262.29
1024.76	252.92
1025.116	309.1
1025.472	288.03
1025.827	302.08
1026.183	217.82
1026.539	325.48
1026.895	316.12
1027.25	295.05
1027.606	306.76
1027.961	325.48
1028.317	252.92
1028.672	229.52
1029.028	266.97
1029.383	379.31
1029.738	346.55
1030.093	264.63
1030.448	248.24
1030.803	215.48
1031.158	243.56
1031.513	297.39
1031.868	278.67
1032.223	379.31
1032.577	245.9
1032.932	302.08
1033.287	313.78
1033.641	318.46
1033.996	234.2
1034.35	339.52
1034.704	288.03
1035.059	304.42
1035.413	283.35
1035.767	283.35
1036.121	283.35
