Data from Al_FLMS009871__370__12-32-02-527.txt Node

Date: Fri Mar 08 12:32:02 CST 2024
User: pe5414po
Spectrometer: FLMS00987
Trigger mode: 0
Integration Time (sec): 1.000000E-1
Scans to average: 1
Electric dark correction enabled: true
Nonlinearity correction enabled: false
Boxcar width: 0
XAxis mode: Wavelengths
Number of Pixels in Spectrum: 2048
>>>>>Begin Spectral Data<<<<<
188.938	-107.66
189.409	-107.66
189.879	-107.66
190.349	-121.71
190.819	-138.09
191.29	-91.28
191.76	-81.92
192.23	-42.13
192.7	-117.03
193.17	-25.75
193.64	-44.47
194.109	-7.02
194.579	-77.24
195.049	25.75
195.519	-44.47
195.988	21.06
196.458	35.11
196.927	51.49
197.397	163.84
197.866	114.69
198.336	119.37
198.805	126.39
199.274	86.6
199.744	170.86
200.213	227.03
200.682	201.29
201.151	250.44
201.62	236.39
202.089	264.48
202.558	194.26
203.027	212.99
203.495	262.14
203.964	269.16
204.433	297.25
204.902	276.18
205.37	304.27
205.839	271.5
206.307	266.82
206.776	252.78
207.244	344.06
207.712	315.97
208.181	257.46
208.649	283.2
209.117	290.23
209.585	318.31
210.053	313.63
210.521	241.08
210.989	334.7
211.457	322.99
211.925	262.14
212.393	194.26
212.861	318.31
213.328	304.27
213.796	292.57
214.264	177.88
214.731	299.59
215.199	257.46
215.666	301.93
216.133	231.71
216.601	243.42
217.068	285.55
217.535	222.35
218.003	264.48
218.47	276.18
218.937	238.73
219.404	269.16
219.871	304.27
220.338	212.99
220.805	297.25
221.271	231.71
221.738	262.14
222.205	269.16
222.671	252.78
223.138	182.56
223.605	304.27
224.071	276.18
224.538	215.33
225.004	191.92
225.47	259.8
225.937	245.76
226.403	297.25
226.869	285.55
227.335	325.33
227.801	299.59
228.267	311.29
228.733	271.5
229.199	227.03
229.665	163.84
230.131	290.23
230.597	283.2
231.062	252.78
231.528	189.58
231.994	212.99
232.459	215.33
232.925	212.99
233.39	257.46
233.856	283.2
234.321	248.1
234.786	294.91
235.252	215.33
235.717	292.57
236.182	245.76
236.647	264.48
237.112	330.02
237.577	210.65
238.042	194.26
238.507	287.89
238.972	222.35
239.436	273.84
239.901	250.44
240.366	271.5
240.83	243.42
241.295	229.37
241.76	217.67
242.224	248.1
242.688	308.95
243.153	229.37
243.617	292.57
244.081	264.48
244.545	283.2
245.01	243.42
245.474	264.48
245.938	259.8
246.402	241.08
246.866	236.39
247.33	280.86
247.793	287.89
248.257	276.18
248.721	276.18
249.185	339.38
249.648	248.1
250.112	262.14
250.575	269.16
251.039	264.48
251.502	283.2
251.965	255.12
252.429	257.46
252.892	238.73
253.355	259.8
253.818	278.52
254.281	301.93
254.744	278.52
255.207	273.84
255.67	271.5
256.133	229.37
256.596	353.42
257.059	290.23
257.522	315.97
257.984	224.69
258.447	269.16
258.909	313.63
259.372	248.1
259.834	234.05
260.297	266.82
260.759	285.55
261.221	231.71
261.684	348.74
262.146	322.99
262.608	250.44
263.07	241.08
263.532	266.82
263.994	301.93
264.456	287.89
264.918	290.23
265.38	304.27
265.842	236.39
266.303	217.67
266.765	322.99
267.227	234.05
267.688	189.58
268.15	297.25
268.611	269.16
269.072	264.48
269.534	285.55
269.995	315.97
270.456	318.31
270.918	243.42
271.379	269.16
271.84	297.25
272.301	234.05
272.762	262.14
273.223	257.46
273.684	299.59
274.144	210.65
274.605	262.14
275.066	313.63
275.527	222.35
275.987	238.73
276.448	245.76
276.908	262.14
277.369	330.02
277.829	280.86
278.289	273.84
278.75	259.8
279.21	290.23
279.67	255.12
280.13	355.76
280.59	255.12
281.05	276.18
281.51	327.67
281.97	344.06
282.43	290.23
282.89	269.16
283.35	236.39
283.809	290.23
284.269	220.01
284.729	304.27
285.188	351.08
285.648	330.02
286.107	257.46
286.567	306.61
287.026	334.7
287.485	297.25
287.944	273.84
288.404	255.12
288.863	304.27
289.322	271.5
289.781	299.59
290.24	287.89
290.699	283.2
291.158	297.25
291.616	280.86
292.075	332.36
292.534	285.55
292.992	297.25
293.451	294.91
293.91	252.78
294.368	311.29
294.827	269.16
295.285	285.55
295.743	315.97
296.202	318.31
296.66	264.48
297.118	266.82
297.576	255.12
298.034	257.46
298.492	248.1
298.95	301.93
299.408	301.93
299.866	283.2
300.324	236.39
300.781	264.48
301.239	259.8
301.697	278.52
302.154	250.44
302.612	301.93
303.069	334.7
303.527	327.67
303.984	332.36
304.441	313.63
304.899	264.48
305.356	248.1
305.813	322.99
306.27	259.8
306.727	306.61
307.184	320.65
307.641	320.65
308.098	241.08
308.555	262.14
309.012	299.59
309.468	315.97
309.925	241.08
310.382	262.14
310.838	215.33
311.295	313.63
311.751	276.18
312.208	257.46
312.664	322.99
313.12	299.59
313.577	297.25
314.033	353.42
314.489	283.2
314.945	217.67
315.401	262.14
315.857	243.42
316.313	294.91
316.769	301.93
317.225	306.61
317.681	304.27
318.136	290.23
318.592	198.95
319.048	292.57
319.503	271.5
319.959	259.8
320.414	252.78
320.869	212.99
321.325	245.76
321.78	238.73
322.235	276.18
322.691	271.5
323.146	276.18
323.601	273.84
324.056	292.57
324.511	264.48
324.966	313.63
325.421	306.61
325.875	348.74
326.33	250.44
326.785	292.57
327.24	231.71
327.694	280.86
328.149	208.31
328.603	304.27
329.058	287.89
329.512	327.67
329.966	266.82
330.421	301.93
330.875	269.16
331.329	285.55
331.783	285.55
332.237	358.1
332.691	255.12
333.145	355.76
333.599	250.44
334.053	330.02
334.507	278.52
334.96	241.08
335.414	341.72
335.868	318.31
336.321	292.57
336.775	304.27
337.228	360.44
337.682	278.52
338.135	318.31
338.588	339.38
339.042	278.52
339.495	348.74
339.948	337.04
340.401	257.46
340.854	297.25
341.307	318.31
341.76	306.61
342.213	304.27
342.666	306.61
343.119	238.73
343.571	276.18
344.024	337.04
344.477	325.33
344.929	271.5
345.382	306.61
345.834	297.25
346.287	285.55
346.739	393.21
347.191	276.18
347.644	322.99
348.096	304.27
348.548	259.8
349	327.67
349.452	311.29
349.904	311.29
350.356	273.84
350.808	276.18
351.26	280.86
351.711	273.84
352.163	311.29
352.615	297.25
353.066	320.65
353.518	346.4
353.969	287.89
354.421	330.02
354.872	294.91
355.324	297.25
355.775	271.5
356.226	257.46
356.677	306.61
357.128	283.2
357.579	271.5
358.03	294.91
358.481	292.57
358.932	322.99
359.383	315.97
359.834	285.55
360.285	273.84
360.735	278.52
361.186	320.65
361.637	318.31
362.087	306.61
362.538	315.97
362.988	318.31
363.438	320.65
363.889	252.78
364.339	290.23
364.789	322.99
365.239	280.86
365.689	320.65
366.139	308.95
366.589	374.49
367.039	255.12
367.489	322.99
367.939	358.1
368.389	262.14
368.839	322.99
369.288	301.93
369.738	353.42
370.187	344.06
370.637	318.31
371.086	315.97
371.536	320.65
371.985	308.95
372.434	238.73
372.884	318.31
373.333	332.36
373.782	250.44
374.231	308.95
374.68	287.89
375.129	355.76
375.578	292.57
376.027	332.36
376.475	308.95
376.924	337.04
377.373	248.1
377.822	283.2
378.27	358.1
378.719	290.23
379.167	383.85
379.616	334.7
380.064	283.2
380.512	255.12
380.961	318.31
381.409	332.36
381.857	252.78
382.305	358.1
382.753	330.02
383.201	322.99
383.649	283.2
384.097	271.5
384.545	330.02
384.992	269.16
385.44	208.31
385.888	264.48
386.335	224.69
386.783	339.38
387.231	280.86
387.678	273.84
388.125	283.2
388.573	285.55
389.02	292.57
389.467	229.37
389.914	245.76
390.362	283.2
390.809	344.06
391.256	259.8
391.703	348.74
392.15	311.29
392.596	325.33
393.043	294.91
393.49	252.78
393.937	301.93
394.383	306.61
394.83	313.63
395.276	320.65
395.723	318.31
396.169	297.25
396.616	308.95
397.062	339.38
397.508	292.57
397.954	327.67
398.401	341.72
398.847	271.5
399.293	269.16
399.739	278.52
400.185	337.04
400.631	292.57
401.076	238.73
401.522	262.14
401.968	276.18
402.414	280.86
402.859	344.06
403.305	376.83
403.75	266.82
404.196	255.12
404.641	360.44
405.086	299.59
405.532	287.89
405.977	330.02
406.422	255.12
406.867	292.57
407.312	276.18
407.757	318.31
408.202	306.61
408.647	320.65
409.092	269.16
409.537	320.65
409.982	299.59
410.426	257.46
410.871	292.57
411.316	299.59
411.76	306.61
412.205	332.36
412.649	297.25
413.093	259.8
413.538	351.08
413.982	294.91
414.426	231.71
414.87	322.99
415.314	322.99
415.758	287.89
416.202	386.19
416.646	341.72
417.09	344.06
417.534	395.55
417.978	304.27
418.421	344.06
418.865	344.06
419.309	248.1
419.752	245.76
420.196	311.29
420.639	290.23
421.083	299.59
421.526	358.1
421.969	372.15
422.412	325.33
422.856	327.67
423.299	355.76
423.742	264.48
424.185	337.04
424.628	337.04
425.071	383.85
425.513	318.31
425.956	306.61
426.399	318.31
426.842	374.49
427.284	337.04
427.727	318.31
428.169	365.12
428.612	351.08
429.054	318.31
429.497	369.8
429.939	276.18
430.381	351.08
430.823	320.65
431.265	402.57
431.707	334.7
432.149	315.97
432.591	367.46
433.033	315.97
433.475	379.17
433.917	393.21
434.359	421.3
434.8	451.72
435.242	486.83
435.684	465.77
436.125	449.38
436.567	440.02
437.008	418.96
437.449	440.02
437.891	486.83
438.332	388.53
438.773	383.85
439.214	454.06
439.656	421.3
440.097	472.79
440.538	437.68
440.978	416.62
441.419	507.9
441.86	435.34
442.301	498.53
442.742	449.38
443.182	461.09
443.623	479.81
444.063	381.51
444.504	540.66
444.944	477.47
445.385	475.13
445.825	433
446.265	514.92
446.706	524.28
447.146	524.28
447.586	440.02
448.026	526.62
448.466	486.83
448.906	575.77
449.346	482.15
449.786	454.06
450.225	461.09
450.665	575.77
451.105	484.49
451.544	535.98
451.984	465.77
452.424	423.64
452.863	465.77
453.302	449.38
453.742	493.85
454.181	463.43
454.62	479.81
455.059	468.11
455.499	472.79
455.938	383.85
456.377	381.51
456.816	451.72
457.254	411.93
457.693	442.36
458.132	430.66
458.571	435.34
459.01	475.13
459.448	416.62
459.887	381.51
460.325	346.4
460.764	414.27
461.202	440.02
461.641	404.91
462.079	388.53
462.517	482.15
462.955	390.87
463.393	322.99
463.832	395.55
464.27	442.36
464.708	372.15
465.145	383.85
465.583	367.46
466.021	409.59
466.459	409.59
466.897	337.04
467.334	397.89
467.772	320.65
468.209	379.17
468.647	360.44
469.084	360.44
469.522	330.02
469.959	372.15
470.396	418.96
470.833	362.78
471.271	311.29
471.708	400.23
472.145	379.17
472.582	369.8
473.019	411.93
473.456	447.04
473.892	360.44
474.329	386.19
474.766	339.38
475.202	327.67
475.639	421.3
476.076	353.42
476.512	423.64
476.949	395.55
477.385	379.17
477.821	407.25
478.258	327.67
478.694	353.42
479.13	362.78
479.566	414.27
480.002	376.83
480.438	379.17
480.874	313.63
481.31	393.21
481.746	395.55
482.181	353.42
482.617	428.32
483.053	386.19
483.488	402.57
483.924	395.55
484.36	435.34
484.795	444.7
485.23	358.1
485.666	454.06
486.101	395.55
486.536	423.64
486.971	348.74
487.407	418.96
487.842	386.19
488.277	414.27
488.712	404.91
489.146	423.64
489.581	416.62
490.016	451.72
490.451	400.23
490.885	376.83
491.32	400.23
491.755	395.55
492.189	353.42
492.624	458.74
493.058	353.42
493.492	397.89
493.927	400.23
494.361	379.17
494.795	327.67
495.229	365.12
495.663	390.87
496.097	421.3
496.531	409.59
496.965	425.98
497.399	421.3
497.833	374.49
498.266	369.8
498.7	411.93
499.134	325.33
499.567	393.21
500.001	341.72
500.434	334.7
500.868	322.99
501.301	341.72
501.734	322.99
502.168	418.96
502.601	360.44
503.034	339.38
503.467	400.23
503.9	376.83
504.333	416.62
504.766	400.23
505.199	423.64
505.632	365.12
506.064	409.59
506.497	348.74
506.93	383.85
507.362	381.51
507.795	374.49
508.227	318.31
508.66	465.77
509.092	435.34
509.524	304.27
509.956	421.3
510.389	407.25
510.821	365.12
511.253	433
511.685	442.36
512.117	411.93
512.549	381.51
512.981	327.67
513.412	390.87
513.844	372.15
514.276	318.31
514.707	440.02
515.139	444.7
515.571	365.12
516.002	411.93
516.433	383.85
516.865	365.12
517.296	433
517.727	383.85
518.159	421.3
518.59	397.89
519.021	407.25
519.452	437.68
519.883	449.38
520.314	388.53
520.744	414.27
521.175	409.59
521.606	411.93
522.037	388.53
522.467	367.46
522.898	381.51
523.328	458.74
523.759	430.66
524.189	353.42
524.62	330.02
525.05	411.93
525.48	430.66
525.91	388.53
526.341	402.57
526.771	358.1
527.201	430.66
527.631	449.38
528.061	418.96
528.49	351.08
528.92	390.87
529.35	435.34
529.78	402.57
530.209	379.17
530.639	437.68
531.068	472.79
531.498	372.15
531.927	407.25
532.357	447.04
532.786	425.98
533.215	498.53
533.644	421.3
534.074	423.64
534.503	430.66
534.932	437.68
535.361	418.96
535.79	421.3
536.218	414.27
536.647	491.51
537.076	393.21
537.505	322.99
537.933	435.34
538.362	437.68
538.79	507.9
539.219	463.43
539.647	507.9
540.076	470.45
540.504	538.32
540.932	601.52
541.36	592.16
541.788	582.79
542.217	685.78
542.645	718.54
543.073	709.18
543.5	681.1
543.928	685.78
544.356	606.2
544.784	772.38
545.211	655.35
545.639	772.38
546.067	657.69
546.494	608.54
546.922	568.75
547.349	655.35
547.776	540.66
548.204	531.3
548.631	514.92
549.058	491.51
549.485	440.02
549.912	449.38
550.339	477.47
550.766	477.47
551.193	550.03
551.62	496.19
552.047	444.7
552.474	472.79
552.9	435.34
553.327	491.51
553.754	458.74
554.18	433
554.607	423.64
555.033	461.09
555.459	400.23
555.886	458.74
556.312	395.55
556.738	376.83
557.164	456.4
557.59	458.74
558.016	402.57
558.442	358.1
558.868	428.32
559.294	365.12
559.72	379.17
560.145	421.3
560.571	437.68
560.997	411.93
561.422	416.62
561.848	404.91
562.273	369.8
562.699	411.93
563.124	407.25
563.549	325.33
563.974	428.32
564.4	451.72
564.825	463.43
565.25	367.46
565.675	383.85
566.1	388.53
566.525	353.42
566.95	489.17
567.374	414.27
567.799	397.89
568.224	465.77
568.648	440.02
569.073	344.06
569.497	465.77
569.922	409.59
570.346	444.7
570.771	379.17
571.195	397.89
571.619	407.25
572.043	407.25
572.467	428.32
572.891	414.27
573.315	362.78
573.739	362.78
574.163	404.91
574.587	425.98
575.011	386.19
575.435	411.93
575.858	397.89
576.282	433
576.705	344.06
577.129	423.64
577.552	379.17
577.976	423.64
578.399	451.72
578.822	430.66
579.245	437.68
579.669	404.91
580.092	414.27
580.515	376.83
580.938	411.93
581.361	402.57
581.784	442.36
582.206	409.59
582.629	479.81
583.052	430.66
583.474	411.93
583.897	461.09
584.32	435.34
584.742	404.91
585.165	458.74
585.587	496.19
586.009	428.32
586.431	428.32
586.854	447.04
587.276	454.06
587.698	402.57
588.12	472.79
588.542	397.89
588.964	486.83
589.386	367.46
589.807	388.53
590.229	423.64
590.651	386.19
591.073	383.85
591.494	437.68
591.916	423.64
592.337	433
592.759	465.77
593.18	374.49
593.601	379.17
594.022	442.36
594.444	376.83
594.865	435.34
595.286	407.25
595.707	484.49
596.128	428.32
596.549	386.19
596.97	409.59
597.39	358.1
597.811	355.76
598.232	411.93
598.652	428.32
599.073	383.85
599.494	376.83
599.914	440.02
600.334	425.98
600.755	454.06
601.175	355.76
601.595	423.64
602.015	355.76
602.436	395.55
602.856	521.94
603.276	379.17
603.696	339.38
604.115	346.4
604.535	362.78
604.955	388.53
605.375	367.46
605.794	325.33
606.214	383.85
606.634	369.8
607.053	376.83
607.473	447.04
607.892	416.62
608.311	402.57
608.731	404.91
609.15	465.77
609.569	575.77
609.988	578.11
610.407	739.61
610.826	840.25
611.245	781.74
611.664	751.31
612.083	734.93
612.501	753.65
612.92	617.9
613.339	559.39
613.757	526.62
614.176	559.39
614.594	535.98
615.013	468.11
615.431	463.43
615.85	447.04
616.268	444.7
616.686	390.87
617.104	411.93
617.522	414.27
617.94	425.98
618.358	395.55
618.776	425.98
619.194	332.36
619.612	409.59
620.03	433
620.447	395.55
620.865	414.27
621.282	470.45
621.7	421.3
622.117	376.83
622.535	367.46
622.952	372.15
623.369	325.33
623.787	416.62
624.204	348.74
624.621	301.93
625.038	369.8
625.455	397.89
625.872	376.83
626.289	390.87
626.706	344.06
627.123	376.83
627.539	414.27
627.956	325.33
628.373	327.67
628.789	322.99
629.206	390.87
629.622	325.33
630.038	407.25
630.455	337.04
630.871	367.46
631.287	346.4
631.703	355.76
632.12	372.15
632.536	379.17
632.952	344.06
633.368	313.63
633.783	341.72
634.199	337.04
634.615	287.89
635.031	327.67
635.446	320.65
635.862	311.29
636.277	355.76
636.693	435.34
637.108	355.76
637.524	386.19
637.939	297.25
638.354	346.4
638.77	315.97
639.185	346.4
639.6	344.06
640.015	322.99
640.43	332.36
640.845	346.4
641.259	257.46
641.674	304.27
642.089	344.06
642.504	301.93
642.918	290.23
643.333	315.97
643.747	301.93
644.162	360.44
644.576	320.65
644.991	322.99
645.405	318.31
645.819	306.61
646.233	292.57
646.647	311.29
647.061	348.74
647.475	318.31
647.889	351.08
648.303	334.7
648.717	278.52
649.131	367.46
649.545	332.36
649.958	334.7
650.372	355.76
650.785	365.12
651.199	306.61
651.612	334.7
652.026	332.36
652.439	318.31
652.852	262.14
653.266	322.99
653.679	388.53
654.092	344.06
654.505	285.55
654.918	220.01
655.331	381.51
655.744	320.65
656.156	294.91
656.569	376.83
656.982	315.97
657.394	285.55
657.807	334.7
658.22	297.25
658.632	273.84
659.044	337.04
659.457	273.84
659.869	322.99
660.281	290.23
660.693	362.78
661.106	360.44
661.518	306.61
661.93	381.51
662.342	262.14
662.754	322.99
663.165	325.33
663.577	271.5
663.989	365.12
664.401	337.04
664.812	315.97
665.224	308.95
665.635	313.63
666.047	294.91
666.458	243.42
666.869	276.18
667.281	346.4
667.692	353.42
668.103	306.61
668.514	416.62
668.925	269.16
669.336	299.59
669.747	313.63
670.158	308.95
670.569	362.78
670.979	262.14
671.39	332.36
671.801	245.76
672.211	299.59
672.622	299.59
673.032	276.18
673.443	362.78
673.853	278.52
674.263	299.59
674.674	341.72
675.084	301.93
675.494	280.86
675.904	271.5
676.314	360.44
676.724	306.61
677.134	339.38
677.544	332.36
677.953	327.67
678.363	250.44
678.773	318.31
679.182	334.7
679.592	334.7
680.001	332.36
680.411	322.99
680.82	313.63
681.23	308.95
681.639	285.55
682.048	334.7
682.457	306.61
682.866	344.06
683.275	313.63
683.684	395.55
684.093	322.99
684.502	290.23
684.911	276.18
685.32	287.89
685.728	259.8
686.137	283.2
686.546	308.95
686.954	287.89
687.363	304.27
687.771	341.72
688.179	334.7
688.588	318.31
688.996	294.91
689.404	292.57
689.812	264.48
690.22	322.99
690.628	308.95
691.036	283.2
691.444	297.25
691.852	330.02
692.26	348.74
692.667	332.36
693.075	339.38
693.483	266.82
693.89	344.06
694.298	283.2
694.705	325.33
695.112	278.52
695.52	353.42
695.927	299.59
696.334	306.61
696.741	304.27
697.148	346.4
697.555	304.27
697.962	327.67
698.369	351.08
698.776	311.29
699.183	271.5
699.59	339.38
699.996	280.86
700.403	292.57
700.81	283.2
701.216	243.42
701.623	330.02
702.029	327.67
702.435	315.97
702.842	301.93
703.248	280.86
703.654	330.02
704.06	234.05
704.466	294.91
704.872	353.42
705.278	299.59
705.684	301.93
706.09	365.12
706.496	264.48
706.901	351.08
707.307	304.27
707.712	400.23
708.118	337.04
708.523	287.89
708.929	339.38
709.334	348.74
709.74	308.95
710.145	374.49
710.55	337.04
710.955	255.12
711.36	334.7
711.765	393.21
712.17	318.31
712.575	294.91
712.98	807.48
713.385	313.63
713.789	313.63
714.194	271.5
714.599	297.25
715.003	315.97
715.408	283.2
715.812	212.99
716.217	313.63
716.621	397.89
717.025	341.72
717.429	292.57
717.833	276.18
718.238	283.2
718.642	344.06
719.046	292.57
719.449	273.84
719.853	292.57
720.257	325.33
720.661	346.4
721.065	311.29
721.468	320.65
721.872	292.57
722.275	294.91
722.679	346.4
723.082	320.65
723.485	320.65
723.889	208.31
724.292	283.2
724.695	318.31
725.098	339.38
725.501	353.42
725.904	301.93
726.307	287.89
726.71	299.59
727.113	222.35
727.516	266.82
727.918	269.16
728.321	308.95
728.724	294.91
729.126	285.55
729.529	283.2
729.931	327.67
730.333	276.18
730.736	245.76
731.138	259.8
731.54	292.57
731.942	308.95
732.344	315.97
732.746	358.1
733.148	374.49
733.55	283.2
733.952	252.78
734.354	285.55
734.756	330.02
735.157	266.82
735.559	241.08
735.96	266.82
736.362	301.93
736.763	269.16
737.165	315.97
737.566	262.14
737.967	292.57
738.368	301.93
738.77	304.27
739.171	290.23
739.572	308.95
739.973	278.52
740.374	334.7
740.774	283.2
741.175	299.59
741.576	299.59
741.977	318.31
742.377	294.91
742.778	255.12
743.178	304.27
743.579	205.97
743.979	369.8
744.379	255.12
744.78	315.97
745.18	334.7
745.58	308.95
745.98	283.2
746.38	320.65
746.78	210.65
747.18	313.63
747.58	248.1
747.98	339.38
748.38	376.83
748.779	301.93
749.179	287.89
749.578	264.48
749.978	306.61
750.377	306.61
750.777	358.1
751.176	210.65
751.575	283.2
751.975	313.63
752.374	304.27
752.773	278.52
753.172	325.33
753.571	297.25
753.97	320.65
754.369	255.12
754.768	285.55
755.166	341.72
755.565	351.08
755.964	344.06
756.362	315.97
756.761	278.52
757.159	315.97
757.558	259.8
757.956	341.72
758.354	262.14
758.753	248.1
759.151	271.5
759.549	271.5
759.947	311.29
760.345	285.55
760.743	306.61
761.141	252.78
761.539	351.08
761.936	283.2
762.334	320.65
762.732	229.37
763.129	304.27
763.527	311.29
763.924	325.33
764.322	259.8
764.719	311.29
765.117	292.57
765.514	292.57
765.911	308.95
766.308	346.4
766.705	255.12
767.102	325.33
767.499	292.57
767.896	332.36
768.293	280.86
768.69	184.9
769.086	238.73
769.483	297.25
769.88	264.48
770.276	299.59
770.673	266.82
771.069	292.57
771.466	318.31
771.862	297.25
772.258	234.05
772.654	273.84
773.05	236.39
773.447	308.95
773.843	276.18
774.239	266.82
774.634	264.48
775.03	330.02
775.426	318.31
775.822	241.08
776.218	330.02
776.613	287.89
777.009	362.78
777.404	313.63
777.8	262.14
778.195	222.35
778.59	313.63
778.986	266.82
779.381	292.57
779.776	318.31
780.171	318.31
780.566	292.57
780.961	330.02
781.356	283.2
781.751	341.72
782.146	243.42
782.54	297.25
782.935	269.16
783.33	273.84
783.724	269.16
784.119	322.99
784.513	304.27
784.908	308.95
785.302	287.89
785.696	290.23
786.09	306.61
786.485	315.97
786.879	299.59
787.273	280.86
787.667	266.82
788.061	220.01
788.454	257.46
788.848	313.63
789.242	308.95
789.636	311.29
790.029	320.65
790.423	297.25
790.816	273.84
791.21	248.1
791.603	301.93
791.997	301.93
792.39	224.69
792.783	255.12
793.176	315.97
793.569	269.16
793.962	311.29
794.355	266.82
794.748	306.61
795.141	308.95
795.534	308.95
795.927	297.25
796.319	264.48
796.712	351.08
797.105	238.73
797.497	252.78
797.89	351.08
798.282	344.06
798.674	278.52
799.067	269.16
799.459	355.76
799.851	297.25
800.243	313.63
800.635	243.42
801.027	322.99
801.419	280.86
801.811	332.36
802.203	250.44
802.594	327.67
802.986	330.02
803.378	224.69
803.769	292.57
804.161	285.55
804.552	280.86
804.944	273.84
805.335	322.99
805.726	330.02
806.118	301.93
806.509	308.95
806.9	255.12
807.291	325.33
807.682	301.93
808.073	297.25
808.464	262.14
808.855	311.29
809.245	308.95
809.636	264.48
810.027	369.8
810.417	332.36
810.808	273.84
811.198	318.31
811.589	362.78
811.979	259.8
812.369	301.93
812.759	334.7
813.15	262.14
813.54	290.23
813.93	262.14
814.32	292.57
814.71	262.14
815.1	266.82
815.489	234.05
815.879	322.99
816.269	301.93
816.658	313.63
817.048	287.89
817.438	290.23
817.827	231.71
818.216	273.84
818.606	297.25
818.995	257.46
819.384	243.42
819.773	257.46
820.163	292.57
820.552	351.08
820.941	283.2
821.33	355.76
821.718	334.7
822.107	358.1
822.496	334.7
822.885	320.65
823.273	243.42
823.662	266.82
824.05	283.2
824.439	313.63
824.827	259.8
825.216	276.18
825.604	301.93
825.992	339.38
826.38	301.93
826.768	285.55
827.156	269.16
827.544	301.93
827.932	301.93
828.32	301.93
828.708	287.89
829.096	322.99
829.483	287.89
829.871	330.02
830.259	245.76
830.646	327.67
831.034	278.52
831.421	285.55
831.808	301.93
832.196	320.65
832.583	337.04
832.97	238.73
833.357	301.93
833.744	278.52
834.131	297.25
834.518	304.27
834.905	381.51
835.292	269.16
835.678	294.91
836.065	280.86
836.452	278.52
836.838	322.99
837.225	276.18
837.611	315.97
837.998	304.27
838.384	341.72
838.77	287.89
839.157	278.52
839.543	294.91
839.929	306.61
840.315	292.57
840.701	313.63
841.087	360.44
841.473	315.97
841.858	290.23
842.244	287.89
842.63	292.57
843.015	203.63
843.401	421.3
843.787	224.69
844.172	308.95
844.557	250.44
844.943	280.86
845.328	290.23
845.713	276.18
846.098	262.14
846.483	224.69
846.868	280.86
847.253	318.31
847.638	273.84
848.023	365.12
848.408	290.23
848.793	285.55
849.177	327.67
849.562	283.2
849.947	276.18
850.331	266.82
850.715	320.65
851.1	322.99
851.484	166.18
851.868	334.7
852.253	292.57
852.637	315.97
853.021	287.89
853.405	318.31
853.789	280.86
854.173	301.93
854.557	308.95
854.94	299.59
855.324	313.63
855.708	327.67
856.091	283.2
856.475	252.78
856.858	290.23
857.242	259.8
857.625	290.23
858.009	283.2
858.392	299.59
858.775	294.91
859.158	308.95
859.541	327.67
859.924	283.2
860.307	294.91
860.69	250.44
861.073	290.23
861.456	337.04
861.838	264.48
862.221	212.99
862.604	304.27
862.986	290.23
863.369	290.23
863.751	297.25
864.133	299.59
864.516	330.02
864.898	229.37
865.28	337.04
865.662	220.01
866.044	318.31
866.426	255.12
866.808	315.97
867.19	294.91
867.572	255.12
867.954	271.5
868.336	269.16
868.717	285.55
869.099	269.16
869.48	330.02
869.862	341.72
870.243	266.82
870.625	334.7
871.006	313.63
871.387	236.39
871.768	297.25
872.149	255.12
872.53	280.86
872.911	292.57
873.292	264.48
873.673	308.95
874.054	269.16
874.435	313.63
874.815	273.84
875.196	311.29
875.577	248.1
875.957	271.5
876.338	287.89
876.718	245.76
877.098	306.61
877.479	287.89
877.859	276.18
878.239	290.23
878.619	292.57
878.999	248.1
879.379	280.86
879.759	269.16
880.139	318.31
880.519	231.71
880.898	301.93
881.278	257.46
881.658	280.86
882.037	327.67
882.417	257.46
882.796	250.44
883.176	320.65
883.555	229.37
883.934	271.5
884.313	217.67
884.693	276.18
885.072	325.33
885.451	269.16
885.83	318.31
886.209	325.33
886.587	278.52
886.966	294.91
887.345	318.31
887.724	365.12
888.102	294.91
888.481	248.1
888.859	259.8
889.238	276.18
889.616	322.99
889.994	287.89
890.373	330.02
890.751	205.97
891.129	250.44
891.507	358.1
891.885	224.69
892.263	325.33
892.641	252.78
893.019	280.86
893.396	241.08
893.774	313.63
894.152	294.91
894.529	262.14
894.907	308.95
895.284	257.46
895.662	241.08
896.039	297.25
896.416	290.23
896.794	360.44
897.171	306.61
897.548	308.95
897.925	243.42
898.302	299.59
898.679	269.16
899.056	257.46
899.433	355.76
899.809	299.59
900.186	243.42
900.563	318.31
900.939	273.84
901.316	327.67
901.692	280.86
902.069	341.72
902.445	332.36
902.821	287.89
903.197	294.91
903.574	327.67
903.95	306.61
904.326	325.33
904.702	238.73
905.078	367.46
905.454	299.59
905.829	308.95
906.205	360.44
906.581	297.25
906.956	222.35
907.332	182.56
907.707	290.23
908.083	287.89
908.458	285.55
908.833	280.86
909.209	311.29
909.584	299.59
909.959	318.31
910.334	278.52
910.709	322.99
911.084	269.16
911.459	318.31
911.834	220.01
912.209	271.5
912.583	301.93
912.958	257.46
913.333	266.82
913.707	315.97
914.082	266.82
914.456	231.71
914.83	241.08
915.205	325.33
915.579	252.78
915.953	297.25
916.327	243.42
916.701	327.67
917.075	346.4
917.449	285.55
917.823	257.46
918.197	337.04
918.571	285.55
918.944	257.46
919.318	325.33
919.692	362.78
920.065	299.59
920.438	269.16
920.812	367.46
921.185	271.5
921.558	276.18
921.932	294.91
922.305	234.05
922.678	245.76
923.051	280.86
923.424	292.57
923.797	231.71
924.17	337.04
924.542	315.97
924.915	308.95
925.288	325.33
925.661	294.91
926.033	276.18
926.406	327.67
926.778	290.23
927.15	308.95
927.523	315.97
927.895	311.29
928.267	266.82
928.639	271.5
929.011	266.82
929.383	327.67
929.755	320.65
930.127	278.52
930.499	271.5
930.871	315.97
931.242	229.37
931.614	264.48
931.986	322.99
932.357	308.95
932.729	369.8
933.1	297.25
933.471	306.61
933.843	311.29
934.214	304.27
934.585	344.06
934.956	294.91
935.327	257.46
935.698	297.25
936.069	320.65
936.44	248.1
936.811	231.71
937.182	259.8
937.552	322.99
937.923	208.31
938.293	292.57
938.664	308.95
939.034	294.91
939.405	273.84
939.775	330.02
940.145	292.57
940.516	294.91
940.886	259.8
941.256	273.84
941.626	259.8
941.996	287.89
942.366	358.1
942.735	252.78
943.105	250.44
943.475	365.12
943.845	290.23
944.214	325.33
944.584	318.31
944.953	262.14
945.323	322.99
945.692	318.31
946.061	304.27
946.43	294.91
946.8	294.91
947.169	250.44
947.538	355.76
947.907	292.57
948.276	278.52
948.645	231.71
949.013	332.36
949.382	280.86
949.751	339.38
950.119	262.14
950.488	299.59
950.857	306.61
951.225	234.05
951.593	273.84
951.962	299.59
952.33	299.59
952.698	290.23
953.066	290.23
953.434	255.12
953.802	308.95
954.17	313.63
954.538	318.31
954.906	238.73
955.274	320.65
955.642	285.55
956.009	278.52
956.377	318.31
956.744	297.25
957.112	353.42
957.479	278.52
957.847	304.27
958.214	294.91
958.581	290.23
958.948	332.36
959.315	337.04
959.683	320.65
960.05	325.33
960.416	308.95
960.783	245.76
961.15	290.23
961.517	320.65
961.884	262.14
962.25	238.73
962.617	283.2
962.983	285.55
963.35	353.42
963.716	332.36
964.082	348.74
964.449	208.31
964.815	283.2
965.181	280.86
965.547	287.89
965.913	264.48
966.279	255.12
966.645	269.16
967.011	280.86
967.377	257.46
967.742	273.84
968.108	301.93
968.474	290.23
968.839	271.5
969.205	315.97
969.57	301.93
969.935	292.57
970.301	313.63
970.666	337.04
971.031	285.55
971.396	330.02
971.761	250.44
972.126	241.08
972.491	238.73
972.856	306.61
973.221	292.57
973.586	322.99
973.95	318.31
974.315	348.74
974.679	327.67
975.044	208.31
975.408	315.97
975.773	285.55
976.137	255.12
976.501	294.91
976.866	311.29
977.23	238.73
977.594	273.84
977.958	320.65
978.322	301.93
978.686	245.76
979.049	278.52
979.413	287.89
979.777	325.33
980.141	255.12
980.504	315.97
980.868	280.86
981.231	220.01
981.595	318.31
981.958	306.61
982.321	290.23
982.684	285.55
983.048	255.12
983.411	276.18
983.774	313.63
984.137	252.78
984.5	227.03
984.862	278.52
985.225	287.89
985.588	315.97
985.951	280.86
986.313	362.78
986.676	318.31
987.038	313.63
987.401	285.55
987.763	304.27
988.125	266.82
988.488	299.59
988.85	287.89
989.212	231.71
989.574	344.06
989.936	325.33
990.298	304.27
990.66	248.1
991.022	294.91
991.383	276.18
991.745	327.67
992.107	273.84
992.468	372.15
992.83	348.74
993.191	297.25
993.553	285.55
993.914	222.35
994.275	224.69
994.637	278.52
994.998	351.08
995.359	292.57
995.72	248.1
996.081	299.59
996.442	313.63
996.803	320.65
997.163	330.02
997.524	278.52
997.885	318.31
998.245	292.57
998.606	283.2
998.966	283.2
999.327	280.86
999.687	257.46
1000.047	269.16
1000.408	311.29
1000.768	292.57
1001.128	304.27
1001.488	283.2
1001.848	257.46
1002.208	297.25
1002.568	339.38
1002.927	339.38
1003.287	217.67
1003.647	320.65
1004.007	304.27
1004.366	287.89
1004.726	287.89
1005.085	339.38
1005.444	255.12
1005.804	330.02
1006.163	262.14
1006.522	248.1
1006.881	273.84
1007.24	245.76
1007.599	287.89
1007.958	229.37
1008.317	264.48
1008.676	334.7
1009.035	273.84
1009.393	271.5
1009.752	344.06
1010.111	236.39
1010.469	224.69
1010.828	297.25
1011.186	294.91
1011.544	224.69
1011.903	241.08
1012.261	238.73
1012.619	229.37
1012.977	269.16
1013.335	304.27
1013.693	379.17
1014.051	301.93
1014.409	325.33
1014.767	290.23
1015.124	217.67
1015.482	348.74
1015.84	250.44
1016.197	290.23
1016.555	299.59
1016.912	278.52
1017.269	320.65
1017.627	271.5
1017.984	280.86
1018.341	252.78
1018.698	280.86
1019.055	306.61
1019.412	252.78
1019.769	308.95
1020.126	262.14
1020.483	332.36
1020.84	355.76
1021.196	318.31
1021.553	290.23
1021.909	266.82
1022.266	264.48
1022.622	266.82
1022.979	374.49
1023.335	304.27
1023.691	222.35
1024.047	339.38
1024.404	330.02
1024.76	290.23
1025.116	264.48
1025.472	337.04
1025.827	250.44
1026.183	339.38
1026.539	318.31
1026.895	269.16
1027.25	318.31
1027.606	318.31
1027.961	278.52
1028.317	210.65
1028.672	280.86
1029.028	337.04
1029.383	285.55
1029.738	294.91
1030.093	255.12
1030.448	322.99
1030.803	313.63
1031.158	306.61
1031.513	236.39
1031.868	330.02
1032.223	259.8
1032.577	287.89
1032.932	271.5
1033.287	227.03
1033.641	269.16
1033.996	215.33
1034.35	337.04
1034.704	252.78
1035.059	283.2
1035.413	290.23
1035.767	290.23
1036.121	290.23
