Data from Al_FLMS009871__813__15-24-57-307.txt Node

Date: Fri Mar 08 15:24:57 CST 2024
User: pe5414po
Spectrometer: FLMS00987
Trigger mode: 0
Integration Time (sec): 1.000000E-1
Scans to average: 1
Electric dark correction enabled: true
Nonlinearity correction enabled: false
Boxcar width: 0
XAxis mode: Wavelengths
Number of Pixels in Spectrum: 2048
>>>>>Begin Spectral Data<<<<<
188.938	-37.89
189.409	-37.89
189.879	-37.89
190.349	-154.91
190.819	-164.28
191.29	-143.21
191.76	-96.4
192.23	-140.87
192.7	-70.65
193.17	-56.61
193.64	-56.61
194.109	-84.7
194.579	-2.78
195.049	37.01
195.519	29.99
195.988	48.71
196.458	39.35
196.927	116.59
197.397	151.7
197.866	95.52
198.336	132.97
198.805	109.57
199.274	186.8
199.744	175.1
200.213	226.59
200.682	184.46
201.151	294.47
201.62	264.04
202.089	280.43
202.558	278.08
203.027	242.98
203.495	238.3
203.964	273.4
204.433	278.08
204.902	303.83
205.37	329.58
205.839	336.6
206.307	306.17
206.776	355.32
207.244	266.38
207.712	245.32
208.181	310.85
208.649	303.83
209.117	324.9
209.585	308.51
210.053	278.08
210.521	352.98
210.989	294.47
211.457	252.34
211.925	264.04
212.393	238.3
212.861	317.87
213.328	299.15
213.796	250
214.264	287.45
214.731	294.47
215.199	217.23
215.666	235.96
216.133	294.47
216.601	242.98
217.068	289.79
217.535	287.45
218.003	287.45
218.47	121.27
218.937	254.68
219.404	278.08
219.871	271.06
220.338	252.34
220.805	217.23
221.271	278.08
221.738	228.93
222.205	240.64
222.671	264.04
223.138	226.59
223.605	289.79
224.071	308.51
224.538	219.57
225.004	296.81
225.47	193.83
225.937	250
226.403	217.23
226.869	289.79
227.335	308.51
227.801	224.25
228.267	313.19
228.733	301.49
229.199	250
229.665	301.49
230.131	264.04
230.597	280.43
231.062	278.08
231.528	228.93
231.994	240.64
232.459	259.36
232.925	240.64
233.39	303.83
233.856	285.11
234.321	242.98
234.786	303.83
235.252	294.47
235.717	313.19
236.182	271.06
236.647	287.45
237.112	285.11
237.577	303.83
238.042	261.7
238.507	268.72
238.972	317.87
239.436	285.11
239.901	313.19
240.366	301.49
240.83	322.56
241.295	296.81
241.76	294.47
242.224	294.47
242.688	245.32
243.153	271.06
243.617	233.61
244.081	271.06
244.545	238.3
245.01	301.49
245.474	235.96
245.938	278.08
246.402	334.26
246.866	280.43
247.33	320.21
247.793	268.72
248.257	238.3
248.721	299.15
249.185	268.72
249.648	259.36
250.112	280.43
250.575	289.79
251.039	273.4
251.502	327.24
251.965	294.47
252.429	357.66
252.892	268.72
253.355	268.72
253.818	296.81
254.281	214.89
254.744	250
255.207	261.7
255.67	261.7
256.133	261.7
256.596	306.17
257.059	261.7
257.522	390.43
257.984	273.4
258.447	362.34
258.909	308.51
259.372	282.77
259.834	308.51
260.297	292.13
260.759	285.11
261.221	315.53
261.684	329.58
262.146	324.9
262.608	282.77
263.07	238.3
263.532	289.79
263.994	278.08
264.456	331.92
264.918	235.96
265.38	322.56
265.842	292.13
266.303	266.38
266.765	313.19
267.227	254.68
267.688	266.38
268.15	296.81
268.611	257.02
269.072	294.47
269.534	310.85
269.995	275.74
270.456	327.24
270.918	285.11
271.379	285.11
271.84	273.4
272.301	299.15
272.762	324.9
273.223	257.02
273.684	228.93
274.144	259.36
274.605	282.77
275.066	280.43
275.527	289.79
275.987	294.47
276.448	266.38
276.908	292.13
277.369	385.75
277.829	385.75
278.289	233.61
278.75	313.19
279.21	385.75
279.67	352.98
280.13	329.58
280.59	334.26
281.05	350.64
281.51	301.49
281.97	317.87
282.43	324.9
282.89	289.79
283.35	360
283.809	268.72
284.269	264.04
284.729	285.11
285.188	362.34
285.648	275.74
286.107	303.83
286.567	268.72
287.026	308.51
287.485	313.19
287.944	331.92
288.404	289.79
288.863	257.02
289.322	282.77
289.781	294.47
290.24	369.37
290.699	324.9
291.158	327.24
291.616	292.13
292.075	294.47
292.534	252.34
292.992	327.24
293.451	268.72
293.91	292.13
294.368	271.06
294.827	329.58
295.285	273.4
295.743	303.83
296.202	310.85
296.66	292.13
297.118	306.17
297.576	310.85
298.034	317.87
298.492	282.77
298.95	329.58
299.408	350.64
299.866	315.53
300.324	310.85
300.781	259.36
301.239	268.72
301.697	257.02
302.154	308.51
302.612	338.94
303.069	261.7
303.527	299.15
303.984	214.89
304.441	310.85
304.899	240.64
305.356	329.58
305.813	287.45
306.27	282.77
306.727	245.32
307.184	271.06
307.641	282.77
308.098	299.15
308.555	381.07
309.012	292.13
309.468	287.45
309.925	287.45
310.382	320.21
310.838	252.34
311.295	320.21
311.751	210.21
312.208	285.11
312.664	352.98
313.12	278.08
313.577	282.77
314.033	327.24
314.489	317.87
314.945	378.73
315.401	299.15
315.857	278.08
316.313	324.9
316.769	273.4
317.225	350.64
317.681	310.85
318.136	261.7
318.592	322.56
319.048	301.49
319.503	313.19
319.959	292.13
320.414	282.77
320.869	247.66
321.325	381.07
321.78	285.11
322.235	324.9
322.691	278.08
323.146	280.43
323.601	247.66
324.056	303.83
324.511	331.92
324.966	341.28
325.421	320.21
325.875	341.28
326.33	308.51
326.785	336.6
327.24	317.87
327.694	315.53
328.149	317.87
328.603	273.4
329.058	348.3
329.512	287.45
329.966	313.19
330.421	338.94
330.875	329.58
331.329	259.36
331.783	285.11
332.237	289.79
332.691	320.21
333.145	278.08
333.599	271.06
334.053	345.96
334.507	334.26
334.96	301.49
335.414	257.02
335.868	329.58
336.321	278.08
336.775	299.15
337.228	324.9
337.682	322.56
338.135	385.75
338.588	327.24
339.042	352.98
339.495	313.19
339.948	369.37
340.401	301.49
340.854	324.9
341.307	308.51
341.76	322.56
342.213	280.43
342.666	324.9
343.119	336.6
343.571	254.68
344.024	280.43
344.477	301.49
344.929	355.32
345.382	278.08
345.834	296.81
346.287	278.08
346.739	324.9
347.191	334.26
347.644	308.51
348.096	345.96
348.548	275.74
349	280.43
349.452	313.19
349.904	268.72
350.356	352.98
350.808	345.96
351.26	278.08
351.711	294.47
352.163	303.83
352.615	303.83
353.066	287.45
353.518	280.43
353.969	266.38
354.421	308.51
354.872	280.43
355.324	266.38
355.775	362.34
356.226	313.19
356.677	338.94
357.128	320.21
357.579	294.47
358.03	247.66
358.481	261.7
358.932	348.3
359.383	352.98
359.834	364.68
360.285	313.19
360.735	296.81
361.186	357.66
361.637	261.7
362.087	296.81
362.538	364.68
362.988	317.87
363.438	278.08
363.889	320.21
364.339	369.37
364.789	348.3
365.239	348.3
365.689	406.81
366.139	296.81
366.589	350.64
367.039	343.62
367.489	273.4
367.939	350.64
368.389	345.96
368.839	294.47
369.288	299.15
369.738	282.77
370.187	285.11
370.637	385.75
371.086	299.15
371.536	306.17
371.985	310.85
372.434	355.32
372.884	338.94
373.333	282.77
373.782	289.79
374.231	324.9
374.68	250
375.129	292.13
375.578	273.4
376.027	334.26
376.475	303.83
376.924	374.05
377.373	259.36
377.822	329.58
378.27	350.64
378.719	238.3
379.167	324.9
379.616	252.34
380.064	329.58
380.512	355.32
380.961	317.87
381.409	289.79
381.857	329.58
382.305	338.94
382.753	306.17
383.201	329.58
383.649	338.94
384.097	278.08
384.545	268.72
384.992	252.34
385.44	343.62
385.888	273.4
386.335	331.92
386.783	336.6
387.231	282.77
387.678	285.11
388.125	231.27
388.573	252.34
389.02	240.64
389.467	268.72
389.914	313.19
390.362	322.56
390.809	338.94
391.256	299.15
391.703	355.32
392.15	308.51
392.596	331.92
393.043	385.75
393.49	282.77
393.937	292.13
394.383	324.9
394.83	392.77
395.276	310.85
395.723	278.08
396.169	268.72
396.616	331.92
397.062	292.13
397.508	282.77
397.954	303.83
398.401	308.51
398.847	308.51
399.293	301.49
399.739	296.81
400.185	345.96
400.631	250
401.076	324.9
401.522	324.9
401.968	364.68
402.414	324.9
402.859	364.68
403.305	364.68
403.75	341.28
404.196	306.17
404.641	308.51
405.086	310.85
405.532	310.85
405.977	331.92
406.422	285.11
406.867	278.08
407.312	287.45
407.757	348.3
408.202	317.87
408.647	252.34
409.092	322.56
409.537	303.83
409.982	301.49
410.426	306.17
410.871	338.94
411.316	285.11
411.76	228.93
412.205	320.21
412.649	313.19
413.093	292.13
413.538	355.32
413.982	322.56
414.426	348.3
414.87	294.47
415.314	296.81
415.758	334.26
416.202	313.19
416.646	315.53
417.09	327.24
417.534	341.28
417.978	294.47
418.421	266.38
418.865	331.92
419.309	324.9
419.752	430.22
420.196	355.32
420.639	275.74
421.083	322.56
421.526	252.34
421.969	338.94
422.412	348.3
422.856	369.37
423.299	299.15
423.742	264.04
424.185	310.85
424.628	306.17
425.071	308.51
425.513	409.15
425.956	367.03
426.399	348.3
426.842	397.45
427.284	329.58
427.727	289.79
428.169	306.17
428.612	404.47
429.054	336.6
429.497	343.62
429.939	418.52
430.381	308.51
430.823	352.98
431.265	217.23
431.707	322.56
432.149	303.83
432.591	306.17
433.033	280.43
433.475	338.94
433.917	350.64
434.359	275.74
434.8	299.15
435.242	296.81
435.684	352.98
436.125	345.96
436.567	299.15
437.008	292.13
437.449	299.15
437.891	299.15
438.332	348.3
438.773	301.49
439.214	357.66
439.656	352.98
440.097	301.49
440.538	282.77
440.978	287.45
441.419	268.72
441.86	336.6
442.301	343.62
442.742	296.81
443.182	331.92
443.623	345.96
444.063	334.26
444.504	317.87
444.944	289.79
445.385	280.43
445.825	338.94
446.265	285.11
446.706	324.9
447.146	329.58
447.586	357.66
448.026	301.49
448.466	317.87
448.906	299.15
449.346	306.17
449.786	357.66
450.225	292.13
450.665	348.3
451.105	352.98
451.544	317.87
451.984	292.13
452.424	282.77
452.863	296.81
453.302	322.56
453.742	320.21
454.181	287.45
454.62	338.94
455.059	360
455.499	317.87
455.938	334.26
456.377	285.11
456.816	320.21
457.254	369.37
457.693	231.27
458.132	345.96
458.571	355.32
459.01	362.34
459.448	299.15
459.887	374.05
460.325	296.81
460.764	362.34
461.202	374.05
461.641	310.85
462.079	352.98
462.517	257.02
462.955	341.28
463.393	357.66
463.832	329.58
464.27	285.11
464.708	285.11
465.145	303.83
465.583	343.62
466.021	367.03
466.459	374.05
466.897	374.05
467.334	327.24
467.772	299.15
468.209	287.45
468.647	329.58
469.084	385.75
469.522	338.94
469.959	264.04
470.396	322.56
470.833	310.85
471.271	324.9
471.708	357.66
472.145	296.81
472.582	275.74
473.019	334.26
473.456	425.54
473.892	329.58
474.329	322.56
474.766	341.28
475.202	336.6
475.639	331.92
476.076	381.07
476.512	313.19
476.949	327.24
477.385	301.49
477.821	313.19
478.258	345.96
478.694	299.15
479.13	296.81
479.566	357.66
480.002	331.92
480.438	273.4
480.874	324.9
481.31	266.38
481.746	334.26
482.181	374.05
482.617	306.17
483.053	345.96
483.488	322.56
483.924	355.32
484.36	320.21
484.795	327.24
485.23	357.66
485.666	317.87
486.101	306.17
486.536	306.17
486.971	259.36
487.407	292.13
487.842	301.49
488.277	327.24
488.712	308.51
489.146	345.96
489.581	315.53
490.016	296.81
490.451	362.34
490.885	367.03
491.32	324.9
491.755	285.11
492.189	308.51
492.624	285.11
493.058	231.27
493.492	257.02
493.927	327.24
494.361	334.26
494.795	327.24
495.229	345.96
495.663	331.92
496.097	324.9
496.531	322.56
496.965	268.72
497.399	278.08
497.833	247.66
498.266	317.87
498.7	308.51
499.134	322.56
499.567	331.92
500.001	257.02
500.434	268.72
500.868	348.3
501.301	252.34
501.734	289.79
502.168	299.15
502.601	299.15
503.034	315.53
503.467	343.62
503.9	348.3
504.333	306.17
504.766	273.4
505.199	383.41
505.632	313.19
506.064	324.9
506.497	317.87
506.93	320.21
507.362	320.21
507.795	303.83
508.227	341.28
508.66	348.3
509.092	315.53
509.524	268.72
509.956	299.15
510.389	341.28
510.821	324.9
511.253	360
511.685	383.41
512.117	395.11
512.549	341.28
512.981	303.83
513.412	364.68
513.844	348.3
514.276	259.36
514.707	355.32
515.139	374.05
515.571	296.81
516.002	395.11
516.433	322.56
516.865	287.45
517.296	259.36
517.727	275.74
518.159	338.94
518.59	299.15
519.021	289.79
519.452	317.87
519.883	299.15
520.314	273.4
520.744	296.81
521.175	352.98
521.606	371.71
522.037	404.47
522.467	315.53
522.898	205.53
523.328	294.47
523.759	261.7
524.189	292.13
524.62	271.06
525.05	301.49
525.48	317.87
525.91	324.9
526.341	264.04
526.771	315.53
527.201	273.4
527.631	324.9
528.061	331.92
528.49	231.27
528.92	271.06
529.35	376.39
529.78	317.87
530.209	331.92
530.639	275.74
531.068	352.98
531.498	296.81
531.927	254.68
532.357	266.38
532.786	331.92
533.215	406.81
533.644	299.15
534.074	334.26
534.503	317.87
534.932	383.41
535.361	294.47
535.79	348.3
536.218	266.38
536.647	324.9
537.076	296.81
537.505	280.43
537.933	315.53
538.362	341.28
538.79	257.02
539.219	257.02
539.647	390.43
540.076	350.64
540.504	294.47
540.932	289.79
541.36	303.83
541.788	317.87
542.217	317.87
542.645	313.19
543.073	324.9
543.5	355.32
543.928	324.9
544.356	338.94
544.784	280.43
545.211	289.79
545.639	324.9
546.067	289.79
546.494	278.08
546.922	352.98
547.349	301.49
547.776	261.7
548.204	287.45
548.631	308.51
549.058	280.43
549.485	301.49
549.912	273.4
550.339	303.83
550.766	329.58
551.193	287.45
551.62	273.4
552.047	310.85
552.474	322.56
552.9	329.58
553.327	299.15
553.754	315.53
554.18	338.94
554.607	322.56
555.033	343.62
555.459	348.3
555.886	303.83
556.312	320.21
556.738	308.51
557.164	294.47
557.59	292.13
558.016	280.43
558.442	367.03
558.868	334.26
559.294	317.87
559.72	278.08
560.145	320.21
560.571	343.62
560.997	294.47
561.422	310.85
561.848	317.87
562.273	329.58
562.699	299.15
563.124	280.43
563.549	348.3
563.974	296.81
564.4	301.49
564.825	338.94
565.25	395.11
565.675	352.98
566.1	383.41
566.525	301.49
566.95	348.3
567.374	282.77
567.799	285.11
568.224	306.17
568.648	357.66
569.073	343.62
569.497	259.36
569.922	322.56
570.346	271.06
570.771	320.21
571.195	285.11
571.619	331.92
572.043	345.96
572.467	301.49
572.891	320.21
573.315	350.64
573.739	355.32
574.163	320.21
574.587	296.81
575.011	231.27
575.435	308.51
575.858	310.85
576.282	324.9
576.705	261.7
577.129	331.92
577.552	296.81
577.976	338.94
578.399	327.24
578.822	329.58
579.245	360
579.669	303.83
580.092	306.17
580.515	292.13
580.938	334.26
581.361	327.24
581.784	285.11
582.206	378.73
582.629	296.81
583.052	271.06
583.474	282.77
583.897	317.87
584.32	331.92
584.742	402.13
585.165	352.98
585.587	310.85
586.009	338.94
586.431	331.92
586.854	329.58
587.276	299.15
587.698	334.26
588.12	306.17
588.542	331.92
588.964	259.36
589.386	324.9
589.807	350.64
590.229	336.6
590.651	331.92
591.073	285.11
591.494	345.96
591.916	331.92
592.337	334.26
592.759	341.28
593.18	303.83
593.601	324.9
594.022	336.6
594.444	322.56
594.865	285.11
595.286	336.6
595.707	345.96
596.128	282.77
596.549	364.68
596.97	317.87
597.39	343.62
597.811	381.07
598.232	310.85
598.652	329.58
599.073	292.13
599.494	294.47
599.914	308.51
600.334	301.49
600.755	282.77
601.175	282.77
601.595	336.6
602.015	352.98
602.436	310.85
602.856	451.28
603.276	390.43
603.696	357.66
604.115	261.7
604.535	320.21
604.955	268.72
605.375	331.92
605.794	348.3
606.214	338.94
606.634	287.45
607.053	313.19
607.473	383.41
607.892	315.53
608.311	268.72
608.731	303.83
609.15	327.24
609.569	310.85
609.988	322.56
610.407	364.68
610.826	327.24
611.245	259.36
611.664	376.39
612.083	317.87
612.501	310.85
612.92	273.4
613.339	439.58
613.757	296.81
614.176	306.17
614.594	352.98
615.013	367.03
615.431	399.79
615.85	299.15
616.268	303.83
616.686	327.24
617.104	329.58
617.522	299.15
617.94	371.71
618.358	331.92
618.776	287.45
619.194	301.49
619.612	320.21
620.03	317.87
620.447	317.87
620.865	327.24
621.282	357.66
621.7	343.62
622.117	357.66
622.535	348.3
622.952	343.62
623.369	334.26
623.787	228.93
624.204	343.62
624.621	235.96
625.038	266.38
625.455	313.19
625.872	331.92
626.289	336.6
626.706	334.26
627.123	294.47
627.539	331.92
627.956	303.83
628.373	287.45
628.789	294.47
629.206	303.83
629.622	261.7
630.038	383.41
630.455	289.79
630.871	275.74
631.287	355.32
631.703	245.32
632.12	292.13
632.536	334.26
632.952	369.37
633.368	320.21
633.783	278.08
634.199	338.94
634.615	317.87
635.031	303.83
635.446	306.17
635.862	280.43
636.277	292.13
636.693	278.08
637.108	317.87
637.524	355.32
637.939	348.3
638.354	329.58
638.77	275.74
639.185	381.07
639.6	306.17
640.015	343.62
640.43	292.13
640.845	308.51
641.259	341.28
641.674	303.83
642.089	303.83
642.504	301.49
642.918	320.21
643.333	350.64
643.747	271.06
644.162	299.15
644.576	306.17
644.991	292.13
645.405	350.64
645.819	245.32
646.233	320.21
646.647	233.61
647.061	296.81
647.475	336.6
647.889	296.81
648.303	362.34
648.717	352.98
649.131	299.15
649.545	306.17
649.958	331.92
650.372	345.96
650.785	285.11
651.199	315.53
651.612	350.64
652.026	331.92
652.439	273.4
652.852	289.79
653.266	280.43
653.679	336.6
654.092	233.61
654.505	306.17
654.918	334.26
655.331	329.58
655.744	296.81
656.156	306.17
656.569	289.79
656.982	294.47
657.394	310.85
657.807	313.19
658.22	275.74
658.632	273.4
659.044	261.7
659.457	301.49
659.869	345.96
660.281	280.43
660.693	343.62
661.106	338.94
661.518	296.81
661.93	221.91
662.342	343.62
662.754	336.6
663.165	348.3
663.577	322.56
663.989	331.92
664.401	327.24
664.812	282.77
665.224	320.21
665.635	336.6
666.047	345.96
666.458	343.62
666.869	381.07
667.281	292.13
667.692	348.3
668.103	352.98
668.514	360
668.925	308.51
669.336	348.3
669.747	352.98
670.158	280.43
670.569	341.28
670.979	357.66
671.39	352.98
671.801	322.56
672.211	268.72
672.622	289.79
673.032	324.9
673.443	327.24
673.853	313.19
674.263	294.47
674.674	357.66
675.084	336.6
675.494	315.53
675.904	294.47
676.314	308.51
676.724	334.26
677.134	254.68
677.544	285.11
677.953	308.51
678.363	296.81
678.773	299.15
679.182	329.58
679.592	397.45
680.001	324.9
680.411	275.74
680.82	329.58
681.23	268.72
681.639	341.28
682.048	280.43
682.457	303.83
682.866	315.53
683.275	271.06
683.684	308.51
684.093	278.08
684.502	327.24
684.911	294.47
685.32	338.94
685.728	395.11
686.137	313.19
686.546	296.81
686.954	341.28
687.363	352.98
687.771	287.45
688.179	299.15
688.588	317.87
688.996	275.74
689.404	313.19
689.812	294.47
690.22	404.47
690.628	310.85
691.036	383.41
691.444	289.79
691.852	308.51
692.26	338.94
692.667	362.34
693.075	320.21
693.483	357.66
693.89	352.98
694.298	324.9
694.705	327.24
695.112	329.58
695.52	334.26
695.927	350.64
696.334	336.6
696.741	385.75
697.148	315.53
697.555	294.47
697.962	280.43
698.369	259.36
698.776	315.53
699.183	322.56
699.59	285.11
699.996	334.26
700.403	299.15
700.81	345.96
701.216	317.87
701.623	341.28
702.029	289.79
702.435	376.39
702.842	338.94
703.248	315.53
703.654	252.34
704.06	334.26
704.466	348.3
704.872	315.53
705.278	336.6
705.684	287.45
706.09	308.51
706.496	334.26
706.901	308.51
707.307	348.3
707.712	345.96
708.118	268.72
708.523	317.87
708.929	282.77
709.334	334.26
709.74	296.81
710.145	294.47
710.55	343.62
710.955	385.75
711.36	308.51
711.765	303.83
712.17	331.92
712.575	252.34
712.98	821.09
713.385	352.98
713.789	294.47
714.194	331.92
714.599	315.53
715.003	360
715.408	350.64
715.812	341.28
716.217	392.77
716.621	341.28
717.025	303.83
717.429	364.68
717.833	317.87
718.238	367.03
718.642	369.37
719.046	331.92
719.449	367.03
719.853	324.9
720.257	324.9
720.661	355.32
721.065	266.38
721.468	292.13
721.872	364.68
722.275	383.41
722.679	296.81
723.082	299.15
723.485	348.3
723.889	254.68
724.292	310.85
724.695	317.87
725.098	362.34
725.501	320.21
725.904	320.21
726.307	301.49
726.71	296.81
727.113	294.47
727.516	343.62
727.918	352.98
728.321	282.77
728.724	308.51
729.126	289.79
729.529	271.06
729.931	299.15
730.333	296.81
730.736	273.4
731.138	306.17
731.54	343.62
731.942	273.4
732.344	345.96
732.746	221.91
733.148	308.51
733.55	308.51
733.952	259.36
734.354	338.94
734.756	355.32
735.157	343.62
735.559	306.17
735.96	350.64
736.362	334.26
736.763	320.21
737.165	350.64
737.566	369.37
737.967	285.11
738.368	317.87
738.77	226.59
739.171	331.92
739.572	392.77
739.973	285.11
740.374	273.4
740.774	357.66
741.175	331.92
741.576	348.3
741.977	327.24
742.377	310.85
742.778	338.94
743.178	289.79
743.579	320.21
743.979	329.58
744.379	315.53
744.78	362.34
745.18	264.04
745.58	315.53
745.98	320.21
746.38	299.15
746.78	331.92
747.18	334.26
747.58	313.19
747.98	254.68
748.38	376.39
748.779	350.64
749.179	285.11
749.578	374.05
749.978	301.49
750.377	320.21
750.777	317.87
751.176	303.83
751.575	367.03
751.975	310.85
752.374	292.13
752.773	320.21
753.172	322.56
753.571	296.81
753.97	301.49
754.369	310.85
754.768	352.98
755.166	280.43
755.565	317.87
755.964	278.08
756.362	324.9
756.761	322.56
757.159	278.08
757.558	348.3
757.956	313.19
758.354	308.51
758.753	350.64
759.151	341.28
759.549	301.49
759.947	294.47
760.345	338.94
760.743	327.24
761.141	322.56
761.539	310.85
761.936	322.56
762.334	296.81
762.732	338.94
763.129	247.66
763.527	357.66
763.924	355.32
764.322	364.68
764.719	320.21
765.117	369.37
765.514	343.62
765.911	292.13
766.308	371.71
766.705	320.21
767.102	238.3
767.499	257.02
767.896	301.49
768.293	280.43
768.69	301.49
769.086	331.92
769.483	383.41
769.88	310.85
770.276	264.04
770.673	334.26
771.069	355.32
771.466	273.4
771.862	282.77
772.258	324.9
772.654	336.6
773.05	278.08
773.447	367.03
773.843	390.43
774.239	228.93
774.634	292.13
775.03	308.51
775.426	287.45
775.822	294.47
776.218	299.15
776.613	329.58
777.009	324.9
777.404	378.73
777.8	322.56
778.195	329.58
778.59	301.49
778.986	294.47
779.381	303.83
779.776	271.06
780.171	310.85
780.566	315.53
780.961	303.83
781.356	289.79
781.751	296.81
782.146	315.53
782.54	331.92
782.935	280.43
783.33	301.49
783.724	303.83
784.119	327.24
784.513	322.56
784.908	320.21
785.302	268.72
785.696	261.7
786.09	324.9
786.485	313.19
786.879	268.72
787.273	378.73
787.667	292.13
788.061	360
788.454	336.6
788.848	322.56
789.242	308.51
789.636	324.9
790.029	345.96
790.423	338.94
790.816	271.06
791.21	343.62
791.603	294.47
791.997	240.64
792.39	367.03
792.783	357.66
793.176	313.19
793.569	341.28
793.962	331.92
794.355	278.08
794.748	315.53
795.141	336.6
795.534	313.19
795.927	355.32
796.319	285.11
796.712	308.51
797.105	324.9
797.497	228.93
797.89	268.72
798.282	285.11
798.674	268.72
799.067	327.24
799.459	275.74
799.851	341.28
800.243	294.47
800.635	322.56
801.027	343.62
801.419	378.73
801.811	317.87
802.203	285.11
802.594	294.47
802.986	299.15
803.378	327.24
803.769	362.34
804.161	261.7
804.552	341.28
804.944	343.62
805.335	324.9
805.726	322.56
806.118	310.85
806.509	313.19
806.9	271.06
807.291	383.41
807.682	257.02
808.073	282.77
808.464	308.51
808.855	306.17
809.245	367.03
809.636	317.87
810.027	235.96
810.417	268.72
810.808	355.32
811.198	320.21
811.589	348.3
811.979	287.45
812.369	336.6
812.759	301.49
813.15	250
813.54	292.13
813.93	257.02
814.32	282.77
814.71	343.62
815.1	364.68
815.489	315.53
815.879	374.05
816.269	329.58
816.658	336.6
817.048	254.68
817.438	271.06
817.827	310.85
818.216	338.94
818.606	324.9
818.995	278.08
819.384	329.58
819.773	292.13
820.163	343.62
820.552	350.64
820.941	308.51
821.33	301.49
821.718	301.49
822.107	345.96
822.496	303.83
822.885	306.17
823.273	315.53
823.662	334.26
824.05	259.36
824.439	331.92
824.827	299.15
825.216	266.38
825.604	299.15
825.992	336.6
826.38	242.98
826.768	292.13
827.156	303.83
827.544	268.72
827.932	338.94
828.32	371.71
828.708	207.87
829.096	331.92
829.483	299.15
829.871	306.17
830.259	275.74
830.646	338.94
831.034	322.56
831.421	296.81
831.808	294.47
832.196	374.05
832.583	320.21
832.97	205.53
833.357	266.38
833.744	336.6
834.131	296.81
834.518	320.21
834.905	296.81
835.292	280.43
835.678	296.81
836.065	331.92
836.452	329.58
836.838	336.6
837.225	296.81
837.611	313.19
837.998	360
838.384	352.98
838.77	264.04
839.157	336.6
839.543	280.43
839.929	336.6
840.315	341.28
840.701	278.08
841.087	315.53
841.473	296.81
841.858	278.08
842.244	317.87
842.63	360
843.015	266.38
843.401	594.06
843.787	350.64
844.172	343.62
844.557	299.15
844.943	308.51
845.328	294.47
845.713	252.34
846.098	285.11
846.483	371.71
846.868	338.94
847.253	360
847.638	334.26
848.023	313.19
848.408	308.51
848.793	324.9
849.177	331.92
849.562	303.83
849.947	364.68
850.331	376.39
850.715	285.11
851.1	327.24
851.484	280.43
851.868	278.08
852.253	282.77
852.637	308.51
853.021	278.08
853.405	371.71
853.789	308.51
854.173	292.13
854.557	343.62
854.94	280.43
855.324	345.96
855.708	282.77
856.091	338.94
856.475	341.28
856.858	324.9
857.242	320.21
857.625	329.58
858.009	315.53
858.392	303.83
858.775	331.92
859.158	301.49
859.541	329.58
859.924	317.87
860.307	336.6
860.69	336.6
861.073	320.21
861.456	301.49
861.838	315.53
862.221	348.3
862.604	315.53
862.986	301.49
863.369	329.58
863.751	308.51
864.133	306.17
864.516	327.24
864.898	296.81
865.28	324.9
865.662	348.3
866.044	285.11
866.426	310.85
866.808	369.37
867.19	388.09
867.572	268.72
867.954	331.92
868.336	371.71
868.717	252.34
869.099	355.32
869.48	374.05
869.862	289.79
870.243	266.38
870.625	282.77
871.006	306.17
871.387	296.81
871.768	348.3
872.149	266.38
872.53	306.17
872.911	280.43
873.292	341.28
873.673	273.4
874.054	299.15
874.435	242.98
874.815	362.34
875.196	275.74
875.577	292.13
875.957	334.26
876.338	338.94
876.718	289.79
877.098	266.38
877.479	352.98
877.859	313.19
878.239	310.85
878.619	371.71
878.999	364.68
879.379	331.92
879.759	299.15
880.139	338.94
880.519	345.96
880.898	301.49
881.278	280.43
881.658	282.77
882.037	287.45
882.417	357.66
882.796	259.36
883.176	324.9
883.555	315.53
883.934	308.51
884.313	282.77
884.693	313.19
885.072	345.96
885.451	364.68
885.83	315.53
886.209	315.53
886.587	322.56
886.966	329.58
887.345	212.55
887.724	275.74
888.102	388.09
888.481	271.06
888.859	287.45
889.238	317.87
889.616	271.06
889.994	364.68
890.373	296.81
890.751	345.96
891.129	315.53
891.507	292.13
891.885	324.9
892.263	313.19
892.641	259.36
893.019	252.34
893.396	301.49
893.774	336.6
894.152	289.79
894.529	313.19
894.907	287.45
895.284	278.08
895.662	264.04
896.039	329.58
896.416	294.47
896.794	350.64
897.171	317.87
897.548	268.72
897.925	367.03
898.302	285.11
898.679	313.19
899.056	329.58
899.433	303.83
899.809	296.81
900.186	313.19
900.563	336.6
900.939	306.17
901.316	331.92
901.692	313.19
902.069	285.11
902.445	310.85
902.821	294.47
903.197	331.92
903.574	350.64
903.95	275.74
904.326	296.81
904.702	327.24
905.078	322.56
905.454	364.68
905.829	355.32
906.205	331.92
906.581	287.45
906.956	327.24
907.332	329.58
907.707	292.13
908.083	317.87
908.458	285.11
908.833	352.98
909.209	329.58
909.584	320.21
909.959	250
910.334	289.79
910.709	331.92
911.084	245.32
911.459	320.21
911.834	331.92
912.209	235.96
912.583	299.15
912.958	334.26
913.333	320.21
913.707	322.56
914.082	357.66
914.456	254.68
914.83	228.93
915.205	273.4
915.579	303.83
915.953	296.81
916.327	264.04
916.701	303.83
917.075	278.08
917.449	289.79
917.823	266.38
918.197	329.58
918.571	299.15
918.944	341.28
919.318	343.62
919.692	280.43
920.065	292.13
920.438	292.13
920.812	308.51
921.185	336.6
921.558	310.85
921.932	352.98
922.305	268.72
922.678	367.03
923.051	329.58
923.424	320.21
923.797	322.56
924.17	308.51
924.542	367.03
924.915	264.04
925.288	310.85
925.661	289.79
926.033	329.58
926.406	324.9
926.778	367.03
927.15	320.21
927.523	315.53
927.895	310.85
928.267	247.66
928.639	315.53
929.011	320.21
929.383	289.79
929.755	264.04
930.127	331.92
930.499	238.3
930.871	264.04
931.242	306.17
931.614	240.64
931.986	303.83
932.357	336.6
932.729	310.85
933.1	331.92
933.471	336.6
933.843	327.24
934.214	292.13
934.585	334.26
934.956	289.79
935.327	264.04
935.698	329.58
936.069	348.3
936.44	294.47
936.811	273.4
937.182	329.58
937.552	381.07
937.923	343.62
938.293	275.74
938.664	278.08
939.034	376.39
939.405	299.15
939.775	233.61
940.145	331.92
940.516	341.28
940.886	324.9
941.256	264.04
941.626	310.85
941.996	280.43
942.366	313.19
942.735	350.64
943.105	310.85
943.475	310.85
943.845	287.45
944.214	355.32
944.584	313.19
944.953	245.32
945.323	320.21
945.692	317.87
946.061	240.64
946.43	266.38
946.8	320.21
947.169	343.62
947.538	240.64
947.907	228.93
948.276	369.37
948.645	306.17
949.013	322.56
949.382	303.83
949.751	303.83
950.119	285.11
950.488	350.64
950.857	294.47
951.225	345.96
951.593	322.56
951.962	280.43
952.33	280.43
952.698	266.38
953.066	278.08
953.434	289.79
953.802	306.17
954.17	268.72
954.538	378.73
954.906	317.87
955.274	338.94
955.642	261.7
956.009	313.19
956.377	336.6
956.744	357.66
957.112	310.85
957.479	292.13
957.847	308.51
958.214	301.49
958.581	320.21
958.948	357.66
959.315	343.62
959.683	348.3
960.05	287.45
960.416	301.49
960.783	310.85
961.15	285.11
961.517	292.13
961.884	345.96
962.25	329.58
962.617	259.36
962.983	285.11
963.35	278.08
963.716	343.62
964.082	343.62
964.449	317.87
964.815	317.87
965.181	331.92
965.547	308.51
965.913	317.87
966.279	367.03
966.645	329.58
967.011	355.32
967.377	287.45
967.742	357.66
968.108	324.9
968.474	343.62
968.839	338.94
969.205	364.68
969.57	329.58
969.935	280.43
970.301	322.56
970.666	296.81
971.031	306.17
971.396	315.53
971.761	292.13
972.126	289.79
972.491	285.11
972.856	322.56
973.221	355.32
973.586	264.04
973.95	292.13
974.315	294.47
974.679	364.68
975.044	292.13
975.408	334.26
975.773	320.21
976.137	331.92
976.501	348.3
976.866	273.4
977.23	341.28
977.594	315.53
977.958	280.43
978.322	315.53
978.686	324.9
979.049	369.37
979.413	280.43
979.777	343.62
980.141	257.02
980.504	317.87
980.868	378.73
981.231	282.77
981.595	285.11
981.958	303.83
982.321	306.17
982.684	327.24
983.048	301.49
983.411	299.15
983.774	336.6
984.137	303.83
984.5	278.08
984.862	329.58
985.225	310.85
985.588	315.53
985.951	355.32
986.313	327.24
986.676	301.49
987.038	324.9
987.401	285.11
987.763	292.13
988.125	329.58
988.488	357.66
988.85	289.79
989.212	275.74
989.574	324.9
989.936	273.4
990.298	315.53
990.66	352.98
991.022	322.56
991.383	331.92
991.745	292.13
992.107	303.83
992.468	322.56
992.83	261.7
993.191	322.56
993.553	292.13
993.914	280.43
994.275	364.68
994.637	315.53
994.998	322.56
995.359	287.45
995.72	376.39
996.081	306.17
996.442	294.47
996.803	289.79
997.163	294.47
997.524	278.08
997.885	392.77
998.245	327.24
998.606	338.94
998.966	294.47
999.327	317.87
999.687	240.64
1000.047	310.85
1000.408	292.13
1000.768	261.7
1001.128	367.03
1001.488	322.56
1001.848	301.49
1002.208	296.81
1002.568	352.98
1002.927	315.53
1003.287	313.19
1003.647	324.9
1004.007	364.68
1004.366	374.05
1004.726	280.43
1005.085	299.15
1005.444	233.61
1005.804	292.13
1006.163	250
1006.522	306.17
1006.881	315.53
1007.24	310.85
1007.599	315.53
1007.958	322.56
1008.317	317.87
1008.676	331.92
1009.035	413.84
1009.393	378.73
1009.752	289.79
1010.111	315.53
1010.469	364.68
1010.828	250
1011.186	327.24
1011.544	292.13
1011.903	360
1012.261	324.9
1012.619	285.11
1012.977	329.58
1013.335	245.32
1013.693	308.51
1014.051	285.11
1014.409	266.38
1014.767	231.27
1015.124	390.43
1015.482	282.77
1015.84	336.6
1016.197	271.06
1016.555	364.68
1016.912	350.64
1017.269	287.45
1017.627	362.34
1017.984	324.9
1018.341	278.08
1018.698	322.56
1019.055	341.28
1019.412	289.79
1019.769	355.32
1020.126	313.19
1020.483	341.28
1020.84	350.64
1021.196	324.9
1021.553	381.07
1021.909	285.11
1022.266	350.64
1022.622	313.19
1022.979	308.51
1023.335	322.56
1023.691	341.28
1024.047	360
1024.404	261.7
1024.76	296.81
1025.116	247.66
1025.472	285.11
1025.827	289.79
1026.183	301.49
1026.539	289.79
1026.895	299.15
1027.25	313.19
1027.606	287.45
1027.961	367.03
1028.317	278.08
1028.672	324.9
1029.028	299.15
1029.383	280.43
1029.738	273.4
1030.093	308.51
1030.448	261.7
1030.803	287.45
1031.158	301.49
1031.513	357.66
1031.868	324.9
1032.223	268.72
1032.577	317.87
1032.932	282.77
1033.287	343.62
1033.641	313.19
1033.996	313.19
1034.35	240.64
1034.704	292.13
1035.059	275.74
1035.413	285.11
1035.767	285.11
1036.121	285.11
