Data from Al_FLMS009871__801__15-24-56-107.txt Node

Date: Fri Mar 08 15:24:56 CST 2024
User: pe5414po
Spectrometer: FLMS00987
Trigger mode: 0
Integration Time (sec): 1.000000E-1
Scans to average: 1
Electric dark correction enabled: true
Nonlinearity correction enabled: false
Boxcar width: 0
XAxis mode: Wavelengths
Number of Pixels in Spectrum: 2048
>>>>>Begin Spectral Data<<<<<
188.938	-106.79
189.409	-106.79
189.879	-106.79
190.349	-162.96
190.819	-120.83
191.29	-102.11
191.76	-130.19
192.23	-99.77
192.7	-88.06
193.17	-76.36
193.64	-62.32
194.109	17.26
194.579	-17.85
195.049	5.56
195.519	-10.82
195.988	61.73
196.458	50.03
196.927	96.84
197.397	108.54
197.866	138.97
198.336	108.54
198.805	127.27
199.274	127.27
199.744	174.08
200.213	167.06
200.682	145.99
201.151	244.29
201.62	239.61
202.089	216.21
202.558	223.23
203.027	253.66
203.495	246.63
203.964	239.61
204.433	279.4
204.902	293.44
205.37	274.72
205.839	239.61
206.307	366
206.776	330.89
207.244	272.38
207.712	286.42
208.181	263.02
208.649	274.72
209.117	258.34
209.585	298.13
210.053	295.79
210.521	307.49
210.989	267.7
211.457	225.57
211.925	270.04
212.393	281.74
212.861	237.27
213.328	291.1
213.796	223.23
214.264	316.85
214.731	312.17
215.199	305.15
215.666	256
216.133	279.4
216.601	251.32
217.068	342.6
217.535	319.19
218.003	234.93
218.47	223.23
218.937	298.13
219.404	267.7
219.871	199.82
220.338	265.36
220.805	288.76
221.271	288.76
221.738	197.48
222.205	230.25
222.671	263.02
223.138	241.95
223.605	265.36
224.071	256
224.538	244.29
225.004	241.95
225.47	241.95
225.937	244.29
226.403	300.47
226.869	251.32
227.335	256
227.801	349.62
228.267	237.27
228.733	241.95
229.199	284.08
229.665	234.93
230.131	263.02
230.597	216.21
231.062	251.32
231.528	234.93
231.994	213.87
232.459	251.32
232.925	256
233.39	256
233.856	274.72
234.321	241.95
234.786	227.91
235.252	263.02
235.717	281.74
236.182	230.25
236.647	284.08
237.112	211.53
237.577	270.04
238.042	270.04
238.507	281.74
238.972	281.74
239.436	248.97
239.901	298.13
240.366	265.36
240.83	185.78
241.295	302.81
241.76	220.89
242.224	274.72
242.688	220.89
243.153	288.76
243.617	216.21
244.081	234.93
244.545	263.02
245.01	248.97
245.474	241.95
245.938	330.89
246.402	199.82
246.866	279.4
247.33	291.1
247.793	288.76
248.257	263.02
248.721	253.66
249.185	274.72
249.648	195.14
250.112	246.63
250.575	251.32
251.039	298.13
251.502	244.29
251.965	246.63
252.429	300.47
252.892	284.08
253.355	298.13
253.818	298.13
254.281	244.29
254.744	302.81
255.207	244.29
255.67	256
256.133	260.68
256.596	265.36
257.059	248.97
257.522	279.4
257.984	337.91
258.447	284.08
258.909	230.25
259.372	309.83
259.834	284.08
260.297	316.85
260.759	300.47
261.221	267.7
261.684	232.59
262.146	319.19
262.608	265.36
263.07	288.76
263.532	263.02
263.994	284.08
264.456	288.76
264.918	319.19
265.38	209.19
265.842	251.32
266.303	263.02
266.765	288.76
267.227	237.27
267.688	323.87
268.15	307.49
268.611	284.08
269.072	213.87
269.534	277.06
269.995	248.97
270.456	270.04
270.918	230.25
271.379	302.81
271.84	305.15
272.301	314.51
272.762	265.36
273.223	305.15
273.684	305.15
274.144	267.7
274.605	202.16
275.066	258.34
275.527	314.51
275.987	286.42
276.448	239.61
276.908	263.02
277.369	216.21
277.829	263.02
278.289	220.89
278.75	277.06
279.21	223.23
279.67	232.59
280.13	293.44
280.59	314.51
281.05	295.79
281.51	293.44
281.97	326.21
282.43	305.15
282.89	267.7
283.35	314.51
283.809	258.34
284.269	274.72
284.729	248.97
285.188	286.42
285.648	361.32
286.107	220.89
286.567	314.51
287.026	281.74
287.485	244.29
287.944	291.1
288.404	281.74
288.863	234.93
289.322	284.08
289.781	260.68
290.24	274.72
290.699	241.95
291.158	335.57
291.616	267.7
292.075	307.49
292.534	295.79
292.992	265.36
293.451	298.13
293.91	398.77
294.368	256
294.827	248.97
295.285	211.53
295.743	302.81
296.202	230.25
296.66	211.53
297.118	291.1
297.576	337.91
298.034	272.38
298.492	239.61
298.95	323.87
299.408	307.49
299.866	265.36
300.324	344.94
300.781	291.1
301.239	342.6
301.697	246.63
302.154	239.61
302.612	326.21
303.069	340.26
303.527	305.15
303.984	370.68
304.441	314.51
304.899	326.21
305.356	305.15
305.813	277.06
306.27	239.61
306.727	277.06
307.184	260.68
307.641	272.38
308.098	319.19
308.555	309.83
309.012	309.83
309.468	274.72
309.925	302.81
310.382	270.04
310.838	321.53
311.295	246.63
311.751	281.74
312.208	272.38
312.664	223.23
313.12	286.42
313.577	230.25
314.033	260.68
314.489	227.91
314.945	298.13
315.401	370.68
315.857	323.87
316.313	335.57
316.769	286.42
317.225	251.32
317.681	309.83
318.136	253.66
318.592	274.72
319.048	286.42
319.503	298.13
319.959	335.57
320.414	321.53
320.869	314.51
321.325	305.15
321.78	274.72
322.235	270.04
322.691	263.02
323.146	244.29
323.601	337.91
324.056	398.77
324.511	274.72
324.966	316.85
325.421	326.21
325.875	284.08
326.33	286.42
326.785	305.15
327.24	316.85
327.694	312.17
328.149	291.1
328.603	263.02
329.058	272.38
329.512	293.44
329.966	319.19
330.421	321.53
330.875	279.4
331.329	241.95
331.783	258.34
332.237	298.13
332.691	309.83
333.145	241.95
333.599	274.72
334.053	300.47
334.507	270.04
334.96	312.17
335.414	270.04
335.868	258.34
336.321	288.76
336.775	232.59
337.228	309.83
337.682	218.55
338.135	300.47
338.588	284.08
339.042	335.57
339.495	307.49
339.948	361.32
340.401	316.85
340.854	309.83
341.307	256
341.76	302.81
342.213	286.42
342.666	284.08
343.119	279.4
343.571	309.83
344.024	305.15
344.477	305.15
344.929	295.79
345.382	312.17
345.834	288.76
346.287	309.83
346.739	230.25
347.191	300.47
347.644	319.19
348.096	209.19
348.548	270.04
349	244.29
349.452	284.08
349.904	302.81
350.356	286.42
350.808	274.72
351.26	321.53
351.711	263.02
352.163	300.47
352.615	314.51
353.066	253.66
353.518	300.47
353.969	358.98
354.421	288.76
354.872	244.29
355.324	284.08
355.775	316.85
356.226	291.1
356.677	377.7
357.128	256
357.579	305.15
358.03	293.44
358.481	293.44
358.932	267.7
359.383	295.79
359.834	263.02
360.285	347.28
360.735	248.97
361.186	314.51
361.637	328.55
362.087	344.94
362.538	256
362.988	277.06
363.438	286.42
363.889	293.44
364.339	265.36
364.789	314.51
365.239	277.06
365.689	314.51
366.139	314.51
366.589	286.42
367.039	281.74
367.489	234.93
367.939	333.23
368.389	277.06
368.839	267.7
369.288	302.81
369.738	260.68
370.187	328.55
370.637	314.51
371.086	244.29
371.536	295.79
371.985	288.76
372.434	340.26
372.884	309.83
373.333	335.57
373.782	342.6
374.231	293.44
374.68	248.97
375.129	274.72
375.578	302.81
376.027	239.61
376.475	230.25
376.924	300.47
377.373	300.47
377.822	286.42
378.27	281.74
378.719	291.1
379.167	284.08
379.616	307.49
380.064	234.93
380.512	321.53
380.961	274.72
381.409	234.93
381.857	279.4
382.305	307.49
382.753	356.64
383.201	370.68
383.649	293.44
384.097	288.76
384.545	307.49
384.992	321.53
385.44	342.6
385.888	323.87
386.335	256
386.783	251.32
387.231	272.38
387.678	286.42
388.125	202.16
388.573	314.51
389.02	312.17
389.467	302.81
389.914	314.51
390.362	323.87
390.809	300.47
391.256	248.97
391.703	253.66
392.15	337.91
392.596	248.97
393.043	344.94
393.49	291.1
393.937	293.44
394.383	298.13
394.83	305.15
395.276	288.76
395.723	288.76
396.169	342.6
396.616	344.94
397.062	234.93
397.508	293.44
397.954	232.59
398.401	263.02
398.847	330.89
399.293	284.08
399.739	314.51
400.185	358.98
400.631	279.4
401.076	239.61
401.522	300.47
401.968	333.23
402.414	323.87
402.859	293.44
403.305	314.51
403.75	265.36
404.196	351.96
404.641	300.47
405.086	337.91
405.532	333.23
405.977	220.89
406.422	277.06
406.867	246.63
407.312	302.81
407.757	361.32
408.202	277.06
408.647	295.79
409.092	272.38
409.537	309.83
409.982	305.15
410.426	263.02
410.871	361.32
411.316	279.4
411.76	335.57
412.205	314.51
412.649	288.76
413.093	239.61
413.538	293.44
413.982	340.26
414.426	281.74
414.87	288.76
415.314	314.51
415.758	291.1
416.202	319.19
416.646	340.26
417.09	227.91
417.534	314.51
417.978	368.34
418.421	284.08
418.865	328.55
419.309	263.02
419.752	305.15
420.196	286.42
420.639	263.02
421.083	279.4
421.526	302.81
421.969	314.51
422.412	286.42
422.856	326.21
423.299	330.89
423.742	328.55
424.185	291.1
424.628	347.28
425.071	293.44
425.513	286.42
425.956	358.98
426.399	321.53
426.842	335.57
427.284	309.83
427.727	323.87
428.169	314.51
428.612	291.1
429.054	344.94
429.497	330.89
429.939	272.38
430.381	333.23
430.823	270.04
431.265	312.17
431.707	300.47
432.149	354.3
432.591	328.55
433.033	293.44
433.475	291.1
433.917	246.63
434.359	316.85
434.8	232.59
435.242	319.19
435.684	307.49
436.125	305.15
436.567	232.59
437.008	279.4
437.449	330.89
437.891	241.95
438.332	248.97
438.773	260.68
439.214	340.26
439.656	342.6
440.097	326.21
440.538	291.1
440.978	316.85
441.419	328.55
441.86	202.16
442.301	288.76
442.742	316.85
443.182	312.17
443.623	298.13
444.063	244.29
444.504	293.44
444.944	288.76
445.385	295.79
445.825	298.13
446.265	349.62
446.706	277.06
447.146	302.81
447.586	267.7
448.026	326.21
448.466	337.91
448.906	356.64
449.346	351.96
449.786	305.15
450.225	204.5
450.665	270.04
451.105	284.08
451.544	384.73
451.984	342.6
452.424	274.72
452.863	340.26
453.302	380.04
453.742	284.08
454.181	267.7
454.62	286.42
455.059	328.55
455.499	263.02
455.938	300.47
456.377	267.7
456.816	337.91
457.254	256
457.693	298.13
458.132	279.4
458.571	319.19
459.01	288.76
459.448	263.02
459.887	284.08
460.325	279.4
460.764	265.36
461.202	321.53
461.641	326.21
462.079	258.34
462.517	326.21
462.955	333.23
463.393	248.97
463.832	330.89
464.27	314.51
464.708	251.32
465.145	309.83
465.583	281.74
466.021	300.47
466.459	342.6
466.897	344.94
467.334	316.85
467.772	358.98
468.209	298.13
468.647	342.6
469.084	256
469.522	307.49
469.959	370.68
470.396	298.13
470.833	370.68
471.271	286.42
471.708	302.81
472.145	291.1
472.582	335.57
473.019	342.6
473.456	366
473.892	342.6
474.329	288.76
474.766	316.85
475.202	337.91
475.639	340.26
476.076	337.91
476.512	377.7
476.949	265.36
477.385	321.53
477.821	248.97
478.258	298.13
478.694	342.6
479.13	267.7
479.566	305.15
480.002	263.02
480.438	260.68
480.874	314.51
481.31	337.91
481.746	319.19
482.181	316.85
482.617	265.36
483.053	267.7
483.488	316.85
483.924	307.49
484.36	256
484.795	291.1
485.23	197.48
485.666	312.17
486.101	298.13
486.536	323.87
486.971	316.85
487.407	293.44
487.842	300.47
488.277	284.08
488.712	286.42
489.146	241.95
489.581	300.47
490.016	373.02
490.451	361.32
490.885	342.6
491.32	293.44
491.755	354.3
492.189	335.57
492.624	319.19
493.058	286.42
493.492	300.47
493.927	256
494.361	274.72
494.795	330.89
495.229	305.15
495.663	321.53
496.097	319.19
496.531	244.29
496.965	272.38
497.399	291.1
497.833	281.74
498.266	312.17
498.7	293.44
499.134	298.13
499.567	307.49
500.001	344.94
500.434	263.02
500.868	319.19
501.301	344.94
501.734	326.21
502.168	260.68
502.601	241.95
503.034	312.17
503.467	270.04
503.9	265.36
504.333	326.21
504.766	274.72
505.199	323.87
505.632	298.13
506.064	319.19
506.497	307.49
506.93	323.87
507.362	342.6
507.795	279.4
508.227	307.49
508.66	302.81
509.092	309.83
509.524	300.47
509.956	256
510.389	330.89
510.821	323.87
511.253	321.53
511.685	274.72
512.117	286.42
512.549	319.19
512.981	277.06
513.412	309.83
513.844	281.74
514.276	356.64
514.707	340.26
515.139	295.79
515.571	260.68
516.002	298.13
516.433	288.76
516.865	300.47
517.296	323.87
517.727	316.85
518.159	293.44
518.59	265.36
519.021	265.36
519.452	351.96
519.883	279.4
520.314	291.1
520.744	305.15
521.175	351.96
521.606	342.6
522.037	288.76
522.467	265.36
522.898	234.93
523.328	230.25
523.759	337.91
524.189	316.85
524.62	328.55
525.05	284.08
525.48	263.02
525.91	260.68
526.341	349.62
526.771	307.49
527.201	342.6
527.631	316.85
528.061	274.72
528.49	253.66
528.92	302.81
529.35	244.29
529.78	326.21
530.209	286.42
530.639	307.49
531.068	291.1
531.498	326.21
531.927	340.26
532.357	263.02
532.786	279.4
533.215	279.4
533.644	284.08
534.074	272.38
534.503	298.13
534.932	321.53
535.361	246.63
535.79	351.96
536.218	293.44
536.647	326.21
537.076	263.02
537.505	319.19
537.933	291.1
538.362	291.1
538.79	307.49
539.219	302.81
539.647	284.08
540.076	256
540.504	330.89
540.932	298.13
541.36	263.02
541.788	258.34
542.217	305.15
542.645	309.83
543.073	213.87
543.5	302.81
543.928	342.6
544.356	333.23
544.784	260.68
545.211	251.32
545.639	286.42
546.067	272.38
546.494	366
546.922	307.49
547.349	330.89
547.776	295.79
548.204	321.53
548.631	307.49
549.058	298.13
549.485	197.48
549.912	305.15
550.339	272.38
550.766	307.49
551.193	265.36
551.62	288.76
552.047	267.7
552.474	307.49
552.9	377.7
553.327	319.19
553.754	288.76
554.18	300.47
554.607	279.4
555.033	305.15
555.459	349.62
555.886	302.81
556.312	326.21
556.738	288.76
557.164	281.74
557.59	300.47
558.016	309.83
558.442	307.49
558.868	335.57
559.294	344.94
559.72	330.89
560.145	330.89
560.571	349.62
560.997	312.17
561.422	270.04
561.848	291.1
562.273	309.83
562.699	206.84
563.124	314.51
563.549	335.57
563.974	340.26
564.4	373.02
564.825	335.57
565.25	309.83
565.675	344.94
566.1	337.91
566.525	363.66
566.95	293.44
567.374	265.36
567.799	302.81
568.224	274.72
568.648	218.55
569.073	347.28
569.497	300.47
569.922	225.57
570.346	267.7
570.771	281.74
571.195	251.32
571.619	326.21
572.043	312.17
572.467	300.47
572.891	302.81
573.315	335.57
573.739	344.94
574.163	342.6
574.587	232.59
575.011	305.15
575.435	321.53
575.858	256
576.282	281.74
576.705	270.04
577.129	319.19
577.552	295.79
577.976	323.87
578.399	363.66
578.822	382.39
579.245	298.13
579.669	225.57
580.092	295.79
580.515	265.36
580.938	288.76
581.361	307.49
581.784	274.72
582.206	253.66
582.629	291.1
583.052	274.72
583.474	321.53
583.897	314.51
584.32	279.4
584.742	284.08
585.165	291.1
585.587	281.74
586.009	309.83
586.431	335.57
586.854	328.55
587.276	344.94
587.698	246.63
588.12	270.04
588.542	270.04
588.964	358.98
589.386	288.76
589.807	347.28
590.229	293.44
590.651	354.3
591.073	342.6
591.494	349.62
591.916	302.81
592.337	323.87
592.759	288.76
593.18	300.47
593.601	309.83
594.022	305.15
594.444	328.55
594.865	256
595.286	307.49
595.707	312.17
596.128	333.23
596.549	293.44
596.97	347.28
597.39	302.81
597.811	351.96
598.232	295.79
598.652	286.42
599.073	302.81
599.494	267.7
599.914	286.42
600.334	178.76
600.755	286.42
601.175	244.29
601.595	305.15
602.015	300.47
602.436	223.23
602.856	403.45
603.276	298.13
603.696	295.79
604.115	382.39
604.535	279.4
604.955	307.49
605.375	237.27
605.794	272.38
606.214	279.4
606.634	265.36
607.053	284.08
607.473	309.83
607.892	312.17
608.311	330.89
608.731	333.23
609.15	351.96
609.569	354.3
609.988	286.42
610.407	244.29
610.826	328.55
611.245	281.74
611.664	358.98
612.083	319.19
612.501	256
612.92	279.4
613.339	330.89
613.757	370.68
614.176	288.76
614.594	328.55
615.013	349.62
615.431	323.87
615.85	305.15
616.268	241.95
616.686	284.08
617.104	314.51
617.522	305.15
617.94	309.83
618.358	237.27
618.776	253.66
619.194	314.51
619.612	300.47
620.03	293.44
620.447	281.74
620.865	307.49
621.282	277.06
621.7	298.13
622.117	281.74
622.535	279.4
622.952	330.89
623.369	239.61
623.787	307.49
624.204	340.26
624.621	279.4
625.038	309.83
625.455	356.64
625.872	321.53
626.289	351.96
626.706	391.75
627.123	298.13
627.539	321.53
627.956	272.38
628.373	319.19
628.789	307.49
629.206	344.94
629.622	319.19
630.038	274.72
630.455	274.72
630.871	293.44
631.287	330.89
631.703	288.76
632.12	366
632.536	300.47
632.952	220.89
633.368	314.51
633.783	298.13
634.199	302.81
634.615	298.13
635.031	319.19
635.446	347.28
635.862	265.36
636.277	337.91
636.693	340.26
637.108	293.44
637.524	340.26
637.939	291.1
638.354	330.89
638.77	295.79
639.185	281.74
639.6	309.83
640.015	270.04
640.43	258.34
640.845	300.47
641.259	344.94
641.674	373.02
642.089	307.49
642.504	272.38
642.918	265.36
643.333	312.17
643.747	288.76
644.162	293.44
644.576	279.4
644.991	263.02
645.405	305.15
645.819	344.94
646.233	286.42
646.647	279.4
647.061	326.21
647.475	323.87
647.889	340.26
648.303	333.23
648.717	288.76
649.131	298.13
649.545	319.19
649.958	239.61
650.372	305.15
650.785	288.76
651.199	274.72
651.612	256
652.026	337.91
652.439	253.66
652.852	330.89
653.266	342.6
653.679	319.19
654.092	349.62
654.505	227.91
654.918	295.79
655.331	244.29
655.744	344.94
656.156	277.06
656.569	267.7
656.982	272.38
657.394	260.68
657.807	326.21
658.22	309.83
658.632	319.19
659.044	307.49
659.457	344.94
659.869	321.53
660.281	293.44
660.693	377.7
661.106	321.53
661.518	298.13
661.93	286.42
662.342	300.47
662.754	239.61
663.165	323.87
663.577	293.44
663.989	309.83
664.401	316.85
664.812	272.38
665.224	286.42
665.635	272.38
666.047	256
666.458	316.85
666.869	279.4
667.281	277.06
667.692	302.81
668.103	380.04
668.514	246.63
668.925	288.76
669.336	291.1
669.747	253.66
670.158	305.15
670.569	272.38
670.979	274.72
671.39	307.49
671.801	307.49
672.211	277.06
672.622	288.76
673.032	281.74
673.443	307.49
673.853	354.3
674.263	253.66
674.674	312.17
675.084	335.57
675.494	316.85
675.904	293.44
676.314	330.89
676.724	253.66
677.134	326.21
677.544	302.81
677.953	319.19
678.363	375.36
678.773	335.57
679.182	223.23
679.592	286.42
680.001	251.32
680.411	270.04
680.82	302.81
681.23	321.53
681.639	305.15
682.048	330.89
682.457	288.76
682.866	267.7
683.275	295.79
683.684	225.57
684.093	380.04
684.502	349.62
684.911	295.79
685.32	375.36
685.728	293.44
686.137	300.47
686.546	314.51
686.954	305.15
687.363	237.27
687.771	300.47
688.179	293.44
688.588	281.74
688.996	361.32
689.404	323.87
689.812	293.44
690.22	319.19
690.628	279.4
691.036	323.87
691.444	319.19
691.852	370.68
692.26	293.44
692.667	340.26
693.075	314.51
693.483	274.72
693.89	281.74
694.298	291.1
694.705	267.7
695.112	337.91
695.52	263.02
695.927	349.62
696.334	288.76
696.741	253.66
697.148	246.63
697.555	335.57
697.962	356.64
698.369	302.81
698.776	270.04
699.183	253.66
699.59	298.13
699.996	293.44
700.403	295.79
700.81	288.76
701.216	293.44
701.623	232.59
702.029	314.51
702.435	314.51
702.842	251.32
703.248	309.83
703.654	265.36
704.06	267.7
704.466	277.06
704.872	265.36
705.278	302.81
705.684	248.97
706.09	286.42
706.496	323.87
706.901	267.7
707.307	295.79
707.712	286.42
708.118	295.79
708.523	347.28
708.929	375.36
709.334	263.02
709.74	305.15
710.145	305.15
710.55	279.4
710.955	307.49
711.36	246.63
711.765	286.42
712.17	337.91
712.575	368.34
712.98	784.96
713.385	263.02
713.789	267.7
714.194	284.08
714.599	342.6
715.003	284.08
715.408	387.07
715.812	305.15
716.217	258.34
716.621	267.7
717.025	286.42
717.429	309.83
717.833	309.83
718.238	337.91
718.642	328.55
719.046	253.66
719.449	284.08
719.853	241.95
720.257	274.72
720.661	251.32
721.065	256
721.468	342.6
721.872	279.4
722.275	295.79
722.679	302.81
723.082	319.19
723.485	291.1
723.889	302.81
724.292	305.15
724.695	351.96
725.098	302.81
725.501	265.36
725.904	295.79
726.307	272.38
726.71	309.83
727.113	319.19
727.516	314.51
727.918	220.89
728.321	270.04
728.724	302.81
729.126	251.32
729.529	366
729.931	291.1
730.333	340.26
730.736	267.7
731.138	293.44
731.54	330.89
731.942	293.44
732.344	356.64
732.746	370.68
733.148	263.02
733.55	319.19
733.952	314.51
734.354	256
734.756	314.51
735.157	288.76
735.559	251.32
735.96	291.1
736.362	319.19
736.763	309.83
737.165	265.36
737.566	274.72
737.967	335.57
738.368	227.91
738.77	279.4
739.171	253.66
739.572	291.1
739.973	251.32
740.374	342.6
740.774	274.72
741.175	316.85
741.576	330.89
741.977	344.94
742.377	305.15
742.778	267.7
743.178	307.49
743.579	309.83
743.979	279.4
744.379	300.47
744.78	300.47
745.18	293.44
745.58	293.44
745.98	326.21
746.38	279.4
746.78	321.53
747.18	258.34
747.58	281.74
747.98	293.44
748.38	326.21
748.779	267.7
749.179	328.55
749.578	307.49
749.978	277.06
750.377	330.89
750.777	291.1
751.176	298.13
751.575	330.89
751.975	305.15
752.374	281.74
752.773	307.49
753.172	340.26
753.571	295.79
753.97	300.47
754.369	288.76
754.768	312.17
755.166	253.66
755.565	277.06
755.964	354.3
756.362	358.98
756.761	314.51
757.159	298.13
757.558	337.91
757.956	316.85
758.354	342.6
758.753	277.06
759.151	382.39
759.549	293.44
759.947	316.85
760.345	314.51
760.743	347.28
761.141	302.81
761.539	347.28
761.936	358.98
762.334	309.83
762.732	274.72
763.129	319.19
763.527	321.53
763.924	314.51
764.322	298.13
764.719	347.28
765.117	298.13
765.514	267.7
765.911	333.23
766.308	401.11
766.705	363.66
767.102	288.76
767.499	272.38
767.896	333.23
768.293	321.53
768.69	288.76
769.086	288.76
769.483	298.13
769.88	328.55
770.276	225.57
770.673	298.13
771.069	270.04
771.466	213.87
771.862	232.59
772.258	335.57
772.654	284.08
773.05	321.53
773.447	279.4
773.843	270.04
774.239	279.4
774.634	253.66
775.03	323.87
775.426	288.76
775.822	260.68
776.218	265.36
776.613	298.13
777.009	300.47
777.404	265.36
777.8	298.13
778.195	337.91
778.59	274.72
778.986	274.72
779.381	323.87
779.776	237.27
780.171	340.26
780.566	314.51
780.961	361.32
781.356	291.1
781.751	263.02
782.146	230.25
782.54	328.55
782.935	328.55
783.33	321.53
783.724	326.21
784.119	333.23
784.513	246.63
784.908	368.34
785.302	277.06
785.696	293.44
786.09	305.15
786.485	314.51
786.879	267.7
787.273	305.15
787.667	244.29
788.061	319.19
788.454	286.42
788.848	323.87
789.242	295.79
789.636	302.81
790.029	298.13
790.423	281.74
790.816	305.15
791.21	342.6
791.603	239.61
791.997	218.55
792.39	284.08
792.783	291.1
793.176	305.15
793.569	356.64
793.962	323.87
794.355	239.61
794.748	358.98
795.141	351.96
795.534	265.36
795.927	248.97
796.319	309.83
796.712	309.83
797.105	314.51
797.497	328.55
797.89	281.74
798.282	284.08
798.674	326.21
799.067	234.93
799.459	321.53
799.851	335.57
800.243	319.19
800.635	265.36
801.027	293.44
801.419	281.74
801.811	265.36
802.203	326.21
802.594	328.55
802.986	351.96
803.378	298.13
803.769	258.34
804.161	321.53
804.552	293.44
804.944	272.38
805.335	279.4
805.726	351.96
806.118	351.96
806.509	361.32
806.9	321.53
807.291	321.53
807.682	258.34
808.073	295.79
808.464	295.79
808.855	333.23
809.245	314.51
809.636	309.83
810.027	277.06
810.417	248.97
810.808	272.38
811.198	323.87
811.589	293.44
811.979	305.15
812.369	309.83
812.759	256
813.15	234.93
813.54	263.02
813.93	328.55
814.32	349.62
814.71	403.45
815.1	270.04
815.489	349.62
815.879	293.44
816.269	258.34
816.658	312.17
817.048	274.72
817.438	277.06
817.827	277.06
818.216	244.29
818.606	286.42
818.995	305.15
819.384	314.51
819.773	230.25
820.163	377.7
820.552	244.29
820.941	272.38
821.33	295.79
821.718	319.19
822.107	286.42
822.496	344.94
822.885	354.3
823.273	305.15
823.662	284.08
824.05	267.7
824.439	326.21
824.827	307.49
825.216	323.87
825.604	314.51
825.992	323.87
826.38	340.26
826.768	316.85
827.156	342.6
827.544	258.34
827.932	263.02
828.32	342.6
828.708	284.08
829.096	300.47
829.483	244.29
829.871	227.91
830.259	258.34
830.646	300.47
831.034	298.13
831.421	265.36
831.808	314.51
832.196	253.66
832.583	344.94
832.97	270.04
833.357	328.55
833.744	295.79
834.131	344.94
834.518	354.3
834.905	358.98
835.292	344.94
835.678	351.96
836.065	284.08
836.452	293.44
836.838	211.53
837.225	302.81
837.611	295.79
837.998	281.74
838.384	286.42
838.77	337.91
839.157	333.23
839.543	337.91
839.929	330.89
840.315	291.1
840.701	358.98
841.087	309.83
841.473	288.76
841.858	323.87
842.244	307.49
842.63	305.15
843.015	256
843.401	621.12
843.787	323.87
844.172	298.13
844.557	286.42
844.943	328.55
845.328	211.53
845.713	342.6
846.098	256
846.483	309.83
846.868	321.53
847.253	309.83
847.638	337.91
848.023	300.47
848.408	241.95
848.793	291.1
849.177	251.32
849.562	316.85
849.947	284.08
850.331	293.44
850.715	358.98
851.1	307.49
851.484	274.72
851.868	347.28
852.253	333.23
852.637	319.19
853.021	293.44
853.405	319.19
853.789	344.94
854.173	277.06
854.557	344.94
854.94	253.66
855.324	330.89
855.708	363.66
856.091	361.32
856.475	260.68
856.858	284.08
857.242	277.06
857.625	330.89
858.009	305.15
858.392	326.21
858.775	366
859.158	347.28
859.541	281.74
859.924	286.42
860.307	288.76
860.69	270.04
861.073	298.13
861.456	270.04
861.838	281.74
862.221	265.36
862.604	274.72
862.986	274.72
863.369	302.81
863.751	274.72
864.133	248.97
864.516	384.73
864.898	337.91
865.28	272.38
865.662	305.15
866.044	356.64
866.426	302.81
866.808	232.59
867.19	307.49
867.572	328.55
867.954	312.17
868.336	272.38
868.717	302.81
869.099	274.72
869.48	335.57
869.862	286.42
870.243	312.17
870.625	375.36
871.006	347.28
871.387	316.85
871.768	258.34
872.149	295.79
872.53	368.34
872.911	335.57
873.292	335.57
873.673	263.02
874.054	253.66
874.435	267.7
874.815	307.49
875.196	298.13
875.577	256
875.957	326.21
876.338	291.1
876.718	340.26
877.098	326.21
877.479	314.51
877.859	368.34
878.239	274.72
878.619	323.87
878.999	284.08
879.379	291.1
879.759	319.19
880.139	309.83
880.519	356.64
880.898	347.28
881.278	298.13
881.658	251.32
882.037	279.4
882.417	265.36
882.796	260.68
883.176	321.53
883.555	284.08
883.934	293.44
884.313	248.97
884.693	293.44
885.072	267.7
885.451	314.51
885.83	300.47
886.209	267.7
886.587	319.19
886.966	314.51
887.345	333.23
887.724	326.21
888.102	328.55
888.481	288.76
888.859	333.23
889.238	295.79
889.616	330.89
889.994	330.89
890.373	293.44
890.751	281.74
891.129	286.42
891.507	281.74
891.885	277.06
892.263	366
892.641	302.81
893.019	248.97
893.396	284.08
893.774	314.51
894.152	298.13
894.529	323.87
894.907	281.74
895.284	300.47
895.662	295.79
896.039	293.44
896.416	337.91
896.794	260.68
897.171	307.49
897.548	337.91
897.925	319.19
898.302	302.81
898.679	227.91
899.056	316.85
899.433	302.81
899.809	335.57
900.186	300.47
900.563	244.29
900.939	326.21
901.316	286.42
901.692	307.49
902.069	321.53
902.445	382.39
902.821	312.17
903.197	291.1
903.574	246.63
903.95	211.53
904.326	241.95
904.702	361.32
905.078	307.49
905.454	244.29
905.829	351.96
906.205	274.72
906.581	291.1
906.956	260.68
907.332	246.63
907.707	323.87
908.083	244.29
908.458	284.08
908.833	288.76
909.209	239.61
909.584	281.74
909.959	312.17
910.334	300.47
910.709	260.68
911.084	253.66
911.459	298.13
911.834	178.76
912.209	274.72
912.583	265.36
912.958	237.27
913.333	260.68
913.707	265.36
914.082	248.97
914.456	281.74
914.83	333.23
915.205	316.85
915.579	295.79
915.953	300.47
916.327	312.17
916.701	258.34
917.075	288.76
917.449	300.47
917.823	260.68
918.197	337.91
918.571	319.19
918.944	321.53
919.318	288.76
919.692	321.53
920.065	312.17
920.438	251.32
920.812	253.66
921.185	401.11
921.558	384.73
921.932	295.79
922.305	321.53
922.678	256
923.051	312.17
923.424	270.04
923.797	272.38
924.17	309.83
924.542	253.66
924.915	277.06
925.288	265.36
925.661	307.49
926.033	316.85
926.406	340.26
926.778	333.23
927.15	309.83
927.523	209.19
927.895	288.76
928.267	239.61
928.639	305.15
929.011	363.66
929.383	309.83
929.755	227.91
930.127	291.1
930.499	309.83
930.871	204.5
931.242	284.08
931.614	291.1
931.986	298.13
932.357	298.13
932.729	293.44
933.1	291.1
933.471	335.57
933.843	284.08
934.214	335.57
934.585	295.79
934.956	232.59
935.327	349.62
935.698	314.51
936.069	344.94
936.44	300.47
936.811	312.17
937.182	267.7
937.552	263.02
937.923	218.55
938.293	330.89
938.664	314.51
939.034	319.19
939.405	307.49
939.775	277.06
940.145	333.23
940.516	328.55
940.886	326.21
941.256	293.44
941.626	295.79
941.996	305.15
942.366	246.63
942.735	326.21
943.105	309.83
943.475	272.38
943.845	361.32
944.214	314.51
944.584	307.49
944.953	358.98
945.323	279.4
945.692	258.34
946.061	286.42
946.43	265.36
946.8	281.74
947.169	354.3
947.538	300.47
947.907	277.06
948.276	375.36
948.645	330.89
949.013	288.76
949.382	274.72
949.751	281.74
950.119	279.4
950.488	314.51
950.857	335.57
951.225	412.81
951.593	241.95
951.962	270.04
952.33	328.55
952.698	293.44
953.066	321.53
953.434	307.49
953.802	270.04
954.17	265.36
954.538	319.19
954.906	291.1
955.274	288.76
955.642	260.68
956.009	272.38
956.377	293.44
956.744	270.04
957.112	363.66
957.479	251.32
957.847	232.59
958.214	305.15
958.581	237.27
958.948	340.26
959.315	284.08
959.683	316.85
960.05	277.06
960.416	314.51
960.783	244.29
961.15	347.28
961.517	284.08
961.884	347.28
962.25	267.7
962.617	256
962.983	293.44
963.35	309.83
963.716	284.08
964.082	248.97
964.449	347.28
964.815	323.87
965.181	302.81
965.547	291.1
965.913	305.15
966.279	316.85
966.645	272.38
967.011	291.1
967.377	293.44
967.742	234.93
968.108	256
968.474	312.17
968.839	293.44
969.205	253.66
969.57	302.81
969.935	267.7
970.301	300.47
970.666	277.06
971.031	241.95
971.396	291.1
971.761	305.15
972.126	293.44
972.491	258.34
972.856	284.08
973.221	284.08
973.586	248.97
973.95	286.42
974.315	291.1
974.679	323.87
975.044	234.93
975.408	216.21
975.773	202.16
976.137	344.94
976.501	361.32
976.866	307.49
977.23	298.13
977.594	305.15
977.958	302.81
978.322	295.79
978.686	284.08
979.049	279.4
979.413	305.15
979.777	342.6
980.141	281.74
980.504	366
980.868	330.89
981.231	220.89
981.595	286.42
981.958	274.72
982.321	270.04
982.684	277.06
983.048	281.74
983.411	277.06
983.774	258.34
984.137	293.44
984.5	291.1
984.862	326.21
985.225	323.87
985.588	277.06
985.951	253.66
986.313	373.02
986.676	312.17
987.038	281.74
987.401	258.34
987.763	293.44
988.125	265.36
988.488	319.19
988.85	330.89
989.212	272.38
989.574	309.83
989.936	267.7
990.298	326.21
990.66	295.79
991.022	316.85
991.383	279.4
991.745	333.23
992.107	307.49
992.468	281.74
992.83	270.04
993.191	349.62
993.553	319.19
993.914	284.08
994.275	279.4
994.637	321.53
994.998	333.23
995.359	316.85
995.72	333.23
996.081	307.49
996.442	347.28
996.803	361.32
997.163	335.57
997.524	314.51
997.885	284.08
998.245	293.44
998.606	253.66
998.966	298.13
999.327	286.42
999.687	323.87
1000.047	258.34
1000.408	321.53
1000.768	232.59
1001.128	319.19
1001.488	305.15
1001.848	328.55
1002.208	319.19
1002.568	298.13
1002.927	349.62
1003.287	323.87
1003.647	349.62
1004.007	335.57
1004.366	293.44
1004.726	258.34
1005.085	286.42
1005.444	300.47
1005.804	293.44
1006.163	272.38
1006.522	225.57
1006.881	328.55
1007.24	330.89
1007.599	281.74
1007.958	316.85
1008.317	330.89
1008.676	307.49
1009.035	309.83
1009.393	302.81
1009.752	340.26
1010.111	286.42
1010.469	288.76
1010.828	251.32
1011.186	272.38
1011.544	309.83
1011.903	253.66
1012.261	293.44
1012.619	321.53
1012.977	344.94
1013.335	288.76
1013.693	284.08
1014.051	309.83
1014.409	342.6
1014.767	270.04
1015.124	279.4
1015.482	295.79
1015.84	340.26
1016.197	305.15
1016.555	302.81
1016.912	358.98
1017.269	351.96
1017.627	347.28
1017.984	300.47
1018.341	366
1018.698	272.38
1019.055	309.83
1019.412	321.53
1019.769	256
1020.126	288.76
1020.483	279.4
1020.84	265.36
1021.196	281.74
1021.553	239.61
1021.909	284.08
1022.266	279.4
1022.622	347.28
1022.979	321.53
1023.335	333.23
1023.691	300.47
1024.047	344.94
1024.404	302.81
1024.76	220.89
1025.116	239.61
1025.472	326.21
1025.827	288.76
1026.183	291.1
1026.539	314.51
1026.895	333.23
1027.25	260.68
1027.606	288.76
1027.961	349.62
1028.317	281.74
1028.672	305.15
1029.028	312.17
1029.383	279.4
1029.738	258.34
1030.093	358.98
1030.448	263.02
1030.803	295.79
1031.158	251.32
1031.513	295.79
1031.868	300.47
1032.223	246.63
1032.577	281.74
1032.932	298.13
1033.287	328.55
1033.641	316.85
1033.996	281.74
1034.35	335.57
1034.704	298.13
1035.059	312.17
1035.413	335.57
1035.767	335.57
1036.121	335.57
