Data from Al_FLMS009871__815__15-24-57-508.txt Node

Date: Fri Mar 08 15:24:57 CST 2024
User: pe5414po
Spectrometer: FLMS00987
Trigger mode: 0
Integration Time (sec): 1.000000E-1
Scans to average: 1
Electric dark correction enabled: true
Nonlinearity correction enabled: false
Boxcar width: 0
XAxis mode: Wavelengths
Number of Pixels in Spectrum: 2048
>>>>>Begin Spectral Data<<<<<
188.938	-154.04
189.409	-154.04
189.879	-154.04
190.349	-165.74
190.819	-90.84
191.29	-100.2
191.76	-121.27
192.23	-132.97
192.7	-123.61
193.17	-44.03
193.64	-34.67
194.109	0.44
194.579	-27.65
195.049	-37.01
195.519	49.59
195.988	87.04
196.458	75.34
196.927	65.97
197.397	80.02
197.866	119.81
198.336	143.21
198.805	136.19
199.274	131.51
199.744	152.57
200.213	215.77
200.682	185.34
201.151	180.66
201.62	243.85
202.089	218.11
202.558	201.72
203.027	201.72
203.495	236.83
203.964	211.09
204.433	278.96
204.902	264.92
205.37	255.56
205.839	264.92
206.307	274.28
206.776	281.3
207.244	330.45
207.712	278.96
208.181	269.6
208.649	227.47
209.117	215.77
209.585	297.69
210.053	300.03
210.521	220.45
210.989	241.51
211.457	253.22
211.925	234.49
212.393	267.26
212.861	288.32
213.328	239.17
213.796	225.13
214.264	215.77
214.731	264.92
215.199	300.03
215.666	297.69
216.133	304.71
216.601	290.67
217.068	246.2
217.535	243.85
218.003	229.81
218.47	353.86
218.937	187.68
219.404	222.79
219.871	225.13
220.338	246.2
220.805	173.64
221.271	225.13
221.738	206.41
222.205	220.45
222.671	283.64
223.138	250.88
223.605	211.09
224.071	267.26
224.538	232.15
225.004	222.79
225.47	318.75
225.937	260.24
226.403	241.51
226.869	253.22
227.335	154.91
227.801	239.17
228.267	314.07
228.733	239.17
229.199	290.67
229.665	171.3
230.131	232.15
230.597	227.47
231.062	218.11
231.528	215.77
231.994	227.47
232.459	225.13
232.925	311.73
233.39	232.15
233.856	300.03
234.321	278.96
234.786	253.22
235.252	274.28
235.717	285.98
236.182	281.3
236.647	225.13
237.112	234.49
237.577	227.47
238.042	274.28
238.507	220.45
238.972	215.77
239.436	239.17
239.901	278.96
240.366	321.09
240.83	264.92
241.295	271.94
241.76	260.24
242.224	281.3
242.688	236.83
243.153	218.11
243.617	211.09
244.081	243.85
244.545	229.81
245.01	260.24
245.474	274.28
245.938	311.73
246.402	234.49
246.866	199.38
247.33	220.45
247.793	255.56
248.257	255.56
248.721	257.9
249.185	236.83
249.648	269.6
250.112	199.38
250.575	293.01
251.039	269.6
251.502	250.88
251.965	304.71
252.429	236.83
252.892	293.01
253.355	295.35
253.818	276.62
254.281	255.56
254.744	260.24
255.207	321.09
255.67	227.47
256.133	307.05
256.596	204.07
257.059	262.58
257.522	278.96
257.984	208.75
258.447	309.39
258.909	309.39
259.372	271.94
259.834	229.81
260.297	278.96
260.759	281.3
261.221	271.94
261.684	248.54
262.146	260.24
262.608	201.72
263.07	229.81
263.532	290.67
263.994	260.24
264.456	234.49
264.918	264.92
265.38	297.69
265.842	253.22
266.303	253.22
266.765	239.17
267.227	293.01
267.688	271.94
268.15	248.54
268.611	234.49
269.072	241.51
269.534	274.28
269.995	248.54
270.456	297.69
270.918	271.94
271.379	239.17
271.84	246.2
272.301	204.07
272.762	285.98
273.223	262.58
273.684	269.6
274.144	321.09
274.605	173.64
275.066	227.47
275.527	243.85
275.987	328.11
276.448	236.83
276.908	321.09
277.369	293.01
277.829	290.67
278.289	309.39
278.75	293.01
279.21	269.6
279.67	222.79
280.13	314.07
280.59	168.96
281.05	246.2
281.51	215.77
281.97	211.09
282.43	260.24
282.89	290.67
283.35	255.56
283.809	253.22
284.269	269.6
284.729	332.79
285.188	248.54
285.648	311.73
286.107	267.26
286.567	262.58
287.026	293.01
287.485	246.2
287.944	283.64
288.404	264.92
288.863	234.49
289.322	278.96
289.781	278.96
290.24	391.31
290.699	260.24
291.158	285.98
291.616	304.71
292.075	257.9
292.534	229.81
292.992	309.39
293.451	344.5
293.91	269.6
294.368	335.14
294.827	260.24
295.285	304.71
295.743	257.9
296.202	300.03
296.66	285.98
297.118	309.39
297.576	307.05
298.034	311.73
298.492	253.22
298.95	311.73
299.408	314.07
299.866	332.79
300.324	278.96
300.781	290.67
301.239	283.64
301.697	302.37
302.154	255.56
302.612	243.85
303.069	220.45
303.527	283.64
303.984	302.37
304.441	307.05
304.899	337.48
305.356	358.54
305.813	311.73
306.27	288.32
306.727	234.49
307.184	332.79
307.641	288.32
308.098	316.41
308.555	281.3
309.012	257.9
309.468	325.77
309.925	285.98
310.382	267.26
310.838	323.43
311.295	269.6
311.751	285.98
312.208	293.01
312.664	283.64
313.12	316.41
313.577	328.11
314.033	321.09
314.489	283.64
314.945	246.2
315.401	328.11
315.857	285.98
316.313	316.41
316.769	283.64
317.225	269.6
317.681	346.84
318.136	297.69
318.592	304.71
319.048	283.64
319.503	215.77
319.959	276.62
320.414	290.67
320.869	264.92
321.325	236.83
321.78	262.58
322.235	297.69
322.691	276.62
323.146	302.37
323.601	302.37
324.056	262.58
324.511	220.45
324.966	283.64
325.421	264.92
325.875	335.14
326.33	323.43
326.785	283.64
327.24	293.01
327.694	241.51
328.149	314.07
328.603	227.47
329.058	274.28
329.512	288.32
329.966	253.22
330.421	236.83
330.875	293.01
331.329	260.24
331.783	225.13
332.237	332.79
332.691	278.96
333.145	321.09
333.599	239.17
334.053	239.17
334.507	232.15
334.96	300.03
335.414	302.37
335.868	311.73
336.321	288.32
336.775	309.39
337.228	257.9
337.682	246.2
338.135	344.5
338.588	337.48
339.042	304.71
339.495	283.64
339.948	264.92
340.401	215.77
340.854	342.16
341.307	307.05
341.76	311.73
342.213	335.14
342.666	243.85
343.119	236.83
343.571	365.56
344.024	302.37
344.477	295.35
344.929	304.71
345.382	297.69
345.834	257.9
346.287	307.05
346.739	236.83
347.191	250.88
347.644	257.9
348.096	269.6
348.548	295.35
349	288.32
349.452	295.35
349.904	377.27
350.356	257.9
350.808	269.6
351.26	267.26
351.711	293.01
352.163	283.64
352.615	297.69
353.066	309.39
353.518	297.69
353.969	302.37
354.421	278.96
354.872	295.35
355.324	295.35
355.775	318.75
356.226	236.83
356.677	295.35
357.128	302.37
357.579	283.64
358.03	314.07
358.481	227.47
358.932	293.01
359.383	330.45
359.834	325.77
360.285	264.92
360.735	283.64
361.186	269.6
361.637	278.96
362.087	248.54
362.538	302.37
362.988	358.54
363.438	370.24
363.889	323.43
364.339	288.32
364.789	311.73
365.239	353.86
365.689	363.22
366.139	353.86
366.589	318.75
367.039	283.64
367.489	271.94
367.939	215.77
368.389	290.67
368.839	253.22
369.288	269.6
369.738	295.35
370.187	309.39
370.637	318.75
371.086	300.03
371.536	295.35
371.985	307.05
372.434	248.54
372.884	314.07
373.333	309.39
373.782	269.6
374.231	276.62
374.68	335.14
375.129	264.92
375.578	300.03
376.027	323.43
376.475	269.6
376.924	248.54
377.373	325.77
377.822	337.48
378.27	330.45
378.719	300.03
379.167	307.05
379.616	248.54
380.064	281.3
380.512	269.6
380.961	285.98
381.409	276.62
381.857	335.14
382.305	295.35
382.753	281.3
383.201	335.14
383.649	321.09
384.097	384.29
384.545	316.41
384.992	314.07
385.44	314.07
385.888	274.28
386.335	257.9
386.783	267.26
387.231	283.64
387.678	269.6
388.125	363.22
388.573	316.41
389.02	335.14
389.467	260.24
389.914	300.03
390.362	300.03
390.809	290.67
391.256	267.26
391.703	318.75
392.15	356.2
392.596	304.71
393.043	290.67
393.49	316.41
393.937	281.3
394.383	225.13
394.83	316.41
395.276	276.62
395.723	276.62
396.169	300.03
396.616	262.58
397.062	290.67
397.508	293.01
397.954	264.92
398.401	239.17
398.847	253.22
399.293	262.58
399.739	250.88
400.185	335.14
400.631	344.5
401.076	201.72
401.522	300.03
401.968	271.94
402.414	281.3
402.859	300.03
403.305	316.41
403.75	248.54
404.196	262.58
404.641	290.67
405.086	332.79
405.532	314.07
405.977	372.58
406.422	276.62
406.867	229.81
407.312	274.28
407.757	227.47
408.202	323.43
408.647	264.92
409.092	246.2
409.537	264.92
409.982	297.69
410.426	278.96
410.871	330.45
411.316	353.86
411.76	278.96
412.205	351.52
412.649	337.48
413.093	307.05
413.538	304.71
413.982	290.67
414.426	325.77
414.87	318.75
415.314	323.43
415.758	297.69
416.202	337.48
416.646	290.67
417.09	239.17
417.534	232.15
417.978	318.75
418.421	271.94
418.865	253.22
419.309	269.6
419.752	295.35
420.196	304.71
420.639	365.56
421.083	300.03
421.526	328.11
421.969	288.32
422.412	278.96
422.856	290.67
423.299	300.03
423.742	243.85
424.185	318.75
424.628	314.07
425.071	323.43
425.513	262.58
425.956	243.85
426.399	285.98
426.842	255.56
427.284	278.96
427.727	309.39
428.169	285.98
428.612	260.24
429.054	260.24
429.497	295.35
429.939	304.71
430.381	307.05
430.823	276.62
431.265	285.98
431.707	241.51
432.149	307.05
432.591	281.3
433.033	307.05
433.475	335.14
433.917	281.3
434.359	285.98
434.8	239.17
435.242	300.03
435.684	370.24
436.125	262.58
436.567	321.09
437.008	307.05
437.449	342.16
437.891	316.41
438.332	328.11
438.773	288.32
439.214	290.67
439.656	321.09
440.097	271.94
440.538	262.58
440.978	337.48
441.419	262.58
441.86	330.45
442.301	304.71
442.742	318.75
443.182	290.67
443.623	300.03
444.063	255.56
444.504	330.45
444.944	290.67
445.385	309.39
445.825	267.26
446.265	283.64
446.706	302.37
447.146	323.43
447.586	295.35
448.026	335.14
448.466	246.2
448.906	316.41
449.346	264.92
449.786	241.51
450.225	328.11
450.665	339.82
451.105	262.58
451.544	293.01
451.984	351.52
452.424	271.94
452.863	293.01
453.302	276.62
453.742	311.73
454.181	255.56
454.62	337.48
455.059	302.37
455.499	335.14
455.938	358.54
456.377	293.01
456.816	328.11
457.254	297.69
457.693	332.79
458.132	325.77
458.571	274.28
459.01	304.71
459.448	304.71
459.887	250.88
460.325	300.03
460.764	232.15
461.202	339.82
461.641	344.5
462.079	281.3
462.517	290.67
462.955	290.67
463.393	330.45
463.832	300.03
464.27	314.07
464.708	290.67
465.145	285.98
465.583	302.37
466.021	328.11
466.459	222.79
466.897	314.07
467.334	269.6
467.772	269.6
468.209	351.52
468.647	243.85
469.084	321.09
469.522	295.35
469.959	285.98
470.396	293.01
470.833	276.62
471.271	335.14
471.708	307.05
472.145	283.64
472.582	278.96
473.019	283.64
473.456	243.85
473.892	332.79
474.329	283.64
474.766	285.98
475.202	307.05
475.639	309.39
476.076	395.99
476.512	363.22
476.949	297.69
477.385	318.75
477.821	300.03
478.258	288.32
478.694	323.43
479.13	243.85
479.566	267.26
480.002	318.75
480.438	271.94
480.874	321.09
481.31	332.79
481.746	325.77
482.181	290.67
482.617	323.43
483.053	311.73
483.488	321.09
483.924	318.75
484.36	267.26
484.795	218.11
485.23	358.54
485.666	344.5
486.101	271.94
486.536	250.88
486.971	311.73
487.407	335.14
487.842	318.75
488.277	295.35
488.712	262.58
489.146	358.54
489.581	295.35
490.016	300.03
490.451	335.14
490.885	276.62
491.32	222.79
491.755	349.18
492.189	300.03
492.624	276.62
493.058	321.09
493.492	323.43
493.927	344.5
494.361	309.39
494.795	293.01
495.229	283.64
495.663	236.83
496.097	323.43
496.531	342.16
496.965	269.6
497.399	297.69
497.833	335.14
498.266	307.05
498.7	321.09
499.134	271.94
499.567	290.67
500.001	314.07
500.434	271.94
500.868	241.51
501.301	304.71
501.734	295.35
502.168	255.56
502.601	300.03
503.034	229.81
503.467	302.37
503.9	302.37
504.333	297.69
504.766	342.16
505.199	302.37
505.632	250.88
506.064	250.88
506.497	314.07
506.93	227.47
507.362	246.2
507.795	281.3
508.227	295.35
508.66	325.77
509.092	288.32
509.524	278.96
509.956	262.58
510.389	269.6
510.821	328.11
511.253	267.26
511.685	295.35
512.117	239.17
512.549	309.39
512.981	243.85
513.412	283.64
513.844	283.64
514.276	297.69
514.707	356.2
515.139	356.2
515.571	321.09
516.002	269.6
516.433	257.9
516.865	285.98
517.296	304.71
517.727	241.51
518.159	351.52
518.59	297.69
519.021	274.28
519.452	269.6
519.883	337.48
520.314	250.88
520.744	314.07
521.175	339.82
521.606	276.62
522.037	239.17
522.467	342.16
522.898	297.69
523.328	264.92
523.759	344.5
524.189	264.92
524.62	311.73
525.05	332.79
525.48	288.32
525.91	267.26
526.341	297.69
526.771	246.2
527.201	321.09
527.631	318.75
528.061	264.92
528.49	360.88
528.92	321.09
529.35	288.32
529.78	276.62
530.209	283.64
530.639	311.73
531.068	302.37
531.498	318.75
531.927	353.86
532.357	255.56
532.786	241.51
533.215	330.45
533.644	332.79
534.074	234.49
534.503	339.82
534.932	304.71
535.361	307.05
535.79	358.54
536.218	276.62
536.647	269.6
537.076	297.69
537.505	262.58
537.933	335.14
538.362	293.01
538.79	285.98
539.219	346.84
539.647	356.2
540.076	314.07
540.504	316.41
540.932	311.73
541.36	285.98
541.788	309.39
542.217	307.05
542.645	267.26
543.073	232.15
543.5	260.24
543.928	346.84
544.356	281.3
544.784	288.32
545.211	309.39
545.639	365.56
546.067	318.75
546.494	304.71
546.922	285.98
547.349	290.67
547.776	267.26
548.204	323.43
548.631	232.15
549.058	349.18
549.485	300.03
549.912	335.14
550.339	255.56
550.766	290.67
551.193	250.88
551.62	314.07
552.047	271.94
552.474	335.14
552.9	281.3
553.327	276.62
553.754	288.32
554.18	318.75
554.607	300.03
555.033	262.58
555.459	353.86
555.886	314.07
556.312	332.79
556.738	262.58
557.164	281.3
557.59	290.67
558.016	260.24
558.442	288.32
558.868	323.43
559.294	328.11
559.72	262.58
560.145	346.84
560.571	262.58
560.997	288.32
561.422	281.3
561.848	300.03
562.273	314.07
562.699	295.35
563.124	328.11
563.549	346.84
563.974	360.88
564.4	297.69
564.825	316.41
565.25	295.35
565.675	285.98
566.1	353.86
566.525	304.71
566.95	314.07
567.374	307.05
567.799	269.6
568.224	285.98
568.648	297.69
569.073	344.5
569.497	314.07
569.922	300.03
570.346	316.41
570.771	290.67
571.195	281.3
571.619	311.73
572.043	295.35
572.467	243.85
572.891	229.81
573.315	290.67
573.739	372.58
574.163	307.05
574.587	262.58
575.011	246.2
575.435	300.03
575.858	374.92
576.282	346.84
576.705	271.94
577.129	255.56
577.552	281.3
577.976	271.94
578.399	262.58
578.822	253.22
579.245	353.86
579.669	365.56
580.092	285.98
580.515	234.49
580.938	267.26
581.361	314.07
581.784	271.94
582.206	250.88
582.629	257.9
583.052	307.05
583.474	339.82
583.897	234.49
584.32	276.62
584.742	269.6
585.165	300.03
585.587	302.37
586.009	346.84
586.431	227.47
586.854	328.11
587.276	300.03
587.698	283.64
588.12	262.58
588.542	316.41
588.964	309.39
589.386	314.07
589.807	325.77
590.229	314.07
590.651	290.67
591.073	346.84
591.494	274.28
591.916	337.48
592.337	250.88
592.759	295.35
593.18	295.35
593.601	255.56
594.022	257.9
594.444	328.11
594.865	269.6
595.286	269.6
595.707	330.45
596.128	293.01
596.549	318.75
596.97	309.39
597.39	346.84
597.811	278.96
598.232	293.01
598.652	229.81
599.073	253.22
599.494	285.98
599.914	295.35
600.334	269.6
600.755	335.14
601.175	337.48
601.595	278.96
602.015	316.41
602.436	295.35
602.856	379.61
603.276	253.22
603.696	267.26
604.115	257.9
604.535	283.64
604.955	293.01
605.375	267.26
605.794	297.69
606.214	255.56
606.634	302.37
607.053	232.15
607.473	311.73
607.892	229.81
608.311	335.14
608.731	316.41
609.15	300.03
609.569	307.05
609.988	293.01
610.407	248.54
610.826	290.67
611.245	318.75
611.664	285.98
612.083	264.92
612.501	307.05
612.92	365.56
613.339	271.94
613.757	264.92
614.176	269.6
614.594	318.75
615.013	229.81
615.431	300.03
615.85	307.05
616.268	290.67
616.686	253.22
617.104	325.77
617.522	337.48
617.94	295.35
618.358	276.62
618.776	290.67
619.194	314.07
619.612	323.43
620.03	288.32
620.447	274.28
620.865	328.11
621.282	311.73
621.7	222.79
622.117	201.72
622.535	283.64
622.952	295.35
623.369	250.88
623.787	281.3
624.204	232.15
624.621	250.88
625.038	260.24
625.455	304.71
625.872	300.03
626.289	328.11
626.706	365.56
627.123	220.45
627.539	311.73
627.956	300.03
628.373	253.22
628.789	300.03
629.206	269.6
629.622	269.6
630.038	285.98
630.455	295.35
630.871	304.71
631.287	332.79
631.703	337.48
632.12	302.37
632.536	274.28
632.952	274.28
633.368	283.64
633.783	290.67
634.199	325.77
634.615	311.73
635.031	269.6
635.446	353.86
635.862	295.35
636.277	304.71
636.693	302.37
637.108	300.03
637.524	332.79
637.939	255.56
638.354	269.6
638.77	288.32
639.185	314.07
639.6	218.11
640.015	293.01
640.43	318.75
640.845	388.97
641.259	297.69
641.674	307.05
642.089	330.45
642.504	290.67
642.918	283.64
643.333	285.98
643.747	290.67
644.162	297.69
644.576	337.48
644.991	222.79
645.405	293.01
645.819	323.43
646.233	295.35
646.647	318.75
647.061	356.2
647.475	288.32
647.889	283.64
648.303	260.24
648.717	323.43
649.131	314.07
649.545	220.45
649.958	250.88
650.372	285.98
650.785	278.96
651.199	260.24
651.612	307.05
652.026	323.43
652.439	297.69
652.852	290.67
653.266	276.62
653.679	276.62
654.092	269.6
654.505	267.26
654.918	267.26
655.331	283.64
655.744	264.92
656.156	323.43
656.569	283.64
656.982	330.45
657.394	297.69
657.807	311.73
658.22	250.88
658.632	283.64
659.044	293.01
659.457	309.39
659.869	311.73
660.281	253.22
660.693	293.01
661.106	227.47
661.518	271.94
661.93	316.41
662.342	318.75
662.754	264.92
663.165	297.69
663.577	346.84
663.989	374.92
664.401	257.9
664.812	297.69
665.224	262.58
665.635	300.03
666.047	309.39
666.458	321.09
666.869	318.75
667.281	323.43
667.692	360.88
668.103	271.94
668.514	260.24
668.925	271.94
669.336	274.28
669.747	264.92
670.158	309.39
670.569	243.85
670.979	304.71
671.39	321.09
671.801	255.56
672.211	328.11
672.622	281.3
673.032	321.09
673.443	246.2
673.853	288.32
674.263	328.11
674.674	332.79
675.084	288.32
675.494	321.09
675.904	234.49
676.314	314.07
676.724	363.22
677.134	337.48
677.544	274.28
677.953	342.16
678.363	302.37
678.773	417.05
679.182	281.3
679.592	274.28
680.001	250.88
680.411	311.73
680.82	339.82
681.23	267.26
681.639	311.73
682.048	328.11
682.457	321.09
682.866	335.14
683.275	274.28
683.684	278.96
684.093	309.39
684.502	274.28
684.911	285.98
685.32	321.09
685.728	267.26
686.137	328.11
686.546	241.51
686.954	302.37
687.363	293.01
687.771	307.05
688.179	323.43
688.588	328.11
688.996	293.01
689.404	311.73
689.812	337.48
690.22	302.37
690.628	365.56
691.036	283.64
691.444	288.32
691.852	295.35
692.26	321.09
692.667	285.98
693.075	316.41
693.483	356.2
693.89	339.82
694.298	330.45
694.705	250.88
695.112	285.98
695.52	267.26
695.927	363.22
696.334	293.01
696.741	309.39
697.148	260.24
697.555	302.37
697.962	314.07
698.369	260.24
698.776	300.03
699.183	300.03
699.59	302.37
699.996	302.37
700.403	314.07
700.81	360.88
701.216	337.48
701.623	311.73
702.029	377.27
702.435	293.01
702.842	288.32
703.248	295.35
703.654	325.77
704.06	325.77
704.466	325.77
704.872	234.49
705.278	307.05
705.684	314.07
706.09	281.3
706.496	290.67
706.901	323.43
707.307	262.58
707.712	330.45
708.118	332.79
708.523	295.35
708.929	339.82
709.334	323.43
709.74	204.07
710.145	218.11
710.55	278.96
710.955	288.32
711.36	264.92
711.765	276.62
712.17	325.77
712.575	351.52
712.98	833.67
713.385	293.01
713.789	297.69
714.194	290.67
714.599	283.64
715.003	281.3
715.408	241.51
715.812	234.49
716.217	262.58
716.621	339.82
717.025	300.03
717.429	267.26
717.833	262.58
718.238	262.58
718.642	264.92
719.046	328.11
719.449	283.64
719.853	318.75
720.257	262.58
720.661	293.01
721.065	309.39
721.468	316.41
721.872	295.35
722.275	379.61
722.679	330.45
723.082	253.22
723.485	337.48
723.889	325.77
724.292	344.5
724.695	358.54
725.098	309.39
725.501	285.98
725.904	281.3
726.307	370.24
726.71	246.2
727.113	309.39
727.516	307.05
727.918	271.94
728.321	255.56
728.724	264.92
729.126	281.3
729.529	290.67
729.931	290.67
730.333	241.51
730.736	288.32
731.138	342.16
731.54	295.35
731.942	276.62
732.344	229.81
732.746	342.16
733.148	278.96
733.55	311.73
733.952	278.96
734.354	246.2
734.756	255.56
735.157	304.71
735.559	316.41
735.96	271.94
736.362	255.56
736.763	311.73
737.165	274.28
737.566	267.26
737.967	281.3
738.368	255.56
738.77	274.28
739.171	297.69
739.572	297.69
739.973	295.35
740.374	293.01
740.774	321.09
741.175	290.67
741.576	281.3
741.977	293.01
742.377	344.5
742.778	311.73
743.178	257.9
743.579	243.85
743.979	349.18
744.379	285.98
744.78	293.01
745.18	288.32
745.58	314.07
745.98	283.64
746.38	335.14
746.78	218.11
747.18	337.48
747.58	260.24
747.98	316.41
748.38	323.43
748.779	269.6
749.179	314.07
749.578	267.26
749.978	267.26
750.377	302.37
750.777	271.94
751.176	335.14
751.575	283.64
751.975	250.88
752.374	335.14
752.773	300.03
753.172	234.49
753.571	255.56
753.97	276.62
754.369	346.84
754.768	356.2
755.166	309.39
755.565	269.6
755.964	264.92
756.362	300.03
756.761	304.71
757.159	304.71
757.558	290.67
757.956	283.64
758.354	271.94
758.753	321.09
759.151	335.14
759.549	295.35
759.947	330.45
760.345	262.58
760.743	204.07
761.141	356.2
761.539	330.45
761.936	297.69
762.334	304.71
762.732	267.26
763.129	262.58
763.527	302.37
763.924	332.79
764.322	325.77
764.719	293.01
765.117	300.03
765.514	293.01
765.911	260.24
766.308	225.13
766.705	297.69
767.102	314.07
767.499	302.37
767.896	323.43
768.293	276.62
768.69	281.3
769.086	241.51
769.483	330.45
769.88	255.56
770.276	321.09
770.673	309.39
771.069	285.98
771.466	297.69
771.862	307.05
772.258	260.24
772.654	271.94
773.05	250.88
773.447	300.03
773.843	379.61
774.239	295.35
774.634	267.26
775.03	309.39
775.426	314.07
775.822	302.37
776.218	255.56
776.613	302.37
777.009	271.94
777.404	264.92
777.8	264.92
778.195	260.24
778.59	330.45
778.986	323.43
779.381	264.92
779.776	307.05
780.171	285.98
780.566	278.96
780.961	293.01
781.356	278.96
781.751	271.94
782.146	278.96
782.54	285.98
782.935	264.92
783.33	257.9
783.724	295.35
784.119	337.48
784.513	307.05
784.908	321.09
785.302	278.96
785.696	274.28
786.09	271.94
786.485	271.94
786.879	297.69
787.273	309.39
787.667	335.14
788.061	295.35
788.454	276.62
788.848	271.94
789.242	295.35
789.636	248.54
790.029	330.45
790.423	288.32
790.816	332.79
791.21	339.82
791.603	293.01
791.997	255.56
792.39	290.67
792.783	274.28
793.176	311.73
793.569	297.69
793.962	278.96
794.355	304.71
794.748	311.73
795.141	335.14
795.534	304.71
795.927	309.39
796.319	269.6
796.712	321.09
797.105	276.62
797.497	269.6
797.89	290.67
798.282	290.67
798.674	283.64
799.067	255.56
799.459	309.39
799.851	281.3
800.243	323.43
800.635	288.32
801.027	283.64
801.419	262.58
801.811	243.85
802.203	297.69
802.594	295.35
802.986	372.58
803.378	304.71
803.769	290.67
804.161	271.94
804.552	330.45
804.944	300.03
805.335	307.05
805.726	285.98
806.118	253.22
806.509	321.09
806.9	285.98
807.291	285.98
807.682	218.11
808.073	346.84
808.464	321.09
808.855	307.05
809.245	288.32
809.636	311.73
810.027	314.07
810.417	307.05
810.808	332.79
811.198	285.98
811.589	288.32
811.979	349.18
812.369	201.72
812.759	269.6
813.15	297.69
813.54	290.67
813.93	260.24
814.32	260.24
814.71	290.67
815.1	276.62
815.489	300.03
815.879	285.98
816.269	300.03
816.658	342.16
817.048	278.96
817.438	267.26
817.827	269.6
818.216	309.39
818.606	246.2
818.995	328.11
819.384	278.96
819.773	328.11
820.163	253.22
820.552	316.41
820.941	309.39
821.33	356.2
821.718	285.98
822.107	323.43
822.496	346.84
822.885	271.94
823.273	271.94
823.662	264.92
824.05	278.96
824.439	285.98
824.827	342.16
825.216	248.54
825.604	274.28
825.992	332.79
826.38	302.37
826.768	335.14
827.156	269.6
827.544	288.32
827.932	222.79
828.32	264.92
828.708	318.75
829.096	337.48
829.483	253.22
829.871	300.03
830.259	264.92
830.646	351.52
831.034	243.85
831.421	276.62
831.808	314.07
832.196	321.09
832.583	335.14
832.97	257.9
833.357	307.05
833.744	321.09
834.131	288.32
834.518	328.11
834.905	316.41
835.292	220.45
835.678	264.92
836.065	304.71
836.452	328.11
836.838	276.62
837.225	288.32
837.611	269.6
837.998	264.92
838.384	243.85
838.77	236.83
839.157	267.26
839.543	309.39
839.929	307.05
840.315	374.92
840.701	283.64
841.087	302.37
841.473	262.58
841.858	323.43
842.244	248.54
842.63	236.83
843.015	372.58
843.401	548.12
843.787	293.01
844.172	311.73
844.557	330.45
844.943	332.79
845.328	222.79
845.713	283.64
846.098	297.69
846.483	297.69
846.868	288.32
847.253	304.71
847.638	241.51
848.023	262.58
848.408	248.54
848.793	323.43
849.177	302.37
849.562	323.43
849.947	271.94
850.331	297.69
850.715	307.05
851.1	358.54
851.484	274.28
851.868	318.75
852.253	253.22
852.637	314.07
853.021	241.51
853.405	297.69
853.789	295.35
854.173	206.41
854.557	293.01
854.94	309.39
855.324	304.71
855.708	302.37
856.091	309.39
856.475	260.24
856.858	253.22
857.242	264.92
857.625	227.47
858.009	309.39
858.392	323.43
858.775	314.07
859.158	208.75
859.541	293.01
859.924	192.36
860.307	316.41
860.69	349.18
861.073	288.32
861.456	335.14
861.838	307.05
862.221	346.84
862.604	325.77
862.986	323.43
863.369	285.98
863.751	267.26
864.133	243.85
864.516	281.3
864.898	321.09
865.28	293.01
865.662	330.45
866.044	285.98
866.426	290.67
866.808	288.32
867.19	288.32
867.572	255.56
867.954	278.96
868.336	243.85
868.717	267.26
869.099	309.39
869.48	274.28
869.862	271.94
870.243	248.54
870.625	269.6
871.006	225.13
871.387	264.92
871.768	285.98
872.149	311.73
872.53	248.54
872.911	239.17
873.292	260.24
873.673	246.2
874.054	255.56
874.435	381.95
874.815	199.38
875.196	229.81
875.577	283.64
875.957	321.09
876.338	300.03
876.718	288.32
877.098	241.51
877.479	316.41
877.859	321.09
878.239	351.52
878.619	342.16
878.999	314.07
879.379	309.39
879.759	213.43
880.139	246.2
880.519	246.2
880.898	260.24
881.278	262.58
881.658	276.62
882.037	288.32
882.417	344.5
882.796	393.65
883.176	281.3
883.555	353.86
883.934	304.71
884.313	328.11
884.693	314.07
885.072	285.98
885.451	295.35
885.83	288.32
886.209	276.62
886.587	302.37
886.966	358.54
887.345	297.69
887.724	304.71
888.102	321.09
888.481	297.69
888.859	264.92
889.238	300.03
889.616	414.71
889.994	288.32
890.373	318.75
890.751	325.77
891.129	295.35
891.507	241.51
891.885	300.03
892.263	285.98
892.641	290.67
893.019	274.28
893.396	253.22
893.774	379.61
894.152	218.11
894.529	300.03
894.907	316.41
895.284	295.35
895.662	274.28
896.039	278.96
896.416	309.39
896.794	281.3
897.171	260.24
897.548	283.64
897.925	295.35
898.302	304.71
898.679	346.84
899.056	248.54
899.433	321.09
899.809	316.41
900.186	260.24
900.563	300.03
900.939	325.77
901.316	255.56
901.692	285.98
902.069	323.43
902.445	309.39
902.821	225.13
903.197	246.2
903.574	316.41
903.95	358.54
904.326	243.85
904.702	267.26
905.078	302.37
905.454	337.48
905.829	321.09
906.205	285.98
906.581	302.37
906.956	302.37
907.332	318.75
907.707	241.51
908.083	260.24
908.458	283.64
908.833	255.56
909.209	309.39
909.584	285.98
909.959	276.62
910.334	293.01
910.709	311.73
911.084	332.79
911.459	307.05
911.834	335.14
912.209	311.73
912.583	236.83
912.958	330.45
913.333	328.11
913.707	281.3
914.082	307.05
914.456	260.24
914.83	293.01
915.205	309.39
915.579	267.26
915.953	276.62
916.327	211.09
916.701	199.38
917.075	342.16
917.449	288.32
917.823	297.69
918.197	316.41
918.571	255.56
918.944	297.69
919.318	328.11
919.692	314.07
920.065	248.54
920.438	353.86
920.812	295.35
921.185	257.9
921.558	283.64
921.932	377.27
922.305	276.62
922.678	269.6
923.051	227.47
923.424	316.41
923.797	293.01
924.17	297.69
924.542	351.52
924.915	335.14
925.288	281.3
925.661	302.37
926.033	276.62
926.406	264.92
926.778	220.45
927.15	281.3
927.523	325.77
927.895	278.96
928.267	293.01
928.639	260.24
929.011	318.75
929.383	262.58
929.755	304.71
930.127	288.32
930.499	281.3
930.871	267.26
931.242	328.11
931.614	377.27
931.986	314.07
932.357	267.26
932.729	339.82
933.1	276.62
933.471	335.14
933.843	241.51
934.214	274.28
934.585	321.09
934.956	316.41
935.327	276.62
935.698	285.98
936.069	311.73
936.44	274.28
936.811	253.22
937.182	241.51
937.552	246.2
937.923	283.64
938.293	297.69
938.664	300.03
939.034	300.03
939.405	241.51
939.775	339.82
940.145	356.2
940.516	332.79
940.886	328.11
941.256	300.03
941.626	311.73
941.996	304.71
942.366	344.5
942.735	314.07
943.105	300.03
943.475	297.69
943.845	335.14
944.214	323.43
944.584	250.88
944.953	276.62
945.323	211.09
945.692	271.94
946.061	330.45
946.43	262.58
946.8	330.45
947.169	358.54
947.538	300.03
947.907	293.01
948.276	281.3
948.645	274.28
949.013	208.75
949.382	197.04
949.751	260.24
950.119	295.35
950.488	316.41
950.857	250.88
951.225	257.9
951.593	328.11
951.962	246.2
952.33	267.26
952.698	281.3
953.066	264.92
953.434	290.67
953.802	278.96
954.17	335.14
954.538	248.54
954.906	274.28
955.274	271.94
955.642	253.22
956.009	290.67
956.377	339.82
956.744	302.37
957.112	243.85
957.479	300.03
957.847	267.26
958.214	288.32
958.581	222.79
958.948	290.67
959.315	328.11
959.683	241.51
960.05	285.98
960.416	243.85
960.783	262.58
961.15	309.39
961.517	342.16
961.884	307.05
962.25	295.35
962.617	332.79
962.983	351.52
963.35	316.41
963.716	239.17
964.082	311.73
964.449	311.73
964.815	264.92
965.181	365.56
965.547	283.64
965.913	325.77
966.279	307.05
966.645	232.15
967.011	314.07
967.377	325.77
967.742	328.11
968.108	257.9
968.474	281.3
968.839	307.05
969.205	220.45
969.57	295.35
969.935	307.05
970.301	248.54
970.666	346.84
971.031	302.37
971.396	321.09
971.761	262.58
972.126	325.77
972.491	332.79
972.856	250.88
973.221	274.28
973.586	290.67
973.95	267.26
974.315	278.96
974.679	304.71
975.044	274.28
975.408	215.77
975.773	213.43
976.137	262.58
976.501	307.05
976.866	250.88
977.23	253.22
977.594	332.79
977.958	271.94
978.322	328.11
978.686	239.17
979.049	342.16
979.413	288.32
979.777	356.2
980.141	304.71
980.504	278.96
980.868	297.69
981.231	285.98
981.595	295.35
981.958	246.2
982.321	276.62
982.684	248.54
983.048	325.77
983.411	278.96
983.774	274.28
984.137	302.37
984.5	288.32
984.862	262.58
985.225	225.13
985.588	264.92
985.951	241.51
986.313	300.03
986.676	281.3
987.038	229.81
987.401	288.32
987.763	239.17
988.125	262.58
988.488	253.22
988.85	297.69
989.212	290.67
989.574	293.01
989.936	304.71
990.298	328.11
990.66	243.85
991.022	314.07
991.383	302.37
991.745	269.6
992.107	285.98
992.468	271.94
992.83	330.45
993.191	264.92
993.553	276.62
993.914	325.77
994.275	290.67
994.637	274.28
994.998	274.28
995.359	250.88
995.72	285.98
996.081	304.71
996.442	269.6
996.803	246.2
997.163	290.67
997.524	283.64
997.885	255.56
998.245	300.03
998.606	218.11
998.966	300.03
999.327	274.28
999.687	278.96
1000.047	318.75
1000.408	264.92
1000.768	332.79
1001.128	325.77
1001.488	248.54
1001.848	285.98
1002.208	302.37
1002.568	260.24
1002.927	267.26
1003.287	297.69
1003.647	269.6
1004.007	335.14
1004.366	337.48
1004.726	297.69
1005.085	248.54
1005.444	285.98
1005.804	309.39
1006.163	234.49
1006.522	328.11
1006.881	190.02
1007.24	339.82
1007.599	285.98
1007.958	262.58
1008.317	356.2
1008.676	264.92
1009.035	278.96
1009.393	335.14
1009.752	300.03
1010.111	229.81
1010.469	246.2
1010.828	309.39
1011.186	295.35
1011.544	309.39
1011.903	293.01
1012.261	325.77
1012.619	290.67
1012.977	330.45
1013.335	285.98
1013.693	316.41
1014.051	276.62
1014.409	276.62
1014.767	274.28
1015.124	274.28
1015.482	304.71
1015.84	264.92
1016.197	227.47
1016.555	250.88
1016.912	260.24
1017.269	241.51
1017.627	311.73
1017.984	302.37
1018.341	332.79
1018.698	290.67
1019.055	290.67
1019.412	349.18
1019.769	293.01
1020.126	236.83
1020.483	328.11
1020.84	337.48
1021.196	264.92
1021.553	269.6
1021.909	278.96
1022.266	262.58
1022.622	295.35
1022.979	363.22
1023.335	384.29
1023.691	281.3
1024.047	337.48
1024.404	274.28
1024.76	295.35
1025.116	314.07
1025.472	276.62
1025.827	267.26
1026.183	293.01
1026.539	264.92
1026.895	199.38
1027.25	288.32
1027.606	227.47
1027.961	330.45
1028.317	283.64
1028.672	274.28
1029.028	262.58
1029.383	278.96
1029.738	307.05
1030.093	311.73
1030.448	358.54
1030.803	262.58
1031.158	365.56
1031.513	276.62
1031.868	288.32
1032.223	218.11
1032.577	332.79
1032.932	295.35
1033.287	260.24
1033.641	281.3
1033.996	278.96
1034.35	278.96
1034.704	307.05
1035.059	304.71
1035.413	281.3
1035.767	281.3
1036.121	281.3
