Data from Al_FLMS009871__810__15-24-57-006.txt Node

Date: Fri Mar 08 15:24:57 CST 2024
User: pe5414po
Spectrometer: FLMS00987
Trigger mode: 0
Integration Time (sec): 1.000000E-1
Scans to average: 1
Electric dark correction enabled: true
Nonlinearity correction enabled: false
Boxcar width: 0
XAxis mode: Wavelengths
Number of Pixels in Spectrum: 2048
>>>>>Begin Spectral Data<<<<<
188.938	-74.02
189.409	-74.02
189.879	-74.02
190.349	-78.7
190.819	-127.85
191.29	-27.21
191.76	-85.72
192.23	-123.17
192.7	-85.72
193.17	-74.02
193.64	-59.98
194.109	-67
194.579	-1.46
195.049	-43.59
195.519	38.33
195.988	7.9
196.458	101.52
196.927	96.84
197.397	94.5
197.866	127.27
198.336	101.52
198.805	157.69
199.274	160.03
199.744	122.59
200.213	148.33
200.682	190.46
201.151	209.19
201.62	272.38
202.089	192.8
202.558	302.81
203.027	234.93
203.495	272.38
203.964	323.87
204.433	241.95
204.902	206.84
205.37	309.83
205.839	272.38
206.307	298.13
206.776	302.81
207.244	286.42
207.712	300.47
208.181	192.8
208.649	227.91
209.117	272.38
209.585	312.17
210.053	281.74
210.521	316.85
210.989	267.7
211.457	230.25
211.925	281.74
212.393	216.21
212.861	260.68
213.328	307.49
213.796	274.72
214.264	234.93
214.731	244.29
215.199	270.04
215.666	256
216.133	244.29
216.601	234.93
217.068	220.89
217.535	256
218.003	319.19
218.47	263.02
218.937	253.66
219.404	298.13
219.871	263.02
220.338	286.42
220.805	244.29
221.271	216.21
221.738	218.55
222.205	309.83
222.671	237.27
223.138	192.8
223.605	272.38
224.071	220.89
224.538	281.74
225.004	272.38
225.47	246.63
225.937	258.34
226.403	223.23
226.869	234.93
227.335	291.1
227.801	202.16
228.267	204.5
228.733	199.82
229.199	202.16
229.665	244.29
230.131	279.4
230.597	274.72
231.062	234.93
231.528	298.13
231.994	197.48
232.459	213.87
232.925	230.25
233.39	291.1
233.856	223.23
234.321	272.38
234.786	246.63
235.252	241.95
235.717	225.57
236.182	256
236.647	300.47
237.112	239.61
237.577	265.36
238.042	248.97
238.507	337.91
238.972	239.61
239.436	270.04
239.901	206.84
240.366	237.27
240.83	263.02
241.295	279.4
241.76	204.5
242.224	267.7
242.688	216.21
243.153	277.06
243.617	279.4
244.081	232.59
244.545	349.62
245.01	211.53
245.474	270.04
245.938	270.04
246.402	298.13
246.866	309.83
247.33	227.91
247.793	223.23
248.257	284.08
248.721	274.72
249.185	300.47
249.648	258.34
250.112	270.04
250.575	206.84
251.039	291.1
251.502	328.55
251.965	293.44
252.429	237.27
252.892	253.66
253.355	258.34
253.818	286.42
254.281	309.83
254.744	291.1
255.207	342.6
255.67	316.85
256.133	265.36
256.596	239.61
257.059	328.55
257.522	302.81
257.984	270.04
258.447	314.51
258.909	270.04
259.372	272.38
259.834	263.02
260.297	284.08
260.759	232.59
261.221	265.36
261.684	263.02
262.146	267.7
262.608	277.06
263.07	241.95
263.532	300.47
263.994	300.47
264.456	241.95
264.918	246.63
265.38	204.5
265.842	160.03
266.303	267.7
266.765	251.32
267.227	272.38
267.688	326.21
268.15	258.34
268.611	274.72
269.072	302.81
269.534	309.83
269.995	284.08
270.456	321.53
270.918	263.02
271.379	258.34
271.84	220.89
272.301	267.7
272.762	263.02
273.223	291.1
273.684	274.72
274.144	274.72
274.605	288.76
275.066	286.42
275.527	253.66
275.987	309.83
276.448	281.74
276.908	316.85
277.369	307.49
277.829	295.79
278.289	323.87
278.75	351.96
279.21	293.44
279.67	265.36
280.13	307.49
280.59	288.76
281.05	288.76
281.51	272.38
281.97	328.55
282.43	330.89
282.89	246.63
283.35	265.36
283.809	319.19
284.269	286.42
284.729	337.91
285.188	300.47
285.648	267.7
286.107	291.1
286.567	246.63
287.026	197.48
287.485	291.1
287.944	293.44
288.404	305.15
288.863	333.23
289.322	244.29
289.781	291.1
290.24	286.42
290.699	256
291.158	284.08
291.616	281.74
292.075	272.38
292.534	246.63
292.992	351.96
293.451	314.51
293.91	323.87
294.368	244.29
294.827	314.51
295.285	298.13
295.743	241.95
296.202	251.32
296.66	267.7
297.118	237.27
297.576	363.66
298.034	251.32
298.492	321.53
298.95	265.36
299.408	202.16
299.866	246.63
300.324	260.68
300.781	277.06
301.239	258.34
301.697	227.91
302.154	286.42
302.612	373.02
303.069	284.08
303.527	312.17
303.984	225.57
304.441	265.36
304.899	251.32
305.356	333.23
305.813	253.66
306.27	286.42
306.727	267.7
307.184	312.17
307.641	354.3
308.098	267.7
308.555	298.13
309.012	312.17
309.468	230.25
309.925	223.23
310.382	227.91
310.838	298.13
311.295	319.19
311.751	302.81
312.208	279.4
312.664	305.15
313.12	241.95
313.577	244.29
314.033	328.55
314.489	363.66
314.945	274.72
315.401	246.63
315.857	370.68
316.313	267.7
316.769	270.04
317.225	277.06
317.681	267.7
318.136	298.13
318.592	256
319.048	284.08
319.503	298.13
319.959	260.68
320.414	270.04
320.869	286.42
321.325	263.02
321.78	326.21
322.235	241.95
322.691	312.17
323.146	237.27
323.601	309.83
324.056	321.53
324.511	270.04
324.966	314.51
325.421	277.06
325.875	351.96
326.33	347.28
326.785	330.89
327.24	307.49
327.694	279.4
328.149	279.4
328.603	291.1
329.058	234.93
329.512	354.3
329.966	321.53
330.421	293.44
330.875	305.15
331.329	263.02
331.783	288.76
332.237	361.32
332.691	333.23
333.145	349.62
333.599	309.83
334.053	354.3
334.507	368.34
334.96	293.44
335.414	309.83
335.868	342.6
336.321	293.44
336.775	291.1
337.228	370.68
337.682	375.36
338.135	358.98
338.588	319.19
339.042	328.55
339.495	279.4
339.948	258.34
340.401	370.68
340.854	295.79
341.307	286.42
341.76	209.19
342.213	298.13
342.666	321.53
343.119	274.72
343.571	321.53
344.024	295.79
344.477	316.85
344.929	286.42
345.382	272.38
345.834	281.74
346.287	251.32
346.739	344.94
347.191	344.94
347.644	323.87
348.096	295.79
348.548	274.72
349	241.95
349.452	274.72
349.904	246.63
350.356	302.81
350.808	295.79
351.26	279.4
351.711	328.55
352.163	286.42
352.615	319.19
353.066	316.85
353.518	265.36
353.969	291.1
354.421	302.81
354.872	281.74
355.324	312.17
355.775	272.38
356.226	323.87
356.677	263.02
357.128	244.29
357.579	248.97
358.03	248.97
358.481	293.44
358.932	314.51
359.383	281.74
359.834	260.68
360.285	349.62
360.735	300.47
361.186	265.36
361.637	342.6
362.087	344.94
362.538	319.19
362.988	263.02
363.438	300.47
363.889	307.49
364.339	340.26
364.789	295.79
365.239	361.32
365.689	323.87
366.139	349.62
366.589	333.23
367.039	326.21
367.489	316.85
367.939	312.17
368.389	295.79
368.839	316.85
369.288	330.89
369.738	330.89
370.187	319.19
370.637	307.49
371.086	293.44
371.536	347.28
371.985	263.02
372.434	230.25
372.884	227.91
373.333	347.28
373.782	356.64
374.231	333.23
374.68	302.81
375.129	286.42
375.578	272.38
376.027	272.38
376.475	373.02
376.924	286.42
377.373	312.17
377.822	244.29
378.27	286.42
378.719	288.76
379.167	335.57
379.616	328.55
380.064	272.38
380.512	312.17
380.961	316.85
381.409	260.68
381.857	263.02
382.305	300.47
382.753	370.68
383.201	298.13
383.649	330.89
384.097	309.83
384.545	295.79
384.992	265.36
385.44	330.89
385.888	267.7
386.335	314.51
386.783	349.62
387.231	239.61
387.678	234.93
388.125	251.32
388.573	237.27
389.02	281.74
389.467	274.72
389.914	319.19
390.362	274.72
390.809	253.66
391.256	347.28
391.703	323.87
392.15	272.38
392.596	342.6
393.043	319.19
393.49	230.25
393.937	284.08
394.383	286.42
394.83	241.95
395.276	277.06
395.723	307.49
396.169	291.1
396.616	307.49
397.062	270.04
397.508	293.44
397.954	293.44
398.401	234.93
398.847	354.3
399.293	349.62
399.739	305.15
400.185	314.51
400.631	333.23
401.076	316.85
401.522	300.47
401.968	335.57
402.414	302.81
402.859	312.17
403.305	312.17
403.75	272.38
404.196	265.36
404.641	258.34
405.086	281.74
405.532	286.42
405.977	309.83
406.422	333.23
406.867	335.57
407.312	295.79
407.757	312.17
408.202	291.1
408.647	284.08
409.092	307.49
409.537	302.81
409.982	258.34
410.426	309.83
410.871	277.06
411.316	256
411.76	305.15
412.205	302.81
412.649	295.79
413.093	256
413.538	314.51
413.982	241.95
414.426	309.83
414.87	241.95
415.314	309.83
415.758	265.36
416.202	321.53
416.646	342.6
417.09	293.44
417.534	272.38
417.978	263.02
418.421	253.66
418.865	265.36
419.309	323.87
419.752	319.19
420.196	328.55
420.639	309.83
421.083	309.83
421.526	302.81
421.969	291.1
422.412	272.38
422.856	300.47
423.299	309.83
423.742	286.42
424.185	314.51
424.628	361.32
425.071	300.47
425.513	342.6
425.956	265.36
426.399	227.91
426.842	260.68
427.284	286.42
427.727	274.72
428.169	314.51
428.612	267.7
429.054	340.26
429.497	344.94
429.939	361.32
430.381	396.43
430.823	335.57
431.265	211.53
431.707	213.87
432.149	270.04
432.591	305.15
433.033	270.04
433.475	312.17
433.917	330.89
434.359	265.36
434.8	265.36
435.242	316.85
435.684	300.47
436.125	267.7
436.567	248.97
437.008	272.38
437.449	270.04
437.891	286.42
438.332	213.87
438.773	298.13
439.214	323.87
439.656	401.11
440.097	326.21
440.538	354.3
440.978	354.3
441.419	302.81
441.86	335.57
442.301	288.76
442.742	307.49
443.182	274.72
443.623	300.47
444.063	293.44
444.504	298.13
444.944	358.98
445.385	305.15
445.825	281.74
446.265	314.51
446.706	251.32
447.146	277.06
447.586	298.13
448.026	309.83
448.466	251.32
448.906	382.39
449.346	298.13
449.786	288.76
450.225	314.51
450.665	288.76
451.105	265.36
451.544	298.13
451.984	270.04
452.424	358.98
452.863	330.89
453.302	291.1
453.742	284.08
454.181	237.27
454.62	333.23
455.059	244.29
455.499	319.19
455.938	300.47
456.377	286.42
456.816	246.63
457.254	267.7
457.693	272.38
458.132	361.32
458.571	307.49
459.01	309.83
459.448	307.49
459.887	305.15
460.325	279.4
460.764	274.72
461.202	361.32
461.641	288.76
462.079	326.21
462.517	358.98
462.955	356.64
463.393	335.57
463.832	288.76
464.27	274.72
464.708	258.34
465.145	239.61
465.583	265.36
466.021	302.81
466.459	267.7
466.897	302.81
467.334	256
467.772	244.29
468.209	333.23
468.647	307.49
469.084	342.6
469.522	314.51
469.959	347.28
470.396	209.19
470.833	270.04
471.271	260.68
471.708	302.81
472.145	263.02
472.582	234.93
473.019	288.76
473.456	293.44
473.892	351.96
474.329	258.34
474.766	314.51
475.202	307.49
475.639	300.47
476.076	288.76
476.512	270.04
476.949	307.49
477.385	302.81
477.821	309.83
478.258	284.08
478.694	321.53
479.13	335.57
479.566	281.74
480.002	281.74
480.438	220.89
480.874	300.47
481.31	307.49
481.746	328.55
482.181	244.29
482.617	340.26
483.053	361.32
483.488	330.89
483.924	277.06
484.36	309.83
484.795	305.15
485.23	302.81
485.666	286.42
486.101	298.13
486.536	337.91
486.971	340.26
487.407	347.28
487.842	330.89
488.277	307.49
488.712	272.38
489.146	314.51
489.581	248.97
490.016	277.06
490.451	335.57
490.885	300.47
491.32	256
491.755	288.76
492.189	349.62
492.624	321.53
493.058	267.7
493.492	281.74
493.927	293.44
494.361	253.66
494.795	291.1
495.229	340.26
495.663	314.51
496.097	333.23
496.531	253.66
496.965	291.1
497.399	295.79
497.833	302.81
498.266	326.21
498.7	347.28
499.134	314.51
499.567	284.08
500.001	286.42
500.434	274.72
500.868	272.38
501.301	288.76
501.734	277.06
502.168	270.04
502.601	342.6
503.034	323.87
503.467	316.85
503.9	265.36
504.333	326.21
504.766	382.39
505.199	340.26
505.632	274.72
506.064	267.7
506.497	284.08
506.93	260.68
507.362	295.79
507.795	263.02
508.227	321.53
508.66	328.55
509.092	218.55
509.524	312.17
509.956	272.38
510.389	314.51
510.821	295.79
511.253	291.1
511.685	356.64
512.117	323.87
512.549	298.13
512.981	298.13
513.412	337.91
513.844	286.42
514.276	307.49
514.707	223.23
515.139	265.36
515.571	370.68
516.002	288.76
516.433	293.44
516.865	270.04
517.296	258.34
517.727	358.98
518.159	227.91
518.59	314.51
519.021	326.21
519.452	401.11
519.883	319.19
520.314	309.83
520.744	270.04
521.175	284.08
521.606	307.49
522.037	291.1
522.467	347.28
522.898	302.81
523.328	323.87
523.759	288.76
524.189	253.66
524.62	309.83
525.05	295.79
525.48	307.49
525.91	316.85
526.341	408.13
526.771	314.51
527.201	260.68
527.631	349.62
528.061	316.85
528.49	237.27
528.92	293.44
529.35	274.72
529.78	319.19
530.209	232.59
530.639	380.04
531.068	263.02
531.498	291.1
531.927	333.23
532.357	312.17
532.786	293.44
533.215	234.93
533.644	295.79
534.074	312.17
534.503	370.68
534.932	347.28
535.361	300.47
535.79	307.49
536.218	220.89
536.647	344.94
537.076	328.55
537.505	323.87
537.933	293.44
538.362	288.76
538.79	284.08
539.219	286.42
539.647	312.17
540.076	328.55
540.504	241.95
540.932	300.47
541.36	335.57
541.788	370.68
542.217	267.7
542.645	302.81
543.073	281.74
543.5	316.85
543.928	293.44
544.356	265.36
544.784	361.32
545.211	323.87
545.639	312.17
546.067	337.91
546.494	328.55
546.922	288.76
547.349	293.44
547.776	291.1
548.204	281.74
548.631	263.02
549.058	293.44
549.485	323.87
549.912	323.87
550.339	295.79
550.766	309.83
551.193	351.96
551.62	265.36
552.047	293.44
552.474	321.53
552.9	277.06
553.327	298.13
553.754	267.7
554.18	333.23
554.607	253.66
555.033	298.13
555.459	284.08
555.886	349.62
556.312	321.53
556.738	323.87
557.164	316.85
557.59	272.38
558.016	305.15
558.442	370.68
558.868	358.98
559.294	284.08
559.72	291.1
560.145	302.81
560.571	326.21
560.997	309.83
561.422	305.15
561.848	319.19
562.273	281.74
562.699	256
563.124	319.19
563.549	326.21
563.974	281.74
564.4	342.6
564.825	319.19
565.25	248.97
565.675	312.17
566.1	263.02
566.525	265.36
566.95	295.79
567.374	279.4
567.799	333.23
568.224	286.42
568.648	347.28
569.073	256
569.497	270.04
569.922	340.26
570.346	288.76
570.771	272.38
571.195	300.47
571.619	298.13
572.043	309.83
572.467	270.04
572.891	272.38
573.315	333.23
573.739	284.08
574.163	319.19
574.587	340.26
575.011	375.36
575.435	326.21
575.858	300.47
576.282	291.1
576.705	328.55
577.129	272.38
577.552	382.39
577.976	300.47
578.399	309.83
578.822	314.51
579.245	351.96
579.669	293.44
580.092	309.83
580.515	342.6
580.938	270.04
581.361	279.4
581.784	234.93
582.206	328.55
582.629	274.72
583.052	330.89
583.474	354.3
583.897	356.64
584.32	323.87
584.742	337.91
585.165	286.42
585.587	307.49
586.009	309.83
586.431	316.85
586.854	244.29
587.276	288.76
587.698	260.68
588.12	286.42
588.542	321.53
588.964	277.06
589.386	265.36
589.807	288.76
590.229	312.17
590.651	337.91
591.073	312.17
591.494	272.38
591.916	358.98
592.337	305.15
592.759	263.02
593.18	342.6
593.601	300.47
594.022	309.83
594.444	284.08
594.865	286.42
595.286	316.85
595.707	258.34
596.128	347.28
596.549	319.19
596.97	232.59
597.39	274.72
597.811	312.17
598.232	295.79
598.652	253.66
599.073	274.72
599.494	300.47
599.914	248.97
600.334	274.72
600.755	267.7
601.175	314.51
601.595	272.38
602.015	307.49
602.436	291.1
602.856	443.24
603.276	363.66
603.696	319.19
604.115	302.81
604.535	347.28
604.955	300.47
605.375	302.81
605.794	337.91
606.214	323.87
606.634	351.96
607.053	305.15
607.473	333.23
607.892	314.51
608.311	241.95
608.731	293.44
609.15	330.89
609.569	307.49
609.988	321.53
610.407	251.32
610.826	277.06
611.245	248.97
611.664	330.89
612.083	295.79
612.501	326.21
612.92	307.49
613.339	298.13
613.757	291.1
614.176	344.94
614.594	335.57
615.013	335.57
615.431	302.81
615.85	300.47
616.268	256
616.686	335.57
617.104	316.85
617.522	323.87
617.94	300.47
618.358	300.47
618.776	298.13
619.194	363.66
619.612	302.81
620.03	286.42
620.447	309.83
620.865	274.72
621.282	204.5
621.7	314.51
622.117	349.62
622.535	248.97
622.952	300.47
623.369	307.49
623.787	326.21
624.204	300.47
624.621	321.53
625.038	300.47
625.455	227.91
625.872	265.36
626.289	384.73
626.706	281.74
627.123	281.74
627.539	272.38
627.956	239.61
628.373	244.29
628.789	398.77
629.206	323.87
629.622	253.66
630.038	326.21
630.455	361.32
630.871	321.53
631.287	354.3
631.703	370.68
632.12	340.26
632.536	330.89
632.952	323.87
633.368	270.04
633.783	284.08
634.199	291.1
634.615	286.42
635.031	307.49
635.446	298.13
635.862	314.51
636.277	305.15
636.693	279.4
637.108	302.81
637.524	316.85
637.939	330.89
638.354	307.49
638.77	288.76
639.185	323.87
639.6	326.21
640.015	305.15
640.43	279.4
640.845	288.76
641.259	298.13
641.674	274.72
642.089	335.57
642.504	321.53
642.918	298.13
643.333	349.62
643.747	295.79
644.162	274.72
644.576	356.64
644.991	354.3
645.405	267.7
645.819	195.14
646.233	366
646.647	361.32
647.061	349.62
647.475	256
647.889	298.13
648.303	337.91
648.717	251.32
649.131	305.15
649.545	305.15
649.958	270.04
650.372	305.15
650.785	302.81
651.199	363.66
651.612	209.19
652.026	256
652.439	274.72
652.852	272.38
653.266	321.53
653.679	351.96
654.092	351.96
654.505	347.28
654.918	319.19
655.331	263.02
655.744	316.85
656.156	312.17
656.569	248.97
656.982	248.97
657.394	267.7
657.807	284.08
658.22	305.15
658.632	284.08
659.044	316.85
659.457	260.68
659.869	300.47
660.281	260.68
660.693	300.47
661.106	251.32
661.518	321.53
661.93	248.97
662.342	316.85
662.754	337.91
663.165	368.34
663.577	333.23
663.989	293.44
664.401	246.63
664.812	319.19
665.224	295.79
665.635	312.17
666.047	342.6
666.458	263.02
666.869	281.74
667.281	335.57
667.692	356.64
668.103	368.34
668.514	342.6
668.925	323.87
669.336	354.3
669.747	263.02
670.158	328.55
670.569	358.98
670.979	312.17
671.39	298.13
671.801	277.06
672.211	300.47
672.622	277.06
673.032	267.7
673.443	270.04
673.853	312.17
674.263	328.55
674.674	316.85
675.084	265.36
675.494	340.26
675.904	323.87
676.314	323.87
676.724	326.21
677.134	295.79
677.544	333.23
677.953	302.81
678.363	302.81
678.773	312.17
679.182	227.91
679.592	312.17
680.001	295.79
680.411	300.47
680.82	328.55
681.23	305.15
681.639	277.06
682.048	251.32
682.457	291.1
682.866	319.19
683.275	330.89
683.684	279.4
684.093	316.85
684.502	295.79
684.911	323.87
685.32	309.83
685.728	246.63
686.137	241.95
686.546	241.95
686.954	274.72
687.363	291.1
687.771	300.47
688.179	288.76
688.588	288.76
688.996	263.02
689.404	305.15
689.812	267.7
690.22	260.68
690.628	330.89
691.036	234.93
691.444	377.7
691.852	302.81
692.26	340.26
692.667	337.91
693.075	272.38
693.483	328.55
693.89	286.42
694.298	319.19
694.705	309.83
695.112	342.6
695.52	300.47
695.927	335.57
696.334	253.66
696.741	328.55
697.148	274.72
697.555	281.74
697.962	307.49
698.369	230.25
698.776	258.34
699.183	309.83
699.59	272.38
699.996	302.81
700.403	293.44
700.81	326.21
701.216	286.42
701.623	277.06
702.029	277.06
702.435	314.51
702.842	302.81
703.248	335.57
703.654	260.68
704.06	279.4
704.466	279.4
704.872	347.28
705.278	312.17
705.684	316.85
706.09	349.62
706.496	316.85
706.901	319.19
707.307	300.47
707.712	284.08
708.118	291.1
708.523	274.72
708.929	319.19
709.334	333.23
709.74	309.83
710.145	309.83
710.55	328.55
710.955	295.79
711.36	354.3
711.765	291.1
712.17	323.87
712.575	295.79
712.98	873.9
713.385	279.4
713.789	281.74
714.194	330.89
714.599	270.04
715.003	267.7
715.408	237.27
715.812	253.66
716.217	295.79
716.621	302.81
717.025	307.49
717.429	267.7
717.833	323.87
718.238	387.07
718.642	286.42
719.046	326.21
719.449	349.62
719.853	358.98
720.257	337.91
720.661	251.32
721.065	288.76
721.468	305.15
721.872	295.79
722.275	267.7
722.679	246.63
723.082	288.76
723.485	279.4
723.889	256
724.292	335.57
724.695	281.74
725.098	279.4
725.501	326.21
725.904	337.91
726.307	316.85
726.71	347.28
727.113	321.53
727.516	326.21
727.918	351.96
728.321	288.76
728.724	347.28
729.126	356.64
729.529	312.17
729.931	321.53
730.333	302.81
730.736	333.23
731.138	314.51
731.54	337.91
731.942	342.6
732.344	305.15
732.746	307.49
733.148	279.4
733.55	272.38
733.952	302.81
734.354	344.94
734.756	279.4
735.157	307.49
735.559	309.83
735.96	295.79
736.362	373.02
736.763	237.27
737.165	330.89
737.566	263.02
737.967	218.55
738.368	265.36
738.77	295.79
739.171	333.23
739.572	300.47
739.973	234.93
740.374	342.6
740.774	326.21
741.175	241.95
741.576	291.1
741.977	267.7
742.377	293.44
742.778	330.89
743.178	260.68
743.579	272.38
743.979	274.72
744.379	225.57
744.78	220.89
745.18	279.4
745.58	323.87
745.98	309.83
746.38	263.02
746.78	326.21
747.18	298.13
747.58	284.08
747.98	337.91
748.38	267.7
748.779	284.08
749.179	307.49
749.578	291.1
749.978	309.83
750.377	274.72
750.777	286.42
751.176	302.81
751.575	239.61
751.975	286.42
752.374	295.79
752.773	316.85
753.172	337.91
753.571	302.81
753.97	274.72
754.369	330.89
754.768	349.62
755.166	394.09
755.565	277.06
755.964	337.91
756.362	342.6
756.761	244.29
757.159	286.42
757.558	326.21
757.956	272.38
758.354	330.89
758.753	277.06
759.151	358.98
759.549	256
759.947	342.6
760.345	319.19
760.743	270.04
761.141	244.29
761.539	314.51
761.936	256
762.334	281.74
762.732	349.62
763.129	295.79
763.527	335.57
763.924	323.87
764.322	319.19
764.719	267.7
765.117	312.17
765.514	284.08
765.911	312.17
766.308	277.06
766.705	251.32
767.102	253.66
767.499	295.79
767.896	267.7
768.293	335.57
768.69	260.68
769.086	314.51
769.483	321.53
769.88	293.44
770.276	293.44
770.673	265.36
771.069	298.13
771.466	281.74
771.862	337.91
772.258	244.29
772.654	319.19
773.05	274.72
773.447	295.79
773.843	375.36
774.239	323.87
774.634	281.74
775.03	309.83
775.426	293.44
775.822	333.23
776.218	307.49
776.613	248.97
777.009	347.28
777.404	267.7
777.8	316.85
778.195	368.34
778.59	302.81
778.986	291.1
779.381	335.57
779.776	284.08
780.171	314.51
780.566	361.32
780.961	272.38
781.356	316.85
781.751	342.6
782.146	321.53
782.54	298.13
782.935	337.91
783.33	330.89
783.724	279.4
784.119	337.91
784.513	274.72
784.908	300.47
785.302	319.19
785.696	274.72
786.09	295.79
786.485	295.79
786.879	277.06
787.273	300.47
787.667	300.47
788.061	256
788.454	232.59
788.848	274.72
789.242	258.34
789.636	342.6
790.029	314.51
790.423	279.4
790.816	333.23
791.21	344.94
791.603	302.81
791.997	326.21
792.39	316.85
792.783	316.85
793.176	288.76
793.569	309.83
793.962	279.4
794.355	298.13
794.748	302.81
795.141	274.72
795.534	244.29
795.927	284.08
796.319	227.91
796.712	309.83
797.105	347.28
797.497	333.23
797.89	244.29
798.282	314.51
798.674	291.1
799.067	342.6
799.459	335.57
799.851	342.6
800.243	321.53
800.635	305.15
801.027	316.85
801.419	274.72
801.811	279.4
802.203	309.83
802.594	260.68
802.986	260.68
803.378	248.97
803.769	330.89
804.161	291.1
804.552	288.76
804.944	363.66
805.335	288.76
805.726	323.87
806.118	291.1
806.509	288.76
806.9	330.89
807.291	293.44
807.682	237.27
808.073	286.42
808.464	246.63
808.855	263.02
809.245	314.51
809.636	342.6
810.027	326.21
810.417	333.23
810.808	244.29
811.198	312.17
811.589	270.04
811.979	293.44
812.369	312.17
812.759	300.47
813.15	305.15
813.54	330.89
813.93	244.29
814.32	277.06
814.71	244.29
815.1	335.57
815.489	281.74
815.879	267.7
816.269	330.89
816.658	234.93
817.048	260.68
817.438	323.87
817.827	279.4
818.216	309.83
818.606	263.02
818.995	251.32
819.384	237.27
819.773	330.89
820.163	333.23
820.552	323.87
820.941	260.68
821.33	337.91
821.718	253.66
822.107	298.13
822.496	270.04
822.885	316.85
823.273	323.87
823.662	300.47
824.05	265.36
824.439	330.89
824.827	302.81
825.216	298.13
825.604	286.42
825.992	309.83
826.38	319.19
826.768	281.74
827.156	368.34
827.544	298.13
827.932	333.23
828.32	314.51
828.708	295.79
829.096	300.47
829.483	284.08
829.871	284.08
830.259	284.08
830.646	382.39
831.034	356.64
831.421	375.36
831.808	323.87
832.196	300.47
832.583	265.36
832.97	281.74
833.357	295.79
833.744	284.08
834.131	309.83
834.518	295.79
834.905	319.19
835.292	218.55
835.678	248.97
836.065	300.47
836.452	246.63
836.838	225.57
837.225	286.42
837.611	256
837.998	291.1
838.384	281.74
838.77	286.42
839.157	246.63
839.543	323.87
839.929	295.79
840.315	267.7
840.701	270.04
841.087	267.7
841.473	321.53
841.858	321.53
842.244	279.4
842.63	260.68
843.015	326.21
843.401	520.48
843.787	258.34
844.172	288.76
844.557	270.04
844.943	223.23
845.328	302.81
845.713	246.63
846.098	279.4
846.483	307.49
846.868	321.53
847.253	300.47
847.638	314.51
848.023	246.63
848.408	298.13
848.793	319.19
849.177	258.34
849.562	335.57
849.947	309.83
850.331	312.17
850.715	342.6
851.1	284.08
851.484	274.72
851.868	267.7
852.253	277.06
852.637	326.21
853.021	323.87
853.405	305.15
853.789	274.72
854.173	256
854.557	335.57
854.94	321.53
855.324	363.66
855.708	337.91
856.091	323.87
856.475	307.49
856.858	328.55
857.242	265.36
857.625	319.19
858.009	326.21
858.392	270.04
858.775	291.1
859.158	295.79
859.541	398.77
859.924	354.3
860.307	316.85
860.69	253.66
861.073	293.44
861.456	251.32
861.838	213.87
862.221	312.17
862.604	234.93
862.986	277.06
863.369	326.21
863.751	256
864.133	281.74
864.516	253.66
864.898	307.49
865.28	270.04
865.662	291.1
866.044	272.38
866.426	300.47
866.808	312.17
867.19	316.85
867.572	248.97
867.954	351.96
868.336	263.02
868.717	295.79
869.099	340.26
869.48	349.62
869.862	279.4
870.243	244.29
870.625	344.94
871.006	291.1
871.387	314.51
871.768	246.63
872.149	295.79
872.53	237.27
872.911	244.29
873.292	302.81
873.673	244.29
874.054	326.21
874.435	319.19
874.815	300.47
875.196	230.25
875.577	347.28
875.957	349.62
876.338	291.1
876.718	253.66
877.098	279.4
877.479	253.66
877.859	295.79
878.239	230.25
878.619	323.87
878.999	312.17
879.379	356.64
879.759	312.17
880.139	330.89
880.519	330.89
880.898	356.64
881.278	286.42
881.658	300.47
882.037	277.06
882.417	300.47
882.796	295.79
883.176	279.4
883.555	286.42
883.934	326.21
884.313	286.42
884.693	293.44
885.072	326.21
885.451	293.44
885.83	279.4
886.209	293.44
886.587	342.6
886.966	321.53
887.345	328.55
887.724	274.72
888.102	272.38
888.481	335.57
888.859	286.42
889.238	342.6
889.616	337.91
889.994	342.6
890.373	321.53
890.751	265.36
891.129	340.26
891.507	277.06
891.885	265.36
892.263	277.06
892.641	314.51
893.019	300.47
893.396	335.57
893.774	337.91
894.152	274.72
894.529	302.81
894.907	328.55
895.284	293.44
895.662	267.7
896.039	281.74
896.416	286.42
896.794	309.83
897.171	234.93
897.548	246.63
897.925	337.91
898.302	316.85
898.679	263.02
899.056	258.34
899.433	272.38
899.809	291.1
900.186	344.94
900.563	244.29
900.939	251.32
901.316	277.06
901.692	239.61
902.069	227.91
902.445	295.79
902.821	302.81
903.197	335.57
903.574	391.75
903.95	263.02
904.326	298.13
904.702	291.1
905.078	321.53
905.454	326.21
905.829	281.74
906.205	326.21
906.581	291.1
906.956	286.42
907.332	284.08
907.707	281.74
908.083	307.49
908.458	370.68
908.833	326.21
909.209	272.38
909.584	220.89
909.959	330.89
910.334	321.53
910.709	316.85
911.084	328.55
911.459	340.26
911.834	333.23
912.209	248.97
912.583	298.13
912.958	291.1
913.333	314.51
913.707	251.32
914.082	251.32
914.456	218.55
914.83	272.38
915.205	284.08
915.579	312.17
915.953	335.57
916.327	333.23
916.701	328.55
917.075	272.38
917.449	300.47
917.823	270.04
918.197	274.72
918.571	342.6
918.944	277.06
919.318	295.79
919.692	279.4
920.065	295.79
920.438	312.17
920.812	312.17
921.185	358.98
921.558	270.04
921.932	307.49
922.305	234.93
922.678	300.47
923.051	328.55
923.424	302.81
923.797	335.57
924.17	319.19
924.542	309.83
924.915	295.79
925.288	309.83
925.661	293.44
926.033	347.28
926.406	295.79
926.778	340.26
927.15	295.79
927.523	291.1
927.895	258.34
928.267	316.85
928.639	234.93
929.011	274.72
929.383	272.38
929.755	293.44
930.127	274.72
930.499	286.42
930.871	281.74
931.242	291.1
931.614	277.06
931.986	300.47
932.357	251.32
932.729	305.15
933.1	380.04
933.471	260.68
933.843	267.7
934.214	284.08
934.585	340.26
934.956	232.59
935.327	321.53
935.698	284.08
936.069	263.02
936.44	342.6
936.811	288.76
937.182	309.83
937.552	319.19
937.923	305.15
938.293	204.5
938.664	377.7
939.034	342.6
939.405	342.6
939.775	260.68
940.145	260.68
940.516	281.74
940.886	288.76
941.256	284.08
941.626	204.5
941.996	251.32
942.366	337.91
942.735	274.72
943.105	277.06
943.475	279.4
943.845	298.13
944.214	253.66
944.584	272.38
944.953	293.44
945.323	316.85
945.692	293.44
946.061	323.87
946.43	272.38
946.8	277.06
947.169	316.85
947.538	398.77
947.907	330.89
948.276	305.15
948.645	246.63
949.013	279.4
949.382	321.53
949.751	263.02
950.119	363.66
950.488	333.23
950.857	256
951.225	342.6
951.593	309.83
951.962	274.72
952.33	256
952.698	281.74
953.066	330.89
953.434	272.38
953.802	277.06
954.17	291.1
954.538	291.1
954.906	281.74
955.274	248.97
955.642	293.44
956.009	263.02
956.377	295.79
956.744	291.1
957.112	312.17
957.479	309.83
957.847	342.6
958.214	241.95
958.581	263.02
958.948	333.23
959.315	267.7
959.683	293.44
960.05	326.21
960.416	234.93
960.783	298.13
961.15	288.76
961.517	286.42
961.884	293.44
962.25	295.79
962.617	288.76
962.983	321.53
963.35	284.08
963.716	333.23
964.082	260.68
964.449	354.3
964.815	305.15
965.181	314.51
965.547	293.44
965.913	293.44
966.279	293.44
966.645	279.4
967.011	316.85
967.377	314.51
967.742	295.79
968.108	351.96
968.474	330.89
968.839	349.62
969.205	335.57
969.57	227.91
969.935	340.26
970.301	342.6
970.666	333.23
971.031	270.04
971.396	309.83
971.761	258.34
972.126	284.08
972.491	312.17
972.856	298.13
973.221	305.15
973.586	256
973.95	328.55
974.315	309.83
974.679	284.08
975.044	321.53
975.408	281.74
975.773	267.7
976.137	305.15
976.501	309.83
976.866	263.02
977.23	305.15
977.594	260.68
977.958	288.76
978.322	258.34
978.686	253.66
979.049	302.81
979.413	284.08
979.777	270.04
980.141	284.08
980.504	342.6
980.868	239.61
981.231	281.74
981.595	232.59
981.958	319.19
982.321	227.91
982.684	241.95
983.048	239.61
983.411	279.4
983.774	253.66
984.137	272.38
984.5	270.04
984.862	246.63
985.225	288.76
985.588	300.47
985.951	309.83
986.313	298.13
986.676	272.38
987.038	312.17
987.401	300.47
987.763	347.28
988.125	344.94
988.488	244.29
988.85	333.23
989.212	323.87
989.574	305.15
989.936	321.53
990.298	295.79
990.66	279.4
991.022	293.44
991.383	265.36
991.745	281.74
992.107	265.36
992.468	288.76
992.83	333.23
993.191	300.47
993.553	300.47
993.914	305.15
994.275	288.76
994.637	335.57
994.998	398.77
995.359	272.38
995.72	288.76
996.081	284.08
996.442	354.3
996.803	302.81
997.163	323.87
997.524	265.36
997.885	309.83
998.245	307.49
998.606	295.79
998.966	316.85
999.327	319.19
999.687	272.38
1000.047	298.13
1000.408	312.17
1000.768	330.89
1001.128	333.23
1001.488	319.19
1001.848	260.68
1002.208	244.29
1002.568	272.38
1002.927	307.49
1003.287	263.02
1003.647	344.94
1004.007	319.19
1004.366	319.19
1004.726	330.89
1005.085	244.29
1005.444	330.89
1005.804	323.87
1006.163	305.15
1006.522	347.28
1006.881	300.47
1007.24	272.38
1007.599	246.63
1007.958	298.13
1008.317	277.06
1008.676	258.34
1009.035	286.42
1009.393	361.32
1009.752	340.26
1010.111	340.26
1010.469	354.3
1010.828	354.3
1011.186	260.68
1011.544	309.83
1011.903	281.74
1012.261	279.4
1012.619	284.08
1012.977	251.32
1013.335	305.15
1013.693	319.19
1014.051	293.44
1014.409	277.06
1014.767	302.81
1015.124	274.72
1015.482	305.15
1015.84	291.1
1016.197	312.17
1016.555	281.74
1016.912	258.34
1017.269	326.21
1017.627	309.83
1017.984	291.1
1018.341	305.15
1018.698	265.36
1019.055	274.72
1019.412	328.55
1019.769	291.1
1020.126	270.04
1020.483	305.15
1020.84	263.02
1021.196	370.68
1021.553	342.6
1021.909	237.27
1022.266	316.85
1022.622	323.87
1022.979	288.76
1023.335	241.95
1023.691	323.87
1024.047	316.85
1024.404	265.36
1024.76	312.17
1025.116	274.72
1025.472	307.49
1025.827	284.08
1026.183	305.15
1026.539	277.06
1026.895	267.7
1027.25	256
1027.606	323.87
1027.961	293.44
1028.317	312.17
1028.672	307.49
1029.028	305.15
1029.383	326.21
1029.738	277.06
1030.093	277.06
1030.448	316.85
1030.803	312.17
1031.158	307.49
1031.513	316.85
1031.868	270.04
1032.223	274.72
1032.577	216.21
1032.932	321.53
1033.287	293.44
1033.641	270.04
1033.996	328.55
1034.35	286.42
1034.704	319.19
1035.059	328.55
1035.413	279.4
1035.767	279.4
1036.121	279.4
