Data from Al_FLMS009871__806__15-24-56-607.txt Node

Date: Fri Mar 08 15:24:56 CST 2024
User: pe5414po
Spectrometer: FLMS00987
Trigger mode: 0
Integration Time (sec): 1.000000E-1
Scans to average: 1
Electric dark correction enabled: true
Nonlinearity correction enabled: false
Boxcar width: 0
XAxis mode: Wavelengths
Number of Pixels in Spectrum: 2048
>>>>>Begin Spectral Data<<<<<
188.938	-99.91
189.409	-99.91
189.879	-99.91
190.349	-55.44
190.819	-116.3
191.29	-92.89
191.76	-55.44
192.23	-81.19
192.7	-83.53
193.17	-128
193.64	-46.08
194.109	-3.95
194.579	0.73
195.049	5.41
195.519	52.22
195.988	56.9
196.458	31.16
196.927	47.54
197.397	157.55
197.866	92.01
198.336	47.54
198.805	169.25
199.274	178.61
199.744	195
200.213	255.85
200.682	258.19
201.151	244.15
201.62	272.23
202.089	297.98
202.558	309.68
203.027	335.43
203.495	342.45
203.964	389.26
204.433	368.2
204.902	342.45
205.37	340.11
205.839	372.88
206.307	382.24
206.776	431.39
207.244	415.01
207.712	412.67
208.181	424.37
208.649	419.69
209.117	422.03
209.585	496.92
210.053	450.11
210.521	567.14
210.989	546.08
211.457	534.37
211.925	623.31
212.393	660.76
212.861	663.1
213.328	684.17
213.796	735.66
214.264	723.96
214.731	723.96
215.199	897.16
215.666	927.58
216.133	1023.55
216.601	1119.51
217.068	1194.4
217.535	1407.39
218.003	1423.78
218.47	1456.54
218.937	1454.2
219.404	1515.06
219.871	1615.7
220.338	1657.83
220.805	1744.43
221.271	1802.94
221.738	1852.1
222.205	1721.03
222.671	1863.8
223.138	2135.3
223.605	2118.92
224.071	2039.34
224.538	2081.47
225.004	2139.98
225.47	2158.71
225.937	2224.24
226.403	2245.31
226.869	2018.27
227.335	1978.48
227.801	1964.44
228.267	1931.67
228.733	1926.99
229.199	2076.79
229.665	2313.18
230.131	2432.55
230.597	2589.36
231.062	2530.85
231.528	2423.19
231.994	2107.21
232.459	2193.81
232.925	2109.55
233.39	2257.01
233.856	2446.59
234.321	2846.82
234.786	3534.94
235.252	4391.58
235.717	5098.42
236.182	5533.76
236.647	4808.19
237.112	3836.87
237.577	2800.01
238.042	2572.98
238.507	2228.92
238.972	2184.45
239.436	2095.51
239.901	1990.19
240.366	1973.8
240.83	1943.38
241.295	2074.45
241.76	1992.53
242.224	2034.66
242.688	2020.61
243.153	2090.83
243.617	1936.35
244.081	2067.42
244.545	2139.98
245.01	2212.54
245.474	2242.96
245.938	2147
246.402	2090.83
246.866	2062.74
247.33	2027.64
247.793	1936.35
248.257	1999.55
248.721	1994.87
249.185	1980.82
249.648	2039.34
250.112	1997.21
250.575	2034.66
251.039	2149.34
251.502	2067.42
251.965	2095.51
252.429	2154.02
252.892	2177.43
253.355	2081.47
253.818	2240.62
254.281	2460.63
254.744	2519.15
255.207	2821.08
255.67	3516.22
256.133	4316.68
256.596	4585.84
257.059	4185.61
257.522	3829.85
257.984	3111.3
258.447	2809.37
258.909	2764.9
259.372	2757.88
259.834	2888.95
260.297	2636.17
260.759	2771.93
261.221	2860.87
261.684	3317.27
262.146	4094.33
262.608	4084.97
263.07	3871.98
263.532	3354.72
263.994	3338.34
264.456	3544.3
264.918	3450.68
265.38	3462.38
265.842	3038.75
266.303	2713.41
266.765	2231.26
267.227	2090.83
267.688	2114.24
268.15	2100.19
268.611	2086.15
269.072	1999.55
269.534	2069.76
269.995	2100.19
270.456	1957.42
270.918	1950.4
271.379	1955.08
271.84	1976.14
272.301	1971.46
272.762	2013.59
273.223	1826.35
273.684	1992.53
274.144	2013.59
274.605	2020.61
275.066	1957.42
275.527	2027.64
275.987	2207.86
276.448	2598.73
276.908	3148.75
277.369	3914.11
277.829	5737.38
278.289	8649.01
278.75	11715.11
279.21	12887.72
279.67	10865.5
280.13	8475.81
280.59	6631.47
281.05	6062.72
281.51	5208.42
281.97	3977.3
282.43	3034.07
282.89	2565.96
283.35	2479.36
283.809	2523.83
284.269	2910.02
284.729	2940.44
285.188	2659.58
285.648	2231.26
286.107	2029.98
286.567	1931.67
287.026	1835.71
287.485	1882.52
287.944	1802.94
288.404	1903.59
288.863	1868.48
289.322	1812.31
289.781	1756.13
290.24	1852.1
290.699	1863.8
291.158	1908.27
291.616	2179.77
292.075	2268.71
292.534	2484.04
292.992	2814.06
293.451	2572.98
293.91	2390.42
294.368	2135.3
294.827	1994.87
295.285	1781.88
295.743	1763.15
296.202	1779.54
296.66	1634.43
297.118	1634.43
297.576	1639.11
298.034	1704.64
298.492	1690.6
298.95	1632.08
299.408	1664.85
299.866	1770.18
300.324	1802.94
300.781	1716.34
301.239	1784.22
301.697	1955.08
302.154	1962.1
302.612	2109.55
303.069	2261.69
303.527	2381.06
303.984	2704.05
304.441	3410.89
304.899	3914.11
305.356	4595.2
305.813	4658.4
306.27	4407.96
306.727	4747.34
307.184	5852.07
307.641	7591.09
308.098	8981.37
308.555	9978.44
309.012	9058.6
309.468	7733.86
309.925	5339.49
310.382	3764.31
310.838	3064.49
311.295	2502.76
311.751	2345.95
312.208	2200.83
312.664	2022.95
313.12	1962.1
313.577	1873.16
314.033	1912.95
314.489	1751.45
314.945	1756.13
315.401	1711.66
315.857	1554.85
316.313	1629.74
316.769	1517.4
317.225	1529.1
317.681	1496.33
318.136	1568.89
318.592	1470.59
319.048	1465.91
319.503	1587.61
319.959	1426.12
320.414	1398.03
320.869	1512.72
321.325	1496.33
321.78	1547.83
322.235	1512.72
322.691	1456.54
323.146	1496.33
323.601	1692.94
324.056	1980.82
324.511	2231.26
324.966	2212.54
325.421	1725.71
325.875	1552.51
326.33	1604
326.785	1873.16
327.24	2055.72
327.694	1966.78
328.149	1575.91
328.603	1381.65
329.058	1447.18
329.512	1374.63
329.966	1447.18
330.421	1498.67
330.875	1337.18
331.329	1416.76
331.783	1468.25
332.237	1515.06
332.691	1681.24
333.145	1688.26
333.599	1615.7
334.053	1664.85
334.507	1678.9
334.96	1650.81
335.414	1611.02
335.868	1632.08
336.321	1599.32
336.775	1606.34
337.228	1493.99
337.682	1559.53
338.135	1409.73
338.588	1524.42
339.042	1491.65
339.495	1501.01
339.948	1421.44
340.401	1501.01
340.854	1571.23
341.307	1545.48
341.76	1489.31
342.213	1449.52
342.666	1470.59
343.119	1575.91
343.571	1559.53
344.024	1671.87
344.477	1552.51
344.929	1470.59
345.382	1517.4
345.834	1571.23
346.287	1557.19
346.739	1529.1
347.191	1564.21
347.644	1559.53
348.096	1552.51
348.548	1540.8
349	1517.4
349.452	1554.85
349.904	1496.33
350.356	1618.04
350.808	1660.17
351.26	1611.02
351.711	1606.34
352.163	1655.49
352.615	1786.56
353.066	1802.94
353.518	1905.93
353.969	1903.59
354.421	1941.04
354.872	1969.12
355.324	2137.64
355.775	2338.93
356.226	2551.92
356.677	3066.83
357.128	3492.81
357.579	4110.71
358.03	4974.37
358.481	5676.53
358.932	5423.75
359.383	4747.34
359.834	3862.62
360.285	3511.53
360.735	3235.35
361.186	2968.53
361.637	2636.17
362.087	2334.25
362.538	2191.47
362.988	2076.79
363.438	1831.03
363.889	1847.41
364.339	1788.9
364.789	1657.83
365.239	1664.85
365.689	1641.45
366.139	1611.02
366.589	1489.31
367.039	1601.66
367.489	1491.65
367.939	1526.76
368.389	1493.99
368.839	1578.25
369.288	1419.1
369.738	1479.95
370.187	1493.99
370.637	1444.84
371.086	1482.29
371.536	1463.57
371.985	1526.76
372.434	1496.33
372.884	1615.7
373.333	1479.95
373.782	1512.72
374.231	1554.85
374.68	1510.38
375.129	1444.84
375.578	1400.37
376.027	1468.25
376.475	1376.97
376.924	1437.82
377.373	1400.37
377.822	1383.99
378.27	1360.58
378.719	1442.5
379.167	1416.76
379.616	1426.12
380.064	1505.7
380.512	1489.31
380.961	1540.8
381.409	1620.38
381.857	1699.96
382.305	1959.76
382.753	2191.47
383.201	2591.7
383.649	2776.61
384.097	2643.2
384.545	2158.71
384.992	1714
385.44	1744.43
385.888	1529.1
386.335	1559.53
386.783	1533.78
387.231	1493.99
387.678	1498.67
388.125	1554.85
388.573	1575.91
389.02	1463.57
389.467	1552.51
389.914	1620.38
390.362	1643.79
390.809	1526.76
391.256	1639.11
391.703	1650.81
392.15	1788.9
392.596	1983.17
393.043	2233.6
393.49	2865.55
393.937	4386.9
394.383	6175.06
394.83	7464.7
395.276	6729.77
395.723	6825.73
396.169	8251.12
396.616	8803.49
397.062	6516.78
397.508	4206.67
397.954	3024.7
398.401	2500.42
398.847	2177.43
399.293	2191.47
399.739	1924.65
400.185	1948.06
400.631	1845.07
401.076	1692.94
401.522	1667.19
401.968	1627.4
402.414	1657.83
402.859	1732.73
403.305	1711.66
403.75	1896.57
404.196	1674.21
404.641	1728.05
405.086	1540.8
405.532	1604
405.977	1589.96
406.422	1575.91
406.867	1580.59
407.312	1608.68
407.757	1653.15
408.202	1655.49
408.647	1592.3
409.092	1515.06
409.537	1566.55
409.982	1435.48
410.426	1515.06
410.871	1475.27
411.316	1496.33
411.76	1479.95
412.205	1414.41
412.649	1355.9
413.093	1383.99
413.538	1454.2
413.982	1414.41
414.426	1362.92
414.87	1393.35
415.314	1454.2
415.758	1419.1
416.202	1433.14
416.646	1360.58
417.09	1383.99
417.534	1386.33
417.978	1430.8
418.421	1376.97
418.865	1437.82
419.309	1323.13
419.752	1372.29
420.196	1430.8
420.639	1367.6
421.083	1444.84
421.526	1283.34
421.969	1369.94
422.412	1299.73
422.856	1405.05
423.299	1297.39
423.742	1358.24
424.185	1391.01
424.628	1323.13
425.071	1288.03
425.513	1374.63
425.956	1330.16
426.399	1290.37
426.842	1325.47
427.284	1252.92
427.727	1323.13
428.169	1367.6
428.612	1220.15
429.054	1248.24
429.497	1201.43
429.939	1156.96
430.381	1175.68
430.823	1161.64
431.265	1311.43
431.707	1250.58
432.149	1248.24
432.591	1271.64
433.033	1245.9
433.475	1133.55
433.917	1220.15
434.359	1208.45
434.8	1360.58
435.242	1316.11
435.684	1316.11
436.125	1334.84
436.567	1213.13
437.008	1227.17
437.449	1295.05
437.891	1192.06
438.332	1276.32
438.773	1243.56
439.214	1203.77
439.656	1292.71
440.097	1255.26
440.538	1222.49
440.978	1238.87
441.419	1374.63
441.86	1306.75
442.301	1414.41
442.742	1341.86
443.182	1372.29
443.623	1369.94
444.063	1383.99
444.504	1447.18
444.944	1461.23
445.385	1463.57
445.825	1442.5
446.265	1599.32
446.706	1510.38
447.146	1508.04
447.586	1479.95
448.026	1587.61
448.466	1444.84
448.906	1601.66
449.346	1503.36
449.786	1489.31
450.225	1412.07
450.665	1550.17
451.105	1517.4
451.544	1468.25
451.984	1419.1
452.424	1594.64
452.863	1599.32
453.302	1522.08
453.742	1463.57
454.181	1449.52
454.62	1503.36
455.059	1538.46
455.499	1426.12
455.938	1405.05
456.377	1421.44
456.816	1337.18
457.254	1376.97
457.693	1376.97
458.132	1381.65
458.571	1271.64
459.01	1355.9
459.448	1231.85
459.887	1227.17
460.325	1383.99
460.764	1337.18
461.202	1365.26
461.641	1393.35
462.079	1409.73
462.517	1402.71
462.955	1412.07
463.393	1421.44
463.832	1524.42
464.27	1477.61
464.708	1571.23
465.145	1547.83
465.583	1566.55
466.021	1688.26
466.459	1660.17
466.897	1861.46
467.334	1910.61
467.772	1718.68
468.209	1657.83
468.647	1601.66
469.084	1402.71
469.522	1405.05
469.959	1365.26
470.396	1372.29
470.833	1386.33
471.271	1412.07
471.708	1334.84
472.145	1440.16
472.582	1327.82
473.019	1400.37
473.456	1365.26
473.892	1421.44
474.329	1252.92
474.766	1341.86
475.202	1313.77
475.639	1388.67
476.076	1290.37
476.512	1510.38
476.949	1456.54
477.385	1348.88
477.821	1348.88
478.258	1355.9
478.694	1493.99
479.13	1383.99
479.566	1414.41
480.002	1447.18
480.438	1477.61
480.874	1468.25
481.31	1468.25
481.746	1461.23
482.181	1496.33
482.617	1515.06
483.053	1515.06
483.488	1458.89
483.924	1437.82
484.36	1435.48
484.795	1501.01
485.23	1669.53
485.666	1641.45
486.101	1589.96
486.536	1620.38
486.971	1620.38
487.407	1578.25
487.842	1587.61
488.277	1547.83
488.712	1564.21
489.146	1582.93
489.581	1561.87
490.016	1533.78
490.451	1489.31
490.885	1484.63
491.32	1498.67
491.755	1458.89
492.189	1468.25
492.624	1433.14
493.058	1458.89
493.492	1437.82
493.927	1435.48
494.361	1435.48
494.795	1508.04
495.229	1496.33
495.663	1547.83
496.097	1465.91
496.531	1456.54
496.965	1428.46
497.399	1435.48
497.833	1559.53
498.266	1585.27
498.7	1660.17
499.134	1632.08
499.567	1695.28
500.001	1880.18
500.434	1990.19
500.868	2154.02
501.301	2088.49
501.734	1905.93
502.168	1786.56
502.601	1739.75
503.034	1596.98
503.467	1615.7
503.9	1632.08
504.333	1706.98
504.766	1678.9
505.199	1898.91
505.632	1931.67
506.064	1718.68
506.497	1629.74
506.93	1601.66
507.362	1767.84
507.795	1657.83
508.227	1524.42
508.66	1573.57
509.092	1484.63
509.524	1482.29
509.956	1423.78
510.389	1458.89
510.821	1536.12
511.253	1627.4
511.685	1611.02
512.117	1536.12
512.549	1561.87
512.981	1503.36
513.412	1510.38
513.844	1573.57
514.276	1498.67
514.707	1575.91
515.139	1589.96
515.571	1760.81
516.002	1742.09
516.433	1812.31
516.865	1821.67
517.296	1945.72
517.727	2097.85
518.159	2322.54
518.59	2240.62
519.021	2334.25
519.452	2320.2
519.883	1962.1
520.314	1915.29
520.744	1770.18
521.175	1873.16
521.606	1814.65
522.037	1936.35
522.467	2044.02
522.898	2037
523.328	1957.42
523.759	2025.29
524.189	2001.89
524.62	2097.85
525.05	2132.96
525.48	2317.86
525.91	2486.38
526.341	2568.3
526.771	2743.84
527.201	2998.96
527.631	3195.56
528.061	3616.86
528.49	4162.2
528.92	4840.96
529.35	6591.68
529.78	13285.61
530.209	57980.48
530.639	63047.74
531.068	63047.74
531.498	63047.74
531.927	63047.74
532.357	63047.74
532.786	63047.74
533.215	63047.74
533.644	63047.74
534.074	63047.74
534.503	34989.4
534.932	15752.54
535.361	9018.82
535.79	6369.33
536.218	5067.99
536.647	4429.02
537.076	3705.8
537.505	3160.45
537.933	2753.2
538.362	2458.29
538.79	1999.55
539.219	1894.22
539.647	1758.47
540.076	1653.15
540.504	1622.72
540.932	1468.25
541.36	1592.3
541.788	1533.78
542.217	1402.71
542.645	1456.54
543.073	1533.78
543.5	1348.88
543.928	1332.5
544.356	1327.82
544.784	1369.94
545.211	1299.73
545.639	1395.69
546.067	1259.94
546.494	1276.32
546.922	1311.43
547.349	1290.37
547.776	1213.13
548.204	1159.3
548.631	1166.32
549.058	1222.49
549.485	1131.21
549.912	1215.47
550.339	1290.37
550.766	1135.89
551.193	1182.7
551.62	1206.11
552.047	1210.79
552.474	1215.47
552.9	1171
553.327	1086.74
553.754	1327.82
554.18	1231.85
554.607	1173.34
555.033	1217.81
555.459	1124.19
555.886	1089.08
556.312	1140.57
556.738	1166.32
557.164	1142.91
557.59	1171
558.016	1166.32
558.442	1215.47
558.868	1206.11
559.294	1231.85
559.72	1213.13
560.145	1304.41
560.571	1201.43
560.997	1224.83
561.422	1262.28
561.848	1070.36
562.273	1236.53
562.699	1100.78
563.124	1112.49
563.549	1145.25
563.974	1091.42
564.4	1142.91
564.825	1079.72
565.25	1140.57
565.675	1199.09
566.1	1182.7
566.525	1222.49
566.95	1292.71
567.374	1374.63
567.799	1330.16
568.224	1376.97
568.648	1458.89
569.073	1409.73
569.497	1351.22
569.922	1405.05
570.346	1334.84
570.771	1285.69
571.195	1234.19
571.619	1199.09
572.043	1194.4
572.467	1173.34
572.891	1166.32
573.315	1037.59
573.739	1086.74
574.163	1075.04
574.587	1044.61
575.011	1037.59
575.435	1000.14
575.858	885.45
576.282	981.42
576.705	901.84
577.129	958.01
577.552	925.24
577.976	934.61
578.399	929.92
578.822	988.44
579.245	927.58
579.669	925.24
580.092	1018.86
580.515	899.5
580.938	901.84
581.361	899.5
581.784	873.75
582.206	929.92
582.629	913.54
583.052	885.45
583.474	885.45
583.897	810.56
584.32	862.05
584.742	850.35
585.165	822.26
585.587	878.43
586.009	798.85
586.431	787.15
586.854	794.17
587.276	836.3
587.698	869.07
588.12	838.64
588.542	787.15
588.964	826.94
589.386	810.56
589.807	784.81
590.229	826.94
590.651	777.79
591.073	754.38
591.494	915.88
591.916	929.92
592.337	890.13
592.759	890.13
593.18	775.45
593.601	817.58
594.022	819.92
594.444	838.64
594.865	993.12
595.286	826.94
595.707	890.13
596.128	831.62
596.549	840.98
596.97	833.96
597.39	801.19
597.811	801.19
598.232	798.85
598.652	775.45
599.073	815.24
599.494	747.36
599.914	808.22
600.334	679.49
600.755	780.13
601.175	829.28
601.595	808.22
602.015	805.88
602.436	780.13
602.856	885.45
603.276	845.66
603.696	829.28
604.115	810.56
604.535	740.34
604.955	752.04
605.375	805.88
605.794	826.94
606.214	747.36
606.634	782.47
607.053	745.02
607.473	810.56
607.892	801.19
608.311	808.22
608.731	817.58
609.15	770.77
609.569	836.3
609.988	855.03
610.407	833.96
610.826	787.15
611.245	801.19
611.664	833.96
612.083	702.89
612.501	791.83
612.92	730.98
613.339	850.35
613.757	885.45
614.176	843.32
614.594	742.68
615.013	838.64
615.431	817.58
615.85	845.66
616.268	730.98
616.686	754.38
617.104	756.72
617.522	721.62
617.94	843.32
618.358	740.34
618.776	850.35
619.194	719.28
619.612	791.83
620.03	791.83
620.447	749.7
620.865	812.9
621.282	784.81
621.7	831.62
622.117	869.07
622.535	936.95
622.952	887.79
623.369	934.61
623.787	920.56
624.204	953.33
624.621	1035.25
625.038	990.78
625.455	1135.89
625.872	1068.02
626.289	1014.18
626.706	1037.59
627.123	1042.27
627.539	974.39
627.956	1011.84
628.373	936.95
628.789	948.65
629.206	848.01
629.622	740.34
630.038	754.38
630.455	801.19
630.871	777.79
631.287	738
631.703	787.15
632.12	709.91
632.536	859.71
632.952	782.47
633.368	681.83
633.783	745.02
634.199	798.85
634.615	742.68
635.031	714.59
635.446	620.97
635.862	649.06
636.277	698.21
636.693	688.85
637.108	693.53
637.524	707.57
637.939	754.38
638.354	686.51
638.77	625.65
639.185	721.62
639.6	719.28
640.015	635.02
640.43	651.4
640.845	602.25
641.259	590.55
641.674	625.65
642.089	667.78
642.504	550.76
642.918	623.31
643.333	609.27
643.747	639.7
644.162	599.91
644.576	663.1
644.991	569.48
645.405	543.74
645.819	562.46
646.233	613.95
646.647	616.29
647.061	578.84
647.475	576.5
647.889	520.33
648.303	630.34
648.717	630.34
649.131	625.65
649.545	611.61
649.958	620.97
650.372	637.36
650.785	501.61
651.199	578.84
651.612	534.37
652.026	604.59
652.439	595.23
652.852	546.08
653.266	649.06
653.679	637.36
654.092	630.34
654.505	644.38
654.918	590.55
655.331	660.76
655.744	618.63
656.156	637.36
656.569	663.1
656.982	688.85
657.394	639.7
657.807	730.98
658.22	698.21
658.632	644.38
659.044	663.1
659.457	590.55
659.869	609.27
660.281	546.08
660.693	550.76
661.106	597.57
661.518	576.5
661.93	567.14
662.342	562.46
662.754	574.16
663.165	550.76
663.577	583.52
663.989	522.67
664.401	506.29
664.812	618.63
665.224	625.65
665.635	557.78
666.047	517.99
666.458	576.5
666.869	468.84
667.281	513.31
667.692	555.44
668.103	543.74
668.514	536.71
668.925	562.46
669.336	555.44
669.747	553.1
670.158	618.63
670.569	609.27
670.979	520.33
671.39	543.74
671.801	562.46
672.211	567.14
672.622	557.78
673.032	546.08
673.443	525.01
673.853	473.52
674.263	569.48
674.674	583.52
675.084	539.05
675.494	557.78
675.904	508.63
676.314	433.73
676.724	515.65
677.134	522.67
677.544	517.99
677.953	492.24
678.363	454.8
678.773	520.33
679.182	466.5
679.592	482.88
680.001	527.35
680.411	485.22
680.82	447.77
681.23	550.76
681.639	499.27
682.048	529.69
682.457	489.9
682.866	485.22
683.275	499.27
683.684	520.33
684.093	550.76
684.502	529.69
684.911	494.58
685.32	553.1
685.728	527.35
686.137	499.27
686.546	522.67
686.954	489.9
687.363	548.42
687.771	487.56
688.179	520.33
688.588	494.58
688.996	431.39
689.404	503.95
689.812	501.61
690.22	574.16
690.628	564.8
691.036	529.69
691.444	499.27
691.852	489.9
692.26	468.84
692.667	450.11
693.075	503.95
693.483	515.65
693.89	510.97
694.298	553.1
694.705	393.94
695.112	489.9
695.52	553.1
695.927	513.31
696.334	459.48
696.741	496.92
697.148	487.56
697.555	539.05
697.962	475.86
698.369	492.24
698.776	482.88
699.183	464.16
699.59	489.9
699.996	560.12
700.403	447.77
700.81	447.77
701.216	443.09
701.623	539.05
702.029	480.54
702.435	532.03
702.842	536.71
703.248	562.46
703.654	541.4
704.06	702.89
704.466	747.36
704.872	693.53
705.278	679.49
705.684	719.28
706.09	627.99
706.496	658.42
706.901	674.81
707.307	620.97
707.712	532.03
708.118	464.16
708.523	478.2
708.929	445.43
709.334	445.43
709.74	415.01
710.145	452.45
710.55	407.98
710.955	433.73
711.36	443.09
711.765	478.2
712.17	482.88
712.575	475.86
712.98	932.26
713.385	496.92
713.789	393.94
714.194	471.18
714.599	447.77
715.003	410.33
715.408	412.67
715.812	440.75
716.217	417.35
716.621	471.18
717.025	424.37
717.429	454.8
717.833	445.43
718.238	363.51
718.642	379.9
719.046	422.03
719.449	410.33
719.853	447.77
720.257	382.24
720.661	415.01
721.065	440.75
721.468	415.01
721.872	377.56
722.275	396.28
722.679	356.49
723.082	403.3
723.485	412.67
723.889	365.85
724.292	417.35
724.695	403.3
725.098	398.62
725.501	389.26
725.904	436.07
726.307	400.96
726.71	393.94
727.113	415.01
727.516	410.33
727.918	396.28
728.321	419.69
728.724	454.8
729.126	319.04
729.529	368.2
729.931	365.85
730.333	415.01
730.736	410.33
731.138	407.98
731.54	426.71
731.942	342.45
732.344	379.9
732.746	344.79
733.148	377.56
733.55	372.88
733.952	396.28
734.354	419.69
734.756	443.09
735.157	445.43
735.559	415.01
735.96	384.58
736.362	363.51
736.763	407.98
737.165	433.73
737.566	351.81
737.967	333.09
738.368	358.83
738.77	377.56
739.171	370.54
739.572	386.92
739.973	358.83
740.374	365.85
740.774	361.17
741.175	344.79
741.576	417.35
741.977	403.3
742.377	436.07
742.778	386.92
743.178	377.56
743.579	396.28
743.979	412.67
744.379	433.73
744.78	398.62
745.18	436.07
745.58	403.3
745.98	464.16
746.38	436.07
746.78	410.33
747.18	400.96
747.58	459.48
747.98	410.33
748.38	419.69
748.779	419.69
749.179	386.92
749.578	356.49
749.978	396.28
750.377	405.64
750.777	386.92
751.176	426.71
751.575	356.49
751.975	407.98
752.374	347.13
752.773	407.98
753.172	391.6
753.571	337.77
753.97	415.01
754.369	389.26
754.768	410.33
755.166	344.79
755.565	375.22
755.964	351.81
756.362	358.83
756.761	391.6
757.159	344.79
757.558	328.41
757.956	433.73
758.354	375.22
758.753	312.02
759.151	363.51
759.549	361.17
759.947	328.41
760.345	333.09
760.743	365.85
761.141	396.28
761.539	424.37
761.936	398.62
762.334	297.98
762.732	384.58
763.129	342.45
763.527	393.94
763.924	386.92
764.322	386.92
764.719	379.9
765.117	349.47
765.514	356.49
765.911	333.09
766.308	305
766.705	358.83
767.102	412.67
767.499	389.26
767.896	386.92
768.293	405.64
768.69	379.9
769.086	314.36
769.483	340.11
769.88	276.91
770.276	328.41
770.673	386.92
771.069	330.75
771.466	361.17
771.862	307.34
772.258	356.49
772.654	342.45
773.05	375.22
773.447	368.2
773.843	354.15
774.239	333.09
774.634	288.62
775.03	375.22
775.426	379.9
775.822	415.01
776.218	391.6
776.613	354.15
777.009	426.71
777.404	447.77
777.8	337.77
778.195	382.24
778.59	466.5
778.986	358.83
779.381	326.07
779.776	375.22
780.171	358.83
780.566	377.56
780.961	342.45
781.356	400.96
781.751	365.85
782.146	305
782.54	351.81
782.935	377.56
783.33	340.11
783.724	309.68
784.119	363.51
784.513	265.21
784.908	347.13
785.302	361.17
785.696	309.68
786.09	354.15
786.485	319.04
786.879	323.73
787.273	335.43
787.667	482.88
788.061	335.43
788.454	337.77
788.848	316.7
789.242	330.75
789.636	368.2
790.029	312.02
790.423	305
790.816	400.96
791.21	305
791.603	351.81
791.997	356.49
792.39	358.83
792.783	368.2
793.176	372.88
793.569	354.15
793.962	267.55
794.355	370.54
794.748	337.77
795.141	349.47
795.534	321.38
795.927	316.7
796.319	358.83
796.712	314.36
797.105	290.96
797.497	323.73
797.89	330.75
798.282	342.45
798.674	377.56
799.067	356.49
799.459	349.47
799.851	309.68
800.243	335.43
800.635	328.41
801.027	375.22
801.419	319.04
801.811	319.04
802.203	274.57
802.594	328.41
802.986	361.17
803.378	365.85
803.769	272.23
804.161	328.41
804.552	272.23
804.944	326.07
805.335	347.13
805.726	347.13
806.118	328.41
806.509	309.68
806.9	386.92
807.291	365.85
807.682	323.73
808.073	290.96
808.464	333.09
808.855	347.13
809.245	323.73
809.636	363.51
810.027	384.58
810.417	316.7
810.808	314.36
811.198	260.53
811.589	321.38
811.979	305
812.369	372.88
812.759	358.83
813.15	326.07
813.54	262.87
813.93	316.7
814.32	335.43
814.71	365.85
815.1	344.79
815.489	333.09
815.879	344.79
816.269	349.47
816.658	295.64
817.048	340.11
817.438	293.3
817.827	312.02
818.216	295.64
818.606	344.79
818.995	295.64
819.384	276.91
819.773	309.68
820.163	340.11
820.552	335.43
820.941	419.69
821.33	391.6
821.718	389.26
822.107	347.13
822.496	349.47
822.885	335.43
823.273	382.24
823.662	344.79
824.05	333.09
824.439	365.85
824.827	302.66
825.216	326.07
825.604	321.38
825.992	344.79
826.38	347.13
826.768	309.68
827.156	386.92
827.544	253.51
827.932	354.15
828.32	393.94
828.708	319.04
829.096	351.81
829.483	290.96
829.871	349.47
830.259	370.54
830.646	319.04
831.034	340.11
831.421	323.73
831.808	375.22
832.196	340.11
832.583	295.64
832.97	300.32
833.357	293.3
833.744	248.83
834.131	342.45
834.518	302.66
834.905	356.49
835.292	286.28
835.678	349.47
836.065	307.34
836.452	337.77
836.838	351.81
837.225	326.07
837.611	333.09
837.998	335.43
838.384	239.47
838.77	288.62
839.157	269.89
839.543	297.98
839.929	363.51
840.315	326.07
840.701	326.07
841.087	269.89
841.473	288.62
841.858	251.17
842.244	307.34
842.63	312.02
843.015	316.7
843.401	611.61
843.787	363.51
844.172	316.7
844.557	309.68
844.943	368.2
845.328	356.49
845.713	288.62
846.098	302.66
846.483	267.55
846.868	323.73
847.253	323.73
847.638	232.44
848.023	305
848.408	335.43
848.793	335.43
849.177	316.7
849.562	326.07
849.947	316.7
850.331	344.79
850.715	335.43
851.1	340.11
851.484	307.34
851.868	358.83
852.253	349.47
852.637	316.7
853.021	314.36
853.405	330.75
853.789	337.77
854.173	347.13
854.557	354.15
854.94	283.94
855.324	333.09
855.708	300.32
856.091	333.09
856.475	354.15
856.858	314.36
857.242	326.07
857.625	276.91
858.009	326.07
858.392	269.89
858.775	363.51
859.158	260.53
859.541	349.47
859.924	316.7
860.307	396.28
860.69	344.79
861.073	279.26
861.456	290.96
861.838	363.51
862.221	347.13
862.604	302.66
862.986	227.76
863.369	323.73
863.751	349.47
864.133	356.49
864.516	337.77
864.898	258.19
865.28	321.38
865.662	314.36
866.044	351.81
866.426	323.73
866.808	326.07
867.19	361.17
867.572	297.98
867.954	349.47
868.336	326.07
868.717	302.66
869.099	386.92
869.48	316.7
869.862	314.36
870.243	354.15
870.625	262.87
871.006	342.45
871.387	330.75
871.768	368.2
872.149	251.17
872.53	276.91
872.911	302.66
873.292	347.13
873.673	361.17
874.054	340.11
874.435	269.89
874.815	356.49
875.196	248.83
875.577	316.7
875.957	295.64
876.338	358.83
876.718	295.64
877.098	340.11
877.479	335.43
877.859	372.88
878.239	337.77
878.619	274.57
878.999	319.04
879.379	297.98
879.759	227.76
880.139	305
880.519	333.09
880.898	253.51
881.278	326.07
881.658	337.77
882.037	326.07
882.417	288.62
882.796	281.6
883.176	358.83
883.555	281.6
883.934	354.15
884.313	377.56
884.693	300.32
885.072	258.19
885.451	328.41
885.83	293.3
886.209	314.36
886.587	314.36
886.966	293.3
887.345	328.41
887.724	262.87
888.102	316.7
888.481	330.75
888.859	305
889.238	267.55
889.616	286.28
889.994	293.3
890.373	253.51
890.751	326.07
891.129	316.7
891.507	321.38
891.885	290.96
892.263	319.04
892.641	307.34
893.019	316.7
893.396	248.83
893.774	351.81
894.152	286.28
894.529	279.26
894.907	265.21
895.284	251.17
895.662	330.75
896.039	312.02
896.416	293.3
896.794	342.45
897.171	293.3
897.548	295.64
897.925	365.85
898.302	262.87
898.679	340.11
899.056	295.64
899.433	302.66
899.809	239.47
900.186	290.96
900.563	328.41
900.939	321.38
901.316	309.68
901.692	265.21
902.069	276.91
902.445	342.45
902.821	361.17
903.197	281.6
903.574	305
903.95	312.02
904.326	232.44
904.702	293.3
905.078	281.6
905.454	363.51
905.829	272.23
906.205	293.3
906.581	258.19
906.956	290.96
907.332	274.57
907.707	276.91
908.083	309.68
908.458	302.66
908.833	286.28
909.209	319.04
909.584	307.34
909.959	314.36
910.334	319.04
910.709	349.47
911.084	328.41
911.459	302.66
911.834	354.15
912.209	300.32
912.583	272.23
912.958	300.32
913.333	295.64
913.707	326.07
914.082	314.36
914.456	370.54
914.83	342.45
915.205	382.24
915.579	288.62
915.953	307.34
916.327	297.98
916.701	316.7
917.075	326.07
917.449	344.79
917.823	293.3
918.197	297.98
918.571	279.26
918.944	321.38
919.318	302.66
919.692	295.64
920.065	368.2
920.438	307.34
920.812	267.55
921.185	328.41
921.558	283.94
921.932	281.6
922.305	246.49
922.678	335.43
923.051	305
923.424	323.73
923.797	258.19
924.17	323.73
924.542	326.07
924.915	335.43
925.288	260.53
925.661	279.26
926.033	340.11
926.406	326.07
926.778	363.51
927.15	297.98
927.523	321.38
927.895	305
928.267	354.15
928.639	283.94
929.011	297.98
929.383	276.91
929.755	330.75
930.127	377.56
930.499	286.28
930.871	330.75
931.242	293.3
931.614	309.68
931.986	323.73
932.357	307.34
932.729	314.36
933.1	379.9
933.471	314.36
933.843	269.89
934.214	321.38
934.585	307.34
934.956	288.62
935.327	330.75
935.698	283.94
936.069	295.64
936.44	335.43
936.811	316.7
937.182	239.47
937.552	295.64
937.923	335.43
938.293	340.11
938.664	288.62
939.034	241.81
939.405	326.07
939.775	302.66
940.145	290.96
940.516	330.75
940.886	283.94
941.256	269.89
941.626	276.91
941.996	305
942.366	347.13
942.735	276.91
943.105	241.81
943.475	326.07
943.845	321.38
944.214	305
944.584	265.21
944.953	368.2
945.323	297.98
945.692	248.83
946.061	316.7
946.43	281.6
946.8	323.73
947.169	288.62
947.538	283.94
947.907	312.02
948.276	319.04
948.645	255.85
949.013	326.07
949.382	262.87
949.751	234.78
950.119	300.32
950.488	347.13
950.857	269.89
951.225	248.83
951.593	300.32
951.962	300.32
952.33	286.28
952.698	340.11
953.066	344.79
953.434	305
953.802	309.68
954.17	312.02
954.538	319.04
954.906	297.98
955.274	335.43
955.642	295.64
956.009	272.23
956.377	347.13
956.744	279.26
957.112	283.94
957.479	279.26
957.847	398.62
958.214	290.96
958.581	316.7
958.948	309.68
959.315	330.75
959.683	316.7
960.05	403.3
960.416	297.98
960.783	267.55
961.15	309.68
961.517	297.98
961.884	286.28
962.25	227.76
962.617	302.66
962.983	253.51
963.35	293.3
963.716	321.38
964.082	319.04
964.449	290.96
964.815	314.36
965.181	286.28
965.547	309.68
965.913	314.36
966.279	314.36
966.645	307.34
967.011	340.11
967.377	361.17
967.742	269.89
968.108	335.43
968.474	340.11
968.839	361.17
969.205	354.15
969.57	307.34
969.935	354.15
970.301	230.1
970.666	227.76
971.031	255.85
971.396	335.43
971.761	297.98
972.126	344.79
972.491	333.09
972.856	384.58
973.221	283.94
973.586	269.89
973.95	297.98
974.315	344.79
974.679	337.77
975.044	309.68
975.408	288.62
975.773	307.34
976.137	265.21
976.501	319.04
976.866	398.62
977.23	316.7
977.594	302.66
977.958	314.36
978.322	295.64
978.686	265.21
979.049	330.75
979.413	398.62
979.777	302.66
980.141	312.02
980.504	286.28
980.868	319.04
981.231	293.3
981.595	295.64
981.958	403.3
982.321	349.47
982.684	272.23
983.048	281.6
983.411	335.43
983.774	300.32
984.137	305
984.5	347.13
984.862	276.91
985.225	321.38
985.588	286.28
985.951	307.34
986.313	389.26
986.676	288.62
987.038	272.23
987.401	307.34
987.763	307.34
988.125	372.88
988.488	297.98
988.85	267.55
989.212	297.98
989.574	307.34
989.936	316.7
990.298	297.98
990.66	330.75
991.022	288.62
991.383	237.13
991.745	307.34
992.107	283.94
992.468	319.04
992.83	283.94
993.191	309.68
993.553	283.94
993.914	342.45
994.275	328.41
994.637	342.45
994.998	328.41
995.359	314.36
995.72	288.62
996.081	272.23
996.442	307.34
996.803	342.45
997.163	344.79
997.524	307.34
997.885	267.55
998.245	223.08
998.606	283.94
998.966	269.89
999.327	302.66
999.687	321.38
1000.047	274.57
1000.408	323.73
1000.768	293.3
1001.128	248.83
1001.488	258.19
1001.848	272.23
1002.208	232.44
1002.568	216.06
1002.927	199.68
1003.287	283.94
1003.647	258.19
1004.007	344.79
1004.366	314.36
1004.726	295.64
1005.085	300.32
1005.444	372.88
1005.804	344.79
1006.163	297.98
1006.522	293.3
1006.881	276.91
1007.24	386.92
1007.599	307.34
1007.958	274.57
1008.317	319.04
1008.676	307.34
1009.035	412.67
1009.393	363.51
1009.752	305
1010.111	267.55
1010.469	321.38
1010.828	295.64
1011.186	302.66
1011.544	340.11
1011.903	227.76
1012.261	319.04
1012.619	288.62
1012.977	328.41
1013.335	286.28
1013.693	276.91
1014.051	337.77
1014.409	321.38
1014.767	295.64
1015.124	293.3
1015.482	312.02
1015.84	422.03
1016.197	286.28
1016.555	326.07
1016.912	267.55
1017.269	328.41
1017.627	333.09
1017.984	293.3
1018.341	237.13
1018.698	316.7
1019.055	375.22
1019.412	307.34
1019.769	300.32
1020.126	333.09
1020.483	321.38
1020.84	314.36
1021.196	330.75
1021.553	286.28
1021.909	232.44
1022.266	281.6
1022.622	307.34
1022.979	342.45
1023.335	297.98
1023.691	358.83
1024.047	347.13
1024.404	293.3
1024.76	283.94
1025.116	330.75
1025.472	248.83
1025.827	319.04
1026.183	295.64
1026.539	295.64
1026.895	267.55
1027.25	302.66
1027.606	300.32
1027.961	302.66
1028.317	246.49
1028.672	246.49
1029.028	328.41
1029.383	319.04
1029.738	314.36
1030.093	258.19
1030.448	351.81
1030.803	314.36
1031.158	328.41
1031.513	293.3
1031.868	209.04
1032.223	274.57
1032.577	316.7
1032.932	248.83
1033.287	347.13
1033.641	314.36
1033.996	281.6
1034.35	288.62
1034.704	274.57
1035.059	319.04
1035.413	255.85
1035.767	255.85
1036.121	255.85
