Data from Al_FLMS009871__803__15-24-56-307.txt Node

Date: Fri Mar 08 15:24:56 CST 2024
User: pe5414po
Spectrometer: FLMS00987
Trigger mode: 0
Integration Time (sec): 1.000000E-1
Scans to average: 1
Electric dark correction enabled: true
Nonlinearity correction enabled: false
Boxcar width: 0
XAxis mode: Wavelengths
Number of Pixels in Spectrum: 2048
>>>>>Begin Spectral Data<<<<<
188.938	-117.32
189.409	-117.32
189.879	-117.32
190.349	-150.09
190.819	-91.57
191.29	-112.64
191.76	-89.23
192.23	-61.15
192.7	-68.17
193.17	-93.91
193.64	-86.89
194.109	-4.97
194.579	18.43
195.049	-30.72
195.519	-12
195.988	58.22
196.458	46.52
196.927	67.58
197.397	142.48
197.866	119.07
198.336	107.37
198.805	156.52
199.274	116.73
199.744	116.73
200.213	128.44
200.682	140.14
201.151	189.29
201.62	252.49
202.089	252.49
202.558	217.38
203.027	179.93
203.495	252.49
203.964	193.97
204.433	268.87
204.902	238.44
205.37	229.08
205.839	250.14
206.307	287.59
206.776	254.83
207.244	271.21
207.712	229.08
208.181	254.83
208.649	273.55
209.117	271.21
209.585	306.32
210.053	247.8
210.521	313.34
210.989	280.57
211.457	264.19
211.925	282.91
212.393	247.8
212.861	266.53
213.328	231.42
213.796	285.25
214.264	224.4
214.731	252.49
215.199	261.85
215.666	287.59
216.133	219.72
216.601	268.87
217.068	292.27
217.535	245.46
218.003	212.7
218.47	275.89
218.937	278.23
219.404	289.93
219.871	243.12
220.338	254.83
220.805	196.31
221.271	273.55
221.738	208.02
222.205	217.38
222.671	261.85
223.138	179.93
223.605	243.12
224.071	247.8
224.538	243.12
225.004	245.46
225.47	271.21
225.937	273.55
226.403	261.85
226.869	292.27
227.335	196.31
227.801	226.74
228.267	219.72
228.733	245.46
229.199	233.76
229.665	254.83
230.131	252.49
230.597	252.49
231.062	238.44
231.528	240.78
231.994	350.79
232.459	259.51
232.925	287.59
233.39	229.08
233.856	268.87
234.321	261.85
234.786	259.51
235.252	240.78
235.717	243.12
236.182	287.59
236.647	268.87
237.112	240.78
237.577	278.23
238.042	315.68
238.507	217.38
238.972	259.51
239.436	222.06
239.901	198.65
240.366	222.06
240.83	285.25
241.295	264.19
241.76	264.19
242.224	233.76
242.688	222.06
243.153	247.8
243.617	247.8
244.081	294.61
244.545	217.38
245.01	222.06
245.474	266.53
245.938	257.17
246.402	247.8
246.866	210.36
247.33	292.27
247.793	247.8
248.257	247.8
248.721	308.66
249.185	322.7
249.648	257.17
250.112	303.98
250.575	313.34
251.039	193.97
251.502	285.25
251.965	261.85
252.429	224.4
252.892	355.47
253.355	282.91
253.818	261.85
254.281	259.51
254.744	273.55
255.207	325.04
255.67	332.06
256.133	264.19
256.596	250.14
257.059	229.08
257.522	282.91
257.984	238.44
258.447	238.44
258.909	296.96
259.372	191.63
259.834	229.08
260.297	224.4
260.759	266.53
261.221	287.59
261.684	332.06
262.146	289.93
262.608	264.19
263.07	280.57
263.532	259.51
263.994	350.79
264.456	301.64
264.918	322.7
265.38	236.1
265.842	287.59
266.303	275.89
266.765	294.61
267.227	266.53
267.688	257.17
268.15	250.14
268.611	285.25
269.072	299.3
269.534	313.34
269.995	247.8
270.456	273.55
270.918	257.17
271.379	287.59
271.84	318.02
272.301	233.76
272.762	318.02
273.223	280.57
273.684	273.55
274.144	226.74
274.605	278.23
275.066	240.78
275.527	273.55
275.987	280.57
276.448	266.53
276.908	264.19
277.369	268.87
277.829	200.99
278.289	287.59
278.75	303.98
279.21	233.76
279.67	278.23
280.13	294.61
280.59	278.23
281.05	313.34
281.51	268.87
281.97	287.59
282.43	299.3
282.89	292.27
283.35	266.53
283.809	278.23
284.269	278.23
284.729	292.27
285.188	308.66
285.648	313.34
286.107	264.19
286.567	287.59
287.026	266.53
287.485	329.72
287.944	238.44
288.404	289.93
288.863	212.7
289.322	271.21
289.781	257.17
290.24	257.17
290.699	273.55
291.158	278.23
291.616	287.59
292.075	275.89
292.534	280.57
292.992	252.49
293.451	296.96
293.91	264.19
294.368	308.66
294.827	273.55
295.285	254.83
295.743	222.06
296.202	257.17
296.66	329.72
297.118	341.43
297.576	303.98
298.034	287.59
298.492	271.21
298.95	233.76
299.408	327.38
299.866	252.49
300.324	296.96
300.781	259.51
301.239	240.78
301.697	231.42
302.154	357.81
302.612	264.19
303.069	273.55
303.527	268.87
303.984	306.32
304.441	247.8
304.899	261.85
305.356	275.89
305.813	264.19
306.27	264.19
306.727	266.53
307.184	362.49
307.641	285.25
308.098	346.11
308.555	243.12
309.012	271.21
309.468	367.17
309.925	341.43
310.382	311
310.838	301.64
311.295	320.36
311.751	285.25
312.208	243.12
312.664	280.57
313.12	346.11
313.577	243.12
314.033	346.11
314.489	254.83
314.945	301.64
315.401	268.87
315.857	311
316.313	325.04
316.769	285.25
317.225	336.74
317.681	292.27
318.136	261.85
318.592	282.91
319.048	233.76
319.503	212.7
319.959	318.02
320.414	268.87
320.869	294.61
321.325	311
321.78	329.72
322.235	268.87
322.691	259.51
323.146	299.3
323.601	285.25
324.056	285.25
324.511	306.32
324.966	259.51
325.421	254.83
325.875	275.89
326.33	318.02
326.785	296.96
327.24	250.14
327.694	280.57
328.149	289.93
328.603	259.51
329.058	306.32
329.512	329.72
329.966	278.23
330.421	282.91
330.875	250.14
331.329	222.06
331.783	364.83
332.237	259.51
332.691	308.66
333.145	287.59
333.599	268.87
334.053	287.59
334.507	282.91
334.96	278.23
335.414	292.27
335.868	287.59
336.321	236.1
336.775	289.93
337.228	325.04
337.682	266.53
338.135	311
338.588	247.8
339.042	339.09
339.495	231.42
339.948	341.43
340.401	289.93
340.854	289.93
341.307	322.7
341.76	287.59
342.213	266.53
342.666	301.64
343.119	311
343.571	247.8
344.024	292.27
344.477	299.3
344.929	303.98
345.382	308.66
345.834	271.21
346.287	271.21
346.739	296.96
347.191	285.25
347.644	236.1
348.096	278.23
348.548	353.13
349	273.55
349.452	252.49
349.904	406.96
350.356	315.68
350.808	282.91
351.26	322.7
351.711	282.91
352.163	336.74
352.615	273.55
353.066	243.12
353.518	332.06
353.969	275.89
354.421	278.23
354.872	275.89
355.324	315.68
355.775	210.36
356.226	224.4
356.677	301.64
357.128	233.76
357.579	240.78
358.03	322.7
358.481	315.68
358.932	247.8
359.383	301.64
359.834	325.04
360.285	299.3
360.735	296.96
361.186	322.7
361.637	280.57
362.087	315.68
362.538	329.72
362.988	278.23
363.438	280.57
363.889	264.19
364.339	348.45
364.789	285.25
365.239	306.32
365.689	315.68
366.139	318.02
366.589	271.21
367.039	374.19
367.489	236.1
367.939	273.55
368.389	301.64
368.839	315.68
369.288	273.55
369.738	303.98
370.187	261.85
370.637	327.38
371.086	399.94
371.536	332.06
371.985	285.25
372.434	320.36
372.884	311
373.333	301.64
373.782	257.17
374.231	299.3
374.68	308.66
375.129	308.66
375.578	308.66
376.027	252.49
376.475	264.19
376.924	311
377.373	287.59
377.822	315.68
378.27	334.4
378.719	299.3
379.167	294.61
379.616	348.45
380.064	264.19
380.512	268.87
380.961	296.96
381.409	280.57
381.857	308.66
382.305	299.3
382.753	339.09
383.201	226.74
383.649	320.36
384.097	287.59
384.545	268.87
384.992	271.21
385.44	313.34
385.888	275.89
386.335	296.96
386.783	296.96
387.231	254.83
387.678	289.93
388.125	308.66
388.573	320.36
389.02	296.96
389.467	280.57
389.914	231.42
390.362	222.06
390.809	308.66
391.256	278.23
391.703	320.36
392.15	301.64
392.596	296.96
393.043	325.04
393.49	287.59
393.937	299.3
394.383	261.85
394.83	250.14
395.276	409.3
395.723	296.96
396.169	339.09
396.616	315.68
397.062	273.55
397.508	311
397.954	320.36
398.401	313.34
398.847	311
399.293	332.06
399.739	355.47
400.185	229.08
400.631	285.25
401.076	322.7
401.522	308.66
401.968	325.04
402.414	322.7
402.859	271.21
403.305	289.93
403.75	282.91
404.196	273.55
404.641	285.25
405.086	301.64
405.532	301.64
405.977	261.85
406.422	322.7
406.867	318.02
407.312	257.17
407.757	289.93
408.202	282.91
408.647	285.25
409.092	226.74
409.537	215.04
409.982	245.46
410.426	303.98
410.871	280.57
411.316	289.93
411.76	268.87
412.205	341.43
412.649	303.98
413.093	348.45
413.538	292.27
413.982	315.68
414.426	233.76
414.87	285.25
415.314	341.43
415.758	299.3
416.202	292.27
416.646	315.68
417.09	280.57
417.534	280.57
417.978	287.59
418.421	322.7
418.865	315.68
419.309	287.59
419.752	292.27
420.196	348.45
420.639	322.7
421.083	268.87
421.526	306.32
421.969	289.93
422.412	252.49
422.856	318.02
423.299	329.72
423.742	334.4
424.185	306.32
424.628	301.64
425.071	296.96
425.513	294.61
425.956	282.91
426.399	315.68
426.842	303.98
427.284	259.51
427.727	332.06
428.169	318.02
428.612	292.27
429.054	275.89
429.497	273.55
429.939	374.19
430.381	325.04
430.823	299.3
431.265	327.38
431.707	336.74
432.149	311
432.591	301.64
433.033	325.04
433.475	264.19
433.917	329.72
434.359	332.06
434.8	294.61
435.242	287.59
435.684	257.17
436.125	257.17
436.567	350.79
437.008	252.49
437.449	334.4
437.891	280.57
438.332	327.38
438.773	257.17
439.214	278.23
439.656	325.04
440.097	353.13
440.538	325.04
440.978	303.98
441.419	226.74
441.86	240.78
442.301	306.32
442.742	339.09
443.182	285.25
443.623	303.98
444.063	296.96
444.504	273.55
444.944	280.57
445.385	360.15
445.825	303.98
446.265	353.13
446.706	336.74
447.146	222.06
447.586	299.3
448.026	332.06
448.466	278.23
448.906	329.72
449.346	357.81
449.786	268.87
450.225	285.25
450.665	315.68
451.105	346.11
451.544	322.7
451.984	306.32
452.424	266.53
452.863	296.96
453.302	296.96
453.742	308.66
454.181	208.02
454.62	299.3
455.059	315.68
455.499	282.91
455.938	292.27
456.377	271.21
456.816	325.04
457.254	329.72
457.693	308.66
458.132	332.06
458.571	296.96
459.01	264.19
459.448	313.34
459.887	301.64
460.325	383.56
460.764	329.72
461.202	285.25
461.641	275.89
462.079	289.93
462.517	325.04
462.955	388.24
463.393	327.38
463.832	271.21
464.27	357.81
464.708	348.45
465.145	294.61
465.583	325.04
466.021	301.64
466.459	280.57
466.897	341.43
467.334	332.06
467.772	250.14
468.209	289.93
468.647	184.61
469.084	360.15
469.522	280.57
469.959	315.68
470.396	292.27
470.833	339.09
471.271	289.93
471.708	287.59
472.145	343.77
472.582	313.34
473.019	275.89
473.456	301.64
473.892	292.27
474.329	296.96
474.766	261.85
475.202	280.57
475.639	322.7
476.076	327.38
476.512	278.23
476.949	236.1
477.385	282.91
477.821	299.3
478.258	315.68
478.694	250.14
479.13	303.98
479.566	360.15
480.002	292.27
480.438	287.59
480.874	329.72
481.31	346.11
481.746	271.21
482.181	327.38
482.617	296.96
483.053	336.74
483.488	273.55
483.924	306.32
484.36	250.14
484.795	296.96
485.23	325.04
485.666	285.25
486.101	320.36
486.536	292.27
486.971	278.23
487.407	311
487.842	299.3
488.277	327.38
488.712	308.66
489.146	268.87
489.581	215.04
490.016	334.4
490.451	301.64
490.885	287.59
491.32	254.83
491.755	296.96
492.189	292.27
492.624	332.06
493.058	315.68
493.492	294.61
493.927	339.09
494.361	243.12
494.795	275.89
495.229	287.59
495.663	289.93
496.097	271.21
496.531	381.21
496.965	285.25
497.399	268.87
497.833	339.09
498.266	343.77
498.7	292.27
499.134	341.43
499.567	311
500.001	280.57
500.434	311
500.868	299.3
501.301	289.93
501.734	299.3
502.168	348.45
502.601	294.61
503.034	339.09
503.467	264.19
503.9	339.09
504.333	303.98
504.766	271.21
505.199	350.79
505.632	327.38
506.064	332.06
506.497	318.02
506.93	329.72
507.362	327.38
507.795	325.04
508.227	308.66
508.66	264.19
509.092	289.93
509.524	315.68
509.956	226.74
510.389	278.23
510.821	350.79
511.253	315.68
511.685	259.51
512.117	280.57
512.549	296.96
512.981	369.51
513.412	357.81
513.844	320.36
514.276	306.32
514.707	292.27
515.139	327.38
515.571	289.93
516.002	318.02
516.433	287.59
516.865	233.76
517.296	329.72
517.727	325.04
518.159	306.32
518.59	245.46
519.021	367.17
519.452	229.08
519.883	282.91
520.314	343.77
520.744	289.93
521.175	303.98
521.606	336.74
522.037	313.34
522.467	306.32
522.898	287.59
523.328	336.74
523.759	315.68
524.189	303.98
524.62	325.04
525.05	236.1
525.48	278.23
525.91	357.81
526.341	360.15
526.771	315.68
527.201	313.34
527.631	226.74
528.061	360.15
528.49	346.11
528.92	268.87
529.35	303.98
529.78	289.93
530.209	308.66
530.639	311
531.068	264.19
531.498	233.76
531.927	325.04
532.357	367.17
532.786	271.21
533.215	257.17
533.644	268.87
534.074	320.36
534.503	318.02
534.932	268.87
535.361	261.85
535.79	301.64
536.218	275.89
536.647	376.53
537.076	282.91
537.505	296.96
537.933	271.21
538.362	261.85
538.79	294.61
539.219	285.25
539.647	301.64
540.076	254.83
540.504	278.23
540.932	313.34
541.36	261.85
541.788	350.79
542.217	388.24
542.645	296.96
543.073	308.66
543.5	315.68
543.928	364.83
544.356	341.43
544.784	296.96
545.211	240.78
545.639	287.59
546.067	306.32
546.494	285.25
546.922	278.23
547.349	353.13
547.776	259.51
548.204	287.59
548.631	271.21
549.058	381.21
549.485	264.19
549.912	212.7
550.339	292.27
550.766	287.59
551.193	287.59
551.62	229.08
552.047	292.27
552.474	289.93
552.9	268.87
553.327	273.55
553.754	271.21
554.18	303.98
554.607	320.36
555.033	268.87
555.459	303.98
555.886	278.23
556.312	332.06
556.738	313.34
557.164	306.32
557.59	350.79
558.016	329.72
558.442	350.79
558.868	327.38
559.294	301.64
559.72	346.11
560.145	271.21
560.571	266.53
560.997	282.91
561.422	308.66
561.848	329.72
562.273	287.59
562.699	238.44
563.124	285.25
563.549	315.68
563.974	332.06
564.4	329.72
564.825	332.06
565.25	280.57
565.675	268.87
566.1	285.25
566.525	313.34
566.95	285.25
567.374	292.27
567.799	371.85
568.224	271.21
568.648	257.17
569.073	299.3
569.497	303.98
569.922	264.19
570.346	259.51
570.771	294.61
571.195	245.46
571.619	402.28
572.043	318.02
572.467	348.45
572.891	303.98
573.315	285.25
573.739	311
574.163	278.23
574.587	289.93
575.011	327.38
575.435	341.43
575.858	318.02
576.282	306.32
576.705	301.64
577.129	343.77
577.552	318.02
577.976	348.45
578.399	329.72
578.822	280.57
579.245	339.09
579.669	282.91
580.092	388.24
580.515	332.06
580.938	329.72
581.361	318.02
581.784	294.61
582.206	308.66
582.629	233.76
583.052	247.8
583.474	325.04
583.897	364.83
584.32	306.32
584.742	334.4
585.165	313.34
585.587	273.55
586.009	320.36
586.431	301.64
586.854	320.36
587.276	257.17
587.698	280.57
588.12	322.7
588.542	275.89
588.964	275.89
589.386	299.3
589.807	311
590.229	219.72
590.651	271.21
591.073	294.61
591.494	222.06
591.916	341.43
592.337	294.61
592.759	254.83
593.18	313.34
593.601	362.49
594.022	285.25
594.444	271.21
594.865	252.49
595.286	308.66
595.707	348.45
596.128	303.98
596.549	311
596.97	325.04
597.39	217.38
597.811	332.06
598.232	261.85
598.652	355.47
599.073	329.72
599.494	275.89
599.914	294.61
600.334	254.83
600.755	296.96
601.175	327.38
601.595	266.53
602.015	289.93
602.436	266.53
602.856	428.03
603.276	301.64
603.696	299.3
604.115	329.72
604.535	252.49
604.955	296.96
605.375	261.85
605.794	315.68
606.214	308.66
606.634	301.64
607.053	311
607.473	348.45
607.892	306.32
608.311	357.81
608.731	299.3
609.15	327.38
609.569	322.7
609.988	296.96
610.407	355.47
610.826	264.19
611.245	339.09
611.664	364.83
612.083	296.96
612.501	306.32
612.92	392.92
613.339	318.02
613.757	278.23
614.176	301.64
614.594	296.96
615.013	264.19
615.431	311
615.85	240.78
616.268	289.93
616.686	325.04
617.104	308.66
617.522	341.43
617.94	353.13
618.358	226.74
618.776	311
619.194	311
619.612	275.89
620.03	329.72
620.447	318.02
620.865	322.7
621.282	261.85
621.7	205.67
622.117	303.98
622.535	301.64
622.952	275.89
623.369	325.04
623.787	357.81
624.204	271.21
624.621	257.17
625.038	332.06
625.455	250.14
625.872	318.02
626.289	301.64
626.706	346.11
627.123	275.89
627.539	296.96
627.956	339.09
628.373	233.76
628.789	245.46
629.206	303.98
629.622	306.32
630.038	257.17
630.455	259.51
630.871	219.72
631.287	266.53
631.703	268.87
632.12	308.66
632.536	296.96
632.952	303.98
633.368	215.04
633.783	306.32
634.199	320.36
634.615	357.81
635.031	299.3
635.446	282.91
635.862	311
636.277	374.19
636.693	280.57
637.108	334.4
637.524	346.11
637.939	280.57
638.354	245.46
638.77	367.17
639.185	311
639.6	409.3
640.015	278.23
640.43	229.08
640.845	341.43
641.259	271.21
641.674	325.04
642.089	268.87
642.504	275.89
642.918	275.89
643.333	311
643.747	287.59
644.162	348.45
644.576	303.98
644.991	285.25
645.405	322.7
645.819	296.96
646.233	355.47
646.647	285.25
647.061	247.8
647.475	336.74
647.889	259.51
648.303	325.04
648.717	355.47
649.131	308.66
649.545	273.55
649.958	306.32
650.372	282.91
650.785	268.87
651.199	231.42
651.612	280.57
652.026	325.04
652.439	271.21
652.852	296.96
653.266	339.09
653.679	320.36
654.092	278.23
654.505	282.91
654.918	306.32
655.331	327.38
655.744	285.25
656.156	296.96
656.569	266.53
656.982	343.77
657.394	268.87
657.807	275.89
658.22	329.72
658.632	289.93
659.044	273.55
659.457	250.14
659.869	271.21
660.281	332.06
660.693	287.59
661.106	360.15
661.518	292.27
661.93	282.91
662.342	374.19
662.754	325.04
663.165	322.7
663.577	229.08
663.989	318.02
664.401	273.55
664.812	311
665.224	294.61
665.635	252.49
666.047	287.59
666.458	294.61
666.869	247.8
667.281	308.66
667.692	301.64
668.103	329.72
668.514	280.57
668.925	303.98
669.336	292.27
669.747	275.89
670.158	346.11
670.569	320.36
670.979	280.57
671.39	336.74
671.801	308.66
672.211	301.64
672.622	280.57
673.032	329.72
673.443	329.72
673.853	273.55
674.263	346.11
674.674	278.23
675.084	280.57
675.494	285.25
675.904	318.02
676.314	292.27
676.724	264.19
677.134	320.36
677.544	285.25
677.953	329.72
678.363	238.44
678.773	318.02
679.182	308.66
679.592	294.61
680.001	289.93
680.411	266.53
680.82	315.68
681.23	250.14
681.639	350.79
682.048	287.59
682.457	266.53
682.866	306.32
683.275	287.59
683.684	299.3
684.093	296.96
684.502	252.49
684.911	301.64
685.32	390.58
685.728	264.19
686.137	334.4
686.546	292.27
686.954	285.25
687.363	254.83
687.771	252.49
688.179	306.32
688.588	238.44
688.996	247.8
689.404	289.93
689.812	334.4
690.22	339.09
690.628	294.61
691.036	238.44
691.444	325.04
691.852	343.77
692.26	332.06
692.667	196.31
693.075	294.61
693.483	264.19
693.89	334.4
694.298	313.34
694.705	390.58
695.112	261.85
695.52	346.11
695.927	282.91
696.334	318.02
696.741	334.4
697.148	240.78
697.555	301.64
697.962	318.02
698.369	301.64
698.776	259.51
699.183	254.83
699.59	271.21
699.996	334.4
700.403	327.38
700.81	287.59
701.216	313.34
701.623	301.64
702.029	306.32
702.435	357.81
702.842	273.55
703.248	294.61
703.654	299.3
704.06	385.9
704.466	364.83
704.872	299.3
705.278	360.15
705.684	226.74
706.09	233.76
706.496	343.77
706.901	282.91
707.307	280.57
707.712	243.12
708.118	343.77
708.523	325.04
708.929	369.51
709.334	268.87
709.74	226.74
710.145	268.87
710.55	240.78
710.955	275.89
711.36	254.83
711.765	247.8
712.17	231.42
712.575	287.59
712.98	772.08
713.385	355.47
713.789	275.89
714.194	311
714.599	306.32
715.003	341.43
715.408	231.42
715.812	285.25
716.217	266.53
716.621	329.72
717.025	252.49
717.429	301.64
717.833	271.21
718.238	275.89
718.642	261.85
719.046	287.59
719.449	313.34
719.853	329.72
720.257	336.74
720.661	278.23
721.065	325.04
721.468	308.66
721.872	257.17
722.275	320.36
722.679	296.96
723.082	311
723.485	301.64
723.889	332.06
724.292	308.66
724.695	287.59
725.098	285.25
725.501	318.02
725.904	261.85
726.307	273.55
726.71	268.87
727.113	327.38
727.516	259.51
727.918	282.91
728.321	322.7
728.724	250.14
729.126	311
729.529	343.77
729.931	299.3
730.333	303.98
730.736	240.78
731.138	280.57
731.54	339.09
731.942	311
732.344	275.89
732.746	287.59
733.148	325.04
733.55	280.57
733.952	257.17
734.354	332.06
734.756	301.64
735.157	254.83
735.559	245.46
735.96	172.91
736.362	308.66
736.763	327.38
737.165	299.3
737.566	313.34
737.967	322.7
738.368	362.49
738.77	311
739.171	292.27
739.572	294.61
739.973	275.89
740.374	357.81
740.774	327.38
741.175	261.85
741.576	318.02
741.977	308.66
742.377	280.57
742.778	296.96
743.178	306.32
743.579	278.23
743.979	320.36
744.379	367.17
744.78	292.27
745.18	259.51
745.58	306.32
745.98	346.11
746.38	327.38
746.78	327.38
747.18	301.64
747.58	357.81
747.98	301.64
748.38	315.68
748.779	301.64
749.179	266.53
749.578	280.57
749.978	252.49
750.377	278.23
750.777	229.08
751.176	285.25
751.575	282.91
751.975	301.64
752.374	245.46
752.773	261.85
753.172	308.66
753.571	308.66
753.97	336.74
754.369	261.85
754.768	296.96
755.166	320.36
755.565	301.64
755.964	268.87
756.362	306.32
756.761	287.59
757.159	280.57
757.558	378.87
757.956	339.09
758.354	282.91
758.753	325.04
759.151	296.96
759.549	318.02
759.947	327.38
760.345	289.93
760.743	236.1
761.141	329.72
761.539	315.68
761.936	325.04
762.334	240.78
762.732	303.98
763.129	322.7
763.527	245.46
763.924	296.96
764.322	306.32
764.719	238.44
765.117	299.3
765.514	299.3
765.911	301.64
766.308	353.13
766.705	299.3
767.102	287.59
767.499	306.32
767.896	280.57
768.293	268.87
768.69	357.81
769.086	301.64
769.483	259.51
769.88	240.78
770.276	320.36
770.673	374.19
771.069	261.85
771.466	287.59
771.862	222.06
772.258	271.21
772.654	306.32
773.05	278.23
773.447	273.55
773.843	320.36
774.239	282.91
774.634	301.64
775.03	292.27
775.426	275.89
775.822	318.02
776.218	285.25
776.613	257.17
777.009	238.44
777.404	271.21
777.8	306.32
778.195	257.17
778.59	243.12
778.986	257.17
779.381	282.91
779.776	282.91
780.171	336.74
780.566	245.46
780.961	257.17
781.356	332.06
781.751	275.89
782.146	268.87
782.54	327.38
782.935	308.66
783.33	303.98
783.724	322.7
784.119	273.55
784.513	325.04
784.908	292.27
785.302	229.08
785.696	271.21
786.09	318.02
786.485	315.68
786.879	247.8
787.273	266.53
787.667	306.32
788.061	301.64
788.454	296.96
788.848	280.57
789.242	275.89
789.636	301.64
790.029	318.02
790.423	301.64
790.816	259.51
791.21	299.3
791.603	261.85
791.997	334.4
792.39	243.12
792.783	296.96
793.176	325.04
793.569	320.36
793.962	329.72
794.355	329.72
794.748	268.87
795.141	306.32
795.534	308.66
795.927	336.74
796.319	285.25
796.712	311
797.105	287.59
797.497	282.91
797.89	254.83
798.282	336.74
798.674	257.17
799.067	273.55
799.459	271.21
799.851	257.17
800.243	296.96
800.635	238.44
801.027	257.17
801.419	329.72
801.811	285.25
802.203	268.87
802.594	308.66
802.986	271.21
803.378	271.21
803.769	280.57
804.161	268.87
804.552	282.91
804.944	231.42
805.335	325.04
805.726	301.64
806.118	254.83
806.509	313.34
806.9	292.27
807.291	301.64
807.682	294.61
808.073	332.06
808.464	369.51
808.855	336.74
809.245	374.19
809.636	266.53
810.027	299.3
810.417	313.34
810.808	343.77
811.198	268.87
811.589	261.85
811.979	254.83
812.369	332.06
812.759	348.45
813.15	306.32
813.54	320.36
813.93	285.25
814.32	332.06
814.71	308.66
815.1	278.23
815.489	257.17
815.879	322.7
816.269	275.89
816.658	264.19
817.048	311
817.438	252.49
817.827	289.93
818.216	322.7
818.606	303.98
818.995	233.76
819.384	231.42
819.773	264.19
820.163	280.57
820.552	336.74
820.941	278.23
821.33	306.32
821.718	224.4
822.107	301.64
822.496	264.19
822.885	306.32
823.273	268.87
823.662	278.23
824.05	322.7
824.439	346.11
824.827	287.59
825.216	320.36
825.604	292.27
825.992	336.74
826.38	315.68
826.768	292.27
827.156	280.57
827.544	341.43
827.932	231.42
828.32	301.64
828.708	266.53
829.096	264.19
829.483	289.93
829.871	301.64
830.259	303.98
830.646	271.21
831.034	252.49
831.421	273.55
831.808	233.76
832.196	280.57
832.583	362.49
832.97	320.36
833.357	294.61
833.744	236.1
834.131	315.68
834.518	357.81
834.905	261.85
835.292	294.61
835.678	294.61
836.065	296.96
836.452	327.38
836.838	325.04
837.225	294.61
837.611	308.66
837.998	315.68
838.384	273.55
838.77	301.64
839.157	275.89
839.543	343.77
839.929	264.19
840.315	350.79
840.701	275.89
841.087	318.02
841.473	306.32
841.858	271.21
842.244	308.66
842.63	224.4
843.015	254.83
843.401	605.91
843.787	390.58
844.172	311
844.557	236.1
844.943	355.47
845.328	287.59
845.713	343.77
846.098	360.15
846.483	303.98
846.868	301.64
847.253	334.4
847.638	353.13
848.023	252.49
848.408	322.7
848.793	341.43
849.177	250.14
849.562	315.68
849.947	287.59
850.331	299.3
850.715	294.61
851.1	273.55
851.484	353.13
851.868	311
852.253	348.45
852.637	303.98
853.021	243.12
853.405	367.17
853.789	280.57
854.173	271.21
854.557	318.02
854.94	278.23
855.324	374.19
855.708	259.51
856.091	259.51
856.475	334.4
856.858	325.04
857.242	343.77
857.625	292.27
858.009	278.23
858.392	278.23
858.775	264.19
859.158	240.78
859.541	271.21
859.924	320.36
860.307	320.36
860.69	322.7
861.073	353.13
861.456	250.14
861.838	303.98
862.221	271.21
862.604	332.06
862.986	287.59
863.369	320.36
863.751	303.98
864.133	282.91
864.516	266.53
864.898	329.72
865.28	285.25
865.662	275.89
866.044	261.85
866.426	238.44
866.808	247.8
867.19	341.43
867.572	313.34
867.954	301.64
868.336	285.25
868.717	271.21
869.099	252.49
869.48	261.85
869.862	346.11
870.243	191.63
870.625	245.46
871.006	306.32
871.387	250.14
871.768	240.78
872.149	303.98
872.53	346.11
872.911	264.19
873.292	301.64
873.673	292.27
874.054	303.98
874.435	278.23
874.815	285.25
875.196	341.43
875.577	355.47
875.957	341.43
876.338	264.19
876.718	219.72
877.098	308.66
877.479	334.4
877.859	364.83
878.239	322.7
878.619	233.76
878.999	325.04
879.379	311
879.759	362.49
880.139	346.11
880.519	334.4
880.898	254.83
881.278	327.38
881.658	282.91
882.037	259.51
882.417	282.91
882.796	299.3
883.176	311
883.555	266.53
883.934	264.19
884.313	257.17
884.693	329.72
885.072	336.74
885.451	299.3
885.83	205.67
886.209	289.93
886.587	318.02
886.966	282.91
887.345	282.91
887.724	311
888.102	320.36
888.481	329.72
888.859	280.57
889.238	289.93
889.616	266.53
889.994	280.57
890.373	280.57
890.751	259.51
891.129	315.68
891.507	308.66
891.885	273.55
892.263	296.96
892.641	301.64
893.019	329.72
893.396	212.7
893.774	318.02
894.152	278.23
894.529	285.25
894.907	303.98
895.284	287.59
895.662	268.87
896.039	315.68
896.416	303.98
896.794	322.7
897.171	287.59
897.548	325.04
897.925	282.91
898.302	266.53
898.679	303.98
899.056	212.7
899.433	254.83
899.809	341.43
900.186	299.3
900.563	322.7
900.939	306.32
901.316	322.7
901.692	313.34
902.069	315.68
902.445	299.3
902.821	296.96
903.197	224.4
903.574	332.06
903.95	296.96
904.326	278.23
904.702	296.96
905.078	325.04
905.454	303.98
905.829	259.51
906.205	226.74
906.581	287.59
906.956	325.04
907.332	327.38
907.707	282.91
908.083	275.89
908.458	282.91
908.833	264.19
909.209	315.68
909.584	289.93
909.959	303.98
910.334	266.53
910.709	205.67
911.084	296.96
911.459	329.72
911.834	261.85
912.209	266.53
912.583	282.91
912.958	306.32
913.333	219.72
913.707	287.59
914.082	238.44
914.456	318.02
914.83	334.4
915.205	275.89
915.579	325.04
915.953	261.85
916.327	268.87
916.701	287.59
917.075	313.34
917.449	287.59
917.823	268.87
918.197	320.36
918.571	334.4
918.944	313.34
919.318	334.4
919.692	217.38
920.065	275.89
920.438	296.96
920.812	285.25
921.185	311
921.558	303.98
921.932	289.93
922.305	250.14
922.678	327.38
923.051	360.15
923.424	322.7
923.797	301.64
924.17	329.72
924.542	287.59
924.915	229.08
925.288	336.74
925.661	294.61
926.033	303.98
926.406	226.74
926.778	257.17
927.15	296.96
927.523	308.66
927.895	233.76
928.267	229.08
928.639	285.25
929.011	245.46
929.383	292.27
929.755	287.59
930.127	271.21
930.499	308.66
930.871	233.76
931.242	280.57
931.614	315.68
931.986	259.51
932.357	320.36
932.729	362.49
933.1	292.27
933.471	315.68
933.843	296.96
934.214	257.17
934.585	278.23
934.956	275.89
935.327	296.96
935.698	362.49
936.069	355.47
936.44	268.87
936.811	308.66
937.182	306.32
937.552	329.72
937.923	325.04
938.293	315.68
938.664	268.87
939.034	301.64
939.405	285.25
939.775	320.36
940.145	329.72
940.516	325.04
940.886	332.06
941.256	224.4
941.626	215.04
941.996	266.53
942.366	320.36
942.735	341.43
943.105	259.51
943.475	325.04
943.845	285.25
944.214	308.66
944.584	303.98
944.953	367.17
945.323	282.91
945.692	346.11
946.061	320.36
946.43	210.36
946.8	308.66
947.169	261.85
947.538	259.51
947.907	318.02
948.276	229.08
948.645	259.51
949.013	254.83
949.382	315.68
949.751	245.46
950.119	266.53
950.488	296.96
950.857	299.3
951.225	306.32
951.593	355.47
951.962	294.61
952.33	273.55
952.698	259.51
953.066	320.36
953.434	259.51
953.802	289.93
954.17	285.25
954.538	254.83
954.906	275.89
955.274	287.59
955.642	325.04
956.009	322.7
956.377	289.93
956.744	303.98
957.112	278.23
957.479	296.96
957.847	280.57
958.214	339.09
958.581	257.17
958.948	296.96
959.315	353.13
959.683	264.19
960.05	299.3
960.416	299.3
960.783	376.53
961.15	292.27
961.517	252.49
961.884	264.19
962.25	273.55
962.617	327.38
962.983	215.04
963.35	259.51
963.716	271.21
964.082	285.25
964.449	273.55
964.815	315.68
965.181	296.96
965.547	226.74
965.913	308.66
966.279	243.12
966.645	268.87
967.011	254.83
967.377	299.3
967.742	282.91
968.108	273.55
968.474	301.64
968.839	378.87
969.205	334.4
969.57	341.43
969.935	369.51
970.301	350.79
970.666	313.34
971.031	296.96
971.396	355.47
971.761	266.53
972.126	308.66
972.491	271.21
972.856	311
973.221	325.04
973.586	275.89
973.95	264.19
974.315	376.53
974.679	346.11
975.044	250.14
975.408	294.61
975.773	280.57
976.137	257.17
976.501	334.4
976.866	292.27
977.23	271.21
977.594	329.72
977.958	332.06
978.322	240.78
978.686	332.06
979.049	259.51
979.413	318.02
979.777	332.06
980.141	264.19
980.504	341.43
980.868	329.72
981.231	254.83
981.595	308.66
981.958	285.25
982.321	280.57
982.684	299.3
983.048	252.49
983.411	264.19
983.774	275.89
984.137	296.96
984.5	306.32
984.862	287.59
985.225	318.02
985.588	318.02
985.951	320.36
986.313	311
986.676	292.27
987.038	296.96
987.401	282.91
987.763	294.61
988.125	308.66
988.488	289.93
988.85	254.83
989.212	332.06
989.574	299.3
989.936	273.55
990.298	268.87
990.66	322.7
991.022	336.74
991.383	250.14
991.745	336.74
992.107	320.36
992.468	224.4
992.83	334.4
993.191	254.83
993.553	367.17
993.914	261.85
994.275	287.59
994.637	306.32
994.998	318.02
995.359	266.53
995.72	198.65
996.081	311
996.442	325.04
996.803	264.19
997.163	308.66
997.524	332.06
997.885	266.53
998.245	287.59
998.606	289.93
998.966	259.51
999.327	332.06
999.687	336.74
1000.047	325.04
1000.408	282.91
1000.768	245.46
1001.128	303.98
1001.488	296.96
1001.848	320.36
1002.208	299.3
1002.568	289.93
1002.927	294.61
1003.287	334.4
1003.647	392.92
1004.007	259.51
1004.366	306.32
1004.726	285.25
1005.085	287.59
1005.444	306.32
1005.804	264.19
1006.163	264.19
1006.522	271.21
1006.881	268.87
1007.24	231.42
1007.599	303.98
1007.958	247.8
1008.317	320.36
1008.676	268.87
1009.035	315.68
1009.393	299.3
1009.752	294.61
1010.111	289.93
1010.469	292.27
1010.828	226.74
1011.186	348.45
1011.544	294.61
1011.903	334.4
1012.261	341.43
1012.619	327.38
1012.977	378.87
1013.335	332.06
1013.693	170.57
1014.051	289.93
1014.409	292.27
1014.767	299.3
1015.124	271.21
1015.482	355.47
1015.84	325.04
1016.197	280.57
1016.555	259.51
1016.912	268.87
1017.269	296.96
1017.627	306.32
1017.984	311
1018.341	287.59
1018.698	236.1
1019.055	287.59
1019.412	292.27
1019.769	364.83
1020.126	236.1
1020.483	280.57
1020.84	278.23
1021.196	332.06
1021.553	278.23
1021.909	318.02
1022.266	301.64
1022.622	259.51
1022.979	266.53
1023.335	296.96
1023.691	273.55
1024.047	313.34
1024.404	339.09
1024.76	229.08
1025.116	292.27
1025.472	257.17
1025.827	289.93
1026.183	341.43
1026.539	243.12
1026.895	261.85
1027.25	233.76
1027.606	268.87
1027.961	299.3
1028.317	268.87
1028.672	226.74
1029.028	282.91
1029.383	320.36
1029.738	254.83
1030.093	329.72
1030.448	257.17
1030.803	233.76
1031.158	280.57
1031.513	355.47
1031.868	275.89
1032.223	289.93
1032.577	301.64
1032.932	254.83
1033.287	292.27
1033.641	318.02
1033.996	329.72
1034.35	318.02
1034.704	257.17
1035.059	280.57
1035.413	292.27
1035.767	292.27
1036.121	292.27
