Data from Al_FLMS009871__816__15-24-57-607.txt Node

Date: Fri Mar 08 15:24:57 CST 2024
User: pe5414po
Spectrometer: FLMS00987
Trigger mode: 0
Integration Time (sec): 1.000000E-1
Scans to average: 1
Electric dark correction enabled: true
Nonlinearity correction enabled: false
Boxcar width: 0
XAxis mode: Wavelengths
Number of Pixels in Spectrum: 2048
>>>>>Begin Spectral Data<<<<<
188.938	-56.03
189.409	-56.03
189.879	-56.03
190.349	-151.99
190.819	-109.86
191.29	-107.52
191.76	-72.41
192.23	-86.45
192.7	-18.58
193.17	-91.13
193.64	-100.5
194.109	-25.6
194.579	-9.22
195.049	-23.26
195.519	2.49
195.988	49.3
196.458	35.25
196.927	46.96
197.397	77.38
197.866	152.28
198.336	171.01
198.805	238.88
199.274	187.39
199.744	231.86
200.213	213.14
200.682	250.58
201.151	297.39
201.62	252.92
202.089	304.42
202.558	201.43
203.027	304.42
203.495	262.29
203.964	220.16
204.433	273.99
204.902	302.08
205.37	250.58
205.839	196.75
206.307	339.52
206.776	264.63
207.244	273.99
207.712	281.01
208.181	257.61
208.649	283.35
209.117	334.84
209.585	283.35
210.053	238.88
210.521	283.35
210.989	259.95
211.457	252.92
211.925	288.03
212.393	292.71
212.861	311.44
213.328	285.69
213.796	295.05
214.264	318.46
214.731	306.76
215.199	283.35
215.666	320.8
216.133	320.8
216.601	187.39
217.068	220.16
217.535	255.26
218.003	273.99
218.47	269.31
218.937	252.92
219.404	194.41
219.871	344.21
220.338	241.22
220.805	295.05
221.271	295.05
221.738	266.97
222.205	238.88
222.671	220.16
223.138	217.82
223.605	217.82
224.071	269.31
224.538	208.45
225.004	236.54
225.47	278.67
225.937	273.99
226.403	295.05
226.869	255.26
227.335	288.03
227.801	309.1
228.267	283.35
228.733	311.44
229.199	227.18
229.665	266.97
230.131	271.65
230.597	250.58
231.062	292.71
231.528	255.26
231.994	255.26
232.459	281.01
232.925	252.92
233.39	297.39
233.856	297.39
234.321	264.63
234.786	206.11
235.252	290.37
235.717	290.37
236.182	290.37
236.647	325.48
237.112	295.05
237.577	238.88
238.042	313.78
238.507	281.01
238.972	248.24
239.436	199.09
239.901	250.58
240.366	273.99
240.83	229.52
241.295	306.76
241.76	339.52
242.224	229.52
242.688	236.54
243.153	264.63
243.617	276.33
244.081	306.76
244.545	273.99
245.01	222.5
245.474	203.77
245.938	255.26
246.402	290.37
246.866	222.5
247.33	210.79
247.793	266.97
248.257	208.45
248.721	285.69
249.185	224.84
249.648	231.86
250.112	213.14
250.575	250.58
251.039	288.03
251.502	299.73
251.965	337.18
252.429	271.65
252.892	285.69
253.355	318.46
253.818	252.92
254.281	323.14
254.744	299.73
255.207	283.35
255.67	299.73
256.133	271.65
256.596	344.21
257.059	327.82
257.522	306.76
257.984	276.33
258.447	323.14
258.909	299.73
259.372	276.33
259.834	295.05
260.297	255.26
260.759	278.67
261.221	262.29
261.684	288.03
262.146	288.03
262.608	334.84
263.07	332.5
263.532	243.56
263.994	309.1
264.456	318.46
264.918	290.37
265.38	311.44
265.842	323.14
266.303	290.37
266.765	332.5
267.227	290.37
267.688	278.67
268.15	320.8
268.611	360.59
269.072	297.39
269.534	327.82
269.995	327.82
270.456	227.18
270.918	264.63
271.379	210.79
271.84	266.97
272.301	309.1
272.762	259.95
273.223	292.71
273.684	278.67
274.144	231.86
274.605	248.24
275.066	281.01
275.527	302.08
275.987	295.05
276.448	327.82
276.908	316.12
277.369	304.42
277.829	306.76
278.289	297.39
278.75	276.33
279.21	262.29
279.67	311.44
280.13	285.69
280.59	238.88
281.05	320.8
281.51	304.42
281.97	297.39
282.43	311.44
282.89	264.63
283.35	269.31
283.809	297.39
284.269	355.91
284.729	231.86
285.188	278.67
285.648	323.14
286.107	290.37
286.567	318.46
287.026	304.42
287.485	346.55
287.944	325.48
288.404	327.82
288.863	252.92
289.322	325.48
289.781	276.33
290.24	346.55
290.699	341.86
291.158	309.1
291.616	290.37
292.075	320.8
292.534	383.99
292.992	269.31
293.451	299.73
293.91	238.88
294.368	273.99
294.827	337.18
295.285	299.73
295.743	285.69
296.202	269.31
296.66	306.76
297.118	290.37
297.576	262.29
298.034	278.67
298.492	266.97
298.95	299.73
299.408	262.29
299.866	332.5
300.324	299.73
300.781	264.63
301.239	276.33
301.697	318.46
302.154	269.31
302.612	281.01
303.069	278.67
303.527	302.08
303.984	285.69
304.441	285.69
304.899	281.01
305.356	304.42
305.813	259.95
306.27	297.39
306.727	288.03
307.184	285.69
307.641	259.95
308.098	281.01
308.555	304.42
309.012	290.37
309.468	334.84
309.925	290.37
310.382	281.01
310.838	320.8
311.295	290.37
311.751	318.46
312.208	379.31
312.664	323.14
313.12	288.03
313.577	379.31
314.033	341.86
314.489	255.26
314.945	376.97
315.401	281.01
315.857	339.52
316.313	344.21
316.769	358.25
317.225	348.89
317.681	309.1
318.136	325.48
318.592	252.92
319.048	344.21
319.503	278.67
319.959	295.05
320.414	309.1
320.869	304.42
321.325	318.46
321.78	271.65
322.235	297.39
322.691	248.24
323.146	325.48
323.601	234.2
324.056	309.1
324.511	295.05
324.966	297.39
325.421	266.97
325.875	281.01
326.33	295.05
326.785	283.35
327.24	299.73
327.694	325.48
328.149	304.42
328.603	311.44
329.058	316.12
329.512	318.46
329.966	332.5
330.421	297.39
330.875	358.25
331.329	276.33
331.783	281.01
332.237	302.08
332.691	351.23
333.145	353.57
333.599	297.39
334.053	369.95
334.507	320.8
334.96	288.03
335.414	323.14
335.868	379.31
336.321	348.89
336.775	334.84
337.228	337.18
337.682	311.44
338.135	259.95
338.588	339.52
339.042	337.18
339.495	285.69
339.948	306.76
340.401	337.18
340.854	264.63
341.307	309.1
341.76	269.31
342.213	365.27
342.666	309.1
343.119	269.31
343.571	323.14
344.024	281.01
344.477	351.23
344.929	271.65
345.382	355.91
345.834	306.76
346.287	285.69
346.739	264.63
347.191	257.61
347.644	262.29
348.096	318.46
348.548	283.35
349	292.71
349.452	283.35
349.904	351.23
350.356	327.82
350.808	269.31
351.26	297.39
351.711	250.58
352.163	330.16
352.615	346.55
353.066	299.73
353.518	304.42
353.969	252.92
354.421	264.63
354.872	266.97
355.324	327.82
355.775	264.63
356.226	332.5
356.677	283.35
357.128	320.8
357.579	313.78
358.03	376.97
358.481	334.84
358.932	283.35
359.383	330.16
359.834	288.03
360.285	273.99
360.735	295.05
361.186	358.25
361.637	297.39
362.087	295.05
362.538	288.03
362.988	297.39
363.438	306.76
363.889	318.46
364.339	292.71
364.789	402.72
365.239	346.55
365.689	346.55
366.139	309.1
366.589	367.61
367.039	355.91
367.489	355.91
367.939	309.1
368.389	323.14
368.839	391.02
369.288	299.73
369.738	318.46
370.187	355.91
370.637	297.39
371.086	332.5
371.536	341.86
371.985	281.01
372.434	304.42
372.884	318.46
373.333	311.44
373.782	250.58
374.231	360.59
374.68	306.76
375.129	290.37
375.578	320.8
376.027	337.18
376.475	311.44
376.924	281.01
377.373	299.73
377.822	358.25
378.27	313.78
378.719	297.39
379.167	337.18
379.616	295.05
380.064	306.76
380.512	353.57
380.961	360.59
381.409	332.5
381.857	278.67
382.305	327.82
382.753	304.42
383.201	320.8
383.649	320.8
384.097	304.42
384.545	276.33
384.992	250.58
385.44	250.58
385.888	344.21
386.335	367.61
386.783	330.16
387.231	309.1
387.678	346.55
388.125	257.61
388.573	297.39
389.02	320.8
389.467	327.82
389.914	281.01
390.362	278.67
390.809	299.73
391.256	302.08
391.703	309.1
392.15	313.78
392.596	355.91
393.043	351.23
393.49	283.35
393.937	355.91
394.383	325.48
394.83	304.42
395.276	273.99
395.723	311.44
396.169	341.86
396.616	313.78
397.062	316.12
397.508	348.89
397.954	306.76
398.401	372.29
398.847	348.89
399.293	266.97
399.739	278.67
400.185	295.05
400.631	271.65
401.076	348.89
401.522	288.03
401.968	276.33
402.414	367.61
402.859	313.78
403.305	353.57
403.75	224.84
404.196	283.35
404.641	259.95
405.086	236.54
405.532	295.05
405.977	327.82
406.422	278.67
406.867	351.23
407.312	334.84
407.757	273.99
408.202	281.01
408.647	337.18
409.092	236.54
409.537	309.1
409.982	306.76
410.426	313.78
410.871	323.14
411.316	283.35
411.76	313.78
412.205	309.1
412.649	330.16
413.093	255.26
413.538	330.16
413.982	288.03
414.426	327.82
414.87	273.99
415.314	288.03
415.758	344.21
416.202	351.23
416.646	309.1
417.09	306.76
417.534	351.23
417.978	341.86
418.421	306.76
418.865	234.2
419.309	281.01
419.752	334.84
420.196	344.21
420.639	332.5
421.083	313.78
421.526	318.46
421.969	313.78
422.412	337.18
422.856	381.65
423.299	367.61
423.742	313.78
424.185	320.8
424.628	299.73
425.071	327.82
425.513	269.31
425.956	288.03
426.399	288.03
426.842	327.82
427.284	271.65
427.727	323.14
428.169	337.18
428.612	313.78
429.054	323.14
429.497	383.99
429.939	344.21
430.381	313.78
430.823	339.52
431.265	334.84
431.707	337.18
432.149	323.14
432.591	325.48
433.033	297.39
433.475	276.33
433.917	332.5
434.359	283.35
434.8	229.52
435.242	323.14
435.684	325.48
436.125	297.39
436.567	306.76
437.008	269.31
437.449	311.44
437.891	262.29
438.332	332.5
438.773	309.1
439.214	355.91
439.656	292.71
440.097	299.73
440.538	283.35
440.978	327.82
441.419	341.86
441.86	306.76
442.301	355.91
442.742	316.12
443.182	309.1
443.623	273.99
444.063	341.86
444.504	337.18
444.944	299.73
445.385	295.05
445.825	311.44
446.265	358.25
446.706	299.73
447.146	295.05
447.586	297.39
448.026	302.08
448.466	283.35
448.906	337.18
449.346	316.12
449.786	365.27
450.225	376.97
450.665	264.63
451.105	313.78
451.544	295.05
451.984	337.18
452.424	339.52
452.863	288.03
453.302	339.52
453.742	339.52
454.181	337.18
454.62	348.89
455.059	309.1
455.499	302.08
455.938	292.71
456.377	341.86
456.816	334.84
457.254	351.23
457.693	273.99
458.132	325.48
458.571	344.21
459.01	313.78
459.448	330.16
459.887	264.63
460.325	323.14
460.764	360.59
461.202	297.39
461.641	255.26
462.079	316.12
462.517	358.25
462.955	320.8
463.393	262.29
463.832	344.21
464.27	318.46
464.708	273.99
465.145	339.52
465.583	318.46
466.021	276.33
466.459	313.78
466.897	297.39
467.334	306.76
467.772	299.73
468.209	273.99
468.647	288.03
469.084	323.14
469.522	369.95
469.959	299.73
470.396	325.48
470.833	295.05
471.271	306.76
471.708	348.89
472.145	323.14
472.582	262.29
473.019	325.48
473.456	323.14
473.892	302.08
474.329	386.33
474.766	257.61
475.202	281.01
475.639	288.03
476.076	316.12
476.512	362.93
476.949	386.33
477.385	266.97
477.821	313.78
478.258	346.55
478.694	313.78
479.13	316.12
479.566	306.76
480.002	292.71
480.438	243.56
480.874	325.48
481.31	341.86
481.746	355.91
482.181	325.48
482.617	360.59
483.053	327.82
483.488	273.99
483.924	360.59
484.36	337.18
484.795	302.08
485.23	313.78
485.666	273.99
486.101	306.76
486.536	369.95
486.971	348.89
487.407	348.89
487.842	330.16
488.277	290.37
488.712	320.8
489.146	269.31
489.581	344.21
490.016	297.39
490.451	337.18
490.885	269.31
491.32	243.56
491.755	337.18
492.189	355.91
492.624	252.92
493.058	285.69
493.492	402.72
493.927	309.1
494.361	281.01
494.795	224.84
495.229	358.25
495.663	323.14
496.097	327.82
496.531	290.37
496.965	285.69
497.399	259.95
497.833	283.35
498.266	281.01
498.7	341.86
499.134	306.76
499.567	426.12
500.001	306.76
500.434	299.73
500.868	316.12
501.301	281.01
501.734	297.39
502.168	281.01
502.601	295.05
503.034	337.18
503.467	271.65
503.9	341.86
504.333	374.63
504.766	358.25
505.199	341.86
505.632	309.1
506.064	358.25
506.497	252.92
506.93	316.12
507.362	320.8
507.795	285.69
508.227	264.63
508.66	304.42
509.092	341.86
509.524	283.35
509.956	325.48
510.389	339.52
510.821	325.48
511.253	362.93
511.685	325.48
512.117	351.23
512.549	334.84
512.981	337.18
513.412	346.55
513.844	281.01
514.276	330.16
514.707	290.37
515.139	309.1
515.571	327.82
516.002	332.5
516.433	381.65
516.865	346.55
517.296	360.59
517.727	313.78
518.159	362.93
518.59	327.82
519.021	318.46
519.452	227.18
519.883	306.76
520.314	332.5
520.744	290.37
521.175	257.61
521.606	358.25
522.037	252.92
522.467	278.67
522.898	295.05
523.328	306.76
523.759	330.16
524.189	309.1
524.62	299.73
525.05	395.7
525.48	276.33
525.91	334.84
526.341	299.73
526.771	337.18
527.201	348.89
527.631	306.76
528.061	388.68
528.49	323.14
528.92	238.88
529.35	250.58
529.78	379.31
530.209	302.08
530.639	348.89
531.068	325.48
531.498	327.82
531.927	302.08
532.357	306.76
532.786	344.21
533.215	313.78
533.644	285.69
534.074	306.76
534.503	299.73
534.932	388.68
535.361	325.48
535.79	292.71
536.218	304.42
536.647	351.23
537.076	288.03
537.505	332.5
537.933	353.57
538.362	358.25
538.79	236.54
539.219	299.73
539.647	288.03
540.076	304.42
540.504	292.71
540.932	320.8
541.36	262.29
541.788	224.84
542.217	241.22
542.645	316.12
543.073	245.9
543.5	290.37
543.928	313.78
544.356	402.72
544.784	346.55
545.211	255.26
545.639	327.82
546.067	302.08
546.494	295.05
546.922	318.46
547.349	330.16
547.776	369.95
548.204	288.03
548.631	250.58
549.058	332.5
549.485	334.84
549.912	273.99
550.339	266.97
550.766	285.69
551.193	292.71
551.62	360.59
552.047	288.03
552.474	292.71
552.9	259.95
553.327	330.16
553.754	348.89
554.18	402.72
554.607	297.39
555.033	327.82
555.459	339.52
555.886	362.93
556.312	327.82
556.738	346.55
557.164	355.91
557.59	269.31
558.016	341.86
558.442	290.37
558.868	309.1
559.294	266.97
559.72	299.73
560.145	358.25
560.571	309.1
560.997	309.1
561.422	264.63
561.848	281.01
562.273	245.9
562.699	248.24
563.124	318.46
563.549	344.21
563.974	313.78
564.4	311.44
564.825	339.52
565.25	309.1
565.675	262.29
566.1	320.8
566.525	316.12
566.95	316.12
567.374	266.97
567.799	299.73
568.224	362.93
568.648	262.29
569.073	355.91
569.497	320.8
569.922	360.59
570.346	318.46
570.771	355.91
571.195	346.55
571.619	283.35
572.043	297.39
572.467	346.55
572.891	332.5
573.315	327.82
573.739	367.61
574.163	304.42
574.587	295.05
575.011	339.52
575.435	318.46
575.858	288.03
576.282	306.76
576.705	325.48
577.129	334.84
577.552	281.01
577.976	323.14
578.399	346.55
578.822	351.23
579.245	360.59
579.669	365.27
580.092	358.25
580.515	323.14
580.938	339.52
581.361	288.03
581.784	281.01
582.206	231.86
582.629	334.84
583.052	330.16
583.474	374.63
583.897	351.23
584.32	365.27
584.742	276.33
585.165	283.35
585.587	276.33
586.009	334.84
586.431	290.37
586.854	297.39
587.276	292.71
587.698	344.21
588.12	266.97
588.542	327.82
588.964	337.18
589.386	297.39
589.807	337.18
590.229	245.9
590.651	285.69
591.073	276.33
591.494	295.05
591.916	299.73
592.337	292.71
592.759	297.39
593.18	367.61
593.601	311.44
594.022	304.42
594.444	297.39
594.865	257.61
595.286	358.25
595.707	330.16
596.128	311.44
596.549	266.97
596.97	334.84
597.39	311.44
597.811	311.44
598.232	288.03
598.652	283.35
599.073	355.91
599.494	292.71
599.914	311.44
600.334	313.78
600.755	250.58
601.175	369.95
601.595	306.76
602.015	264.63
602.436	320.8
602.856	421.44
603.276	311.44
603.696	323.14
604.115	325.48
604.535	278.67
604.955	285.69
605.375	334.84
605.794	316.12
606.214	351.23
606.634	318.46
607.053	269.31
607.473	318.46
607.892	355.91
608.311	311.44
608.731	313.78
609.15	299.73
609.569	304.42
609.988	332.5
610.407	259.95
610.826	283.35
611.245	266.97
611.664	297.39
612.083	241.22
612.501	290.37
612.92	316.12
613.339	362.93
613.757	332.5
614.176	355.91
614.594	327.82
615.013	309.1
615.431	262.29
615.85	269.31
616.268	365.27
616.686	295.05
617.104	318.46
617.522	304.42
617.94	285.69
618.358	281.01
618.776	334.84
619.194	299.73
619.612	288.03
620.03	297.39
620.447	281.01
620.865	337.18
621.282	351.23
621.7	369.95
622.117	271.65
622.535	327.82
622.952	285.69
623.369	297.39
623.787	288.03
624.204	276.33
624.621	299.73
625.038	325.48
625.455	271.65
625.872	276.33
626.289	250.58
626.706	351.23
627.123	355.91
627.539	337.18
627.956	330.16
628.373	266.97
628.789	316.12
629.206	374.63
629.622	271.65
630.038	297.39
630.455	264.63
630.871	285.69
631.287	290.37
631.703	313.78
632.12	290.37
632.536	278.67
632.952	344.21
633.368	327.82
633.783	259.95
634.199	318.46
634.615	238.88
635.031	210.79
635.446	383.99
635.862	276.33
636.277	351.23
636.693	306.76
637.108	362.93
637.524	341.86
637.939	269.31
638.354	348.89
638.77	351.23
639.185	271.65
639.6	330.16
640.015	266.97
640.43	334.84
640.845	297.39
641.259	266.97
641.674	334.84
642.089	339.52
642.504	309.1
642.918	337.18
643.333	297.39
643.747	220.16
644.162	339.52
644.576	337.18
644.991	299.73
645.405	309.1
645.819	372.29
646.233	358.25
646.647	327.82
647.061	337.18
647.475	313.78
647.889	327.82
648.303	306.76
648.717	271.65
649.131	299.73
649.545	344.21
649.958	285.69
650.372	309.1
650.785	271.65
651.199	313.78
651.612	266.97
652.026	316.12
652.439	257.61
652.852	341.86
653.266	217.82
653.679	316.12
654.092	332.5
654.505	320.8
654.918	316.12
655.331	320.8
655.744	309.1
656.156	259.95
656.569	316.12
656.982	337.18
657.394	288.03
657.807	313.78
658.22	355.91
658.632	281.01
659.044	266.97
659.457	252.92
659.869	353.57
660.281	299.73
660.693	313.78
661.106	316.12
661.518	290.37
661.93	355.91
662.342	332.5
662.754	255.26
663.165	383.99
663.577	374.63
663.989	299.73
664.401	353.57
664.812	273.99
665.224	290.37
665.635	313.78
666.047	346.55
666.458	337.18
666.869	311.44
667.281	281.01
667.692	250.58
668.103	281.01
668.514	309.1
668.925	353.57
669.336	332.5
669.747	304.42
670.158	309.1
670.569	337.18
670.979	360.59
671.39	339.52
671.801	283.35
672.211	243.56
672.622	341.86
673.032	245.9
673.443	306.76
673.853	358.25
674.263	337.18
674.674	367.61
675.084	255.26
675.494	309.1
675.904	288.03
676.314	327.82
676.724	259.95
677.134	348.89
677.544	355.91
677.953	318.46
678.363	323.14
678.773	360.59
679.182	325.48
679.592	313.78
680.001	290.37
680.411	320.8
680.82	320.8
681.23	304.42
681.639	306.76
682.048	412.08
682.457	241.22
682.866	269.31
683.275	320.8
683.684	295.05
684.093	337.18
684.502	327.82
684.911	295.05
685.32	283.35
685.728	241.22
686.137	276.33
686.546	271.65
686.954	297.39
687.363	288.03
687.771	257.61
688.179	353.57
688.588	299.73
688.996	360.59
689.404	360.59
689.812	278.67
690.22	341.86
690.628	360.59
691.036	320.8
691.444	330.16
691.852	355.91
692.26	330.16
692.667	330.16
693.075	344.21
693.483	386.33
693.89	299.73
694.298	330.16
694.705	297.39
695.112	365.27
695.52	283.35
695.927	309.1
696.334	376.97
696.741	285.69
697.148	355.91
697.555	325.48
697.962	309.1
698.369	273.99
698.776	278.67
699.183	355.91
699.59	327.82
699.996	332.5
700.403	231.86
700.81	229.52
701.216	290.37
701.623	299.73
702.029	297.39
702.435	318.46
702.842	320.8
703.248	295.05
703.654	220.16
704.06	290.37
704.466	355.91
704.872	316.12
705.278	255.26
705.684	362.93
706.09	299.73
706.496	295.05
706.901	276.33
707.307	367.61
707.712	327.82
708.118	365.27
708.523	311.44
708.929	283.35
709.334	297.39
709.74	248.24
710.145	295.05
710.55	325.48
710.955	320.8
711.36	355.91
711.765	283.35
712.17	302.08
712.575	351.23
712.98	798.27
713.385	323.14
713.789	273.99
714.194	245.9
714.599	297.39
715.003	362.93
715.408	316.12
715.812	283.35
716.217	358.25
716.621	257.61
717.025	304.42
717.429	318.46
717.833	358.25
718.238	278.67
718.642	306.76
719.046	306.76
719.449	252.92
719.853	297.39
720.257	266.97
720.661	341.86
721.065	337.18
721.468	323.14
721.872	318.46
722.275	288.03
722.679	297.39
723.082	365.27
723.485	302.08
723.889	304.42
724.292	323.14
724.695	266.97
725.098	313.78
725.501	302.08
725.904	278.67
726.307	358.25
726.71	316.12
727.113	330.16
727.516	316.12
727.918	210.79
728.321	297.39
728.724	318.46
729.126	292.71
729.529	304.42
729.931	316.12
730.333	318.46
730.736	248.24
731.138	278.67
731.54	320.8
731.942	262.29
732.344	266.97
732.746	292.71
733.148	313.78
733.55	325.48
733.952	374.63
734.354	325.48
734.756	330.16
735.157	297.39
735.559	313.78
735.96	295.05
736.362	266.97
736.763	273.99
737.165	388.68
737.566	297.39
737.967	241.22
738.368	292.71
738.77	297.39
739.171	311.44
739.572	309.1
739.973	271.65
740.374	339.52
740.774	341.86
741.175	367.61
741.576	309.1
741.977	295.05
742.377	348.89
742.778	311.44
743.178	302.08
743.579	248.24
743.979	325.48
744.379	311.44
744.78	250.58
745.18	367.61
745.58	297.39
745.98	327.82
746.38	348.89
746.78	360.59
747.18	353.57
747.58	271.65
747.98	304.42
748.38	339.52
748.779	278.67
749.179	355.91
749.578	388.68
749.978	302.08
750.377	255.26
750.777	290.37
751.176	271.65
751.575	227.18
751.975	306.76
752.374	316.12
752.773	285.69
753.172	393.36
753.571	273.99
753.97	295.05
754.369	285.69
754.768	231.86
755.166	281.01
755.565	264.63
755.964	334.84
756.362	283.35
756.761	271.65
757.159	313.78
757.558	297.39
757.956	313.78
758.354	288.03
758.753	313.78
759.151	348.89
759.549	341.86
759.947	311.44
760.345	271.65
760.743	325.48
761.141	344.21
761.539	175.69
761.936	278.67
762.334	304.42
762.732	262.29
763.129	304.42
763.527	313.78
763.924	332.5
764.322	297.39
764.719	243.56
765.117	302.08
765.514	236.54
765.911	311.44
766.308	351.23
766.705	332.5
767.102	358.25
767.499	264.63
767.896	288.03
768.293	302.08
768.69	297.39
769.086	311.44
769.483	320.8
769.88	369.95
770.276	306.76
770.673	271.65
771.069	395.7
771.466	288.03
771.862	320.8
772.258	365.27
772.654	276.33
773.05	283.35
773.447	295.05
773.843	288.03
774.239	285.69
774.634	339.52
775.03	288.03
775.426	325.48
775.822	355.91
776.218	344.21
776.613	367.61
777.009	299.73
777.404	313.78
777.8	304.42
778.195	262.29
778.59	320.8
778.986	313.78
779.381	311.44
779.776	269.31
780.171	309.1
780.566	320.8
780.961	264.63
781.356	348.89
781.751	290.37
782.146	369.95
782.54	320.8
782.935	259.95
783.33	353.57
783.724	309.1
784.119	273.99
784.513	339.52
784.908	309.1
785.302	332.5
785.696	309.1
786.09	320.8
786.485	306.76
786.879	252.92
787.273	316.12
787.667	243.56
788.061	283.35
788.454	266.97
788.848	313.78
789.242	309.1
789.636	285.69
790.029	320.8
790.423	292.71
790.816	269.31
791.21	355.91
791.603	306.76
791.997	292.71
792.39	292.71
792.783	323.14
793.176	323.14
793.569	290.37
793.962	269.31
794.355	339.52
794.748	339.52
795.141	255.26
795.534	337.18
795.927	323.14
796.319	297.39
796.712	273.99
797.105	302.08
797.497	295.05
797.89	292.71
798.282	327.82
798.674	297.39
799.067	339.52
799.459	330.16
799.851	339.52
800.243	360.59
800.635	332.5
801.027	348.89
801.419	264.63
801.811	288.03
802.203	283.35
802.594	302.08
802.986	297.39
803.378	311.44
803.769	295.05
804.161	320.8
804.552	288.03
804.944	285.69
805.335	302.08
805.726	316.12
806.118	330.16
806.509	374.63
806.9	283.35
807.291	311.44
807.682	318.46
808.073	302.08
808.464	313.78
808.855	325.48
809.245	381.65
809.636	318.46
810.027	362.93
810.417	358.25
810.808	299.73
811.198	252.92
811.589	430.8
811.979	318.46
812.369	297.39
812.759	313.78
813.15	332.5
813.54	309.1
813.93	252.92
814.32	262.29
814.71	278.67
815.1	311.44
815.489	323.14
815.879	337.18
816.269	327.82
816.658	365.27
817.048	362.93
817.438	306.76
817.827	341.86
818.216	295.05
818.606	299.73
818.995	295.05
819.384	309.1
819.773	250.58
820.163	292.71
820.552	299.73
820.941	278.67
821.33	313.78
821.718	323.14
822.107	316.12
822.496	304.42
822.885	257.61
823.273	316.12
823.662	273.99
824.05	220.16
824.439	288.03
824.827	292.71
825.216	369.95
825.604	353.57
825.992	325.48
826.38	295.05
826.768	283.35
827.156	353.57
827.544	271.65
827.932	341.86
828.32	372.29
828.708	278.67
829.096	271.65
829.483	299.73
829.871	288.03
830.259	379.31
830.646	281.01
831.034	271.65
831.421	318.46
831.808	271.65
832.196	353.57
832.583	271.65
832.97	327.82
833.357	299.73
833.744	355.91
834.131	290.37
834.518	276.33
834.905	206.11
835.292	304.42
835.678	327.82
836.065	266.97
836.452	391.02
836.838	252.92
837.225	362.93
837.611	285.69
837.998	362.93
838.384	318.46
838.77	266.97
839.157	337.18
839.543	344.21
839.929	295.05
840.315	309.1
840.701	325.48
841.087	290.37
841.473	290.37
841.858	306.76
842.244	327.82
842.63	290.37
843.015	351.23
843.401	589.96
843.787	276.33
844.172	313.78
844.557	210.79
844.943	283.35
845.328	299.73
845.713	358.25
846.098	339.52
846.483	278.67
846.868	297.39
847.253	346.55
847.638	269.31
848.023	259.95
848.408	327.82
848.793	309.1
849.177	309.1
849.562	295.05
849.947	318.46
850.331	346.55
850.715	309.1
851.1	243.56
851.484	302.08
851.868	327.82
852.253	266.97
852.637	290.37
853.021	304.42
853.405	250.58
853.789	304.42
854.173	353.57
854.557	383.99
854.94	297.39
855.324	360.59
855.708	320.8
856.091	327.82
856.475	365.27
856.858	337.18
857.242	344.21
857.625	297.39
858.009	313.78
858.392	281.01
858.775	309.1
859.158	332.5
859.541	365.27
859.924	302.08
860.307	346.55
860.69	313.78
861.073	367.61
861.456	360.59
861.838	348.89
862.221	285.69
862.604	283.35
862.986	297.39
863.369	264.63
863.751	348.89
864.133	264.63
864.516	278.67
864.898	295.05
865.28	255.26
865.662	325.48
866.044	241.22
866.426	323.14
866.808	381.65
867.19	306.76
867.572	290.37
867.954	346.55
868.336	264.63
868.717	295.05
869.099	295.05
869.48	355.91
869.862	276.33
870.243	325.48
870.625	297.39
871.006	344.21
871.387	360.59
871.768	288.03
872.149	337.18
872.53	266.97
872.911	341.86
873.292	306.76
873.673	290.37
874.054	327.82
874.435	292.71
874.815	259.95
875.196	290.37
875.577	234.2
875.957	332.5
876.338	316.12
876.718	332.5
877.098	379.31
877.479	351.23
877.859	320.8
878.239	327.82
878.619	292.71
878.999	400.38
879.379	273.99
879.759	320.8
880.139	327.82
880.519	297.39
880.898	327.82
881.278	302.08
881.658	278.67
882.037	304.42
882.417	360.59
882.796	276.33
883.176	344.21
883.555	346.55
883.934	302.08
884.313	283.35
884.693	306.76
885.072	369.95
885.451	355.91
885.83	302.08
886.209	306.76
886.587	304.42
886.966	297.39
887.345	266.97
887.724	330.16
888.102	309.1
888.481	278.67
888.859	276.33
889.238	339.52
889.616	273.99
889.994	337.18
890.373	323.14
890.751	334.84
891.129	283.35
891.507	292.71
891.885	304.42
892.263	306.76
892.641	313.78
893.019	297.39
893.396	316.12
893.774	339.52
894.152	341.86
894.529	302.08
894.907	369.95
895.284	332.5
895.662	311.44
896.039	288.03
896.416	231.86
896.794	348.89
897.171	353.57
897.548	330.16
897.925	304.42
898.302	332.5
898.679	372.29
899.056	295.05
899.433	302.08
899.809	278.67
900.186	311.44
900.563	285.69
900.939	250.58
901.316	348.89
901.692	327.82
902.069	297.39
902.445	339.52
902.821	257.61
903.197	325.48
903.574	290.37
903.95	281.01
904.326	302.08
904.702	330.16
905.078	374.63
905.454	243.56
905.829	341.86
906.205	316.12
906.581	302.08
906.956	360.59
907.332	262.29
907.707	288.03
908.083	234.2
908.458	278.67
908.833	250.58
909.209	337.18
909.584	346.55
909.959	248.24
910.334	290.37
910.709	290.37
911.084	332.5
911.459	318.46
911.834	311.44
912.209	238.88
912.583	276.33
912.958	339.52
913.333	309.1
913.707	339.52
914.082	372.29
914.456	297.39
914.83	339.52
915.205	346.55
915.579	353.57
915.953	332.5
916.327	248.24
916.701	278.67
917.075	234.2
917.449	318.46
917.823	269.31
918.197	302.08
918.571	299.73
918.944	309.1
919.318	281.01
919.692	252.92
920.065	367.61
920.438	299.73
920.812	313.78
921.185	290.37
921.558	248.24
921.932	306.76
922.305	351.23
922.678	278.67
923.051	355.91
923.424	269.31
923.797	318.46
924.17	269.31
924.542	379.31
924.915	299.73
925.288	332.5
925.661	295.05
926.033	346.55
926.406	339.52
926.778	309.1
927.15	316.12
927.523	264.63
927.895	281.01
928.267	283.35
928.639	271.65
929.011	341.86
929.383	330.16
929.755	360.59
930.127	255.26
930.499	276.33
930.871	330.16
931.242	259.95
931.614	273.99
931.986	297.39
932.357	306.76
932.729	236.54
933.1	337.18
933.471	255.26
933.843	299.73
934.214	309.1
934.585	297.39
934.956	266.97
935.327	297.39
935.698	299.73
936.069	318.46
936.44	257.61
936.811	236.54
937.182	332.5
937.552	355.91
937.923	266.97
938.293	278.67
938.664	306.76
939.034	316.12
939.405	332.5
939.775	334.84
940.145	285.69
940.516	318.46
940.886	355.91
941.256	269.31
941.626	323.14
941.996	292.71
942.366	346.55
942.735	285.69
943.105	285.69
943.475	297.39
943.845	288.03
944.214	276.33
944.584	339.52
944.953	302.08
945.323	360.59
945.692	304.42
946.061	278.67
946.43	348.89
946.8	278.67
947.169	320.8
947.538	302.08
947.907	309.1
948.276	292.71
948.645	313.78
949.013	334.84
949.382	320.8
949.751	332.5
950.119	386.33
950.488	334.84
950.857	243.56
951.225	269.31
951.593	334.84
951.962	330.16
952.33	290.37
952.698	295.05
953.066	332.5
953.434	337.18
953.802	288.03
954.17	266.97
954.538	297.39
954.906	264.63
955.274	388.68
955.642	271.65
956.009	344.21
956.377	318.46
956.744	297.39
957.112	334.84
957.479	355.91
957.847	262.29
958.214	266.97
958.581	276.33
958.948	295.05
959.315	313.78
959.683	281.01
960.05	255.26
960.416	241.22
960.783	283.35
961.15	316.12
961.517	290.37
961.884	320.8
962.25	346.55
962.617	334.84
962.983	360.59
963.35	374.63
963.716	288.03
964.082	266.97
964.449	323.14
964.815	297.39
965.181	271.65
965.547	309.1
965.913	325.48
966.279	320.8
966.645	257.61
967.011	285.69
967.377	327.82
967.742	341.86
968.108	306.76
968.474	236.54
968.839	255.26
969.205	332.5
969.57	278.67
969.935	299.73
970.301	306.76
970.666	344.21
971.031	297.39
971.396	318.46
971.761	374.63
972.126	309.1
972.491	313.78
972.856	346.55
973.221	323.14
973.586	351.23
973.95	318.46
974.315	320.8
974.679	360.59
975.044	367.61
975.408	273.99
975.773	271.65
976.137	320.8
976.501	302.08
976.866	316.12
977.23	264.63
977.594	351.23
977.958	320.8
978.322	320.8
978.686	346.55
979.049	325.48
979.413	288.03
979.777	353.57
980.141	278.67
980.504	285.69
980.868	271.65
981.231	341.86
981.595	327.82
981.958	327.82
982.321	269.31
982.684	393.36
983.048	302.08
983.411	271.65
983.774	295.05
984.137	393.36
984.5	281.01
984.862	306.76
985.225	318.46
985.588	306.76
985.951	323.14
986.313	299.73
986.676	323.14
987.038	304.42
987.401	276.33
987.763	325.48
988.125	327.82
988.488	358.25
988.85	325.48
989.212	292.71
989.574	332.5
989.936	365.27
990.298	292.71
990.66	365.27
991.022	339.52
991.383	288.03
991.745	313.78
992.107	348.89
992.468	262.29
992.83	320.8
993.191	309.1
993.553	316.12
993.914	311.44
994.275	346.55
994.637	339.52
994.998	309.1
995.359	266.97
995.72	283.35
996.081	248.24
996.442	334.84
996.803	355.91
997.163	236.54
997.524	344.21
997.885	278.67
998.245	271.65
998.606	323.14
998.966	292.71
999.327	285.69
999.687	323.14
1000.047	327.82
1000.408	278.67
1000.768	288.03
1001.128	302.08
1001.488	288.03
1001.848	290.37
1002.208	252.92
1002.568	285.69
1002.927	292.71
1003.287	304.42
1003.647	374.63
1004.007	379.31
1004.366	330.16
1004.726	264.63
1005.085	334.84
1005.444	309.1
1005.804	325.48
1006.163	320.8
1006.522	311.44
1006.881	341.86
1007.24	304.42
1007.599	337.18
1007.958	273.99
1008.317	339.52
1008.676	283.35
1009.035	245.9
1009.393	327.82
1009.752	269.31
1010.111	320.8
1010.469	330.16
1010.828	273.99
1011.186	304.42
1011.544	238.88
1011.903	353.57
1012.261	344.21
1012.619	302.08
1012.977	208.45
1013.335	367.61
1013.693	276.33
1014.051	323.14
1014.409	339.52
1014.767	386.33
1015.124	250.58
1015.482	255.26
1015.84	288.03
1016.197	362.93
1016.555	302.08
1016.912	299.73
1017.269	283.35
1017.627	351.23
1017.984	318.46
1018.341	386.33
1018.698	295.05
1019.055	297.39
1019.412	306.76
1019.769	323.14
1020.126	302.08
1020.483	316.12
1020.84	323.14
1021.196	304.42
1021.553	250.58
1021.909	278.67
1022.266	346.55
1022.622	278.67
1022.979	339.52
1023.335	290.37
1023.691	323.14
1024.047	318.46
1024.404	271.65
1024.76	288.03
1025.116	285.69
1025.472	362.93
1025.827	337.18
1026.183	271.65
1026.539	318.46
1026.895	250.58
1027.25	276.33
1027.606	346.55
1027.961	313.78
1028.317	327.82
1028.672	252.92
1029.028	306.76
1029.383	281.01
1029.738	339.52
1030.093	266.97
1030.448	346.55
1030.803	313.78
1031.158	309.1
1031.513	348.89
1031.868	245.9
1032.223	309.1
1032.577	339.52
1032.932	295.05
1033.287	344.21
1033.641	362.93
1033.996	323.14
1034.35	306.76
1034.704	269.31
1035.059	238.88
1035.413	318.46
1035.767	318.46
1036.121	318.46
