Data from Al_FLMS009871__294__12-22-31-844.txt Node

Date: Fri Mar 08 12:22:31 CST 2024
User: pe5414po
Spectrometer: FLMS00987
Trigger mode: 0
Integration Time (sec): 1.000000E-1
Scans to average: 1
Electric dark correction enabled: true
Nonlinearity correction enabled: false
Boxcar width: 0
XAxis mode: Wavelengths
Number of Pixels in Spectrum: 2048
>>>>>Begin Spectral Data<<<<<
188.938	-40.23
189.409	-40.23
189.879	-40.23
190.349	-84.7
190.819	-108.1
191.29	-143.21
191.76	-65.97
192.23	-47.25
192.7	-94.06
193.17	-87.04
193.64	-21.5
194.109	-33.21
194.579	-61.29
195.049	-19.16
195.519	29.99
195.988	76.8
196.458	34.67
196.927	67.44
197.397	65.1
197.866	168.08
198.336	130.63
198.805	189.14
199.274	247.66
199.744	163.4
200.213	182.12
200.682	205.53
201.151	205.53
201.62	245.32
202.089	240.64
202.558	217.23
203.027	271.06
203.495	233.61
203.964	280.43
204.433	292.13
204.902	257.02
205.37	289.79
205.839	271.06
206.307	252.34
206.776	336.6
207.244	287.45
207.712	275.74
208.181	289.79
208.649	341.28
209.117	331.92
209.585	310.85
210.053	320.21
210.521	345.96
210.989	395.11
211.457	320.21
211.925	327.24
212.393	327.24
212.861	303.83
213.328	313.19
213.796	299.15
214.264	228.93
214.731	322.56
215.199	226.59
215.666	334.26
216.133	219.57
216.601	301.49
217.068	268.72
217.535	280.43
218.003	301.49
218.47	259.36
218.937	275.74
219.404	240.64
219.871	219.57
220.338	289.79
220.805	235.96
221.271	268.72
221.738	278.08
222.205	250
222.671	200.85
223.138	252.34
223.605	198.51
224.071	259.36
224.538	306.17
225.004	259.36
225.47	285.11
225.937	266.38
226.403	231.27
226.869	268.72
227.335	334.26
227.801	282.77
228.267	268.72
228.733	296.81
229.199	189.14
229.665	245.32
230.131	303.83
230.597	235.96
231.062	273.4
231.528	331.92
231.994	299.15
232.459	245.32
232.925	257.02
233.39	261.7
233.856	348.3
234.321	238.3
234.786	280.43
235.252	264.04
235.717	219.57
236.182	257.02
236.647	324.9
237.112	228.93
237.577	303.83
238.042	264.04
238.507	278.08
238.972	231.27
239.436	296.81
239.901	245.32
240.366	266.38
240.83	296.81
241.295	306.17
241.76	306.17
242.224	331.92
242.688	259.36
243.153	268.72
243.617	240.64
244.081	268.72
244.545	259.36
245.01	278.08
245.474	362.34
245.938	296.81
246.402	301.49
246.866	301.49
247.33	381.07
247.793	324.9
248.257	282.77
248.721	303.83
249.185	285.11
249.648	320.21
250.112	264.04
250.575	266.38
251.039	287.45
251.502	338.94
251.965	172.76
252.429	275.74
252.892	259.36
253.355	250
253.818	275.74
254.281	259.36
254.744	287.45
255.207	296.81
255.67	287.45
256.133	231.27
256.596	301.49
257.059	235.96
257.522	381.07
257.984	282.77
258.447	268.72
258.909	228.93
259.372	294.47
259.834	221.91
260.297	317.87
260.759	259.36
261.221	264.04
261.684	278.08
262.146	278.08
262.608	294.47
263.07	320.21
263.532	303.83
263.994	306.17
264.456	343.62
264.918	278.08
265.38	322.56
265.842	296.81
266.303	315.53
266.765	310.85
267.227	310.85
267.688	315.53
268.15	268.72
268.611	254.68
269.072	303.83
269.534	214.89
269.995	250
270.456	245.32
270.918	350.64
271.379	264.04
271.84	336.6
272.301	268.72
272.762	280.43
273.223	310.85
273.684	294.47
274.144	331.92
274.605	301.49
275.066	228.93
275.527	228.93
275.987	287.45
276.448	259.36
276.908	308.51
277.369	310.85
277.829	296.81
278.289	273.4
278.75	315.53
279.21	238.3
279.67	280.43
280.13	301.49
280.59	374.05
281.05	282.77
281.51	320.21
281.97	313.19
282.43	331.92
282.89	303.83
283.35	360
283.809	266.38
284.269	245.32
284.729	278.08
285.188	324.9
285.648	278.08
286.107	301.49
286.567	341.28
287.026	273.4
287.485	348.3
287.944	334.26
288.404	285.11
288.863	338.94
289.322	275.74
289.781	303.83
290.24	254.68
290.699	273.4
291.158	313.19
291.616	315.53
292.075	310.85
292.534	196.17
292.992	252.34
293.451	296.81
293.91	287.45
294.368	336.6
294.827	341.28
295.285	257.02
295.743	338.94
296.202	273.4
296.66	313.19
297.118	301.49
297.576	315.53
298.034	313.19
298.492	355.32
298.95	221.91
299.408	303.83
299.866	334.26
300.324	268.72
300.781	317.87
301.239	296.81
301.697	320.21
302.154	315.53
302.612	320.21
303.069	345.96
303.527	254.68
303.984	374.05
304.441	296.81
304.899	303.83
305.356	303.83
305.813	369.37
306.27	289.79
306.727	287.45
307.184	324.9
307.641	376.39
308.098	315.53
308.555	294.47
309.012	278.08
309.468	268.72
309.925	327.24
310.382	315.53
310.838	357.66
311.295	324.9
311.751	310.85
312.208	317.87
312.664	245.32
313.12	294.47
313.577	329.58
314.033	313.19
314.489	355.32
314.945	327.24
315.401	320.21
315.857	322.56
316.313	329.58
316.769	303.83
317.225	313.19
317.681	313.19
318.136	352.98
318.592	294.47
319.048	310.85
319.503	259.36
319.959	273.4
320.414	334.26
320.869	282.77
321.325	261.7
321.78	310.85
322.235	322.56
322.691	245.32
323.146	289.79
323.601	257.02
324.056	327.24
324.511	301.49
324.966	341.28
325.421	336.6
325.875	348.3
326.33	294.47
326.785	336.6
327.24	296.81
327.694	317.87
328.149	341.28
328.603	315.53
329.058	299.15
329.512	334.26
329.966	345.96
330.421	320.21
330.875	235.96
331.329	257.02
331.783	376.39
332.237	280.43
332.691	266.38
333.145	322.56
333.599	306.17
334.053	294.47
334.507	275.74
334.96	315.53
335.414	268.72
335.868	362.34
336.321	296.81
336.775	324.9
337.228	273.4
337.682	310.85
338.135	310.85
338.588	352.98
339.042	268.72
339.495	285.11
339.948	271.06
340.401	369.37
340.854	301.49
341.307	282.77
341.76	240.64
342.213	313.19
342.666	278.08
343.119	289.79
343.571	289.79
344.024	343.62
344.477	315.53
344.929	324.9
345.382	331.92
345.834	303.83
346.287	296.81
346.739	362.34
347.191	282.77
347.644	338.94
348.096	357.66
348.548	254.68
349	338.94
349.452	271.06
349.904	299.15
350.356	285.11
350.808	364.68
351.26	303.83
351.711	341.28
352.163	327.24
352.615	320.21
353.066	336.6
353.518	310.85
353.969	362.34
354.421	271.06
354.872	327.24
355.324	303.83
355.775	313.19
356.226	324.9
356.677	247.66
357.128	383.41
357.579	292.13
358.03	301.49
358.481	343.62
358.932	296.81
359.383	406.81
359.834	378.73
360.285	374.05
360.735	306.17
361.186	273.4
361.637	268.72
362.087	259.36
362.538	299.15
362.988	273.4
363.438	341.28
363.889	310.85
364.339	324.9
364.789	360
365.239	303.83
365.689	282.77
366.139	327.24
366.589	315.53
367.039	310.85
367.489	264.04
367.939	224.25
368.389	280.43
368.839	264.04
369.288	317.87
369.738	341.28
370.187	261.7
370.637	257.02
371.086	364.68
371.536	308.51
371.985	268.72
372.434	294.47
372.884	292.13
373.333	285.11
373.782	369.37
374.231	320.21
374.68	306.17
375.129	280.43
375.578	348.3
376.027	301.49
376.475	294.47
376.924	343.62
377.373	275.74
377.822	327.24
378.27	313.19
378.719	343.62
379.167	259.36
379.616	282.77
380.064	285.11
380.512	301.49
380.961	320.21
381.409	324.9
381.857	350.64
382.305	301.49
382.753	266.38
383.201	331.92
383.649	324.9
384.097	343.62
384.545	257.02
384.992	367.03
385.44	334.26
385.888	282.77
386.335	217.23
386.783	367.03
387.231	327.24
387.678	329.58
388.125	350.64
388.573	294.47
389.02	280.43
389.467	280.43
389.914	313.19
390.362	320.21
390.809	296.81
391.256	275.74
391.703	271.06
392.15	287.45
392.596	322.56
393.043	334.26
393.49	310.85
393.937	341.28
394.383	352.98
394.83	320.21
395.276	324.9
395.723	327.24
396.169	296.81
396.616	357.66
397.062	303.83
397.508	296.81
397.954	252.34
398.401	329.58
398.847	331.92
399.293	367.03
399.739	268.72
400.185	350.64
400.631	327.24
401.076	306.17
401.522	360
401.968	287.45
402.414	324.9
402.859	271.06
403.305	348.3
403.75	427.88
404.196	334.26
404.641	334.26
405.086	406.81
405.532	299.15
405.977	310.85
406.422	348.3
406.867	357.66
407.312	296.81
407.757	397.45
408.202	383.41
408.647	360
409.092	331.92
409.537	338.94
409.982	334.26
410.426	360
410.871	306.17
411.316	352.98
411.76	355.32
412.205	324.9
412.649	385.75
413.093	273.4
413.538	306.17
413.982	327.24
414.426	338.94
414.87	341.28
415.314	317.87
415.758	329.58
416.202	336.6
416.646	322.56
417.09	385.75
417.534	317.87
417.978	360
418.421	313.19
418.865	334.26
419.309	341.28
419.752	360
420.196	306.17
420.639	292.13
421.083	334.26
421.526	395.11
421.969	296.81
422.412	385.75
422.856	322.56
423.299	399.79
423.742	360
424.185	306.17
424.628	378.73
425.071	418.52
425.513	362.34
425.956	376.39
426.399	292.13
426.842	381.07
427.284	418.52
427.727	399.79
428.169	402.13
428.612	383.41
429.054	418.52
429.497	390.43
429.939	418.52
430.381	383.41
430.823	388.09
431.265	404.47
431.707	338.94
432.149	376.39
432.591	392.77
433.033	399.79
433.475	420.86
433.917	462.99
434.359	472.35
434.8	556.61
435.242	549.59
435.684	561.29
436.125	488.73
436.567	521.5
437.008	488.73
437.449	441.92
437.891	411.5
438.332	439.58
438.773	474.69
439.214	533.2
439.656	495.75
440.097	477.03
440.538	481.71
440.978	479.37
441.419	519.16
441.86	523.84
442.301	528.52
442.742	479.37
443.182	491.07
443.623	460.65
444.063	565.97
444.504	516.82
444.944	594.06
445.385	535.54
445.825	486.39
446.265	530.86
446.706	500.44
447.146	484.05
447.586	551.93
448.026	547.25
448.466	498.1
448.906	549.59
449.346	521.5
449.786	533.2
450.225	413.84
450.665	556.61
451.105	479.37
451.544	535.54
451.984	523.84
452.424	505.12
452.863	460.65
453.302	523.84
453.742	514.48
454.181	495.75
454.62	495.75
455.059	486.39
455.499	416.18
455.938	509.8
456.377	467.67
456.816	495.75
457.254	514.48
457.693	521.5
458.132	526.18
458.571	402.13
459.01	406.81
459.448	416.18
459.887	498.1
460.325	416.18
460.764	462.99
461.202	474.69
461.641	432.56
462.079	425.54
462.517	390.43
462.955	437.24
463.393	399.79
463.832	444.26
464.27	381.07
464.708	418.52
465.145	385.75
465.583	404.47
466.021	437.24
466.459	404.47
466.897	413.84
467.334	402.13
467.772	425.54
468.209	381.07
468.647	434.9
469.084	317.87
469.522	378.73
469.959	390.43
470.396	324.9
470.833	395.11
471.271	374.05
471.708	278.08
472.145	390.43
472.582	413.84
473.019	360
473.456	378.73
473.892	390.43
474.329	343.62
474.766	374.05
475.202	470.01
475.639	334.26
476.076	465.33
476.512	315.53
476.949	345.96
477.385	411.5
477.821	376.39
478.258	320.21
478.694	348.3
479.13	388.09
479.566	369.37
480.002	336.6
480.438	402.13
480.874	317.87
481.31	381.07
481.746	376.39
482.181	406.81
482.617	341.28
483.053	444.26
483.488	451.28
483.924	425.54
484.36	357.66
484.795	385.75
485.23	437.24
485.666	383.41
486.101	451.28
486.536	420.86
486.971	430.22
487.407	395.11
487.842	491.07
488.277	444.26
488.712	430.22
489.146	411.5
489.581	397.45
490.016	432.56
490.451	376.39
490.885	402.13
491.32	434.9
491.755	385.75
492.189	434.9
492.624	448.94
493.058	430.22
493.492	465.33
493.927	420.86
494.361	390.43
494.795	369.37
495.229	397.45
495.663	437.24
496.097	411.5
496.531	399.79
496.965	427.88
497.399	367.03
497.833	441.92
498.266	434.9
498.7	432.56
499.134	418.52
499.567	434.9
500.001	453.63
500.434	441.92
500.868	411.5
501.301	381.07
501.734	470.01
502.168	376.39
502.601	444.26
503.034	388.09
503.467	399.79
503.9	448.94
504.333	378.73
504.766	348.3
505.199	362.34
505.632	423.2
506.064	360
506.497	437.24
506.93	360
507.362	441.92
507.795	397.45
508.227	418.52
508.66	432.56
509.092	437.24
509.524	383.41
509.956	423.2
510.389	451.28
510.821	472.35
511.253	381.07
511.685	462.99
512.117	462.99
512.549	458.31
512.981	395.11
513.412	507.46
513.844	493.41
514.276	441.92
514.707	458.31
515.139	420.86
515.571	402.13
516.002	484.05
516.433	392.77
516.865	486.39
517.296	472.35
517.727	416.18
518.159	446.6
518.59	416.18
519.021	486.39
519.452	437.24
519.883	432.56
520.314	451.28
520.744	432.56
521.175	495.75
521.606	493.41
522.037	477.03
522.467	420.86
522.898	420.86
523.328	392.77
523.759	427.88
524.189	322.56
524.62	420.86
525.05	481.71
525.48	458.31
525.91	484.05
526.341	465.33
526.771	444.26
527.201	432.56
527.631	458.31
528.061	455.97
528.49	395.11
528.92	465.33
529.35	374.05
529.78	388.09
530.209	432.56
530.639	434.9
531.068	395.11
531.498	416.18
531.927	437.24
532.357	486.39
532.786	418.52
533.215	514.48
533.644	432.56
534.074	484.05
534.503	434.9
534.932	470.01
535.361	486.39
535.79	416.18
536.218	441.92
536.647	441.92
537.076	467.67
537.505	453.63
537.933	484.05
538.362	495.75
538.79	477.03
539.219	505.12
539.647	563.63
540.076	526.18
540.504	608.1
540.932	505.12
541.36	650.23
541.788	631.51
542.217	706.4
542.645	692.36
543.073	715.77
543.5	755.55
543.928	722.79
544.356	774.28
544.784	748.53
545.211	774.28
545.639	746.19
546.067	678.32
546.494	647.89
546.922	561.29
547.349	582.35
547.776	568.31
548.204	516.82
548.631	495.75
549.058	547.25
549.485	528.52
549.912	437.24
550.339	462.99
550.766	467.67
551.193	498.1
551.62	498.1
552.047	488.73
552.474	493.41
552.9	481.71
553.327	472.35
553.754	462.99
554.18	505.12
554.607	488.73
555.033	418.52
555.459	479.37
555.886	479.37
556.312	477.03
556.738	374.05
557.164	441.92
557.59	406.81
558.016	388.09
558.442	388.09
558.868	374.05
559.294	486.39
559.72	409.15
560.145	451.28
560.571	404.47
560.997	392.77
561.422	444.26
561.848	460.65
562.273	448.94
562.699	430.22
563.124	472.35
563.549	460.65
563.974	439.58
564.4	350.64
564.825	462.99
565.25	418.52
565.675	542.57
566.1	416.18
566.525	437.24
566.95	451.28
567.374	395.11
567.799	467.67
568.224	441.92
568.648	488.73
569.073	406.81
569.497	416.18
569.922	360
570.346	411.5
570.771	439.58
571.195	418.52
571.619	324.9
572.043	451.28
572.467	420.86
572.891	416.18
573.315	418.52
573.739	427.88
574.163	448.94
574.587	486.39
575.011	432.56
575.435	371.71
575.858	437.24
576.282	462.99
576.705	402.13
577.129	458.31
577.552	455.97
577.976	474.69
578.399	516.82
578.822	523.84
579.245	439.58
579.669	413.84
580.092	432.56
580.515	481.71
580.938	448.94
581.361	434.9
581.784	448.94
582.206	472.35
582.629	441.92
583.052	458.31
583.474	507.46
583.897	486.39
584.32	404.47
584.742	467.67
585.165	448.94
585.587	420.86
586.009	439.58
586.431	458.31
586.854	547.25
587.276	495.75
587.698	491.07
588.12	477.03
588.542	477.03
588.964	493.41
589.386	416.18
589.807	451.28
590.229	416.18
590.651	392.77
591.073	479.37
591.494	460.65
591.916	355.32
592.337	446.6
592.759	430.22
593.18	491.07
593.601	369.37
594.022	406.81
594.444	427.88
594.865	341.28
595.286	352.98
595.707	455.97
596.128	395.11
596.549	362.34
596.97	357.66
597.39	423.2
597.811	371.71
598.232	388.09
598.652	441.92
599.073	434.9
599.494	425.54
599.914	395.11
600.334	399.79
600.755	402.13
601.175	409.15
601.595	441.92
602.015	388.09
602.436	432.56
602.856	537.88
603.276	423.2
603.696	360
604.115	343.62
604.535	360
604.955	399.79
605.375	327.24
605.794	343.62
606.214	385.75
606.634	362.34
607.053	446.6
607.473	411.5
607.892	455.97
608.311	406.81
608.731	455.97
609.15	493.41
609.569	575.33
609.988	647.89
610.407	778.96
610.826	713.42
611.245	778.96
611.664	713.42
612.083	729.81
612.501	748.53
612.92	608.1
613.339	575.33
613.757	542.57
614.176	519.16
614.594	495.75
615.013	472.35
615.431	507.46
615.85	430.22
616.268	465.33
616.686	406.81
617.104	418.52
617.522	481.71
617.94	374.05
618.358	409.15
618.776	446.6
619.194	460.65
619.612	423.2
620.03	402.13
620.447	437.24
620.865	465.33
621.282	444.26
621.7	491.07
622.117	434.9
622.535	385.75
622.952	455.97
623.369	423.2
623.787	460.65
624.204	329.58
624.621	327.24
625.038	343.62
625.455	444.26
625.872	420.86
626.289	392.77
626.706	406.81
627.123	367.03
627.539	362.34
627.956	453.63
628.373	416.18
628.789	385.75
629.206	383.41
629.622	395.11
630.038	413.84
630.455	413.84
630.871	406.81
631.287	462.99
631.703	392.77
632.12	369.37
632.536	355.32
632.952	352.98
633.368	376.39
633.783	369.37
634.199	385.75
634.615	392.77
635.031	306.17
635.446	317.87
635.862	315.53
636.277	378.73
636.693	317.87
637.108	334.26
637.524	420.86
637.939	348.3
638.354	404.47
638.77	289.79
639.185	362.34
639.6	303.83
640.015	336.6
640.43	355.32
640.845	331.92
641.259	362.34
641.674	423.2
642.089	383.41
642.504	383.41
642.918	320.21
643.333	301.49
643.747	294.47
644.162	341.28
644.576	350.64
644.991	345.96
645.405	388.09
645.819	399.79
646.233	268.72
646.647	338.94
647.061	322.56
647.475	329.58
647.889	371.71
648.303	357.66
648.717	374.05
649.131	371.71
649.545	336.6
649.958	334.26
650.372	299.15
650.785	331.92
651.199	385.75
651.612	289.79
652.026	324.9
652.439	388.09
652.852	329.58
653.266	355.32
653.679	299.15
654.092	367.03
654.505	352.98
654.918	388.09
655.331	374.05
655.744	383.41
656.156	341.28
656.569	310.85
656.982	329.58
657.394	355.32
657.807	322.56
658.22	343.62
658.632	341.28
659.044	411.5
659.457	299.15
659.869	329.58
660.281	385.75
660.693	306.17
661.106	322.56
661.518	355.32
661.93	331.92
662.342	345.96
662.754	376.39
663.165	399.79
663.577	336.6
663.989	376.39
664.401	303.83
664.812	308.51
665.224	315.53
665.635	313.19
666.047	360
666.458	348.3
666.869	383.41
667.281	320.21
667.692	292.13
668.103	395.11
668.514	299.15
668.925	383.41
669.336	388.09
669.747	364.68
670.158	242.98
670.569	331.92
670.979	341.28
671.39	329.58
671.801	322.56
672.211	341.28
672.622	268.72
673.032	315.53
673.443	341.28
673.853	315.53
674.263	301.49
674.674	352.98
675.084	338.94
675.494	338.94
675.904	273.4
676.314	336.6
676.724	352.98
677.134	341.28
677.544	360
677.953	350.64
678.363	271.06
678.773	371.71
679.182	343.62
679.592	306.17
680.001	348.3
680.411	360
680.82	334.26
681.23	268.72
681.639	385.75
682.048	294.47
682.457	306.17
682.866	334.26
683.275	413.84
683.684	294.47
684.093	395.11
684.502	427.88
684.911	301.49
685.32	294.47
685.728	338.94
686.137	308.51
686.546	385.75
686.954	257.02
687.363	357.66
687.771	341.28
688.179	378.73
688.588	280.43
688.996	310.85
689.404	303.83
689.812	352.98
690.22	338.94
690.628	317.87
691.036	341.28
691.444	371.71
691.852	348.3
692.26	355.32
692.667	341.28
693.075	404.47
693.483	348.3
693.89	317.87
694.298	345.96
694.705	320.21
695.112	275.74
695.52	345.96
695.927	392.77
696.334	322.56
696.741	261.7
697.148	287.45
697.555	294.47
697.962	317.87
698.369	334.26
698.776	336.6
699.183	268.72
699.59	301.49
699.996	266.38
700.403	282.77
700.81	331.92
701.216	320.21
701.623	266.38
702.029	306.17
702.435	303.83
702.842	320.21
703.248	285.11
703.654	306.17
704.06	310.85
704.466	352.98
704.872	303.83
705.278	371.71
705.684	343.62
706.09	317.87
706.496	390.43
706.901	240.64
707.307	343.62
707.712	357.66
708.118	364.68
708.523	348.3
708.929	348.3
709.334	395.11
709.74	355.32
710.145	345.96
710.55	336.6
710.955	331.92
711.36	289.79
711.765	317.87
712.17	313.19
712.575	341.28
712.98	895.99
713.385	341.28
713.789	275.74
714.194	357.66
714.599	334.26
715.003	282.77
715.408	352.98
715.812	381.07
716.217	374.05
716.621	292.13
717.025	336.6
717.429	301.49
717.833	362.34
718.238	313.19
718.642	341.28
719.046	331.92
719.449	331.92
719.853	292.13
720.257	334.26
720.661	324.9
721.065	427.88
721.468	292.13
721.872	345.96
722.275	324.9
722.679	306.17
723.082	301.49
723.485	341.28
723.889	355.32
724.292	357.66
724.695	352.98
725.098	360
725.501	367.03
725.904	299.15
726.307	350.64
726.71	301.49
727.113	329.58
727.516	252.34
727.918	341.28
728.321	315.53
728.724	336.6
729.126	303.83
729.529	360
729.931	376.39
730.333	282.77
730.736	289.79
731.138	268.72
731.54	320.21
731.942	275.74
732.344	285.11
732.746	289.79
733.148	324.9
733.55	303.83
733.952	310.85
734.354	324.9
734.756	261.7
735.157	296.81
735.559	306.17
735.96	360
736.362	357.66
736.763	364.68
737.165	320.21
737.566	343.62
737.967	352.98
738.368	285.11
738.77	331.92
739.171	289.79
739.572	292.13
739.973	348.3
740.374	352.98
740.774	348.3
741.175	369.37
741.576	285.11
741.977	341.28
742.377	371.71
742.778	285.11
743.178	362.34
743.579	320.21
743.979	301.49
744.379	259.36
744.78	273.4
745.18	348.3
745.58	345.96
745.98	308.51
746.38	301.49
746.78	327.24
747.18	299.15
747.58	369.37
747.98	308.51
748.38	261.7
748.779	308.51
749.179	299.15
749.578	306.17
749.978	233.61
750.377	341.28
750.777	271.06
751.176	247.66
751.575	343.62
751.975	341.28
752.374	264.04
752.773	252.34
753.172	278.08
753.571	343.62
753.97	381.07
754.369	317.87
754.768	275.74
755.166	296.81
755.565	324.9
755.964	381.07
756.362	420.86
756.761	371.71
757.159	343.62
757.558	320.21
757.956	287.45
758.354	308.51
758.753	352.98
759.151	329.58
759.549	289.79
759.947	376.39
760.345	369.37
760.743	376.39
761.141	364.68
761.539	289.79
761.936	369.37
762.334	338.94
762.732	280.43
763.129	327.24
763.527	275.74
763.924	334.26
764.322	317.87
764.719	275.74
765.117	374.05
765.514	306.17
765.911	296.81
766.308	341.28
766.705	381.07
767.102	345.96
767.499	329.58
767.896	348.3
768.293	306.17
768.69	338.94
769.086	383.41
769.483	341.28
769.88	322.56
770.276	329.58
770.673	308.51
771.069	322.56
771.466	296.81
771.862	367.03
772.258	242.98
772.654	299.15
773.05	343.62
773.447	287.45
773.843	355.32
774.239	336.6
774.634	247.66
775.03	292.13
775.426	278.08
775.822	271.06
776.218	289.79
776.613	301.49
777.009	336.6
777.404	306.17
777.8	294.47
778.195	303.83
778.59	308.51
778.986	313.19
779.381	292.13
779.776	306.17
780.171	329.58
780.566	303.83
780.961	273.4
781.356	355.32
781.751	310.85
782.146	327.24
782.54	324.9
782.935	299.15
783.33	331.92
783.724	313.19
784.119	355.32
784.513	338.94
784.908	331.92
785.302	320.21
785.696	362.34
786.09	345.96
786.485	308.51
786.879	235.96
787.273	280.43
787.667	381.07
788.061	364.68
788.454	336.6
788.848	317.87
789.242	327.24
789.636	329.58
790.029	378.73
790.423	327.24
790.816	322.56
791.21	392.77
791.603	313.19
791.997	329.58
792.39	388.09
792.783	287.45
793.176	355.32
793.569	287.45
793.962	322.56
794.355	282.77
794.748	329.58
795.141	360
795.534	320.21
795.927	315.53
796.319	383.41
796.712	257.02
797.105	287.45
797.497	289.79
797.89	371.71
798.282	360
798.674	385.75
799.067	268.72
799.459	327.24
799.851	273.4
800.243	292.13
800.635	327.24
801.027	310.85
801.419	388.09
801.811	313.19
802.203	303.83
802.594	294.47
802.986	322.56
803.378	338.94
803.769	306.17
804.161	296.81
804.552	292.13
804.944	320.21
805.335	289.79
805.726	371.71
806.118	296.81
806.509	294.47
806.9	369.37
807.291	322.56
807.682	240.64
808.073	395.11
808.464	315.53
808.855	348.3
809.245	343.62
809.636	306.17
810.027	327.24
810.417	310.85
810.808	289.79
811.198	315.53
811.589	371.71
811.979	317.87
812.369	313.19
812.759	341.28
813.15	352.98
813.54	282.77
813.93	317.87
814.32	292.13
814.71	292.13
815.1	329.58
815.489	313.19
815.879	313.19
816.269	331.92
816.658	289.79
817.048	303.83
817.438	329.58
817.827	395.11
818.216	324.9
818.606	247.66
818.995	292.13
819.384	317.87
819.773	317.87
820.163	254.68
820.552	315.53
820.941	275.74
821.33	303.83
821.718	317.87
822.107	345.96
822.496	282.77
822.885	329.58
823.273	343.62
823.662	350.64
824.05	317.87
824.439	289.79
824.827	261.7
825.216	348.3
825.604	324.9
825.992	252.34
826.38	322.56
826.768	238.3
827.156	336.6
827.544	306.17
827.932	289.79
828.32	282.77
828.708	287.45
829.096	317.87
829.483	292.13
829.871	317.87
830.259	374.05
830.646	348.3
831.034	261.7
831.421	294.47
831.808	336.6
832.196	392.77
832.583	285.11
832.97	336.6
833.357	329.58
833.744	322.56
834.131	374.05
834.518	362.34
834.905	280.43
835.292	341.28
835.678	306.17
836.065	360
836.452	301.49
836.838	285.11
837.225	409.15
837.611	306.17
837.998	287.45
838.384	383.41
838.77	315.53
839.157	315.53
839.543	334.26
839.929	292.13
840.315	341.28
840.701	268.72
841.087	296.81
841.473	250
841.858	331.92
842.244	324.9
842.63	381.07
843.015	292.13
843.401	554.27
843.787	310.85
844.172	287.45
844.557	338.94
844.943	289.79
845.328	313.19
845.713	266.38
846.098	367.03
846.483	294.47
846.868	345.96
847.253	296.81
847.638	334.26
848.023	345.96
848.408	329.58
848.793	285.11
849.177	324.9
849.562	301.49
849.947	313.19
850.331	294.47
850.715	343.62
851.1	324.9
851.484	327.24
851.868	348.3
852.253	310.85
852.637	273.4
853.021	306.17
853.405	331.92
853.789	341.28
854.173	271.06
854.557	341.28
854.94	352.98
855.324	329.58
855.708	329.58
856.091	341.28
856.475	278.08
856.858	301.49
857.242	322.56
857.625	345.96
858.009	268.72
858.392	306.17
858.775	313.19
859.158	264.04
859.541	285.11
859.924	348.3
860.307	348.3
860.69	329.58
861.073	266.38
861.456	338.94
861.838	317.87
862.221	336.6
862.604	317.87
862.986	334.26
863.369	360
863.751	331.92
864.133	317.87
864.516	313.19
864.898	301.49
865.28	334.26
865.662	306.17
866.044	327.24
866.426	301.49
866.808	369.37
867.19	329.58
867.572	338.94
867.954	294.47
868.336	252.34
868.717	278.08
869.099	261.7
869.48	242.98
869.862	278.08
870.243	331.92
870.625	264.04
871.006	378.73
871.387	327.24
871.768	292.13
872.149	282.77
872.53	327.24
872.911	306.17
873.292	261.7
873.673	308.51
874.054	313.19
874.435	247.66
874.815	301.49
875.196	331.92
875.577	322.56
875.957	343.62
876.338	306.17
876.718	275.74
877.098	273.4
877.479	282.77
877.859	324.9
878.239	278.08
878.619	301.49
878.999	285.11
879.379	303.83
879.759	320.21
880.139	315.53
880.519	289.79
880.898	409.15
881.278	338.94
881.658	350.64
882.037	334.26
882.417	331.92
882.796	282.77
883.176	369.37
883.555	296.81
883.934	324.9
884.313	292.13
884.693	369.37
885.072	278.08
885.451	357.66
885.83	292.13
886.209	331.92
886.587	338.94
886.966	278.08
887.345	341.28
887.724	360
888.102	362.34
888.481	369.37
888.859	282.77
889.238	264.04
889.616	329.58
889.994	301.49
890.373	306.17
890.751	327.24
891.129	355.32
891.507	350.64
891.885	294.47
892.263	292.13
892.641	355.32
893.019	247.66
893.396	306.17
893.774	315.53
894.152	336.6
894.529	360
894.907	390.43
895.284	329.58
895.662	306.17
896.039	308.51
896.416	381.07
896.794	315.53
897.171	336.6
897.548	348.3
897.925	336.6
898.302	352.98
898.679	254.68
899.056	313.19
899.433	294.47
899.809	341.28
900.186	320.21
900.563	275.74
900.939	320.21
901.316	334.26
901.692	254.68
902.069	308.51
902.445	348.3
902.821	322.56
903.197	334.26
903.574	360
903.95	341.28
904.326	271.06
904.702	320.21
905.078	334.26
905.454	334.26
905.829	264.04
906.205	308.51
906.581	308.51
906.956	334.26
907.332	348.3
907.707	313.19
908.083	374.05
908.458	289.79
908.833	296.81
909.209	336.6
909.584	282.77
909.959	280.43
910.334	369.37
910.709	292.13
911.084	308.51
911.459	345.96
911.834	327.24
912.209	324.9
912.583	345.96
912.958	345.96
913.333	313.19
913.707	336.6
914.082	287.45
914.456	308.51
914.83	327.24
915.205	413.84
915.579	322.56
915.953	301.49
916.327	364.68
916.701	294.47
917.075	275.74
917.449	278.08
917.823	378.73
918.197	308.51
918.571	385.75
918.944	315.53
919.318	324.9
919.692	329.58
920.065	313.19
920.438	374.05
920.812	250
921.185	250
921.558	350.64
921.932	306.17
922.305	289.79
922.678	348.3
923.051	296.81
923.424	301.49
923.797	329.58
924.17	275.74
924.542	313.19
924.915	343.62
925.288	289.79
925.661	364.68
926.033	343.62
926.406	376.39
926.778	301.49
927.15	285.11
927.523	317.87
927.895	362.34
928.267	331.92
928.639	308.51
929.011	301.49
929.383	350.64
929.755	273.4
930.127	343.62
930.499	374.05
930.871	364.68
931.242	268.72
931.614	331.92
931.986	324.9
932.357	350.64
932.729	289.79
933.1	292.13
933.471	301.49
933.843	254.68
934.214	371.71
934.585	313.19
934.956	257.02
935.327	303.83
935.698	313.19
936.069	292.13
936.44	212.55
936.811	296.81
937.182	282.77
937.552	315.53
937.923	257.02
938.293	329.58
938.664	254.68
939.034	322.56
939.405	296.81
939.775	329.58
940.145	289.79
940.516	331.92
940.886	320.21
941.256	367.03
941.626	299.15
941.996	369.37
942.366	329.58
942.735	308.51
943.105	261.7
943.475	303.83
943.845	296.81
944.214	280.43
944.584	285.11
944.953	285.11
945.323	343.62
945.692	306.17
946.061	303.83
946.43	324.9
946.8	329.58
947.169	287.45
947.538	264.04
947.907	268.72
948.276	273.4
948.645	294.47
949.013	250
949.382	228.93
949.751	310.85
950.119	317.87
950.488	315.53
950.857	324.9
951.225	292.13
951.593	317.87
951.962	364.68
952.33	306.17
952.698	352.98
953.066	294.47
953.434	327.24
953.802	303.83
954.17	306.17
954.538	362.34
954.906	329.58
955.274	322.56
955.642	310.85
956.009	320.21
956.377	310.85
956.744	364.68
957.112	287.45
957.479	271.06
957.847	299.15
958.214	327.24
958.581	322.56
958.948	338.94
959.315	322.56
959.683	374.05
960.05	308.51
960.416	301.49
960.783	261.7
961.15	320.21
961.517	299.15
961.884	378.73
962.25	257.02
962.617	374.05
962.983	308.51
963.35	303.83
963.716	320.21
964.082	278.08
964.449	355.32
964.815	331.92
965.181	338.94
965.547	275.74
965.913	334.26
966.279	299.15
966.645	329.58
967.011	257.02
967.377	329.58
967.742	292.13
968.108	285.11
968.474	355.32
968.839	306.17
969.205	294.47
969.57	285.11
969.935	301.49
970.301	308.51
970.666	268.72
971.031	301.49
971.396	324.9
971.761	331.92
972.126	289.79
972.491	282.77
972.856	308.51
973.221	292.13
973.586	348.3
973.95	285.11
974.315	303.83
974.679	355.32
975.044	360
975.408	275.74
975.773	334.26
976.137	315.53
976.501	322.56
976.866	310.85
977.23	315.53
977.594	273.4
977.958	292.13
978.322	301.49
978.686	303.83
979.049	259.36
979.413	308.51
979.777	313.19
980.141	275.74
980.504	301.49
980.868	310.85
981.231	303.83
981.595	268.72
981.958	310.85
982.321	383.41
982.684	331.92
983.048	287.45
983.411	259.36
983.774	364.68
984.137	322.56
984.5	343.62
984.862	367.03
985.225	352.98
985.588	280.43
985.951	306.17
986.313	273.4
986.676	364.68
987.038	282.77
987.401	313.19
987.763	324.9
988.125	313.19
988.488	285.11
988.85	299.15
989.212	296.81
989.574	310.85
989.936	315.53
990.298	301.49
990.66	322.56
991.022	348.3
991.383	383.41
991.745	292.13
992.107	341.28
992.468	324.9
992.83	294.47
993.191	322.56
993.553	280.43
993.914	310.85
994.275	310.85
994.637	306.17
994.998	273.4
995.359	308.51
995.72	345.96
996.081	364.68
996.442	334.26
996.803	374.05
997.163	341.28
997.524	355.32
997.885	374.05
998.245	329.58
998.606	214.89
998.966	338.94
999.327	285.11
999.687	336.6
1000.047	271.06
1000.408	345.96
1000.768	289.79
1001.128	315.53
1001.488	355.32
1001.848	271.06
1002.208	355.32
1002.568	317.87
1002.927	306.17
1003.287	303.83
1003.647	345.96
1004.007	331.92
1004.366	336.6
1004.726	343.62
1005.085	282.77
1005.444	327.24
1005.804	315.53
1006.163	299.15
1006.522	278.08
1006.881	331.92
1007.24	383.41
1007.599	352.98
1007.958	331.92
1008.317	338.94
1008.676	278.08
1009.035	271.06
1009.393	324.9
1009.752	343.62
1010.111	280.43
1010.469	343.62
1010.828	336.6
1011.186	301.49
1011.544	306.17
1011.903	294.47
1012.261	338.94
1012.619	308.51
1012.977	355.32
1013.335	306.17
1013.693	259.36
1014.051	369.37
1014.409	345.96
1014.767	313.19
1015.124	240.64
1015.482	315.53
1015.84	231.27
1016.197	331.92
1016.555	240.64
1016.912	292.13
1017.269	264.04
1017.627	306.17
1017.984	324.9
1018.341	278.08
1018.698	317.87
1019.055	322.56
1019.412	306.17
1019.769	357.66
1020.126	352.98
1020.483	355.32
1020.84	338.94
1021.196	367.03
1021.553	299.15
1021.909	338.94
1022.266	261.7
1022.622	313.19
1022.979	322.56
1023.335	327.24
1023.691	322.56
1024.047	322.56
1024.404	324.9
1024.76	292.13
1025.116	374.05
1025.472	296.81
1025.827	282.77
1026.183	292.13
1026.539	327.24
1026.895	350.64
1027.25	296.81
1027.606	331.92
1027.961	313.19
1028.317	308.51
1028.672	334.26
1029.028	404.47
1029.383	306.17
1029.738	315.53
1030.093	388.09
1030.448	329.58
1030.803	289.79
1031.158	212.55
1031.513	278.08
1031.868	343.62
1032.223	364.68
1032.577	336.6
1032.932	254.68
1033.287	343.62
1033.641	381.07
1033.996	257.02
1034.35	299.15
1034.704	327.24
1035.059	357.66
1035.413	357.66
1035.767	357.66
1036.121	357.66
