Data from Al_FLMS009871__295__12-22-31-944.txt Node

Date: Fri Mar 08 12:22:31 CST 2024
User: pe5414po
Spectrometer: FLMS00987
Trigger mode: 0
Integration Time (sec): 1.000000E-1
Scans to average: 1
Electric dark correction enabled: true
Nonlinearity correction enabled: false
Boxcar width: 0
XAxis mode: Wavelengths
Number of Pixels in Spectrum: 2048
>>>>>Begin Spectral Data<<<<<
188.938	-95.38
189.409	-95.38
189.879	-95.38
190.349	-53.25
190.819	-107.08
191.29	-95.38
191.76	-123.46
192.23	-67.29
192.7	-88.36
193.17	-90.7
193.64	-1.76
194.109	-34.52
194.579	-20.48
195.049	-29.84
195.519	9.95
195.988	26.33
196.458	94.21
196.927	110.59
197.397	63.78
197.866	98.89
198.336	148.04
198.805	211.23
199.274	199.53
199.744	194.85
200.213	190.17
200.682	190.17
201.151	185.49
201.62	276.77
202.089	236.98
202.558	276.77
203.027	276.77
203.495	311.88
203.964	288.47
204.433	215.91
204.902	293.15
205.37	307.2
205.839	295.49
206.307	260.38
206.776	309.54
207.244	346.98
207.712	354.01
208.181	293.15
208.649	316.56
209.117	258.04
209.585	290.81
210.053	269.75
210.521	356.35
210.989	316.56
211.457	363.37
211.925	290.81
212.393	279.11
212.861	276.77
213.328	307.2
213.796	325.92
214.264	323.58
214.731	274.43
215.199	222.94
215.666	307.2
216.133	246.34
216.601	274.43
217.068	281.45
217.535	339.96
218.003	307.2
218.47	295.49
218.937	272.09
219.404	295.49
219.871	267.41
220.338	185.49
220.805	293.15
221.271	262.73
221.738	307.2
222.205	232.3
222.671	344.64
223.138	258.04
223.605	290.81
224.071	316.56
224.538	269.75
225.004	199.53
225.47	269.75
225.937	211.23
226.403	269.75
226.869	236.98
227.335	272.09
227.801	325.92
228.267	274.43
228.733	311.88
229.199	276.77
229.665	295.49
230.131	176.13
230.597	281.45
231.062	262.73
231.528	265.07
231.994	251.02
232.459	274.43
232.925	253.36
233.39	323.58
233.856	272.09
234.321	288.47
234.786	239.32
235.252	295.49
235.717	344.64
236.182	276.77
236.647	321.24
237.112	274.43
237.577	283.79
238.042	269.75
238.507	260.38
238.972	304.85
239.436	295.49
239.901	290.81
240.366	293.15
240.83	274.43
241.295	293.15
241.76	283.79
242.224	328.26
242.688	314.22
243.153	351.67
243.617	286.13
244.081	276.77
244.545	318.9
245.01	288.47
245.474	311.88
245.938	335.28
246.402	279.11
246.866	272.09
247.33	349.32
247.793	290.81
248.257	283.79
248.721	255.7
249.185	290.81
249.648	286.13
250.112	290.81
250.575	337.62
251.039	309.54
251.502	304.85
251.965	325.92
252.429	314.22
252.892	281.45
253.355	234.64
253.818	265.07
254.281	269.75
254.744	265.07
255.207	304.85
255.67	281.45
256.133	272.09
256.596	325.92
257.059	295.49
257.522	311.88
257.984	281.45
258.447	276.77
258.909	316.56
259.372	269.75
259.834	281.45
260.297	286.13
260.759	288.47
261.221	255.7
261.684	255.7
262.146	262.73
262.608	368.05
263.07	236.98
263.532	328.26
263.994	384.43
264.456	272.09
264.918	314.22
265.38	309.54
265.842	244
266.303	276.77
266.765	304.85
267.227	255.7
267.688	267.41
268.15	309.54
268.611	241.66
269.072	265.07
269.534	253.36
269.995	321.24
270.456	183.15
270.918	335.28
271.379	286.13
271.84	262.73
272.301	262.73
272.762	335.28
273.223	363.37
273.684	316.56
274.144	361.03
274.605	314.22
275.066	274.43
275.527	288.47
275.987	354.01
276.448	288.47
276.908	321.24
277.369	258.04
277.829	307.2
278.289	321.24
278.75	283.79
279.21	318.9
279.67	307.2
280.13	236.98
280.59	281.45
281.05	253.36
281.51	300.17
281.97	349.32
282.43	272.09
282.89	267.41
283.35	244
283.809	272.09
284.269	323.58
284.729	323.58
285.188	265.07
285.648	229.96
286.107	295.49
286.567	246.34
287.026	339.96
287.485	239.32
287.944	269.75
288.404	307.2
288.863	328.26
289.322	262.73
289.781	208.89
290.24	344.64
290.699	316.56
291.158	365.71
291.616	304.85
292.075	361.03
292.534	297.83
292.992	302.51
293.451	323.58
293.91	335.28
294.368	372.73
294.827	311.88
295.285	286.13
295.743	251.02
296.202	307.2
296.66	297.83
297.118	281.45
297.576	297.83
298.034	339.96
298.492	283.79
298.95	330.6
299.408	300.17
299.866	321.24
300.324	346.98
300.781	309.54
301.239	229.96
301.697	332.94
302.154	248.68
302.612	346.98
303.069	328.26
303.527	325.92
303.984	307.2
304.441	302.51
304.899	309.54
305.356	342.3
305.813	335.28
306.27	339.96
306.727	314.22
307.184	300.17
307.641	316.56
308.098	293.15
308.555	332.94
309.012	283.79
309.468	351.67
309.925	222.94
310.382	342.3
310.838	269.75
311.295	262.73
311.751	339.96
312.208	311.88
312.664	321.24
313.12	265.07
313.577	267.41
314.033	346.98
314.489	295.49
314.945	262.73
315.401	351.67
315.857	311.88
316.313	323.58
316.769	279.11
317.225	272.09
317.681	330.6
318.136	281.45
318.592	358.69
319.048	302.51
319.503	290.81
319.959	323.58
320.414	365.71
320.869	295.49
321.325	290.81
321.78	318.9
322.235	302.51
322.691	314.22
323.146	297.83
323.601	328.26
324.056	304.85
324.511	346.98
324.966	330.6
325.421	302.51
325.875	328.26
326.33	293.15
326.785	276.77
327.24	398.48
327.694	300.17
328.149	262.73
328.603	351.67
329.058	297.83
329.512	363.37
329.966	375.07
330.421	342.3
330.875	311.88
331.329	302.51
331.783	279.11
332.237	309.54
332.691	302.51
333.145	290.81
333.599	323.58
334.053	297.83
334.507	300.17
334.96	286.13
335.414	393.8
335.868	335.28
336.321	335.28
336.775	290.81
337.228	302.51
337.682	323.58
338.135	283.79
338.588	260.38
339.042	337.62
339.495	337.62
339.948	339.96
340.401	286.13
340.854	255.7
341.307	342.3
341.76	361.03
342.213	323.58
342.666	325.92
343.119	290.81
343.571	311.88
344.024	302.51
344.477	260.38
344.929	344.64
345.382	300.17
345.834	272.09
346.287	258.04
346.739	297.83
347.191	283.79
347.644	389.11
348.096	304.85
348.548	321.24
349	321.24
349.452	267.41
349.904	349.32
350.356	368.05
350.808	295.49
351.26	356.35
351.711	288.47
352.163	346.98
352.615	314.22
353.066	302.51
353.518	365.71
353.969	274.43
354.421	365.71
354.872	293.15
355.324	267.41
355.775	318.9
356.226	258.04
356.677	365.71
357.128	370.39
357.579	354.01
358.03	276.77
358.481	288.47
358.932	290.81
359.383	288.47
359.834	288.47
360.285	325.92
360.735	325.92
361.186	342.3
361.637	377.41
362.087	330.6
362.538	321.24
362.988	377.41
363.438	391.45
363.889	300.17
364.339	286.13
364.789	248.68
365.239	356.35
365.689	316.56
366.139	393.8
366.589	302.51
367.039	311.88
367.489	342.3
367.939	377.41
368.389	304.85
368.839	337.62
369.288	267.41
369.738	316.56
370.187	365.71
370.637	316.56
371.086	304.85
371.536	283.79
371.985	339.96
372.434	365.71
372.884	354.01
373.333	293.15
373.782	248.68
374.231	375.07
374.68	351.67
375.129	325.92
375.578	276.77
376.027	358.69
376.475	323.58
376.924	293.15
377.373	274.43
377.822	307.2
378.27	318.9
378.719	330.6
379.167	300.17
379.616	276.77
380.064	279.11
380.512	351.67
380.961	398.48
381.409	370.39
381.857	311.88
382.305	358.69
382.753	358.69
383.201	316.56
383.649	274.43
384.097	309.54
384.545	346.98
384.992	323.58
385.44	321.24
385.888	365.71
386.335	304.85
386.783	356.35
387.231	325.92
387.678	304.85
388.125	361.03
388.573	344.64
389.02	384.43
389.467	283.79
389.914	311.88
390.362	377.41
390.809	391.45
391.256	314.22
391.703	281.45
392.15	337.62
392.596	309.54
393.043	330.6
393.49	307.2
393.937	332.94
394.383	318.9
394.83	356.35
395.276	351.67
395.723	288.47
396.169	288.47
396.616	332.94
397.062	309.54
397.508	316.56
397.954	339.96
398.401	241.66
398.847	311.88
399.293	290.81
399.739	349.32
400.185	332.94
400.631	246.34
401.076	346.98
401.522	370.39
401.968	290.81
402.414	339.96
402.859	286.13
403.305	356.35
403.75	302.51
404.196	342.3
404.641	365.71
405.086	297.83
405.532	365.71
405.977	365.71
406.422	307.2
406.867	318.9
407.312	391.45
407.757	309.54
408.202	356.35
408.647	330.6
409.092	361.03
409.537	283.79
409.982	328.26
410.426	351.67
410.871	379.75
411.316	354.01
411.76	314.22
412.205	286.13
412.649	325.92
413.093	316.56
413.538	316.56
413.982	382.09
414.426	307.2
414.87	321.24
415.314	302.51
415.758	363.37
416.202	391.45
416.646	372.73
417.09	328.26
417.534	346.98
417.978	335.28
418.421	283.79
418.865	368.05
419.309	332.94
419.752	407.84
420.196	363.37
420.639	365.71
421.083	365.71
421.526	307.2
421.969	297.83
422.412	325.92
422.856	323.58
423.299	370.39
423.742	344.64
424.185	410.18
424.628	358.69
425.071	405.5
425.513	391.45
425.956	386.77
426.399	339.96
426.842	403.16
427.284	365.71
427.727	344.64
428.169	342.3
428.612	426.56
429.054	342.3
429.497	365.71
429.939	405.5
430.381	386.77
430.823	396.14
431.265	382.09
431.707	393.8
432.149	375.07
432.591	370.39
433.033	426.56
433.475	428.9
433.917	464.01
434.359	515.5
434.8	536.57
435.242	522.52
435.684	541.25
436.125	531.89
436.567	440.61
437.008	426.56
437.449	499.12
437.891	489.76
438.332	433.58
438.773	454.65
439.214	424.22
439.656	506.14
440.097	487.42
440.538	492.1
440.978	499.12
441.419	510.82
441.86	510.82
442.301	510.82
442.742	555.29
443.182	515.5
443.623	559.97
444.063	499.12
444.504	527.21
444.944	604.44
445.385	478.05
445.825	499.12
446.265	515.5
446.706	566.99
447.146	508.48
447.586	520.18
448.026	552.95
448.466	552.95
448.906	606.78
449.346	520.18
449.786	545.93
450.225	506.14
450.665	520.18
451.105	536.57
451.544	494.44
451.984	515.5
452.424	552.95
452.863	508.48
453.302	464.01
453.742	419.54
454.181	501.46
454.62	482.74
455.059	529.55
455.499	522.52
455.938	480.39
456.377	536.57
456.816	466.35
457.254	405.5
457.693	442.95
458.132	445.29
458.571	492.1
459.01	480.39
459.448	435.92
459.887	440.61
460.325	475.71
460.764	466.35
461.202	468.69
461.641	452.31
462.079	435.92
462.517	461.67
462.955	480.39
463.393	487.42
463.832	421.88
464.27	410.18
464.708	435.92
465.145	445.29
465.583	403.16
466.021	412.52
466.459	466.35
466.897	410.18
467.334	363.37
467.772	426.56
468.209	375.07
468.647	466.35
469.084	363.37
469.522	405.5
469.959	414.86
470.396	445.29
470.833	363.37
471.271	405.5
471.708	407.84
472.145	417.2
472.582	400.82
473.019	368.05
473.456	426.56
473.892	414.86
474.329	424.22
474.766	386.77
475.202	393.8
475.639	349.32
476.076	435.92
476.512	440.61
476.949	346.98
477.385	435.92
477.821	337.62
478.258	419.54
478.694	370.39
479.13	417.2
479.566	377.41
480.002	351.67
480.438	414.86
480.874	363.37
481.31	419.54
481.746	426.56
482.181	461.67
482.617	393.8
483.053	419.54
483.488	414.86
483.924	279.11
484.36	309.54
484.795	398.48
485.23	391.45
485.666	421.88
486.101	456.99
486.536	426.56
486.971	428.9
487.407	466.35
487.842	412.52
488.277	447.63
488.712	433.58
489.146	442.95
489.581	456.99
490.016	403.16
490.451	396.14
490.885	454.65
491.32	478.05
491.755	424.22
492.189	375.07
492.624	379.75
493.058	419.54
493.492	375.07
493.927	375.07
494.361	431.24
494.795	419.54
495.229	475.71
495.663	417.2
496.097	445.29
496.531	403.16
496.965	419.54
497.399	489.76
497.833	447.63
498.266	489.76
498.7	389.11
499.134	456.99
499.567	482.74
500.001	475.71
500.434	407.84
500.868	363.37
501.301	438.27
501.734	339.96
502.168	396.14
502.601	442.95
503.034	438.27
503.467	424.22
503.9	403.16
504.333	421.88
504.766	356.35
505.199	396.14
505.632	407.84
506.064	431.24
506.497	492.1
506.93	403.16
507.362	440.61
507.795	461.67
508.227	403.16
508.66	400.82
509.092	421.88
509.524	407.84
509.956	426.56
510.389	370.39
510.821	410.18
511.253	365.71
511.685	452.31
512.117	405.5
512.549	424.22
512.981	419.54
513.412	435.92
513.844	412.52
514.276	417.2
514.707	426.56
515.139	471.03
515.571	419.54
516.002	403.16
516.433	377.41
516.865	438.27
517.296	440.61
517.727	466.35
518.159	431.24
518.59	464.01
519.021	461.67
519.452	435.92
519.883	442.95
520.314	435.92
520.744	480.39
521.175	506.14
521.606	452.31
522.037	473.37
522.467	499.12
522.898	431.24
523.328	426.56
523.759	426.56
524.189	419.54
524.62	398.48
525.05	417.2
525.48	452.31
525.91	466.35
526.341	438.27
526.771	447.63
527.201	405.5
527.631	356.35
528.061	424.22
528.49	452.31
528.92	480.39
529.35	468.69
529.78	449.97
530.209	468.69
530.639	510.82
531.068	449.97
531.498	459.33
531.927	454.65
532.357	464.01
532.786	419.54
533.215	468.69
533.644	431.24
534.074	400.82
534.503	485.08
534.932	489.76
535.361	473.37
535.79	464.01
536.218	452.31
536.647	424.22
537.076	478.05
537.505	471.03
537.933	447.63
538.362	529.55
538.79	464.01
539.219	492.1
539.647	445.29
540.076	508.48
540.504	531.89
540.932	588.06
541.36	616.15
541.788	695.72
542.217	655.94
542.645	733.17
543.073	770.62
543.5	756.58
543.928	787.01
544.356	707.43
544.784	716.79
545.211	763.6
545.639	709.77
546.067	684.02
546.494	658.28
546.922	588.06
547.349	536.57
547.776	508.48
548.204	506.14
548.631	510.82
549.058	550.61
549.485	524.87
549.912	520.18
550.339	482.74
550.766	564.65
551.193	489.76
551.62	581.04
552.047	536.57
552.474	485.08
552.9	459.33
553.327	492.1
553.754	449.97
554.18	492.1
554.607	461.67
555.033	482.74
555.459	424.22
555.886	440.61
556.312	410.18
556.738	473.37
557.164	438.27
557.59	487.42
558.016	468.69
558.442	508.48
558.868	447.63
559.294	466.35
559.72	454.65
560.145	445.29
560.571	496.78
560.997	499.12
561.422	456.99
561.848	405.5
562.273	410.18
562.699	412.52
563.124	468.69
563.549	386.77
563.974	468.69
564.4	424.22
564.825	431.24
565.25	529.55
565.675	435.92
566.1	440.61
566.525	421.88
566.95	412.52
567.374	452.31
567.799	442.95
568.224	449.97
568.648	421.88
569.073	459.33
569.497	473.37
569.922	431.24
570.346	440.61
570.771	464.01
571.195	445.29
571.619	480.39
572.043	440.61
572.467	492.1
572.891	499.12
573.315	447.63
573.739	417.2
574.163	482.74
574.587	508.48
575.011	459.33
575.435	494.44
575.858	461.67
576.282	452.31
576.705	435.92
577.129	398.48
577.552	447.63
577.976	426.56
578.399	529.55
578.822	527.21
579.245	531.89
579.669	503.8
580.092	513.16
580.515	480.39
580.938	520.18
581.361	471.03
581.784	485.08
582.206	466.35
582.629	431.24
583.052	550.61
583.474	440.61
583.897	527.21
584.32	517.84
584.742	473.37
585.165	382.09
585.587	435.92
586.009	538.91
586.431	459.33
586.854	555.29
587.276	428.9
587.698	475.71
588.12	452.31
588.542	464.01
588.964	435.92
589.386	489.76
589.807	414.86
590.229	464.01
590.651	396.14
591.073	461.67
591.494	435.92
591.916	435.92
592.337	456.99
592.759	440.61
593.18	464.01
593.601	349.32
594.022	489.76
594.444	442.95
594.865	431.24
595.286	335.28
595.707	403.16
596.128	459.33
596.549	379.75
596.97	449.97
597.39	344.64
597.811	435.92
598.232	389.11
598.652	428.9
599.073	449.97
599.494	372.73
599.914	428.9
600.334	513.16
600.755	400.82
601.175	431.24
601.595	433.58
602.015	424.22
602.436	372.73
602.856	452.31
603.276	426.56
603.696	421.88
604.115	361.03
604.535	368.05
604.955	370.39
605.375	447.63
605.794	445.29
606.214	438.27
606.634	375.07
607.053	382.09
607.473	452.31
607.892	456.99
608.311	452.31
608.731	482.74
609.15	466.35
609.569	581.04
609.988	662.96
610.407	777.64
610.826	779.98
611.245	864.24
611.664	758.92
612.083	728.49
612.501	665.3
612.92	665.3
613.339	618.49
613.757	524.87
614.176	480.39
614.594	510.82
615.013	496.78
615.431	492.1
615.85	328.26
616.268	454.65
616.686	461.67
617.104	412.52
617.522	461.67
617.94	449.97
618.358	485.08
618.776	417.2
619.194	407.84
619.612	365.71
620.03	407.84
620.447	368.05
620.865	447.63
621.282	405.5
621.7	426.56
622.117	391.45
622.535	412.52
622.952	382.09
623.369	407.84
623.787	508.48
624.204	456.99
624.621	421.88
625.038	358.69
625.455	461.67
625.872	431.24
626.289	391.45
626.706	459.33
627.123	398.48
627.539	403.16
627.956	403.16
628.373	377.41
628.789	337.62
629.206	428.9
629.622	403.16
630.038	459.33
630.455	403.16
630.871	431.24
631.287	410.18
631.703	361.03
632.12	361.03
632.536	398.48
632.952	379.75
633.368	363.37
633.783	405.5
634.199	344.64
634.615	339.96
635.031	466.35
635.446	321.24
635.862	332.94
636.277	339.96
636.693	365.71
637.108	344.64
637.524	328.26
637.939	400.82
638.354	412.52
638.77	370.39
639.185	335.28
639.6	393.8
640.015	363.37
640.43	375.07
640.845	368.05
641.259	330.6
641.674	351.67
642.089	344.64
642.504	276.77
642.918	290.81
643.333	389.11
643.747	339.96
644.162	433.58
644.576	274.43
644.991	403.16
645.405	321.24
645.819	342.3
646.233	342.3
646.647	342.3
647.061	393.8
647.475	328.26
647.889	349.32
648.303	335.28
648.717	391.45
649.131	323.58
649.545	309.54
649.958	407.84
650.372	386.77
650.785	321.24
651.199	396.14
651.612	309.54
652.026	396.14
652.439	370.39
652.852	356.35
653.266	332.94
653.679	337.62
654.092	332.94
654.505	428.9
654.918	356.35
655.331	424.22
655.744	375.07
656.156	330.6
656.569	414.86
656.982	300.17
657.394	328.26
657.807	328.26
658.22	365.71
658.632	393.8
659.044	342.3
659.457	356.35
659.869	332.94
660.281	328.26
660.693	304.85
661.106	316.56
661.518	346.98
661.93	335.28
662.342	309.54
662.754	321.24
663.165	339.96
663.577	398.48
663.989	316.56
664.401	346.98
664.812	356.35
665.224	332.94
665.635	344.64
666.047	269.75
666.458	342.3
666.869	361.03
667.281	344.64
667.692	372.73
668.103	311.88
668.514	325.92
668.925	358.69
669.336	311.88
669.747	339.96
670.158	304.85
670.569	307.2
670.979	342.3
671.39	337.62
671.801	304.85
672.211	339.96
672.622	349.32
673.032	283.79
673.443	314.22
673.853	330.6
674.263	314.22
674.674	356.35
675.084	290.81
675.494	251.02
675.904	361.03
676.314	363.37
676.724	370.39
677.134	384.43
677.544	316.56
677.953	368.05
678.363	382.09
678.773	358.69
679.182	365.71
679.592	330.6
680.001	337.62
680.411	321.24
680.82	389.11
681.23	375.07
681.639	304.85
682.048	281.45
682.457	365.71
682.866	316.56
683.275	356.35
683.684	293.15
684.093	323.58
684.502	370.39
684.911	265.07
685.32	337.62
685.728	295.49
686.137	377.41
686.546	391.45
686.954	356.35
687.363	393.8
687.771	274.43
688.179	295.49
688.588	405.5
688.996	370.39
689.404	276.77
689.812	365.71
690.22	251.02
690.628	375.07
691.036	265.07
691.444	316.56
691.852	342.3
692.26	363.37
692.667	407.84
693.075	314.22
693.483	330.6
693.89	288.47
694.298	293.15
694.705	316.56
695.112	307.2
695.52	309.54
695.927	311.88
696.334	342.3
696.741	311.88
697.148	330.6
697.555	304.85
697.962	337.62
698.369	354.01
698.776	389.11
699.183	276.77
699.59	339.96
699.996	286.13
700.403	307.2
700.81	321.24
701.216	283.79
701.623	304.85
702.029	335.28
702.435	265.07
702.842	323.58
703.248	244
703.654	321.24
704.06	363.37
704.466	379.75
704.872	321.24
705.278	389.11
705.684	286.13
706.09	382.09
706.496	335.28
706.901	379.75
707.307	405.5
707.712	372.73
708.118	339.96
708.523	274.43
708.929	363.37
709.334	323.58
709.74	382.09
710.145	365.71
710.55	361.03
710.955	368.05
711.36	382.09
711.765	344.64
712.17	318.9
712.575	335.28
712.98	922.76
713.385	368.05
713.789	316.56
714.194	295.49
714.599	344.64
715.003	302.51
715.408	295.49
715.812	372.73
716.217	302.51
716.621	372.73
717.025	384.43
717.429	297.83
717.833	325.92
718.238	337.62
718.642	377.41
719.046	281.45
719.449	363.37
719.853	311.88
720.257	328.26
720.661	295.49
721.065	304.85
721.468	316.56
721.872	361.03
722.275	314.22
722.679	279.11
723.082	335.28
723.485	377.41
723.889	330.6
724.292	382.09
724.695	363.37
725.098	307.2
725.501	342.3
725.904	300.17
726.307	377.41
726.71	288.47
727.113	354.01
727.516	339.96
727.918	346.98
728.321	244
728.724	363.37
729.126	335.28
729.529	314.22
729.931	375.07
730.333	328.26
730.736	363.37
731.138	325.92
731.54	325.92
731.942	351.67
732.344	337.62
732.746	396.14
733.148	269.75
733.55	339.96
733.952	349.32
734.354	314.22
734.756	403.16
735.157	330.6
735.559	332.94
735.96	281.45
736.362	325.92
736.763	365.71
737.165	346.98
737.566	330.6
737.967	290.81
738.368	321.24
738.77	365.71
739.171	300.17
739.572	295.49
739.973	318.9
740.374	300.17
740.774	295.49
741.175	309.54
741.576	274.43
741.977	342.3
742.377	323.58
742.778	307.2
743.178	304.85
743.579	351.67
743.979	354.01
744.379	297.83
744.78	363.37
745.18	330.6
745.58	368.05
745.98	335.28
746.38	293.15
746.78	325.92
747.18	351.67
747.58	351.67
747.98	316.56
748.38	328.26
748.779	372.73
749.179	307.2
749.578	325.92
749.978	363.37
750.377	342.3
750.777	335.28
751.176	349.32
751.575	302.51
751.975	372.73
752.374	297.83
752.773	335.28
753.172	314.22
753.571	323.58
753.97	311.88
754.369	396.14
754.768	372.73
755.166	363.37
755.565	283.79
755.964	295.49
756.362	262.73
756.761	335.28
757.159	349.32
757.558	351.67
757.956	325.92
758.354	346.98
758.753	316.56
759.151	314.22
759.549	307.2
759.947	339.96
760.345	384.43
760.743	335.28
761.141	283.79
761.539	311.88
761.936	323.58
762.334	342.3
762.732	302.51
763.129	281.45
763.527	276.77
763.924	368.05
764.322	335.28
764.719	351.67
765.117	290.81
765.514	321.24
765.911	272.09
766.308	349.32
766.705	316.56
767.102	332.94
767.499	314.22
767.896	351.67
768.293	337.62
768.69	339.96
769.086	283.79
769.483	335.28
769.88	288.47
770.276	304.85
770.673	323.58
771.069	262.73
771.466	307.2
771.862	265.07
772.258	382.09
772.654	325.92
773.05	365.71
773.447	354.01
773.843	379.75
774.239	330.6
774.634	283.79
775.03	370.39
775.426	293.15
775.822	368.05
776.218	384.43
776.613	332.94
777.009	283.79
777.404	365.71
777.8	262.73
778.195	337.62
778.59	368.05
778.986	300.17
779.381	304.85
779.776	318.9
780.171	295.49
780.566	346.98
780.961	384.43
781.356	344.64
781.751	332.94
782.146	316.56
782.54	389.11
782.935	304.85
783.33	321.24
783.724	260.38
784.119	391.45
784.513	297.83
784.908	368.05
785.302	328.26
785.696	316.56
786.09	288.47
786.485	339.96
786.879	286.13
787.273	370.39
787.667	297.83
788.061	339.96
788.454	332.94
788.848	302.51
789.242	311.88
789.636	363.37
790.029	304.85
790.423	283.79
790.816	281.45
791.21	286.13
791.603	316.56
791.997	274.43
792.39	295.49
792.783	361.03
793.176	386.77
793.569	293.15
793.962	272.09
794.355	335.28
794.748	265.07
795.141	351.67
795.534	314.22
795.927	276.77
796.319	339.96
796.712	290.81
797.105	354.01
797.497	274.43
797.89	260.38
798.282	276.77
798.674	346.98
799.067	260.38
799.459	272.09
799.851	363.37
800.243	377.41
800.635	361.03
801.027	325.92
801.419	258.04
801.811	316.56
802.203	300.17
802.594	302.51
802.986	283.79
803.378	372.73
803.769	293.15
804.161	342.3
804.552	337.62
804.944	328.26
805.335	330.6
805.726	323.58
806.118	344.64
806.509	290.81
806.9	342.3
807.291	332.94
807.682	307.2
808.073	293.15
808.464	337.62
808.855	349.32
809.245	302.51
809.636	335.28
810.027	309.54
810.417	295.49
810.808	356.35
811.198	290.81
811.589	330.6
811.979	290.81
812.369	288.47
812.759	393.8
813.15	290.81
813.54	351.67
813.93	309.54
814.32	330.6
814.71	328.26
815.1	323.58
815.489	344.64
815.879	361.03
816.269	300.17
816.658	337.62
817.048	339.96
817.438	321.24
817.827	279.11
818.216	309.54
818.606	370.39
818.995	309.54
819.384	318.9
819.773	372.73
820.163	384.43
820.552	232.3
820.941	318.9
821.33	332.94
821.718	325.92
822.107	389.11
822.496	335.28
822.885	342.3
823.273	283.79
823.662	330.6
824.05	293.15
824.439	321.24
824.827	302.51
825.216	337.62
825.604	365.71
825.992	248.68
826.38	375.07
826.768	267.41
827.156	328.26
827.544	309.54
827.932	316.56
828.32	323.58
828.708	279.11
829.096	393.8
829.483	365.71
829.871	330.6
830.259	316.56
830.646	339.96
831.034	370.39
831.421	332.94
831.808	318.9
832.196	330.6
832.583	328.26
832.97	325.92
833.357	325.92
833.744	295.49
834.131	351.67
834.518	318.9
834.905	297.83
835.292	293.15
835.678	349.32
836.065	269.75
836.452	323.58
836.838	293.15
837.225	290.81
837.611	346.98
837.998	311.88
838.384	330.6
838.77	300.17
839.157	276.77
839.543	356.35
839.929	323.58
840.315	258.04
840.701	337.62
841.087	274.43
841.473	346.98
841.858	293.15
842.244	283.79
842.63	295.49
843.015	281.45
843.401	623.17
843.787	290.81
844.172	351.67
844.557	288.47
844.943	300.17
845.328	335.28
845.713	300.17
846.098	274.43
846.483	391.45
846.868	332.94
847.253	316.56
847.638	365.71
848.023	276.77
848.408	358.69
848.793	335.28
849.177	344.64
849.562	346.98
849.947	358.69
850.331	295.49
850.715	354.01
851.1	283.79
851.484	314.22
851.868	318.9
852.253	283.79
852.637	302.51
853.021	361.03
853.405	372.73
853.789	332.94
854.173	375.07
854.557	304.85
854.94	307.2
855.324	311.88
855.708	330.6
856.091	290.81
856.475	269.75
856.858	321.24
857.242	337.62
857.625	323.58
858.009	314.22
858.392	274.43
858.775	267.41
859.158	309.54
859.541	363.37
859.924	325.92
860.307	262.73
860.69	363.37
861.073	337.62
861.456	358.69
861.838	368.05
862.221	328.26
862.604	265.07
862.986	379.75
863.369	314.22
863.751	361.03
864.133	309.54
864.516	300.17
864.898	330.6
865.28	344.64
865.662	269.75
866.044	370.39
866.426	328.26
866.808	332.94
867.19	297.83
867.572	302.51
867.954	321.24
868.336	239.32
868.717	316.56
869.099	316.56
869.48	318.9
869.862	323.58
870.243	311.88
870.625	269.75
871.006	251.02
871.387	337.62
871.768	302.51
872.149	328.26
872.53	339.96
872.911	311.88
873.292	328.26
873.673	346.98
874.054	309.54
874.435	281.45
874.815	309.54
875.196	304.85
875.577	276.77
875.957	323.58
876.338	244
876.718	370.39
877.098	386.77
877.479	424.22
877.859	358.69
878.239	304.85
878.619	293.15
878.999	290.81
879.379	351.67
879.759	276.77
880.139	311.88
880.519	328.26
880.898	314.22
881.278	335.28
881.658	363.37
882.037	323.58
882.417	323.58
882.796	344.64
883.176	288.47
883.555	339.96
883.934	311.88
884.313	302.51
884.693	321.24
885.072	307.2
885.451	309.54
885.83	332.94
886.209	318.9
886.587	337.62
886.966	335.28
887.345	351.67
887.724	372.73
888.102	318.9
888.481	342.3
888.859	283.79
889.238	316.56
889.616	349.32
889.994	337.62
890.373	335.28
890.751	332.94
891.129	288.47
891.507	323.58
891.885	300.17
892.263	302.51
892.641	302.51
893.019	297.83
893.396	293.15
893.774	370.39
894.152	318.9
894.529	337.62
894.907	307.2
895.284	361.03
895.662	339.96
896.039	290.81
896.416	375.07
896.794	344.64
897.171	311.88
897.548	356.35
897.925	421.88
898.302	370.39
898.679	316.56
899.056	281.45
899.433	337.62
899.809	314.22
900.186	311.88
900.563	302.51
900.939	318.9
901.316	337.62
901.692	297.83
902.069	328.26
902.445	346.98
902.821	304.85
903.197	351.67
903.574	293.15
903.95	332.94
904.326	318.9
904.702	283.79
905.078	330.6
905.454	304.85
905.829	344.64
906.205	375.07
906.581	337.62
906.956	318.9
907.332	297.83
907.707	293.15
908.083	351.67
908.458	342.3
908.833	323.58
909.209	339.96
909.584	379.75
909.959	358.69
910.334	325.92
910.709	288.47
911.084	351.67
911.459	302.51
911.834	314.22
912.209	344.64
912.583	339.96
912.958	354.01
913.333	346.98
913.707	302.51
914.082	321.24
914.456	295.49
914.83	358.69
915.205	337.62
915.579	234.64
915.953	258.04
916.327	274.43
916.701	370.39
917.075	365.71
917.449	328.26
917.823	325.92
918.197	262.73
918.571	349.32
918.944	361.03
919.318	290.81
919.692	283.79
920.065	332.94
920.438	323.58
920.812	344.64
921.185	304.85
921.558	309.54
921.932	335.28
922.305	311.88
922.678	274.43
923.051	260.38
923.424	295.49
923.797	311.88
924.17	309.54
924.542	351.67
924.915	358.69
925.288	311.88
925.661	342.3
926.033	314.22
926.406	279.11
926.778	276.77
927.15	361.03
927.523	316.56
927.895	354.01
928.267	260.38
928.639	255.7
929.011	368.05
929.383	260.38
929.755	265.07
930.127	335.28
930.499	318.9
930.871	295.49
931.242	335.28
931.614	281.45
931.986	297.83
932.357	318.9
932.729	344.64
933.1	316.56
933.471	304.85
933.843	260.38
934.214	337.62
934.585	330.6
934.956	316.56
935.327	307.2
935.698	316.56
936.069	267.41
936.44	258.04
936.811	349.32
937.182	321.24
937.552	372.73
937.923	354.01
938.293	246.34
938.664	290.81
939.034	253.36
939.405	279.11
939.775	344.64
940.145	342.3
940.516	346.98
940.886	318.9
941.256	288.47
941.626	358.69
941.996	354.01
942.366	262.73
942.735	318.9
943.105	297.83
943.475	337.62
943.845	377.41
944.214	370.39
944.584	229.96
944.953	246.34
945.323	384.43
945.692	342.3
946.061	377.41
946.43	316.56
946.8	253.36
947.169	375.07
947.538	321.24
947.907	328.26
948.276	293.15
948.645	346.98
949.013	384.43
949.382	351.67
949.751	304.85
950.119	328.26
950.488	328.26
950.857	304.85
951.225	325.92
951.593	325.92
951.962	361.03
952.33	332.94
952.698	274.43
953.066	307.2
953.434	321.24
953.802	344.64
954.17	316.56
954.538	253.36
954.906	265.07
955.274	286.13
955.642	255.7
956.009	288.47
956.377	314.22
956.744	276.77
957.112	316.56
957.479	300.17
957.847	349.32
958.214	344.64
958.581	293.15
958.948	325.92
959.315	328.26
959.683	309.54
960.05	251.02
960.416	323.58
960.783	321.24
961.15	295.49
961.517	328.26
961.884	349.32
962.25	316.56
962.617	314.22
962.983	330.6
963.35	342.3
963.716	295.49
964.082	302.51
964.449	251.02
964.815	318.9
965.181	297.83
965.547	321.24
965.913	281.45
966.279	288.47
966.645	276.77
967.011	321.24
967.377	346.98
967.742	332.94
968.108	288.47
968.474	339.96
968.839	323.58
969.205	314.22
969.57	339.96
969.935	325.92
970.301	276.77
970.666	274.43
971.031	354.01
971.396	323.58
971.761	325.92
972.126	354.01
972.491	295.49
972.856	330.6
973.221	330.6
973.586	293.15
973.95	325.92
974.315	297.83
974.679	337.62
975.044	332.94
975.408	244
975.773	307.2
976.137	274.43
976.501	314.22
976.866	335.28
977.23	304.85
977.594	279.11
977.958	286.13
978.322	335.28
978.686	307.2
979.049	297.83
979.413	344.64
979.777	236.98
980.141	269.75
980.504	344.64
980.868	321.24
981.231	330.6
981.595	300.17
981.958	321.24
982.321	283.79
982.684	314.22
983.048	323.58
983.411	244
983.774	253.36
984.137	346.98
984.5	321.24
984.862	344.64
985.225	281.45
985.588	332.94
985.951	314.22
986.313	332.94
986.676	307.2
987.038	304.85
987.401	325.92
987.763	274.43
988.125	344.64
988.488	297.83
988.85	316.56
989.212	311.88
989.574	290.81
989.936	260.38
990.298	316.56
990.66	283.79
991.022	309.54
991.383	304.85
991.745	349.32
992.107	311.88
992.468	351.67
992.83	309.54
993.191	410.18
993.553	337.62
993.914	342.3
994.275	368.05
994.637	323.58
994.998	344.64
995.359	332.94
995.72	274.43
996.081	239.32
996.442	316.56
996.803	349.32
997.163	386.77
997.524	356.35
997.885	316.56
998.245	302.51
998.606	239.32
998.966	346.98
999.327	323.58
999.687	391.45
1000.047	258.04
1000.408	354.01
1000.768	304.85
1001.128	302.51
1001.488	321.24
1001.848	330.6
1002.208	283.79
1002.568	302.51
1002.927	258.04
1003.287	328.26
1003.647	384.43
1004.007	304.85
1004.366	276.77
1004.726	335.28
1005.085	262.73
1005.444	262.73
1005.804	339.96
1006.163	297.83
1006.522	386.77
1006.881	272.09
1007.24	309.54
1007.599	304.85
1007.958	358.69
1008.317	314.22
1008.676	304.85
1009.035	309.54
1009.393	358.69
1009.752	309.54
1010.111	251.02
1010.469	363.37
1010.828	234.64
1011.186	295.49
1011.544	323.58
1011.903	372.73
1012.261	349.32
1012.619	328.26
1012.977	358.69
1013.335	339.96
1013.693	377.41
1014.051	337.62
1014.409	407.84
1014.767	379.75
1015.124	346.98
1015.482	300.17
1015.84	342.3
1016.197	274.43
1016.555	316.56
1016.912	295.49
1017.269	328.26
1017.627	330.6
1017.984	309.54
1018.341	349.32
1018.698	344.64
1019.055	304.85
1019.412	332.94
1019.769	375.07
1020.126	253.36
1020.483	358.69
1020.84	330.6
1021.196	316.56
1021.553	351.67
1021.909	332.94
1022.266	290.81
1022.622	309.54
1022.979	316.56
1023.335	274.43
1023.691	307.2
1024.047	332.94
1024.404	290.81
1024.76	279.11
1025.116	304.85
1025.472	321.24
1025.827	293.15
1026.183	379.75
1026.539	293.15
1026.895	293.15
1027.25	318.9
1027.606	253.36
1027.961	339.96
1028.317	234.64
1028.672	248.68
1029.028	346.98
1029.383	365.71
1029.738	328.26
1030.093	234.64
1030.448	339.96
1030.803	276.77
1031.158	304.85
1031.513	328.26
1031.868	342.3
1032.223	351.67
1032.577	325.92
1032.932	307.2
1033.287	323.58
1033.641	293.15
1033.996	307.2
1034.35	307.2
1034.704	325.92
1035.059	293.15
1035.413	314.22
1035.767	314.22
1036.121	314.22
