Data from Al_FLMS009871__746__15-15-02-526.txt Node

Date: Fri Mar 08 15:15:02 CST 2024
User: pe5414po
Spectrometer: FLMS00987
Trigger mode: 0
Integration Time (sec): 1.000000E-1
Scans to average: 1
Electric dark correction enabled: true
Nonlinearity correction enabled: false
Boxcar width: 0
XAxis mode: Wavelengths
Number of Pixels in Spectrum: 2048
>>>>>Begin Spectral Data<<<<<
188.938	-121.56
189.409	-121.56
189.879	-121.56
190.349	-177.73
190.819	-173.05
191.29	-86.45
191.76	-88.79
192.23	-2.19
192.7	-95.82
193.17	-18.58
193.64	-30.28
194.109	-37.3
194.579	-11.56
195.049	-49
195.519	16.53
195.988	25.89
196.458	100.79
196.927	30.57
197.397	72.7
197.866	77.38
198.336	96.11
198.805	142.92
199.274	135.9
199.744	236.54
200.213	187.39
200.682	173.35
201.151	238.88
201.62	192.07
202.089	243.56
202.558	194.41
203.027	220.16
203.495	290.37
203.964	323.14
204.433	311.44
204.902	208.45
205.37	238.88
205.839	376.97
206.307	323.14
206.776	276.33
207.244	299.73
207.712	304.42
208.181	271.65
208.649	276.33
209.117	327.82
209.585	320.8
210.053	304.42
210.521	250.58
210.989	266.97
211.457	264.63
211.925	252.92
212.393	271.65
212.861	278.67
213.328	295.05
213.796	266.97
214.264	231.86
214.731	245.9
215.199	269.31
215.666	285.69
216.133	163.98
216.601	245.9
217.068	295.05
217.535	250.58
218.003	285.69
218.47	309.1
218.937	234.2
219.404	224.84
219.871	288.03
220.338	248.24
220.805	236.54
221.271	311.44
221.738	245.9
222.205	227.18
222.671	234.2
223.138	234.2
223.605	243.56
224.071	281.01
224.538	276.33
225.004	217.82
225.47	222.5
225.937	250.58
226.403	302.08
226.869	206.11
227.335	229.52
227.801	222.5
228.267	339.52
228.733	206.11
229.199	189.73
229.665	271.65
230.131	311.44
230.597	252.92
231.062	278.67
231.528	290.37
231.994	264.63
232.459	238.88
232.925	306.76
233.39	278.67
233.856	269.31
234.321	276.33
234.786	234.2
235.252	241.22
235.717	292.71
236.182	269.31
236.647	295.05
237.112	227.18
237.577	213.14
238.042	262.29
238.507	194.41
238.972	327.82
239.436	215.48
239.901	325.48
240.366	297.39
240.83	297.39
241.295	283.35
241.76	306.76
242.224	250.58
242.688	259.95
243.153	283.35
243.617	290.37
244.081	231.86
244.545	259.95
245.01	208.45
245.474	285.69
245.938	320.8
246.402	302.08
246.866	203.77
247.33	248.24
247.793	266.97
248.257	243.56
248.721	262.29
249.185	273.99
249.648	266.97
250.112	257.61
250.575	339.52
251.039	302.08
251.502	215.48
251.965	304.42
252.429	323.14
252.892	290.37
253.355	271.65
253.818	273.99
254.281	248.24
254.744	299.73
255.207	250.58
255.67	241.22
256.133	299.73
256.596	266.97
257.059	269.31
257.522	227.18
257.984	255.26
258.447	348.89
258.909	318.46
259.372	302.08
259.834	365.27
260.297	215.48
260.759	257.61
261.221	264.63
261.684	309.1
262.146	283.35
262.608	367.61
263.07	341.86
263.532	327.82
263.994	283.35
264.456	290.37
264.918	304.42
265.38	252.92
265.842	231.86
266.303	257.61
266.765	306.76
267.227	313.78
267.688	231.86
268.15	330.16
268.611	252.92
269.072	213.14
269.534	341.86
269.995	250.58
270.456	266.97
270.918	255.26
271.379	297.39
271.84	238.88
272.301	273.99
272.762	285.69
273.223	243.56
273.684	306.76
274.144	276.33
274.605	252.92
275.066	290.37
275.527	241.22
275.987	217.82
276.448	210.79
276.908	283.35
277.369	297.39
277.829	288.03
278.289	309.1
278.75	327.82
279.21	304.42
279.67	236.54
280.13	273.99
280.59	288.03
281.05	330.16
281.51	276.33
281.97	295.05
282.43	285.69
282.89	297.39
283.35	271.65
283.809	243.56
284.269	229.52
284.729	313.78
285.188	264.63
285.648	316.12
286.107	231.86
286.567	271.65
287.026	281.01
287.485	252.92
287.944	334.84
288.404	362.93
288.863	264.63
289.322	344.21
289.781	344.21
290.24	297.39
290.699	288.03
291.158	323.14
291.616	348.89
292.075	288.03
292.534	255.26
292.992	250.58
293.451	215.48
293.91	290.37
294.368	306.76
294.827	337.18
295.285	288.03
295.743	325.48
296.202	250.58
296.66	334.84
297.118	273.99
297.576	339.52
298.034	292.71
298.492	236.54
298.95	306.76
299.408	332.5
299.866	248.24
300.324	224.84
300.781	266.97
301.239	278.67
301.697	281.01
302.154	238.88
302.612	330.16
303.069	281.01
303.527	283.35
303.984	250.58
304.441	332.5
304.899	295.05
305.356	311.44
305.813	276.33
306.27	236.54
306.727	276.33
307.184	290.37
307.641	215.48
308.098	271.65
308.555	295.05
309.012	243.56
309.468	348.89
309.925	264.63
310.382	320.8
310.838	341.86
311.295	306.76
311.751	295.05
312.208	276.33
312.664	318.46
313.12	295.05
313.577	236.54
314.033	327.82
314.489	252.92
314.945	311.44
315.401	309.1
315.857	323.14
316.313	330.16
316.769	292.71
317.225	355.91
317.681	250.58
318.136	290.37
318.592	318.46
319.048	276.33
319.503	241.22
319.959	273.99
320.414	306.76
320.869	245.9
321.325	309.1
321.78	339.52
322.235	276.33
322.691	339.52
323.146	285.69
323.601	302.08
324.056	295.05
324.511	271.65
324.966	304.42
325.421	332.5
325.875	299.73
326.33	285.69
326.785	316.12
327.24	299.73
327.694	327.82
328.149	316.12
328.603	295.05
329.058	250.58
329.512	302.08
329.966	250.58
330.421	269.31
330.875	318.46
331.329	288.03
331.783	215.48
332.237	311.44
332.691	259.95
333.145	302.08
333.599	283.35
334.053	302.08
334.507	299.73
334.96	302.08
335.414	276.33
335.868	360.59
336.321	285.69
336.775	325.48
337.228	285.69
337.682	262.29
338.135	285.69
338.588	309.1
339.042	386.33
339.495	337.18
339.948	213.14
340.401	295.05
340.854	278.67
341.307	332.5
341.76	302.08
342.213	325.48
342.666	313.78
343.119	325.48
343.571	323.14
344.024	290.37
344.477	306.76
344.929	379.31
345.382	320.8
345.834	290.37
346.287	320.8
346.739	325.48
347.191	304.42
347.644	290.37
348.096	325.48
348.548	309.1
349	325.48
349.452	262.29
349.904	292.71
350.356	339.52
350.808	348.89
351.26	297.39
351.711	292.71
352.163	332.5
352.615	276.33
353.066	281.01
353.518	334.84
353.969	234.2
354.421	323.14
354.872	266.97
355.324	297.39
355.775	302.08
356.226	376.97
356.677	337.18
357.128	309.1
357.579	269.31
358.03	295.05
358.481	271.65
358.932	255.26
359.383	320.8
359.834	334.84
360.285	262.29
360.735	325.48
361.186	327.82
361.637	285.69
362.087	330.16
362.538	288.03
362.988	334.84
363.438	288.03
363.889	309.1
364.339	234.2
364.789	306.76
365.239	311.44
365.689	311.44
366.139	273.99
366.589	292.71
367.039	288.03
367.489	318.46
367.939	355.91
368.389	341.86
368.839	252.92
369.288	330.16
369.738	292.71
370.187	297.39
370.637	243.56
371.086	302.08
371.536	281.01
371.985	234.2
372.434	320.8
372.884	278.67
373.333	281.01
373.782	245.9
374.231	236.54
374.68	266.97
375.129	353.57
375.578	269.31
376.027	365.27
376.475	295.05
376.924	262.29
377.373	334.84
377.822	231.86
378.27	278.67
378.719	341.86
379.167	316.12
379.616	358.25
380.064	292.71
380.512	269.31
380.961	266.97
381.409	320.8
381.857	295.05
382.305	295.05
382.753	339.52
383.201	295.05
383.649	285.69
384.097	355.91
384.545	318.46
384.992	309.1
385.44	383.99
385.888	318.46
386.335	334.84
386.783	311.44
387.231	283.35
387.678	269.31
388.125	264.63
388.573	213.14
389.02	257.61
389.467	299.73
389.914	302.08
390.362	332.5
390.809	339.52
391.256	332.5
391.703	278.67
392.15	257.61
392.596	295.05
393.043	313.78
393.49	360.59
393.937	288.03
394.383	337.18
394.83	299.73
395.276	304.42
395.723	304.42
396.169	283.35
396.616	306.76
397.062	288.03
397.508	238.88
397.954	266.97
398.401	290.37
398.847	325.48
399.293	353.57
399.739	327.82
400.185	369.95
400.631	297.39
401.076	292.71
401.522	316.12
401.968	264.63
402.414	313.78
402.859	344.21
403.305	276.33
403.75	306.76
404.196	262.29
404.641	374.63
405.086	372.29
405.532	290.37
405.977	306.76
406.422	362.93
406.867	269.31
407.312	320.8
407.757	334.84
408.202	255.26
408.647	297.39
409.092	353.57
409.537	295.05
409.982	288.03
410.426	351.23
410.871	269.31
411.316	316.12
411.76	281.01
412.205	283.35
412.649	295.05
413.093	273.99
413.538	353.57
413.982	292.71
414.426	271.65
414.87	332.5
415.314	295.05
415.758	358.25
416.202	285.69
416.646	330.16
417.09	346.55
417.534	276.33
417.978	281.01
418.421	309.1
418.865	351.23
419.309	292.71
419.752	266.97
420.196	344.21
420.639	306.76
421.083	313.78
421.526	299.73
421.969	299.73
422.412	241.22
422.856	306.76
423.299	309.1
423.742	348.89
424.185	353.57
424.628	344.21
425.071	302.08
425.513	297.39
425.956	257.61
426.399	330.16
426.842	278.67
427.284	285.69
427.727	306.76
428.169	388.68
428.612	295.05
429.054	259.95
429.497	290.37
429.939	344.21
430.381	355.91
430.823	332.5
431.265	339.52
431.707	236.54
432.149	297.39
432.591	320.8
433.033	304.42
433.475	252.92
433.917	238.88
434.359	255.26
434.8	304.42
435.242	285.69
435.684	372.29
436.125	295.05
436.567	229.52
437.008	304.42
437.449	243.56
437.891	316.12
438.332	323.14
438.773	295.05
439.214	299.73
439.656	344.21
440.097	292.71
440.538	262.29
440.978	299.73
441.419	297.39
441.86	269.31
442.301	285.69
442.742	283.35
443.182	320.8
443.623	311.44
444.063	367.61
444.504	327.82
444.944	276.33
445.385	281.01
445.825	304.42
446.265	332.5
446.706	288.03
447.146	309.1
447.586	334.84
448.026	313.78
448.466	327.82
448.906	330.16
449.346	316.12
449.786	302.08
450.225	285.69
450.665	330.16
451.105	281.01
451.544	311.44
451.984	337.18
452.424	252.92
452.863	309.1
453.302	311.44
453.742	276.33
454.181	381.65
454.62	292.71
455.059	250.58
455.499	252.92
455.938	304.42
456.377	367.61
456.816	243.56
457.254	288.03
457.693	278.67
458.132	276.33
458.571	281.01
459.01	278.67
459.448	344.21
459.887	283.35
460.325	365.27
460.764	325.48
461.202	367.61
461.641	306.76
462.079	304.42
462.517	297.39
462.955	316.12
463.393	393.36
463.832	283.35
464.27	257.61
464.708	362.93
465.145	358.25
465.583	320.8
466.021	271.65
466.459	295.05
466.897	334.84
467.334	290.37
467.772	365.27
468.209	311.44
468.647	313.78
469.084	278.67
469.522	297.39
469.959	302.08
470.396	313.78
470.833	313.78
471.271	330.16
471.708	269.31
472.145	346.55
472.582	304.42
473.019	262.29
473.456	271.65
473.892	297.39
474.329	273.99
474.766	266.97
475.202	264.63
475.639	255.26
476.076	217.82
476.512	318.46
476.949	248.24
477.385	327.82
477.821	290.37
478.258	224.84
478.694	245.9
479.13	281.01
479.566	283.35
480.002	316.12
480.438	344.21
480.874	276.33
481.31	325.48
481.746	309.1
482.181	330.16
482.617	292.71
483.053	304.42
483.488	269.31
483.924	306.76
484.36	299.73
484.795	206.11
485.23	313.78
485.666	320.8
486.101	334.84
486.536	302.08
486.971	288.03
487.407	323.14
487.842	318.46
488.277	372.29
488.712	341.86
489.146	362.93
489.581	365.27
490.016	358.25
490.451	302.08
490.885	332.5
491.32	292.71
491.755	320.8
492.189	290.37
492.624	309.1
493.058	252.92
493.492	243.56
493.927	281.01
494.361	320.8
494.795	353.57
495.229	316.12
495.663	330.16
496.097	292.71
496.531	252.92
496.965	334.84
497.399	297.39
497.833	266.97
498.266	313.78
498.7	330.16
499.134	311.44
499.567	320.8
500.001	281.01
500.434	252.92
500.868	323.14
501.301	323.14
501.734	318.46
502.168	269.31
502.601	306.76
503.034	323.14
503.467	257.61
503.9	316.12
504.333	283.35
504.766	386.33
505.199	304.42
505.632	327.82
506.064	245.9
506.497	318.46
506.93	309.1
507.362	346.55
507.795	306.76
508.227	299.73
508.66	311.44
509.092	236.54
509.524	372.29
509.956	288.03
510.389	283.35
510.821	374.63
511.253	248.24
511.685	362.93
512.117	297.39
512.549	290.37
512.981	297.39
513.412	220.16
513.844	320.8
514.276	292.71
514.707	362.93
515.139	372.29
515.571	266.97
516.002	290.37
516.433	276.33
516.865	288.03
517.296	367.61
517.727	341.86
518.159	316.12
518.59	299.73
519.021	358.25
519.452	309.1
519.883	285.69
520.314	292.71
520.744	372.29
521.175	309.1
521.606	367.61
522.037	262.29
522.467	295.05
522.898	306.76
523.328	344.21
523.759	309.1
524.189	222.5
524.62	290.37
525.05	245.9
525.48	273.99
525.91	297.39
526.341	316.12
526.771	269.31
527.201	285.69
527.631	304.42
528.061	288.03
528.49	311.44
528.92	302.08
529.35	299.73
529.78	332.5
530.209	283.35
530.639	271.65
531.068	266.97
531.498	255.26
531.927	243.56
532.357	252.92
532.786	283.35
533.215	290.37
533.644	295.05
534.074	302.08
534.503	344.21
534.932	365.27
535.361	264.63
535.79	309.1
536.218	355.91
536.647	334.84
537.076	278.67
537.505	295.05
537.933	320.8
538.362	330.16
538.79	302.08
539.219	358.25
539.647	276.33
540.076	323.14
540.504	295.05
540.932	285.69
541.36	295.05
541.788	299.73
542.217	285.69
542.645	351.23
543.073	327.82
543.5	313.78
543.928	330.16
544.356	271.65
544.784	295.05
545.211	320.8
545.639	341.86
546.067	281.01
546.494	302.08
546.922	196.75
547.349	252.92
547.776	337.18
548.204	320.8
548.631	313.78
549.058	283.35
549.485	320.8
549.912	320.8
550.339	276.33
550.766	285.69
551.193	299.73
551.62	332.5
552.047	323.14
552.474	304.42
552.9	313.78
553.327	255.26
553.754	295.05
554.18	332.5
554.607	323.14
555.033	365.27
555.459	355.91
555.886	304.42
556.312	243.56
556.738	341.86
557.164	288.03
557.59	306.76
558.016	281.01
558.442	334.84
558.868	341.86
559.294	311.44
559.72	273.99
560.145	292.71
560.571	306.76
560.997	257.61
561.422	323.14
561.848	355.91
562.273	295.05
562.699	311.44
563.124	351.23
563.549	285.69
563.974	330.16
564.4	271.65
564.825	309.1
565.25	295.05
565.675	388.68
566.1	318.46
566.525	269.31
566.95	255.26
567.374	309.1
567.799	248.24
568.224	278.67
568.648	362.93
569.073	299.73
569.497	339.52
569.922	290.37
570.346	302.08
570.771	320.8
571.195	292.71
571.619	295.05
572.043	264.63
572.467	262.29
572.891	285.69
573.315	304.42
573.739	243.56
574.163	281.01
574.587	358.25
575.011	290.37
575.435	276.33
575.858	297.39
576.282	292.71
576.705	304.42
577.129	297.39
577.552	290.37
577.976	339.52
578.399	393.36
578.822	318.46
579.245	311.44
579.669	297.39
580.092	304.42
580.515	306.76
580.938	292.71
581.361	238.88
581.784	278.67
582.206	313.78
582.629	330.16
583.052	332.5
583.474	355.91
583.897	367.61
584.32	332.5
584.742	299.73
585.165	271.65
585.587	306.76
586.009	276.33
586.431	295.05
586.854	362.93
587.276	311.44
587.698	348.89
588.12	351.23
588.542	285.69
588.964	292.71
589.386	337.18
589.807	355.91
590.229	271.65
590.651	285.69
591.073	332.5
591.494	311.44
591.916	339.52
592.337	269.31
592.759	290.37
593.18	332.5
593.601	295.05
594.022	248.24
594.444	353.57
594.865	288.03
595.286	327.82
595.707	318.46
596.128	388.68
596.549	330.16
596.97	339.52
597.39	306.76
597.811	292.71
598.232	323.14
598.652	309.1
599.073	243.56
599.494	325.48
599.914	327.82
600.334	290.37
600.755	334.84
601.175	273.99
601.595	344.21
602.015	288.03
602.436	311.44
602.856	494
603.276	281.01
603.696	259.95
604.115	278.67
604.535	290.37
604.955	358.25
605.375	316.12
605.794	353.57
606.214	362.93
606.634	325.48
607.053	304.42
607.473	330.16
607.892	273.99
608.311	288.03
608.731	344.21
609.15	304.42
609.569	276.33
609.988	285.69
610.407	269.31
610.826	264.63
611.245	304.42
611.664	276.33
612.083	341.86
612.501	320.8
612.92	374.63
613.339	304.42
613.757	295.05
614.176	365.27
614.594	304.42
615.013	302.08
615.431	309.1
615.85	295.05
616.268	259.95
616.686	262.29
617.104	281.01
617.522	372.29
617.94	318.46
618.358	358.25
618.776	306.76
619.194	353.57
619.612	288.03
620.03	302.08
620.447	360.59
620.865	325.48
621.282	273.99
621.7	339.52
622.117	262.29
622.535	304.42
622.952	330.16
623.369	285.69
623.787	295.05
624.204	311.44
624.621	248.24
625.038	313.78
625.455	355.91
625.872	229.52
626.289	215.48
626.706	304.42
627.123	266.97
627.539	241.22
627.956	323.14
628.373	302.08
628.789	327.82
629.206	299.73
629.622	269.31
630.038	285.69
630.455	332.5
630.871	367.61
631.287	376.97
631.703	348.89
632.12	304.42
632.536	299.73
632.952	295.05
633.368	295.05
633.783	285.69
634.199	285.69
634.615	278.67
635.031	313.78
635.446	281.01
635.862	309.1
636.277	304.42
636.693	283.35
637.108	285.69
637.524	311.44
637.939	311.44
638.354	299.73
638.77	234.2
639.185	262.29
639.6	299.73
640.015	299.73
640.43	273.99
640.845	320.8
641.259	339.52
641.674	334.84
642.089	320.8
642.504	295.05
642.918	290.37
643.333	313.78
643.747	372.29
644.162	341.86
644.576	262.29
644.991	320.8
645.405	313.78
645.819	278.67
646.233	290.37
646.647	273.99
647.061	285.69
647.475	281.01
647.889	288.03
648.303	381.65
648.717	332.5
649.131	285.69
649.545	334.84
649.958	297.39
650.372	362.93
650.785	281.01
651.199	313.78
651.612	339.52
652.026	339.52
652.439	330.16
652.852	306.76
653.266	309.1
653.679	281.01
654.092	346.55
654.505	257.61
654.918	376.97
655.331	325.48
655.744	320.8
656.156	325.48
656.569	266.97
656.982	346.55
657.394	250.58
657.807	290.37
658.22	306.76
658.632	295.05
659.044	259.95
659.457	269.31
659.869	302.08
660.281	231.86
660.693	299.73
661.106	278.67
661.518	283.35
661.93	299.73
662.342	316.12
662.754	316.12
663.165	283.35
663.577	318.46
663.989	344.21
664.401	320.8
664.812	302.08
665.224	299.73
665.635	288.03
666.047	353.57
666.458	313.78
666.869	318.46
667.281	311.44
667.692	288.03
668.103	311.44
668.514	369.95
668.925	330.16
669.336	332.5
669.747	320.8
670.158	318.46
670.569	281.01
670.979	323.14
671.39	285.69
671.801	281.01
672.211	316.12
672.622	283.35
673.032	332.5
673.443	285.69
673.853	325.48
674.263	339.52
674.674	327.82
675.084	318.46
675.494	318.46
675.904	339.52
676.314	337.18
676.724	269.31
677.134	288.03
677.544	330.16
677.953	252.92
678.363	292.71
678.773	414.42
679.182	372.29
679.592	309.1
680.001	339.52
680.411	355.91
680.82	313.78
681.23	259.95
681.639	283.35
682.048	299.73
682.457	250.58
682.866	262.29
683.275	339.52
683.684	346.55
684.093	273.99
684.502	306.76
684.911	241.22
685.32	323.14
685.728	302.08
686.137	318.46
686.546	269.31
686.954	273.99
687.363	262.29
687.771	323.14
688.179	311.44
688.588	316.12
688.996	332.5
689.404	292.71
689.812	290.37
690.22	299.73
690.628	362.93
691.036	365.27
691.444	295.05
691.852	259.95
692.26	306.76
692.667	311.44
693.075	334.84
693.483	262.29
693.89	414.42
694.298	283.35
694.705	327.82
695.112	311.44
695.52	381.65
695.927	295.05
696.334	323.14
696.741	241.22
697.148	276.33
697.555	330.16
697.962	379.31
698.369	295.05
698.776	339.52
699.183	290.37
699.59	327.82
699.996	304.42
700.403	318.46
700.81	276.33
701.216	320.8
701.623	311.44
702.029	341.86
702.435	283.35
702.842	276.33
703.248	346.55
703.654	323.14
704.06	295.05
704.466	374.63
704.872	337.18
705.278	320.8
705.684	229.52
706.09	266.97
706.496	245.9
706.901	344.21
707.307	304.42
707.712	304.42
708.118	309.1
708.523	309.1
708.929	320.8
709.334	351.23
709.74	215.48
710.145	273.99
710.55	278.67
710.955	304.42
711.36	388.68
711.765	348.89
712.17	309.1
712.575	348.89
712.98	800.61
713.385	248.24
713.789	327.82
714.194	302.08
714.599	337.18
715.003	309.1
715.408	323.14
715.812	241.22
716.217	388.68
716.621	358.25
717.025	320.8
717.429	299.73
717.833	227.18
718.238	299.73
718.642	351.23
719.046	313.78
719.449	288.03
719.853	290.37
720.257	273.99
720.661	346.55
721.065	327.82
721.468	320.8
721.872	320.8
722.275	299.73
722.679	306.76
723.082	302.08
723.485	281.01
723.889	341.86
724.292	348.89
724.695	236.54
725.098	290.37
725.501	358.25
725.904	393.36
726.307	262.29
726.71	341.86
727.113	316.12
727.516	262.29
727.918	330.16
728.321	330.16
728.724	290.37
729.126	320.8
729.529	292.71
729.931	323.14
730.333	285.69
730.736	325.48
731.138	313.78
731.54	252.92
731.942	295.05
732.344	248.24
732.746	288.03
733.148	285.69
733.55	269.31
733.952	299.73
734.354	266.97
734.756	288.03
735.157	285.69
735.559	292.71
735.96	273.99
736.362	323.14
736.763	283.35
737.165	234.2
737.566	323.14
737.967	379.31
738.368	248.24
738.77	327.82
739.171	283.35
739.572	309.1
739.973	341.86
740.374	346.55
740.774	278.67
741.175	341.86
741.576	348.89
741.977	220.16
742.377	316.12
742.778	358.25
743.178	323.14
743.579	351.23
743.979	290.37
744.379	330.16
744.78	271.65
745.18	285.69
745.58	341.86
745.98	269.31
746.38	266.97
746.78	320.8
747.18	281.01
747.58	281.01
747.98	283.35
748.38	309.1
748.779	281.01
749.179	325.48
749.578	292.71
749.978	295.05
750.377	278.67
750.777	278.67
751.176	288.03
751.575	341.86
751.975	360.59
752.374	316.12
752.773	278.67
753.172	339.52
753.571	309.1
753.97	318.46
754.369	339.52
754.768	292.71
755.166	351.23
755.565	283.35
755.964	264.63
756.362	337.18
756.761	257.61
757.159	304.42
757.558	248.24
757.956	215.48
758.354	334.84
758.753	243.56
759.151	257.61
759.549	262.29
759.947	288.03
760.345	353.57
760.743	297.39
761.141	276.33
761.539	297.39
761.936	292.71
762.334	320.8
762.732	264.63
763.129	360.59
763.527	325.48
763.924	327.82
764.322	295.05
764.719	379.31
765.117	318.46
765.514	311.44
765.911	273.99
766.308	224.84
766.705	271.65
767.102	269.31
767.499	346.55
767.896	271.65
768.293	311.44
768.69	320.8
769.086	334.84
769.483	292.71
769.88	278.67
770.276	276.33
770.673	299.73
771.069	311.44
771.466	281.01
771.862	273.99
772.258	281.01
772.654	278.67
773.05	341.86
773.447	316.12
773.843	323.14
774.239	255.26
774.634	283.35
775.03	332.5
775.426	259.95
775.822	309.1
776.218	379.31
776.613	304.42
777.009	281.01
777.404	306.76
777.8	292.71
778.195	248.24
778.59	309.1
778.986	306.76
779.381	231.86
779.776	299.73
780.171	337.18
780.566	278.67
780.961	316.12
781.356	302.08
781.751	348.89
782.146	358.25
782.54	306.76
782.935	292.71
783.33	318.46
783.724	266.97
784.119	271.65
784.513	288.03
784.908	313.78
785.302	334.84
785.696	285.69
786.09	325.48
786.485	283.35
786.879	262.29
787.273	264.63
787.667	318.46
788.061	278.67
788.454	313.78
788.848	367.61
789.242	276.33
789.636	330.16
790.029	344.21
790.423	299.73
790.816	215.48
791.21	271.65
791.603	266.97
791.997	259.95
792.39	278.67
792.783	269.31
793.176	273.99
793.569	323.14
793.962	311.44
794.355	306.76
794.748	306.76
795.141	327.82
795.534	327.82
795.927	346.55
796.319	362.93
796.712	330.16
797.105	264.63
797.497	334.84
797.89	325.48
798.282	283.35
798.674	337.18
799.067	309.1
799.459	325.48
799.851	358.25
800.243	309.1
800.635	283.35
801.027	264.63
801.419	269.31
801.811	243.56
802.203	306.76
802.594	281.01
802.986	309.1
803.378	297.39
803.769	306.76
804.161	273.99
804.552	236.54
804.944	227.18
805.335	278.67
805.726	353.57
806.118	332.5
806.509	299.73
806.9	332.5
807.291	264.63
807.682	283.35
808.073	309.1
808.464	334.84
808.855	313.78
809.245	271.65
809.636	238.88
810.027	255.26
810.417	334.84
810.808	374.63
811.198	330.16
811.589	360.59
811.979	341.86
812.369	283.35
812.759	306.76
813.15	252.92
813.54	252.92
813.93	281.01
814.32	299.73
814.71	302.08
815.1	339.52
815.489	316.12
815.879	292.71
816.269	325.48
816.658	309.1
817.048	327.82
817.438	302.08
817.827	313.78
818.216	297.39
818.606	264.63
818.995	339.52
819.384	327.82
819.773	323.14
820.163	278.67
820.552	309.1
820.941	248.24
821.33	306.76
821.718	281.01
822.107	334.84
822.496	330.16
822.885	313.78
823.273	372.29
823.662	250.58
824.05	255.26
824.439	313.78
824.827	299.73
825.216	273.99
825.604	288.03
825.992	262.29
826.38	327.82
826.768	358.25
827.156	351.23
827.544	320.8
827.932	283.35
828.32	302.08
828.708	243.56
829.096	276.33
829.483	238.88
829.871	313.78
830.259	313.78
830.646	316.12
831.034	309.1
831.421	318.46
831.808	416.76
832.196	252.92
832.583	245.9
832.97	316.12
833.357	320.8
833.744	238.88
834.131	297.39
834.518	313.78
834.905	269.31
835.292	243.56
835.678	271.65
836.065	259.95
836.452	304.42
836.838	292.71
837.225	269.31
837.611	311.44
837.998	330.16
838.384	299.73
838.77	341.86
839.157	288.03
839.543	271.65
839.929	327.82
840.315	316.12
840.701	304.42
841.087	250.58
841.473	288.03
841.858	269.31
842.244	283.35
842.63	304.42
843.015	283.35
843.401	409.74
843.787	339.52
844.172	346.55
844.557	266.97
844.943	299.73
845.328	344.21
845.713	238.88
846.098	292.71
846.483	285.69
846.868	320.8
847.253	302.08
847.638	346.55
848.023	285.69
848.408	252.92
848.793	285.69
849.177	299.73
849.562	358.25
849.947	266.97
850.331	278.67
850.715	318.46
851.1	241.22
851.484	281.01
851.868	346.55
852.253	283.35
852.637	259.95
853.021	269.31
853.405	297.39
853.789	302.08
854.173	257.61
854.557	316.12
854.94	344.21
855.324	320.8
855.708	285.69
856.091	252.92
856.475	358.25
856.858	344.21
857.242	299.73
857.625	290.37
858.009	316.12
858.392	248.24
858.775	367.61
859.158	278.67
859.541	306.76
859.924	330.16
860.307	341.86
860.69	318.46
861.073	339.52
861.456	348.89
861.838	290.37
862.221	290.37
862.604	231.86
862.986	295.05
863.369	290.37
863.751	320.8
864.133	259.95
864.516	302.08
864.898	285.69
865.28	306.76
865.662	257.61
866.044	306.76
866.426	295.05
866.808	281.01
867.19	306.76
867.572	257.61
867.954	306.76
868.336	313.78
868.717	306.76
869.099	330.16
869.48	332.5
869.862	255.26
870.243	257.61
870.625	344.21
871.006	299.73
871.387	309.1
871.768	266.97
872.149	327.82
872.53	231.86
872.911	316.12
873.292	311.44
873.673	313.78
874.054	320.8
874.435	344.21
874.815	288.03
875.196	374.63
875.577	323.14
875.957	323.14
876.338	320.8
876.718	362.93
877.098	175.69
877.479	346.55
877.859	285.69
878.239	290.37
878.619	302.08
878.999	325.48
879.379	344.21
879.759	327.82
880.139	278.67
880.519	295.05
880.898	311.44
881.278	372.29
881.658	306.76
882.037	381.65
882.417	355.91
882.796	262.29
883.176	316.12
883.555	241.22
883.934	288.03
884.313	288.03
884.693	306.76
885.072	316.12
885.451	325.48
885.83	297.39
886.209	278.67
886.587	320.8
886.966	306.76
887.345	241.22
887.724	320.8
888.102	269.31
888.481	248.24
888.859	250.58
889.238	297.39
889.616	304.42
889.994	325.48
890.373	318.46
890.751	367.61
891.129	367.61
891.507	323.14
891.885	273.99
892.263	292.71
892.641	323.14
893.019	295.05
893.396	266.97
893.774	304.42
894.152	341.86
894.529	313.78
894.907	271.65
895.284	295.05
895.662	295.05
896.039	248.24
896.416	285.69
896.794	241.22
897.171	318.46
897.548	238.88
897.925	360.59
898.302	295.05
898.679	255.26
899.056	339.52
899.433	327.82
899.809	346.55
900.186	276.33
900.563	332.5
900.939	238.88
901.316	311.44
901.692	311.44
902.069	332.5
902.445	360.59
902.821	295.05
903.197	252.92
903.574	285.69
903.95	332.5
904.326	318.46
904.702	332.5
905.078	288.03
905.454	355.91
905.829	304.42
906.205	250.58
906.581	262.29
906.956	339.52
907.332	273.99
907.707	243.56
908.083	250.58
908.458	302.08
908.833	327.82
909.209	365.27
909.584	405.06
909.959	283.35
910.334	304.42
910.709	311.44
911.084	330.16
911.459	262.29
911.834	257.61
912.209	323.14
912.583	276.33
912.958	304.42
913.333	316.12
913.707	313.78
914.082	341.86
914.456	266.97
914.83	304.42
915.205	292.71
915.579	290.37
915.953	266.97
916.327	337.18
916.701	304.42
917.075	304.42
917.449	255.26
917.823	276.33
918.197	278.67
918.571	252.92
918.944	248.24
919.318	285.69
919.692	262.29
920.065	302.08
920.438	302.08
920.812	309.1
921.185	220.16
921.558	231.86
921.932	313.78
922.305	323.14
922.678	306.76
923.051	323.14
923.424	283.35
923.797	299.73
924.17	257.61
924.542	288.03
924.915	290.37
925.288	341.86
925.661	278.67
926.033	313.78
926.406	259.95
926.778	334.84
927.15	360.59
927.523	278.67
927.895	304.42
928.267	208.45
928.639	273.99
929.011	351.23
929.383	236.54
929.755	271.65
930.127	281.01
930.499	257.61
930.871	323.14
931.242	351.23
931.614	367.61
931.986	302.08
932.357	257.61
932.729	290.37
933.1	276.33
933.471	276.33
933.843	304.42
934.214	318.46
934.585	297.39
934.956	276.33
935.327	313.78
935.698	323.14
936.069	344.21
936.44	311.44
936.811	281.01
937.182	285.69
937.552	360.59
937.923	297.39
938.293	234.2
938.664	273.99
939.034	365.27
939.405	393.36
939.775	311.44
940.145	339.52
940.516	323.14
940.886	288.03
941.256	302.08
941.626	295.05
941.996	299.73
942.366	290.37
942.735	278.67
943.105	313.78
943.475	290.37
943.845	259.95
944.214	325.48
944.584	236.54
944.953	346.55
945.323	259.95
945.692	264.63
946.061	330.16
946.43	337.18
946.8	302.08
947.169	320.8
947.538	295.05
947.907	351.23
948.276	278.67
948.645	337.18
949.013	355.91
949.382	304.42
949.751	257.61
950.119	273.99
950.488	306.76
950.857	231.86
951.225	309.1
951.593	295.05
951.962	295.05
952.33	288.03
952.698	250.58
953.066	283.35
953.434	285.69
953.802	238.88
954.17	297.39
954.538	320.8
954.906	295.05
955.274	313.78
955.642	252.92
956.009	264.63
956.377	299.73
956.744	346.55
957.112	346.55
957.479	278.67
957.847	355.91
958.214	306.76
958.581	325.48
958.948	316.12
959.315	288.03
959.683	297.39
960.05	325.48
960.416	283.35
960.783	344.21
961.15	292.71
961.517	288.03
961.884	306.76
962.25	318.46
962.617	302.08
962.983	285.69
963.35	316.12
963.716	222.5
964.082	264.63
964.449	346.55
964.815	276.33
965.181	325.48
965.547	302.08
965.913	248.24
966.279	311.44
966.645	304.42
967.011	283.35
967.377	266.97
967.742	285.69
968.108	313.78
968.474	281.01
968.839	323.14
969.205	346.55
969.57	281.01
969.935	295.05
970.301	325.48
970.666	281.01
971.031	306.76
971.396	302.08
971.761	299.73
972.126	255.26
972.491	264.63
972.856	269.31
973.221	355.91
973.586	269.31
973.95	229.52
974.315	309.1
974.679	245.9
975.044	264.63
975.408	358.25
975.773	295.05
976.137	273.99
976.501	290.37
976.866	313.78
977.23	318.46
977.594	304.42
977.958	304.42
978.322	264.63
978.686	332.5
979.049	334.84
979.413	299.73
979.777	276.33
980.141	299.73
980.504	295.05
980.868	283.35
981.231	288.03
981.595	299.73
981.958	259.95
982.321	341.86
982.684	252.92
983.048	302.08
983.411	297.39
983.774	292.71
984.137	341.86
984.5	334.84
984.862	360.59
985.225	325.48
985.588	365.27
985.951	313.78
986.313	334.84
986.676	266.97
987.038	353.57
987.401	278.67
987.763	379.31
988.125	302.08
988.488	290.37
988.85	273.99
989.212	283.35
989.574	346.55
989.936	309.1
990.298	269.31
990.66	323.14
991.022	309.1
991.383	297.39
991.745	297.39
992.107	311.44
992.468	304.42
992.83	302.08
993.191	269.31
993.553	227.18
993.914	313.78
994.275	313.78
994.637	262.29
994.998	278.67
995.359	313.78
995.72	341.86
996.081	243.56
996.442	255.26
996.803	283.35
997.163	285.69
997.524	266.97
997.885	259.95
998.245	262.29
998.606	290.37
998.966	323.14
999.327	238.88
999.687	362.93
1000.047	250.58
1000.408	306.76
1000.768	309.1
1001.128	309.1
1001.488	264.63
1001.848	311.44
1002.208	269.31
1002.568	241.22
1002.927	278.67
1003.287	313.78
1003.647	337.18
1004.007	292.71
1004.366	311.44
1004.726	292.71
1005.085	365.27
1005.444	311.44
1005.804	281.01
1006.163	290.37
1006.522	346.55
1006.881	297.39
1007.24	309.1
1007.599	283.35
1007.958	297.39
1008.317	297.39
1008.676	273.99
1009.035	320.8
1009.393	299.73
1009.752	278.67
1010.111	199.09
1010.469	374.63
1010.828	290.37
1011.186	288.03
1011.544	302.08
1011.903	346.55
1012.261	358.25
1012.619	259.95
1012.977	288.03
1013.335	332.5
1013.693	297.39
1014.051	304.42
1014.409	372.29
1014.767	283.35
1015.124	313.78
1015.482	372.29
1015.84	248.24
1016.197	245.9
1016.555	285.69
1016.912	262.29
1017.269	311.44
1017.627	374.63
1017.984	313.78
1018.341	276.33
1018.698	292.71
1019.055	281.01
1019.412	250.58
1019.769	276.33
1020.126	262.29
1020.483	243.56
1020.84	264.63
1021.196	283.35
1021.553	323.14
1021.909	269.31
1022.266	297.39
1022.622	337.18
1022.979	266.97
1023.335	257.61
1023.691	348.89
1024.047	320.8
1024.404	259.95
1024.76	281.01
1025.116	313.78
1025.472	337.18
1025.827	252.92
1026.183	311.44
1026.539	259.95
1026.895	290.37
1027.25	259.95
1027.606	339.52
1027.961	266.97
1028.317	283.35
1028.672	264.63
1029.028	325.48
1029.383	281.01
1029.738	309.1
1030.093	309.1
1030.448	262.29
1030.803	325.48
1031.158	269.31
1031.513	288.03
1031.868	311.44
1032.223	288.03
1032.577	278.67
1032.932	273.99
1033.287	273.99
1033.641	266.97
1033.996	227.18
1034.35	283.35
1034.704	266.97
1035.059	262.29
1035.413	252.92
1035.767	252.92
1036.121	252.92
