Data from Al_FLMS009871__749__15-15-02-826.txt Node

Date: Fri Mar 08 15:15:02 CST 2024
User: pe5414po
Spectrometer: FLMS00987
Trigger mode: 0
Integration Time (sec): 1.000000E-1
Scans to average: 1
Electric dark correction enabled: true
Nonlinearity correction enabled: false
Boxcar width: 0
XAxis mode: Wavelengths
Number of Pixels in Spectrum: 2048
>>>>>Begin Spectral Data<<<<<
188.938	-34.23
189.409	-34.23
189.879	-34.23
190.349	-134.87
190.819	-118.49
191.29	-116.15
191.76	-113.81
192.23	-45.93
192.7	-57.64
193.17	-97.42
193.64	-48.27
194.109	-76.36
194.579	-31.89
195.049	12.58
195.519	17.26
195.988	21.94
196.458	101.52
196.927	50.03
197.397	160.03
197.866	110.88
198.336	113.22
198.805	124.93
199.274	66.41
199.744	188.12
200.213	237.27
200.682	197.48
201.151	169.4
201.62	253.66
202.089	258.34
202.558	230.25
203.027	220.89
203.495	295.79
203.964	197.48
204.433	251.32
204.902	260.68
205.37	265.36
205.839	204.5
206.307	328.55
206.776	340.26
207.244	227.91
207.712	258.34
208.181	316.85
208.649	286.42
209.117	239.61
209.585	253.66
210.053	344.94
210.521	279.4
210.989	260.68
211.457	270.04
211.925	230.25
212.393	256
212.861	293.44
213.328	284.08
213.796	270.04
214.264	293.44
214.731	295.79
215.199	323.87
215.666	286.42
216.133	232.59
216.601	272.38
217.068	213.87
217.535	312.17
218.003	256
218.47	256
218.937	197.48
219.404	288.76
219.871	263.02
220.338	239.61
220.805	202.16
221.271	216.21
221.738	251.32
222.205	230.25
222.671	265.36
223.138	227.91
223.605	281.74
224.071	209.19
224.538	335.57
225.004	272.38
225.47	211.53
225.937	197.48
226.403	239.61
226.869	302.81
227.335	248.97
227.801	312.17
228.267	258.34
228.733	237.27
229.199	230.25
229.665	274.72
230.131	239.61
230.597	265.36
231.062	239.61
231.528	288.76
231.994	277.06
232.459	279.4
232.925	258.34
233.39	293.44
233.856	246.63
234.321	195.14
234.786	293.44
235.252	298.13
235.717	309.83
236.182	281.74
236.647	284.08
237.112	272.38
237.577	302.81
238.042	234.93
238.507	253.66
238.972	244.29
239.436	244.29
239.901	234.93
240.366	272.38
240.83	291.1
241.295	169.4
241.76	248.97
242.224	263.02
242.688	220.89
243.153	305.15
243.617	272.38
244.081	265.36
244.545	314.51
245.01	204.5
245.474	218.55
245.938	272.38
246.402	277.06
246.866	218.55
247.33	232.59
247.793	239.61
248.257	305.15
248.721	241.95
249.185	286.42
249.648	270.04
250.112	307.49
250.575	223.23
251.039	316.85
251.502	279.4
251.965	265.36
252.429	279.4
252.892	256
253.355	298.13
253.818	251.32
254.281	291.1
254.744	279.4
255.207	197.48
255.67	288.76
256.133	209.19
256.596	277.06
257.059	260.68
257.522	281.74
257.984	298.13
258.447	244.29
258.909	279.4
259.372	298.13
259.834	305.15
260.297	288.76
260.759	220.89
261.221	204.5
261.684	223.23
262.146	312.17
262.608	288.76
263.07	321.53
263.532	302.81
263.994	279.4
264.456	258.34
264.918	270.04
265.38	253.66
265.842	300.47
266.303	274.72
266.765	377.7
267.227	213.87
267.688	370.68
268.15	333.23
268.611	328.55
269.072	225.57
269.534	298.13
269.995	330.89
270.456	354.3
270.918	230.25
271.379	286.42
271.84	307.49
272.301	225.57
272.762	270.04
273.223	265.36
273.684	354.3
274.144	251.32
274.605	337.91
275.066	284.08
275.527	319.19
275.987	237.27
276.448	330.89
276.908	239.61
277.369	216.21
277.829	253.66
278.289	328.55
278.75	337.91
279.21	265.36
279.67	230.25
280.13	314.51
280.59	319.19
281.05	295.79
281.51	234.93
281.97	307.49
282.43	302.81
282.89	267.7
283.35	274.72
283.809	347.28
284.269	307.49
284.729	295.79
285.188	256
285.648	253.66
286.107	305.15
286.567	270.04
287.026	274.72
287.485	258.34
287.944	267.7
288.404	293.44
288.863	288.76
289.322	267.7
289.781	293.44
290.24	265.36
290.699	361.32
291.158	241.95
291.616	330.89
292.075	347.28
292.534	263.02
292.992	321.53
293.451	321.53
293.91	211.53
294.368	342.6
294.827	272.38
295.285	295.79
295.743	253.66
296.202	298.13
296.66	246.63
297.118	305.15
297.576	270.04
298.034	258.34
298.492	307.49
298.95	286.42
299.408	204.5
299.866	298.13
300.324	293.44
300.781	298.13
301.239	321.53
301.697	279.4
302.154	274.72
302.612	281.74
303.069	335.57
303.527	258.34
303.984	265.36
304.441	337.91
304.899	248.97
305.356	260.68
305.813	237.27
306.27	319.19
306.727	263.02
307.184	293.44
307.641	316.85
308.098	337.91
308.555	230.25
309.012	277.06
309.468	258.34
309.925	326.21
310.382	244.29
310.838	307.49
311.295	330.89
311.751	293.44
312.208	274.72
312.664	314.51
313.12	270.04
313.577	253.66
314.033	277.06
314.489	253.66
314.945	298.13
315.401	368.34
315.857	286.42
316.313	349.62
316.769	309.83
317.225	335.57
317.681	263.02
318.136	288.76
318.592	319.19
319.048	277.06
319.503	293.44
319.959	323.87
320.414	302.81
320.869	342.6
321.325	293.44
321.78	295.79
322.235	284.08
322.691	309.83
323.146	237.27
323.601	323.87
324.056	326.21
324.511	300.47
324.966	253.66
325.421	291.1
325.875	312.17
326.33	358.98
326.785	286.42
327.24	277.06
327.694	286.42
328.149	272.38
328.603	300.47
329.058	274.72
329.512	293.44
329.966	293.44
330.421	309.83
330.875	300.47
331.329	309.83
331.783	263.02
332.237	291.1
332.691	351.96
333.145	300.47
333.599	291.1
334.053	328.55
334.507	286.42
334.96	237.27
335.414	309.83
335.868	286.42
336.321	295.79
336.775	274.72
337.228	328.55
337.682	263.02
338.135	312.17
338.588	293.44
339.042	300.47
339.495	323.87
339.948	267.7
340.401	323.87
340.854	323.87
341.307	230.25
341.76	326.21
342.213	298.13
342.666	293.44
343.119	288.76
343.571	270.04
344.024	284.08
344.477	293.44
344.929	314.51
345.382	326.21
345.834	307.49
346.287	263.02
346.739	230.25
347.191	321.53
347.644	274.72
348.096	251.32
348.548	361.32
349	251.32
349.452	281.74
349.904	234.93
350.356	330.89
350.808	335.57
351.26	298.13
351.711	258.34
352.163	239.61
352.615	281.74
353.066	316.85
353.518	251.32
353.969	382.39
354.421	302.81
354.872	342.6
355.324	256
355.775	256
356.226	321.53
356.677	295.79
357.128	265.36
357.579	239.61
358.03	267.7
358.481	272.38
358.932	302.81
359.383	300.47
359.834	265.36
360.285	330.89
360.735	337.91
361.186	263.02
361.637	244.29
362.087	286.42
362.538	281.74
362.988	258.34
363.438	267.7
363.889	281.74
364.339	284.08
364.789	361.32
365.239	293.44
365.689	307.49
366.139	337.91
366.589	291.1
367.039	288.76
367.489	300.47
367.939	316.85
368.389	277.06
368.839	337.91
369.288	293.44
369.738	248.97
370.187	260.68
370.637	232.59
371.086	192.8
371.536	314.51
371.985	330.89
372.434	232.59
372.884	302.81
373.333	260.68
373.782	260.68
374.231	366
374.68	279.4
375.129	314.51
375.578	265.36
376.027	274.72
376.475	295.79
376.924	326.21
377.373	298.13
377.822	281.74
378.27	323.87
378.719	232.59
379.167	377.7
379.616	326.21
380.064	300.47
380.512	274.72
380.961	288.76
381.409	323.87
381.857	293.44
382.305	323.87
382.753	347.28
383.201	312.17
383.649	354.3
384.097	361.32
384.545	335.57
384.992	314.51
385.44	239.61
385.888	302.81
386.335	335.57
386.783	274.72
387.231	340.26
387.678	349.62
388.125	323.87
388.573	279.4
389.02	314.51
389.467	277.06
389.914	281.74
390.362	241.95
390.809	354.3
391.256	284.08
391.703	298.13
392.15	342.6
392.596	321.53
393.043	363.66
393.49	286.42
393.937	284.08
394.383	330.89
394.83	323.87
395.276	326.21
395.723	293.44
396.169	267.7
396.616	309.83
397.062	354.3
397.508	284.08
397.954	309.83
398.401	368.34
398.847	328.55
399.293	316.85
399.739	244.29
400.185	258.34
400.631	323.87
401.076	277.06
401.522	270.04
401.968	286.42
402.414	298.13
402.859	260.68
403.305	279.4
403.75	288.76
404.196	302.81
404.641	279.4
405.086	302.81
405.532	316.85
405.977	298.13
406.422	347.28
406.867	321.53
407.312	291.1
407.757	316.85
408.202	330.89
408.647	277.06
409.092	291.1
409.537	361.32
409.982	321.53
410.426	370.68
410.871	302.81
411.316	277.06
411.76	307.49
412.205	277.06
412.649	307.49
413.093	286.42
413.538	279.4
413.982	349.62
414.426	382.39
414.87	330.89
415.314	321.53
415.758	279.4
416.202	351.96
416.646	293.44
417.09	319.19
417.534	337.91
417.978	307.49
418.421	302.81
418.865	319.19
419.309	309.83
419.752	300.47
420.196	237.27
420.639	263.02
421.083	263.02
421.526	314.51
421.969	319.19
422.412	333.23
422.856	295.79
423.299	333.23
423.742	415.15
424.185	314.51
424.628	321.53
425.071	307.49
425.513	288.76
425.956	291.1
426.399	270.04
426.842	337.91
427.284	312.17
427.727	312.17
428.169	277.06
428.612	316.85
429.054	375.36
429.497	258.34
429.939	277.06
430.381	270.04
430.823	260.68
431.265	281.74
431.707	298.13
432.149	340.26
432.591	251.32
433.033	302.81
433.475	328.55
433.917	307.49
434.359	253.66
434.8	265.36
435.242	305.15
435.684	333.23
436.125	326.21
436.567	319.19
437.008	314.51
437.449	321.53
437.891	274.72
438.332	293.44
438.773	286.42
439.214	316.85
439.656	295.79
440.097	347.28
440.538	323.87
440.978	358.98
441.419	354.3
441.86	312.17
442.301	319.19
442.742	312.17
443.182	342.6
443.623	270.04
444.063	277.06
444.504	286.42
444.944	258.34
445.385	405.79
445.825	274.72
446.265	284.08
446.706	354.3
447.146	349.62
447.586	295.79
448.026	337.91
448.466	309.83
448.906	265.36
449.346	337.91
449.786	302.81
450.225	286.42
450.665	281.74
451.105	356.64
451.544	253.66
451.984	351.96
452.424	284.08
452.863	347.28
453.302	328.55
453.742	337.91
454.181	298.13
454.62	258.34
455.059	291.1
455.499	225.57
455.938	347.28
456.377	256
456.816	260.68
457.254	375.36
457.693	300.47
458.132	314.51
458.571	309.83
459.01	288.76
459.448	286.42
459.887	272.38
460.325	298.13
460.764	295.79
461.202	312.17
461.641	284.08
462.079	351.96
462.517	316.85
462.955	284.08
463.393	323.87
463.832	291.1
464.27	321.53
464.708	288.76
465.145	291.1
465.583	284.08
466.021	295.79
466.459	337.91
466.897	260.68
467.334	305.15
467.772	370.68
468.209	344.94
468.647	244.29
469.084	335.57
469.522	363.66
469.959	307.49
470.396	251.32
470.833	323.87
471.271	302.81
471.708	251.32
472.145	293.44
472.582	260.68
473.019	316.85
473.456	347.28
473.892	279.4
474.329	323.87
474.766	307.49
475.202	316.85
475.639	342.6
476.076	241.95
476.512	293.44
476.949	270.04
477.385	265.36
477.821	316.85
478.258	293.44
478.694	314.51
479.13	316.85
479.566	319.19
480.002	298.13
480.438	323.87
480.874	312.17
481.31	307.49
481.746	337.91
482.181	312.17
482.617	373.02
483.053	314.51
483.488	270.04
483.924	380.04
484.36	281.74
484.795	298.13
485.23	288.76
485.666	354.3
486.101	312.17
486.536	314.51
486.971	293.44
487.407	256
487.842	274.72
488.277	281.74
488.712	326.21
489.146	286.42
489.581	286.42
490.016	305.15
490.451	267.7
490.885	326.21
491.32	349.62
491.755	326.21
492.189	298.13
492.624	312.17
493.058	340.26
493.492	305.15
493.927	330.89
494.361	335.57
494.795	314.51
495.229	300.47
495.663	349.62
496.097	323.87
496.531	387.07
496.965	354.3
497.399	309.83
497.833	305.15
498.266	312.17
498.7	356.64
499.134	349.62
499.567	295.79
500.001	344.94
500.434	277.06
500.868	300.47
501.301	323.87
501.734	363.66
502.168	298.13
502.601	302.81
503.034	295.79
503.467	251.32
503.9	284.08
504.333	326.21
504.766	342.6
505.199	302.81
505.632	326.21
506.064	323.87
506.497	312.17
506.93	312.17
507.362	328.55
507.795	274.72
508.227	335.57
508.66	291.1
509.092	263.02
509.524	281.74
509.956	281.74
510.389	274.72
510.821	305.15
511.253	305.15
511.685	337.91
512.117	291.1
512.549	211.53
512.981	382.39
513.412	354.3
513.844	314.51
514.276	314.51
514.707	316.85
515.139	316.85
515.571	335.57
516.002	288.76
516.433	340.26
516.865	293.44
517.296	307.49
517.727	321.53
518.159	288.76
518.59	351.96
519.021	272.38
519.452	260.68
519.883	305.15
520.314	293.44
520.744	330.89
521.175	305.15
521.606	293.44
522.037	288.76
522.467	263.02
522.898	300.47
523.328	241.95
523.759	267.7
524.189	363.66
524.62	389.41
525.05	323.87
525.48	307.49
525.91	284.08
526.341	302.81
526.771	307.49
527.201	363.66
527.631	312.17
528.061	295.79
528.49	342.6
528.92	288.76
529.35	335.57
529.78	248.97
530.209	293.44
530.639	307.49
531.068	298.13
531.498	284.08
531.927	274.72
532.357	314.51
532.786	288.76
533.215	302.81
533.644	309.83
534.074	323.87
534.503	307.49
534.932	307.49
535.361	272.38
535.79	272.38
536.218	307.49
536.647	284.08
537.076	307.49
537.505	305.15
537.933	323.87
538.362	227.91
538.79	370.68
539.219	335.57
539.647	321.53
540.076	307.49
540.504	295.79
540.932	335.57
541.36	387.07
541.788	305.15
542.217	302.81
542.645	326.21
543.073	312.17
543.5	380.04
543.928	293.44
544.356	244.29
544.784	340.26
545.211	309.83
545.639	344.94
546.067	248.97
546.494	281.74
546.922	277.06
547.349	281.74
547.776	284.08
548.204	307.49
548.631	277.06
549.058	307.49
549.485	277.06
549.912	323.87
550.339	274.72
550.766	284.08
551.193	298.13
551.62	405.79
552.047	312.17
552.474	291.1
552.9	309.83
553.327	284.08
553.754	342.6
554.18	319.19
554.607	370.68
555.033	309.83
555.459	291.1
555.886	335.57
556.312	351.96
556.738	265.36
557.164	342.6
557.59	351.96
558.016	265.36
558.442	274.72
558.868	295.79
559.294	335.57
559.72	237.27
560.145	328.55
560.571	342.6
560.997	316.85
561.422	354.3
561.848	263.02
562.273	295.79
562.699	223.23
563.124	330.89
563.549	354.3
563.974	281.74
564.4	340.26
564.825	288.76
565.25	333.23
565.675	312.17
566.1	361.32
566.525	361.32
566.95	279.4
567.374	288.76
567.799	300.47
568.224	307.49
568.648	302.81
569.073	270.04
569.497	284.08
569.922	333.23
570.346	302.81
570.771	394.09
571.195	237.27
571.619	314.51
572.043	354.3
572.467	258.34
572.891	295.79
573.315	272.38
573.739	326.21
574.163	270.04
574.587	284.08
575.011	316.85
575.435	380.04
575.858	307.49
576.282	358.98
576.705	305.15
577.129	265.36
577.552	288.76
577.976	349.62
578.399	384.73
578.822	321.53
579.245	319.19
579.669	293.44
580.092	342.6
580.515	319.19
580.938	281.74
581.361	375.36
581.784	328.55
582.206	298.13
582.629	281.74
583.052	314.51
583.474	323.87
583.897	361.32
584.32	288.76
584.742	314.51
585.165	330.89
585.587	274.72
586.009	279.4
586.431	265.36
586.854	312.17
587.276	244.29
587.698	286.42
588.12	321.53
588.542	342.6
588.964	323.87
589.386	272.38
589.807	298.13
590.229	333.23
590.651	274.72
591.073	335.57
591.494	281.74
591.916	316.85
592.337	293.44
592.759	333.23
593.18	321.53
593.601	295.79
594.022	260.68
594.444	291.1
594.865	302.81
595.286	267.7
595.707	279.4
596.128	298.13
596.549	291.1
596.97	347.28
597.39	316.85
597.811	312.17
598.232	260.68
598.652	314.51
599.073	314.51
599.494	241.95
599.914	286.42
600.334	298.13
600.755	330.89
601.175	368.34
601.595	340.26
602.015	387.07
602.436	284.08
602.856	403.45
603.276	295.79
603.696	323.87
604.115	281.74
604.535	286.42
604.955	291.1
605.375	321.53
605.794	312.17
606.214	347.28
606.634	307.49
607.053	342.6
607.473	281.74
607.892	267.7
608.311	281.74
608.731	213.87
609.15	307.49
609.569	286.42
609.988	284.08
610.407	337.91
610.826	284.08
611.245	298.13
611.664	298.13
612.083	323.87
612.501	337.91
612.92	300.47
613.339	326.21
613.757	298.13
614.176	349.62
614.594	305.15
615.013	328.55
615.431	326.21
615.85	312.17
616.268	272.38
616.686	307.49
617.104	314.51
617.522	274.72
617.94	263.02
618.358	258.34
618.776	330.89
619.194	358.98
619.612	328.55
620.03	328.55
620.447	340.26
620.865	263.02
621.282	356.64
621.7	272.38
622.117	309.83
622.535	333.23
622.952	384.73
623.369	277.06
623.787	295.79
624.204	253.66
624.621	293.44
625.038	291.1
625.455	316.85
625.872	307.49
626.289	300.47
626.706	342.6
627.123	225.57
627.539	279.4
627.956	279.4
628.373	361.32
628.789	321.53
629.206	361.32
629.622	335.57
630.038	316.85
630.455	354.3
630.871	361.32
631.287	316.85
631.703	284.08
632.12	288.76
632.536	312.17
632.952	298.13
633.368	307.49
633.783	328.55
634.199	340.26
634.615	281.74
635.031	274.72
635.446	279.4
635.862	286.42
636.277	319.19
636.693	366
637.108	286.42
637.524	312.17
637.939	330.89
638.354	286.42
638.77	323.87
639.185	274.72
639.6	314.51
640.015	295.79
640.43	288.76
640.845	312.17
641.259	248.97
641.674	274.72
642.089	358.98
642.504	270.04
642.918	314.51
643.333	349.62
643.747	328.55
644.162	267.7
644.576	302.81
644.991	330.89
645.405	286.42
645.819	281.74
646.233	316.85
646.647	267.7
647.061	286.42
647.475	316.85
647.889	291.1
648.303	326.21
648.717	298.13
649.131	251.32
649.545	330.89
649.958	337.91
650.372	326.21
650.785	321.53
651.199	326.21
651.612	286.42
652.026	366
652.439	363.66
652.852	319.19
653.266	335.57
653.679	260.68
654.092	277.06
654.505	270.04
654.918	305.15
655.331	377.7
655.744	288.76
656.156	284.08
656.569	344.94
656.982	302.81
657.394	314.51
657.807	288.76
658.22	272.38
658.632	330.89
659.044	347.28
659.457	298.13
659.869	298.13
660.281	263.02
660.693	295.79
661.106	239.61
661.518	335.57
661.93	302.81
662.342	281.74
662.754	260.68
663.165	312.17
663.577	307.49
663.989	323.87
664.401	328.55
664.812	316.85
665.224	328.55
665.635	312.17
666.047	302.81
666.458	309.83
666.869	326.21
667.281	333.23
667.692	309.83
668.103	347.28
668.514	319.19
668.925	321.53
669.336	354.3
669.747	267.7
670.158	258.34
670.569	366
670.979	319.19
671.39	340.26
671.801	326.21
672.211	288.76
672.622	272.38
673.032	314.51
673.443	314.51
673.853	363.66
674.263	312.17
674.674	342.6
675.084	265.36
675.494	344.94
675.904	274.72
676.314	309.83
676.724	298.13
677.134	281.74
677.544	256
677.953	361.32
678.363	291.1
678.773	312.17
679.182	309.83
679.592	291.1
680.001	321.53
680.411	291.1
680.82	281.74
681.23	347.28
681.639	342.6
682.048	314.51
682.457	286.42
682.866	384.73
683.275	291.1
683.684	298.13
684.093	330.89
684.502	284.08
684.911	253.66
685.32	305.15
685.728	382.39
686.137	323.87
686.546	267.7
686.954	323.87
687.363	326.21
687.771	279.4
688.179	265.36
688.588	354.3
688.996	344.94
689.404	298.13
689.812	251.32
690.22	286.42
690.628	387.07
691.036	265.36
691.444	237.27
691.852	274.72
692.26	312.17
692.667	305.15
693.075	295.79
693.483	295.79
693.89	319.19
694.298	356.64
694.705	293.44
695.112	265.36
695.52	288.76
695.927	333.23
696.334	370.68
696.741	295.79
697.148	244.29
697.555	354.3
697.962	307.49
698.369	340.26
698.776	288.76
699.183	305.15
699.59	302.81
699.996	312.17
700.403	244.29
700.81	251.32
701.216	344.94
701.623	337.91
702.029	300.47
702.435	300.47
702.842	265.36
703.248	284.08
703.654	319.19
704.06	267.7
704.466	356.64
704.872	272.38
705.278	337.91
705.684	286.42
706.09	284.08
706.496	314.51
706.901	295.79
707.307	267.7
707.712	307.49
708.118	277.06
708.523	279.4
708.929	293.44
709.334	330.89
709.74	321.53
710.145	321.53
710.55	288.76
710.955	309.83
711.36	319.19
711.765	323.87
712.17	323.87
712.575	316.85
712.98	768.57
713.385	258.34
713.789	260.68
714.194	227.91
714.599	302.81
715.003	277.06
715.408	284.08
715.812	298.13
716.217	300.47
716.621	295.79
717.025	316.85
717.429	258.34
717.833	237.27
718.238	300.47
718.642	312.17
719.046	307.49
719.449	349.62
719.853	286.42
720.257	370.68
720.661	248.97
721.065	284.08
721.468	300.47
721.872	293.44
722.275	298.13
722.679	298.13
723.082	258.34
723.485	234.93
723.889	248.97
724.292	260.68
724.695	330.89
725.098	284.08
725.501	253.66
725.904	326.21
726.307	302.81
726.71	272.38
727.113	300.47
727.516	328.55
727.918	349.62
728.321	277.06
728.724	281.74
729.126	305.15
729.529	319.19
729.931	272.38
730.333	302.81
730.736	281.74
731.138	284.08
731.54	291.1
731.942	281.74
732.344	281.74
732.746	230.25
733.148	286.42
733.55	370.68
733.952	272.38
734.354	272.38
734.756	284.08
735.157	382.39
735.559	232.59
735.96	309.83
736.362	305.15
736.763	267.7
737.165	312.17
737.566	288.76
737.967	244.29
738.368	293.44
738.77	316.85
739.171	356.64
739.572	335.57
739.973	155.35
740.374	323.87
740.774	344.94
741.175	314.51
741.576	302.81
741.977	321.53
742.377	340.26
742.778	293.44
743.178	284.08
743.579	300.47
743.979	319.19
744.379	272.38
744.78	342.6
745.18	323.87
745.58	295.79
745.98	314.51
746.38	314.51
746.78	349.62
747.18	298.13
747.58	270.04
747.98	316.85
748.38	293.44
748.779	277.06
749.179	265.36
749.578	307.49
749.978	307.49
750.377	384.73
750.777	293.44
751.176	309.83
751.575	279.4
751.975	298.13
752.374	314.51
752.773	305.15
753.172	286.42
753.571	302.81
753.97	227.91
754.369	321.53
754.768	307.49
755.166	279.4
755.565	291.1
755.964	286.42
756.362	267.7
756.761	321.53
757.159	312.17
757.558	295.79
757.956	330.89
758.354	321.53
758.753	314.51
759.151	258.34
759.549	274.72
759.947	300.47
760.345	347.28
760.743	302.81
761.141	284.08
761.539	370.68
761.936	342.6
762.334	300.47
762.732	253.66
763.129	225.57
763.527	274.72
763.924	330.89
764.322	314.51
764.719	295.79
765.117	295.79
765.514	323.87
765.911	300.47
766.308	298.13
766.705	223.23
767.102	363.66
767.499	251.32
767.896	337.91
768.293	279.4
768.69	274.72
769.086	312.17
769.483	298.13
769.88	286.42
770.276	274.72
770.673	291.1
771.069	323.87
771.466	321.53
771.862	312.17
772.258	314.51
772.654	333.23
773.05	256
773.447	272.38
773.843	356.64
774.239	260.68
774.634	274.72
775.03	267.7
775.426	333.23
775.822	319.19
776.218	326.21
776.613	319.19
777.009	307.49
777.404	190.46
777.8	314.51
778.195	307.49
778.59	328.55
778.986	326.21
779.381	337.91
779.776	298.13
780.171	241.95
780.566	333.23
780.961	307.49
781.356	291.1
781.751	326.21
782.146	265.36
782.54	368.34
782.935	340.26
783.33	267.7
783.724	302.81
784.119	323.87
784.513	314.51
784.908	323.87
785.302	246.63
785.696	300.47
786.09	265.36
786.485	265.36
786.879	213.87
787.273	258.34
787.667	305.15
788.061	319.19
788.454	309.83
788.848	307.49
789.242	218.55
789.636	335.57
790.029	347.28
790.423	286.42
790.816	293.44
791.21	258.34
791.603	358.98
791.997	309.83
792.39	288.76
792.783	272.38
793.176	279.4
793.569	300.47
793.962	291.1
794.355	246.63
794.748	263.02
795.141	260.68
795.534	309.83
795.927	291.1
796.319	300.47
796.712	225.57
797.105	312.17
797.497	314.51
797.89	277.06
798.282	337.91
798.674	319.19
799.067	206.84
799.459	274.72
799.851	284.08
800.243	281.74
800.635	295.79
801.027	267.7
801.419	277.06
801.811	300.47
802.203	328.55
802.594	326.21
802.986	405.79
803.378	251.32
803.769	300.47
804.161	351.96
804.552	354.3
804.944	328.55
805.335	288.76
805.726	305.15
806.118	340.26
806.509	265.36
806.9	305.15
807.291	312.17
807.682	293.44
808.073	267.7
808.464	333.23
808.855	344.94
809.245	347.28
809.636	300.47
810.027	302.81
810.417	302.81
810.808	302.81
811.198	314.51
811.589	277.06
811.979	300.47
812.369	309.83
812.759	347.28
813.15	288.76
813.54	363.66
813.93	248.97
814.32	361.32
814.71	323.87
815.1	246.63
815.489	270.04
815.879	335.57
816.269	288.76
816.658	307.49
817.048	375.36
817.438	349.62
817.827	302.81
818.216	293.44
818.606	274.72
818.995	323.87
819.384	286.42
819.773	291.1
820.163	291.1
820.552	314.51
820.941	312.17
821.33	396.43
821.718	337.91
822.107	309.83
822.496	349.62
822.885	380.04
823.273	258.34
823.662	225.57
824.05	295.79
824.439	295.79
824.827	358.98
825.216	307.49
825.604	300.47
825.992	321.53
826.38	293.44
826.768	277.06
827.156	326.21
827.544	291.1
827.932	272.38
828.32	248.97
828.708	312.17
829.096	251.32
829.483	258.34
829.871	239.61
830.259	246.63
830.646	277.06
831.034	288.76
831.421	321.53
831.808	256
832.196	220.89
832.583	288.76
832.97	260.68
833.357	333.23
833.744	220.89
834.131	312.17
834.518	316.85
834.905	265.36
835.292	284.08
835.678	284.08
836.065	295.79
836.452	293.44
836.838	305.15
837.225	333.23
837.611	244.29
837.998	270.04
838.384	272.38
838.77	256
839.157	307.49
839.543	267.7
839.929	288.76
840.315	366
840.701	267.7
841.087	349.62
841.473	312.17
841.858	344.94
842.244	295.79
842.63	274.72
843.015	314.51
843.401	356.64
843.787	307.49
844.172	293.44
844.557	309.83
844.943	241.95
845.328	244.29
845.713	335.57
846.098	267.7
846.483	211.53
846.868	237.27
847.253	267.7
847.638	241.95
848.023	274.72
848.408	284.08
848.793	253.66
849.177	241.95
849.562	321.53
849.947	333.23
850.331	267.7
850.715	263.02
851.1	316.85
851.484	248.97
851.868	293.44
852.253	349.62
852.637	309.83
853.021	335.57
853.405	316.85
853.789	277.06
854.173	300.47
854.557	286.42
854.94	330.89
855.324	349.62
855.708	307.49
856.091	248.97
856.475	298.13
856.858	309.83
857.242	366
857.625	237.27
858.009	410.47
858.392	246.63
858.775	305.15
859.158	239.61
859.541	305.15
859.924	270.04
860.307	286.42
860.69	284.08
861.073	293.44
861.456	340.26
861.838	284.08
862.221	265.36
862.604	263.02
862.986	286.42
863.369	300.47
863.751	295.79
864.133	286.42
864.516	291.1
864.898	274.72
865.28	337.91
865.662	284.08
866.044	302.81
866.426	319.19
866.808	323.87
867.19	263.02
867.572	305.15
867.954	263.02
868.336	286.42
868.717	270.04
869.099	281.74
869.48	321.53
869.862	347.28
870.243	307.49
870.625	335.57
871.006	286.42
871.387	309.83
871.768	333.23
872.149	302.81
872.53	307.49
872.911	279.4
873.292	244.29
873.673	302.81
874.054	314.51
874.435	298.13
874.815	335.57
875.196	300.47
875.577	286.42
875.957	340.26
876.338	330.89
876.718	349.62
877.098	277.06
877.479	335.57
877.859	328.55
878.239	281.74
878.619	300.47
878.999	293.44
879.379	330.89
879.759	244.29
880.139	314.51
880.519	319.19
880.898	347.28
881.278	295.79
881.658	305.15
882.037	349.62
882.417	267.7
882.796	272.38
883.176	293.44
883.555	293.44
883.934	239.61
884.313	284.08
884.693	286.42
885.072	291.1
885.451	291.1
885.83	209.19
886.209	342.6
886.587	293.44
886.966	272.38
887.345	258.34
887.724	305.15
888.102	307.49
888.481	300.47
888.859	258.34
889.238	232.59
889.616	307.49
889.994	274.72
890.373	342.6
890.751	279.4
891.129	312.17
891.507	298.13
891.885	300.47
892.263	340.26
892.641	251.32
893.019	281.74
893.396	256
893.774	267.7
894.152	347.28
894.529	358.98
894.907	333.23
895.284	295.79
895.662	354.3
896.039	309.83
896.416	328.55
896.794	265.36
897.171	298.13
897.548	260.68
897.925	281.74
898.302	319.19
898.679	239.61
899.056	307.49
899.433	307.49
899.809	333.23
900.186	319.19
900.563	232.59
900.939	335.57
901.316	260.68
901.692	298.13
902.069	258.34
902.445	288.76
902.821	335.57
903.197	260.68
903.574	293.44
903.95	405.79
904.326	265.36
904.702	227.91
905.078	312.17
905.454	272.38
905.829	328.55
906.205	314.51
906.581	319.19
906.956	258.34
907.332	300.47
907.707	234.93
908.083	241.95
908.458	291.1
908.833	260.68
909.209	314.51
909.584	281.74
909.959	270.04
910.334	267.7
910.709	316.85
911.084	270.04
911.459	267.7
911.834	284.08
912.209	284.08
912.583	340.26
912.958	270.04
913.333	307.49
913.707	314.51
914.082	351.96
914.456	263.02
914.83	298.13
915.205	330.89
915.579	321.53
915.953	251.32
916.327	286.42
916.701	260.68
917.075	281.74
917.449	267.7
917.823	316.85
918.197	288.76
918.571	288.76
918.944	281.74
919.318	326.21
919.692	260.68
920.065	227.91
920.438	284.08
920.812	263.02
921.185	293.44
921.558	274.72
921.932	225.57
922.305	277.06
922.678	291.1
923.051	267.7
923.424	272.38
923.797	314.51
924.17	335.57
924.542	319.19
924.915	340.26
925.288	300.47
925.661	335.57
926.033	326.21
926.406	347.28
926.778	267.7
927.15	328.55
927.523	251.32
927.895	213.87
928.267	258.34
928.639	340.26
929.011	291.1
929.383	223.23
929.755	279.4
930.127	307.49
930.499	272.38
930.871	267.7
931.242	237.27
931.614	256
931.986	349.62
932.357	305.15
932.729	241.95
933.1	300.47
933.471	253.66
933.843	216.21
934.214	377.7
934.585	270.04
934.956	323.87
935.327	309.83
935.698	347.28
936.069	305.15
936.44	302.81
936.811	256
937.182	272.38
937.552	286.42
937.923	293.44
938.293	328.55
938.664	309.83
939.034	248.97
939.405	302.81
939.775	248.97
940.145	281.74
940.516	337.91
940.886	312.17
941.256	323.87
941.626	284.08
941.996	328.55
942.366	323.87
942.735	319.19
943.105	302.81
943.475	323.87
943.845	272.38
944.214	298.13
944.584	333.23
944.953	277.06
945.323	293.44
945.692	356.64
946.061	326.21
946.43	307.49
946.8	330.89
947.169	309.83
947.538	220.89
947.907	274.72
948.276	284.08
948.645	286.42
949.013	253.66
949.382	293.44
949.751	239.61
950.119	239.61
950.488	270.04
950.857	333.23
951.225	305.15
951.593	298.13
951.962	344.94
952.33	312.17
952.698	307.49
953.066	293.44
953.434	312.17
953.802	330.89
954.17	314.51
954.538	349.62
954.906	286.42
955.274	319.19
955.642	248.97
956.009	270.04
956.377	248.97
956.744	279.4
957.112	323.87
957.479	279.4
957.847	279.4
958.214	330.89
958.581	293.44
958.948	298.13
959.315	270.04
959.683	335.57
960.05	305.15
960.416	272.38
960.783	279.4
961.15	293.44
961.517	241.95
961.884	256
962.25	300.47
962.617	279.4
962.983	309.83
963.35	312.17
963.716	328.55
964.082	342.6
964.449	330.89
964.815	323.87
965.181	333.23
965.547	305.15
965.913	298.13
966.279	300.47
966.645	312.17
967.011	363.66
967.377	302.81
967.742	293.44
968.108	277.06
968.474	337.91
968.839	288.76
969.205	319.19
969.57	328.55
969.935	321.53
970.301	351.96
970.666	391.75
971.031	333.23
971.396	342.6
971.761	272.38
972.126	312.17
972.491	288.76
972.856	349.62
973.221	307.49
973.586	244.29
973.95	361.32
974.315	274.72
974.679	272.38
975.044	307.49
975.408	277.06
975.773	382.39
976.137	380.04
976.501	286.42
976.866	321.53
977.23	256
977.594	335.57
977.958	312.17
978.322	321.53
978.686	337.91
979.049	291.1
979.413	270.04
979.777	206.84
980.141	234.93
980.504	295.79
980.868	248.97
981.231	330.89
981.595	300.47
981.958	291.1
982.321	321.53
982.684	307.49
983.048	305.15
983.411	384.73
983.774	281.74
984.137	295.79
984.5	326.21
984.862	246.63
985.225	309.83
985.588	267.7
985.951	344.94
986.313	288.76
986.676	272.38
987.038	267.7
987.401	340.26
987.763	251.32
988.125	270.04
988.488	305.15
988.85	312.17
989.212	305.15
989.574	265.36
989.936	274.72
990.298	288.76
990.66	366
991.022	330.89
991.383	286.42
991.745	300.47
992.107	298.13
992.468	328.55
992.83	305.15
993.191	293.44
993.553	314.51
993.914	274.72
994.275	328.55
994.637	387.07
994.998	351.96
995.359	302.81
995.72	309.83
996.081	258.34
996.442	384.73
996.803	284.08
997.163	323.87
997.524	309.83
997.885	288.76
998.245	277.06
998.606	258.34
998.966	260.68
999.327	267.7
999.687	316.85
1000.047	377.7
1000.408	340.26
1000.768	274.72
1001.128	237.27
1001.488	256
1001.848	337.91
1002.208	277.06
1002.568	263.02
1002.927	347.28
1003.287	239.61
1003.647	361.32
1004.007	373.02
1004.366	342.6
1004.726	220.89
1005.085	298.13
1005.444	326.21
1005.804	293.44
1006.163	326.21
1006.522	302.81
1006.881	335.57
1007.24	251.32
1007.599	314.51
1007.958	265.36
1008.317	281.74
1008.676	256
1009.035	307.49
1009.393	288.76
1009.752	314.51
1010.111	244.29
1010.469	314.51
1010.828	270.04
1011.186	316.85
1011.544	284.08
1011.903	300.47
1012.261	279.4
1012.619	335.57
1012.977	232.59
1013.335	342.6
1013.693	319.19
1014.051	326.21
1014.409	312.17
1014.767	256
1015.124	195.14
1015.482	234.93
1015.84	218.55
1016.197	319.19
1016.555	291.1
1016.912	274.72
1017.269	272.38
1017.627	291.1
1017.984	263.02
1018.341	314.51
1018.698	323.87
1019.055	309.83
1019.412	291.1
1019.769	309.83
1020.126	316.85
1020.483	284.08
1020.84	244.29
1021.196	342.6
1021.553	300.47
1021.909	326.21
1022.266	281.74
1022.622	239.61
1022.979	316.85
1023.335	351.96
1023.691	288.76
1024.047	281.74
1024.404	335.57
1024.76	288.76
1025.116	270.04
1025.472	279.4
1025.827	267.7
1026.183	340.26
1026.539	256
1026.895	279.4
1027.25	377.7
1027.606	321.53
1027.961	309.83
1028.317	351.96
1028.672	232.59
1029.028	277.06
1029.383	305.15
1029.738	300.47
1030.093	265.36
1030.448	256
1030.803	241.95
1031.158	256
1031.513	267.7
1031.868	281.74
1032.223	220.89
1032.577	335.57
1032.932	272.38
1033.287	288.76
1033.641	361.32
1033.996	274.72
1034.35	246.63
1034.704	286.42
1035.059	335.57
1035.413	288.76
1035.767	288.76
1036.121	288.76
