Data from Al_FLMS009871__759__15-15-03-826.txt Node

Date: Fri Mar 08 15:15:03 CST 2024
User: pe5414po
Spectrometer: FLMS00987
Trigger mode: 0
Integration Time (sec): 1.000000E-1
Scans to average: 1
Electric dark correction enabled: true
Nonlinearity correction enabled: false
Boxcar width: 0
XAxis mode: Wavelengths
Number of Pixels in Spectrum: 2048
>>>>>Begin Spectral Data<<<<<
188.938	-108.54
189.409	-108.54
189.879	-108.54
190.349	-47.69
190.819	-148.33
191.29	-92.16
191.76	-129.61
192.23	-75.77
192.7	-117.9
193.17	-71.09
193.64	-19.6
194.109	-5.56
194.579	-94.5
195.049	-45.35
195.519	57.64
195.988	78.7
196.458	104.45
196.927	111.47
197.397	74.02
197.866	125.51
198.336	99.77
198.805	153.6
199.274	144.24
199.744	139.55
200.213	188.71
200.682	169.98
201.151	207.43
201.62	240.2
202.089	191.05
202.558	219.13
203.027	233.18
203.495	298.71
203.964	240.2
204.433	287.01
204.902	235.52
205.37	265.94
205.839	279.99
206.307	272.96
206.776	249.56
207.244	228.49
207.712	198.07
208.181	251.9
208.649	279.99
209.117	282.33
209.585	305.73
210.053	270.62
210.521	345.52
210.989	233.18
211.457	294.03
211.925	235.52
212.393	261.26
212.861	251.9
213.328	242.54
213.796	216.79
214.264	294.03
214.731	233.18
215.199	237.86
215.666	228.49
216.133	270.62
216.601	212.11
217.068	209.77
217.535	254.24
218.003	287.01
218.47	242.54
218.937	244.88
219.404	258.92
219.871	270.62
220.338	258.92
220.805	219.13
221.271	223.81
221.738	188.71
222.205	256.58
222.671	305.73
223.138	216.79
223.605	294.03
224.071	275.31
224.538	263.6
225.004	361.91
225.47	214.45
225.937	193.39
226.403	296.37
226.869	237.86
227.335	240.2
227.801	284.67
228.267	268.28
228.733	272.96
229.199	305.73
229.665	268.28
230.131	174.66
230.597	226.15
231.062	209.77
231.528	296.37
231.994	329.14
232.459	277.65
232.925	242.54
233.39	258.92
233.856	277.65
234.321	256.58
234.786	287.01
235.252	284.67
235.717	226.15
236.182	216.79
236.647	249.56
237.112	254.24
237.577	221.47
238.042	303.39
238.507	265.94
238.972	272.96
239.436	303.39
239.901	296.37
240.366	310.41
240.83	301.05
241.295	228.49
241.76	268.28
242.224	268.28
242.688	265.94
243.153	298.71
243.617	198.07
244.081	296.37
244.545	272.96
245.01	212.11
245.474	209.77
245.938	289.35
246.402	254.24
246.866	256.58
247.33	268.28
247.793	310.41
248.257	247.22
248.721	251.9
249.185	235.52
249.648	305.73
250.112	275.31
250.575	249.56
251.039	251.9
251.502	237.86
251.965	319.78
252.429	282.33
252.892	268.28
253.355	214.45
253.818	254.24
254.281	284.67
254.744	275.31
255.207	244.88
255.67	294.03
256.133	312.75
256.596	235.52
257.059	268.28
257.522	242.54
257.984	221.47
258.447	287.01
258.909	251.9
259.372	212.11
259.834	228.49
260.297	235.52
260.759	254.24
261.221	261.26
261.684	296.37
262.146	254.24
262.608	294.03
263.07	265.94
263.532	294.03
263.994	287.01
264.456	322.12
264.918	226.15
265.38	287.01
265.842	258.92
266.303	296.37
266.765	324.46
267.227	294.03
267.688	291.69
268.15	254.24
268.611	296.37
269.072	230.84
269.534	258.92
269.995	331.48
270.456	303.39
270.918	291.69
271.379	310.41
271.84	244.88
272.301	221.47
272.762	404.03
273.223	265.94
273.684	251.9
274.144	265.94
274.605	240.2
275.066	289.35
275.527	287.01
275.987	284.67
276.448	244.88
276.908	240.2
277.369	294.03
277.829	244.88
278.289	272.96
278.75	312.75
279.21	301.05
279.67	319.78
280.13	265.94
280.59	303.39
281.05	263.6
281.51	289.35
281.97	270.62
282.43	254.24
282.89	287.01
283.35	251.9
283.809	251.9
284.269	261.26
284.729	275.31
285.188	221.47
285.648	265.94
286.107	331.48
286.567	265.94
287.026	277.65
287.485	287.01
287.944	287.01
288.404	329.14
288.863	296.37
289.322	352.54
289.781	343.18
290.24	277.65
290.699	279.99
291.158	305.73
291.616	319.78
292.075	272.96
292.534	287.01
292.992	289.35
293.451	361.91
293.91	237.86
294.368	251.9
294.827	272.96
295.285	298.71
295.743	329.14
296.202	268.28
296.66	350.2
297.118	247.22
297.576	340.84
298.034	322.12
298.492	291.69
298.95	287.01
299.408	230.84
299.866	329.14
300.324	287.01
300.781	261.26
301.239	296.37
301.697	301.05
302.154	275.31
302.612	277.65
303.069	303.39
303.527	226.15
303.984	247.22
304.441	305.73
304.899	244.88
305.356	282.33
305.813	247.22
306.27	301.05
306.727	291.69
307.184	251.9
307.641	284.67
308.098	258.92
308.555	289.35
309.012	284.67
309.468	247.22
309.925	268.28
310.382	249.56
310.838	289.35
311.295	263.6
311.751	282.33
312.208	244.88
312.664	249.56
313.12	354.88
313.577	308.07
314.033	265.94
314.489	256.58
314.945	258.92
315.401	289.35
315.857	378.29
316.313	258.92
316.769	268.28
317.225	272.96
317.681	354.88
318.136	319.78
318.592	296.37
319.048	277.65
319.503	322.12
319.959	279.99
320.414	219.13
320.869	301.05
321.325	226.15
321.78	301.05
322.235	294.03
322.691	319.78
323.146	294.03
323.601	284.67
324.056	284.67
324.511	272.96
324.966	345.52
325.421	263.6
325.875	305.73
326.33	277.65
326.785	251.9
327.24	279.99
327.694	270.62
328.149	282.33
328.603	366.59
329.058	279.99
329.512	317.44
329.966	336.16
330.421	284.67
330.875	336.16
331.329	284.67
331.783	354.88
332.237	270.62
332.691	305.73
333.145	251.9
333.599	305.73
334.053	289.35
334.507	279.99
334.96	301.05
335.414	336.16
335.868	310.41
336.321	298.71
336.775	303.39
337.228	382.97
337.682	298.71
338.135	265.94
338.588	312.75
339.042	352.54
339.495	237.86
339.948	275.31
340.401	310.41
340.854	296.37
341.307	263.6
341.76	272.96
342.213	333.82
342.666	294.03
343.119	324.46
343.571	364.25
344.024	251.9
344.477	277.65
344.929	263.6
345.382	287.01
345.834	275.31
346.287	294.03
346.739	319.78
347.191	312.75
347.644	315.09
348.096	258.92
348.548	319.78
349	233.18
349.452	221.47
349.904	287.01
350.356	366.59
350.808	340.84
351.26	242.54
351.711	305.73
352.163	305.73
352.615	270.62
353.066	226.15
353.518	308.07
353.969	310.41
354.421	296.37
354.872	294.03
355.324	317.44
355.775	303.39
356.226	308.07
356.677	329.14
357.128	324.46
357.579	284.67
358.03	310.41
358.481	336.16
358.932	326.8
359.383	296.37
359.834	272.96
360.285	322.12
360.735	265.94
361.186	298.71
361.637	329.14
362.087	284.67
362.538	324.46
362.988	310.41
363.438	251.9
363.889	284.67
364.339	272.96
364.789	188.71
365.239	294.03
365.689	284.67
366.139	272.96
366.589	303.39
367.039	265.94
367.489	272.96
367.939	296.37
368.389	289.35
368.839	291.69
369.288	310.41
369.738	294.03
370.187	357.22
370.637	322.12
371.086	228.49
371.536	298.71
371.985	268.28
372.434	298.71
372.884	249.56
373.333	291.69
373.782	256.58
374.231	305.73
374.68	294.03
375.129	277.65
375.578	289.35
376.027	277.65
376.475	277.65
376.924	324.46
377.373	296.37
377.822	294.03
378.27	319.78
378.719	352.54
379.167	291.69
379.616	301.05
380.064	296.37
380.512	242.54
380.961	268.28
381.409	359.56
381.857	350.2
382.305	272.96
382.753	317.44
383.201	329.14
383.649	319.78
384.097	287.01
384.545	251.9
384.992	322.12
385.44	336.16
385.888	294.03
386.335	305.73
386.783	373.61
387.231	315.09
387.678	265.94
388.125	244.88
388.573	333.82
389.02	233.18
389.467	287.01
389.914	258.92
390.362	322.12
390.809	272.96
391.256	294.03
391.703	282.33
392.15	301.05
392.596	291.69
393.043	279.99
393.49	287.01
393.937	251.9
394.383	265.94
394.83	354.88
395.276	345.52
395.723	319.78
396.169	303.39
396.616	268.28
397.062	294.03
397.508	284.67
397.954	322.12
398.401	343.18
398.847	366.59
399.293	338.5
399.739	287.01
400.185	338.5
400.631	319.78
401.076	275.31
401.522	345.52
401.968	343.18
402.414	298.71
402.859	340.84
403.305	291.69
403.75	340.84
404.196	272.96
404.641	261.26
405.086	305.73
405.532	308.07
405.977	329.14
406.422	298.71
406.867	242.54
407.312	324.46
407.757	294.03
408.202	340.84
408.647	336.16
409.092	364.25
409.537	277.65
409.982	277.65
410.426	315.09
410.871	322.12
411.316	284.67
411.76	291.69
412.205	329.14
412.649	338.5
413.093	347.86
413.538	263.6
413.982	308.07
414.426	294.03
414.87	237.86
415.314	350.2
415.758	284.67
416.202	308.07
416.646	287.01
417.09	301.05
417.534	329.14
417.978	263.6
418.421	242.54
418.865	235.52
419.309	340.84
419.752	336.16
420.196	298.71
420.639	256.58
421.083	331.48
421.526	272.96
421.969	298.71
422.412	261.26
422.856	258.92
423.299	333.82
423.742	265.94
424.185	289.35
424.628	270.62
425.071	329.14
425.513	324.46
425.956	310.41
426.399	284.67
426.842	382.97
427.284	350.2
427.727	310.41
428.169	256.58
428.612	258.92
429.054	345.52
429.497	268.28
429.939	284.67
430.381	324.46
430.823	272.96
431.265	322.12
431.707	272.96
432.149	347.86
432.591	254.24
433.033	317.44
433.475	291.69
433.917	308.07
434.359	354.88
434.8	317.44
435.242	308.07
435.684	322.12
436.125	289.35
436.567	326.8
437.008	279.99
437.449	279.99
437.891	329.14
438.332	247.22
438.773	256.58
439.214	322.12
439.656	359.56
440.097	279.99
440.538	310.41
440.978	333.82
441.419	301.05
441.86	324.46
442.301	279.99
442.742	303.39
443.182	371.27
443.623	322.12
444.063	324.46
444.504	294.03
444.944	324.46
445.385	301.05
445.825	296.37
446.265	324.46
446.706	338.5
447.146	268.28
447.586	284.67
448.026	357.22
448.466	254.24
448.906	345.52
449.346	305.73
449.786	329.14
450.225	233.18
450.665	322.12
451.105	312.75
451.544	338.5
451.984	354.88
452.424	336.16
452.863	277.65
453.302	310.41
453.742	312.75
454.181	294.03
454.62	294.03
455.059	272.96
455.499	331.48
455.938	287.01
456.377	315.09
456.816	287.01
457.254	312.75
457.693	333.82
458.132	357.22
458.571	357.22
459.01	310.41
459.448	305.73
459.887	305.73
460.325	312.75
460.764	233.18
461.202	331.48
461.641	319.78
462.079	347.86
462.517	301.05
462.955	265.94
463.393	263.6
463.832	294.03
464.27	308.07
464.708	345.52
465.145	315.09
465.583	265.94
466.021	272.96
466.459	275.31
466.897	303.39
467.334	287.01
467.772	235.52
468.209	289.35
468.647	291.69
469.084	347.86
469.522	319.78
469.959	289.35
470.396	345.52
470.833	265.94
471.271	289.35
471.708	275.31
472.145	392.33
472.582	289.35
473.019	343.18
473.456	308.07
473.892	291.69
474.329	294.03
474.766	322.12
475.202	282.33
475.639	294.03
476.076	340.84
476.512	343.18
476.949	244.88
477.385	298.71
477.821	272.96
478.258	301.05
478.694	249.56
479.13	265.94
479.566	359.56
480.002	294.03
480.438	317.44
480.874	315.09
481.31	263.6
481.746	263.6
482.181	315.09
482.617	265.94
483.053	296.37
483.488	303.39
483.924	312.75
484.36	347.86
484.795	361.91
485.23	333.82
485.666	305.73
486.101	310.41
486.536	298.71
486.971	357.22
487.407	319.78
487.842	287.01
488.277	298.71
488.712	308.07
489.146	298.71
489.581	322.12
490.016	338.5
490.451	340.84
490.885	336.16
491.32	322.12
491.755	343.18
492.189	279.99
492.624	291.69
493.058	275.31
493.492	389.99
493.927	226.15
494.361	331.48
494.795	322.12
495.229	263.6
495.663	366.59
496.097	345.52
496.531	319.78
496.965	296.37
497.399	345.52
497.833	322.12
498.266	303.39
498.7	317.44
499.134	291.69
499.567	312.75
500.001	375.95
500.434	291.69
500.868	326.8
501.301	350.2
501.734	258.92
502.168	373.61
502.601	359.56
503.034	289.35
503.467	296.37
503.9	315.09
504.333	256.58
504.766	296.37
505.199	354.88
505.632	329.14
506.064	315.09
506.497	329.14
506.93	287.01
507.362	298.71
507.795	265.94
508.227	277.65
508.66	382.97
509.092	352.54
509.524	303.39
509.956	268.28
510.389	272.96
510.821	298.71
511.253	319.78
511.685	258.92
512.117	268.28
512.549	298.71
512.981	289.35
513.412	294.03
513.844	319.78
514.276	287.01
514.707	308.07
515.139	298.71
515.571	315.09
516.002	303.39
516.433	301.05
516.865	326.8
517.296	261.26
517.727	249.56
518.159	296.37
518.59	350.2
519.021	303.39
519.452	317.44
519.883	310.41
520.314	329.14
520.744	272.96
521.175	329.14
521.606	270.62
522.037	312.75
522.467	345.52
522.898	256.58
523.328	237.86
523.759	279.99
524.189	291.69
524.62	275.31
525.05	277.65
525.48	319.78
525.91	294.03
526.341	336.16
526.771	272.96
527.201	338.5
527.631	242.54
528.061	338.5
528.49	275.31
528.92	289.35
529.35	326.8
529.78	308.07
530.209	284.67
530.639	324.46
531.068	294.03
531.498	336.16
531.927	294.03
532.357	301.05
532.786	324.46
533.215	240.2
533.644	279.99
534.074	240.2
534.503	289.35
534.932	343.18
535.361	287.01
535.79	289.35
536.218	268.28
536.647	298.71
537.076	296.37
537.505	333.82
537.933	317.44
538.362	389.99
538.79	303.39
539.219	319.78
539.647	347.86
540.076	261.26
540.504	272.96
540.932	357.22
541.36	387.65
541.788	345.52
542.217	345.52
542.645	228.49
543.073	256.58
543.5	352.54
543.928	308.07
544.356	298.71
544.784	258.92
545.211	287.01
545.639	315.09
546.067	289.35
546.494	326.8
546.922	315.09
547.349	258.92
547.776	305.73
548.204	340.84
548.631	219.13
549.058	244.88
549.485	254.24
549.912	324.46
550.339	352.54
550.766	357.22
551.193	303.39
551.62	340.84
552.047	296.37
552.474	319.78
552.9	326.8
553.327	310.41
553.754	282.33
554.18	333.82
554.607	345.52
555.033	242.54
555.459	345.52
555.886	233.18
556.312	343.18
556.738	289.35
557.164	279.99
557.59	340.84
558.016	294.03
558.442	319.78
558.868	251.9
559.294	368.93
559.72	329.14
560.145	315.09
560.571	331.48
560.997	294.03
561.422	235.52
561.848	317.44
562.273	319.78
562.699	272.96
563.124	296.37
563.549	373.61
563.974	284.67
564.4	303.39
564.825	308.07
565.25	361.91
565.675	298.71
566.1	240.2
566.525	361.91
566.95	275.31
567.374	216.79
567.799	312.75
568.224	310.41
568.648	352.54
569.073	296.37
569.497	251.9
569.922	296.37
570.346	261.26
570.771	338.5
571.195	272.96
571.619	326.8
572.043	240.2
572.467	326.8
572.891	331.48
573.315	279.99
573.739	294.03
574.163	315.09
574.587	303.39
575.011	310.41
575.435	326.8
575.858	333.82
576.282	366.59
576.705	329.14
577.129	265.94
577.552	289.35
577.976	282.33
578.399	237.86
578.822	219.13
579.245	287.01
579.669	336.16
580.092	284.67
580.515	301.05
580.938	315.09
581.361	357.22
581.784	265.94
582.206	291.69
582.629	317.44
583.052	272.96
583.474	312.75
583.897	301.05
584.32	298.71
584.742	289.35
585.165	331.48
585.587	324.46
586.009	312.75
586.431	284.67
586.854	294.03
587.276	287.01
587.698	315.09
588.12	282.33
588.542	301.05
588.964	282.33
589.386	296.37
589.807	319.78
590.229	326.8
590.651	298.71
591.073	308.07
591.494	329.14
591.916	350.2
592.337	298.71
592.759	279.99
593.18	322.12
593.601	312.75
594.022	310.41
594.444	298.71
594.865	261.26
595.286	347.86
595.707	249.56
596.128	331.48
596.549	322.12
596.97	237.86
597.39	326.8
597.811	310.41
598.232	282.33
598.652	301.05
599.073	287.01
599.494	350.2
599.914	336.16
600.334	247.22
600.755	247.22
601.175	310.41
601.595	277.65
602.015	284.67
602.436	296.37
602.856	413.4
603.276	312.75
603.696	338.5
604.115	338.5
604.535	305.73
604.955	279.99
605.375	272.96
605.794	279.99
606.214	265.94
606.634	301.05
607.053	308.07
607.473	298.71
607.892	303.39
608.311	310.41
608.731	308.07
609.15	322.12
609.569	209.77
609.988	202.75
610.407	322.12
610.826	350.2
611.245	305.73
611.664	301.05
612.083	272.96
612.501	268.28
612.92	319.78
613.339	287.01
613.757	284.67
614.176	275.31
614.594	277.65
615.013	308.07
615.431	357.22
615.85	315.09
616.268	315.09
616.686	254.24
617.104	326.8
617.522	284.67
617.94	287.01
618.358	277.65
618.776	289.35
619.194	326.8
619.612	315.09
620.03	305.73
620.447	296.37
620.865	364.25
621.282	279.99
621.7	296.37
622.117	315.09
622.535	319.78
622.952	228.49
623.369	298.71
623.787	268.28
624.204	254.24
624.621	242.54
625.038	277.65
625.455	364.25
625.872	324.46
626.289	308.07
626.706	237.86
627.123	329.14
627.539	261.26
627.956	282.33
628.373	242.54
628.789	343.18
629.206	308.07
629.622	308.07
630.038	298.71
630.455	298.71
630.871	296.37
631.287	345.52
631.703	265.94
632.12	284.67
632.536	317.44
632.952	310.41
633.368	336.16
633.783	287.01
634.199	305.73
634.615	340.84
635.031	317.44
635.446	308.07
635.862	347.86
636.277	347.86
636.693	268.28
637.108	279.99
637.524	350.2
637.939	326.8
638.354	294.03
638.77	352.54
639.185	317.44
639.6	324.46
640.015	336.16
640.43	287.01
640.845	244.88
641.259	265.94
641.674	305.73
642.089	373.61
642.504	319.78
642.918	289.35
643.333	291.69
643.747	291.69
644.162	326.8
644.576	336.16
644.991	251.9
645.405	275.31
645.819	242.54
646.233	322.12
646.647	317.44
647.061	270.62
647.475	263.6
647.889	312.75
648.303	287.01
648.717	331.48
649.131	345.52
649.545	336.16
649.958	254.24
650.372	357.22
650.785	333.82
651.199	294.03
651.612	289.35
652.026	308.07
652.439	294.03
652.852	315.09
653.266	305.73
653.679	247.22
654.092	294.03
654.505	329.14
654.918	258.92
655.331	291.69
655.744	282.33
656.156	305.73
656.569	251.9
656.982	301.05
657.394	317.44
657.807	392.33
658.22	310.41
658.632	317.44
659.044	308.07
659.457	340.84
659.869	345.52
660.281	308.07
660.693	256.58
661.106	336.16
661.518	324.46
661.93	336.16
662.342	289.35
662.754	305.73
663.165	200.41
663.577	291.69
663.989	359.56
664.401	270.62
664.812	296.37
665.224	277.65
665.635	265.94
666.047	287.01
666.458	289.35
666.869	277.65
667.281	258.92
667.692	296.37
668.103	333.82
668.514	317.44
668.925	333.82
669.336	277.65
669.747	296.37
670.158	324.46
670.569	289.35
670.979	272.96
671.39	258.92
671.801	258.92
672.211	235.52
672.622	275.31
673.032	331.48
673.443	357.22
673.853	422.76
674.263	294.03
674.674	347.86
675.084	277.65
675.494	308.07
675.904	275.31
676.314	296.37
676.724	354.88
677.134	277.65
677.544	308.07
677.953	287.01
678.363	352.54
678.773	364.25
679.182	249.56
679.592	261.26
680.001	282.33
680.411	371.27
680.82	308.07
681.23	333.82
681.639	340.84
682.048	322.12
682.457	287.01
682.866	279.99
683.275	296.37
683.684	240.2
684.093	244.88
684.502	319.78
684.911	317.44
685.32	324.46
685.728	277.65
686.137	350.2
686.546	326.8
686.954	336.16
687.363	240.2
687.771	315.09
688.179	305.73
688.588	251.9
688.996	275.31
689.404	287.01
689.812	371.27
690.22	310.41
690.628	303.39
691.036	394.67
691.444	324.46
691.852	291.69
692.26	247.22
692.667	380.63
693.075	312.75
693.483	357.22
693.89	261.26
694.298	291.69
694.705	301.05
695.112	291.69
695.52	354.88
695.927	336.16
696.334	322.12
696.741	317.44
697.148	261.26
697.555	242.54
697.962	340.84
698.369	277.65
698.776	326.8
699.183	251.9
699.59	340.84
699.996	329.14
700.403	282.33
700.81	317.44
701.216	317.44
701.623	305.73
702.029	336.16
702.435	233.18
702.842	336.16
703.248	345.52
703.654	287.01
704.06	312.75
704.466	331.48
704.872	331.48
705.278	336.16
705.684	287.01
706.09	249.56
706.496	301.05
706.901	319.78
707.307	298.71
707.712	324.46
708.118	301.05
708.523	331.48
708.929	312.75
709.334	294.03
709.74	301.05
710.145	284.67
710.55	226.15
710.955	333.82
711.36	268.28
711.765	270.62
712.17	343.18
712.575	354.88
712.98	834.69
713.385	310.41
713.789	284.67
714.194	301.05
714.599	331.48
715.003	256.58
715.408	265.94
715.812	310.41
716.217	354.88
716.621	263.6
717.025	287.01
717.429	272.96
717.833	284.67
718.238	251.9
718.642	251.9
719.046	268.28
719.449	326.8
719.853	310.41
720.257	340.84
720.661	350.2
721.065	305.73
721.468	354.88
721.872	294.03
722.275	301.05
722.679	329.14
723.082	258.92
723.485	261.26
723.889	268.28
724.292	205.09
724.695	308.07
725.098	291.69
725.501	308.07
725.904	310.41
726.307	322.12
726.71	345.52
727.113	279.99
727.516	359.56
727.918	340.84
728.321	287.01
728.724	331.48
729.126	322.12
729.529	310.41
729.931	291.69
730.333	338.5
730.736	305.73
731.138	301.05
731.54	284.67
731.942	312.75
732.344	237.86
732.746	282.33
733.148	336.16
733.55	361.91
733.952	272.96
734.354	305.73
734.756	284.67
735.157	298.71
735.559	287.01
735.96	340.84
736.362	305.73
736.763	263.6
737.165	336.16
737.566	287.01
737.967	324.46
738.368	357.22
738.77	336.16
739.171	261.26
739.572	291.69
739.973	287.01
740.374	289.35
740.774	312.75
741.175	279.99
741.576	308.07
741.977	301.05
742.377	200.41
742.778	324.46
743.178	289.35
743.579	265.94
743.979	275.31
744.379	258.92
744.78	352.54
745.18	289.35
745.58	347.86
745.98	357.22
746.38	221.47
746.78	338.5
747.18	284.67
747.58	326.8
747.98	326.8
748.38	258.92
748.779	373.61
749.179	324.46
749.578	270.62
749.978	298.71
750.377	221.47
750.777	317.44
751.176	338.5
751.575	242.54
751.975	350.2
752.374	268.28
752.773	303.39
753.172	298.71
753.571	247.22
753.97	357.22
754.369	301.05
754.768	338.5
755.166	261.26
755.565	268.28
755.964	289.35
756.362	242.54
756.761	284.67
757.159	340.84
757.558	287.01
757.956	251.9
758.354	336.16
758.753	249.56
759.151	333.82
759.549	268.28
759.947	294.03
760.345	326.8
760.743	272.96
761.141	310.41
761.539	310.41
761.936	301.05
762.334	322.12
762.732	251.9
763.129	340.84
763.527	326.8
763.924	284.67
764.322	310.41
764.719	284.67
765.117	268.28
765.514	303.39
765.911	235.52
766.308	308.07
766.705	282.33
767.102	366.59
767.499	287.01
767.896	279.99
768.293	326.8
768.69	331.48
769.086	279.99
769.483	272.96
769.88	317.44
770.276	294.03
770.673	305.73
771.069	317.44
771.466	265.94
771.862	317.44
772.258	263.6
772.654	347.86
773.05	298.71
773.447	282.33
773.843	312.75
774.239	336.16
774.634	326.8
775.03	270.62
775.426	364.25
775.822	305.73
776.218	261.26
776.613	219.13
777.009	294.03
777.404	294.03
777.8	371.27
778.195	312.75
778.59	310.41
778.986	329.14
779.381	282.33
779.776	277.65
780.171	277.65
780.566	223.81
780.961	340.84
781.356	279.99
781.751	277.65
782.146	352.54
782.54	308.07
782.935	287.01
783.33	228.49
783.724	301.05
784.119	277.65
784.513	317.44
784.908	333.82
785.302	301.05
785.696	256.58
786.09	244.88
786.485	247.22
786.879	352.54
787.273	205.09
787.667	301.05
788.061	336.16
788.454	310.41
788.848	329.14
789.242	265.94
789.636	284.67
790.029	270.62
790.423	270.62
790.816	331.48
791.21	324.46
791.603	268.28
791.997	256.58
792.39	275.31
792.783	240.2
793.176	282.33
793.569	301.05
793.962	235.52
794.355	310.41
794.748	235.52
795.141	270.62
795.534	340.84
795.927	219.13
796.319	251.9
796.712	345.52
797.105	350.2
797.497	277.65
797.89	244.88
798.282	326.8
798.674	312.75
799.067	310.41
799.459	258.92
799.851	279.99
800.243	270.62
800.635	277.65
801.027	284.67
801.419	277.65
801.811	279.99
802.203	345.52
802.594	310.41
802.986	324.46
803.378	277.65
803.769	284.67
804.161	298.71
804.552	298.71
804.944	277.65
805.335	282.33
805.726	343.18
806.118	279.99
806.509	331.48
806.9	272.96
807.291	256.58
807.682	268.28
808.073	308.07
808.464	366.59
808.855	322.12
809.245	277.65
809.636	301.05
810.027	261.26
810.417	298.71
810.808	282.33
811.198	338.5
811.589	289.35
811.979	298.71
812.369	298.71
812.759	345.52
813.15	308.07
813.54	294.03
813.93	275.31
814.32	317.44
814.71	317.44
815.1	214.45
815.489	301.05
815.879	263.6
816.269	294.03
816.658	340.84
817.048	298.71
817.438	294.03
817.827	326.8
818.216	287.01
818.606	291.69
818.995	289.35
819.384	287.01
819.773	265.94
820.163	277.65
820.552	284.67
820.941	312.75
821.33	268.28
821.718	296.37
822.107	282.33
822.496	357.22
822.885	305.73
823.273	366.59
823.662	338.5
824.05	322.12
824.439	284.67
824.827	179.34
825.216	261.26
825.604	256.58
825.992	249.56
826.38	310.41
826.768	308.07
827.156	298.71
827.544	277.65
827.932	249.56
828.32	261.26
828.708	289.35
829.096	275.31
829.483	249.56
829.871	305.73
830.259	294.03
830.646	279.99
831.034	329.14
831.421	361.91
831.808	277.65
832.196	315.09
832.583	331.48
832.97	298.71
833.357	277.65
833.744	291.69
834.131	343.18
834.518	263.6
834.905	294.03
835.292	338.5
835.678	298.71
836.065	310.41
836.452	289.35
836.838	324.46
837.225	373.61
837.611	256.58
837.998	326.8
838.384	270.62
838.77	324.46
839.157	261.26
839.543	357.22
839.929	340.84
840.315	270.62
840.701	272.96
841.087	294.03
841.473	251.9
841.858	315.09
842.244	289.35
842.63	279.99
843.015	291.69
843.401	317.44
843.787	329.14
844.172	256.58
844.557	298.71
844.943	228.49
845.328	251.9
845.713	247.22
846.098	329.14
846.483	270.62
846.868	371.27
847.253	322.12
847.638	333.82
848.023	256.58
848.408	312.75
848.793	333.82
849.177	333.82
849.562	268.28
849.947	315.09
850.331	291.69
850.715	319.78
851.1	324.46
851.484	282.33
851.868	352.54
852.253	275.31
852.637	279.99
853.021	305.73
853.405	308.07
853.789	301.05
854.173	291.69
854.557	308.07
854.94	324.46
855.324	294.03
855.708	317.44
856.091	336.16
856.475	294.03
856.858	315.09
857.242	305.73
857.625	322.12
858.009	340.84
858.392	296.37
858.775	198.07
859.158	291.69
859.541	324.46
859.924	287.01
860.307	207.43
860.69	378.29
861.073	284.67
861.456	287.01
861.838	272.96
862.221	294.03
862.604	254.24
862.986	296.37
863.369	310.41
863.751	298.71
864.133	352.54
864.516	270.62
864.898	277.65
865.28	298.71
865.662	354.88
866.044	268.28
866.426	275.31
866.808	240.2
867.19	279.99
867.572	336.16
867.954	296.37
868.336	310.41
868.717	305.73
869.099	303.39
869.48	312.75
869.862	272.96
870.243	298.71
870.625	361.91
871.006	235.52
871.387	310.41
871.768	336.16
872.149	284.67
872.53	296.37
872.911	294.03
873.292	233.18
873.673	317.44
874.054	249.56
874.435	277.65
874.815	282.33
875.196	298.71
875.577	336.16
875.957	282.33
876.338	380.63
876.718	247.22
877.098	317.44
877.479	265.94
877.859	298.71
878.239	357.22
878.619	310.41
878.999	294.03
879.379	277.65
879.759	368.93
880.139	345.52
880.519	336.16
880.898	301.05
881.278	244.88
881.658	319.78
882.037	289.35
882.417	284.67
882.796	289.35
883.176	284.67
883.555	251.9
883.934	308.07
884.313	361.91
884.693	270.62
885.072	319.78
885.451	247.22
885.83	303.39
886.209	282.33
886.587	312.75
886.966	251.9
887.345	329.14
887.724	254.24
888.102	279.99
888.481	319.78
888.859	289.35
889.238	289.35
889.616	284.67
889.994	322.12
890.373	340.84
890.751	326.8
891.129	265.94
891.507	329.14
891.885	319.78
892.263	296.37
892.641	312.75
893.019	352.54
893.396	265.94
893.774	331.48
894.152	301.05
894.529	305.73
894.907	315.09
895.284	338.5
895.662	240.2
896.039	270.62
896.416	287.01
896.794	277.65
897.171	322.12
897.548	287.01
897.925	326.8
898.302	301.05
898.679	310.41
899.056	272.96
899.433	258.92
899.809	223.81
900.186	256.58
900.563	294.03
900.939	317.44
901.316	244.88
901.692	331.48
902.069	240.2
902.445	347.86
902.821	340.84
903.197	303.39
903.574	287.01
903.95	361.91
904.326	289.35
904.702	272.96
905.078	324.46
905.454	357.22
905.829	296.37
906.205	279.99
906.581	308.07
906.956	272.96
907.332	303.39
907.707	310.41
908.083	340.84
908.458	298.71
908.833	284.67
909.209	249.56
909.584	289.35
909.959	315.09
910.334	317.44
910.709	352.54
911.084	324.46
911.459	359.56
911.834	329.14
912.209	284.67
912.583	282.33
912.958	338.5
913.333	287.01
913.707	209.77
914.082	263.6
914.456	289.35
914.83	284.67
915.205	319.78
915.579	310.41
915.953	303.39
916.327	298.71
916.701	301.05
917.075	317.44
917.449	312.75
917.823	305.73
918.197	219.13
918.571	354.88
918.944	233.18
919.318	287.01
919.692	207.43
920.065	226.15
920.438	284.67
920.812	326.8
921.185	361.91
921.558	256.58
921.932	279.99
922.305	296.37
922.678	345.52
923.051	305.73
923.424	287.01
923.797	312.75
924.17	343.18
924.542	284.67
924.915	258.92
925.288	319.78
925.661	244.88
926.033	301.05
926.406	338.5
926.778	357.22
927.15	251.9
927.523	331.48
927.895	303.39
928.267	303.39
928.639	303.39
929.011	247.22
929.383	272.96
929.755	230.84
930.127	305.73
930.499	343.18
930.871	319.78
931.242	270.62
931.614	333.82
931.986	366.59
932.357	324.46
932.729	312.75
933.1	331.48
933.471	301.05
933.843	364.25
934.214	301.05
934.585	305.73
934.956	240.2
935.327	312.75
935.698	345.52
936.069	336.16
936.44	263.6
936.811	268.28
937.182	305.73
937.552	308.07
937.923	237.86
938.293	294.03
938.664	291.69
939.034	272.96
939.405	308.07
939.775	287.01
940.145	277.65
940.516	308.07
940.886	312.75
941.256	251.9
941.626	301.05
941.996	329.14
942.366	317.44
942.735	282.33
943.105	317.44
943.475	336.16
943.845	308.07
944.214	251.9
944.584	326.8
944.953	289.35
945.323	298.71
945.692	350.2
946.061	256.58
946.43	275.31
946.8	284.67
947.169	345.52
947.538	291.69
947.907	235.52
948.276	329.14
948.645	249.56
949.013	303.39
949.382	326.8
949.751	322.12
950.119	364.25
950.488	155.94
950.857	277.65
951.225	228.49
951.593	258.92
951.962	247.22
952.33	305.73
952.698	296.37
953.066	305.73
953.434	277.65
953.802	310.41
954.17	329.14
954.538	244.88
954.906	277.65
955.274	291.69
955.642	270.62
956.009	289.35
956.377	284.67
956.744	291.69
957.112	289.35
957.479	303.39
957.847	322.12
958.214	338.5
958.581	298.71
958.948	294.03
959.315	263.6
959.683	333.82
960.05	312.75
960.416	303.39
960.783	324.46
961.15	294.03
961.517	268.28
961.884	272.96
962.25	291.69
962.617	329.14
962.983	301.05
963.35	258.92
963.716	265.94
964.082	336.16
964.449	326.8
964.815	284.67
965.181	240.2
965.547	277.65
965.913	279.99
966.279	284.67
966.645	357.22
967.011	258.92
967.377	305.73
967.742	242.54
968.108	296.37
968.474	242.54
968.839	249.56
969.205	324.46
969.57	312.75
969.935	291.69
970.301	242.54
970.666	272.96
971.031	268.28
971.396	207.43
971.761	298.71
972.126	275.31
972.491	317.44
972.856	315.09
973.221	270.62
973.586	251.9
973.95	272.96
974.315	312.75
974.679	338.5
975.044	326.8
975.408	294.03
975.773	237.86
976.137	315.09
976.501	298.71
976.866	223.81
977.23	230.84
977.594	244.88
977.958	216.79
978.322	289.35
978.686	317.44
979.049	375.95
979.413	368.93
979.777	275.31
980.141	265.94
980.504	322.12
980.868	261.26
981.231	282.33
981.595	343.18
981.958	291.69
982.321	329.14
982.684	340.84
983.048	331.48
983.411	324.46
983.774	308.07
984.137	289.35
984.5	263.6
984.862	319.78
985.225	268.28
985.588	265.94
985.951	340.84
986.313	317.44
986.676	322.12
987.038	287.01
987.401	282.33
987.763	301.05
988.125	345.52
988.488	277.65
988.85	301.05
989.212	354.88
989.574	294.03
989.936	359.56
990.298	315.09
990.66	359.56
991.022	336.16
991.383	282.33
991.745	254.24
992.107	282.33
992.468	272.96
992.83	275.31
993.191	345.52
993.553	308.07
993.914	354.88
994.275	308.07
994.637	324.46
994.998	265.94
995.359	284.67
995.72	308.07
996.081	242.54
996.442	282.33
996.803	296.37
997.163	343.18
997.524	284.67
997.885	326.8
998.245	289.35
998.606	287.01
998.966	291.69
999.327	291.69
999.687	261.26
1000.047	275.31
1000.408	296.37
1000.768	326.8
1001.128	350.2
1001.488	275.31
1001.848	301.05
1002.208	296.37
1002.568	242.54
1002.927	272.96
1003.287	310.41
1003.647	261.26
1004.007	310.41
1004.366	336.16
1004.726	289.35
1005.085	233.18
1005.444	242.54
1005.804	336.16
1006.163	317.44
1006.522	322.12
1006.881	284.67
1007.24	228.49
1007.599	251.9
1007.958	289.35
1008.317	366.59
1008.676	296.37
1009.035	268.28
1009.393	331.48
1009.752	228.49
1010.111	294.03
1010.469	291.69
1010.828	296.37
1011.186	347.86
1011.544	343.18
1011.903	249.56
1012.261	303.39
1012.619	277.65
1012.977	284.67
1013.335	333.82
1013.693	343.18
1014.051	268.28
1014.409	338.5
1014.767	329.14
1015.124	282.33
1015.482	319.78
1015.84	301.05
1016.197	289.35
1016.555	336.16
1016.912	261.26
1017.269	326.8
1017.627	275.31
1017.984	294.03
1018.341	270.62
1018.698	275.31
1019.055	251.9
1019.412	272.96
1019.769	287.01
1020.126	289.35
1020.483	268.28
1020.84	312.75
1021.196	303.39
1021.553	305.73
1021.909	350.2
1022.266	310.41
1022.622	226.15
1022.979	375.95
1023.335	315.09
1023.691	277.65
1024.047	303.39
1024.404	312.75
1024.76	312.75
1025.116	324.46
1025.472	272.96
1025.827	291.69
1026.183	324.46
1026.539	221.47
1026.895	291.69
1027.25	284.67
1027.606	303.39
1027.961	287.01
1028.317	244.88
1028.672	284.67
1029.028	291.69
1029.383	268.28
1029.738	324.46
1030.093	279.99
1030.448	254.24
1030.803	279.99
1031.158	272.96
1031.513	272.96
1031.868	298.71
1032.223	294.03
1032.577	284.67
1032.932	256.58
1033.287	298.71
1033.641	326.8
1033.996	287.01
1034.35	282.33
1034.704	324.46
1035.059	350.2
1035.413	275.31
1035.767	275.31
1036.121	275.31
