Data from Al_FLMS009871__754__15-15-03-326.txt Node

Date: Fri Mar 08 15:15:03 CST 2024
User: pe5414po
Spectrometer: FLMS00987
Trigger mode: 0
Integration Time (sec): 1.000000E-1
Scans to average: 1
Electric dark correction enabled: true
Nonlinearity correction enabled: false
Boxcar width: 0
XAxis mode: Wavelengths
Number of Pixels in Spectrum: 2048
>>>>>Begin Spectral Data<<<<<
188.938	-72.12
189.409	-72.12
189.879	-72.12
190.349	-90.84
190.819	-83.82
191.29	-121.27
191.76	-123.61
192.23	-102.54
192.7	-65.1
193.17	-65.1
193.64	-13.6
194.109	7.46
194.579	-41.69
195.049	-8.92
195.519	65.97
195.988	12.14
196.458	110.44
196.927	44.91
197.397	47.25
197.866	126.83
198.336	126.83
198.805	185.34
199.274	171.3
199.744	192.36
200.213	250.88
200.682	213.43
201.151	236.83
201.62	248.54
202.089	227.47
202.558	297.69
203.027	325.77
203.495	262.58
203.964	246.2
204.433	271.94
204.902	321.09
205.37	255.56
205.839	262.58
206.307	290.67
206.776	300.03
207.244	253.22
207.712	323.43
208.181	332.79
208.649	304.71
209.117	328.11
209.585	337.48
210.053	344.5
210.521	316.41
210.989	302.37
211.457	346.84
211.925	304.71
212.393	302.37
212.861	255.56
213.328	351.52
213.796	304.71
214.264	302.37
214.731	318.75
215.199	285.98
215.666	297.69
216.133	260.24
216.601	295.35
217.068	248.54
217.535	307.05
218.003	246.2
218.47	293.01
218.937	264.92
219.404	283.64
219.871	274.28
220.338	276.62
220.805	290.67
221.271	314.07
221.738	328.11
222.205	201.72
222.671	325.77
223.138	276.62
223.605	316.41
224.071	281.3
224.538	325.77
225.004	302.37
225.47	222.79
225.937	236.83
226.403	300.03
226.869	269.6
227.335	267.26
227.801	307.05
228.267	253.22
228.733	271.94
229.199	311.73
229.665	260.24
230.131	269.6
230.597	271.94
231.062	276.62
231.528	187.68
231.994	218.11
232.459	274.28
232.925	295.35
233.39	283.64
233.856	257.9
234.321	234.49
234.786	285.98
235.252	293.01
235.717	318.75
236.182	311.73
236.647	257.9
237.112	316.41
237.577	309.39
238.042	290.67
238.507	271.94
238.972	218.11
239.436	321.09
239.901	318.75
240.366	225.13
240.83	351.52
241.295	323.43
241.76	300.03
242.224	229.81
242.688	253.22
243.153	339.82
243.617	325.77
244.081	243.85
244.545	311.73
245.01	309.39
245.474	243.85
245.938	260.24
246.402	243.85
246.866	309.39
247.33	318.75
247.793	342.16
248.257	236.83
248.721	300.03
249.185	314.07
249.648	248.54
250.112	288.32
250.575	285.98
251.039	300.03
251.502	227.47
251.965	241.51
252.429	325.77
252.892	330.45
253.355	295.35
253.818	342.16
254.281	269.6
254.744	250.88
255.207	243.85
255.67	260.24
256.133	274.28
256.596	316.41
257.059	260.24
257.522	318.75
257.984	283.64
258.447	351.52
258.909	297.69
259.372	241.51
259.834	300.03
260.297	290.67
260.759	297.69
261.221	283.64
261.684	293.01
262.146	295.35
262.608	262.58
263.07	335.14
263.532	267.26
263.994	229.81
264.456	330.45
264.918	285.98
265.38	264.92
265.842	232.15
266.303	274.28
266.765	290.67
267.227	307.05
267.688	276.62
268.15	236.83
268.611	267.26
269.072	271.94
269.534	311.73
269.995	293.01
270.456	356.2
270.918	353.86
271.379	332.79
271.84	239.17
272.301	304.71
272.762	323.43
273.223	358.54
273.684	307.05
274.144	274.28
274.605	264.92
275.066	307.05
275.527	243.85
275.987	283.64
276.448	309.39
276.908	276.62
277.369	250.88
277.829	281.3
278.289	323.43
278.75	295.35
279.21	330.45
279.67	297.69
280.13	290.67
280.59	307.05
281.05	246.2
281.51	300.03
281.97	321.09
282.43	351.52
282.89	288.32
283.35	328.11
283.809	257.9
284.269	300.03
284.729	278.96
285.188	250.88
285.648	314.07
286.107	260.24
286.567	346.84
287.026	302.37
287.485	302.37
287.944	278.96
288.404	325.77
288.863	332.79
289.322	417.05
289.781	304.71
290.24	293.01
290.699	236.83
291.158	311.73
291.616	363.22
292.075	311.73
292.534	346.84
292.992	318.75
293.451	314.07
293.91	288.32
294.368	309.39
294.827	309.39
295.285	267.26
295.743	302.37
296.202	278.96
296.66	356.2
297.118	262.58
297.576	293.01
298.034	309.39
298.492	274.28
298.95	318.75
299.408	351.52
299.866	360.88
300.324	262.58
300.781	281.3
301.239	318.75
301.697	255.56
302.154	325.77
302.612	295.35
303.069	365.56
303.527	225.13
303.984	300.03
304.441	241.51
304.899	293.01
305.356	351.52
305.813	314.07
306.27	318.75
306.727	321.09
307.184	314.07
307.641	293.01
308.098	344.5
308.555	314.07
309.012	285.98
309.468	386.63
309.925	328.11
310.382	316.41
310.838	302.37
311.295	405.35
311.751	257.9
312.208	346.84
312.664	377.27
313.12	295.35
313.577	262.58
314.033	293.01
314.489	318.75
314.945	304.71
315.401	311.73
315.857	370.24
316.313	304.71
316.769	309.39
317.225	353.86
317.681	332.79
318.136	302.37
318.592	288.32
319.048	281.3
319.503	293.01
319.959	339.82
320.414	267.26
320.869	335.14
321.325	360.88
321.78	332.79
322.235	360.88
322.691	278.96
323.146	335.14
323.601	278.96
324.056	297.69
324.511	311.73
324.966	321.09
325.421	344.5
325.875	321.09
326.33	307.05
326.785	351.52
327.24	332.79
327.694	288.32
328.149	360.88
328.603	297.69
329.058	293.01
329.512	278.96
329.966	293.01
330.421	274.28
330.875	349.18
331.329	346.84
331.783	194.7
332.237	267.26
332.691	323.43
333.145	304.71
333.599	267.26
334.053	307.05
334.507	311.73
334.96	302.37
335.414	307.05
335.868	363.22
336.321	311.73
336.775	332.79
337.228	318.75
337.682	381.95
338.135	353.86
338.588	304.71
339.042	349.18
339.495	342.16
339.948	311.73
340.401	307.05
340.854	321.09
341.307	323.43
341.76	227.47
342.213	300.03
342.666	321.09
343.119	332.79
343.571	297.69
344.024	304.71
344.477	374.92
344.929	225.13
345.382	325.77
345.834	283.64
346.287	410.03
346.739	332.79
347.191	300.03
347.644	349.18
348.096	342.16
348.548	367.9
349	330.45
349.452	342.16
349.904	346.84
350.356	302.37
350.808	337.48
351.26	365.56
351.711	330.45
352.163	304.71
352.615	356.2
353.066	318.75
353.518	328.11
353.969	356.2
354.421	377.27
354.872	318.75
355.324	314.07
355.775	295.35
356.226	346.84
356.677	332.79
357.128	285.98
357.579	302.37
358.03	344.5
358.481	314.07
358.932	372.58
359.383	278.96
359.834	351.52
360.285	269.6
360.735	311.73
361.186	297.69
361.637	297.69
362.087	349.18
362.538	297.69
362.988	304.71
363.438	311.73
363.889	344.5
364.339	314.07
364.789	335.14
365.239	339.82
365.689	374.92
366.139	335.14
366.589	307.05
367.039	278.96
367.489	295.35
367.939	276.62
368.389	335.14
368.839	293.01
369.288	307.05
369.738	335.14
370.187	307.05
370.637	283.64
371.086	323.43
371.536	316.41
371.985	372.58
372.434	316.41
372.884	285.98
373.333	344.5
373.782	353.86
374.231	335.14
374.68	330.45
375.129	264.92
375.578	367.9
376.027	353.86
376.475	358.54
376.924	309.39
377.373	360.88
377.822	285.98
378.27	344.5
378.719	328.11
379.167	314.07
379.616	307.05
380.064	339.82
380.512	358.54
380.961	342.16
381.409	288.32
381.857	311.73
382.305	304.71
382.753	314.07
383.201	325.77
383.649	344.5
384.097	332.79
384.545	302.37
384.992	386.63
385.44	330.45
385.888	283.64
386.335	288.32
386.783	285.98
387.231	304.71
387.678	290.67
388.125	346.84
388.573	321.09
389.02	381.95
389.467	335.14
389.914	388.97
390.362	300.03
390.809	342.16
391.256	321.09
391.703	288.32
392.15	363.22
392.596	332.79
393.043	386.63
393.49	276.62
393.937	344.5
394.383	377.27
394.83	339.82
395.276	300.03
395.723	335.14
396.169	283.64
396.616	290.67
397.062	337.48
397.508	309.39
397.954	311.73
398.401	356.2
398.847	290.67
399.293	328.11
399.739	309.39
400.185	356.2
400.631	295.35
401.076	356.2
401.522	384.29
401.968	304.71
402.414	290.67
402.859	339.82
403.305	314.07
403.75	267.26
404.196	307.05
404.641	328.11
405.086	300.03
405.532	283.64
405.977	307.05
406.422	344.5
406.867	384.29
407.312	248.54
407.757	267.26
408.202	307.05
408.647	419.39
409.092	267.26
409.537	353.86
409.982	316.41
410.426	367.9
410.871	335.14
411.316	353.86
411.76	269.6
412.205	278.96
412.649	323.43
413.093	316.41
413.538	311.73
413.982	358.54
414.426	339.82
414.87	349.18
415.314	274.28
415.758	346.84
416.202	262.58
416.646	323.43
417.09	295.35
417.534	323.43
417.978	328.11
418.421	314.07
418.865	335.14
419.309	288.32
419.752	325.77
420.196	309.39
420.639	353.86
421.083	344.5
421.526	330.45
421.969	344.5
422.412	323.43
422.856	381.95
423.299	330.45
423.742	318.75
424.185	321.09
424.628	260.24
425.071	307.05
425.513	370.24
425.956	295.35
426.399	234.49
426.842	321.09
427.284	293.01
427.727	339.82
428.169	353.86
428.612	332.79
429.054	281.3
429.497	351.52
429.939	346.84
430.381	316.41
430.823	372.58
431.265	295.35
431.707	335.14
432.149	351.52
432.591	264.92
433.033	283.64
433.475	302.37
433.917	349.18
434.359	339.82
434.8	290.67
435.242	328.11
435.684	360.88
436.125	300.03
436.567	346.84
437.008	365.56
437.449	370.24
437.891	377.27
438.332	318.75
438.773	285.98
439.214	323.43
439.656	339.82
440.097	318.75
440.538	351.52
440.978	339.82
441.419	335.14
441.86	314.07
442.301	356.2
442.742	293.01
443.182	328.11
443.623	344.5
444.063	335.14
444.504	351.52
444.944	323.43
445.385	309.39
445.825	325.77
446.265	344.5
446.706	339.82
447.146	302.37
447.586	332.79
448.026	297.69
448.466	353.86
448.906	365.56
449.346	295.35
449.786	349.18
450.225	297.69
450.665	288.32
451.105	309.39
451.544	335.14
451.984	360.88
452.424	358.54
452.863	274.28
453.302	346.84
453.742	321.09
454.181	330.45
454.62	379.61
455.059	328.11
455.499	285.98
455.938	285.98
456.377	332.79
456.816	367.9
457.254	332.79
457.693	349.18
458.132	339.82
458.571	311.73
459.01	351.52
459.448	386.63
459.887	328.11
460.325	332.79
460.764	276.62
461.202	288.32
461.641	360.88
462.079	388.97
462.517	339.82
462.955	283.64
463.393	316.41
463.832	307.05
464.27	321.09
464.708	332.79
465.145	365.56
465.583	335.14
466.021	339.82
466.459	318.75
466.897	372.58
467.334	318.75
467.772	307.05
468.209	309.39
468.647	318.75
469.084	381.95
469.522	295.35
469.959	316.41
470.396	309.39
470.833	271.94
471.271	297.69
471.708	297.69
472.145	405.35
472.582	384.29
473.019	304.71
473.456	293.01
473.892	353.86
474.329	304.71
474.766	356.2
475.202	358.54
475.639	309.39
476.076	391.31
476.512	297.69
476.949	342.16
477.385	346.84
477.821	300.03
478.258	335.14
478.694	325.77
479.13	321.09
479.566	356.2
480.002	318.75
480.438	283.64
480.874	316.41
481.31	300.03
481.746	360.88
482.181	309.39
482.617	323.43
483.053	325.77
483.488	337.48
483.924	307.05
484.36	323.43
484.795	311.73
485.23	311.73
485.666	356.2
486.101	302.37
486.536	311.73
486.971	328.11
487.407	281.3
487.842	295.35
488.277	290.67
488.712	314.07
489.146	346.84
489.581	328.11
490.016	335.14
490.451	337.48
490.885	288.32
491.32	337.48
491.755	337.48
492.189	293.01
492.624	304.71
493.058	307.05
493.492	304.71
493.927	351.52
494.361	295.35
494.795	367.9
495.229	330.45
495.663	307.05
496.097	307.05
496.531	316.41
496.965	360.88
497.399	346.84
497.833	325.77
498.266	311.73
498.7	321.09
499.134	325.77
499.567	398.33
500.001	316.41
500.434	365.56
500.868	374.92
501.301	325.77
501.734	367.9
502.168	321.09
502.601	309.39
503.034	300.03
503.467	344.5
503.9	379.61
504.333	337.48
504.766	309.39
505.199	370.24
505.632	264.92
506.064	367.9
506.497	304.71
506.93	346.84
507.362	269.6
507.795	271.94
508.227	351.52
508.66	288.32
509.092	318.75
509.524	302.37
509.956	384.29
510.389	302.37
510.821	307.05
511.253	295.35
511.685	295.35
512.117	328.11
512.549	332.79
512.981	321.09
513.412	349.18
513.844	335.14
514.276	290.67
514.707	307.05
515.139	379.61
515.571	342.16
516.002	344.5
516.433	332.79
516.865	358.54
517.296	339.82
517.727	367.9
518.159	335.14
518.59	372.58
519.021	346.84
519.452	356.2
519.883	332.79
520.314	321.09
520.744	311.73
521.175	309.39
521.606	281.3
522.037	353.86
522.467	328.11
522.898	323.43
523.328	304.71
523.759	295.35
524.189	377.27
524.62	342.16
525.05	330.45
525.48	297.69
525.91	372.58
526.341	337.48
526.771	330.45
527.201	290.67
527.631	321.09
528.061	311.73
528.49	342.16
528.92	346.84
529.35	342.16
529.78	351.52
530.209	332.79
530.639	311.73
531.068	379.61
531.498	311.73
531.927	325.77
532.357	339.82
532.786	314.07
533.215	311.73
533.644	300.03
534.074	316.41
534.503	374.92
534.932	293.01
535.361	370.24
535.79	314.07
536.218	377.27
536.647	318.75
537.076	267.26
537.505	278.96
537.933	367.9
538.362	332.79
538.79	318.75
539.219	316.41
539.647	358.54
540.076	309.39
540.504	372.58
540.932	262.58
541.36	358.54
541.788	337.48
542.217	346.84
542.645	377.27
543.073	370.24
543.5	379.61
543.928	295.35
544.356	304.71
544.784	332.79
545.211	293.01
545.639	353.86
546.067	349.18
546.494	325.77
546.922	311.73
547.349	295.35
547.776	307.05
548.204	337.48
548.631	255.56
549.058	346.84
549.485	316.41
549.912	307.05
550.339	304.71
550.766	323.43
551.193	262.58
551.62	353.86
552.047	344.5
552.474	367.9
552.9	302.37
553.327	346.84
553.754	344.5
554.18	335.14
554.607	300.03
555.033	323.43
555.459	356.2
555.886	293.01
556.312	367.9
556.738	290.67
557.164	278.96
557.59	285.98
558.016	356.2
558.442	384.29
558.868	309.39
559.294	274.28
559.72	339.82
560.145	360.88
560.571	346.84
560.997	360.88
561.422	351.52
561.848	342.16
562.273	349.18
562.699	271.94
563.124	349.18
563.549	358.54
563.974	335.14
564.4	342.16
564.825	318.75
565.25	342.16
565.675	300.03
566.1	344.5
566.525	321.09
566.95	318.75
567.374	316.41
567.799	318.75
568.224	302.37
568.648	304.71
569.073	285.98
569.497	302.37
569.922	323.43
570.346	318.75
570.771	260.24
571.195	311.73
571.619	309.39
572.043	330.45
572.467	318.75
572.891	372.58
573.315	328.11
573.739	309.39
574.163	370.24
574.587	323.43
575.011	264.92
575.435	300.03
575.858	346.84
576.282	278.96
576.705	232.15
577.129	370.24
577.552	304.71
577.976	323.43
578.399	293.01
578.822	353.86
579.245	307.05
579.669	349.18
580.092	349.18
580.515	318.75
580.938	335.14
581.361	330.45
581.784	257.9
582.206	337.48
582.629	351.52
583.052	391.31
583.474	323.43
583.897	274.28
584.32	295.35
584.742	330.45
585.165	330.45
585.587	321.09
586.009	374.92
586.431	321.09
586.854	342.16
587.276	304.71
587.698	346.84
588.12	351.52
588.542	342.16
588.964	316.41
589.386	377.27
589.807	281.3
590.229	293.01
590.651	325.77
591.073	311.73
591.494	365.56
591.916	300.03
592.337	304.71
592.759	358.54
593.18	346.84
593.601	351.52
594.022	309.39
594.444	344.5
594.865	346.84
595.286	295.35
595.707	316.41
596.128	356.2
596.549	330.45
596.97	295.35
597.39	353.86
597.811	278.96
598.232	281.3
598.652	337.48
599.073	311.73
599.494	339.82
599.914	321.09
600.334	314.07
600.755	304.71
601.175	234.49
601.595	328.11
602.015	323.43
602.436	288.32
602.856	503.65
603.276	342.16
603.696	300.03
604.115	274.28
604.535	321.09
604.955	363.22
605.375	363.22
605.794	309.39
606.214	257.9
606.634	318.75
607.053	321.09
607.473	377.27
607.892	346.84
608.311	330.45
608.731	332.79
609.15	267.26
609.569	300.03
609.988	290.67
610.407	332.79
610.826	293.01
611.245	307.05
611.664	271.94
612.083	290.67
612.501	297.69
612.92	328.11
613.339	311.73
613.757	365.56
614.176	403.01
614.594	339.82
615.013	267.26
615.431	351.52
615.85	365.56
616.268	323.43
616.686	300.03
617.104	325.77
617.522	307.05
617.94	337.48
618.358	339.82
618.776	239.17
619.194	255.56
619.612	363.22
620.03	323.43
620.447	281.3
620.865	367.9
621.282	342.16
621.7	372.58
622.117	316.41
622.535	360.88
622.952	262.58
623.369	307.05
623.787	363.22
624.204	255.56
624.621	264.92
625.038	379.61
625.455	372.58
625.872	283.64
626.289	328.11
626.706	323.43
627.123	269.6
627.539	358.54
627.956	267.26
628.373	342.16
628.789	321.09
629.206	381.95
629.622	370.24
630.038	358.54
630.455	353.86
630.871	281.3
631.287	311.73
631.703	297.69
632.12	300.03
632.536	316.41
632.952	314.07
633.368	323.43
633.783	302.37
634.199	295.35
634.615	339.82
635.031	288.32
635.446	321.09
635.862	351.52
636.277	386.63
636.693	332.79
637.108	269.6
637.524	285.98
637.939	335.14
638.354	285.98
638.77	288.32
639.185	260.24
639.6	297.69
640.015	321.09
640.43	316.41
640.845	297.69
641.259	344.5
641.674	283.64
642.089	360.88
642.504	330.45
642.918	358.54
643.333	353.86
643.747	253.22
644.162	377.27
644.576	290.67
644.991	356.2
645.405	302.37
645.819	309.39
646.233	388.97
646.647	365.56
647.061	323.43
647.475	304.71
647.889	323.43
648.303	372.58
648.717	248.54
649.131	311.73
649.545	381.95
649.958	297.69
650.372	377.27
650.785	330.45
651.199	332.79
651.612	358.54
652.026	278.96
652.439	314.07
652.852	304.71
653.266	307.05
653.679	309.39
654.092	297.69
654.505	325.77
654.918	363.22
655.331	367.9
655.744	276.62
656.156	349.18
656.569	344.5
656.982	349.18
657.394	267.26
657.807	335.14
658.22	281.3
658.632	307.05
659.044	342.16
659.457	250.88
659.869	311.73
660.281	332.79
660.693	307.05
661.106	330.45
661.518	316.41
661.93	328.11
662.342	307.05
662.754	274.28
663.165	360.88
663.577	288.32
663.989	271.94
664.401	349.18
664.812	332.79
665.224	311.73
665.635	255.56
666.047	346.84
666.458	243.85
666.869	353.86
667.281	229.81
667.692	295.35
668.103	314.07
668.514	290.67
668.925	367.9
669.336	316.41
669.747	307.05
670.158	325.77
670.569	370.24
670.979	365.56
671.39	349.18
671.801	339.82
672.211	339.82
672.622	325.77
673.032	342.16
673.443	300.03
673.853	295.35
674.263	276.62
674.674	372.58
675.084	321.09
675.494	351.52
675.904	330.45
676.314	302.37
676.724	311.73
677.134	295.35
677.544	330.45
677.953	328.11
678.363	342.16
678.773	356.2
679.182	293.01
679.592	332.79
680.001	281.3
680.411	283.64
680.82	309.39
681.23	295.35
681.639	339.82
682.048	281.3
682.457	342.16
682.866	332.79
683.275	316.41
683.684	365.56
684.093	300.03
684.502	316.41
684.911	349.18
685.32	335.14
685.728	318.75
686.137	281.3
686.546	316.41
686.954	314.07
687.363	335.14
687.771	276.62
688.179	370.24
688.588	307.05
688.996	307.05
689.404	400.67
689.812	311.73
690.22	339.82
690.628	335.14
691.036	316.41
691.444	325.77
691.852	300.03
692.26	309.39
692.667	330.45
693.075	321.09
693.483	344.5
693.89	248.54
694.298	365.56
694.705	365.56
695.112	351.52
695.52	400.67
695.927	367.9
696.334	337.48
696.741	342.16
697.148	344.5
697.555	316.41
697.962	360.88
698.369	285.98
698.776	283.64
699.183	405.35
699.59	288.32
699.996	302.37
700.403	293.01
700.81	356.2
701.216	365.56
701.623	330.45
702.029	342.16
702.435	318.75
702.842	365.56
703.248	332.79
703.654	290.67
704.06	288.32
704.466	309.39
704.872	351.52
705.278	330.45
705.684	351.52
706.09	302.37
706.496	309.39
706.901	307.05
707.307	257.9
707.712	349.18
708.118	290.67
708.523	342.16
708.929	335.14
709.334	335.14
709.74	309.39
710.145	370.24
710.55	363.22
710.955	302.37
711.36	353.86
711.765	323.43
712.17	353.86
712.575	316.41
712.98	814.95
713.385	358.54
713.789	349.18
714.194	264.92
714.599	246.2
715.003	356.2
715.408	285.98
715.812	370.24
716.217	281.3
716.621	285.98
717.025	318.75
717.429	381.95
717.833	339.82
718.238	365.56
718.642	330.45
719.046	304.71
719.449	278.96
719.853	332.79
720.257	407.69
720.661	342.16
721.065	293.01
721.468	353.86
721.872	358.54
722.275	339.82
722.679	255.56
723.082	314.07
723.485	344.5
723.889	295.35
724.292	346.84
724.695	271.94
725.098	335.14
725.501	278.96
725.904	293.01
726.307	309.39
726.71	374.92
727.113	353.86
727.516	264.92
727.918	356.2
728.321	300.03
728.724	309.39
729.126	288.32
729.529	370.24
729.931	384.29
730.333	407.69
730.736	300.03
731.138	335.14
731.54	311.73
731.942	356.2
732.344	255.56
732.746	290.67
733.148	339.82
733.55	356.2
733.952	360.88
734.354	318.75
734.756	351.52
735.157	318.75
735.559	374.92
735.96	330.45
736.362	285.98
736.763	363.22
737.165	374.92
737.566	332.79
737.967	328.11
738.368	283.64
738.77	344.5
739.171	304.71
739.572	293.01
739.973	309.39
740.374	337.48
740.774	269.6
741.175	283.64
741.576	323.43
741.977	295.35
742.377	285.98
742.778	283.64
743.178	314.07
743.579	339.82
743.979	367.9
744.379	307.05
744.78	300.03
745.18	264.92
745.58	346.84
745.98	360.88
746.38	288.32
746.78	309.39
747.18	360.88
747.58	370.24
747.98	339.82
748.38	363.22
748.779	346.84
749.179	339.82
749.578	395.99
749.978	351.52
750.377	302.37
750.777	323.43
751.176	290.67
751.575	318.75
751.975	353.86
752.374	290.67
752.773	307.05
753.172	332.79
753.571	304.71
753.97	335.14
754.369	309.39
754.768	330.45
755.166	395.99
755.565	307.05
755.964	335.14
756.362	323.43
756.761	342.16
757.159	351.52
757.558	321.09
757.956	297.69
758.354	349.18
758.753	302.37
759.151	325.77
759.549	300.03
759.947	377.27
760.345	314.07
760.743	342.16
761.141	335.14
761.539	356.2
761.936	332.79
762.334	302.37
762.732	381.95
763.129	246.2
763.527	309.39
763.924	293.01
764.322	309.39
764.719	358.54
765.117	318.75
765.514	342.16
765.911	295.35
766.308	356.2
766.705	285.98
767.102	318.75
767.499	307.05
767.896	269.6
768.293	351.52
768.69	307.05
769.086	360.88
769.483	255.56
769.88	330.45
770.276	293.01
770.673	316.41
771.069	349.18
771.466	318.75
771.862	309.39
772.258	323.43
772.654	283.64
773.05	295.35
773.447	314.07
773.843	398.33
774.239	321.09
774.634	318.75
775.03	307.05
775.426	316.41
775.822	358.54
776.218	318.75
776.613	295.35
777.009	367.9
777.404	335.14
777.8	323.43
778.195	309.39
778.59	293.01
778.986	374.92
779.381	302.37
779.776	363.22
780.171	276.62
780.566	318.75
780.961	253.22
781.356	314.07
781.751	330.45
782.146	325.77
782.54	281.3
782.935	290.67
783.33	321.09
783.724	398.33
784.119	302.37
784.513	342.16
784.908	318.75
785.302	323.43
785.696	325.77
786.09	290.67
786.485	288.32
786.879	342.16
787.273	330.45
787.667	255.56
788.061	304.71
788.454	283.64
788.848	339.82
789.242	323.43
789.636	403.01
790.029	307.05
790.423	257.9
790.816	253.22
791.21	274.28
791.603	314.07
791.997	349.18
792.39	311.73
792.783	295.35
793.176	365.56
793.569	321.09
793.962	337.48
794.355	351.52
794.748	307.05
795.141	351.52
795.534	304.71
795.927	351.52
796.319	274.28
796.712	297.69
797.105	297.69
797.497	372.58
797.89	353.86
798.282	304.71
798.674	264.92
799.067	344.5
799.459	372.58
799.851	330.45
800.243	269.6
800.635	398.33
801.027	335.14
801.419	307.05
801.811	332.79
802.203	325.77
802.594	358.54
802.986	330.45
803.378	293.01
803.769	367.9
804.161	260.24
804.552	276.62
804.944	365.56
805.335	257.9
805.726	332.79
806.118	330.45
806.509	316.41
806.9	332.79
807.291	349.18
807.682	325.77
808.073	360.88
808.464	307.05
808.855	372.58
809.245	323.43
809.636	349.18
810.027	335.14
810.417	353.86
810.808	344.5
811.198	302.37
811.589	337.48
811.979	321.09
812.369	381.95
812.759	321.09
813.15	300.03
813.54	304.71
813.93	351.52
814.32	316.41
814.71	285.98
815.1	370.24
815.489	353.86
815.879	335.14
816.269	269.6
816.658	288.32
817.048	330.45
817.438	400.67
817.827	316.41
818.216	349.18
818.606	260.24
818.995	351.52
819.384	358.54
819.773	330.45
820.163	290.67
820.552	311.73
820.941	293.01
821.33	323.43
821.718	304.71
822.107	304.71
822.496	328.11
822.885	309.39
823.273	363.22
823.662	325.77
824.05	307.05
824.439	295.35
824.827	295.35
825.216	297.69
825.604	377.27
825.992	297.69
826.38	269.6
826.768	316.41
827.156	335.14
827.544	332.79
827.932	325.77
828.32	311.73
828.708	339.82
829.096	269.6
829.483	278.96
829.871	283.64
830.259	328.11
830.646	365.56
831.034	330.45
831.421	311.73
831.808	323.43
832.196	318.75
832.583	300.03
832.97	323.43
833.357	332.79
833.744	307.05
834.131	262.58
834.518	379.61
834.905	391.31
835.292	321.09
835.678	335.14
836.065	314.07
836.452	307.05
836.838	321.09
837.225	309.39
837.611	344.5
837.998	424.08
838.384	325.77
838.77	328.11
839.157	309.39
839.543	316.41
839.929	304.71
840.315	311.73
840.701	304.71
841.087	342.16
841.473	278.96
841.858	311.73
842.244	290.67
842.63	255.56
843.015	288.32
843.401	391.31
843.787	332.79
844.172	332.79
844.557	342.16
844.943	349.18
845.328	339.82
845.713	302.37
846.098	353.86
846.483	325.77
846.868	300.03
847.253	281.3
847.638	248.54
848.023	344.5
848.408	358.54
848.793	239.17
849.177	360.88
849.562	278.96
849.947	302.37
850.331	281.3
850.715	330.45
851.1	302.37
851.484	330.45
851.868	318.75
852.253	300.03
852.637	342.16
853.021	314.07
853.405	318.75
853.789	262.58
854.173	328.11
854.557	330.45
854.94	246.2
855.324	407.69
855.708	318.75
856.091	360.88
856.475	318.75
856.858	314.07
857.242	307.05
857.625	276.62
858.009	339.82
858.392	318.75
858.775	339.82
859.158	358.54
859.541	288.32
859.924	342.16
860.307	323.43
860.69	267.26
861.073	300.03
861.456	302.37
861.838	297.69
862.221	255.56
862.604	339.82
862.986	276.62
863.369	370.24
863.751	311.73
864.133	360.88
864.516	328.11
864.898	339.82
865.28	339.82
865.662	323.43
866.044	274.28
866.426	309.39
866.808	328.11
867.19	337.48
867.572	363.22
867.954	337.48
868.336	309.39
868.717	328.11
869.099	304.71
869.48	414.71
869.862	309.39
870.243	285.98
870.625	314.07
871.006	288.32
871.387	295.35
871.768	290.67
872.149	316.41
872.53	316.41
872.911	330.45
873.292	363.22
873.673	271.94
874.054	367.9
874.435	325.77
874.815	304.71
875.196	264.92
875.577	360.88
875.957	346.84
876.338	288.32
876.718	363.22
877.098	318.75
877.479	311.73
877.859	285.98
878.239	363.22
878.619	269.6
878.999	281.3
879.379	243.85
879.759	325.77
880.139	293.01
880.519	269.6
880.898	370.24
881.278	332.79
881.658	260.24
882.037	328.11
882.417	325.77
882.796	288.32
883.176	302.37
883.555	297.69
883.934	304.71
884.313	255.56
884.693	283.64
885.072	398.33
885.451	353.86
885.83	377.27
886.209	360.88
886.587	309.39
886.966	293.01
887.345	330.45
887.724	346.84
888.102	260.24
888.481	323.43
888.859	346.84
889.238	323.43
889.616	309.39
889.994	335.14
890.373	283.64
890.751	257.9
891.129	297.69
891.507	370.24
891.885	278.96
892.263	332.79
892.641	288.32
893.019	330.45
893.396	297.69
893.774	330.45
894.152	353.86
894.529	288.32
894.907	225.13
895.284	260.24
895.662	356.2
896.039	325.77
896.416	274.28
896.794	374.92
897.171	288.32
897.548	295.35
897.925	330.45
898.302	328.11
898.679	309.39
899.056	330.45
899.433	363.22
899.809	328.11
900.186	332.79
900.563	314.07
900.939	304.71
901.316	274.28
901.692	267.26
902.069	321.09
902.445	311.73
902.821	363.22
903.197	351.52
903.574	250.88
903.95	300.03
904.326	300.03
904.702	349.18
905.078	325.77
905.454	297.69
905.829	262.58
906.205	323.43
906.581	412.37
906.956	311.73
907.332	325.77
907.707	365.56
908.083	325.77
908.458	271.94
908.833	304.71
909.209	311.73
909.584	328.11
909.959	250.88
910.334	365.56
910.709	391.31
911.084	323.43
911.459	337.48
911.834	330.45
912.209	318.75
912.583	377.27
912.958	293.01
913.333	309.39
913.707	300.03
914.082	332.79
914.456	267.26
914.83	346.84
915.205	323.43
915.579	342.16
915.953	260.24
916.327	321.09
916.701	318.75
917.075	311.73
917.449	377.27
917.823	269.6
918.197	323.43
918.571	285.98
918.944	365.56
919.318	351.52
919.692	353.86
920.065	330.45
920.438	339.82
920.812	304.71
921.185	288.32
921.558	307.05
921.932	314.07
922.305	262.58
922.678	321.09
923.051	325.77
923.424	250.88
923.797	278.96
924.17	300.03
924.542	384.29
924.915	349.18
925.288	367.9
925.661	297.69
926.033	290.67
926.406	290.67
926.778	346.84
927.15	234.49
927.523	307.05
927.895	370.24
928.267	314.07
928.639	290.67
929.011	295.35
929.383	358.54
929.755	339.82
930.127	288.32
930.499	318.75
930.871	264.92
931.242	360.88
931.614	290.67
931.986	330.45
932.357	328.11
932.729	337.48
933.1	264.92
933.471	248.54
933.843	356.2
934.214	342.16
934.585	360.88
934.956	271.94
935.327	316.41
935.698	431.1
936.069	358.54
936.44	321.09
936.811	290.67
937.182	297.69
937.552	365.56
937.923	295.35
938.293	351.52
938.664	342.16
939.034	307.05
939.405	323.43
939.775	335.14
940.145	316.41
940.516	367.9
940.886	335.14
941.256	316.41
941.626	293.01
941.996	335.14
942.366	328.11
942.735	325.77
943.105	344.5
943.475	351.52
943.845	339.82
944.214	239.17
944.584	330.45
944.953	363.22
945.323	330.45
945.692	276.62
946.061	321.09
946.43	314.07
946.8	274.28
947.169	351.52
947.538	344.5
947.907	304.71
948.276	250.88
948.645	328.11
949.013	335.14
949.382	335.14
949.751	307.05
950.119	316.41
950.488	309.39
950.857	321.09
951.225	353.86
951.593	349.18
951.962	293.01
952.33	332.79
952.698	384.29
953.066	349.18
953.434	281.3
953.802	290.67
954.17	302.37
954.538	328.11
954.906	365.56
955.274	309.39
955.642	342.16
956.009	309.39
956.377	332.79
956.744	253.22
957.112	342.16
957.479	353.86
957.847	365.56
958.214	363.22
958.581	271.94
958.948	349.18
959.315	316.41
959.683	314.07
960.05	325.77
960.416	332.79
960.783	276.62
961.15	288.32
961.517	377.27
961.884	316.41
962.25	335.14
962.617	344.5
962.983	307.05
963.35	342.16
963.716	311.73
964.082	316.41
964.449	433.44
964.815	302.37
965.181	358.54
965.547	323.43
965.913	325.77
966.279	276.62
966.645	328.11
967.011	304.71
967.377	344.5
967.742	358.54
968.108	264.92
968.474	323.43
968.839	363.22
969.205	316.41
969.57	365.56
969.935	398.33
970.301	241.51
970.666	321.09
971.031	325.77
971.396	276.62
971.761	302.37
972.126	316.41
972.491	318.75
972.856	325.77
973.221	274.28
973.586	290.67
973.95	321.09
974.315	309.39
974.679	339.82
975.044	379.61
975.408	314.07
975.773	248.54
976.137	309.39
976.501	276.62
976.866	321.09
977.23	339.82
977.594	358.54
977.958	285.98
978.322	363.22
978.686	332.79
979.049	342.16
979.413	304.71
979.777	297.69
980.141	325.77
980.504	302.37
980.868	339.82
981.231	358.54
981.595	297.69
981.958	283.64
982.321	332.79
982.684	332.79
983.048	271.94
983.411	330.45
983.774	253.22
984.137	330.45
984.5	307.05
984.862	346.84
985.225	285.98
985.588	328.11
985.951	337.48
986.313	405.35
986.676	300.03
987.038	278.96
987.401	323.43
987.763	323.43
988.125	342.16
988.488	290.67
988.85	283.64
989.212	321.09
989.574	274.28
989.936	307.05
990.298	328.11
990.66	295.35
991.022	276.62
991.383	309.39
991.745	246.2
992.107	332.79
992.468	321.09
992.83	316.41
993.191	290.67
993.553	300.03
993.914	363.22
994.275	309.39
994.637	325.77
994.998	281.3
995.359	328.11
995.72	274.28
996.081	229.81
996.442	358.54
996.803	346.84
997.163	281.3
997.524	342.16
997.885	264.92
998.245	332.79
998.606	374.92
998.966	304.71
999.327	288.32
999.687	374.92
1000.047	307.05
1000.408	314.07
1000.768	283.64
1001.128	302.37
1001.488	304.71
1001.848	269.6
1002.208	307.05
1002.568	300.03
1002.927	346.84
1003.287	297.69
1003.647	405.35
1004.007	293.01
1004.366	314.07
1004.726	332.79
1005.085	330.45
1005.444	262.58
1005.804	295.35
1006.163	321.09
1006.522	339.82
1006.881	346.84
1007.24	285.98
1007.599	325.77
1007.958	398.33
1008.317	304.71
1008.676	267.26
1009.035	358.54
1009.393	353.86
1009.752	339.82
1010.111	358.54
1010.469	349.18
1010.828	309.39
1011.186	307.05
1011.544	257.9
1011.903	304.71
1012.261	323.43
1012.619	318.75
1012.977	363.22
1013.335	339.82
1013.693	297.69
1014.051	353.86
1014.409	295.35
1014.767	293.01
1015.124	346.84
1015.482	274.28
1015.84	330.45
1016.197	288.32
1016.555	285.98
1016.912	356.2
1017.269	314.07
1017.627	346.84
1017.984	297.69
1018.341	321.09
1018.698	342.16
1019.055	330.45
1019.412	262.58
1019.769	236.83
1020.126	285.98
1020.483	311.73
1020.84	276.62
1021.196	365.56
1021.553	337.48
1021.909	325.77
1022.266	328.11
1022.622	293.01
1022.979	318.75
1023.335	393.65
1023.691	269.6
1024.047	281.3
1024.404	271.94
1024.76	314.07
1025.116	360.88
1025.472	339.82
1025.827	328.11
1026.183	328.11
1026.539	330.45
1026.895	349.18
1027.25	332.79
1027.606	290.67
1027.961	393.65
1028.317	314.07
1028.672	300.03
1029.028	302.37
1029.383	314.07
1029.738	304.71
1030.093	288.32
1030.448	239.17
1030.803	290.67
1031.158	325.77
1031.513	339.82
1031.868	381.95
1032.223	325.77
1032.577	314.07
1032.932	349.18
1033.287	285.98
1033.641	293.01
1033.996	358.54
1034.35	307.05
1034.704	267.26
1035.059	339.82
1035.413	332.79
1035.767	332.79
1036.121	332.79
