Data from Al_FLMS009871__757__15-15-03-626.txt Node

Date: Fri Mar 08 15:15:03 CST 2024
User: pe5414po
Spectrometer: FLMS00987
Trigger mode: 0
Integration Time (sec): 1.000000E-1
Scans to average: 1
Electric dark correction enabled: true
Nonlinearity correction enabled: false
Boxcar width: 0
XAxis mode: Wavelengths
Number of Pixels in Spectrum: 2048
>>>>>Begin Spectral Data<<<<<
188.938	-43.74
189.409	-43.74
189.879	-43.74
190.349	-113.95
190.819	-85.87
191.29	-118.64
191.76	-111.61
192.23	-29.7
192.7	-97.57
193.17	0.73
193.64	-90.55
194.109	-25.01
194.579	-8.63
195.049	10.09
195.519	49.88
195.988	49.88
196.458	40.52
196.927	59.24
197.397	82.65
197.866	138.82
198.336	49.88
198.805	171.59
199.274	185.63
199.744	183.29
200.213	216.06
200.682	213.72
201.151	265.21
201.62	244.15
202.089	220.74
202.558	283.94
203.027	220.74
203.495	293.3
203.964	213.72
204.433	230.1
204.902	349.47
205.37	272.23
205.839	312.02
206.307	347.13
206.776	328.41
207.244	255.85
207.712	279.26
208.181	326.07
208.649	274.57
209.117	241.81
209.585	302.66
210.053	248.83
210.521	319.04
210.989	312.02
211.457	323.73
211.925	312.02
212.393	253.51
212.861	255.85
213.328	241.81
213.796	295.64
214.264	326.07
214.731	255.85
215.199	265.21
215.666	323.73
216.133	258.19
216.601	319.04
217.068	274.57
217.535	302.66
218.003	276.91
218.47	258.19
218.937	255.85
219.404	227.76
219.871	232.44
220.338	351.81
220.805	230.1
221.271	283.94
221.738	321.38
222.205	309.68
222.671	253.51
223.138	248.83
223.605	297.98
224.071	251.17
224.538	241.81
225.004	307.34
225.47	295.64
225.937	290.96
226.403	267.55
226.869	290.96
227.335	267.55
227.801	276.91
228.267	260.53
228.733	323.73
229.199	312.02
229.665	220.74
230.131	309.68
230.597	248.83
231.062	248.83
231.528	344.79
231.994	211.38
232.459	269.89
232.925	244.15
233.39	220.74
233.856	258.19
234.321	295.64
234.786	290.96
235.252	246.49
235.717	253.51
236.182	314.36
236.647	290.96
237.112	269.89
237.577	260.53
238.042	293.3
238.507	239.47
238.972	283.94
239.436	342.45
239.901	281.6
240.366	279.26
240.83	267.55
241.295	293.3
241.76	239.47
242.224	330.75
242.688	328.41
243.153	295.64
243.617	274.57
244.081	244.15
244.545	269.89
245.01	307.34
245.474	248.83
245.938	279.26
246.402	241.81
246.866	375.22
247.33	286.28
247.793	234.78
248.257	262.87
248.721	300.32
249.185	269.89
249.648	305
250.112	288.62
250.575	269.89
251.039	340.11
251.502	290.96
251.965	319.04
252.429	276.91
252.892	272.23
253.355	274.57
253.818	293.3
254.281	340.11
254.744	262.87
255.207	288.62
255.67	335.43
256.133	312.02
256.596	330.75
257.059	307.34
257.522	206.7
257.984	248.83
258.447	255.85
258.909	288.62
259.372	286.28
259.834	260.53
260.297	267.55
260.759	368.2
261.221	267.55
261.684	267.55
262.146	351.81
262.608	276.91
263.07	246.49
263.532	262.87
263.994	314.36
264.456	319.04
264.918	253.51
265.38	307.34
265.842	251.17
266.303	309.68
266.765	260.53
267.227	321.38
267.688	253.51
268.15	295.64
268.611	241.81
269.072	258.19
269.534	283.94
269.995	269.89
270.456	244.15
270.918	314.36
271.379	337.77
271.84	283.94
272.301	323.73
272.762	312.02
273.223	323.73
273.684	269.89
274.144	293.3
274.605	309.68
275.066	293.3
275.527	281.6
275.987	379.9
276.448	283.94
276.908	321.38
277.369	269.89
277.829	265.21
278.289	319.04
278.75	288.62
279.21	354.15
279.67	295.64
280.13	312.02
280.59	279.26
281.05	276.91
281.51	286.28
281.97	347.13
282.43	283.94
282.89	262.87
283.35	220.74
283.809	300.32
284.269	330.75
284.729	279.26
285.188	269.89
285.648	300.32
286.107	279.26
286.567	265.21
287.026	272.23
287.485	309.68
287.944	283.94
288.404	290.96
288.863	312.02
289.322	288.62
289.781	241.81
290.24	260.53
290.699	293.3
291.158	302.66
291.616	323.73
292.075	305
292.534	295.64
292.992	288.62
293.451	279.26
293.91	272.23
294.368	253.51
294.827	244.15
295.285	267.55
295.743	290.96
296.202	283.94
296.66	269.89
297.118	283.94
297.576	286.28
298.034	302.66
298.492	340.11
298.95	319.04
299.408	307.34
299.866	258.19
300.324	326.07
300.781	307.34
301.239	344.79
301.697	244.15
302.154	333.09
302.612	286.28
303.069	309.68
303.527	197.34
303.984	335.43
304.441	286.28
304.899	333.09
305.356	344.79
305.813	274.57
306.27	272.23
306.727	319.04
307.184	272.23
307.641	314.36
308.098	307.34
308.555	312.02
309.012	326.07
309.468	288.62
309.925	342.45
310.382	305
310.838	321.38
311.295	328.41
311.751	314.36
312.208	281.6
312.664	234.78
313.12	302.66
313.577	288.62
314.033	290.96
314.489	288.62
314.945	316.7
315.401	255.85
315.857	295.64
316.313	288.62
316.769	295.64
317.225	272.23
317.681	288.62
318.136	286.28
318.592	309.68
319.048	272.23
319.503	312.02
319.959	267.55
320.414	290.96
320.869	260.53
321.325	335.43
321.78	321.38
322.235	300.32
322.691	265.21
323.146	342.45
323.601	361.17
324.056	330.75
324.511	269.89
324.966	293.3
325.421	319.04
325.875	244.15
326.33	302.66
326.785	323.73
327.24	372.88
327.694	302.66
328.149	349.47
328.603	330.75
329.058	295.64
329.512	258.19
329.966	297.98
330.421	293.3
330.875	269.89
331.329	328.41
331.783	328.41
332.237	295.64
332.691	363.51
333.145	276.91
333.599	344.79
334.053	283.94
334.507	290.96
334.96	286.28
335.414	262.87
335.868	286.28
336.321	340.11
336.775	307.34
337.228	295.64
337.682	358.83
338.135	361.17
338.588	297.98
339.042	314.36
339.495	314.36
339.948	363.51
340.401	323.73
340.854	309.68
341.307	295.64
341.76	337.77
342.213	309.68
342.666	192.66
343.119	326.07
343.571	328.41
344.024	372.88
344.477	279.26
344.929	300.32
345.382	347.13
345.834	335.43
346.287	361.17
346.739	305
347.191	330.75
347.644	321.38
348.096	356.49
348.548	337.77
349	314.36
349.452	368.2
349.904	321.38
350.356	302.66
350.808	297.98
351.26	300.32
351.711	279.26
352.163	302.66
352.615	312.02
353.066	323.73
353.518	312.02
353.969	309.68
354.421	358.83
354.872	293.3
355.324	305
355.775	283.94
356.226	372.88
356.677	269.89
357.128	354.15
357.579	379.9
358.03	316.7
358.481	281.6
358.932	333.09
359.383	272.23
359.834	337.77
360.285	323.73
360.735	269.89
361.186	272.23
361.637	316.7
362.087	354.15
362.538	272.23
362.988	319.04
363.438	283.94
363.889	356.49
364.339	361.17
364.789	312.02
365.239	344.79
365.689	330.75
366.139	260.53
366.589	300.32
367.039	307.34
367.489	319.04
367.939	358.83
368.389	351.81
368.839	302.66
369.288	370.54
369.738	396.28
370.187	312.02
370.637	314.36
371.086	330.75
371.536	309.68
371.985	349.47
372.434	302.66
372.884	276.91
373.333	279.26
373.782	312.02
374.231	316.7
374.68	312.02
375.129	267.55
375.578	305
376.027	335.43
376.475	295.64
376.924	316.7
377.373	314.36
377.822	281.6
378.27	328.41
378.719	337.77
379.167	361.17
379.616	220.74
380.064	293.3
380.512	265.21
380.961	312.02
381.409	337.77
381.857	295.64
382.305	340.11
382.753	288.62
383.201	344.79
383.649	312.02
384.097	328.41
384.545	279.26
384.992	361.17
385.44	253.51
385.888	344.79
386.335	349.47
386.783	272.23
387.231	356.49
387.678	307.34
388.125	370.54
388.573	316.7
389.02	279.26
389.467	363.51
389.914	328.41
390.362	379.9
390.809	370.54
391.256	309.68
391.703	286.28
392.15	274.57
392.596	276.91
393.043	253.51
393.49	302.66
393.937	286.28
394.383	349.47
394.83	295.64
395.276	283.94
395.723	340.11
396.169	276.91
396.616	274.57
397.062	314.36
397.508	297.98
397.954	307.34
398.401	286.28
398.847	274.57
399.293	356.49
399.739	323.73
400.185	328.41
400.631	309.68
401.076	368.2
401.522	330.75
401.968	305
402.414	363.51
402.859	251.17
403.305	330.75
403.75	265.21
404.196	262.87
404.641	305
405.086	314.36
405.532	368.2
405.977	340.11
406.422	321.38
406.867	276.91
407.312	300.32
407.757	326.07
408.202	358.83
408.647	326.07
409.092	286.28
409.537	349.47
409.982	337.77
410.426	349.47
410.871	305
411.316	309.68
411.76	316.7
412.205	354.15
412.649	354.15
413.093	267.55
413.538	344.79
413.982	333.09
414.426	286.28
414.87	258.19
415.314	309.68
415.758	323.73
416.202	239.47
416.646	314.36
417.09	337.77
417.534	335.43
417.978	276.91
418.421	286.28
418.865	347.13
419.309	349.47
419.752	258.19
420.196	361.17
420.639	333.09
421.083	358.83
421.526	363.51
421.969	337.77
422.412	314.36
422.856	319.04
423.299	321.38
423.742	234.78
424.185	312.02
424.628	319.04
425.071	344.79
425.513	340.11
425.956	330.75
426.399	288.62
426.842	269.89
427.284	309.68
427.727	265.21
428.169	391.6
428.612	333.09
429.054	286.28
429.497	368.2
429.939	344.79
430.381	314.36
430.823	351.81
431.265	309.68
431.707	307.34
432.149	333.09
432.591	305
433.033	262.87
433.475	288.62
433.917	272.23
434.359	319.04
434.8	342.45
435.242	302.66
435.684	309.68
436.125	340.11
436.567	354.15
437.008	290.96
437.449	316.7
437.891	349.47
438.332	297.98
438.773	323.73
439.214	363.51
439.656	337.77
440.097	321.38
440.538	333.09
440.978	258.19
441.419	337.77
441.86	330.75
442.301	279.26
442.742	314.36
443.182	328.41
443.623	316.7
444.063	293.3
444.504	300.32
444.944	319.04
445.385	283.94
445.825	361.17
446.265	316.7
446.706	368.2
447.146	354.15
447.586	297.98
448.026	286.28
448.466	319.04
448.906	372.88
449.346	351.81
449.786	314.36
450.225	309.68
450.665	326.07
451.105	309.68
451.544	370.54
451.984	337.77
452.424	269.89
452.863	262.87
453.302	340.11
453.742	305
454.181	321.38
454.62	305
455.059	330.75
455.499	363.51
455.938	305
456.377	321.38
456.816	272.23
457.254	368.2
457.693	333.09
458.132	361.17
458.571	302.66
459.01	293.3
459.448	363.51
459.887	314.36
460.325	309.68
460.764	288.62
461.202	354.15
461.641	351.81
462.079	267.55
462.517	326.07
462.955	281.6
463.393	375.22
463.832	347.13
464.27	295.64
464.708	314.36
465.145	400.96
465.583	274.57
466.021	340.11
466.459	295.64
466.897	295.64
467.334	295.64
467.772	354.15
468.209	293.3
468.647	379.9
469.084	356.49
469.522	323.73
469.959	319.04
470.396	340.11
470.833	309.68
471.271	354.15
471.708	375.22
472.145	358.83
472.582	279.26
473.019	316.7
473.456	351.81
473.892	297.98
474.329	382.24
474.766	379.9
475.202	379.9
475.639	351.81
476.076	384.58
476.512	267.55
476.949	314.36
477.385	309.68
477.821	351.81
478.258	321.38
478.694	333.09
479.13	305
479.566	279.26
480.002	319.04
480.438	307.34
480.874	267.55
481.31	328.41
481.746	281.6
482.181	330.75
482.617	398.62
483.053	351.81
483.488	302.66
483.924	265.21
484.36	330.75
484.795	375.22
485.23	300.32
485.666	269.89
486.101	293.3
486.536	330.75
486.971	321.38
487.407	349.47
487.842	286.28
488.277	307.34
488.712	321.38
489.146	316.7
489.581	344.79
490.016	262.87
490.451	272.23
490.885	302.66
491.32	351.81
491.755	351.81
492.189	297.98
492.624	335.43
493.058	330.75
493.492	323.73
493.927	305
494.361	262.87
494.795	337.77
495.229	344.79
495.663	281.6
496.097	337.77
496.531	391.6
496.965	330.75
497.399	305
497.833	297.98
498.266	349.47
498.7	328.41
499.134	330.75
499.567	309.68
500.001	286.28
500.434	316.7
500.868	326.07
501.301	335.43
501.734	307.34
502.168	356.49
502.601	333.09
503.034	337.77
503.467	290.96
503.9	234.78
504.333	335.43
504.766	309.68
505.199	377.56
505.632	265.21
506.064	312.02
506.497	356.49
506.93	279.26
507.362	302.66
507.795	349.47
508.227	326.07
508.66	307.34
509.092	356.49
509.524	297.98
509.956	307.34
510.389	305
510.821	309.68
511.253	368.2
511.685	286.28
512.117	309.68
512.549	370.54
512.981	302.66
513.412	307.34
513.844	323.73
514.276	293.3
514.707	365.85
515.139	316.7
515.571	319.04
516.002	281.6
516.433	307.34
516.865	274.57
517.296	347.13
517.727	368.2
518.159	335.43
518.59	290.96
519.021	265.21
519.452	330.75
519.883	316.7
520.314	379.9
520.744	335.43
521.175	302.66
521.606	330.75
522.037	276.91
522.467	314.36
522.898	333.09
523.328	312.02
523.759	302.66
524.189	351.81
524.62	300.32
525.05	337.77
525.48	340.11
525.91	358.83
526.341	347.13
526.771	349.47
527.201	316.7
527.631	307.34
528.061	330.75
528.49	358.83
528.92	307.34
529.35	370.54
529.78	323.73
530.209	279.26
530.639	335.43
531.068	276.91
531.498	337.77
531.927	333.09
532.357	276.91
532.786	342.45
533.215	379.9
533.644	321.38
534.074	272.23
534.503	319.04
534.932	379.9
535.361	347.13
535.79	302.66
536.218	340.11
536.647	326.07
537.076	361.17
537.505	265.21
537.933	354.15
538.362	312.02
538.79	295.64
539.219	323.73
539.647	349.47
540.076	262.87
540.504	312.02
540.932	351.81
541.36	319.04
541.788	386.92
542.217	326.07
542.645	330.75
543.073	295.64
543.5	316.7
543.928	354.15
544.356	379.9
544.784	312.02
545.211	347.13
545.639	286.28
546.067	361.17
546.494	323.73
546.922	340.11
547.349	321.38
547.776	305
548.204	314.36
548.631	328.41
549.058	349.47
549.485	307.34
549.912	305
550.339	323.73
550.766	340.11
551.193	312.02
551.62	375.22
552.047	272.23
552.474	314.36
552.9	293.3
553.327	354.15
553.754	330.75
554.18	297.98
554.607	305
555.033	340.11
555.459	342.45
555.886	326.07
556.312	370.54
556.738	333.09
557.164	340.11
557.59	286.28
558.016	309.68
558.442	305
558.868	319.04
559.294	307.34
559.72	351.81
560.145	335.43
560.571	286.28
560.997	354.15
561.422	365.85
561.848	314.36
562.273	347.13
562.699	333.09
563.124	370.54
563.549	410.33
563.974	290.96
564.4	293.3
564.825	337.77
565.25	356.49
565.675	295.64
566.1	312.02
566.525	335.43
566.95	302.66
567.374	326.07
567.799	314.36
568.224	307.34
568.648	276.91
569.073	283.94
569.497	314.36
569.922	337.77
570.346	384.58
570.771	370.54
571.195	302.66
571.619	323.73
572.043	297.98
572.467	386.92
572.891	342.45
573.315	288.62
573.739	276.91
574.163	342.45
574.587	330.75
575.011	295.64
575.435	300.32
575.858	333.09
576.282	351.81
576.705	344.79
577.129	337.77
577.552	260.53
577.976	365.85
578.399	342.45
578.822	347.13
579.245	260.53
579.669	300.32
580.092	358.83
580.515	300.32
580.938	363.51
581.361	309.68
581.784	368.2
582.206	302.66
582.629	321.38
583.052	267.55
583.474	340.11
583.897	316.7
584.32	302.66
584.742	335.43
585.165	286.28
585.587	265.21
586.009	276.91
586.431	344.79
586.854	337.77
587.276	295.64
587.698	279.26
588.12	267.55
588.542	342.45
588.964	335.43
589.386	281.6
589.807	361.17
590.229	351.81
590.651	272.23
591.073	347.13
591.494	279.26
591.916	272.23
592.337	370.54
592.759	358.83
593.18	269.89
593.601	267.55
594.022	316.7
594.444	347.13
594.865	246.49
595.286	309.68
595.707	309.68
596.128	319.04
596.549	349.47
596.97	293.3
597.39	241.81
597.811	330.75
598.232	274.57
598.652	307.34
599.073	312.02
599.494	328.41
599.914	302.66
600.334	391.6
600.755	356.49
601.175	368.2
601.595	335.43
602.015	335.43
602.436	286.28
602.856	452.45
603.276	297.98
603.696	379.9
604.115	295.64
604.535	389.26
604.955	283.94
605.375	365.85
605.794	281.6
606.214	365.85
606.634	361.17
607.053	358.83
607.473	330.75
607.892	321.38
608.311	265.21
608.731	290.96
609.15	288.62
609.569	307.34
609.988	293.3
610.407	377.56
610.826	302.66
611.245	379.9
611.664	379.9
612.083	354.15
612.501	321.38
612.92	283.94
613.339	389.26
613.757	356.49
614.176	379.9
614.594	316.7
615.013	326.07
615.431	356.49
615.85	316.7
616.268	290.96
616.686	328.41
617.104	351.81
617.522	283.94
617.94	375.22
618.358	354.15
618.776	279.26
619.194	328.41
619.612	307.34
620.03	335.43
620.447	258.19
620.865	398.62
621.282	335.43
621.7	370.54
622.117	361.17
622.535	337.77
622.952	309.68
623.369	314.36
623.787	290.96
624.204	230.1
624.621	307.34
625.038	358.83
625.455	361.17
625.872	293.3
626.289	328.41
626.706	356.49
627.123	265.21
627.539	356.49
627.956	344.79
628.373	312.02
628.789	321.38
629.206	274.57
629.622	335.43
630.038	290.96
630.455	293.3
630.871	283.94
631.287	386.92
631.703	267.55
632.12	316.7
632.536	293.3
632.952	312.02
633.368	372.88
633.783	272.23
634.199	272.23
634.615	283.94
635.031	316.7
635.446	319.04
635.862	391.6
636.277	358.83
636.693	386.92
637.108	351.81
637.524	349.47
637.939	290.96
638.354	344.79
638.77	307.34
639.185	290.96
639.6	302.66
640.015	288.62
640.43	234.78
640.845	333.09
641.259	372.88
641.674	265.21
642.089	342.45
642.504	302.66
642.918	281.6
643.333	300.32
643.747	297.98
644.162	342.45
644.576	321.38
644.991	363.51
645.405	410.33
645.819	347.13
646.233	309.68
646.647	358.83
647.061	300.32
647.475	365.85
647.889	344.79
648.303	349.47
648.717	335.43
649.131	349.47
649.545	321.38
649.958	286.28
650.372	302.66
650.785	356.49
651.199	283.94
651.612	297.98
652.026	356.49
652.439	363.51
652.852	316.7
653.266	344.79
653.679	319.04
654.092	321.38
654.505	319.04
654.918	356.49
655.331	342.45
655.744	279.26
656.156	274.57
656.569	293.3
656.982	344.79
657.394	300.32
657.807	314.36
658.22	326.07
658.632	293.3
659.044	328.41
659.457	274.57
659.869	253.51
660.281	305
660.693	279.26
661.106	321.38
661.518	372.88
661.93	274.57
662.342	286.28
662.754	267.55
663.165	316.7
663.577	323.73
663.989	312.02
664.401	305
664.812	305
665.224	328.41
665.635	305
666.047	302.66
666.458	356.49
666.869	286.28
667.281	340.11
667.692	309.68
668.103	354.15
668.514	326.07
668.925	319.04
669.336	363.51
669.747	223.08
670.158	281.6
670.569	328.41
670.979	307.34
671.39	323.73
671.801	300.32
672.211	269.89
672.622	246.49
673.032	361.17
673.443	356.49
673.853	396.28
674.263	328.41
674.674	312.02
675.084	314.36
675.494	321.38
675.904	321.38
676.314	293.3
676.724	349.47
677.134	262.87
677.544	269.89
677.953	312.02
678.363	321.38
678.773	368.2
679.182	312.02
679.592	305
680.001	340.11
680.411	382.24
680.82	321.38
681.23	283.94
681.639	333.09
682.048	344.79
682.457	323.73
682.866	349.47
683.275	297.98
683.684	328.41
684.093	258.19
684.502	300.32
684.911	340.11
685.32	258.19
685.728	377.56
686.137	337.77
686.546	297.98
686.954	293.3
687.363	290.96
687.771	279.26
688.179	302.66
688.588	342.45
688.996	330.75
689.404	344.79
689.812	314.36
690.22	321.38
690.628	309.68
691.036	260.53
691.444	323.73
691.852	305
692.26	349.47
692.667	335.43
693.075	323.73
693.483	333.09
693.89	290.96
694.298	302.66
694.705	375.22
695.112	328.41
695.52	300.32
695.927	340.11
696.334	312.02
696.741	312.02
697.148	358.83
697.555	307.34
697.962	326.07
698.369	326.07
698.776	349.47
699.183	321.38
699.59	361.17
699.996	272.23
700.403	305
700.81	335.43
701.216	326.07
701.623	300.32
702.029	312.02
702.435	314.36
702.842	286.28
703.248	267.55
703.654	288.62
704.06	321.38
704.466	309.68
704.872	328.41
705.278	337.77
705.684	337.77
706.09	265.21
706.496	307.34
706.901	354.15
707.307	279.26
707.712	260.53
708.118	316.7
708.523	347.13
708.929	365.85
709.334	361.17
709.74	272.23
710.145	276.91
710.55	326.07
710.955	297.98
711.36	309.68
711.765	326.07
712.17	276.91
712.575	319.04
712.98	782.47
713.385	288.62
713.789	342.45
714.194	300.32
714.599	321.38
715.003	337.77
715.408	342.45
715.812	276.91
716.217	326.07
716.621	396.28
717.025	283.94
717.429	342.45
717.833	314.36
718.238	290.96
718.642	340.11
719.046	288.62
719.449	309.68
719.853	323.73
720.257	335.43
720.661	283.94
721.065	290.96
721.468	321.38
721.872	290.96
722.275	319.04
722.679	316.7
723.082	326.07
723.485	326.07
723.889	316.7
724.292	382.24
724.695	342.45
725.098	295.64
725.501	267.55
725.904	305
726.307	328.41
726.71	333.09
727.113	328.41
727.516	276.91
727.918	290.96
728.321	340.11
728.724	305
729.126	255.85
729.529	393.94
729.931	316.7
730.333	335.43
730.736	216.06
731.138	293.3
731.54	316.7
731.942	361.17
732.344	239.47
732.746	321.38
733.148	340.11
733.55	365.85
733.952	319.04
734.354	328.41
734.756	349.47
735.157	326.07
735.559	312.02
735.96	297.98
736.362	279.26
736.763	316.7
737.165	337.77
737.566	246.49
737.967	281.6
738.368	384.58
738.77	347.13
739.171	363.51
739.572	330.75
739.973	288.62
740.374	349.47
740.774	363.51
741.175	276.91
741.576	335.43
741.977	314.36
742.377	297.98
742.778	309.68
743.178	281.6
743.579	337.77
743.979	342.45
744.379	300.32
744.78	307.34
745.18	321.38
745.58	307.34
745.98	276.91
746.38	326.07
746.78	333.09
747.18	293.3
747.58	290.96
747.98	333.09
748.38	356.49
748.779	295.64
749.179	354.15
749.578	363.51
749.978	253.51
750.377	297.98
750.777	319.04
751.176	319.04
751.575	276.91
751.975	297.98
752.374	370.54
752.773	391.6
753.172	321.38
753.571	295.64
753.97	333.09
754.369	323.73
754.768	337.77
755.166	279.26
755.565	328.41
755.964	314.36
756.362	389.26
756.761	358.83
757.159	328.41
757.558	326.07
757.956	356.49
758.354	342.45
758.753	400.96
759.151	368.2
759.549	295.64
759.947	330.75
760.345	281.6
760.743	333.09
761.141	307.34
761.539	290.96
761.936	372.88
762.334	321.38
762.732	281.6
763.129	314.36
763.527	363.51
763.924	300.32
764.322	307.34
764.719	316.7
765.117	244.15
765.514	281.6
765.911	316.7
766.308	290.96
766.705	272.23
767.102	335.43
767.499	312.02
767.896	281.6
768.293	340.11
768.69	344.79
769.086	403.3
769.483	274.57
769.88	269.89
770.276	312.02
770.673	290.96
771.069	372.88
771.466	330.75
771.862	319.04
772.258	307.34
772.654	283.94
773.05	281.6
773.447	330.75
773.843	265.21
774.239	267.55
774.634	283.94
775.03	302.66
775.426	340.11
775.822	312.02
776.218	272.23
776.613	330.75
777.009	354.15
777.404	279.26
777.8	302.66
778.195	340.11
778.59	386.92
778.986	309.68
779.381	319.04
779.776	302.66
780.171	293.3
780.566	274.57
780.961	312.02
781.356	237.13
781.751	312.02
782.146	297.98
782.54	358.83
782.935	344.79
783.33	283.94
783.724	358.83
784.119	370.54
784.513	330.75
784.908	337.77
785.302	377.56
785.696	297.98
786.09	276.91
786.485	255.85
786.879	363.51
787.273	354.15
787.667	309.68
788.061	309.68
788.454	302.66
788.848	309.68
789.242	244.15
789.636	255.85
790.029	283.94
790.423	340.11
790.816	241.81
791.21	321.38
791.603	297.98
791.997	251.17
792.39	283.94
792.783	290.96
793.176	283.94
793.569	253.51
793.962	342.45
794.355	363.51
794.748	297.98
795.141	265.21
795.534	340.11
795.927	347.13
796.319	300.32
796.712	267.55
797.105	363.51
797.497	321.38
797.89	312.02
798.282	340.11
798.674	300.32
799.067	290.96
799.459	288.62
799.851	321.38
800.243	297.98
800.635	274.57
801.027	302.66
801.419	314.36
801.811	354.15
802.203	319.04
802.594	288.62
802.986	307.34
803.378	305
803.769	267.55
804.161	297.98
804.552	286.28
804.944	272.23
805.335	258.19
805.726	323.73
806.118	319.04
806.509	333.09
806.9	307.34
807.291	365.85
807.682	309.68
808.073	372.88
808.464	300.32
808.855	314.36
809.245	316.7
809.636	283.94
810.027	309.68
810.417	260.53
810.808	290.96
811.198	272.23
811.589	293.3
811.979	307.34
812.369	365.85
812.759	274.57
813.15	283.94
813.54	307.34
813.93	281.6
814.32	283.94
814.71	265.21
815.1	274.57
815.489	328.41
815.879	330.75
816.269	307.34
816.658	340.11
817.048	321.38
817.438	316.7
817.827	321.38
818.216	365.85
818.606	335.43
818.995	330.75
819.384	272.23
819.773	209.04
820.163	251.17
820.552	351.81
820.941	302.66
821.33	312.02
821.718	307.34
822.107	295.64
822.496	309.68
822.885	321.38
823.273	288.62
823.662	253.51
824.05	216.06
824.439	312.02
824.827	269.89
825.216	328.41
825.604	274.57
825.992	293.3
826.38	293.3
826.768	337.77
827.156	265.21
827.544	312.02
827.932	293.3
828.32	344.79
828.708	316.7
829.096	363.51
829.483	293.3
829.871	297.98
830.259	375.22
830.646	295.64
831.034	262.87
831.421	297.98
831.808	281.6
832.196	340.11
832.583	272.23
832.97	316.7
833.357	295.64
833.744	340.11
834.131	302.66
834.518	335.43
834.905	272.23
835.292	393.94
835.678	302.66
836.065	293.3
836.452	309.68
836.838	316.7
837.225	354.15
837.611	326.07
837.998	279.26
838.384	312.02
838.77	314.36
839.157	276.91
839.543	323.73
839.929	314.36
840.315	326.07
840.701	356.49
841.087	267.55
841.473	314.36
841.858	333.09
842.244	319.04
842.63	316.7
843.015	319.04
843.401	384.58
843.787	262.87
844.172	316.7
844.557	309.68
844.943	255.85
845.328	363.51
845.713	316.7
846.098	286.28
846.483	349.47
846.868	326.07
847.253	309.68
847.638	300.32
848.023	314.36
848.408	405.64
848.793	347.13
849.177	354.15
849.562	293.3
849.947	328.41
850.331	335.43
850.715	344.79
851.1	356.49
851.484	400.96
851.868	321.38
852.253	305
852.637	407.98
853.021	368.2
853.405	328.41
853.789	274.57
854.173	295.64
854.557	351.81
854.94	344.79
855.324	312.02
855.708	335.43
856.091	319.04
856.475	384.58
856.858	347.13
857.242	321.38
857.625	319.04
858.009	274.57
858.392	340.11
858.775	330.75
859.158	260.53
859.541	283.94
859.924	340.11
860.307	307.34
860.69	335.43
861.073	319.04
861.456	349.47
861.838	307.34
862.221	351.81
862.604	286.28
862.986	297.98
863.369	232.44
863.751	314.36
864.133	319.04
864.516	314.36
864.898	347.13
865.28	295.64
865.662	281.6
866.044	358.83
866.426	253.51
866.808	340.11
867.19	253.51
867.572	354.15
867.954	293.3
868.336	330.75
868.717	265.21
869.099	251.17
869.48	234.78
869.862	354.15
870.243	283.94
870.625	260.53
871.006	323.73
871.387	283.94
871.768	272.23
872.149	340.11
872.53	295.64
872.911	281.6
873.292	279.26
873.673	288.62
874.054	279.26
874.435	300.32
874.815	307.34
875.196	290.96
875.577	393.94
875.957	314.36
876.338	312.02
876.718	356.49
877.098	307.34
877.479	363.51
877.859	309.68
878.239	307.34
878.619	288.62
878.999	258.19
879.379	337.77
879.759	312.02
880.139	342.45
880.519	351.81
880.898	267.55
881.278	302.66
881.658	344.79
882.037	300.32
882.417	351.81
882.796	295.64
883.176	293.3
883.555	342.45
883.934	330.75
884.313	365.85
884.693	319.04
885.072	274.57
885.451	319.04
885.83	297.98
886.209	274.57
886.587	368.2
886.966	312.02
887.345	297.98
887.724	323.73
888.102	288.62
888.481	312.02
888.859	251.17
889.238	314.36
889.616	342.45
889.994	300.32
890.373	326.07
890.751	295.64
891.129	337.77
891.507	225.42
891.885	330.75
892.263	333.09
892.641	337.77
893.019	344.79
893.396	349.47
893.774	321.38
894.152	342.45
894.529	283.94
894.907	328.41
895.284	326.07
895.662	344.79
896.039	314.36
896.416	326.07
896.794	335.43
897.171	319.04
897.548	290.96
897.925	258.19
898.302	361.17
898.679	375.22
899.056	237.13
899.433	358.83
899.809	267.55
900.186	333.09
900.563	297.98
900.939	312.02
901.316	354.15
901.692	333.09
902.069	347.13
902.445	319.04
902.821	302.66
903.197	365.85
903.574	272.23
903.95	326.07
904.326	316.7
904.702	283.94
905.078	265.21
905.454	326.07
905.829	305
906.205	281.6
906.581	279.26
906.956	302.66
907.332	370.54
907.707	333.09
908.083	307.34
908.458	305
908.833	335.43
909.209	267.55
909.584	337.77
909.959	337.77
910.334	356.49
910.709	258.19
911.084	295.64
911.459	265.21
911.834	274.57
912.209	354.15
912.583	305
912.958	337.77
913.333	288.62
913.707	312.02
914.082	286.28
914.456	253.51
914.83	330.75
915.205	267.55
915.579	335.43
915.953	272.23
916.327	269.89
916.701	386.92
917.075	272.23
917.449	300.32
917.823	335.43
918.197	333.09
918.571	344.79
918.944	307.34
919.318	307.34
919.692	253.51
920.065	305
920.438	272.23
920.812	305
921.185	309.68
921.558	283.94
921.932	342.45
922.305	288.62
922.678	286.28
923.051	349.47
923.424	330.75
923.797	351.81
924.17	356.49
924.542	309.68
924.915	335.43
925.288	255.85
925.661	295.64
926.033	335.43
926.406	307.34
926.778	267.55
927.15	330.75
927.523	253.51
927.895	295.64
928.267	290.96
928.639	305
929.011	307.34
929.383	326.07
929.755	337.77
930.127	283.94
930.499	258.19
930.871	286.28
931.242	351.81
931.614	251.17
931.986	340.11
932.357	262.87
932.729	328.41
933.1	347.13
933.471	356.49
933.843	316.7
934.214	283.94
934.585	335.43
934.956	274.57
935.327	316.7
935.698	305
936.069	265.21
936.44	281.6
936.811	307.34
937.182	309.68
937.552	286.28
937.923	269.89
938.293	232.44
938.664	290.96
939.034	279.26
939.405	323.73
939.775	300.32
940.145	333.09
940.516	326.07
940.886	305
941.256	290.96
941.626	349.47
941.996	351.81
942.366	328.41
942.735	305
943.105	297.98
943.475	288.62
943.845	319.04
944.214	293.3
944.584	323.73
944.953	300.32
945.323	281.6
945.692	288.62
946.061	293.3
946.43	202.02
946.8	316.7
947.169	265.21
947.538	272.23
947.907	302.66
948.276	300.32
948.645	347.13
949.013	279.26
949.382	279.26
949.751	335.43
950.119	358.83
950.488	368.2
950.857	258.19
951.225	300.32
951.593	286.28
951.962	279.26
952.33	297.98
952.698	290.96
953.066	321.38
953.434	328.41
953.802	356.49
954.17	337.77
954.538	269.89
954.906	312.02
955.274	321.38
955.642	269.89
956.009	335.43
956.377	290.96
956.744	283.94
957.112	316.7
957.479	248.83
957.847	305
958.214	260.53
958.581	288.62
958.948	319.04
959.315	337.77
959.683	305
960.05	253.51
960.416	333.09
960.783	288.62
961.15	316.7
961.517	314.36
961.884	321.38
962.25	281.6
962.617	305
962.983	281.6
963.35	309.68
963.716	340.11
964.082	344.79
964.449	365.85
964.815	326.07
965.181	302.66
965.547	223.08
965.913	333.09
966.279	321.38
966.645	309.68
967.011	269.89
967.377	286.28
967.742	337.77
968.108	368.2
968.474	316.7
968.839	281.6
969.205	267.55
969.57	312.02
969.935	307.34
970.301	248.83
970.666	349.47
971.031	328.41
971.396	312.02
971.761	286.28
972.126	351.81
972.491	321.38
972.856	307.34
973.221	279.26
973.586	361.17
973.95	319.04
974.315	349.47
974.679	295.64
975.044	309.68
975.408	342.45
975.773	302.66
976.137	288.62
976.501	309.68
976.866	312.02
977.23	323.73
977.594	307.34
977.958	267.55
978.322	293.3
978.686	283.94
979.049	286.28
979.413	342.45
979.777	323.73
980.141	297.98
980.504	312.02
980.868	384.58
981.231	300.32
981.595	351.81
981.958	286.28
982.321	335.43
982.684	265.21
983.048	255.85
983.411	342.45
983.774	314.36
984.137	305
984.5	307.34
984.862	293.3
985.225	319.04
985.588	305
985.951	295.64
986.313	351.81
986.676	260.53
987.038	283.94
987.401	286.28
987.763	295.64
988.125	281.6
988.488	351.81
988.85	316.7
989.212	314.36
989.574	314.36
989.936	297.98
990.298	286.28
990.66	276.91
991.022	351.81
991.383	300.32
991.745	333.09
992.107	286.28
992.468	328.41
992.83	333.09
993.191	288.62
993.553	281.6
993.914	342.45
994.275	269.89
994.637	337.77
994.998	342.45
995.359	283.94
995.72	290.96
996.081	262.87
996.442	274.57
996.803	290.96
997.163	316.7
997.524	293.3
997.885	349.47
998.245	330.75
998.606	293.3
998.966	290.96
999.327	372.88
999.687	321.38
1000.047	274.57
1000.408	293.3
1000.768	302.66
1001.128	272.23
1001.488	293.3
1001.848	302.66
1002.208	227.76
1002.568	321.38
1002.927	209.04
1003.287	372.88
1003.647	321.38
1004.007	326.07
1004.366	312.02
1004.726	321.38
1005.085	370.54
1005.444	302.66
1005.804	337.77
1006.163	232.44
1006.522	255.85
1006.881	300.32
1007.24	326.07
1007.599	255.85
1007.958	290.96
1008.317	307.34
1008.676	265.21
1009.035	347.13
1009.393	340.11
1009.752	330.75
1010.111	244.15
1010.469	312.02
1010.828	377.56
1011.186	307.34
1011.544	349.47
1011.903	297.98
1012.261	344.79
1012.619	274.57
1012.977	262.87
1013.335	349.47
1013.693	309.68
1014.051	281.6
1014.409	312.02
1014.767	274.57
1015.124	330.75
1015.482	302.66
1015.84	302.66
1016.197	340.11
1016.555	340.11
1016.912	302.66
1017.269	372.88
1017.627	340.11
1017.984	340.11
1018.341	302.66
1018.698	312.02
1019.055	276.91
1019.412	283.94
1019.769	251.17
1020.126	293.3
1020.483	312.02
1020.84	286.28
1021.196	344.79
1021.553	365.85
1021.909	293.3
1022.266	293.3
1022.622	300.32
1022.979	337.77
1023.335	386.92
1023.691	330.75
1024.047	312.02
1024.404	330.75
1024.76	293.3
1025.116	316.7
1025.472	312.02
1025.827	255.85
1026.183	269.89
1026.539	218.4
1026.895	295.64
1027.25	283.94
1027.606	344.79
1027.961	267.55
1028.317	283.94
1028.672	290.96
1029.028	316.7
1029.383	337.77
1029.738	314.36
1030.093	269.89
1030.448	312.02
1030.803	337.77
1031.158	340.11
1031.513	347.13
1031.868	309.68
1032.223	302.66
1032.577	283.94
1032.932	316.7
1033.287	358.83
1033.641	340.11
1033.996	265.21
1034.35	312.02
1034.704	295.64
1035.059	288.62
1035.413	372.88
1035.767	372.88
1036.121	372.88
