Data from Al_FLMS009871__753__15-15-03-226.txt Node

Date: Fri Mar 08 15:15:03 CST 2024
User: pe5414po
Spectrometer: FLMS00987
Trigger mode: 0
Integration Time (sec): 1.000000E-1
Scans to average: 1
Electric dark correction enabled: true
Nonlinearity correction enabled: false
Boxcar width: 0
XAxis mode: Wavelengths
Number of Pixels in Spectrum: 2048
>>>>>Begin Spectral Data<<<<<
188.938	3.51
189.409	3.51
189.879	3.51
190.349	-129.9
190.819	-127.56
191.29	-90.11
191.76	-108.83
192.23	-26.92
192.7	-108.83
193.17	-38.62
193.64	-15.21
194.109	-66.71
194.579	-19.89
195.049	64.36
195.519	43.3
195.988	-24.58
196.458	24.58
196.927	71.39
197.397	66.71
197.866	90.11
198.336	139.26
198.805	169.69
199.274	193.09
199.744	186.07
200.213	211.82
200.682	188.41
201.151	190.75
201.62	211.82
202.089	225.86
202.558	216.5
203.027	228.2
203.495	279.69
203.964	300.76
204.433	279.69
204.902	275.01
205.37	307.78
205.839	300.76
206.307	279.69
206.776	319.48
207.244	331.19
207.712	300.76
208.181	275.01
208.649	328.85
209.117	256.29
209.585	321.82
210.053	256.29
210.521	270.33
210.989	326.5
211.457	289.06
211.925	256.29
212.393	228.2
212.861	310.12
213.328	286.72
213.796	296.08
214.264	321.82
214.731	307.78
215.199	335.87
215.666	305.44
216.133	305.44
216.601	289.06
217.068	258.63
217.535	319.48
218.003	193.09
218.47	272.67
218.937	282.03
219.404	310.12
219.871	293.74
220.338	263.31
220.805	307.78
221.271	317.14
221.738	326.5
222.205	317.14
222.671	279.69
223.138	258.63
223.605	211.82
224.071	249.27
224.538	291.4
225.004	225.86
225.47	225.86
225.937	239.9
226.403	263.31
226.869	200.12
227.335	340.55
227.801	298.42
228.267	272.67
228.733	279.69
229.199	246.93
229.665	260.97
230.131	263.31
230.597	200.12
231.062	258.63
231.528	279.69
231.994	267.99
232.459	265.65
232.925	200.12
233.39	282.03
233.856	225.86
234.321	263.31
234.786	270.33
235.252	289.06
235.717	260.97
236.182	270.33
236.647	293.74
237.112	319.48
237.577	277.35
238.042	277.35
238.507	263.31
238.972	251.61
239.436	223.52
239.901	258.63
240.366	267.99
240.83	331.19
241.295	244.59
241.76	305.44
242.224	305.44
242.688	305.44
243.153	335.87
243.617	214.16
244.081	291.4
244.545	263.31
245.01	286.72
245.474	324.16
245.938	267.99
246.402	331.19
246.866	335.87
247.33	267.99
247.793	319.48
248.257	249.27
248.721	340.55
249.185	310.12
249.648	225.86
250.112	326.5
250.575	291.4
251.039	260.97
251.502	260.97
251.965	293.74
252.429	296.08
252.892	242.25
253.355	188.41
253.818	282.03
254.281	335.87
254.744	249.27
255.207	319.48
255.67	289.06
256.133	289.06
256.596	239.9
257.059	319.48
257.522	275.01
257.984	319.48
258.447	300.76
258.909	267.99
259.372	237.56
259.834	270.33
260.297	242.25
260.759	284.38
261.221	267.99
261.684	237.56
262.146	263.31
262.608	282.03
263.07	284.38
263.532	347.57
263.994	326.5
264.456	331.19
264.918	260.97
265.38	246.93
265.842	209.48
266.303	282.03
266.765	242.25
267.227	230.54
267.688	317.14
268.15	223.52
268.611	237.56
269.072	314.8
269.534	310.12
269.995	333.53
270.456	282.03
270.918	237.56
271.379	310.12
271.84	270.33
272.301	338.21
272.762	270.33
273.223	275.01
273.684	265.65
274.144	249.27
274.605	284.38
275.066	296.08
275.527	317.14
275.987	303.1
276.448	267.99
276.908	232.88
277.369	352.25
277.829	286.72
278.289	293.74
278.75	286.72
279.21	263.31
279.67	277.35
280.13	361.61
280.59	270.33
281.05	253.95
281.51	363.95
281.97	305.44
282.43	300.76
282.89	286.72
283.35	307.78
283.809	300.76
284.269	235.22
284.729	293.74
285.188	258.63
285.648	291.4
286.107	246.93
286.567	312.46
287.026	293.74
287.485	333.53
287.944	275.01
288.404	298.42
288.863	303.1
289.322	289.06
289.781	277.35
290.24	275.01
290.699	277.35
291.158	335.87
291.616	291.4
292.075	253.95
292.534	284.38
292.992	282.03
293.451	272.67
293.91	331.19
294.368	354.59
294.827	335.87
295.285	289.06
295.743	321.82
296.202	321.82
296.66	277.35
297.118	263.31
297.576	286.72
298.034	284.38
298.492	345.23
298.95	352.25
299.408	279.69
299.866	319.48
300.324	275.01
300.781	282.03
301.239	328.85
301.697	319.48
302.154	298.42
302.612	251.61
303.069	275.01
303.527	246.93
303.984	284.38
304.441	399.06
304.899	296.08
305.356	289.06
305.813	279.69
306.27	223.52
306.727	310.12
307.184	244.59
307.641	314.8
308.098	352.25
308.555	408.42
309.012	275.01
309.468	335.87
309.925	286.72
310.382	286.72
310.838	314.8
311.295	331.19
311.751	347.57
312.208	267.99
312.664	352.25
313.12	310.12
313.577	354.59
314.033	242.25
314.489	249.27
314.945	333.53
315.401	326.5
315.857	347.57
316.313	291.4
316.769	342.89
317.225	221.18
317.681	291.4
318.136	326.5
318.592	335.87
319.048	286.72
319.503	300.76
319.959	340.55
320.414	314.8
320.869	319.48
321.325	333.53
321.78	335.87
322.235	265.65
322.691	296.08
323.146	378
323.601	328.85
324.056	272.67
324.511	270.33
324.966	282.03
325.421	312.46
325.875	298.42
326.33	298.42
326.785	225.86
327.24	326.5
327.694	312.46
328.149	328.85
328.603	310.12
329.058	214.16
329.512	277.35
329.966	195.43
330.421	331.19
330.875	312.46
331.329	305.44
331.783	328.85
332.237	347.57
332.691	321.82
333.145	317.14
333.599	225.86
334.053	260.97
334.507	307.78
334.96	256.29
335.414	347.57
335.868	293.74
336.321	286.72
336.775	272.67
337.228	293.74
337.682	279.69
338.135	312.46
338.588	333.53
339.042	307.78
339.495	289.06
339.948	314.8
340.401	307.78
340.854	314.8
341.307	319.48
341.76	319.48
342.213	347.57
342.666	258.63
343.119	258.63
343.571	293.74
344.024	307.78
344.477	359.27
344.929	328.85
345.382	277.35
345.834	326.5
346.287	305.44
346.739	378
347.191	368.63
347.644	356.93
348.096	338.21
348.548	296.08
349	321.82
349.452	317.14
349.904	331.19
350.356	237.56
350.808	291.4
351.26	260.97
351.711	230.54
352.163	335.87
352.615	289.06
353.066	307.78
353.518	347.57
353.969	272.67
354.421	277.35
354.872	235.22
355.324	291.4
355.775	345.23
356.226	373.32
356.677	286.72
357.128	289.06
357.579	317.14
358.03	300.76
358.481	314.8
358.932	291.4
359.383	286.72
359.834	296.08
360.285	349.91
360.735	333.53
361.186	363.95
361.637	305.44
362.087	277.35
362.538	349.91
362.988	272.67
363.438	352.25
363.889	286.72
364.339	338.21
364.789	331.19
365.239	284.38
365.689	385.02
366.139	314.8
366.589	204.8
367.039	340.55
367.489	275.01
367.939	354.59
368.389	253.95
368.839	314.8
369.288	317.14
369.738	378
370.187	328.85
370.637	293.74
371.086	310.12
371.536	305.44
371.985	303.1
372.434	251.61
372.884	335.87
373.333	387.36
373.782	324.16
374.231	293.74
374.68	333.53
375.129	361.61
375.578	293.74
376.027	370.97
376.475	345.23
376.924	263.31
377.373	230.54
377.822	340.55
378.27	328.85
378.719	342.89
379.167	265.65
379.616	300.76
380.064	251.61
380.512	317.14
380.961	300.76
381.409	298.42
381.857	293.74
382.305	314.8
382.753	300.76
383.201	256.29
383.649	300.76
384.097	363.95
384.545	249.27
384.992	293.74
385.44	349.91
385.888	368.63
386.335	319.48
386.783	310.12
387.231	331.19
387.678	345.23
388.125	340.55
388.573	284.38
389.02	256.29
389.467	284.38
389.914	356.93
390.362	279.69
390.809	293.74
391.256	303.1
391.703	345.23
392.15	345.23
392.596	380.34
393.043	303.1
393.49	354.59
393.937	399.06
394.383	333.53
394.83	328.85
395.276	317.14
395.723	296.08
396.169	282.03
396.616	310.12
397.062	349.91
397.508	342.89
397.954	338.21
398.401	284.38
398.847	307.78
399.293	293.74
399.739	347.57
400.185	307.78
400.631	303.1
401.076	300.76
401.522	387.36
401.968	354.59
402.414	333.53
402.859	307.78
403.305	321.82
403.75	312.46
404.196	361.61
404.641	314.8
405.086	300.76
405.532	284.38
405.977	293.74
406.422	370.97
406.867	380.34
407.312	345.23
407.757	331.19
408.202	312.46
408.647	394.38
409.092	272.67
409.537	328.85
409.982	349.91
410.426	349.91
410.871	340.55
411.316	345.23
411.76	251.61
412.205	326.5
412.649	326.5
413.093	298.42
413.538	342.89
413.982	338.21
414.426	258.63
414.87	385.02
415.314	314.8
415.758	258.63
416.202	317.14
416.646	380.34
417.09	326.5
417.534	314.8
417.978	296.08
418.421	258.63
418.865	338.21
419.309	272.67
419.752	272.67
420.196	338.21
420.639	366.29
421.083	335.87
421.526	270.33
421.969	363.95
422.412	284.38
422.856	275.01
423.299	347.57
423.742	305.44
424.185	310.12
424.628	345.23
425.071	392.04
425.513	293.74
425.956	296.08
426.399	349.91
426.842	328.85
427.284	282.03
427.727	321.82
428.169	310.12
428.612	289.06
429.054	335.87
429.497	335.87
429.939	331.19
430.381	312.46
430.823	258.63
431.265	352.25
431.707	267.99
432.149	373.32
432.591	298.42
433.033	342.89
433.475	305.44
433.917	272.67
434.359	361.61
434.8	347.57
435.242	328.85
435.684	319.48
436.125	335.87
436.567	347.57
437.008	345.23
437.449	321.82
437.891	406.08
438.332	296.08
438.773	279.69
439.214	389.7
439.656	392.04
440.097	335.87
440.538	310.12
440.978	361.61
441.419	342.89
441.86	319.48
442.301	272.67
442.742	340.55
443.182	338.21
443.623	352.25
444.063	321.82
444.504	317.14
444.944	340.55
445.385	363.95
445.825	361.61
446.265	293.74
446.706	305.44
447.146	307.78
447.586	413.1
448.026	300.76
448.466	326.5
448.906	314.8
449.346	282.03
449.786	228.2
450.225	326.5
450.665	319.48
451.105	328.85
451.544	293.74
451.984	317.14
452.424	342.89
452.863	256.29
453.302	279.69
453.742	265.65
454.181	314.8
454.62	324.16
455.059	326.5
455.499	263.31
455.938	340.55
456.377	338.21
456.816	263.31
457.254	338.21
457.693	326.5
458.132	256.29
458.571	298.42
459.01	284.38
459.448	326.5
459.887	356.93
460.325	378
460.764	272.67
461.202	335.87
461.641	324.16
462.079	289.06
462.517	312.46
462.955	284.38
463.393	314.8
463.832	352.25
464.27	310.12
464.708	307.78
465.145	335.87
465.583	286.72
466.021	286.72
466.459	303.1
466.897	291.4
467.334	324.16
467.772	253.95
468.209	333.53
468.647	326.5
469.084	326.5
469.522	305.44
469.959	312.46
470.396	370.97
470.833	333.53
471.271	352.25
471.708	370.97
472.145	345.23
472.582	370.97
473.019	319.48
473.456	296.08
473.892	300.76
474.329	366.29
474.766	291.4
475.202	279.69
475.639	338.21
476.076	335.87
476.512	317.14
476.949	331.19
477.385	310.12
477.821	335.87
478.258	356.93
478.694	333.53
479.13	312.46
479.566	307.78
480.002	366.29
480.438	340.55
480.874	286.72
481.31	312.46
481.746	310.12
482.181	312.46
482.617	382.68
483.053	366.29
483.488	317.14
483.924	303.1
484.36	270.33
484.795	305.44
485.23	265.65
485.666	314.8
486.101	340.55
486.536	356.93
486.971	239.9
487.407	265.65
487.842	282.03
488.277	335.87
488.712	317.14
489.146	305.44
489.581	326.5
490.016	359.27
490.451	338.21
490.885	310.12
491.32	356.93
491.755	333.53
492.189	298.42
492.624	340.55
493.058	382.68
493.492	317.14
493.927	286.72
494.361	319.48
494.795	303.1
495.229	272.67
495.663	296.08
496.097	338.21
496.531	293.74
496.965	284.38
497.399	312.46
497.833	253.95
498.266	363.95
498.7	289.06
499.134	321.82
499.567	354.59
500.001	363.95
500.434	333.53
500.868	338.21
501.301	373.32
501.734	296.08
502.168	310.12
502.601	272.67
503.034	340.55
503.467	324.16
503.9	286.72
504.333	289.06
504.766	317.14
505.199	317.14
505.632	291.4
506.064	356.93
506.497	296.08
506.93	300.76
507.362	300.76
507.795	335.87
508.227	298.42
508.66	272.67
509.092	293.74
509.524	265.65
509.956	342.89
510.389	342.89
510.821	265.65
511.253	312.46
511.685	256.29
512.117	314.8
512.549	333.53
512.981	317.14
513.412	326.5
513.844	289.06
514.276	310.12
514.707	375.66
515.139	296.08
515.571	305.44
516.002	272.67
516.433	331.19
516.865	340.55
517.296	347.57
517.727	230.54
518.159	396.72
518.59	270.33
519.021	289.06
519.452	307.78
519.883	267.99
520.314	228.2
520.744	305.44
521.175	324.16
521.606	333.53
522.037	333.53
522.467	317.14
522.898	282.03
523.328	338.21
523.759	305.44
524.189	230.54
524.62	310.12
525.05	270.33
525.48	340.55
525.91	267.99
526.341	333.53
526.771	331.19
527.201	361.61
527.631	331.19
528.061	305.44
528.49	291.4
528.92	345.23
529.35	291.4
529.78	392.04
530.209	338.21
530.639	331.19
531.068	352.25
531.498	275.01
531.927	319.48
532.357	307.78
532.786	317.14
533.215	338.21
533.644	335.87
534.074	349.91
534.503	356.93
534.932	314.8
535.361	326.5
535.79	310.12
536.218	303.1
536.647	284.38
537.076	267.99
537.505	277.35
537.933	363.95
538.362	289.06
538.79	251.61
539.219	361.61
539.647	296.08
540.076	253.95
540.504	282.03
540.932	282.03
541.36	291.4
541.788	366.29
542.217	279.69
542.645	321.82
543.073	303.1
543.5	279.69
543.928	312.46
544.356	347.57
544.784	392.04
545.211	359.27
545.639	305.44
546.067	251.61
546.494	335.87
546.922	333.53
547.349	382.68
547.776	300.76
548.204	263.31
548.631	282.03
549.058	310.12
549.485	361.61
549.912	345.23
550.339	373.32
550.766	265.65
551.193	293.74
551.62	314.8
552.047	263.31
552.474	282.03
552.9	359.27
553.327	331.19
553.754	328.85
554.18	321.82
554.607	312.46
555.033	354.59
555.459	331.19
555.886	345.23
556.312	406.08
556.738	312.46
557.164	286.72
557.59	345.23
558.016	267.99
558.442	293.74
558.868	317.14
559.294	305.44
559.72	305.44
560.145	333.53
560.571	354.59
560.997	244.59
561.422	338.21
561.848	319.48
562.273	324.16
562.699	310.12
563.124	331.19
563.549	387.36
563.974	321.82
564.4	342.89
564.825	321.82
565.25	307.78
565.675	326.5
566.1	331.19
566.525	375.66
566.95	335.87
567.374	324.16
567.799	324.16
568.224	265.65
568.648	321.82
569.073	342.89
569.497	291.4
569.922	356.93
570.346	307.78
570.771	279.69
571.195	333.53
571.619	307.78
572.043	331.19
572.467	347.57
572.891	286.72
573.315	282.03
573.739	258.63
574.163	321.82
574.587	298.42
575.011	300.76
575.435	321.82
575.858	342.89
576.282	368.63
576.705	342.89
577.129	392.04
577.552	335.87
577.976	324.16
578.399	321.82
578.822	356.93
579.245	328.85
579.669	375.66
580.092	380.34
580.515	345.23
580.938	293.74
581.361	363.95
581.784	335.87
582.206	356.93
582.629	375.66
583.052	363.95
583.474	333.53
583.897	333.53
584.32	307.78
584.742	378
585.165	347.57
585.587	319.48
586.009	380.34
586.431	310.12
586.854	289.06
587.276	331.19
587.698	354.59
588.12	361.61
588.542	326.5
588.964	300.76
589.386	345.23
589.807	296.08
590.229	310.12
590.651	291.4
591.073	321.82
591.494	319.48
591.916	324.16
592.337	349.91
592.759	270.33
593.18	363.95
593.601	293.74
594.022	296.08
594.444	317.14
594.865	352.25
595.286	333.53
595.707	321.82
596.128	389.7
596.549	370.97
596.97	286.72
597.39	328.85
597.811	317.14
598.232	277.35
598.652	263.31
599.073	328.85
599.494	331.19
599.914	352.25
600.334	370.97
600.755	321.82
601.175	345.23
601.595	349.91
602.015	370.97
602.436	338.21
602.856	415.45
603.276	310.12
603.696	331.19
604.115	314.8
604.535	321.82
604.955	335.87
605.375	349.91
605.794	303.1
606.214	324.16
606.634	298.42
607.053	356.93
607.473	312.46
607.892	284.38
608.311	277.35
608.731	286.72
609.15	335.87
609.569	335.87
609.988	359.27
610.407	375.66
610.826	352.25
611.245	324.16
611.664	314.8
612.083	284.38
612.501	326.5
612.92	272.67
613.339	352.25
613.757	319.48
614.176	345.23
614.594	333.53
615.013	340.55
615.431	319.48
615.85	317.14
616.268	300.76
616.686	333.53
617.104	270.33
617.522	317.14
617.94	361.61
618.358	279.69
618.776	300.76
619.194	342.89
619.612	352.25
620.03	328.85
620.447	296.08
620.865	260.97
621.282	324.16
621.7	375.66
622.117	317.14
622.535	324.16
622.952	333.53
623.369	286.72
623.787	312.46
624.204	291.4
624.621	324.16
625.038	356.93
625.455	310.12
625.872	289.06
626.289	246.93
626.706	361.61
627.123	331.19
627.539	312.46
627.956	333.53
628.373	321.82
628.789	319.48
629.206	368.63
629.622	331.19
630.038	338.21
630.455	279.69
630.871	307.78
631.287	331.19
631.703	284.38
632.12	363.95
632.536	328.85
632.952	342.89
633.368	298.42
633.783	284.38
634.199	310.12
634.615	331.19
635.031	347.57
635.446	263.31
635.862	260.97
636.277	317.14
636.693	321.82
637.108	303.1
637.524	331.19
637.939	282.03
638.354	258.63
638.77	321.82
639.185	303.1
639.6	260.97
640.015	260.97
640.43	310.12
640.845	307.78
641.259	312.46
641.674	328.85
642.089	342.89
642.504	331.19
642.918	253.95
643.333	298.42
643.747	307.78
644.162	319.48
644.576	340.55
644.991	354.59
645.405	249.27
645.819	319.48
646.233	335.87
646.647	317.14
647.061	319.48
647.475	342.89
647.889	312.46
648.303	338.21
648.717	356.93
649.131	317.14
649.545	366.29
649.958	340.55
650.372	363.95
650.785	284.38
651.199	356.93
651.612	275.01
652.026	331.19
652.439	328.85
652.852	326.5
653.266	349.91
653.679	317.14
654.092	303.1
654.505	317.14
654.918	366.29
655.331	321.82
655.744	356.93
656.156	293.74
656.569	338.21
656.982	307.78
657.394	312.46
657.807	326.5
658.22	373.32
658.632	293.74
659.044	272.67
659.457	368.63
659.869	300.76
660.281	347.57
660.693	326.5
661.106	368.63
661.518	331.19
661.93	279.69
662.342	387.36
662.754	352.25
663.165	354.59
663.577	335.87
663.989	352.25
664.401	275.01
664.812	333.53
665.224	356.93
665.635	310.12
666.047	361.61
666.458	275.01
666.869	221.18
667.281	293.74
667.692	378
668.103	352.25
668.514	392.04
668.925	319.48
669.336	321.82
669.747	298.42
670.158	328.85
670.569	282.03
670.979	284.38
671.39	312.46
671.801	408.42
672.211	284.38
672.622	279.69
673.032	331.19
673.443	279.69
673.853	291.4
674.263	382.68
674.674	310.12
675.084	303.1
675.494	338.21
675.904	335.87
676.314	370.97
676.724	340.55
677.134	293.74
677.544	335.87
677.953	347.57
678.363	296.08
678.773	331.19
679.182	321.82
679.592	282.03
680.001	373.32
680.411	291.4
680.82	260.97
681.23	303.1
681.639	251.61
682.048	324.16
682.457	326.5
682.866	277.35
683.275	260.97
683.684	342.89
684.093	338.21
684.502	342.89
684.911	258.63
685.32	296.08
685.728	375.66
686.137	279.69
686.546	375.66
686.954	375.66
687.363	352.25
687.771	317.14
688.179	310.12
688.588	363.95
688.996	363.95
689.404	300.76
689.812	352.25
690.22	260.97
690.628	314.8
691.036	338.21
691.444	354.59
691.852	272.67
692.26	282.03
692.667	356.93
693.075	317.14
693.483	338.21
693.89	293.74
694.298	270.33
694.705	307.78
695.112	356.93
695.52	392.04
695.927	321.82
696.334	338.21
696.741	239.9
697.148	321.82
697.555	310.12
697.962	303.1
698.369	303.1
698.776	366.29
699.183	303.1
699.59	242.25
699.996	317.14
700.403	265.65
700.81	307.78
701.216	265.65
701.623	305.44
702.029	342.89
702.435	312.46
702.842	338.21
703.248	340.55
703.654	296.08
704.06	310.12
704.466	378
704.872	317.14
705.278	359.27
705.684	310.12
706.09	265.65
706.496	293.74
706.901	286.72
707.307	284.38
707.712	378
708.118	303.1
708.523	298.42
708.929	277.35
709.334	340.55
709.74	349.91
710.145	326.5
710.55	286.72
710.955	347.57
711.36	349.91
711.765	345.23
712.17	296.08
712.575	277.35
712.98	864.83
713.385	293.74
713.789	272.67
714.194	328.85
714.599	328.85
715.003	289.06
715.408	256.29
715.812	326.5
716.217	331.19
716.621	340.55
717.025	286.72
717.429	326.5
717.833	324.16
718.238	293.74
718.642	354.59
719.046	310.12
719.449	314.8
719.853	319.48
720.257	345.23
720.661	356.93
721.065	298.42
721.468	352.25
721.872	270.33
722.275	333.53
722.679	354.59
723.082	282.03
723.485	328.85
723.889	277.35
724.292	291.4
724.695	267.99
725.098	373.32
725.501	331.19
725.904	319.48
726.307	345.23
726.71	342.89
727.113	361.61
727.516	303.1
727.918	270.33
728.321	324.16
728.724	286.72
729.126	286.72
729.529	363.95
729.931	370.97
730.333	338.21
730.736	324.16
731.138	282.03
731.54	291.4
731.942	277.35
732.344	317.14
732.746	282.03
733.148	303.1
733.55	326.5
733.952	319.48
734.354	319.48
734.756	354.59
735.157	321.82
735.559	324.16
735.96	307.78
736.362	307.78
736.763	347.57
737.165	303.1
737.566	296.08
737.967	347.57
738.368	347.57
738.77	349.91
739.171	317.14
739.572	310.12
739.973	317.14
740.374	321.82
740.774	321.82
741.175	333.53
741.576	275.01
741.977	296.08
742.377	349.91
742.778	293.74
743.178	263.31
743.579	293.74
743.979	244.59
744.379	289.06
744.78	303.1
745.18	307.78
745.58	279.69
745.98	289.06
746.38	291.4
746.78	246.93
747.18	319.48
747.58	314.8
747.98	314.8
748.38	349.91
748.779	363.95
749.179	307.78
749.578	356.93
749.978	394.38
750.377	293.74
750.777	314.8
751.176	361.61
751.575	284.38
751.975	326.5
752.374	331.19
752.773	375.66
753.172	324.16
753.571	321.82
753.97	333.53
754.369	331.19
754.768	317.14
755.166	314.8
755.565	298.42
755.964	296.08
756.362	317.14
756.761	296.08
757.159	319.48
757.558	300.76
757.956	310.12
758.354	319.48
758.753	314.8
759.151	289.06
759.549	298.42
759.947	354.59
760.345	312.46
760.743	291.4
761.141	333.53
761.539	310.12
761.936	319.48
762.334	256.29
762.732	279.69
763.129	342.89
763.527	326.5
763.924	312.46
764.322	326.5
764.719	366.29
765.117	385.02
765.514	310.12
765.911	260.97
766.308	314.8
766.705	335.87
767.102	293.74
767.499	317.14
767.896	314.8
768.293	305.44
768.69	291.4
769.086	289.06
769.483	286.72
769.88	366.29
770.276	272.67
770.673	340.55
771.069	267.99
771.466	324.16
771.862	289.06
772.258	270.33
772.654	270.33
773.05	272.67
773.447	314.8
773.843	272.67
774.239	258.63
774.634	296.08
775.03	307.78
775.426	314.8
775.822	326.5
776.218	235.22
776.613	300.76
777.009	296.08
777.404	305.44
777.8	300.76
778.195	359.27
778.59	359.27
778.986	305.44
779.381	258.63
779.776	363.95
780.171	335.87
780.566	289.06
780.961	235.22
781.356	413.1
781.751	286.72
782.146	328.85
782.54	333.53
782.935	373.32
783.33	265.65
783.724	324.16
784.119	275.01
784.513	300.76
784.908	333.53
785.302	279.69
785.696	291.4
786.09	279.69
786.485	303.1
786.879	296.08
787.273	361.61
787.667	335.87
788.061	286.72
788.454	382.68
788.848	319.48
789.242	328.85
789.636	324.16
790.029	230.54
790.423	319.48
790.816	303.1
791.21	298.42
791.603	385.02
791.997	310.12
792.39	312.46
792.783	345.23
793.176	272.67
793.569	340.55
793.962	354.59
794.355	293.74
794.748	253.95
795.141	326.5
795.534	317.14
795.927	328.85
796.319	270.33
796.712	434.17
797.105	291.4
797.497	324.16
797.89	317.14
798.282	319.48
798.674	260.97
799.067	284.38
799.459	399.06
799.851	310.12
800.243	303.1
800.635	319.48
801.027	354.59
801.419	380.34
801.811	359.27
802.203	331.19
802.594	368.63
802.986	328.85
803.378	347.57
803.769	340.55
804.161	289.06
804.552	349.91
804.944	359.27
805.335	373.32
805.726	387.36
806.118	356.93
806.509	317.14
806.9	275.01
807.291	385.02
807.682	307.78
808.073	354.59
808.464	324.16
808.855	293.74
809.245	242.25
809.636	324.16
810.027	370.97
810.417	291.4
810.808	298.42
811.198	296.08
811.589	310.12
811.979	385.02
812.369	359.27
812.759	342.89
813.15	328.85
813.54	293.74
813.93	312.46
814.32	321.82
814.71	282.03
815.1	321.82
815.489	321.82
815.879	303.1
816.269	359.27
816.658	326.5
817.048	298.42
817.438	260.97
817.827	331.19
818.216	275.01
818.606	296.08
818.995	249.27
819.384	338.21
819.773	284.38
820.163	359.27
820.552	239.9
820.941	361.61
821.33	289.06
821.718	246.93
822.107	312.46
822.496	286.72
822.885	282.03
823.273	328.85
823.662	303.1
824.05	321.82
824.439	310.12
824.827	349.91
825.216	326.5
825.604	307.78
825.992	335.87
826.38	307.78
826.768	354.59
827.156	319.48
827.544	380.34
827.932	310.12
828.32	361.61
828.708	314.8
829.096	335.87
829.483	296.08
829.871	363.95
830.259	361.61
830.646	352.25
831.034	338.21
831.421	356.93
831.808	356.93
832.196	352.25
832.583	244.59
832.97	246.93
833.357	321.82
833.744	298.42
834.131	324.16
834.518	242.25
834.905	349.91
835.292	312.46
835.678	361.61
836.065	347.57
836.452	296.08
836.838	317.14
837.225	331.19
837.611	286.72
837.998	303.1
838.384	300.76
838.77	300.76
839.157	293.74
839.543	286.72
839.929	270.33
840.315	307.78
840.701	363.95
841.087	321.82
841.473	347.57
841.858	296.08
842.244	314.8
842.63	258.63
843.015	345.23
843.401	420.13
843.787	370.97
844.172	403.74
844.557	347.57
844.943	380.34
845.328	272.67
845.713	300.76
846.098	303.1
846.483	345.23
846.868	319.48
847.253	279.69
847.638	359.27
848.023	279.69
848.408	324.16
848.793	326.5
849.177	282.03
849.562	270.33
849.947	305.44
850.331	375.66
850.715	314.8
851.1	354.59
851.484	263.31
851.868	310.12
852.253	293.74
852.637	249.27
853.021	314.8
853.405	284.38
853.789	265.65
854.173	349.91
854.557	333.53
854.94	314.8
855.324	312.46
855.708	410.76
856.091	354.59
856.475	305.44
856.858	282.03
857.242	298.42
857.625	286.72
858.009	310.12
858.392	300.76
858.775	303.1
859.158	272.67
859.541	347.57
859.924	331.19
860.307	363.95
860.69	298.42
861.073	373.32
861.456	298.42
861.838	303.1
862.221	249.27
862.604	324.16
862.986	314.8
863.369	314.8
863.751	312.46
864.133	291.4
864.516	300.76
864.898	380.34
865.28	361.61
865.662	378
866.044	331.19
866.426	321.82
866.808	305.44
867.19	324.16
867.572	378
867.954	349.91
868.336	284.38
868.717	352.25
869.099	333.53
869.48	317.14
869.862	256.29
870.243	279.69
870.625	291.4
871.006	310.12
871.387	352.25
871.768	340.55
872.149	296.08
872.53	307.78
872.911	270.33
873.292	314.8
873.673	251.61
874.054	347.57
874.435	370.97
874.815	230.54
875.196	305.44
875.577	324.16
875.957	303.1
876.338	305.44
876.718	333.53
877.098	305.44
877.479	352.25
877.859	363.95
878.239	324.16
878.619	282.03
878.999	258.63
879.379	347.57
879.759	356.93
880.139	282.03
880.519	363.95
880.898	310.12
881.278	307.78
881.658	303.1
882.037	321.82
882.417	305.44
882.796	321.82
883.176	375.66
883.555	289.06
883.934	284.38
884.313	296.08
884.693	303.1
885.072	349.91
885.451	380.34
885.83	265.65
886.209	338.21
886.587	331.19
886.966	279.69
887.345	263.31
887.724	298.42
888.102	321.82
888.481	298.42
888.859	389.7
889.238	284.38
889.616	249.27
889.994	354.59
890.373	272.67
890.751	347.57
891.129	340.55
891.507	272.67
891.885	356.93
892.263	293.74
892.641	382.68
893.019	298.42
893.396	359.27
893.774	340.55
894.152	284.38
894.529	263.31
894.907	258.63
895.284	289.06
895.662	312.46
896.039	279.69
896.416	307.78
896.794	305.44
897.171	356.93
897.548	293.74
897.925	310.12
898.302	347.57
898.679	282.03
899.056	251.61
899.433	270.33
899.809	284.38
900.186	256.29
900.563	275.01
900.939	333.53
901.316	370.97
901.692	275.01
902.069	363.95
902.445	317.14
902.821	385.02
903.197	314.8
903.574	307.78
903.95	253.95
904.326	338.21
904.702	368.63
905.078	352.25
905.454	286.72
905.829	307.78
906.205	335.87
906.581	265.65
906.956	328.85
907.332	305.44
907.707	267.99
908.083	338.21
908.458	307.78
908.833	317.14
909.209	258.63
909.584	305.44
909.959	284.38
910.334	300.76
910.709	319.48
911.084	310.12
911.459	291.4
911.834	237.56
912.209	340.55
912.583	298.42
912.958	345.23
913.333	307.78
913.707	298.42
914.082	326.5
914.456	347.57
914.83	352.25
915.205	277.35
915.579	291.4
915.953	286.72
916.327	340.55
916.701	272.67
917.075	235.22
917.449	289.06
917.823	319.48
918.197	289.06
918.571	289.06
918.944	289.06
919.318	272.67
919.692	321.82
920.065	300.76
920.438	282.03
920.812	333.53
921.185	298.42
921.558	251.61
921.932	368.63
922.305	368.63
922.678	324.16
923.051	263.31
923.424	282.03
923.797	368.63
924.17	321.82
924.542	314.8
924.915	303.1
925.288	307.78
925.661	354.59
926.033	340.55
926.406	361.61
926.778	321.82
927.15	352.25
927.523	267.99
927.895	270.33
928.267	314.8
928.639	284.38
929.011	333.53
929.383	258.63
929.755	342.89
930.127	305.44
930.499	260.97
930.871	300.76
931.242	366.29
931.614	282.03
931.986	324.16
932.357	338.21
932.729	251.61
933.1	312.46
933.471	289.06
933.843	300.76
934.214	284.38
934.585	328.85
934.956	354.59
935.327	314.8
935.698	349.91
936.069	298.42
936.44	284.38
936.811	342.89
937.182	338.21
937.552	303.1
937.923	277.35
938.293	265.65
938.664	310.12
939.034	307.78
939.405	307.78
939.775	333.53
940.145	260.97
940.516	321.82
940.886	333.53
941.256	258.63
941.626	296.08
941.996	361.61
942.366	340.55
942.735	296.08
943.105	286.72
943.475	267.99
943.845	347.57
944.214	331.19
944.584	314.8
944.953	333.53
945.323	324.16
945.692	284.38
946.061	368.63
946.43	319.48
946.8	300.76
947.169	310.12
947.538	335.87
947.907	345.23
948.276	284.38
948.645	326.5
949.013	321.82
949.382	272.67
949.751	286.72
950.119	303.1
950.488	296.08
950.857	275.01
951.225	312.46
951.593	314.8
951.962	289.06
952.33	314.8
952.698	275.01
953.066	354.59
953.434	296.08
953.802	342.89
954.17	296.08
954.538	298.42
954.906	328.85
955.274	319.48
955.642	239.9
956.009	314.8
956.377	347.57
956.744	303.1
957.112	326.5
957.479	319.48
957.847	338.21
958.214	312.46
958.581	335.87
958.948	296.08
959.315	284.38
959.683	275.01
960.05	317.14
960.416	352.25
960.783	277.35
961.15	312.46
961.517	303.1
961.884	258.63
962.25	225.86
962.617	300.76
962.983	345.23
963.35	326.5
963.716	310.12
964.082	289.06
964.449	275.01
964.815	314.8
965.181	300.76
965.547	265.65
965.913	366.29
966.279	260.97
966.645	286.72
967.011	345.23
967.377	321.82
967.742	298.42
968.108	356.93
968.474	380.34
968.839	286.72
969.205	298.42
969.57	342.89
969.935	321.82
970.301	291.4
970.666	394.38
971.031	263.31
971.396	296.08
971.761	340.55
972.126	321.82
972.491	363.95
972.856	335.87
973.221	296.08
973.586	284.38
973.95	279.69
974.315	267.99
974.679	286.72
975.044	324.16
975.408	298.42
975.773	319.48
976.137	370.97
976.501	324.16
976.866	375.66
977.23	296.08
977.594	378
977.958	324.16
978.322	296.08
978.686	354.59
979.049	356.93
979.413	401.4
979.777	291.4
980.141	272.67
980.504	300.76
980.868	260.97
981.231	230.54
981.595	317.14
981.958	340.55
982.321	321.82
982.684	314.8
983.048	253.95
983.411	282.03
983.774	251.61
984.137	303.1
984.5	366.29
984.862	331.19
985.225	321.82
985.588	258.63
985.951	232.88
986.313	275.01
986.676	317.14
987.038	289.06
987.401	319.48
987.763	296.08
988.125	303.1
988.488	314.8
988.85	305.44
989.212	345.23
989.574	342.89
989.936	382.68
990.298	324.16
990.66	338.21
991.022	328.85
991.383	310.12
991.745	310.12
992.107	338.21
992.468	387.36
992.83	392.04
993.191	237.56
993.553	392.04
993.914	279.69
994.275	293.74
994.637	244.59
994.998	275.01
995.359	310.12
995.72	319.48
996.081	382.68
996.442	298.42
996.803	284.38
997.163	242.25
997.524	256.29
997.885	300.76
998.245	338.21
998.606	279.69
998.966	314.8
999.327	298.42
999.687	312.46
1000.047	321.82
1000.408	310.12
1000.768	305.44
1001.128	225.86
1001.488	270.33
1001.848	275.01
1002.208	284.38
1002.568	314.8
1002.927	335.87
1003.287	319.48
1003.647	359.27
1004.007	279.69
1004.366	352.25
1004.726	328.85
1005.085	303.1
1005.444	270.33
1005.804	319.48
1006.163	361.61
1006.522	354.59
1006.881	307.78
1007.24	342.89
1007.599	298.42
1007.958	286.72
1008.317	286.72
1008.676	333.53
1009.035	300.76
1009.393	370.97
1009.752	314.8
1010.111	282.03
1010.469	385.02
1010.828	326.5
1011.186	310.12
1011.544	333.53
1011.903	293.74
1012.261	335.87
1012.619	300.76
1012.977	345.23
1013.335	385.02
1013.693	331.19
1014.051	305.44
1014.409	284.38
1014.767	249.27
1015.124	284.38
1015.482	265.65
1015.84	338.21
1016.197	312.46
1016.555	272.67
1016.912	326.5
1017.269	237.56
1017.627	246.93
1017.984	359.27
1018.341	354.59
1018.698	263.31
1019.055	331.19
1019.412	298.42
1019.769	345.23
1020.126	342.89
1020.483	298.42
1020.84	307.78
1021.196	314.8
1021.553	310.12
1021.909	338.21
1022.266	356.93
1022.622	352.25
1022.979	314.8
1023.335	331.19
1023.691	326.5
1024.047	378
1024.404	319.48
1024.76	314.8
1025.116	303.1
1025.472	282.03
1025.827	298.42
1026.183	307.78
1026.539	282.03
1026.895	340.55
1027.25	228.2
1027.606	267.99
1027.961	352.25
1028.317	331.19
1028.672	349.91
1029.028	378
1029.383	361.61
1029.738	370.97
1030.093	232.88
1030.448	354.59
1030.803	307.78
1031.158	291.4
1031.513	310.12
1031.868	314.8
1032.223	282.03
1032.577	310.12
1032.932	321.82
1033.287	349.91
1033.641	319.48
1033.996	317.14
1034.35	275.01
1034.704	363.95
1035.059	317.14
1035.413	317.14
1035.767	317.14
1036.121	317.14
