Data from Al_FLMS009871__742__15-15-02-126.txt Node

Date: Fri Mar 08 15:15:02 CST 2024
User: pe5414po
Spectrometer: FLMS00987
Trigger mode: 0
Integration Time (sec): 1.000000E-1
Scans to average: 1
Electric dark correction enabled: true
Nonlinearity correction enabled: false
Boxcar width: 0
XAxis mode: Wavelengths
Number of Pixels in Spectrum: 2048
>>>>>Begin Spectral Data<<<<<
188.938	-91.72
189.409	-91.72
189.879	-91.72
190.349	-112.78
190.819	-105.76
191.29	-105.76
191.76	-154.91
192.23	-140.87
192.7	-164.28
193.17	-42.57
193.64	-0.44
194.109	-44.91
194.579	-51.93
195.049	20.63
195.519	11.26
195.988	32.33
196.458	53.39
196.927	175.1
197.397	95.52
197.866	175.1
198.336	142.33
198.805	135.31
199.274	93.18
199.744	175.1
200.213	172.76
200.682	254.68
201.151	221.91
201.62	205.53
202.089	257.02
202.558	278.08
203.027	273.4
203.495	233.61
203.964	252.34
204.433	268.72
204.902	205.53
205.37	273.4
205.839	317.87
206.307	345.96
206.776	294.47
207.244	285.11
207.712	287.45
208.181	214.89
208.649	322.56
209.117	268.72
209.585	315.53
210.053	303.83
210.521	336.6
210.989	254.68
211.457	317.87
211.925	285.11
212.393	250
212.861	242.98
213.328	254.68
213.796	350.64
214.264	287.45
214.731	219.57
215.199	308.51
215.666	235.96
216.133	250
216.601	242.98
217.068	296.81
217.535	285.11
218.003	250
218.47	303.83
218.937	261.7
219.404	233.61
219.871	240.64
220.338	224.25
220.805	259.36
221.271	303.83
221.738	266.38
222.205	247.66
222.671	285.11
223.138	271.06
223.605	268.72
224.071	245.32
224.538	259.36
225.004	221.91
225.47	294.47
225.937	200.85
226.403	282.77
226.869	280.43
227.335	257.02
227.801	310.85
228.267	268.72
228.733	310.85
229.199	275.74
229.665	343.62
230.131	226.59
230.597	308.51
231.062	278.08
231.528	310.85
231.994	266.38
232.459	170.42
232.925	261.7
233.39	266.38
233.856	273.4
234.321	278.08
234.786	315.53
235.252	355.32
235.717	306.17
236.182	254.68
236.647	294.47
237.112	313.19
237.577	261.7
238.042	327.24
238.507	315.53
238.972	324.9
239.436	306.17
239.901	271.06
240.366	317.87
240.83	303.83
241.295	224.25
241.76	280.43
242.224	322.56
242.688	266.38
243.153	264.04
243.617	252.34
244.081	242.98
244.545	268.72
245.01	245.32
245.474	292.13
245.938	271.06
246.402	294.47
246.866	303.83
247.33	264.04
247.793	198.51
248.257	275.74
248.721	273.4
249.185	259.36
249.648	240.64
250.112	315.53
250.575	259.36
251.039	282.77
251.502	224.25
251.965	252.34
252.429	261.7
252.892	313.19
253.355	235.96
253.818	275.74
254.281	313.19
254.744	294.47
255.207	282.77
255.67	254.68
256.133	287.45
256.596	231.27
257.059	287.45
257.522	320.21
257.984	306.17
258.447	317.87
258.909	261.7
259.372	303.83
259.834	301.49
260.297	285.11
260.759	214.89
261.221	294.47
261.684	296.81
262.146	268.72
262.608	273.4
263.07	303.83
263.532	310.85
263.994	275.74
264.456	252.34
264.918	315.53
265.38	278.08
265.842	287.45
266.303	310.85
266.765	331.92
267.227	360
267.688	285.11
268.15	299.15
268.611	306.17
269.072	273.4
269.534	367.03
269.995	235.96
270.456	285.11
270.918	313.19
271.379	268.72
271.84	292.13
272.301	259.36
272.762	268.72
273.223	235.96
273.684	266.38
274.144	268.72
274.605	275.74
275.066	285.11
275.527	264.04
275.987	268.72
276.448	285.11
276.908	329.58
277.369	264.04
277.829	278.08
278.289	313.19
278.75	301.49
279.21	306.17
279.67	301.49
280.13	350.64
280.59	287.45
281.05	203.19
281.51	247.66
281.97	296.81
282.43	282.77
282.89	317.87
283.35	280.43
283.809	282.77
284.269	345.96
284.729	352.98
285.188	271.06
285.648	294.47
286.107	338.94
286.567	308.51
287.026	317.87
287.485	341.28
287.944	292.13
288.404	324.9
288.863	280.43
289.322	317.87
289.781	278.08
290.24	278.08
290.699	252.34
291.158	238.3
291.616	271.06
292.075	271.06
292.534	350.64
292.992	303.83
293.451	296.81
293.91	327.24
294.368	299.15
294.827	381.07
295.285	310.85
295.743	360
296.202	247.66
296.66	364.68
297.118	313.19
297.576	324.9
298.034	282.77
298.492	287.45
298.95	313.19
299.408	310.85
299.866	280.43
300.324	315.53
300.781	271.06
301.239	301.49
301.697	278.08
302.154	252.34
302.612	308.51
303.069	257.02
303.527	287.45
303.984	294.47
304.441	331.92
304.899	327.24
305.356	282.77
305.813	303.83
306.27	235.96
306.727	320.21
307.184	224.25
307.641	301.49
308.098	320.21
308.555	320.21
309.012	329.58
309.468	336.6
309.925	287.45
310.382	310.85
310.838	254.68
311.295	338.94
311.751	327.24
312.208	345.96
312.664	338.94
313.12	310.85
313.577	306.17
314.033	322.56
314.489	224.25
314.945	352.98
315.401	306.17
315.857	402.13
316.313	282.77
316.769	345.96
317.225	257.02
317.681	299.15
318.136	327.24
318.592	376.39
319.048	261.7
319.503	282.77
319.959	303.83
320.414	308.51
320.869	329.58
321.325	294.47
321.78	329.58
322.235	357.66
322.691	299.15
323.146	301.49
323.601	296.81
324.056	362.34
324.511	245.32
324.966	289.79
325.421	329.58
325.875	327.24
326.33	257.02
326.785	352.98
327.24	322.56
327.694	310.85
328.149	261.7
328.603	287.45
329.058	289.79
329.512	301.49
329.966	371.71
330.421	308.51
330.875	317.87
331.329	280.43
331.783	301.49
332.237	308.51
332.691	294.47
333.145	308.51
333.599	275.74
334.053	334.26
334.507	355.32
334.96	287.45
335.414	341.28
335.868	301.49
336.321	285.11
336.775	313.19
337.228	257.02
337.682	278.08
338.135	296.81
338.588	320.21
339.042	338.94
339.495	310.85
339.948	345.96
340.401	289.79
340.854	254.68
341.307	334.26
341.76	292.13
342.213	364.68
342.666	360
343.119	376.39
343.571	294.47
344.024	310.85
344.477	280.43
344.929	273.4
345.382	264.04
345.834	264.04
346.287	338.94
346.739	299.15
347.191	306.17
347.644	357.66
348.096	282.77
348.548	315.53
349	200.85
349.452	313.19
349.904	357.66
350.356	273.4
350.808	327.24
351.26	315.53
351.711	338.94
352.163	320.21
352.615	310.85
353.066	327.24
353.518	378.73
353.969	334.26
354.421	348.3
354.872	306.17
355.324	261.7
355.775	292.13
356.226	383.41
356.677	357.66
357.128	322.56
357.579	374.05
358.03	292.13
358.481	336.6
358.932	352.98
359.383	343.62
359.834	266.38
360.285	259.36
360.735	313.19
361.186	369.37
361.637	308.51
362.087	292.13
362.538	341.28
362.988	235.96
363.438	343.62
363.889	313.19
364.339	338.94
364.789	310.85
365.239	324.9
365.689	327.24
366.139	362.34
366.589	348.3
367.039	324.9
367.489	327.24
367.939	299.15
368.389	303.83
368.839	324.9
369.288	275.74
369.738	294.47
370.187	392.77
370.637	348.3
371.086	327.24
371.536	287.45
371.985	278.08
372.434	280.43
372.884	273.4
373.333	294.47
373.782	317.87
374.231	289.79
374.68	322.56
375.129	310.85
375.578	338.94
376.027	341.28
376.475	285.11
376.924	343.62
377.373	381.07
377.822	348.3
378.27	320.21
378.719	278.08
379.167	275.74
379.616	271.06
380.064	324.9
380.512	343.62
380.961	341.28
381.409	399.79
381.857	266.38
382.305	336.6
382.753	303.83
383.201	329.58
383.649	289.79
384.097	338.94
384.545	271.06
384.992	338.94
385.44	329.58
385.888	317.87
386.335	306.17
386.783	341.28
387.231	282.77
387.678	324.9
388.125	257.02
388.573	308.51
389.02	268.72
389.467	357.66
389.914	317.87
390.362	310.85
390.809	313.19
391.256	289.79
391.703	264.04
392.15	313.19
392.596	329.58
393.043	268.72
393.49	392.77
393.937	306.17
394.383	282.77
394.83	282.77
395.276	336.6
395.723	308.51
396.169	350.64
396.616	352.98
397.062	310.85
397.508	271.06
397.954	280.43
398.401	301.49
398.847	355.32
399.293	315.53
399.739	327.24
400.185	378.73
400.631	334.26
401.076	271.06
401.522	336.6
401.968	289.79
402.414	348.3
402.859	388.09
403.305	350.64
403.75	294.47
404.196	331.92
404.641	329.58
405.086	315.53
405.532	320.21
405.977	352.98
406.422	250
406.867	292.13
407.312	378.73
407.757	381.07
408.202	308.51
408.647	308.51
409.092	315.53
409.537	310.85
409.982	350.64
410.426	345.96
410.871	345.96
411.316	303.83
411.76	315.53
412.205	282.77
412.649	378.73
413.093	303.83
413.538	352.98
413.982	299.15
414.426	334.26
414.87	357.66
415.314	352.98
415.758	360
416.202	327.24
416.646	280.43
417.09	338.94
417.534	317.87
417.978	320.21
418.421	331.92
418.865	374.05
419.309	367.03
419.752	388.09
420.196	315.53
420.639	338.94
421.083	345.96
421.526	278.08
421.969	310.85
422.412	299.15
422.856	348.3
423.299	350.64
423.742	313.19
424.185	320.21
424.628	341.28
425.071	306.17
425.513	273.4
425.956	320.21
426.399	324.9
426.842	362.34
427.284	345.96
427.727	329.58
428.169	324.9
428.612	317.87
429.054	289.79
429.497	317.87
429.939	306.17
430.381	317.87
430.823	275.74
431.265	336.6
431.707	280.43
432.149	383.41
432.591	313.19
433.033	343.62
433.475	294.47
433.917	317.87
434.359	364.68
434.8	292.13
435.242	289.79
435.684	362.34
436.125	345.96
436.567	247.66
437.008	301.49
437.449	294.47
437.891	280.43
438.332	327.24
438.773	320.21
439.214	324.9
439.656	343.62
440.097	261.7
440.538	360
440.978	287.45
441.419	261.7
441.86	331.92
442.301	275.74
442.742	324.9
443.182	303.83
443.623	350.64
444.063	343.62
444.504	324.9
444.944	308.51
445.385	268.72
445.825	282.77
446.265	322.56
446.706	294.47
447.146	294.47
447.586	331.92
448.026	282.77
448.466	381.07
448.906	306.17
449.346	362.34
449.786	338.94
450.225	301.49
450.665	280.43
451.105	317.87
451.544	252.34
451.984	376.39
452.424	306.17
452.863	252.34
453.302	299.15
453.742	374.05
454.181	348.3
454.62	322.56
455.059	289.79
455.499	350.64
455.938	341.28
456.377	310.85
456.816	334.26
457.254	308.51
457.693	296.81
458.132	292.13
458.571	292.13
459.01	341.28
459.448	406.81
459.887	350.64
460.325	315.53
460.764	292.13
461.202	292.13
461.641	329.58
462.079	306.17
462.517	317.87
462.955	254.68
463.393	390.43
463.832	320.21
464.27	313.19
464.708	299.15
465.145	334.26
465.583	336.6
466.021	301.49
466.459	292.13
466.897	369.37
467.334	397.45
467.772	322.56
468.209	292.13
468.647	282.77
469.084	306.17
469.522	352.98
469.959	367.03
470.396	287.45
470.833	306.17
471.271	285.11
471.708	341.28
472.145	273.4
472.582	345.96
473.019	364.68
473.456	254.68
473.892	287.45
474.329	334.26
474.766	313.19
475.202	360
475.639	329.58
476.076	257.02
476.512	341.28
476.949	371.71
477.385	306.17
477.821	352.98
478.258	306.17
478.694	357.66
479.13	294.47
479.566	289.79
480.002	317.87
480.438	271.06
480.874	296.81
481.31	282.77
481.746	360
482.181	322.56
482.617	322.56
483.053	308.51
483.488	352.98
483.924	296.81
484.36	324.9
484.795	292.13
485.23	313.19
485.666	308.51
486.101	336.6
486.536	341.28
486.971	301.49
487.407	273.4
487.842	336.6
488.277	369.37
488.712	310.85
489.146	296.81
489.581	404.47
490.016	322.56
490.451	352.98
490.885	310.85
491.32	322.56
491.755	338.94
492.189	343.62
492.624	275.74
493.058	301.49
493.492	329.58
493.927	315.53
494.361	341.28
494.795	348.3
495.229	352.98
495.663	348.3
496.097	289.79
496.531	320.21
496.965	329.58
497.399	285.11
497.833	324.9
498.266	308.51
498.7	287.45
499.134	315.53
499.567	268.72
500.001	383.41
500.434	355.32
500.868	374.05
501.301	360
501.734	388.09
502.168	289.79
502.601	280.43
503.034	257.02
503.467	357.66
503.9	287.45
504.333	289.79
504.766	336.6
505.199	315.53
505.632	273.4
506.064	313.19
506.497	345.96
506.93	303.83
507.362	350.64
507.795	282.77
508.227	357.66
508.66	345.96
509.092	362.34
509.524	259.36
509.956	306.17
510.389	278.08
510.821	360
511.253	369.37
511.685	383.41
512.117	331.92
512.549	317.87
512.981	301.49
513.412	287.45
513.844	331.92
514.276	320.21
514.707	261.7
515.139	357.66
515.571	322.56
516.002	306.17
516.433	259.36
516.865	289.79
517.296	320.21
517.727	352.98
518.159	406.81
518.59	285.11
519.021	331.92
519.452	371.71
519.883	327.24
520.314	320.21
520.744	376.39
521.175	352.98
521.606	374.05
522.037	397.45
522.467	320.21
522.898	301.49
523.328	322.56
523.759	355.32
524.189	352.98
524.62	315.53
525.05	287.45
525.48	278.08
525.91	266.38
526.341	303.83
526.771	322.56
527.201	327.24
527.631	350.64
528.061	334.26
528.49	395.11
528.92	301.49
529.35	331.92
529.78	287.45
530.209	331.92
530.639	409.15
531.068	320.21
531.498	371.71
531.927	294.47
532.357	367.03
532.786	317.87
533.215	292.13
533.644	303.83
534.074	329.58
534.503	343.62
534.932	317.87
535.361	320.21
535.79	320.21
536.218	273.4
536.647	275.74
537.076	345.96
537.505	320.21
537.933	357.66
538.362	296.81
538.79	301.49
539.219	388.09
539.647	343.62
540.076	329.58
540.504	303.83
540.932	301.49
541.36	301.49
541.788	355.32
542.217	371.71
542.645	250
543.073	381.07
543.5	329.58
543.928	294.47
544.356	294.47
544.784	336.6
545.211	331.92
545.639	310.85
546.067	390.43
546.494	310.85
546.922	327.24
547.349	324.9
547.776	306.17
548.204	299.15
548.631	343.62
549.058	364.68
549.485	336.6
549.912	327.24
550.339	322.56
550.766	374.05
551.193	275.74
551.62	294.47
552.047	331.92
552.474	352.98
552.9	322.56
553.327	329.58
553.754	329.58
554.18	264.04
554.607	280.43
555.033	390.43
555.459	315.53
555.886	287.45
556.312	301.49
556.738	345.96
557.164	303.83
557.59	327.24
558.016	355.32
558.442	362.34
558.868	327.24
559.294	315.53
559.72	350.64
560.145	327.24
560.571	322.56
560.997	280.43
561.422	322.56
561.848	282.77
562.273	327.24
562.699	362.34
563.124	322.56
563.549	334.26
563.974	338.94
564.4	275.74
564.825	266.38
565.25	278.08
565.675	360
566.1	268.72
566.525	338.94
566.95	357.66
567.374	317.87
567.799	329.58
568.224	271.06
568.648	324.9
569.073	367.03
569.497	317.87
569.922	264.04
570.346	313.19
570.771	238.3
571.195	334.26
571.619	317.87
572.043	282.77
572.467	306.17
572.891	268.72
573.315	322.56
573.739	308.51
574.163	301.49
574.587	303.83
575.011	261.7
575.435	320.21
575.858	360
576.282	352.98
576.705	268.72
577.129	374.05
577.552	292.13
577.976	343.62
578.399	308.51
578.822	327.24
579.245	331.92
579.669	390.43
580.092	341.28
580.515	369.37
580.938	294.47
581.361	306.17
581.784	317.87
582.206	315.53
582.629	324.9
583.052	334.26
583.474	266.38
583.897	308.51
584.32	327.24
584.742	345.96
585.165	280.43
585.587	259.36
586.009	266.38
586.431	350.64
586.854	275.74
587.276	280.43
587.698	271.06
588.12	348.3
588.542	282.77
588.964	306.17
589.386	369.37
589.807	392.77
590.229	329.58
590.651	367.03
591.073	378.73
591.494	338.94
591.916	355.32
592.337	352.98
592.759	367.03
593.18	315.53
593.601	343.62
594.022	322.56
594.444	327.24
594.865	334.26
595.286	331.92
595.707	257.02
596.128	357.66
596.549	303.83
596.97	378.73
597.39	315.53
597.811	329.58
598.232	268.72
598.652	362.34
599.073	282.77
599.494	388.09
599.914	390.43
600.334	360
600.755	299.15
601.175	376.39
601.595	348.3
602.015	336.6
602.436	390.43
602.856	448.94
603.276	324.9
603.696	334.26
604.115	374.05
604.535	355.32
604.955	360
605.375	397.45
605.794	317.87
606.214	280.43
606.634	313.19
607.053	315.53
607.473	320.21
607.892	242.98
608.311	317.87
608.731	273.4
609.15	271.06
609.569	390.43
609.988	313.19
610.407	303.83
610.826	250
611.245	364.68
611.664	331.92
612.083	301.49
612.501	324.9
612.92	261.7
613.339	289.79
613.757	334.26
614.176	376.39
614.594	266.38
615.013	327.24
615.431	331.92
615.85	336.6
616.268	324.9
616.686	282.77
617.104	331.92
617.522	371.71
617.94	364.68
618.358	299.15
618.776	343.62
619.194	334.26
619.612	313.19
620.03	374.05
620.447	331.92
620.865	345.96
621.282	313.19
621.7	278.08
622.117	322.56
622.535	282.77
622.952	317.87
623.369	338.94
623.787	341.28
624.204	315.53
624.621	296.81
625.038	341.28
625.455	334.26
625.872	334.26
626.289	341.28
626.706	383.41
627.123	338.94
627.539	322.56
627.956	261.7
628.373	315.53
628.789	303.83
629.206	306.17
629.622	292.13
630.038	294.47
630.455	341.28
630.871	348.3
631.287	322.56
631.703	306.17
632.12	212.55
632.536	324.9
632.952	259.36
633.368	324.9
633.783	285.11
634.199	317.87
634.615	345.96
635.031	327.24
635.446	327.24
635.862	287.45
636.277	285.11
636.693	299.15
637.108	299.15
637.524	360
637.939	308.51
638.354	315.53
638.77	331.92
639.185	308.51
639.6	320.21
640.015	299.15
640.43	336.6
640.845	245.32
641.259	266.38
641.674	329.58
642.089	261.7
642.504	336.6
642.918	329.58
643.333	324.9
643.747	268.72
644.162	406.81
644.576	336.6
644.991	287.45
645.405	294.47
645.819	271.06
646.233	306.17
646.647	308.51
647.061	308.51
647.475	352.98
647.889	336.6
648.303	355.32
648.717	322.56
649.131	303.83
649.545	299.15
649.958	280.43
650.372	350.64
650.785	245.32
651.199	338.94
651.612	313.19
652.026	299.15
652.439	315.53
652.852	362.34
653.266	343.62
653.679	362.34
654.092	299.15
654.505	271.06
654.918	308.51
655.331	345.96
655.744	285.11
656.156	308.51
656.569	317.87
656.982	345.96
657.394	317.87
657.807	338.94
658.22	341.28
658.632	327.24
659.044	303.83
659.457	308.51
659.869	338.94
660.281	310.85
660.693	317.87
661.106	235.96
661.518	275.74
661.93	320.21
662.342	259.36
662.754	308.51
663.165	352.98
663.577	278.08
663.989	352.98
664.401	317.87
664.812	285.11
665.224	327.24
665.635	308.51
666.047	397.45
666.458	233.61
666.869	301.49
667.281	341.28
667.692	345.96
668.103	306.17
668.514	294.47
668.925	245.32
669.336	315.53
669.747	327.24
670.158	280.43
670.569	352.98
670.979	348.3
671.39	369.37
671.801	341.28
672.211	303.83
672.622	261.7
673.032	343.62
673.443	268.72
673.853	348.3
674.263	315.53
674.674	364.68
675.084	299.15
675.494	327.24
675.904	357.66
676.314	336.6
676.724	327.24
677.134	303.83
677.544	345.96
677.953	329.58
678.363	299.15
678.773	341.28
679.182	254.68
679.592	299.15
680.001	348.3
680.411	331.92
680.82	338.94
681.23	315.53
681.639	369.37
682.048	264.04
682.457	310.85
682.866	348.3
683.275	345.96
683.684	268.72
684.093	282.77
684.502	221.91
684.911	320.21
685.32	317.87
685.728	317.87
686.137	324.9
686.546	317.87
686.954	310.85
687.363	303.83
687.771	285.11
688.179	289.79
688.588	336.6
688.996	371.71
689.404	362.34
689.812	292.13
690.22	322.56
690.628	336.6
691.036	364.68
691.444	266.38
691.852	278.08
692.26	310.85
692.667	247.66
693.075	336.6
693.483	306.17
693.89	266.38
694.298	357.66
694.705	250
695.112	294.47
695.52	392.77
695.927	338.94
696.334	310.85
696.741	360
697.148	292.13
697.555	331.92
697.962	301.49
698.369	352.98
698.776	338.94
699.183	320.21
699.59	296.81
699.996	273.4
700.403	299.15
700.81	296.81
701.216	282.77
701.623	374.05
702.029	334.26
702.435	313.19
702.842	308.51
703.248	301.49
703.654	242.98
704.06	261.7
704.466	320.21
704.872	294.47
705.278	240.64
705.684	341.28
706.09	308.51
706.496	324.9
706.901	287.45
707.307	294.47
707.712	315.53
708.118	336.6
708.523	355.32
708.929	308.51
709.334	376.39
709.74	327.24
710.145	261.7
710.55	327.24
710.955	308.51
711.36	324.9
711.765	336.6
712.17	360
712.575	322.56
712.98	767.26
713.385	355.32
713.789	322.56
714.194	334.26
714.599	315.53
715.003	275.74
715.408	317.87
715.812	282.77
716.217	313.19
716.621	374.05
717.025	287.45
717.429	303.83
717.833	287.45
718.238	273.4
718.642	261.7
719.046	271.06
719.449	329.58
719.853	336.6
720.257	352.98
720.661	317.87
721.065	322.56
721.468	264.04
721.872	299.15
722.275	350.64
722.679	345.96
723.082	240.64
723.485	334.26
723.889	280.43
724.292	268.72
724.695	285.11
725.098	252.34
725.501	327.24
725.904	313.19
726.307	280.43
726.71	334.26
727.113	266.38
727.516	341.28
727.918	315.53
728.321	327.24
728.724	383.41
729.126	315.53
729.529	385.75
729.931	331.92
730.333	303.83
730.736	299.15
731.138	308.51
731.54	320.21
731.942	278.08
732.344	292.13
732.746	336.6
733.148	345.96
733.55	338.94
733.952	271.06
734.354	306.17
734.756	336.6
735.157	242.98
735.559	343.62
735.96	345.96
736.362	331.92
736.763	336.6
737.165	341.28
737.566	275.74
737.967	327.24
738.368	385.75
738.77	313.19
739.171	348.3
739.572	273.4
739.973	313.19
740.374	278.08
740.774	343.62
741.175	292.13
741.576	348.3
741.977	278.08
742.377	261.7
742.778	317.87
743.178	306.17
743.579	329.58
743.979	336.6
744.379	271.06
744.78	308.51
745.18	313.19
745.58	315.53
745.98	313.19
746.38	280.43
746.78	271.06
747.18	259.36
747.58	299.15
747.98	385.75
748.38	317.87
748.779	317.87
749.179	294.47
749.578	388.09
749.978	371.71
750.377	303.83
750.777	280.43
751.176	310.85
751.575	273.4
751.975	299.15
752.374	320.21
752.773	252.34
753.172	324.9
753.571	310.85
753.97	331.92
754.369	268.72
754.768	378.73
755.166	285.11
755.565	306.17
755.964	320.21
756.362	327.24
756.761	245.32
757.159	315.53
757.558	242.98
757.956	334.26
758.354	331.92
758.753	296.81
759.151	336.6
759.549	360
759.947	294.47
760.345	334.26
760.743	280.43
761.141	299.15
761.539	310.85
761.936	278.08
762.334	289.79
762.732	313.19
763.129	317.87
763.527	296.81
763.924	280.43
764.322	242.98
764.719	306.17
765.117	313.19
765.514	266.38
765.911	313.19
766.308	355.32
766.705	322.56
767.102	273.4
767.499	362.34
767.896	362.34
768.293	308.51
768.69	320.21
769.086	296.81
769.483	313.19
769.88	322.56
770.276	313.19
770.673	315.53
771.069	336.6
771.466	334.26
771.862	287.45
772.258	352.98
772.654	322.56
773.05	327.24
773.447	271.06
773.843	285.11
774.239	294.47
774.634	367.03
775.03	275.74
775.426	289.79
775.822	362.34
776.218	315.53
776.613	320.21
777.009	273.4
777.404	294.47
777.8	336.6
778.195	360
778.59	240.64
778.986	301.49
779.381	310.85
779.776	341.28
780.171	254.68
780.566	280.43
780.961	296.81
781.356	282.77
781.751	381.07
782.146	334.26
782.54	345.96
782.935	303.83
783.33	310.85
783.724	336.6
784.119	322.56
784.513	266.38
784.908	301.49
785.302	292.13
785.696	294.47
786.09	292.13
786.485	264.04
786.879	268.72
787.273	320.21
787.667	320.21
788.061	278.08
788.454	348.3
788.848	299.15
789.242	329.58
789.636	273.4
790.029	299.15
790.423	324.9
790.816	289.79
791.21	282.77
791.603	320.21
791.997	285.11
792.39	252.34
792.783	345.96
793.176	268.72
793.569	292.13
793.962	352.98
794.355	280.43
794.748	289.79
795.141	308.51
795.534	254.68
795.927	308.51
796.319	280.43
796.712	271.06
797.105	308.51
797.497	338.94
797.89	331.92
798.282	317.87
798.674	280.43
799.067	341.28
799.459	264.04
799.851	395.11
800.243	294.47
800.635	378.73
801.027	310.85
801.419	385.75
801.811	310.85
802.203	357.66
802.594	334.26
802.986	278.08
803.378	329.58
803.769	296.81
804.161	254.68
804.552	308.51
804.944	355.32
805.335	301.49
805.726	299.15
806.118	320.21
806.509	257.02
806.9	327.24
807.291	357.66
807.682	308.51
808.073	301.49
808.464	301.49
808.855	327.24
809.245	296.81
809.636	355.32
810.027	334.26
810.417	306.17
810.808	355.32
811.198	303.83
811.589	378.73
811.979	317.87
812.369	364.68
812.759	294.47
813.15	329.58
813.54	287.45
813.93	355.32
814.32	327.24
814.71	320.21
815.1	352.98
815.489	327.24
815.879	308.51
816.269	285.11
816.658	329.58
817.048	345.96
817.438	261.7
817.827	294.47
818.216	329.58
818.606	296.81
818.995	374.05
819.384	327.24
819.773	310.85
820.163	292.13
820.552	336.6
820.941	275.74
821.33	242.98
821.718	273.4
822.107	296.81
822.496	331.92
822.885	329.58
823.273	350.64
823.662	250
824.05	289.79
824.439	273.4
824.827	310.85
825.216	338.94
825.604	308.51
825.992	275.74
826.38	268.72
826.768	367.03
827.156	296.81
827.544	303.83
827.932	310.85
828.32	285.11
828.708	292.13
829.096	299.15
829.483	334.26
829.871	292.13
830.259	338.94
830.646	348.3
831.034	275.74
831.421	327.24
831.808	329.58
832.196	282.77
832.583	226.59
832.97	306.17
833.357	303.83
833.744	310.85
834.131	282.77
834.518	334.26
834.905	294.47
835.292	282.77
835.678	310.85
836.065	376.39
836.452	345.96
836.838	329.58
837.225	362.34
837.611	310.85
837.998	264.04
838.384	299.15
838.77	273.4
839.157	322.56
839.543	287.45
839.929	273.4
840.315	271.06
840.701	352.98
841.087	254.68
841.473	210.21
841.858	268.72
842.244	308.51
842.63	303.83
843.015	301.49
843.401	399.79
843.787	327.24
844.172	313.19
844.557	296.81
844.943	282.77
845.328	317.87
845.713	313.19
846.098	320.21
846.483	327.24
846.868	343.62
847.253	383.41
847.638	287.45
848.023	334.26
848.408	345.96
848.793	341.28
849.177	355.32
849.562	299.15
849.947	360
850.331	345.96
850.715	329.58
851.1	289.79
851.484	266.38
851.868	362.34
852.253	247.66
852.637	306.17
853.021	271.06
853.405	273.4
853.789	294.47
854.173	310.85
854.557	261.7
854.94	317.87
855.324	301.49
855.708	348.3
856.091	324.9
856.475	383.41
856.858	299.15
857.242	329.58
857.625	315.53
858.009	327.24
858.392	289.79
858.775	317.87
859.158	357.66
859.541	388.09
859.924	285.11
860.307	341.28
860.69	303.83
861.073	329.58
861.456	287.45
861.838	343.62
862.221	301.49
862.604	310.85
862.986	292.13
863.369	294.47
863.751	280.43
864.133	217.23
864.516	278.08
864.898	292.13
865.28	329.58
865.662	285.11
866.044	343.62
866.426	355.32
866.808	273.4
867.19	343.62
867.572	320.21
867.954	303.83
868.336	341.28
868.717	352.98
869.099	364.68
869.48	371.71
869.862	320.21
870.243	385.75
870.625	336.6
871.006	369.37
871.387	322.56
871.768	381.07
872.149	301.49
872.53	280.43
872.911	357.66
873.292	338.94
873.673	327.24
874.054	292.13
874.435	350.64
874.815	348.3
875.196	334.26
875.577	289.79
875.957	338.94
876.338	296.81
876.718	367.03
877.098	341.28
877.479	360
877.859	264.04
878.239	275.74
878.619	292.13
878.999	343.62
879.379	390.43
879.759	231.27
880.139	306.17
880.519	306.17
880.898	285.11
881.278	303.83
881.658	317.87
882.037	289.79
882.417	336.6
882.796	352.98
883.176	282.77
883.555	313.19
883.934	275.74
884.313	317.87
884.693	308.51
885.072	320.21
885.451	324.9
885.83	329.58
886.209	317.87
886.587	336.6
886.966	278.08
887.345	266.38
887.724	310.85
888.102	313.19
888.481	308.51
888.859	308.51
889.238	338.94
889.616	292.13
889.994	324.9
890.373	257.02
890.751	341.28
891.129	324.9
891.507	348.3
891.885	388.09
892.263	338.94
892.641	292.13
893.019	313.19
893.396	352.98
893.774	306.17
894.152	329.58
894.529	282.77
894.907	287.45
895.284	322.56
895.662	294.47
896.039	273.4
896.416	320.21
896.794	303.83
897.171	367.03
897.548	315.53
897.925	301.49
898.302	268.72
898.679	352.98
899.056	268.72
899.433	336.6
899.809	315.53
900.186	345.96
900.563	294.47
900.939	252.34
901.316	308.51
901.692	322.56
902.069	294.47
902.445	306.17
902.821	378.73
903.197	336.6
903.574	334.26
903.95	259.36
904.326	322.56
904.702	296.81
905.078	271.06
905.454	345.96
905.829	322.56
906.205	231.27
906.581	303.83
906.956	308.51
907.332	285.11
907.707	334.26
908.083	336.6
908.458	324.9
908.833	303.83
909.209	315.53
909.584	355.32
909.959	242.98
910.334	275.74
910.709	315.53
911.084	327.24
911.459	322.56
911.834	280.43
912.209	264.04
912.583	257.02
912.958	355.32
913.333	352.98
913.707	294.47
914.082	320.21
914.456	287.45
914.83	369.37
915.205	378.73
915.579	348.3
915.953	301.49
916.327	280.43
916.701	310.85
917.075	301.49
917.449	343.62
917.823	278.08
918.197	369.37
918.571	301.49
918.944	278.08
919.318	299.15
919.692	364.68
920.065	296.81
920.438	329.58
920.812	271.06
921.185	252.34
921.558	322.56
921.932	317.87
922.305	376.39
922.678	327.24
923.051	289.79
923.424	240.64
923.797	331.92
924.17	278.08
924.542	303.83
924.915	317.87
925.288	336.6
925.661	334.26
926.033	331.92
926.406	287.45
926.778	313.19
927.15	261.7
927.523	285.11
927.895	357.66
928.267	289.79
928.639	292.13
929.011	289.79
929.383	324.9
929.755	296.81
930.127	317.87
930.499	292.13
930.871	294.47
931.242	317.87
931.614	331.92
931.986	228.93
932.357	324.9
932.729	301.49
933.1	257.02
933.471	287.45
933.843	310.85
934.214	322.56
934.585	268.72
934.956	292.13
935.327	322.56
935.698	329.58
936.069	324.9
936.44	289.79
936.811	334.26
937.182	292.13
937.552	259.36
937.923	331.92
938.293	308.51
938.664	341.28
939.034	245.32
939.405	308.51
939.775	278.08
940.145	327.24
940.516	343.62
940.886	362.34
941.256	299.15
941.626	299.15
941.996	327.24
942.366	317.87
942.735	308.51
943.105	345.96
943.475	345.96
943.845	331.92
944.214	303.83
944.584	182.12
944.953	378.73
945.323	313.19
945.692	324.9
946.061	338.94
946.43	320.21
946.8	292.13
947.169	268.72
947.538	261.7
947.907	338.94
948.276	348.3
948.645	343.62
949.013	271.06
949.382	336.6
949.751	306.17
950.119	268.72
950.488	289.79
950.857	261.7
951.225	299.15
951.593	345.96
951.962	313.19
952.33	257.02
952.698	294.47
953.066	327.24
953.434	280.43
953.802	329.58
954.17	259.36
954.538	296.81
954.906	285.11
955.274	350.64
955.642	310.85
956.009	336.6
956.377	266.38
956.744	315.53
957.112	367.03
957.479	310.85
957.847	345.96
958.214	296.81
958.581	299.15
958.948	334.26
959.315	278.08
959.683	317.87
960.05	303.83
960.416	294.47
960.783	313.19
961.15	266.38
961.517	313.19
961.884	352.98
962.25	371.71
962.617	306.17
962.983	343.62
963.35	357.66
963.716	313.19
964.082	313.19
964.449	261.7
964.815	331.92
965.181	282.77
965.547	278.08
965.913	343.62
966.279	294.47
966.645	338.94
967.011	334.26
967.377	327.24
967.742	317.87
968.108	310.85
968.474	348.3
968.839	341.28
969.205	317.87
969.57	355.32
969.935	329.58
970.301	329.58
970.666	329.58
971.031	374.05
971.396	360
971.761	357.66
972.126	367.03
972.491	320.21
972.856	233.61
973.221	278.08
973.586	296.81
973.95	245.32
974.315	390.43
974.679	322.56
975.044	271.06
975.408	238.3
975.773	320.21
976.137	313.19
976.501	292.13
976.866	228.93
977.23	282.77
977.594	320.21
977.958	352.98
978.322	367.03
978.686	292.13
979.049	320.21
979.413	231.27
979.777	271.06
980.141	310.85
980.504	315.53
980.868	264.04
981.231	369.37
981.595	294.47
981.958	329.58
982.321	317.87
982.684	292.13
983.048	292.13
983.411	320.21
983.774	231.27
984.137	388.09
984.5	324.9
984.862	278.08
985.225	324.9
985.588	271.06
985.951	348.3
986.313	345.96
986.676	242.98
987.038	294.47
987.401	266.38
987.763	282.77
988.125	345.96
988.488	317.87
988.85	376.39
989.212	352.98
989.574	338.94
989.936	205.53
990.298	303.83
990.66	427.88
991.022	308.51
991.383	301.49
991.745	303.83
992.107	287.45
992.468	275.74
992.83	364.68
993.191	320.21
993.553	287.45
993.914	266.38
994.275	278.08
994.637	289.79
994.998	287.45
995.359	331.92
995.72	273.4
996.081	341.28
996.442	313.19
996.803	289.79
997.163	278.08
997.524	329.58
997.885	264.04
998.245	338.94
998.606	331.92
998.966	355.32
999.327	324.9
999.687	348.3
1000.047	221.91
1000.408	240.64
1000.768	313.19
1001.128	313.19
1001.488	329.58
1001.848	257.02
1002.208	331.92
1002.568	278.08
1002.927	320.21
1003.287	320.21
1003.647	376.39
1004.007	292.13
1004.366	327.24
1004.726	357.66
1005.085	292.13
1005.444	259.36
1005.804	367.03
1006.163	331.92
1006.522	334.26
1006.881	310.85
1007.24	341.28
1007.599	306.17
1007.958	259.36
1008.317	308.51
1008.676	352.98
1009.035	348.3
1009.393	331.92
1009.752	355.32
1010.111	355.32
1010.469	294.47
1010.828	278.08
1011.186	250
1011.544	313.19
1011.903	271.06
1012.261	282.77
1012.619	271.06
1012.977	345.96
1013.335	278.08
1013.693	261.7
1014.051	240.64
1014.409	289.79
1014.767	336.6
1015.124	299.15
1015.482	355.32
1015.84	238.3
1016.197	313.19
1016.555	345.96
1016.912	266.38
1017.269	294.47
1017.627	324.9
1017.984	329.58
1018.341	280.43
1018.698	324.9
1019.055	306.17
1019.412	364.68
1019.769	250
1020.126	331.92
1020.483	275.74
1020.84	345.96
1021.196	313.19
1021.553	336.6
1021.909	324.9
1022.266	306.17
1022.622	280.43
1022.979	371.71
1023.335	271.06
1023.691	303.83
1024.047	341.28
1024.404	317.87
1024.76	308.51
1025.116	280.43
1025.472	315.53
1025.827	334.26
1026.183	341.28
1026.539	327.24
1026.895	294.47
1027.25	280.43
1027.606	308.51
1027.961	320.21
1028.317	303.83
1028.672	278.08
1029.028	327.24
1029.383	350.64
1029.738	343.62
1030.093	338.94
1030.448	327.24
1030.803	271.06
1031.158	287.45
1031.513	406.81
1031.868	338.94
1032.223	317.87
1032.577	350.64
1032.932	350.64
1033.287	315.53
1033.641	287.45
1033.996	294.47
1034.35	278.08
1034.704	329.58
1035.059	285.11
1035.413	289.79
1035.767	289.79
1036.121	289.79
