Data from Al_FLMS009871__697__15-07-14-437.txt Node

Date: Fri Mar 08 15:07:14 CST 2024
User: pe5414po
Spectrometer: FLMS00987
Trigger mode: 0
Integration Time (sec): 1.000000E-1
Scans to average: 1
Electric dark correction enabled: true
Nonlinearity correction enabled: false
Boxcar width: 0
XAxis mode: Wavelengths
Number of Pixels in Spectrum: 2048
>>>>>Begin Spectral Data<<<<<
188.938	-117.32
189.409	-117.32
189.879	-117.32
190.349	-150.09
190.819	-164.13
191.29	-28.38
191.76	-91.57
192.23	-117.32
192.7	-86.89
193.17	-136.04
193.64	-30.72
194.109	-70.51
194.579	-42.42
195.049	-40.08
195.519	107.37
195.988	30.13
196.458	46.52
196.927	112.05
197.397	114.39
197.866	144.82
198.336	88.65
198.805	128.44
199.274	133.12
199.744	177.59
200.213	191.63
200.682	130.78
201.151	212.7
201.62	243.12
202.089	184.61
202.558	266.53
203.027	273.55
203.495	282.91
203.964	315.68
204.433	268.87
204.902	266.53
205.37	266.53
205.839	285.25
206.307	292.27
206.776	282.91
207.244	280.57
207.712	229.08
208.181	252.49
208.649	205.67
209.117	261.85
209.585	320.36
210.053	308.66
210.521	212.7
210.989	268.87
211.457	254.83
211.925	261.85
212.393	273.55
212.861	212.7
213.328	184.61
213.796	233.76
214.264	315.68
214.731	299.3
215.199	273.55
215.666	231.42
216.133	306.32
216.601	292.27
217.068	282.91
217.535	196.31
218.003	273.55
218.47	268.87
218.937	285.25
219.404	299.3
219.871	278.23
220.338	191.63
220.805	236.1
221.271	299.3
221.738	259.51
222.205	273.55
222.671	196.31
223.138	252.49
223.605	282.91
224.071	193.97
224.538	257.17
225.004	226.74
225.47	250.14
225.937	266.53
226.403	254.83
226.869	229.08
227.335	271.21
227.801	254.83
228.267	275.89
228.733	243.12
229.199	252.49
229.665	240.78
230.131	210.36
230.597	275.89
231.062	231.42
231.528	245.46
231.994	278.23
232.459	200.99
232.925	360.15
233.39	329.72
233.856	266.53
234.321	208.02
234.786	252.49
235.252	247.8
235.717	247.8
236.182	247.8
236.647	294.61
237.112	268.87
237.577	271.21
238.042	294.61
238.507	247.8
238.972	266.53
239.436	353.13
239.901	231.42
240.366	289.93
240.83	261.85
241.295	303.98
241.76	236.1
242.224	278.23
242.688	240.78
243.153	245.46
243.617	280.57
244.081	285.25
244.545	264.19
245.01	306.32
245.474	285.25
245.938	226.74
246.402	289.93
246.866	257.17
247.33	259.51
247.793	243.12
248.257	266.53
248.721	250.14
249.185	243.12
249.648	268.87
250.112	287.59
250.575	224.4
251.039	245.46
251.502	240.78
251.965	250.14
252.429	301.64
252.892	268.87
253.355	294.61
253.818	245.46
254.281	287.59
254.744	341.43
255.207	245.46
255.67	266.53
256.133	257.17
256.596	226.74
257.059	229.08
257.522	280.57
257.984	285.25
258.447	285.25
258.909	332.06
259.372	257.17
259.834	278.23
260.297	285.25
260.759	238.44
261.221	327.38
261.684	238.44
262.146	301.64
262.608	266.53
263.07	360.15
263.532	240.78
263.994	266.53
264.456	294.61
264.918	303.98
265.38	294.61
265.842	306.32
266.303	303.98
266.765	303.98
267.227	313.34
267.688	318.02
268.15	273.55
268.611	294.61
269.072	346.11
269.534	285.25
269.995	278.23
270.456	303.98
270.918	275.89
271.379	236.1
271.84	257.17
272.301	282.91
272.762	355.47
273.223	303.98
273.684	271.21
274.144	285.25
274.605	275.89
275.066	240.78
275.527	219.72
275.987	278.23
276.448	332.06
276.908	285.25
277.369	296.96
277.829	318.02
278.289	292.27
278.75	247.8
279.21	285.25
279.67	282.91
280.13	287.59
280.59	318.02
281.05	247.8
281.51	261.85
281.97	294.61
282.43	282.91
282.89	222.06
283.35	275.89
283.809	240.78
284.269	261.85
284.729	285.25
285.188	245.46
285.648	294.61
286.107	287.59
286.567	278.23
287.026	275.89
287.485	266.53
287.944	224.4
288.404	254.83
288.863	343.77
289.322	252.49
289.781	229.08
290.24	325.04
290.699	299.3
291.158	348.45
291.616	311
292.075	327.38
292.534	311
292.992	320.36
293.451	266.53
293.91	271.21
294.368	245.46
294.827	247.8
295.285	261.85
295.743	243.12
296.202	306.32
296.66	233.76
297.118	322.7
297.576	278.23
298.034	245.46
298.492	320.36
298.95	259.51
299.408	303.98
299.866	264.19
300.324	294.61
300.781	285.25
301.239	301.64
301.697	280.57
302.154	247.8
302.612	257.17
303.069	285.25
303.527	261.85
303.984	278.23
304.441	341.43
304.899	285.25
305.356	275.89
305.813	287.59
306.27	315.68
306.727	303.98
307.184	327.38
307.641	247.8
308.098	287.59
308.555	301.64
309.012	285.25
309.468	264.19
309.925	266.53
310.382	278.23
310.838	266.53
311.295	247.8
311.751	261.85
312.208	294.61
312.664	264.19
313.12	308.66
313.577	289.93
314.033	250.14
314.489	275.89
314.945	299.3
315.401	268.87
315.857	325.04
316.313	278.23
316.769	341.43
317.225	311
317.681	296.96
318.136	315.68
318.592	315.68
319.048	313.34
319.503	299.3
319.959	254.83
320.414	259.51
320.869	367.17
321.325	350.79
321.78	282.91
322.235	303.98
322.691	292.27
323.146	266.53
323.601	271.21
324.056	243.12
324.511	289.93
324.966	294.61
325.421	303.98
325.875	315.68
326.33	320.36
326.785	296.96
327.24	299.3
327.694	266.53
328.149	334.4
328.603	318.02
329.058	240.78
329.512	273.55
329.966	299.3
330.421	315.68
330.875	278.23
331.329	301.64
331.783	252.49
332.237	357.81
332.691	339.09
333.145	311
333.599	205.67
334.053	334.4
334.507	299.3
334.96	299.3
335.414	336.74
335.868	329.72
336.321	292.27
336.775	278.23
337.228	348.45
337.682	301.64
338.135	257.17
338.588	294.61
339.042	268.87
339.495	308.66
339.948	257.17
340.401	303.98
340.854	308.66
341.307	306.32
341.76	311
342.213	346.11
342.666	266.53
343.119	278.23
343.571	334.4
344.024	346.11
344.477	296.96
344.929	266.53
345.382	217.38
345.834	325.04
346.287	306.32
346.739	282.91
347.191	303.98
347.644	275.89
348.096	287.59
348.548	254.83
349	318.02
349.452	318.02
349.904	275.89
350.356	343.77
350.808	369.51
351.26	222.06
351.711	329.72
352.163	303.98
352.615	362.49
353.066	289.93
353.518	339.09
353.969	280.57
354.421	313.34
354.872	306.32
355.324	287.59
355.775	303.98
356.226	240.78
356.677	322.7
357.128	296.96
357.579	306.32
358.03	271.21
358.481	254.83
358.932	252.49
359.383	329.72
359.834	264.19
360.285	236.1
360.735	243.12
361.186	315.68
361.637	299.3
362.087	332.06
362.538	303.98
362.988	278.23
363.438	301.64
363.889	320.36
364.339	308.66
364.789	271.21
365.239	254.83
365.689	275.89
366.139	388.24
366.589	250.14
367.039	353.13
367.489	275.89
367.939	271.21
368.389	374.19
368.839	329.72
369.288	287.59
369.738	285.25
370.187	353.13
370.637	287.59
371.086	318.02
371.536	296.96
371.985	261.85
372.434	268.87
372.884	357.81
373.333	292.27
373.782	311
374.231	320.36
374.68	296.96
375.129	313.34
375.578	299.3
376.027	252.49
376.475	318.02
376.924	371.85
377.373	303.98
377.822	339.09
378.27	329.72
378.719	254.83
379.167	254.83
379.616	252.49
380.064	308.66
380.512	294.61
380.961	336.74
381.409	313.34
381.857	292.27
382.305	339.09
382.753	346.11
383.201	306.32
383.649	327.38
384.097	313.34
384.545	271.21
384.992	329.72
385.44	325.04
385.888	339.09
386.335	308.66
386.783	292.27
387.231	243.12
387.678	325.04
388.125	280.57
388.573	311
389.02	303.98
389.467	343.77
389.914	306.32
390.362	357.81
390.809	266.53
391.256	280.57
391.703	301.64
392.15	259.51
392.596	233.76
393.043	327.38
393.49	325.04
393.937	271.21
394.383	320.36
394.83	296.96
395.276	287.59
395.723	306.32
396.169	259.51
396.616	299.3
397.062	306.32
397.508	329.72
397.954	296.96
398.401	287.59
398.847	325.04
399.293	329.72
399.739	336.74
400.185	339.09
400.631	325.04
401.076	320.36
401.522	332.06
401.968	296.96
402.414	388.24
402.859	287.59
403.305	332.06
403.75	322.7
404.196	371.85
404.641	257.17
405.086	320.36
405.532	327.38
405.977	360.15
406.422	348.45
406.867	285.25
407.312	299.3
407.757	320.36
408.202	341.43
408.647	271.21
409.092	346.11
409.537	292.27
409.982	318.02
410.426	271.21
410.871	287.59
411.316	292.27
411.76	322.7
412.205	273.55
412.649	240.78
413.093	315.68
413.538	322.7
413.982	294.61
414.426	303.98
414.87	311
415.314	301.64
415.758	294.61
416.202	266.53
416.646	308.66
417.09	308.66
417.534	266.53
417.978	285.25
418.421	332.06
418.865	334.4
419.309	254.83
419.752	360.15
420.196	313.34
420.639	336.74
421.083	325.04
421.526	336.74
421.969	308.66
422.412	289.93
422.856	212.7
423.299	339.09
423.742	240.78
424.185	390.58
424.628	264.19
425.071	320.36
425.513	313.34
425.956	329.72
426.399	296.96
426.842	308.66
427.284	341.43
427.727	336.74
428.169	289.93
428.612	315.68
429.054	301.64
429.497	341.43
429.939	278.23
430.381	315.68
430.823	268.87
431.265	327.38
431.707	313.34
432.149	282.91
432.591	329.72
433.033	306.32
433.475	301.64
433.917	313.34
434.359	219.72
434.8	346.11
435.242	362.49
435.684	360.15
436.125	289.93
436.567	271.21
437.008	339.09
437.449	236.1
437.891	313.34
438.332	334.4
438.773	296.96
439.214	318.02
439.656	313.34
440.097	355.47
440.538	278.23
440.978	282.91
441.419	296.96
441.86	261.85
442.301	315.68
442.742	268.87
443.182	275.89
443.623	320.36
444.063	278.23
444.504	296.96
444.944	287.59
445.385	313.34
445.825	313.34
446.265	301.64
446.706	292.27
447.146	362.49
447.586	327.38
448.026	318.02
448.466	299.3
448.906	402.28
449.346	325.04
449.786	320.36
450.225	264.19
450.665	301.64
451.105	273.55
451.544	282.91
451.984	318.02
452.424	285.25
452.863	289.93
453.302	271.21
453.742	313.34
454.181	315.68
454.62	280.57
455.059	268.87
455.499	231.42
455.938	299.3
456.377	282.91
456.816	334.4
457.254	315.68
457.693	296.96
458.132	273.55
458.571	313.34
459.01	339.09
459.448	259.51
459.887	353.13
460.325	327.38
460.764	285.25
461.202	294.61
461.641	325.04
462.079	273.55
462.517	315.68
462.955	294.61
463.393	313.34
463.832	311
464.27	294.61
464.708	296.96
465.145	322.7
465.583	294.61
466.021	299.3
466.459	332.06
466.897	282.91
467.334	327.38
467.772	327.38
468.209	296.96
468.647	308.66
469.084	318.02
469.522	250.14
469.959	250.14
470.396	343.77
470.833	268.87
471.271	311
471.708	339.09
472.145	371.85
472.582	287.59
473.019	357.81
473.456	336.74
473.892	388.24
474.329	334.4
474.766	264.19
475.202	275.89
475.639	292.27
476.076	322.7
476.512	367.17
476.949	313.34
477.385	308.66
477.821	289.93
478.258	285.25
478.694	322.7
479.13	332.06
479.566	292.27
480.002	320.36
480.438	322.7
480.874	289.93
481.31	299.3
481.746	313.34
482.181	327.38
482.617	275.89
483.053	320.36
483.488	268.87
483.924	327.38
484.36	362.49
484.795	313.34
485.23	318.02
485.666	357.81
486.101	320.36
486.536	357.81
486.971	289.93
487.407	268.87
487.842	266.53
488.277	346.11
488.712	308.66
489.146	348.45
489.581	339.09
490.016	303.98
490.451	306.32
490.885	250.14
491.32	341.43
491.755	341.43
492.189	318.02
492.624	320.36
493.058	367.17
493.492	308.66
493.927	336.74
494.361	287.59
494.795	303.98
495.229	280.57
495.663	357.81
496.097	250.14
496.531	343.77
496.965	280.57
497.399	273.55
497.833	266.53
498.266	264.19
498.7	292.27
499.134	278.23
499.567	299.3
500.001	327.38
500.434	280.57
500.868	313.34
501.301	259.51
501.734	339.09
502.168	311
502.601	348.45
503.034	341.43
503.467	362.49
503.9	327.38
504.333	355.47
504.766	285.25
505.199	355.47
505.632	362.49
506.064	273.55
506.497	296.96
506.93	374.19
507.362	268.87
507.795	381.21
508.227	303.98
508.66	287.59
509.092	287.59
509.524	287.59
509.956	329.72
510.389	308.66
510.821	301.64
511.253	306.32
511.685	301.64
512.117	374.19
512.549	339.09
512.981	374.19
513.412	334.4
513.844	346.11
514.276	278.23
514.707	275.89
515.139	301.64
515.571	282.91
516.002	273.55
516.433	311
516.865	336.74
517.296	229.08
517.727	308.66
518.159	303.98
518.59	322.7
519.021	278.23
519.452	299.3
519.883	311
520.314	280.57
520.744	289.93
521.175	296.96
521.606	250.14
522.037	327.38
522.467	287.59
522.898	329.72
523.328	268.87
523.759	329.72
524.189	287.59
524.62	268.87
525.05	261.85
525.48	329.72
525.91	247.8
526.341	343.77
526.771	273.55
527.201	334.4
527.631	308.66
528.061	257.17
528.49	329.72
528.92	299.3
529.35	301.64
529.78	236.1
530.209	322.7
530.639	364.83
531.068	320.36
531.498	322.7
531.927	294.61
532.357	261.85
532.786	282.91
533.215	299.3
533.644	318.02
534.074	294.61
534.503	343.77
534.932	364.83
535.361	268.87
535.79	301.64
536.218	341.43
536.647	296.96
537.076	348.45
537.505	348.45
537.933	346.11
538.362	275.89
538.79	292.27
539.219	294.61
539.647	318.02
540.076	287.59
540.504	294.61
540.932	313.34
541.36	299.3
541.788	334.4
542.217	311
542.645	280.57
543.073	275.89
543.5	311
543.928	339.09
544.356	294.61
544.784	306.32
545.211	243.12
545.639	299.3
546.067	266.53
546.494	294.61
546.922	282.91
547.349	348.45
547.776	301.64
548.204	266.53
548.631	327.38
549.058	383.56
549.485	289.93
549.912	350.79
550.339	289.93
550.766	357.81
551.193	371.85
551.62	311
552.047	266.53
552.474	306.32
552.9	285.25
553.327	287.59
553.754	360.15
554.18	289.93
554.607	325.04
555.033	299.3
555.459	259.51
555.886	299.3
556.312	296.96
556.738	282.91
557.164	245.46
557.59	264.19
558.016	343.77
558.442	343.77
558.868	355.47
559.294	252.49
559.72	341.43
560.145	325.04
560.571	306.32
560.997	268.87
561.422	320.36
561.848	303.98
562.273	245.46
562.699	381.21
563.124	381.21
563.549	327.38
563.974	247.8
564.4	280.57
564.825	348.45
565.25	329.72
565.675	311
566.1	308.66
566.525	306.32
566.95	289.93
567.374	280.57
567.799	346.11
568.224	353.13
568.648	273.55
569.073	306.32
569.497	329.72
569.922	273.55
570.346	306.32
570.771	289.93
571.195	278.23
571.619	318.02
572.043	299.3
572.467	334.4
572.891	306.32
573.315	296.96
573.739	301.64
574.163	325.04
574.587	236.1
575.011	296.96
575.435	325.04
575.858	271.21
576.282	306.32
576.705	313.34
577.129	339.09
577.552	236.1
577.976	287.59
578.399	301.64
578.822	299.3
579.245	294.61
579.669	341.43
580.092	306.32
580.515	308.66
580.938	329.72
581.361	285.25
581.784	275.89
582.206	376.53
582.629	348.45
583.052	327.38
583.474	313.34
583.897	299.3
584.32	336.74
584.742	313.34
585.165	325.04
585.587	313.34
586.009	306.32
586.431	296.96
586.854	280.57
587.276	203.33
587.698	266.53
588.12	353.13
588.542	278.23
588.964	311
589.386	339.09
589.807	252.49
590.229	301.64
590.651	343.77
591.073	346.11
591.494	341.43
591.916	292.27
592.337	327.38
592.759	329.72
593.18	343.77
593.601	294.61
594.022	332.06
594.444	311
594.865	318.02
595.286	343.77
595.707	313.34
596.128	327.38
596.549	313.34
596.97	325.04
597.39	311
597.811	332.06
598.232	254.83
598.652	261.85
599.073	301.64
599.494	257.17
599.914	252.49
600.334	313.34
600.755	329.72
601.175	289.93
601.595	238.44
602.015	282.91
602.436	308.66
602.856	411.64
603.276	208.02
603.696	289.93
604.115	308.66
604.535	325.04
604.955	357.81
605.375	332.06
605.794	287.59
606.214	240.78
606.634	278.23
607.053	378.87
607.473	327.38
607.892	325.04
608.311	329.72
608.731	329.72
609.15	322.7
609.569	367.17
609.988	311
610.407	341.43
610.826	425.68
611.245	285.25
611.664	303.98
612.083	299.3
612.501	313.34
612.92	294.61
613.339	313.34
613.757	327.38
614.176	259.51
614.594	261.85
615.013	350.79
615.431	318.02
615.85	259.51
616.268	268.87
616.686	320.36
617.104	275.89
617.522	301.64
617.94	325.04
618.358	353.13
618.776	257.17
619.194	294.61
619.612	294.61
620.03	329.72
620.447	282.91
620.865	341.43
621.282	271.21
621.7	378.87
622.117	266.53
622.535	336.74
622.952	318.02
623.369	268.87
623.787	271.21
624.204	271.21
624.621	385.9
625.038	357.81
625.455	381.21
625.872	362.49
626.289	371.85
626.706	364.83
627.123	336.74
627.539	353.13
627.956	320.36
628.373	268.87
628.789	325.04
629.206	301.64
629.622	292.27
630.038	285.25
630.455	315.68
630.871	282.91
631.287	266.53
631.703	313.34
632.12	299.3
632.536	222.06
632.952	303.98
633.368	294.61
633.783	336.74
634.199	343.77
634.615	264.19
635.031	289.93
635.446	336.74
635.862	282.91
636.277	245.46
636.693	341.43
637.108	315.68
637.524	273.55
637.939	266.53
638.354	350.79
638.77	318.02
639.185	325.04
639.6	355.47
640.015	332.06
640.43	341.43
640.845	278.23
641.259	315.68
641.674	278.23
642.089	322.7
642.504	271.21
642.918	329.72
643.333	306.32
643.747	348.45
644.162	341.43
644.576	367.17
644.991	294.61
645.405	287.59
645.819	336.74
646.233	318.02
646.647	303.98
647.061	313.34
647.475	343.77
647.889	306.32
648.303	296.96
648.717	355.47
649.131	355.47
649.545	306.32
649.958	301.64
650.372	278.23
650.785	278.23
651.199	306.32
651.612	245.46
652.026	308.66
652.439	231.42
652.852	278.23
653.266	292.27
653.679	280.57
654.092	320.36
654.505	306.32
654.918	306.32
655.331	299.3
655.744	287.59
656.156	289.93
656.569	273.55
656.982	296.96
657.394	287.59
657.807	367.17
658.22	282.91
658.632	313.34
659.044	371.85
659.457	264.19
659.869	313.34
660.281	299.3
660.693	299.3
661.106	311
661.518	341.43
661.93	280.57
662.342	287.59
662.754	311
663.165	261.85
663.577	318.02
663.989	292.27
664.401	268.87
664.812	313.34
665.224	311
665.635	287.59
666.047	219.72
666.458	301.64
666.869	275.89
667.281	289.93
667.692	250.14
668.103	271.21
668.514	294.61
668.925	322.7
669.336	282.91
669.747	306.32
670.158	339.09
670.569	289.93
670.979	303.98
671.39	299.3
671.801	348.45
672.211	266.53
672.622	357.81
673.032	285.25
673.443	357.81
673.853	308.66
674.263	332.06
674.674	303.98
675.084	341.43
675.494	378.87
675.904	353.13
676.314	308.66
676.724	336.74
677.134	289.93
677.544	252.49
677.953	353.13
678.363	268.87
678.773	325.04
679.182	395.26
679.592	306.32
680.001	315.68
680.411	278.23
680.82	325.04
681.23	285.25
681.639	325.04
682.048	264.19
682.457	320.36
682.866	343.77
683.275	275.89
683.684	273.55
684.093	280.57
684.502	294.61
684.911	296.96
685.32	346.11
685.728	299.3
686.137	273.55
686.546	350.79
686.954	301.64
687.363	282.91
687.771	301.64
688.179	252.49
688.588	294.61
688.996	332.06
689.404	271.21
689.812	303.98
690.22	334.4
690.628	229.08
691.036	289.93
691.444	292.27
691.852	294.61
692.26	329.72
692.667	303.98
693.075	376.53
693.483	294.61
693.89	271.21
694.298	350.79
694.705	271.21
695.112	271.21
695.52	271.21
695.927	278.23
696.334	285.25
696.741	292.27
697.148	353.13
697.555	320.36
697.962	301.64
698.369	285.25
698.776	275.89
699.183	259.51
699.59	289.93
699.996	261.85
700.403	327.38
700.81	332.06
701.216	287.59
701.623	301.64
702.029	339.09
702.435	217.38
702.842	327.38
703.248	311
703.654	252.49
704.06	360.15
704.466	289.93
704.872	292.27
705.278	308.66
705.684	390.58
706.09	285.25
706.496	301.64
706.901	322.7
707.307	296.96
707.712	282.91
708.118	233.76
708.523	308.66
708.929	261.85
709.334	301.64
709.74	280.57
710.145	292.27
710.55	334.4
710.955	311
711.36	327.38
711.765	315.68
712.17	313.34
712.575	296.96
712.98	945.28
713.385	334.4
713.789	306.32
714.194	299.3
714.599	311
715.003	329.72
715.408	296.96
715.812	296.96
716.217	306.32
716.621	303.98
717.025	346.11
717.429	301.64
717.833	278.23
718.238	334.4
718.642	275.89
719.046	240.78
719.449	289.93
719.853	325.04
720.257	325.04
720.661	332.06
721.065	245.46
721.468	301.64
721.872	264.19
722.275	306.32
722.679	322.7
723.082	303.98
723.485	243.12
723.889	271.21
724.292	292.27
724.695	280.57
725.098	289.93
725.501	315.68
725.904	301.64
726.307	271.21
726.71	296.96
727.113	339.09
727.516	301.64
727.918	322.7
728.321	311
728.724	315.68
729.126	303.98
729.529	289.93
729.931	289.93
730.333	280.57
730.736	376.53
731.138	318.02
731.54	282.91
731.942	329.72
732.344	329.72
732.746	336.74
733.148	367.17
733.55	247.8
733.952	294.61
734.354	271.21
734.756	315.68
735.157	257.17
735.559	322.7
735.96	294.61
736.362	325.04
736.763	240.78
737.165	257.17
737.566	299.3
737.967	285.25
738.368	315.68
738.77	329.72
739.171	261.85
739.572	250.14
739.973	247.8
740.374	278.23
740.774	294.61
741.175	231.42
741.576	287.59
741.977	247.8
742.377	320.36
742.778	355.47
743.178	222.06
743.579	334.4
743.979	313.34
744.379	327.38
744.78	334.4
745.18	334.4
745.58	306.32
745.98	350.79
746.38	301.64
746.78	334.4
747.18	306.32
747.58	287.59
747.98	318.02
748.38	303.98
748.779	292.27
749.179	311
749.578	343.77
749.978	296.96
750.377	266.53
750.777	294.61
751.176	336.74
751.575	357.81
751.975	268.87
752.374	336.74
752.773	280.57
753.172	301.64
753.571	322.7
753.97	278.23
754.369	339.09
754.768	325.04
755.166	308.66
755.565	294.61
755.964	334.4
756.362	346.11
756.761	301.64
757.159	250.14
757.558	289.93
757.956	250.14
758.354	306.32
758.753	346.11
759.151	329.72
759.549	268.87
759.947	311
760.345	311
760.743	325.04
761.141	322.7
761.539	212.7
761.936	299.3
762.334	327.38
762.732	320.36
763.129	303.98
763.527	306.32
763.924	282.91
764.322	339.09
764.719	285.25
765.117	313.34
765.514	264.19
765.911	275.89
766.308	275.89
766.705	318.02
767.102	322.7
767.499	285.25
767.896	318.02
768.293	332.06
768.69	287.59
769.086	303.98
769.483	350.79
769.88	348.45
770.276	233.76
770.673	273.55
771.069	346.11
771.466	318.02
771.862	346.11
772.258	301.64
772.654	332.06
773.05	292.27
773.447	287.59
773.843	301.64
774.239	303.98
774.634	322.7
775.03	275.89
775.426	268.87
775.822	247.8
776.218	303.98
776.613	294.61
777.009	313.34
777.404	306.32
777.8	308.66
778.195	313.34
778.59	289.93
778.986	299.3
779.381	282.91
779.776	306.32
780.171	285.25
780.566	268.87
780.961	287.59
781.356	308.66
781.751	306.32
782.146	308.66
782.54	273.55
782.935	320.36
783.33	268.87
783.724	282.91
784.119	287.59
784.513	257.17
784.908	247.8
785.302	296.96
785.696	200.99
786.09	315.68
786.485	299.3
786.879	257.17
787.273	292.27
787.667	285.25
788.061	329.72
788.454	245.46
788.848	318.02
789.242	318.02
789.636	303.98
790.029	252.49
790.423	303.98
790.816	245.46
791.21	306.32
791.603	243.12
791.997	329.72
792.39	294.61
792.783	289.93
793.176	343.77
793.569	273.55
793.962	285.25
794.355	275.89
794.748	334.4
795.141	320.36
795.534	294.61
795.927	336.74
796.319	346.11
796.712	273.55
797.105	275.89
797.497	289.93
797.89	325.04
798.282	292.27
798.674	397.6
799.067	308.66
799.459	245.46
799.851	282.91
800.243	308.66
800.635	247.8
801.027	306.32
801.419	313.34
801.811	308.66
802.203	311
802.594	318.02
802.986	250.14
803.378	327.38
803.769	282.91
804.161	219.72
804.552	264.19
804.944	250.14
805.335	217.38
805.726	336.74
806.118	275.89
806.509	261.85
806.9	282.91
807.291	299.3
807.682	348.45
808.073	313.34
808.464	292.27
808.855	266.53
809.245	320.36
809.636	327.38
810.027	271.21
810.417	289.93
810.808	271.21
811.198	318.02
811.589	236.1
811.979	381.21
812.369	343.77
812.759	334.4
813.15	371.85
813.54	261.85
813.93	320.36
814.32	268.87
814.71	296.96
815.1	315.68
815.489	268.87
815.879	280.57
816.269	306.32
816.658	329.72
817.048	325.04
817.438	320.36
817.827	311
818.216	306.32
818.606	252.49
818.995	325.04
819.384	266.53
819.773	257.17
820.163	353.13
820.552	292.27
820.941	264.19
821.33	327.38
821.718	285.25
822.107	254.83
822.496	327.38
822.885	285.25
823.273	311
823.662	271.21
824.05	332.06
824.439	329.72
824.827	322.7
825.216	318.02
825.604	320.36
825.992	261.85
826.38	341.43
826.768	285.25
827.156	353.13
827.544	318.02
827.932	315.68
828.32	299.3
828.708	294.61
829.096	357.81
829.483	329.72
829.871	329.72
830.259	339.09
830.646	275.89
831.034	266.53
831.421	294.61
831.808	257.17
832.196	294.61
832.583	285.25
832.97	303.98
833.357	364.83
833.744	346.11
834.131	275.89
834.518	299.3
834.905	289.93
835.292	348.45
835.678	339.09
836.065	233.76
836.452	287.59
836.838	273.55
837.225	271.21
837.611	318.02
837.998	296.96
838.384	282.91
838.77	294.61
839.157	292.27
839.543	311
839.929	282.91
840.315	238.44
840.701	313.34
841.087	285.25
841.473	275.89
841.858	374.19
842.244	318.02
842.63	350.79
843.015	322.7
843.401	603.57
843.787	385.9
844.172	306.32
844.557	247.8
844.943	327.38
845.328	332.06
845.713	322.7
846.098	282.91
846.483	318.02
846.868	287.59
847.253	271.21
847.638	336.74
848.023	275.89
848.408	264.19
848.793	301.64
849.177	329.72
849.562	339.09
849.947	303.98
850.331	327.38
850.715	318.02
851.1	397.6
851.484	252.49
851.868	299.3
852.253	254.83
852.637	268.87
853.021	350.79
853.405	315.68
853.789	278.23
854.173	285.25
854.557	306.32
854.94	271.21
855.324	334.4
855.708	306.32
856.091	303.98
856.475	362.49
856.858	353.13
857.242	306.32
857.625	320.36
858.009	303.98
858.392	329.72
858.775	296.96
859.158	315.68
859.541	257.17
859.924	266.53
860.307	313.34
860.69	273.55
861.073	301.64
861.456	336.74
861.838	289.93
862.221	257.17
862.604	313.34
862.986	322.7
863.369	292.27
863.751	315.68
864.133	257.17
864.516	299.3
864.898	322.7
865.28	360.15
865.662	306.32
866.044	318.02
866.426	306.32
866.808	318.02
867.19	261.85
867.572	353.13
867.954	376.53
868.336	296.96
868.717	296.96
869.099	329.72
869.48	282.91
869.862	299.3
870.243	315.68
870.625	282.91
871.006	280.57
871.387	336.74
871.768	311
872.149	334.4
872.53	322.7
872.911	268.87
873.292	278.23
873.673	219.72
874.054	292.27
874.435	243.12
874.815	287.59
875.196	311
875.577	332.06
875.957	322.7
876.338	334.4
876.718	301.64
877.098	285.25
877.479	247.8
877.859	271.21
878.239	329.72
878.619	299.3
878.999	294.61
879.379	266.53
879.759	292.27
880.139	275.89
880.519	264.19
880.898	318.02
881.278	271.21
881.658	257.17
882.037	257.17
882.417	252.49
882.796	245.46
883.176	296.96
883.555	332.06
883.934	336.74
884.313	334.4
884.693	327.38
885.072	329.72
885.451	313.34
885.83	287.59
886.209	278.23
886.587	339.09
886.966	336.74
887.345	289.93
887.724	348.45
888.102	296.96
888.481	369.51
888.859	282.91
889.238	259.51
889.616	289.93
889.994	339.09
890.373	355.47
890.751	294.61
891.129	348.45
891.507	315.68
891.885	308.66
892.263	287.59
892.641	332.06
893.019	289.93
893.396	296.96
893.774	399.94
894.152	292.27
894.529	252.49
894.907	320.36
895.284	301.64
895.662	320.36
896.039	303.98
896.416	273.55
896.794	308.66
897.171	266.53
897.548	285.25
897.925	243.12
898.302	294.61
898.679	329.72
899.056	318.02
899.433	360.15
899.809	273.55
900.186	299.3
900.563	336.74
900.939	315.68
901.316	303.98
901.692	322.7
902.069	334.4
902.445	390.58
902.821	254.83
903.197	271.21
903.574	303.98
903.95	287.59
904.326	273.55
904.702	341.43
905.078	250.14
905.454	219.72
905.829	254.83
906.205	313.34
906.581	266.53
906.956	273.55
907.332	257.17
907.707	257.17
908.083	275.89
908.458	275.89
908.833	261.85
909.209	318.02
909.584	299.3
909.959	336.74
910.334	322.7
910.709	315.68
911.084	339.09
911.459	329.72
911.834	278.23
912.209	336.74
912.583	278.23
912.958	303.98
913.333	294.61
913.707	292.27
914.082	329.72
914.456	296.96
914.83	341.43
915.205	238.44
915.579	303.98
915.953	294.61
916.327	311
916.701	360.15
917.075	327.38
917.449	327.38
917.823	318.02
918.197	313.34
918.571	280.57
918.944	282.91
919.318	231.42
919.692	245.46
920.065	303.98
920.438	240.78
920.812	280.57
921.185	296.96
921.558	318.02
921.932	318.02
922.305	282.91
922.678	250.14
923.051	311
923.424	254.83
923.797	353.13
924.17	303.98
924.542	273.55
924.915	275.89
925.288	280.57
925.661	250.14
926.033	289.93
926.406	336.74
926.778	350.79
927.15	278.23
927.523	296.96
927.895	203.33
928.267	311
928.639	247.8
929.011	296.96
929.383	306.32
929.755	273.55
930.127	303.98
930.499	299.3
930.871	292.27
931.242	362.49
931.614	322.7
931.986	303.98
932.357	301.64
932.729	285.25
933.1	315.68
933.471	308.66
933.843	336.74
934.214	308.66
934.585	294.61
934.956	240.78
935.327	264.19
935.698	301.64
936.069	278.23
936.44	252.49
936.811	362.49
937.182	303.98
937.552	318.02
937.923	292.27
938.293	315.68
938.664	320.36
939.034	303.98
939.405	287.59
939.775	299.3
940.145	245.46
940.516	299.3
940.886	303.98
941.256	325.04
941.626	287.59
941.996	346.11
942.366	245.46
942.735	280.57
943.105	320.36
943.475	362.49
943.845	367.17
944.214	247.8
944.584	287.59
944.953	252.49
945.323	231.42
945.692	275.89
946.061	280.57
946.43	296.96
946.8	334.4
947.169	301.64
947.538	322.7
947.907	268.87
948.276	245.46
948.645	329.72
949.013	327.38
949.382	327.38
949.751	273.55
950.119	280.57
950.488	308.66
950.857	273.55
951.225	250.14
951.593	271.21
951.962	287.59
952.33	264.19
952.698	294.61
953.066	306.32
953.434	278.23
953.802	240.78
954.17	303.98
954.538	294.61
954.906	315.68
955.274	259.51
955.642	362.49
956.009	360.15
956.377	219.72
956.744	311
957.112	292.27
957.479	306.32
957.847	257.17
958.214	294.61
958.581	360.15
958.948	332.06
959.315	311
959.683	332.06
960.05	261.85
960.416	346.11
960.783	299.3
961.15	247.8
961.517	280.57
961.884	250.14
962.25	296.96
962.617	240.78
962.983	294.61
963.35	268.87
963.716	259.51
964.082	315.68
964.449	268.87
964.815	271.21
965.181	376.53
965.547	353.13
965.913	282.91
966.279	301.64
966.645	287.59
967.011	247.8
967.377	311
967.742	285.25
968.108	318.02
968.474	278.23
968.839	327.38
969.205	261.85
969.57	313.34
969.935	264.19
970.301	315.68
970.666	311
971.031	287.59
971.396	322.7
971.761	266.53
972.126	306.32
972.491	332.06
972.856	273.55
973.221	252.49
973.586	294.61
973.95	334.4
974.315	303.98
974.679	350.79
975.044	301.64
975.408	303.98
975.773	268.87
976.137	299.3
976.501	308.66
976.866	299.3
977.23	332.06
977.594	296.96
977.958	259.51
978.322	254.83
978.686	320.36
979.049	280.57
979.413	287.59
979.777	348.45
980.141	285.25
980.504	303.98
980.868	329.72
981.231	282.91
981.595	350.79
981.958	318.02
982.321	280.57
982.684	341.43
983.048	261.85
983.411	294.61
983.774	268.87
984.137	315.68
984.5	261.85
984.862	292.27
985.225	336.74
985.588	311
985.951	320.36
986.313	236.1
986.676	289.93
987.038	348.45
987.401	355.47
987.763	275.89
988.125	261.85
988.488	325.04
988.85	257.17
989.212	282.91
989.574	313.34
989.936	325.04
990.298	250.14
990.66	303.98
991.022	257.17
991.383	280.57
991.745	325.04
992.107	264.19
992.468	308.66
992.83	299.3
993.191	311
993.553	306.32
993.914	313.34
994.275	268.87
994.637	343.77
994.998	285.25
995.359	296.96
995.72	243.12
996.081	250.14
996.442	329.72
996.803	266.53
997.163	296.96
997.524	306.32
997.885	287.59
998.245	280.57
998.606	294.61
998.966	268.87
999.327	254.83
999.687	287.59
1000.047	273.55
1000.408	350.79
1000.768	226.74
1001.128	294.61
1001.488	273.55
1001.848	289.93
1002.208	327.38
1002.568	285.25
1002.927	266.53
1003.287	322.7
1003.647	301.64
1004.007	343.77
1004.366	280.57
1004.726	308.66
1005.085	313.34
1005.444	299.3
1005.804	315.68
1006.163	301.64
1006.522	334.4
1006.881	360.15
1007.24	315.68
1007.599	240.78
1007.958	299.3
1008.317	329.72
1008.676	336.74
1009.035	292.27
1009.393	301.64
1009.752	315.68
1010.111	299.3
1010.469	301.64
1010.828	243.12
1011.186	318.02
1011.544	311
1011.903	287.59
1012.261	308.66
1012.619	306.32
1012.977	278.23
1013.335	247.8
1013.693	273.55
1014.051	320.36
1014.409	236.1
1014.767	296.96
1015.124	271.21
1015.482	313.34
1015.84	299.3
1016.197	364.83
1016.555	329.72
1016.912	268.87
1017.269	294.61
1017.627	367.17
1017.984	287.59
1018.341	303.98
1018.698	320.36
1019.055	257.17
1019.412	257.17
1019.769	273.55
1020.126	313.34
1020.483	280.57
1020.84	303.98
1021.196	336.74
1021.553	299.3
1021.909	280.57
1022.266	236.1
1022.622	289.93
1022.979	381.21
1023.335	311
1023.691	329.72
1024.047	285.25
1024.404	264.19
1024.76	264.19
1025.116	289.93
1025.472	275.89
1025.827	303.98
1026.183	313.34
1026.539	360.15
1026.895	268.87
1027.25	238.44
1027.606	350.79
1027.961	303.98
1028.317	280.57
1028.672	282.91
1029.028	299.3
1029.383	322.7
1029.738	243.12
1030.093	343.77
1030.448	247.8
1030.803	320.36
1031.158	275.89
1031.513	250.14
1031.868	268.87
1032.223	285.25
1032.577	247.8
1032.932	280.57
1033.287	320.36
1033.641	301.64
1033.996	318.02
1034.35	257.17
1034.704	343.77
1035.059	285.25
1035.413	275.89
1035.767	275.89
1036.121	275.89
