Data from Al_FLMS009871__686__15-07-13-337.txt Node

Date: Fri Mar 08 15:07:13 CST 2024
User: pe5414po
Spectrometer: FLMS00987
Trigger mode: 0
Integration Time (sec): 1.000000E-1
Scans to average: 1
Electric dark correction enabled: true
Nonlinearity correction enabled: false
Boxcar width: 0
XAxis mode: Wavelengths
Number of Pixels in Spectrum: 2048
>>>>>Begin Spectral Data<<<<<
188.938	-37.74
189.409	-37.74
189.879	-37.74
190.349	-98.6
190.819	-42.42
191.29	-98.6
191.76	-75.19
192.23	-79.87
192.7	-147.75
193.17	-82.21
193.64	6.73
194.109	-37.74
194.579	-44.76
195.049	-16.68
195.519	16.09
195.988	83.97
196.458	65.24
196.927	76.95
197.397	137.8
197.866	112.05
198.336	83.97
198.805	233.76
199.274	212.7
199.744	186.95
200.213	243.12
200.682	303.98
201.151	191.63
201.62	210.36
202.089	238.44
202.558	261.85
203.027	334.4
203.495	292.27
203.964	245.46
204.433	254.83
204.902	252.49
205.37	266.53
205.839	268.87
206.307	282.91
206.776	273.55
207.244	257.17
207.712	250.14
208.181	252.49
208.649	339.09
209.117	362.49
209.585	390.58
210.053	336.74
210.521	271.21
210.989	311
211.457	332.06
211.925	332.06
212.393	233.76
212.861	322.7
213.328	329.72
213.796	278.23
214.264	301.64
214.731	238.44
215.199	226.74
215.666	268.87
216.133	285.25
216.601	264.19
217.068	306.32
217.535	273.55
218.003	294.61
218.47	339.09
218.937	222.06
219.404	308.66
219.871	250.14
220.338	292.27
220.805	278.23
221.271	257.17
221.738	285.25
222.205	229.08
222.671	273.55
223.138	299.3
223.605	268.87
224.071	278.23
224.538	222.06
225.004	315.68
225.47	182.27
225.937	266.53
226.403	289.93
226.869	261.85
227.335	289.93
227.801	231.42
228.267	222.06
228.733	238.44
229.199	285.25
229.665	360.15
230.131	294.61
230.597	313.34
231.062	315.68
231.528	301.64
231.994	268.87
232.459	254.83
232.925	296.96
233.39	285.25
233.856	301.64
234.321	229.08
234.786	334.4
235.252	299.3
235.717	245.46
236.182	292.27
236.647	231.42
237.112	332.06
237.577	285.25
238.042	268.87
238.507	250.14
238.972	200.99
239.436	189.29
239.901	282.91
240.366	336.74
240.83	308.66
241.295	292.27
241.76	296.96
242.224	320.36
242.688	360.15
243.153	378.87
243.617	273.55
244.081	280.57
244.545	301.64
245.01	273.55
245.474	292.27
245.938	306.32
246.402	285.25
246.866	306.32
247.33	268.87
247.793	250.14
248.257	327.38
248.721	320.36
249.185	299.3
249.648	332.06
250.112	285.25
250.575	294.61
251.039	292.27
251.502	280.57
251.965	409.3
252.429	282.91
252.892	240.78
253.355	264.19
253.818	336.74
254.281	303.98
254.744	287.59
255.207	289.93
255.67	292.27
256.133	294.61
256.596	287.59
257.059	322.7
257.522	271.21
257.984	292.27
258.447	334.4
258.909	257.17
259.372	278.23
259.834	303.98
260.297	306.32
260.759	322.7
261.221	278.23
261.684	285.25
262.146	273.55
262.608	327.38
263.07	278.23
263.532	294.61
263.994	301.64
264.456	329.72
264.918	332.06
265.38	308.66
265.842	306.32
266.303	357.81
266.765	287.59
267.227	278.23
267.688	275.89
268.15	322.7
268.611	282.91
269.072	294.61
269.534	341.43
269.995	292.27
270.456	301.64
270.918	301.64
271.379	282.91
271.84	301.64
272.301	362.49
272.762	296.96
273.223	357.81
273.684	325.04
274.144	329.72
274.605	313.34
275.066	318.02
275.527	367.17
275.987	219.72
276.448	259.51
276.908	306.32
277.369	327.38
277.829	287.59
278.289	273.55
278.75	303.98
279.21	318.02
279.67	299.3
280.13	346.11
280.59	315.68
281.05	296.96
281.51	280.57
281.97	364.83
282.43	313.34
282.89	229.08
283.35	243.12
283.809	355.47
284.269	369.51
284.729	325.04
285.188	306.32
285.648	308.66
286.107	346.11
286.567	268.87
287.026	313.34
287.485	313.34
287.944	318.02
288.404	341.43
288.863	247.8
289.322	315.68
289.781	236.1
290.24	350.79
290.699	268.87
291.158	353.13
291.616	346.11
292.075	334.4
292.534	254.83
292.992	350.79
293.451	243.12
293.91	341.43
294.368	346.11
294.827	353.13
295.285	343.77
295.743	322.7
296.202	325.04
296.66	289.93
297.118	341.43
297.576	275.89
298.034	334.4
298.492	318.02
298.95	364.83
299.408	306.32
299.866	296.96
300.324	299.3
300.781	421
301.239	303.98
301.697	294.61
302.154	299.3
302.612	313.34
303.069	350.79
303.527	315.68
303.984	325.04
304.441	313.34
304.899	250.14
305.356	348.45
305.813	322.7
306.27	271.21
306.727	306.32
307.184	336.74
307.641	292.27
308.098	296.96
308.555	332.06
309.012	322.7
309.468	280.57
309.925	315.68
310.382	355.47
310.838	353.13
311.295	376.53
311.751	210.36
312.208	280.57
312.664	355.47
313.12	252.49
313.577	325.04
314.033	282.91
314.489	308.66
314.945	299.3
315.401	275.89
315.857	280.57
316.313	296.96
316.769	350.79
317.225	285.25
317.681	311
318.136	308.66
318.592	397.6
319.048	353.13
319.503	325.04
319.959	273.55
320.414	313.34
320.869	325.04
321.325	275.89
321.78	275.89
322.235	306.32
322.691	348.45
323.146	350.79
323.601	306.32
324.056	311
324.511	364.83
324.966	315.68
325.421	203.33
325.875	280.57
326.33	315.68
326.785	308.66
327.24	313.34
327.694	397.6
328.149	341.43
328.603	289.93
329.058	303.98
329.512	353.13
329.966	353.13
330.421	395.26
330.875	318.02
331.329	296.96
331.783	280.57
332.237	280.57
332.691	343.77
333.145	318.02
333.599	261.85
334.053	299.3
334.507	332.06
334.96	318.02
335.414	303.98
335.868	318.02
336.321	327.38
336.775	287.59
337.228	313.34
337.682	292.27
338.135	229.08
338.588	275.89
339.042	318.02
339.495	320.36
339.948	409.3
340.401	306.32
340.854	296.96
341.307	299.3
341.76	320.36
342.213	327.38
342.666	327.38
343.119	327.38
343.571	383.56
344.024	343.77
344.477	313.34
344.929	299.3
345.382	360.15
345.834	303.98
346.287	327.38
346.739	273.55
347.191	341.43
347.644	292.27
348.096	329.72
348.548	346.11
349	348.45
349.452	371.85
349.904	385.9
350.356	296.96
350.808	397.6
351.26	306.32
351.711	322.7
352.163	353.13
352.615	308.66
353.066	339.09
353.518	308.66
353.969	287.59
354.421	378.87
354.872	374.19
355.324	385.9
355.775	308.66
356.226	364.83
356.677	287.59
357.128	299.3
357.579	339.09
358.03	346.11
358.481	378.87
358.932	327.38
359.383	341.43
359.834	311
360.285	332.06
360.735	254.83
361.186	360.15
361.637	273.55
362.087	329.72
362.538	334.4
362.988	306.32
363.438	325.04
363.889	259.51
364.339	315.68
364.789	318.02
365.239	350.79
365.689	341.43
366.139	336.74
366.589	350.79
367.039	336.74
367.489	385.9
367.939	334.4
368.389	341.43
368.839	320.36
369.288	275.89
369.738	315.68
370.187	275.89
370.637	315.68
371.086	334.4
371.536	325.04
371.985	308.66
372.434	339.09
372.884	341.43
373.333	388.24
373.782	346.11
374.231	318.02
374.68	278.23
375.129	273.55
375.578	273.55
376.027	364.83
376.475	271.21
376.924	341.43
377.373	320.36
377.822	311
378.27	369.51
378.719	299.3
379.167	329.72
379.616	348.45
380.064	315.68
380.512	348.45
380.961	327.38
381.409	348.45
381.857	334.4
382.305	332.06
382.753	282.91
383.201	266.53
383.649	367.17
384.097	350.79
384.545	357.81
384.992	367.17
385.44	357.81
385.888	371.85
386.335	339.09
386.783	278.23
387.231	329.72
387.678	301.64
388.125	383.56
388.573	292.27
389.02	346.11
389.467	343.77
389.914	325.04
390.362	308.66
390.809	292.27
391.256	275.89
391.703	303.98
392.15	341.43
392.596	355.47
393.043	282.91
393.49	371.85
393.937	325.04
394.383	296.96
394.83	299.3
395.276	343.77
395.723	341.43
396.169	374.19
396.616	303.98
397.062	332.06
397.508	318.02
397.954	371.85
398.401	346.11
398.847	339.09
399.293	334.4
399.739	332.06
400.185	299.3
400.631	313.34
401.076	348.45
401.522	341.43
401.968	343.77
402.414	369.51
402.859	306.32
403.305	282.91
403.75	287.59
404.196	332.06
404.641	325.04
405.086	299.3
405.532	320.36
405.977	364.83
406.422	329.72
406.867	355.47
407.312	318.02
407.757	367.17
408.202	341.43
408.647	311
409.092	308.66
409.537	303.98
409.982	301.64
410.426	329.72
410.871	306.32
411.316	360.15
411.76	367.17
412.205	343.77
412.649	311
413.093	350.79
413.538	273.55
413.982	292.27
414.426	285.25
414.87	306.32
415.314	296.96
415.758	371.85
416.202	301.64
416.646	339.09
417.09	336.74
417.534	289.93
417.978	388.24
418.421	357.81
418.865	357.81
419.309	299.3
419.752	318.02
420.196	329.72
420.639	292.27
421.083	315.68
421.526	280.57
421.969	299.3
422.412	250.14
422.856	390.58
423.299	360.15
423.742	355.47
424.185	318.02
424.628	388.24
425.071	350.79
425.513	357.81
425.956	313.34
426.399	303.98
426.842	325.04
427.284	357.81
427.727	278.23
428.169	329.72
428.612	311
429.054	313.34
429.497	329.72
429.939	289.93
430.381	301.64
430.823	343.77
431.265	339.09
431.707	320.36
432.149	280.57
432.591	371.85
433.033	303.98
433.475	315.68
433.917	353.13
434.359	308.66
434.8	341.43
435.242	301.64
435.684	327.38
436.125	308.66
436.567	313.34
437.008	278.23
437.449	348.45
437.891	303.98
438.332	289.93
438.773	311
439.214	336.74
439.656	348.45
440.097	353.13
440.538	332.06
440.978	357.81
441.419	318.02
441.86	325.04
442.301	369.51
442.742	306.32
443.182	371.85
443.623	383.56
444.063	294.61
444.504	311
444.944	303.98
445.385	336.74
445.825	285.25
446.265	287.59
446.706	296.96
447.146	320.36
447.586	336.74
448.026	362.49
448.466	308.66
448.906	360.15
449.346	348.45
449.786	303.98
450.225	350.79
450.665	299.3
451.105	353.13
451.544	395.26
451.984	353.13
452.424	381.21
452.863	355.47
453.302	266.53
453.742	320.36
454.181	322.7
454.62	285.25
455.059	285.25
455.499	315.68
455.938	320.36
456.377	325.04
456.816	362.49
457.254	343.77
457.693	364.83
458.132	301.64
458.571	303.98
459.01	303.98
459.448	397.6
459.887	280.57
460.325	329.72
460.764	282.91
461.202	268.87
461.641	334.4
462.079	299.3
462.517	311
462.955	404.62
463.393	322.7
463.832	322.7
464.27	392.92
464.708	325.04
465.145	339.09
465.583	306.32
466.021	282.91
466.459	355.47
466.897	406.96
467.334	371.85
467.772	313.34
468.209	292.27
468.647	332.06
469.084	343.77
469.522	350.79
469.959	418.66
470.396	343.77
470.833	315.68
471.271	313.34
471.708	320.36
472.145	285.25
472.582	303.98
473.019	378.87
473.456	362.49
473.892	423.34
474.329	367.17
474.766	325.04
475.202	278.23
475.639	322.7
476.076	301.64
476.512	339.09
476.949	350.79
477.385	303.98
477.821	343.77
478.258	348.45
478.694	404.62
479.13	287.59
479.566	320.36
480.002	364.83
480.438	282.91
480.874	320.36
481.31	322.7
481.746	339.09
482.181	318.02
482.617	325.04
483.053	311
483.488	296.96
483.924	306.32
484.36	336.74
484.795	313.34
485.23	343.77
485.666	303.98
486.101	388.24
486.536	308.66
486.971	343.77
487.407	360.15
487.842	353.13
488.277	287.59
488.712	336.74
489.146	252.49
489.581	273.55
490.016	332.06
490.451	346.11
490.885	285.25
491.32	327.38
491.755	282.91
492.189	339.09
492.624	318.02
493.058	315.68
493.492	346.11
493.927	395.26
494.361	329.72
494.795	392.92
495.229	322.7
495.663	411.64
496.097	287.59
496.531	292.27
496.965	308.66
497.399	334.4
497.833	364.83
498.266	313.34
498.7	306.32
499.134	332.06
499.567	303.98
500.001	374.19
500.434	362.49
500.868	350.79
501.301	329.72
501.734	325.04
502.168	299.3
502.601	378.87
503.034	282.91
503.467	357.81
503.9	369.51
504.333	280.57
504.766	371.85
505.199	311
505.632	343.77
506.064	334.4
506.497	289.93
506.93	252.49
507.362	311
507.795	257.17
508.227	280.57
508.66	406.96
509.092	336.74
509.524	306.32
509.956	301.64
510.389	289.93
510.821	320.36
511.253	318.02
511.685	247.8
512.117	334.4
512.549	332.06
512.981	367.17
513.412	261.85
513.844	320.36
514.276	313.34
514.707	315.68
515.139	315.68
515.571	364.83
516.002	320.36
516.433	268.87
516.865	322.7
517.296	378.87
517.727	402.28
518.159	371.85
518.59	322.7
519.021	315.68
519.452	371.85
519.883	346.11
520.314	294.61
520.744	357.81
521.175	378.87
521.606	313.34
522.037	313.34
522.467	325.04
522.898	278.23
523.328	296.96
523.759	334.4
524.189	296.96
524.62	294.61
525.05	360.15
525.48	285.25
525.91	299.3
526.341	313.34
526.771	371.85
527.201	409.3
527.631	329.72
528.061	327.38
528.49	371.85
528.92	383.56
529.35	313.34
529.78	320.36
530.209	360.15
530.639	275.89
531.068	346.11
531.498	334.4
531.927	329.72
532.357	329.72
532.786	395.26
533.215	336.74
533.644	252.49
534.074	395.26
534.503	282.91
534.932	329.72
535.361	313.34
535.79	355.47
536.218	339.09
536.647	353.13
537.076	287.59
537.505	371.85
537.933	374.19
538.362	329.72
538.79	275.89
539.219	378.87
539.647	275.89
540.076	308.66
540.504	357.81
540.932	320.36
541.36	315.68
541.788	320.36
542.217	341.43
542.645	329.72
543.073	245.46
543.5	318.02
543.928	320.36
544.356	348.45
544.784	371.85
545.211	273.55
545.639	336.74
546.067	339.09
546.494	371.85
546.922	266.53
547.349	353.13
547.776	313.34
548.204	273.55
548.631	350.79
549.058	343.77
549.485	313.34
549.912	343.77
550.339	362.49
550.766	325.04
551.193	346.11
551.62	381.21
552.047	285.25
552.474	327.38
552.9	322.7
553.327	308.66
553.754	392.92
554.18	306.32
554.607	392.92
555.033	311
555.459	294.61
555.886	322.7
556.312	341.43
556.738	332.06
557.164	348.45
557.59	306.32
558.016	385.9
558.442	292.27
558.868	325.04
559.294	329.72
559.72	299.3
560.145	311
560.571	325.04
560.997	318.02
561.422	357.81
561.848	355.47
562.273	320.36
562.699	285.25
563.124	346.11
563.549	339.09
563.974	308.66
564.4	301.64
564.825	273.55
565.25	303.98
565.675	343.77
566.1	336.74
566.525	334.4
566.95	226.74
567.374	334.4
567.799	318.02
568.224	364.83
568.648	289.93
569.073	273.55
569.497	341.43
569.922	313.34
570.346	355.47
570.771	374.19
571.195	306.32
571.619	311
572.043	306.32
572.467	318.02
572.891	374.19
573.315	332.06
573.739	311
574.163	355.47
574.587	322.7
575.011	341.43
575.435	376.53
575.858	339.09
576.282	388.24
576.705	306.32
577.129	334.4
577.552	311
577.976	278.23
578.399	282.91
578.822	322.7
579.245	341.43
579.669	339.09
580.092	303.98
580.515	329.72
580.938	385.9
581.361	315.68
581.784	325.04
582.206	367.17
582.629	357.81
583.052	320.36
583.474	308.66
583.897	346.11
584.32	362.49
584.742	329.72
585.165	325.04
585.587	346.11
586.009	303.98
586.431	369.51
586.854	334.4
587.276	289.93
587.698	313.34
588.12	268.87
588.542	395.26
588.964	336.74
589.386	318.02
589.807	296.96
590.229	271.21
590.651	320.36
591.073	378.87
591.494	346.11
591.916	303.98
592.337	294.61
592.759	329.72
593.18	339.09
593.601	360.15
594.022	357.81
594.444	343.77
594.865	334.4
595.286	390.58
595.707	301.64
596.128	334.4
596.549	313.34
596.97	355.47
597.39	364.83
597.811	357.81
598.232	360.15
598.652	287.59
599.073	350.79
599.494	336.74
599.914	311
600.334	329.72
600.755	308.66
601.175	362.49
601.595	327.38
602.015	320.36
602.436	353.13
602.856	477.18
603.276	289.93
603.696	369.51
604.115	301.64
604.535	350.79
604.955	247.8
605.375	318.02
605.794	320.36
606.214	282.91
606.634	325.04
607.053	381.21
607.473	332.06
607.892	296.96
608.311	296.96
608.731	257.17
609.15	341.43
609.569	325.04
609.988	327.38
610.407	341.43
610.826	367.17
611.245	376.53
611.664	280.57
612.083	299.3
612.501	301.64
612.92	273.55
613.339	329.72
613.757	332.06
614.176	252.49
614.594	348.45
615.013	343.77
615.431	296.96
615.85	343.77
616.268	435.05
616.686	296.96
617.104	289.93
617.522	392.92
617.94	346.11
618.358	282.91
618.776	318.02
619.194	350.79
619.612	261.85
620.03	341.43
620.447	339.09
620.865	294.61
621.282	348.45
621.7	318.02
622.117	376.53
622.535	301.64
622.952	296.96
623.369	273.55
623.787	280.57
624.204	339.09
624.621	381.21
625.038	332.06
625.455	367.17
625.872	336.74
626.289	381.21
626.706	369.51
627.123	278.23
627.539	339.09
627.956	318.02
628.373	285.25
628.789	339.09
629.206	332.06
629.622	381.21
630.038	350.79
630.455	362.49
630.871	292.27
631.287	362.49
631.703	327.38
632.12	325.04
632.536	289.93
632.952	348.45
633.368	322.7
633.783	360.15
634.199	341.43
634.615	336.74
635.031	353.13
635.446	264.19
635.862	278.23
636.277	371.85
636.693	294.61
637.108	266.53
637.524	320.36
637.939	271.21
638.354	303.98
638.77	413.98
639.185	325.04
639.6	301.64
640.015	303.98
640.43	357.81
640.845	381.21
641.259	341.43
641.674	353.13
642.089	385.9
642.504	311
642.918	322.7
643.333	306.32
643.747	341.43
644.162	348.45
644.576	334.4
644.991	353.13
645.405	355.47
645.819	381.21
646.233	367.17
646.647	341.43
647.061	294.61
647.475	327.38
647.889	327.38
648.303	334.4
648.717	325.04
649.131	306.32
649.545	350.79
649.958	369.51
650.372	271.21
650.785	285.25
651.199	378.87
651.612	325.04
652.026	320.36
652.439	360.15
652.852	371.85
653.266	315.68
653.679	364.83
654.092	376.53
654.505	301.64
654.918	299.3
655.331	360.15
655.744	294.61
656.156	329.72
656.569	339.09
656.982	378.87
657.394	329.72
657.807	381.21
658.22	353.13
658.632	301.64
659.044	339.09
659.457	250.14
659.869	336.74
660.281	299.3
660.693	306.32
661.106	334.4
661.518	355.47
661.93	318.02
662.342	303.98
662.754	266.53
663.165	341.43
663.577	313.34
663.989	318.02
664.401	325.04
664.812	231.42
665.224	376.53
665.635	268.87
666.047	308.66
666.458	308.66
666.869	341.43
667.281	357.81
667.692	327.38
668.103	238.44
668.514	364.83
668.925	292.27
669.336	311
669.747	289.93
670.158	353.13
670.569	271.21
670.979	343.77
671.39	339.09
671.801	275.89
672.211	350.79
672.622	318.02
673.032	303.98
673.443	329.72
673.853	357.81
674.263	367.17
674.674	355.47
675.084	296.96
675.494	311
675.904	282.91
676.314	311
676.724	336.74
677.134	364.83
677.544	357.81
677.953	339.09
678.363	296.96
678.773	383.56
679.182	294.61
679.592	357.81
680.001	362.49
680.411	322.7
680.82	341.43
681.23	301.64
681.639	282.91
682.048	299.3
682.457	343.77
682.866	357.81
683.275	306.32
683.684	348.45
684.093	322.7
684.502	318.02
684.911	292.27
685.32	322.7
685.728	320.36
686.137	357.81
686.546	318.02
686.954	339.09
687.363	343.77
687.771	320.36
688.179	296.96
688.588	322.7
688.996	287.59
689.404	336.74
689.812	325.04
690.22	369.51
690.628	362.49
691.036	322.7
691.444	332.06
691.852	308.66
692.26	437.39
692.667	275.89
693.075	325.04
693.483	278.23
693.89	308.66
694.298	243.12
694.705	348.45
695.112	336.74
695.52	275.89
695.927	318.02
696.334	360.15
696.741	329.72
697.148	369.51
697.555	311
697.962	378.87
698.369	334.4
698.776	348.45
699.183	348.45
699.59	250.14
699.996	311
700.403	346.11
700.81	315.68
701.216	367.17
701.623	308.66
702.029	278.23
702.435	336.74
702.842	369.51
703.248	325.04
703.654	341.43
704.06	280.57
704.466	313.34
704.872	367.17
705.278	313.34
705.684	278.23
706.09	350.79
706.496	296.96
706.901	315.68
707.307	357.81
707.712	289.93
708.118	268.87
708.523	411.64
708.929	402.28
709.334	376.53
709.74	402.28
710.145	336.74
710.55	280.57
710.955	243.12
711.36	329.72
711.765	332.06
712.17	327.38
712.575	275.89
712.98	884.43
713.385	357.81
713.789	362.49
714.194	313.34
714.599	245.46
715.003	325.04
715.408	329.72
715.812	252.49
716.217	334.4
716.621	325.04
717.025	355.47
717.429	320.36
717.833	383.56
718.238	350.79
718.642	364.83
719.046	289.93
719.449	339.09
719.853	374.19
720.257	311
720.661	303.98
721.065	364.83
721.468	315.68
721.872	299.3
722.275	282.91
722.679	292.27
723.082	308.66
723.485	318.02
723.889	355.47
724.292	306.32
724.695	282.91
725.098	289.93
725.501	313.34
725.904	355.47
726.307	294.61
726.71	306.32
727.113	369.51
727.516	348.45
727.918	364.83
728.321	390.58
728.724	374.19
729.126	395.26
729.529	362.49
729.931	374.19
730.333	360.15
730.736	266.53
731.138	320.36
731.54	341.43
731.942	327.38
732.344	282.91
732.746	395.26
733.148	334.4
733.55	367.17
733.952	271.21
734.354	282.91
734.756	339.09
735.157	350.79
735.559	301.64
735.96	275.89
736.362	278.23
736.763	343.77
737.165	301.64
737.566	245.46
737.967	329.72
738.368	318.02
738.77	308.66
739.171	353.13
739.572	311
739.973	376.53
740.374	318.02
740.774	341.43
741.175	308.66
741.576	409.3
741.977	296.96
742.377	383.56
742.778	357.81
743.178	322.7
743.579	224.4
743.979	313.34
744.379	327.38
744.78	306.32
745.18	348.45
745.58	303.98
745.98	315.68
746.38	257.17
746.78	313.34
747.18	301.64
747.58	348.45
747.98	350.79
748.38	357.81
748.779	367.17
749.179	268.87
749.578	371.85
749.978	292.27
750.377	268.87
750.777	339.09
751.176	336.74
751.575	266.53
751.975	385.9
752.374	392.92
752.773	343.77
753.172	313.34
753.571	268.87
753.97	315.68
754.369	322.7
754.768	308.66
755.166	343.77
755.565	243.12
755.964	322.7
756.362	296.96
756.761	327.38
757.159	280.57
757.558	355.47
757.956	357.81
758.354	332.06
758.753	280.57
759.151	308.66
759.549	341.43
759.947	292.27
760.345	311
760.743	318.02
761.141	318.02
761.539	311
761.936	315.68
762.334	334.4
762.732	327.38
763.129	336.74
763.527	306.32
763.924	318.02
764.322	266.53
764.719	378.87
765.117	346.11
765.514	271.21
765.911	294.61
766.308	334.4
766.705	311
767.102	369.51
767.499	308.66
767.896	348.45
768.293	271.21
768.69	301.64
769.086	311
769.483	313.34
769.88	320.36
770.276	364.83
770.673	287.59
771.069	353.13
771.466	367.17
771.862	306.32
772.258	308.66
772.654	280.57
773.05	313.34
773.447	320.36
773.843	364.83
774.239	360.15
774.634	364.83
775.03	325.04
775.426	311
775.822	280.57
776.218	306.32
776.613	336.74
777.009	341.43
777.404	367.17
777.8	308.66
778.195	313.34
778.59	336.74
778.986	282.91
779.381	301.64
779.776	369.51
780.171	264.19
780.566	299.3
780.961	334.4
781.356	395.26
781.751	357.81
782.146	329.72
782.54	280.57
782.935	261.85
783.33	339.09
783.724	250.14
784.119	334.4
784.513	364.83
784.908	346.11
785.302	395.26
785.696	378.87
786.09	332.06
786.485	364.83
786.879	355.47
787.273	339.09
787.667	329.72
788.061	353.13
788.454	313.34
788.848	299.3
789.242	311
789.636	292.27
790.029	308.66
790.423	329.72
790.816	350.79
791.21	264.19
791.603	292.27
791.997	308.66
792.39	353.13
792.783	315.68
793.176	320.36
793.569	325.04
793.962	294.61
794.355	350.79
794.748	313.34
795.141	339.09
795.534	322.7
795.927	343.77
796.319	320.36
796.712	334.4
797.105	287.59
797.497	376.53
797.89	294.61
798.282	399.94
798.674	280.57
799.067	374.19
799.459	371.85
799.851	320.36
800.243	299.3
800.635	303.98
801.027	360.15
801.419	341.43
801.811	301.64
802.203	318.02
802.594	301.64
802.986	418.66
803.378	311
803.769	259.51
804.161	336.74
804.552	273.55
804.944	289.93
805.335	339.09
805.726	308.66
806.118	336.74
806.509	329.72
806.9	346.11
807.291	348.45
807.682	285.25
808.073	355.47
808.464	329.72
808.855	336.74
809.245	348.45
809.636	325.04
810.027	313.34
810.417	306.32
810.808	360.15
811.198	343.77
811.589	341.43
811.979	395.26
812.369	257.17
812.759	334.4
813.15	271.21
813.54	399.94
813.93	301.64
814.32	376.53
814.71	280.57
815.1	327.38
815.489	318.02
815.879	311
816.269	315.68
816.658	392.92
817.048	308.66
817.438	313.34
817.827	311
818.216	313.34
818.606	303.98
818.995	332.06
819.384	357.81
819.773	282.91
820.163	292.27
820.552	334.4
820.941	264.19
821.33	329.72
821.718	301.64
822.107	292.27
822.496	285.25
822.885	273.55
823.273	306.32
823.662	339.09
824.05	311
824.439	254.83
824.827	296.96
825.216	327.38
825.604	311
825.992	301.64
826.38	357.81
826.768	303.98
827.156	364.83
827.544	259.51
827.932	362.49
828.32	334.4
828.708	334.4
829.096	313.34
829.483	299.3
829.871	308.66
830.259	341.43
830.646	289.93
831.034	306.32
831.421	336.74
831.808	360.15
832.196	296.96
832.583	289.93
832.97	350.79
833.357	369.51
833.744	339.09
834.131	299.3
834.518	285.25
834.905	339.09
835.292	381.21
835.678	320.36
836.065	341.43
836.452	320.36
836.838	306.32
837.225	299.3
837.611	311
837.998	362.49
838.384	278.23
838.77	299.3
839.157	289.93
839.543	325.04
839.929	303.98
840.315	416.32
840.701	308.66
841.087	308.66
841.473	299.3
841.858	320.36
842.244	348.45
842.63	294.61
843.015	299.3
843.401	570.8
843.787	325.04
844.172	343.77
844.557	343.77
844.943	341.43
845.328	275.89
845.713	313.34
846.098	289.93
846.483	271.21
846.868	362.49
847.253	376.53
847.638	325.04
848.023	271.21
848.408	303.98
848.793	294.61
849.177	343.77
849.562	322.7
849.947	341.43
850.331	329.72
850.715	339.09
851.1	332.06
851.484	348.45
851.868	348.45
852.253	385.9
852.637	315.68
853.021	371.85
853.405	282.91
853.789	329.72
854.173	292.27
854.557	313.34
854.94	247.8
855.324	357.81
855.708	292.27
856.091	334.4
856.475	315.68
856.858	306.32
857.242	292.27
857.625	306.32
858.009	308.66
858.392	252.49
858.775	294.61
859.158	343.77
859.541	308.66
859.924	299.3
860.307	289.93
860.69	278.23
861.073	332.06
861.456	294.61
861.838	355.47
862.221	266.53
862.604	313.34
862.986	343.77
863.369	278.23
863.751	355.47
864.133	315.68
864.516	329.72
864.898	369.51
865.28	285.25
865.662	257.17
866.044	299.3
866.426	315.68
866.808	282.91
867.19	311
867.572	306.32
867.954	318.02
868.336	332.06
868.717	278.23
869.099	306.32
869.48	406.96
869.862	303.98
870.243	306.32
870.625	327.38
871.006	318.02
871.387	306.32
871.768	329.72
872.149	360.15
872.53	299.3
872.911	285.25
873.292	313.34
873.673	329.72
874.054	315.68
874.435	369.51
874.815	320.36
875.196	315.68
875.577	367.17
875.957	346.11
876.338	282.91
876.718	315.68
877.098	280.57
877.479	371.85
877.859	299.3
878.239	329.72
878.619	346.11
878.999	360.15
879.379	341.43
879.759	327.38
880.139	339.09
880.519	360.15
880.898	306.32
881.278	343.77
881.658	346.11
882.037	329.72
882.417	348.45
882.796	299.3
883.176	327.38
883.555	318.02
883.934	334.4
884.313	292.27
884.693	285.25
885.072	257.17
885.451	364.83
885.83	444.41
886.209	362.49
886.587	339.09
886.966	334.4
887.345	275.89
887.724	306.32
888.102	299.3
888.481	315.68
888.859	318.02
889.238	315.68
889.616	322.7
889.994	388.24
890.373	360.15
890.751	303.98
891.129	318.02
891.507	301.64
891.885	292.27
892.263	362.49
892.641	329.72
893.019	313.34
893.396	301.64
893.774	339.09
894.152	374.19
894.529	329.72
894.907	329.72
895.284	264.19
895.662	385.9
896.039	294.61
896.416	315.68
896.794	264.19
897.171	362.49
897.548	343.77
897.925	329.72
898.302	322.7
898.679	357.81
899.056	308.66
899.433	425.68
899.809	353.13
900.186	306.32
900.563	259.51
900.939	308.66
901.316	381.21
901.692	322.7
902.069	364.83
902.445	294.61
902.821	271.21
903.197	289.93
903.574	367.17
903.95	327.38
904.326	353.13
904.702	322.7
905.078	318.02
905.454	292.27
905.829	336.74
906.205	308.66
906.581	264.19
906.956	341.43
907.332	320.36
907.707	289.93
908.083	322.7
908.458	334.4
908.833	367.17
909.209	315.68
909.584	327.38
909.959	301.64
910.334	364.83
910.709	348.45
911.084	341.43
911.459	261.85
911.834	334.4
912.209	346.11
912.583	250.14
912.958	278.23
913.333	280.57
913.707	332.06
914.082	332.06
914.456	224.4
914.83	346.11
915.205	303.98
915.579	282.91
915.953	282.91
916.327	318.02
916.701	313.34
917.075	311
917.449	329.72
917.823	325.04
918.197	261.85
918.571	268.87
918.944	348.45
919.318	353.13
919.692	346.11
920.065	303.98
920.438	341.43
920.812	259.51
921.185	346.11
921.558	299.3
921.932	367.17
922.305	357.81
922.678	402.28
923.051	332.06
923.424	271.21
923.797	282.91
924.17	292.27
924.542	332.06
924.915	325.04
925.288	318.02
925.661	301.64
926.033	311
926.406	311
926.778	322.7
927.15	294.61
927.523	343.77
927.895	306.32
928.267	268.87
928.639	357.81
929.011	334.4
929.383	285.25
929.755	294.61
930.127	360.15
930.499	320.36
930.871	280.57
931.242	278.23
931.614	301.64
931.986	301.64
932.357	343.77
932.729	313.34
933.1	294.61
933.471	329.72
933.843	315.68
934.214	313.34
934.585	367.17
934.956	306.32
935.327	306.32
935.698	294.61
936.069	292.27
936.44	320.36
936.811	303.98
937.182	308.66
937.552	311
937.923	287.59
938.293	292.27
938.664	315.68
939.034	313.34
939.405	254.83
939.775	308.66
940.145	357.81
940.516	327.38
940.886	296.96
941.256	306.32
941.626	303.98
941.996	329.72
942.366	299.3
942.735	318.02
943.105	364.83
943.475	329.72
943.845	287.59
944.214	350.79
944.584	313.34
944.953	280.57
945.323	236.1
945.692	318.02
946.061	311
946.43	292.27
946.8	322.7
947.169	320.36
947.538	364.83
947.907	315.68
948.276	353.13
948.645	357.81
949.013	306.32
949.382	322.7
949.751	303.98
950.119	332.06
950.488	259.51
950.857	257.17
951.225	339.09
951.593	320.36
951.962	315.68
952.33	360.15
952.698	362.49
953.066	343.77
953.434	334.4
953.802	285.25
954.17	254.83
954.538	299.3
954.906	313.34
955.274	327.38
955.642	329.72
956.009	367.17
956.377	247.8
956.744	320.36
957.112	374.19
957.479	292.27
957.847	296.96
958.214	245.46
958.581	329.72
958.948	336.74
959.315	353.13
959.683	360.15
960.05	273.55
960.416	296.96
960.783	275.89
961.15	308.66
961.517	282.91
961.884	348.45
962.25	303.98
962.617	325.04
962.983	289.93
963.35	320.36
963.716	348.45
964.082	268.87
964.449	313.34
964.815	318.02
965.181	339.09
965.547	315.68
965.913	275.89
966.279	292.27
966.645	346.11
967.011	315.68
967.377	332.06
967.742	353.13
968.108	264.19
968.474	289.93
968.839	299.3
969.205	339.09
969.57	285.25
969.935	334.4
970.301	275.89
970.666	285.25
971.031	254.83
971.396	409.3
971.761	322.7
972.126	334.4
972.491	240.78
972.856	273.55
973.221	266.53
973.586	385.9
973.95	303.98
974.315	308.66
974.679	259.51
975.044	292.27
975.408	278.23
975.773	371.85
976.137	285.25
976.501	360.15
976.866	315.68
977.23	299.3
977.594	341.43
977.958	390.58
978.322	306.32
978.686	280.57
979.049	303.98
979.413	301.64
979.777	299.3
980.141	350.79
980.504	364.83
980.868	278.23
981.231	385.9
981.595	341.43
981.958	315.68
982.321	294.61
982.684	369.51
983.048	353.13
983.411	343.77
983.774	383.56
984.137	278.23
984.5	292.27
984.862	318.02
985.225	294.61
985.588	364.83
985.951	346.11
986.313	325.04
986.676	257.17
987.038	339.09
987.401	294.61
987.763	336.74
988.125	364.83
988.488	292.27
988.85	278.23
989.212	296.96
989.574	378.87
989.936	280.57
990.298	231.42
990.66	280.57
991.022	299.3
991.383	273.55
991.745	360.15
992.107	280.57
992.468	303.98
992.83	280.57
993.191	301.64
993.553	301.64
993.914	336.74
994.275	329.72
994.637	322.7
994.998	292.27
995.359	301.64
995.72	341.43
996.081	367.17
996.442	315.68
996.803	343.77
997.163	315.68
997.524	362.49
997.885	315.68
998.245	355.47
998.606	350.79
998.966	327.38
999.327	332.06
999.687	285.25
1000.047	280.57
1000.408	362.49
1000.768	313.34
1001.128	385.9
1001.488	296.96
1001.848	271.21
1002.208	318.02
1002.568	259.51
1002.927	339.09
1003.287	364.83
1003.647	299.3
1004.007	374.19
1004.366	332.06
1004.726	357.81
1005.085	332.06
1005.444	327.38
1005.804	299.3
1006.163	343.77
1006.522	329.72
1006.881	353.13
1007.24	303.98
1007.599	327.38
1007.958	374.19
1008.317	339.09
1008.676	289.93
1009.035	320.36
1009.393	364.83
1009.752	350.79
1010.111	348.45
1010.469	327.38
1010.828	320.36
1011.186	271.21
1011.544	343.77
1011.903	339.09
1012.261	275.89
1012.619	264.19
1012.977	369.51
1013.335	313.34
1013.693	301.64
1014.051	329.72
1014.409	376.53
1014.767	315.68
1015.124	301.64
1015.482	348.45
1015.84	334.4
1016.197	287.59
1016.555	280.57
1016.912	292.27
1017.269	301.64
1017.627	275.89
1017.984	289.93
1018.341	308.66
1018.698	334.4
1019.055	329.72
1019.412	343.77
1019.769	271.21
1020.126	360.15
1020.483	266.53
1020.84	343.77
1021.196	308.66
1021.553	261.85
1021.909	259.51
1022.266	278.23
1022.622	303.98
1022.979	318.02
1023.335	327.38
1023.691	355.47
1024.047	294.61
1024.404	254.83
1024.76	313.34
1025.116	341.43
1025.472	294.61
1025.827	320.36
1026.183	339.09
1026.539	329.72
1026.895	292.27
1027.25	325.04
1027.606	343.77
1027.961	268.87
1028.317	348.45
1028.672	268.87
1029.028	275.89
1029.383	257.17
1029.738	364.83
1030.093	390.58
1030.448	285.25
1030.803	296.96
1031.158	362.49
1031.513	341.43
1031.868	294.61
1032.223	329.72
1032.577	322.7
1032.932	327.38
1033.287	334.4
1033.641	325.04
1033.996	353.13
1034.35	343.77
1034.704	318.02
1035.059	369.51
1035.413	285.25
1035.767	285.25
1036.121	285.25
