Data from Al_FLMS009871__683__15-07-13-037.txt Node

Date: Fri Mar 08 15:07:13 CST 2024
User: pe5414po
Spectrometer: FLMS00987
Trigger mode: 0
Integration Time (sec): 1.000000E-1
Scans to average: 1
Electric dark correction enabled: true
Nonlinearity correction enabled: false
Boxcar width: 0
XAxis mode: Wavelengths
Number of Pixels in Spectrum: 2048
>>>>>Begin Spectral Data<<<<<
188.938	-80.75
189.409	-80.75
189.879	-80.75
190.349	-92.45
190.819	-104.15
191.29	-76.07
191.76	-106.49
192.23	-73.73
192.7	-64.36
193.17	-69.05
193.64	1.17
194.109	-43.3
194.579	-64.36
195.049	29.26
195.519	31.6
195.988	5.85
196.458	40.96
196.927	33.94
197.397	76.07
197.866	153.31
198.336	125.22
198.805	242.25
199.274	153.31
199.744	188.41
200.213	228.2
200.682	200.12
201.151	216.5
201.62	270.33
202.089	239.9
202.558	204.8
203.027	270.33
203.495	263.31
203.964	263.31
204.433	181.39
204.902	230.54
205.37	282.03
205.839	291.4
206.307	258.63
206.776	246.93
207.244	232.88
207.712	305.44
208.181	300.76
208.649	307.78
209.117	279.69
209.585	300.76
210.053	321.82
210.521	239.9
210.989	328.85
211.457	291.4
211.925	324.16
212.393	214.16
212.861	260.97
213.328	291.4
213.796	314.8
214.264	279.69
214.731	258.63
215.199	277.35
215.666	300.76
216.133	340.55
216.601	253.95
217.068	228.2
217.535	260.97
218.003	300.76
218.47	275.01
218.937	263.31
219.404	265.65
219.871	225.86
220.338	286.72
220.805	246.93
221.271	235.22
221.738	265.65
222.205	291.4
222.671	242.25
223.138	232.88
223.605	249.27
224.071	246.93
224.538	282.03
225.004	305.44
225.47	300.76
225.937	298.42
226.403	242.25
226.869	277.35
227.335	256.29
227.801	324.16
228.267	244.59
228.733	244.59
229.199	270.33
229.665	303.1
230.131	312.46
230.597	258.63
231.062	347.57
231.528	225.86
231.994	279.69
232.459	340.55
232.925	279.69
233.39	230.54
233.856	267.99
234.321	314.8
234.786	335.87
235.252	310.12
235.717	293.74
236.182	270.33
236.647	237.56
237.112	277.35
237.577	230.54
238.042	275.01
238.507	305.44
238.972	275.01
239.436	312.46
239.901	321.82
240.366	275.01
240.83	284.38
241.295	340.55
241.76	275.01
242.224	284.38
242.688	237.56
243.153	279.69
243.617	256.29
244.081	317.14
244.545	284.38
245.01	349.91
245.474	296.08
245.938	289.06
246.402	244.59
246.866	246.93
247.33	223.52
247.793	293.74
248.257	291.4
248.721	328.85
249.185	335.87
249.648	272.67
250.112	307.78
250.575	300.76
251.039	272.67
251.502	235.22
251.965	272.67
252.429	225.86
252.892	282.03
253.355	305.44
253.818	225.86
254.281	305.44
254.744	258.63
255.207	300.76
255.67	265.65
256.133	221.18
256.596	312.46
257.059	223.52
257.522	300.76
257.984	246.93
258.447	275.01
258.909	307.78
259.372	342.89
259.834	291.4
260.297	298.42
260.759	260.97
261.221	272.67
261.684	242.25
262.146	319.48
262.608	253.95
263.07	300.76
263.532	324.16
263.994	300.76
264.456	314.8
264.918	235.22
265.38	282.03
265.842	270.33
266.303	263.31
266.765	246.93
267.227	286.72
267.688	211.82
268.15	263.31
268.611	239.9
269.072	307.78
269.534	242.25
269.995	312.46
270.456	225.86
270.918	284.38
271.379	328.85
271.84	263.31
272.301	298.42
272.762	310.12
273.223	232.88
273.684	277.35
274.144	328.85
274.605	296.08
275.066	277.35
275.527	235.22
275.987	265.65
276.448	347.57
276.908	303.1
277.369	293.74
277.829	333.53
278.289	331.19
278.75	235.22
279.21	284.38
279.67	260.97
280.13	354.59
280.59	260.97
281.05	305.44
281.51	368.63
281.97	253.95
282.43	277.35
282.89	291.4
283.35	279.69
283.809	293.74
284.269	356.93
284.729	321.82
285.188	272.67
285.648	310.12
286.107	279.69
286.567	267.99
287.026	218.84
287.485	328.85
287.944	277.35
288.404	291.4
288.863	246.93
289.322	242.25
289.781	249.27
290.24	279.69
290.699	333.53
291.158	359.27
291.616	324.16
292.075	289.06
292.534	291.4
292.992	303.1
293.451	307.78
293.91	373.32
294.368	310.12
294.827	352.25
295.285	312.46
295.743	310.12
296.202	258.63
296.66	296.08
297.118	368.63
297.576	270.33
298.034	272.67
298.492	256.29
298.95	321.82
299.408	303.1
299.866	277.35
300.324	296.08
300.781	331.19
301.239	260.97
301.697	275.01
302.154	312.46
302.612	303.1
303.069	270.33
303.527	291.4
303.984	279.69
304.441	246.93
304.899	340.55
305.356	239.9
305.813	300.76
306.27	319.48
306.727	289.06
307.184	293.74
307.641	312.46
308.098	277.35
308.555	347.57
309.012	305.44
309.468	303.1
309.925	307.78
310.382	289.06
310.838	291.4
311.295	359.27
311.751	298.42
312.208	300.76
312.664	314.8
313.12	277.35
313.577	331.19
314.033	230.54
314.489	370.97
314.945	303.1
315.401	293.74
315.857	349.91
316.313	321.82
316.769	331.19
317.225	312.46
317.681	359.27
318.136	359.27
318.592	275.01
319.048	298.42
319.503	326.5
319.959	363.95
320.414	293.74
320.869	321.82
321.325	286.72
321.78	375.66
322.235	328.85
322.691	279.69
323.146	312.46
323.601	312.46
324.056	291.4
324.511	282.03
324.966	291.4
325.421	317.14
325.875	317.14
326.33	319.48
326.785	319.48
327.24	244.59
327.694	291.4
328.149	300.76
328.603	291.4
329.058	296.08
329.512	277.35
329.966	267.99
330.421	296.08
330.875	296.08
331.329	275.01
331.783	331.19
332.237	331.19
332.691	246.93
333.145	246.93
333.599	321.82
334.053	345.23
334.507	303.1
334.96	256.29
335.414	326.5
335.868	289.06
336.321	356.93
336.775	326.5
337.228	307.78
337.682	263.31
338.135	300.76
338.588	282.03
339.042	249.27
339.495	296.08
339.948	324.16
340.401	328.85
340.854	253.95
341.307	260.97
341.76	354.59
342.213	279.69
342.666	282.03
343.119	338.21
343.571	347.57
344.024	267.99
344.477	310.12
344.929	300.76
345.382	282.03
345.834	314.8
346.287	321.82
346.739	347.57
347.191	328.85
347.644	272.67
348.096	335.87
348.548	279.69
349	286.72
349.452	258.63
349.904	342.89
350.356	324.16
350.808	342.89
351.26	293.74
351.711	260.97
352.163	354.59
352.615	335.87
353.066	392.04
353.518	298.42
353.969	324.16
354.421	338.21
354.872	310.12
355.324	314.8
355.775	324.16
356.226	340.55
356.677	310.12
357.128	296.08
357.579	293.74
358.03	260.97
358.481	345.23
358.932	296.08
359.383	340.55
359.834	303.1
360.285	319.48
360.735	347.57
361.186	307.78
361.637	321.82
362.087	303.1
362.538	324.16
362.988	282.03
363.438	263.31
363.889	246.93
364.339	298.42
364.789	307.78
365.239	300.76
365.689	324.16
366.139	321.82
366.589	296.08
367.039	300.76
367.489	328.85
367.939	298.42
368.389	331.19
368.839	363.95
369.288	333.53
369.738	314.8
370.187	324.16
370.637	340.55
371.086	296.08
371.536	321.82
371.985	359.27
372.434	321.82
372.884	256.29
373.333	303.1
373.782	335.87
374.231	354.59
374.68	373.32
375.129	349.91
375.578	331.19
376.027	305.44
376.475	324.16
376.924	361.61
377.373	368.63
377.822	321.82
378.27	349.91
378.719	260.97
379.167	349.91
379.616	260.97
380.064	293.74
380.512	401.4
380.961	272.67
381.409	270.33
381.857	282.03
382.305	270.33
382.753	272.67
383.201	310.12
383.649	305.44
384.097	342.89
384.545	324.16
384.992	296.08
385.44	305.44
385.888	303.1
386.335	307.78
386.783	289.06
387.231	289.06
387.678	270.33
388.125	307.78
388.573	296.08
389.02	291.4
389.467	333.53
389.914	370.97
390.362	342.89
390.809	307.78
391.256	277.35
391.703	317.14
392.15	307.78
392.596	335.87
393.043	319.48
393.49	312.46
393.937	305.44
394.383	333.53
394.83	366.29
395.276	319.48
395.723	289.06
396.169	293.74
396.616	275.01
397.062	296.08
397.508	291.4
397.954	366.29
398.401	368.63
398.847	335.87
399.293	349.91
399.739	385.02
400.185	352.25
400.631	275.01
401.076	319.48
401.522	378
401.968	310.12
402.414	303.1
402.859	307.78
403.305	361.61
403.75	349.91
404.196	333.53
404.641	312.46
405.086	296.08
405.532	312.46
405.977	293.74
406.422	349.91
406.867	312.46
407.312	237.56
407.757	275.01
408.202	298.42
408.647	345.23
409.092	349.91
409.537	293.74
409.982	331.19
410.426	272.67
410.871	356.93
411.316	335.87
411.76	340.55
412.205	293.74
412.649	333.53
413.093	249.27
413.538	300.76
413.982	331.19
414.426	242.25
414.87	279.69
415.314	326.5
415.758	291.4
416.202	363.95
416.646	347.57
417.09	300.76
417.534	319.48
417.978	314.8
418.421	296.08
418.865	319.48
419.309	314.8
419.752	324.16
420.196	368.63
420.639	340.55
421.083	324.16
421.526	312.46
421.969	340.55
422.412	303.1
422.856	307.78
423.299	349.91
423.742	260.97
424.185	275.01
424.628	373.32
425.071	305.44
425.513	354.59
425.956	356.93
426.399	345.23
426.842	263.31
427.284	345.23
427.727	305.44
428.169	267.99
428.612	282.03
429.054	366.29
429.497	328.85
429.939	359.27
430.381	326.5
430.823	319.48
431.265	310.12
431.707	272.67
432.149	335.87
432.591	286.72
433.033	347.57
433.475	324.16
433.917	342.89
434.359	277.35
434.8	359.27
435.242	342.89
435.684	335.87
436.125	321.82
436.567	326.5
437.008	335.87
437.449	321.82
437.891	333.53
438.332	335.87
438.773	333.53
439.214	305.44
439.656	321.82
440.097	289.06
440.538	310.12
440.978	293.74
441.419	317.14
441.86	335.87
442.301	296.08
442.742	356.93
443.182	312.46
443.623	282.03
444.063	249.27
444.504	335.87
444.944	300.76
445.385	340.55
445.825	347.57
446.265	331.19
446.706	291.4
447.146	291.4
447.586	340.55
448.026	328.85
448.466	345.23
448.906	328.85
449.346	286.72
449.786	368.63
450.225	296.08
450.665	300.76
451.105	319.48
451.544	373.32
451.984	335.87
452.424	345.23
452.863	296.08
453.302	258.63
453.742	296.08
454.181	296.08
454.62	328.85
455.059	326.5
455.499	363.95
455.938	331.19
456.377	340.55
456.816	328.85
457.254	347.57
457.693	300.76
458.132	289.06
458.571	378
459.01	361.61
459.448	286.72
459.887	324.16
460.325	370.97
460.764	321.82
461.202	368.63
461.641	363.95
462.079	335.87
462.517	293.74
462.955	303.1
463.393	340.55
463.832	338.21
464.27	314.8
464.708	359.27
465.145	275.01
465.583	293.74
466.021	324.16
466.459	270.33
466.897	275.01
467.334	303.1
467.772	289.06
468.209	312.46
468.647	286.72
469.084	368.63
469.522	382.68
469.959	394.38
470.396	317.14
470.833	307.78
471.271	321.82
471.708	305.44
472.145	300.76
472.582	314.8
473.019	305.44
473.456	293.74
473.892	251.61
474.329	319.48
474.766	312.46
475.202	317.14
475.639	382.68
476.076	314.8
476.512	328.85
476.949	345.23
477.385	310.12
477.821	347.57
478.258	298.42
478.694	296.08
479.13	296.08
479.566	314.8
480.002	305.44
480.438	375.66
480.874	275.01
481.31	275.01
481.746	298.42
482.181	345.23
482.617	300.76
483.053	275.01
483.488	312.46
483.924	324.16
484.36	319.48
484.795	328.85
485.23	279.69
485.666	326.5
486.101	354.59
486.536	366.29
486.971	333.53
487.407	385.02
487.842	394.38
488.277	380.34
488.712	314.8
489.146	265.65
489.581	310.12
490.016	305.44
490.451	289.06
490.885	345.23
491.32	289.06
491.755	324.16
492.189	303.1
492.624	305.44
493.058	399.06
493.492	324.16
493.927	293.74
494.361	387.36
494.795	359.27
495.229	317.14
495.663	354.59
496.097	317.14
496.531	331.19
496.965	326.5
497.399	319.48
497.833	310.12
498.266	361.61
498.7	331.19
499.134	333.53
499.567	291.4
500.001	389.7
500.434	326.5
500.868	396.72
501.301	321.82
501.734	286.72
502.168	275.01
502.601	291.4
503.034	335.87
503.467	335.87
503.9	382.68
504.333	354.59
504.766	333.53
505.199	352.25
505.632	333.53
506.064	370.97
506.497	263.31
506.93	317.14
507.362	293.74
507.795	293.74
508.227	331.19
508.66	249.27
509.092	333.53
509.524	345.23
509.956	321.82
510.389	265.65
510.821	363.95
511.253	359.27
511.685	300.76
512.117	312.46
512.549	275.01
512.981	277.35
513.412	326.5
513.844	328.85
514.276	293.74
514.707	331.19
515.139	312.46
515.571	272.67
516.002	333.53
516.433	303.1
516.865	326.5
517.296	275.01
517.727	305.44
518.159	307.78
518.59	270.33
519.021	370.97
519.452	335.87
519.883	260.97
520.314	291.4
520.744	338.21
521.175	340.55
521.606	305.44
522.037	328.85
522.467	333.53
522.898	305.44
523.328	284.38
523.759	382.68
524.189	333.53
524.62	331.19
525.05	349.91
525.48	270.33
525.91	375.66
526.341	317.14
526.771	354.59
527.201	354.59
527.631	319.48
528.061	380.34
528.49	291.4
528.92	375.66
529.35	366.29
529.78	333.53
530.209	345.23
530.639	342.89
531.068	333.53
531.498	338.21
531.927	354.59
532.357	394.38
532.786	256.29
533.215	368.63
533.644	319.48
534.074	310.12
534.503	277.35
534.932	303.1
535.361	359.27
535.79	361.61
536.218	375.66
536.647	279.69
537.076	270.33
537.505	293.74
537.933	326.5
538.362	263.31
538.79	314.8
539.219	361.61
539.647	354.59
540.076	370.97
540.504	347.57
540.932	326.5
541.36	349.91
541.788	314.8
542.217	265.65
542.645	361.61
543.073	319.48
543.5	303.1
543.928	289.06
544.356	359.27
544.784	293.74
545.211	300.76
545.639	359.27
546.067	286.72
546.494	378
546.922	359.27
547.349	291.4
547.776	326.5
548.204	279.69
548.631	265.65
549.058	260.97
549.485	282.03
549.912	267.99
550.339	319.48
550.766	345.23
551.193	305.44
551.62	305.44
552.047	335.87
552.474	267.99
552.9	328.85
553.327	368.63
553.754	312.46
554.18	356.93
554.607	363.95
555.033	319.48
555.459	307.78
555.886	321.82
556.312	356.93
556.738	249.27
557.164	333.53
557.59	286.72
558.016	293.74
558.442	385.02
558.868	326.5
559.294	335.87
559.72	335.87
560.145	363.95
560.571	300.76
560.997	352.25
561.422	366.29
561.848	366.29
562.273	277.35
562.699	296.08
563.124	317.14
563.549	338.21
563.974	389.7
564.4	331.19
564.825	298.42
565.25	296.08
565.675	328.85
566.1	303.1
566.525	307.78
566.95	314.8
567.374	363.95
567.799	305.44
568.224	349.91
568.648	296.08
569.073	289.06
569.497	272.67
569.922	382.68
570.346	275.01
570.771	307.78
571.195	338.21
571.619	375.66
572.043	296.08
572.467	307.78
572.891	258.63
573.315	328.85
573.739	286.72
574.163	326.5
574.587	291.4
575.011	275.01
575.435	333.53
575.858	284.38
576.282	342.89
576.705	352.25
577.129	312.46
577.552	354.59
577.976	321.82
578.399	331.19
578.822	275.01
579.245	312.46
579.669	277.35
580.092	260.97
580.515	279.69
580.938	349.91
581.361	340.55
581.784	363.95
582.206	333.53
582.629	286.72
583.052	293.74
583.474	321.82
583.897	328.85
584.32	410.76
584.742	303.1
585.165	312.46
585.587	307.78
586.009	385.02
586.431	282.03
586.854	293.74
587.276	317.14
587.698	385.02
588.12	361.61
588.542	375.66
588.964	298.42
589.386	314.8
589.807	296.08
590.229	289.06
590.651	361.61
591.073	328.85
591.494	326.5
591.916	204.8
592.337	267.99
592.759	270.33
593.18	305.44
593.601	314.8
594.022	366.29
594.444	368.63
594.865	328.85
595.286	237.56
595.707	293.74
596.128	389.7
596.549	279.69
596.97	300.76
597.39	326.5
597.811	363.95
598.232	373.32
598.652	319.48
599.073	333.53
599.494	347.57
599.914	338.21
600.334	296.08
600.755	403.74
601.175	293.74
601.595	314.8
602.015	347.57
602.436	228.2
602.856	385.02
603.276	307.78
603.696	289.06
604.115	324.16
604.535	303.1
604.955	319.48
605.375	342.89
605.794	333.53
606.214	303.1
606.634	228.2
607.053	300.76
607.473	298.42
607.892	307.78
608.311	321.82
608.731	317.14
609.15	291.4
609.569	300.76
609.988	338.21
610.407	340.55
610.826	291.4
611.245	347.57
611.664	338.21
612.083	286.72
612.501	373.32
612.92	296.08
613.339	324.16
613.757	342.89
614.176	363.95
614.594	263.31
615.013	326.5
615.431	303.1
615.85	326.5
616.268	324.16
616.686	296.08
617.104	361.61
617.522	303.1
617.94	356.93
618.358	307.78
618.776	275.01
619.194	298.42
619.612	340.55
620.03	347.57
620.447	263.31
620.865	275.01
621.282	352.25
621.7	326.5
622.117	277.35
622.535	319.48
622.952	293.74
623.369	349.91
623.787	296.08
624.204	312.46
624.621	305.44
625.038	251.61
625.455	331.19
625.872	270.33
626.289	303.1
626.706	420.13
627.123	267.99
627.539	378
627.956	328.85
628.373	354.59
628.789	314.8
629.206	321.82
629.622	326.5
630.038	347.57
630.455	333.53
630.871	317.14
631.287	289.06
631.703	249.27
632.12	296.08
632.536	335.87
632.952	333.53
633.368	319.48
633.783	307.78
634.199	256.29
634.615	338.21
635.031	321.82
635.446	342.89
635.862	342.89
636.277	303.1
636.693	328.85
637.108	289.06
637.524	349.91
637.939	289.06
638.354	275.01
638.77	263.31
639.185	305.44
639.6	335.87
640.015	328.85
640.43	307.78
640.845	347.57
641.259	303.1
641.674	319.48
642.089	366.29
642.504	314.8
642.918	366.29
643.333	326.5
643.747	328.85
644.162	342.89
644.576	317.14
644.991	277.35
645.405	300.76
645.819	361.61
646.233	359.27
646.647	300.76
647.061	317.14
647.475	305.44
647.889	340.55
648.303	303.1
648.717	267.99
649.131	338.21
649.545	340.55
649.958	279.69
650.372	303.1
650.785	335.87
651.199	282.03
651.612	335.87
652.026	319.48
652.439	326.5
652.852	333.53
653.266	333.53
653.679	291.4
654.092	314.8
654.505	239.9
654.918	275.01
655.331	373.32
655.744	328.85
656.156	303.1
656.569	326.5
656.982	331.19
657.394	342.89
657.807	319.48
658.22	359.27
658.632	282.03
659.044	256.29
659.457	321.82
659.869	324.16
660.281	345.23
660.693	305.44
661.106	307.78
661.518	345.23
661.93	349.91
662.342	324.16
662.754	373.32
663.165	394.38
663.577	328.85
663.989	349.91
664.401	303.1
664.812	258.63
665.224	319.48
665.635	328.85
666.047	349.91
666.458	279.69
666.869	289.06
667.281	356.93
667.692	286.72
668.103	284.38
668.514	300.76
668.925	305.44
669.336	324.16
669.747	317.14
670.158	293.74
670.569	319.48
670.979	298.42
671.39	256.29
671.801	291.4
672.211	359.27
672.622	296.08
673.032	296.08
673.443	312.46
673.853	352.25
674.263	303.1
674.674	265.65
675.084	307.78
675.494	335.87
675.904	279.69
676.314	312.46
676.724	237.56
677.134	333.53
677.544	310.12
677.953	310.12
678.363	326.5
678.773	335.87
679.182	270.33
679.592	305.44
680.001	310.12
680.411	319.48
680.82	319.48
681.23	361.61
681.639	363.95
682.048	314.8
682.457	310.12
682.866	394.38
683.275	363.95
683.684	328.85
684.093	368.63
684.502	342.89
684.911	342.89
685.32	361.61
685.728	380.34
686.137	359.27
686.546	284.38
686.954	275.01
687.363	368.63
687.771	317.14
688.179	279.69
688.588	359.27
688.996	270.33
689.404	270.33
689.812	352.25
690.22	352.25
690.628	279.69
691.036	352.25
691.444	333.53
691.852	251.61
692.26	331.19
692.667	328.85
693.075	359.27
693.483	275.01
693.89	314.8
694.298	382.68
694.705	282.03
695.112	345.23
695.52	289.06
695.927	307.78
696.334	328.85
696.741	305.44
697.148	352.25
697.555	282.03
697.962	319.48
698.369	338.21
698.776	279.69
699.183	312.46
699.59	291.4
699.996	347.57
700.403	263.31
700.81	263.31
701.216	345.23
701.623	305.44
702.029	286.72
702.435	319.48
702.842	305.44
703.248	352.25
703.654	265.65
704.06	349.91
704.466	356.93
704.872	298.42
705.278	335.87
705.684	349.91
706.09	331.19
706.496	328.85
706.901	239.9
707.307	361.61
707.712	335.87
708.118	331.19
708.523	347.57
708.929	289.06
709.334	312.46
709.74	366.29
710.145	317.14
710.55	249.27
710.955	333.53
711.36	260.97
711.765	319.48
712.17	328.85
712.575	284.38
712.98	925.68
713.385	361.61
713.789	333.53
714.194	352.25
714.599	331.19
715.003	324.16
715.408	270.33
715.812	354.59
716.217	335.87
716.621	326.5
717.025	289.06
717.429	258.63
717.833	282.03
718.238	347.57
718.642	328.85
719.046	338.21
719.449	260.97
719.853	314.8
720.257	291.4
720.661	314.8
721.065	277.35
721.468	352.25
721.872	326.5
722.275	277.35
722.679	326.5
723.082	340.55
723.485	326.5
723.889	310.12
724.292	349.91
724.695	267.99
725.098	321.82
725.501	338.21
725.904	272.67
726.307	284.38
726.71	298.42
727.113	317.14
727.516	296.08
727.918	338.21
728.321	307.78
728.724	296.08
729.126	375.66
729.529	331.19
729.931	310.12
730.333	296.08
730.736	284.38
731.138	347.57
731.54	368.63
731.942	296.08
732.344	312.46
732.746	345.23
733.148	338.21
733.55	312.46
733.952	331.19
734.354	331.19
734.756	296.08
735.157	310.12
735.559	317.14
735.96	363.95
736.362	354.59
736.763	326.5
737.165	291.4
737.566	263.31
737.967	282.03
738.368	305.44
738.77	239.9
739.171	314.8
739.572	263.31
739.973	328.85
740.374	373.32
740.774	242.25
741.175	256.29
741.576	305.44
741.977	324.16
742.377	310.12
742.778	296.08
743.178	368.63
743.579	298.42
743.979	331.19
744.379	370.97
744.78	340.55
745.18	298.42
745.58	291.4
745.98	251.61
746.38	354.59
746.78	345.23
747.18	249.27
747.58	333.53
747.98	305.44
748.38	361.61
748.779	342.89
749.179	331.19
749.578	289.06
749.978	275.01
750.377	368.63
750.777	312.46
751.176	312.46
751.575	366.29
751.975	345.23
752.374	354.59
752.773	354.59
753.172	354.59
753.571	380.34
753.97	296.08
754.369	399.06
754.768	333.53
755.166	394.38
755.565	335.87
755.964	396.72
756.362	368.63
756.761	312.46
757.159	310.12
757.558	319.48
757.956	270.33
758.354	340.55
758.753	326.5
759.151	300.76
759.549	249.27
759.947	385.02
760.345	387.36
760.743	286.72
761.141	267.99
761.539	298.42
761.936	375.66
762.334	303.1
762.732	312.46
763.129	293.74
763.527	291.4
763.924	370.97
764.322	303.1
764.719	270.33
765.117	340.55
765.514	277.35
765.911	303.1
766.308	378
766.705	267.99
767.102	359.27
767.499	242.25
767.896	326.5
768.293	251.61
768.69	335.87
769.086	237.56
769.483	319.48
769.88	296.08
770.276	305.44
770.673	324.16
771.069	270.33
771.466	352.25
771.862	321.82
772.258	303.1
772.654	289.06
773.05	291.4
773.447	307.78
773.843	289.06
774.239	326.5
774.634	314.8
775.03	282.03
775.426	328.85
775.822	413.1
776.218	352.25
776.613	265.65
777.009	286.72
777.404	347.57
777.8	352.25
778.195	317.14
778.59	265.65
778.986	345.23
779.381	342.89
779.776	340.55
780.171	338.21
780.566	335.87
780.961	324.16
781.356	349.91
781.751	321.82
782.146	352.25
782.54	328.85
782.935	317.14
783.33	387.36
783.724	317.14
784.119	307.78
784.513	352.25
784.908	305.44
785.302	303.1
785.696	314.8
786.09	361.61
786.485	354.59
786.879	284.38
787.273	321.82
787.667	359.27
788.061	359.27
788.454	291.4
788.848	270.33
789.242	303.1
789.636	251.61
790.029	284.38
790.423	352.25
790.816	310.12
791.21	321.82
791.603	305.44
791.997	307.78
792.39	307.78
792.783	328.85
793.176	326.5
793.569	359.27
793.962	286.72
794.355	338.21
794.748	291.4
795.141	277.35
795.534	363.95
795.927	307.78
796.319	324.16
796.712	291.4
797.105	265.65
797.497	333.53
797.89	328.85
798.282	317.14
798.674	305.44
799.067	317.14
799.459	354.59
799.851	319.48
800.243	385.02
800.635	335.87
801.027	277.35
801.419	314.8
801.811	366.29
802.203	352.25
802.594	296.08
802.986	354.59
803.378	349.91
803.769	328.85
804.161	317.14
804.552	373.32
804.944	356.93
805.335	326.5
805.726	314.8
806.118	347.57
806.509	300.76
806.9	277.35
807.291	300.76
807.682	270.33
808.073	272.67
808.464	296.08
808.855	326.5
809.245	403.74
809.636	342.89
810.027	324.16
810.417	326.5
810.808	263.31
811.198	300.76
811.589	307.78
811.979	317.14
812.369	305.44
812.759	328.85
813.15	277.35
813.54	272.67
813.93	319.48
814.32	312.46
814.71	319.48
815.1	270.33
815.489	347.57
815.879	319.48
816.269	307.78
816.658	352.25
817.048	333.53
817.438	300.76
817.827	338.21
818.216	366.29
818.606	321.82
818.995	326.5
819.384	314.8
819.773	324.16
820.163	319.48
820.552	326.5
820.941	324.16
821.33	298.42
821.718	303.1
822.107	314.8
822.496	338.21
822.885	326.5
823.273	319.48
823.662	270.33
824.05	359.27
824.439	282.03
824.827	300.76
825.216	267.99
825.604	267.99
825.992	326.5
826.38	296.08
826.768	352.25
827.156	284.38
827.544	326.5
827.932	324.16
828.32	317.14
828.708	335.87
829.096	321.82
829.483	403.74
829.871	251.61
830.259	286.72
830.646	347.57
831.034	298.42
831.421	286.72
831.808	342.89
832.196	335.87
832.583	352.25
832.97	300.76
833.357	317.14
833.744	260.97
834.131	408.42
834.518	363.95
834.905	310.12
835.292	235.22
835.678	249.27
836.065	312.46
836.452	347.57
836.838	258.63
837.225	347.57
837.611	401.4
837.998	298.42
838.384	282.03
838.77	279.69
839.157	282.03
839.543	338.21
839.929	394.38
840.315	352.25
840.701	338.21
841.087	375.66
841.473	333.53
841.858	338.21
842.244	303.1
842.63	286.72
843.015	291.4
843.401	626.09
843.787	389.7
844.172	256.29
844.557	284.38
844.943	347.57
845.328	282.03
845.713	265.65
846.098	345.23
846.483	303.1
846.868	366.29
847.253	338.21
847.638	354.59
848.023	272.67
848.408	270.33
848.793	305.44
849.177	338.21
849.562	347.57
849.947	328.85
850.331	272.67
850.715	303.1
851.1	310.12
851.484	328.85
851.868	352.25
852.253	253.95
852.637	284.38
853.021	286.72
853.405	258.63
853.789	293.74
854.173	291.4
854.557	345.23
854.94	321.82
855.324	349.91
855.708	307.78
856.091	305.44
856.475	347.57
856.858	307.78
857.242	237.56
857.625	300.76
858.009	307.78
858.392	277.35
858.775	310.12
859.158	349.91
859.541	263.31
859.924	338.21
860.307	317.14
860.69	310.12
861.073	284.38
861.456	253.95
861.838	277.35
862.221	272.67
862.604	258.63
862.986	265.65
863.369	282.03
863.751	265.65
864.133	319.48
864.516	289.06
864.898	256.29
865.28	338.21
865.662	354.59
866.044	253.95
866.426	338.21
866.808	345.23
867.19	291.4
867.572	258.63
867.954	305.44
868.336	319.48
868.717	258.63
869.099	356.93
869.48	265.65
869.862	373.32
870.243	305.44
870.625	312.46
871.006	324.16
871.387	260.97
871.768	272.67
872.149	298.42
872.53	293.74
872.911	270.33
873.292	319.48
873.673	235.22
874.054	272.67
874.435	284.38
874.815	310.12
875.196	356.93
875.577	356.93
875.957	267.99
876.338	378
876.718	319.48
877.098	328.85
877.479	314.8
877.859	284.38
878.239	284.38
878.619	361.61
878.999	356.93
879.379	378
879.759	312.46
880.139	331.19
880.519	340.55
880.898	314.8
881.278	307.78
881.658	317.14
882.037	293.74
882.417	354.59
882.796	246.93
883.176	300.76
883.555	188.41
883.934	293.74
884.313	296.08
884.693	284.38
885.072	310.12
885.451	305.44
885.83	289.06
886.209	228.2
886.587	303.1
886.966	300.76
887.345	312.46
887.724	300.76
888.102	307.78
888.481	303.1
888.859	347.57
889.238	317.14
889.616	314.8
889.994	361.61
890.373	335.87
890.751	300.76
891.129	249.27
891.507	303.1
891.885	260.97
892.263	347.57
892.641	305.44
893.019	312.46
893.396	331.19
893.774	385.02
894.152	239.9
894.529	340.55
894.907	279.69
895.284	326.5
895.662	300.76
896.039	284.38
896.416	317.14
896.794	319.48
897.171	356.93
897.548	263.31
897.925	298.42
898.302	333.53
898.679	300.76
899.056	314.8
899.433	338.21
899.809	314.8
900.186	298.42
900.563	296.08
900.939	232.88
901.316	352.25
901.692	340.55
902.069	324.16
902.445	289.06
902.821	347.57
903.197	307.78
903.574	246.93
903.95	321.82
904.326	352.25
904.702	310.12
905.078	366.29
905.454	331.19
905.829	345.23
906.205	298.42
906.581	296.08
906.956	328.85
907.332	331.19
907.707	296.08
908.083	277.35
908.458	275.01
908.833	342.89
909.209	340.55
909.584	303.1
909.959	335.87
910.334	387.36
910.709	368.63
911.084	312.46
911.459	293.74
911.834	267.99
912.209	284.38
912.583	312.46
912.958	284.38
913.333	331.19
913.707	354.59
914.082	307.78
914.456	289.06
914.83	279.69
915.205	326.5
915.579	305.44
915.953	291.4
916.327	277.35
916.701	347.57
917.075	272.67
917.449	279.69
917.823	375.66
918.197	265.65
918.571	300.76
918.944	291.4
919.318	258.63
919.692	272.67
920.065	298.42
920.438	263.31
920.812	263.31
921.185	298.42
921.558	282.03
921.932	333.53
922.305	333.53
922.678	352.25
923.051	263.31
923.424	338.21
923.797	331.19
924.17	345.23
924.542	293.74
924.915	305.44
925.288	310.12
925.661	312.46
926.033	300.76
926.406	303.1
926.778	270.33
927.15	263.31
927.523	251.61
927.895	338.21
928.267	345.23
928.639	314.8
929.011	310.12
929.383	338.21
929.755	282.03
930.127	286.72
930.499	265.65
930.871	277.35
931.242	342.89
931.614	342.89
931.986	260.97
932.357	307.78
932.729	340.55
933.1	345.23
933.471	335.87
933.843	300.76
934.214	314.8
934.585	312.46
934.956	296.08
935.327	272.67
935.698	305.44
936.069	392.04
936.44	326.5
936.811	265.65
937.182	375.66
937.552	363.95
937.923	267.99
938.293	296.08
938.664	312.46
939.034	239.9
939.405	319.48
939.775	345.23
940.145	321.82
940.516	303.1
940.886	326.5
941.256	272.67
941.626	263.31
941.996	303.1
942.366	293.74
942.735	296.08
943.105	314.8
943.475	314.8
943.845	345.23
944.214	265.65
944.584	298.42
944.953	335.87
945.323	335.87
945.692	291.4
946.061	317.14
946.43	333.53
946.8	267.99
947.169	291.4
947.538	333.53
947.907	314.8
948.276	363.95
948.645	246.93
949.013	291.4
949.382	275.01
949.751	331.19
950.119	361.61
950.488	303.1
950.857	296.08
951.225	345.23
951.593	251.61
951.962	368.63
952.33	298.42
952.698	265.65
953.066	319.48
953.434	305.44
953.802	298.42
954.17	216.5
954.538	321.82
954.906	296.08
955.274	335.87
955.642	300.76
956.009	338.21
956.377	298.42
956.744	242.25
957.112	324.16
957.479	324.16
957.847	347.57
958.214	342.89
958.581	375.66
958.948	317.14
959.315	349.91
959.683	370.97
960.05	270.33
960.416	319.48
960.783	296.08
961.15	321.82
961.517	303.1
961.884	296.08
962.25	310.12
962.617	307.78
962.983	284.38
963.35	307.78
963.716	312.46
964.082	314.8
964.449	319.48
964.815	260.97
965.181	286.72
965.547	321.82
965.913	279.69
966.279	319.48
966.645	333.53
967.011	298.42
967.377	270.33
967.742	324.16
968.108	338.21
968.474	387.36
968.839	328.85
969.205	324.16
969.57	265.65
969.935	328.85
970.301	312.46
970.666	305.44
971.031	326.5
971.396	317.14
971.761	258.63
972.126	392.04
972.491	345.23
972.856	399.06
973.221	253.95
973.586	265.65
973.95	291.4
974.315	286.72
974.679	289.06
975.044	375.66
975.408	298.42
975.773	328.85
976.137	298.42
976.501	305.44
976.866	314.8
977.23	333.53
977.594	310.12
977.958	291.4
978.322	317.14
978.686	307.78
979.049	260.97
979.413	286.72
979.777	310.12
980.141	300.76
980.504	347.57
980.868	310.12
981.231	307.78
981.595	305.44
981.958	342.89
982.321	333.53
982.684	296.08
983.048	282.03
983.411	349.91
983.774	251.61
984.137	270.33
984.5	246.93
984.862	305.44
985.225	331.19
985.588	249.27
985.951	267.99
986.313	284.38
986.676	326.5
987.038	270.33
987.401	293.74
987.763	307.78
988.125	307.78
988.488	258.63
988.85	328.85
989.212	335.87
989.574	314.8
989.936	296.08
990.298	303.1
990.66	300.76
991.022	277.35
991.383	345.23
991.745	312.46
992.107	307.78
992.468	282.03
992.83	293.74
993.191	361.61
993.553	317.14
993.914	300.76
994.275	272.67
994.637	349.91
994.998	312.46
995.359	272.67
995.72	310.12
996.081	310.12
996.442	307.78
996.803	326.5
997.163	375.66
997.524	328.85
997.885	277.35
998.245	277.35
998.606	342.89
998.966	263.31
999.327	324.16
999.687	312.46
1000.047	359.27
1000.408	270.33
1000.768	328.85
1001.128	293.74
1001.488	317.14
1001.848	284.38
1002.208	305.44
1002.568	267.99
1002.927	303.1
1003.287	310.12
1003.647	387.36
1004.007	368.63
1004.366	326.5
1004.726	307.78
1005.085	338.21
1005.444	298.42
1005.804	265.65
1006.163	296.08
1006.522	342.89
1006.881	267.99
1007.24	319.48
1007.599	289.06
1007.958	275.01
1008.317	284.38
1008.676	265.65
1009.035	310.12
1009.393	347.57
1009.752	303.1
1010.111	354.59
1010.469	312.46
1010.828	300.76
1011.186	342.89
1011.544	326.5
1011.903	347.57
1012.261	326.5
1012.619	249.27
1012.977	275.01
1013.335	300.76
1013.693	305.44
1014.051	286.72
1014.409	303.1
1014.767	260.97
1015.124	324.16
1015.482	359.27
1015.84	289.06
1016.197	237.56
1016.555	286.72
1016.912	331.19
1017.269	312.46
1017.627	291.4
1017.984	345.23
1018.341	293.74
1018.698	321.82
1019.055	246.93
1019.412	267.99
1019.769	328.85
1020.126	284.38
1020.483	312.46
1020.84	321.82
1021.196	289.06
1021.553	328.85
1021.909	363.95
1022.266	256.29
1022.622	312.46
1022.979	366.29
1023.335	282.03
1023.691	319.48
1024.047	298.42
1024.404	242.25
1024.76	258.63
1025.116	244.59
1025.472	267.99
1025.827	352.25
1026.183	291.4
1026.539	303.1
1026.895	352.25
1027.25	317.14
1027.606	303.1
1027.961	291.4
1028.317	289.06
1028.672	340.55
1029.028	249.27
1029.383	312.46
1029.738	342.89
1030.093	342.89
1030.448	303.1
1030.803	335.87
1031.158	349.91
1031.513	303.1
1031.868	251.61
1032.223	307.78
1032.577	314.8
1032.932	270.33
1033.287	312.46
1033.641	291.4
1033.996	263.31
1034.35	289.06
1034.704	300.76
1035.059	345.23
1035.413	291.4
1035.767	291.4
1036.121	291.4
