Data from Al_FLMS009871__692__15-07-13-937.txt Node

Date: Fri Mar 08 15:07:13 CST 2024
User: pe5414po
Spectrometer: FLMS00987
Trigger mode: 0
Integration Time (sec): 1.000000E-1
Scans to average: 1
Electric dark correction enabled: true
Nonlinearity correction enabled: false
Boxcar width: 0
XAxis mode: Wavelengths
Number of Pixels in Spectrum: 2048
>>>>>Begin Spectral Data<<<<<
188.938	-136.04
189.409	-136.04
189.879	-136.04
190.349	-82.21
190.819	-117.32
191.29	-96.25
191.76	-117.32
192.23	-138.38
192.7	-96.25
193.17	-7.31
193.64	-9.65
194.109	-49.44
194.579	-40.08
195.049	37.16
195.519	16.09
195.988	51.2
196.458	27.79
196.927	65.24
197.397	121.42
197.866	140.14
198.336	95.67
198.805	154.18
199.274	121.42
199.744	144.82
200.213	154.18
200.682	119.07
201.151	226.74
201.62	191.63
202.089	203.33
202.558	231.42
203.027	271.21
203.495	240.78
203.964	254.83
204.433	299.3
204.902	266.53
205.37	280.57
205.839	299.3
206.307	264.19
206.776	299.3
207.244	278.23
207.712	313.34
208.181	233.76
208.649	282.91
209.117	275.89
209.585	280.57
210.053	306.32
210.521	271.21
210.989	259.51
211.457	268.87
211.925	215.04
212.393	224.4
212.861	266.53
213.328	322.7
213.796	289.93
214.264	247.8
214.731	252.49
215.199	273.55
215.666	236.1
216.133	243.12
216.601	250.14
217.068	271.21
217.535	231.42
218.003	231.42
218.47	327.38
218.937	257.17
219.404	233.76
219.871	299.3
220.338	238.44
220.805	200.99
221.271	203.33
221.738	233.76
222.205	233.76
222.671	259.51
223.138	273.55
223.605	191.63
224.071	252.49
224.538	224.4
225.004	247.8
225.47	170.57
225.937	240.78
226.403	280.57
226.869	182.27
227.335	311
227.801	353.13
228.267	261.85
228.733	261.85
229.199	264.19
229.665	231.42
230.131	289.93
230.597	271.21
231.062	266.53
231.528	250.14
231.994	238.44
232.459	219.72
232.925	271.21
233.39	320.36
233.856	266.53
234.321	240.78
234.786	236.1
235.252	271.21
235.717	236.1
236.182	212.7
236.647	303.98
237.112	296.96
237.577	275.89
238.042	306.32
238.507	275.89
238.972	292.27
239.436	247.8
239.901	240.78
240.366	196.31
240.83	254.83
241.295	226.74
241.76	306.32
242.224	322.7
242.688	243.12
243.153	259.51
243.617	296.96
244.081	215.04
244.545	212.7
245.01	280.57
245.474	238.44
245.938	229.08
246.402	172.91
246.866	266.53
247.33	275.89
247.793	301.64
248.257	292.27
248.721	226.74
249.185	259.51
249.648	254.83
250.112	245.46
250.575	189.29
251.039	278.23
251.502	257.17
251.965	259.51
252.429	287.59
252.892	292.27
253.355	252.49
253.818	236.1
254.281	327.38
254.744	252.49
255.207	212.7
255.67	266.53
256.133	245.46
256.596	303.98
257.059	233.76
257.522	289.93
257.984	315.68
258.447	278.23
258.909	268.87
259.372	238.44
259.834	271.21
260.297	233.76
260.759	322.7
261.221	303.98
261.684	278.23
262.146	285.25
262.608	252.49
263.07	259.51
263.532	268.87
263.994	332.06
264.456	282.91
264.918	318.02
265.38	247.8
265.842	285.25
266.303	198.65
266.765	254.83
267.227	247.8
267.688	245.46
268.15	292.27
268.611	268.87
269.072	296.96
269.534	282.91
269.995	296.96
270.456	259.51
270.918	243.12
271.379	322.7
271.84	259.51
272.301	261.85
272.762	294.61
273.223	308.66
273.684	292.27
274.144	303.98
274.605	303.98
275.066	259.51
275.527	318.02
275.987	315.68
276.448	264.19
276.908	250.14
277.369	289.93
277.829	243.12
278.289	224.4
278.75	311
279.21	238.44
279.67	243.12
280.13	243.12
280.59	243.12
281.05	357.81
281.51	301.64
281.97	289.93
282.43	252.49
282.89	299.3
283.35	268.87
283.809	282.91
284.269	271.21
284.729	313.34
285.188	275.89
285.648	275.89
286.107	236.1
286.567	322.7
287.026	212.7
287.485	250.14
287.944	282.91
288.404	278.23
288.863	320.36
289.322	247.8
289.781	271.21
290.24	273.55
290.699	219.72
291.158	301.64
291.616	301.64
292.075	252.49
292.534	311
292.992	245.46
293.451	240.78
293.91	264.19
294.368	252.49
294.827	301.64
295.285	278.23
295.743	303.98
296.202	306.32
296.66	327.38
297.118	320.36
297.576	275.89
298.034	240.78
298.492	252.49
298.95	229.08
299.408	259.51
299.866	306.32
300.324	280.57
300.781	327.38
301.239	254.83
301.697	289.93
302.154	257.17
302.612	336.74
303.069	336.74
303.527	325.04
303.984	252.49
304.441	311
304.899	257.17
305.356	332.06
305.813	332.06
306.27	341.43
306.727	287.59
307.184	278.23
307.641	264.19
308.098	268.87
308.555	264.19
309.012	252.49
309.468	308.66
309.925	296.96
310.382	266.53
310.838	287.59
311.295	332.06
311.751	308.66
312.208	303.98
312.664	273.55
313.12	271.21
313.577	282.91
314.033	252.49
314.489	264.19
314.945	264.19
315.401	322.7
315.857	334.4
316.313	280.57
316.769	311
317.225	301.64
317.681	306.32
318.136	261.85
318.592	266.53
319.048	311
319.503	306.32
319.959	322.7
320.414	294.61
320.869	240.78
321.325	348.45
321.78	294.61
322.235	320.36
322.691	343.77
323.146	261.85
323.601	240.78
324.056	348.45
324.511	282.91
324.966	336.74
325.421	219.72
325.875	294.61
326.33	254.83
326.785	306.32
327.24	266.53
327.694	306.32
328.149	292.27
328.603	250.14
329.058	266.53
329.512	268.87
329.966	261.85
330.421	268.87
330.875	280.57
331.329	306.32
331.783	318.02
332.237	191.63
332.691	247.8
333.145	275.89
333.599	350.79
334.053	350.79
334.507	245.46
334.96	287.59
335.414	250.14
335.868	296.96
336.321	320.36
336.775	245.46
337.228	346.11
337.682	266.53
338.135	275.89
338.588	245.46
339.042	301.64
339.495	341.43
339.948	296.96
340.401	348.45
340.854	362.49
341.307	287.59
341.76	268.87
342.213	322.7
342.666	236.1
343.119	303.98
343.571	327.38
344.024	299.3
344.477	287.59
344.929	245.46
345.382	282.91
345.834	257.17
346.287	332.06
346.739	294.61
347.191	315.68
347.644	343.77
348.096	287.59
348.548	282.91
349	250.14
349.452	308.66
349.904	332.06
350.356	308.66
350.808	311
351.26	364.83
351.711	275.89
352.163	282.91
352.615	275.89
353.066	264.19
353.518	341.43
353.969	264.19
354.421	264.19
354.872	320.36
355.324	301.64
355.775	282.91
356.226	240.78
356.677	325.04
357.128	282.91
357.579	339.09
358.03	282.91
358.481	303.98
358.932	233.76
359.383	250.14
359.834	334.4
360.285	268.87
360.735	208.02
361.186	285.25
361.637	285.25
362.087	318.02
362.538	257.17
362.988	315.68
363.438	278.23
363.889	325.04
364.339	299.3
364.789	362.49
365.239	261.85
365.689	327.38
366.139	313.34
366.589	229.08
367.039	289.93
367.489	332.06
367.939	303.98
368.389	371.85
368.839	254.83
369.288	257.17
369.738	320.36
370.187	278.23
370.637	285.25
371.086	282.91
371.536	292.27
371.985	236.1
372.434	243.12
372.884	329.72
373.333	259.51
373.782	264.19
374.231	278.23
374.68	318.02
375.129	250.14
375.578	336.74
376.027	254.83
376.475	341.43
376.924	327.38
377.373	243.12
377.822	318.02
378.27	315.68
378.719	362.49
379.167	299.3
379.616	238.44
380.064	313.34
380.512	299.3
380.961	271.21
381.409	275.89
381.857	315.68
382.305	282.91
382.753	299.3
383.201	303.98
383.649	301.64
384.097	313.34
384.545	325.04
384.992	266.53
385.44	315.68
385.888	282.91
386.335	254.83
386.783	205.67
387.231	329.72
387.678	266.53
388.125	268.87
388.573	268.87
389.02	289.93
389.467	301.64
389.914	273.55
390.362	280.57
390.809	294.61
391.256	299.3
391.703	296.96
392.15	264.19
392.596	257.17
393.043	217.38
393.49	327.38
393.937	303.98
394.383	254.83
394.83	306.32
395.276	282.91
395.723	332.06
396.169	334.4
396.616	315.68
397.062	280.57
397.508	325.04
397.954	278.23
398.401	275.89
398.847	360.15
399.293	294.61
399.739	285.25
400.185	299.3
400.631	203.33
401.076	292.27
401.522	259.51
401.968	278.23
402.414	341.43
402.859	247.8
403.305	292.27
403.75	289.93
404.196	318.02
404.641	296.96
405.086	334.4
405.532	287.59
405.977	299.3
406.422	275.89
406.867	294.61
407.312	327.38
407.757	271.21
408.202	332.06
408.647	301.64
409.092	385.9
409.537	318.02
409.982	257.17
410.426	320.36
410.871	287.59
411.316	268.87
411.76	289.93
412.205	222.06
412.649	348.45
413.093	247.8
413.538	341.43
413.982	360.15
414.426	275.89
414.87	296.96
415.314	296.96
415.758	343.77
416.202	301.64
416.646	282.91
417.09	280.57
417.534	369.51
417.978	299.3
418.421	301.64
418.865	301.64
419.309	247.8
419.752	278.23
420.196	289.93
420.639	287.59
421.083	245.46
421.526	282.91
421.969	280.57
422.412	275.89
422.856	313.34
423.299	339.09
423.742	315.68
424.185	243.12
424.628	264.19
425.071	311
425.513	292.27
425.956	257.17
426.399	294.61
426.842	268.87
427.284	315.68
427.727	320.36
428.169	320.36
428.612	325.04
429.054	257.17
429.497	285.25
429.939	301.64
430.381	226.74
430.823	313.34
431.265	329.72
431.707	306.32
432.149	268.87
432.591	287.59
433.033	329.72
433.475	339.09
433.917	322.7
434.359	280.57
434.8	350.79
435.242	329.72
435.684	306.32
436.125	296.96
436.567	397.6
437.008	339.09
437.449	259.51
437.891	341.43
438.332	233.76
438.773	287.59
439.214	268.87
439.656	247.8
440.097	296.96
440.538	327.38
440.978	355.47
441.419	285.25
441.86	339.09
442.301	332.06
442.742	332.06
443.182	313.34
443.623	282.91
444.063	320.36
444.504	343.77
444.944	315.68
445.385	278.23
445.825	329.72
446.265	334.4
446.706	341.43
447.146	327.38
447.586	289.93
448.026	301.64
448.466	364.83
448.906	245.46
449.346	275.89
449.786	271.21
450.225	315.68
450.665	313.34
451.105	311
451.544	320.36
451.984	294.61
452.424	308.66
452.863	306.32
453.302	306.32
453.742	315.68
454.181	254.83
454.62	369.51
455.059	247.8
455.499	313.34
455.938	327.38
456.377	273.55
456.816	273.55
457.254	296.96
457.693	353.13
458.132	308.66
458.571	301.64
459.01	353.13
459.448	280.57
459.887	360.15
460.325	364.83
460.764	245.46
461.202	238.44
461.641	271.21
462.079	348.45
462.517	266.53
462.955	292.27
463.393	334.4
463.832	285.25
464.27	329.72
464.708	264.19
465.145	259.51
465.583	332.06
466.021	315.68
466.459	306.32
466.897	306.32
467.334	313.34
467.772	226.74
468.209	322.7
468.647	271.21
469.084	346.11
469.522	240.78
469.959	296.96
470.396	301.64
470.833	327.38
471.271	355.47
471.708	252.49
472.145	280.57
472.582	301.64
473.019	332.06
473.456	308.66
473.892	336.74
474.329	303.98
474.766	292.27
475.202	268.87
475.639	294.61
476.076	318.02
476.512	329.72
476.949	273.55
477.385	266.53
477.821	292.27
478.258	303.98
478.694	348.45
479.13	329.72
479.566	287.59
480.002	320.36
480.438	325.04
480.874	325.04
481.31	311
481.746	289.93
482.181	329.72
482.617	247.8
483.053	299.3
483.488	320.36
483.924	289.93
484.36	329.72
484.795	278.23
485.23	318.02
485.666	245.46
486.101	360.15
486.536	353.13
486.971	303.98
487.407	289.93
487.842	212.7
488.277	250.14
488.712	327.38
489.146	320.36
489.581	308.66
490.016	285.25
490.451	346.11
490.885	261.85
491.32	222.06
491.755	360.15
492.189	325.04
492.624	299.3
493.058	336.74
493.492	313.34
493.927	264.19
494.361	322.7
494.795	271.21
495.229	327.38
495.663	367.17
496.097	334.4
496.531	259.51
496.965	360.15
497.399	318.02
497.833	282.91
498.266	336.74
498.7	285.25
499.134	259.51
499.567	303.98
500.001	217.38
500.434	280.57
500.868	311
501.301	285.25
501.734	296.96
502.168	296.96
502.601	341.43
503.034	236.1
503.467	292.27
503.9	266.53
504.333	266.53
504.766	282.91
505.199	296.96
505.632	278.23
506.064	287.59
506.497	306.32
506.93	193.97
507.362	238.44
507.795	313.34
508.227	266.53
508.66	313.34
509.092	285.25
509.524	278.23
509.956	334.4
510.389	334.4
510.821	268.87
511.253	334.4
511.685	332.06
512.117	336.74
512.549	313.34
512.981	303.98
513.412	355.47
513.844	306.32
514.276	308.66
514.707	301.64
515.139	311
515.571	332.06
516.002	299.3
516.433	327.38
516.865	329.72
517.296	301.64
517.727	376.53
518.159	233.76
518.59	289.93
519.021	301.64
519.452	376.53
519.883	292.27
520.314	289.93
520.744	261.85
521.175	329.72
521.606	306.32
522.037	348.45
522.467	327.38
522.898	289.93
523.328	301.64
523.759	322.7
524.189	357.81
524.62	332.06
525.05	294.61
525.48	282.91
525.91	339.09
526.341	334.4
526.771	282.91
527.201	245.46
527.631	329.72
528.061	320.36
528.49	252.49
528.92	292.27
529.35	329.72
529.78	264.19
530.209	282.91
530.639	383.56
531.068	268.87
531.498	301.64
531.927	282.91
532.357	278.23
532.786	327.38
533.215	350.79
533.644	348.45
534.074	334.4
534.503	336.74
534.932	402.28
535.361	343.77
535.79	273.55
536.218	346.11
536.647	280.57
537.076	322.7
537.505	355.47
537.933	311
538.362	308.66
538.79	299.3
539.219	339.09
539.647	318.02
540.076	339.09
540.504	275.89
540.932	318.02
541.36	292.27
541.788	308.66
542.217	301.64
542.645	231.42
543.073	294.61
543.5	315.68
543.928	294.61
544.356	282.91
544.784	280.57
545.211	329.72
545.639	243.12
546.067	315.68
546.494	334.4
546.922	355.47
547.349	245.46
547.776	313.34
548.204	318.02
548.631	271.21
549.058	355.47
549.485	264.19
549.912	240.78
550.339	327.38
550.766	308.66
551.193	294.61
551.62	264.19
552.047	322.7
552.474	285.25
552.9	285.25
553.327	320.36
553.754	278.23
554.18	268.87
554.607	296.96
555.033	301.64
555.459	287.59
555.886	285.25
556.312	289.93
556.738	294.61
557.164	254.83
557.59	243.12
558.016	282.91
558.442	257.17
558.868	282.91
559.294	315.68
559.72	299.3
560.145	311
560.571	339.09
560.997	404.62
561.422	275.89
561.848	280.57
562.273	306.32
562.699	306.32
563.124	282.91
563.549	320.36
563.974	341.43
564.4	341.43
564.825	252.49
565.25	339.09
565.675	385.9
566.1	282.91
566.525	296.96
566.95	374.19
567.374	325.04
567.799	296.96
568.224	311
568.648	350.79
569.073	341.43
569.497	383.56
569.922	322.7
570.346	273.55
570.771	278.23
571.195	245.46
571.619	303.98
572.043	282.91
572.467	329.72
572.891	303.98
573.315	320.36
573.739	371.85
574.163	282.91
574.587	325.04
575.011	278.23
575.435	245.46
575.858	322.7
576.282	357.81
576.705	350.79
577.129	261.85
577.552	273.55
577.976	264.19
578.399	311
578.822	264.19
579.245	318.02
579.669	325.04
580.092	268.87
580.515	287.59
580.938	362.49
581.361	332.06
581.784	308.66
582.206	243.12
582.629	252.49
583.052	332.06
583.474	325.04
583.897	313.34
584.32	280.57
584.742	224.4
585.165	301.64
585.587	275.89
586.009	278.23
586.431	285.25
586.854	299.3
587.276	268.87
587.698	329.72
588.12	280.57
588.542	339.09
588.964	303.98
589.386	294.61
589.807	315.68
590.229	289.93
590.651	301.64
591.073	259.51
591.494	353.13
591.916	322.7
592.337	294.61
592.759	296.96
593.18	285.25
593.601	341.43
594.022	343.77
594.444	334.4
594.865	294.61
595.286	315.68
595.707	268.87
596.128	294.61
596.549	318.02
596.97	371.85
597.39	336.74
597.811	266.53
598.232	268.87
598.652	294.61
599.073	313.34
599.494	266.53
599.914	353.13
600.334	327.38
600.755	231.42
601.175	278.23
601.595	282.91
602.015	280.57
602.436	355.47
602.856	355.47
603.276	299.3
603.696	357.81
604.115	289.93
604.535	271.21
604.955	289.93
605.375	327.38
605.794	381.21
606.214	299.3
606.634	313.34
607.053	275.89
607.473	299.3
607.892	350.79
608.311	327.38
608.731	339.09
609.15	245.46
609.569	313.34
609.988	292.27
610.407	299.3
610.826	301.64
611.245	222.06
611.664	306.32
612.083	282.91
612.501	318.02
612.92	292.27
613.339	271.21
613.757	280.57
614.176	301.64
614.594	327.38
615.013	287.59
615.431	299.3
615.85	285.25
616.268	282.91
616.686	299.3
617.104	346.11
617.522	303.98
617.94	273.55
618.358	315.68
618.776	322.7
619.194	327.38
619.612	301.64
620.03	306.32
620.447	369.51
620.865	343.77
621.282	252.49
621.7	325.04
622.117	341.43
622.535	395.26
622.952	299.3
623.369	271.21
623.787	355.47
624.204	287.59
624.621	254.83
625.038	285.25
625.455	313.34
625.872	261.85
626.289	322.7
626.706	353.13
627.123	292.27
627.539	250.14
627.956	355.47
628.373	311
628.789	313.34
629.206	301.64
629.622	322.7
630.038	313.34
630.455	250.14
630.871	292.27
631.287	329.72
631.703	320.36
632.12	268.87
632.536	303.98
632.952	339.09
633.368	343.77
633.783	292.27
634.199	266.53
634.615	292.27
635.031	264.19
635.446	327.38
635.862	226.74
636.277	273.55
636.693	254.83
637.108	240.78
637.524	261.85
637.939	311
638.354	301.64
638.77	343.77
639.185	252.49
639.6	275.89
640.015	325.04
640.43	259.51
640.845	257.17
641.259	266.53
641.674	296.96
642.089	336.74
642.504	299.3
642.918	278.23
643.333	287.59
643.747	285.25
644.162	299.3
644.576	294.61
644.991	289.93
645.405	364.83
645.819	273.55
646.233	275.89
646.647	282.91
647.061	280.57
647.475	275.89
647.889	287.59
648.303	301.64
648.717	315.68
649.131	327.38
649.545	334.4
649.958	346.11
650.372	292.27
650.785	243.12
651.199	322.7
651.612	294.61
652.026	289.93
652.439	334.4
652.852	266.53
653.266	306.32
653.679	282.91
654.092	247.8
654.505	318.02
654.918	268.87
655.331	350.79
655.744	273.55
656.156	292.27
656.569	318.02
656.982	275.89
657.394	320.36
657.807	329.72
658.22	315.68
658.632	332.06
659.044	343.77
659.457	273.55
659.869	325.04
660.281	332.06
660.693	296.96
661.106	289.93
661.518	301.64
661.93	299.3
662.342	381.21
662.754	247.8
663.165	280.57
663.577	362.49
663.989	266.53
664.401	289.93
664.812	339.09
665.224	294.61
665.635	275.89
666.047	287.59
666.458	308.66
666.869	329.72
667.281	311
667.692	325.04
668.103	285.25
668.514	303.98
668.925	282.91
669.336	301.64
669.747	341.43
670.158	278.23
670.569	325.04
670.979	296.96
671.39	306.32
671.801	296.96
672.211	271.21
672.622	336.74
673.032	299.3
673.443	299.3
673.853	266.53
674.263	336.74
674.674	350.79
675.084	266.53
675.494	247.8
675.904	315.68
676.314	257.17
676.724	250.14
677.134	287.59
677.544	325.04
677.953	360.15
678.363	287.59
678.773	364.83
679.182	350.79
679.592	378.87
680.001	264.19
680.411	308.66
680.82	261.85
681.23	268.87
681.639	334.4
682.048	250.14
682.457	346.11
682.866	303.98
683.275	252.49
683.684	257.17
684.093	289.93
684.502	294.61
684.911	311
685.32	299.3
685.728	301.64
686.137	289.93
686.546	320.36
686.954	217.38
687.363	289.93
687.771	278.23
688.179	289.93
688.588	236.1
688.996	339.09
689.404	275.89
689.812	303.98
690.22	313.34
690.628	343.77
691.036	306.32
691.444	306.32
691.852	292.27
692.26	399.94
692.667	341.43
693.075	285.25
693.483	322.7
693.89	278.23
694.298	346.11
694.705	296.96
695.112	245.46
695.52	254.83
695.927	327.38
696.334	261.85
696.741	350.79
697.148	385.9
697.555	292.27
697.962	247.8
698.369	341.43
698.776	287.59
699.183	334.4
699.59	311
699.996	311
700.403	311
700.81	332.06
701.216	318.02
701.623	264.19
702.029	287.59
702.435	320.36
702.842	301.64
703.248	266.53
703.654	301.64
704.06	294.61
704.466	254.83
704.872	222.06
705.278	273.55
705.684	250.14
706.09	273.55
706.496	282.91
706.901	261.85
707.307	334.4
707.712	266.53
708.118	339.09
708.523	334.4
708.929	332.06
709.334	285.25
709.74	259.51
710.145	357.81
710.55	299.3
710.955	301.64
711.36	367.17
711.765	299.3
712.17	367.17
712.575	261.85
712.98	849.32
713.385	353.13
713.789	275.89
714.194	231.42
714.599	360.15
715.003	303.98
715.408	299.3
715.812	343.77
716.217	332.06
716.621	325.04
717.025	282.91
717.429	233.76
717.833	299.3
718.238	334.4
718.642	411.64
719.046	315.68
719.449	303.98
719.853	322.7
720.257	271.21
720.661	289.93
721.065	261.85
721.468	264.19
721.872	315.68
722.275	210.36
722.679	285.25
723.082	383.56
723.485	282.91
723.889	346.11
724.292	334.4
724.695	301.64
725.098	299.3
725.501	296.96
725.904	378.87
726.307	294.61
726.71	278.23
727.113	313.34
727.516	355.47
727.918	306.32
728.321	348.45
728.724	313.34
729.126	315.68
729.529	285.25
729.931	341.43
730.333	264.19
730.736	315.68
731.138	266.53
731.54	278.23
731.942	296.96
732.344	278.23
732.746	313.34
733.148	278.23
733.55	299.3
733.952	289.93
734.354	261.85
734.756	371.85
735.157	285.25
735.559	261.85
735.96	289.93
736.362	313.34
736.763	289.93
737.165	268.87
737.566	229.08
737.967	271.21
738.368	268.87
738.77	336.74
739.171	294.61
739.572	320.36
739.973	271.21
740.374	341.43
740.774	336.74
741.175	273.55
741.576	329.72
741.977	233.76
742.377	371.85
742.778	322.7
743.178	306.32
743.579	325.04
743.979	257.17
744.379	299.3
744.78	259.51
745.18	308.66
745.58	308.66
745.98	240.78
746.38	327.38
746.78	308.66
747.18	261.85
747.58	322.7
747.98	303.98
748.38	257.17
748.779	308.66
749.179	299.3
749.578	329.72
749.978	254.83
750.377	287.59
750.777	261.85
751.176	313.34
751.575	250.14
751.975	315.68
752.374	289.93
752.773	261.85
753.172	343.77
753.571	280.57
753.97	313.34
754.369	364.83
754.768	280.57
755.166	336.74
755.565	318.02
755.964	268.87
756.362	303.98
756.761	257.17
757.159	322.7
757.558	313.34
757.956	266.53
758.354	334.4
758.753	264.19
759.151	306.32
759.549	292.27
759.947	343.77
760.345	327.38
760.743	306.32
761.141	247.8
761.539	259.51
761.936	243.12
762.334	355.47
762.732	322.7
763.129	259.51
763.527	318.02
763.924	285.25
764.322	346.11
764.719	287.59
765.117	369.51
765.514	322.7
765.911	320.36
766.308	261.85
766.705	336.74
767.102	282.91
767.499	353.13
767.896	292.27
768.293	341.43
768.69	332.06
769.086	306.32
769.483	294.61
769.88	376.53
770.276	287.59
770.673	259.51
771.069	294.61
771.466	329.72
771.862	287.59
772.258	261.85
772.654	318.02
773.05	306.32
773.447	268.87
773.843	374.19
774.239	303.98
774.634	275.89
775.03	275.89
775.426	266.53
775.822	355.47
776.218	306.32
776.613	348.45
777.009	278.23
777.404	264.19
777.8	285.25
778.195	233.76
778.59	315.68
778.986	261.85
779.381	311
779.776	268.87
780.171	303.98
780.566	299.3
780.961	285.25
781.356	329.72
781.751	271.21
782.146	315.68
782.54	280.57
782.935	282.91
783.33	226.74
783.724	341.43
784.119	289.93
784.513	219.72
784.908	282.91
785.302	296.96
785.696	278.23
786.09	238.44
786.485	212.7
786.879	315.68
787.273	238.44
787.667	266.53
788.061	282.91
788.454	318.02
788.848	322.7
789.242	301.64
789.636	254.83
790.029	334.4
790.423	327.38
790.816	301.64
791.21	292.27
791.603	282.91
791.997	322.7
792.39	257.17
792.783	357.81
793.176	296.96
793.569	315.68
793.962	296.96
794.355	367.17
794.748	306.32
795.141	243.12
795.534	289.93
795.927	271.21
796.319	320.36
796.712	332.06
797.105	257.17
797.497	336.74
797.89	318.02
798.282	339.09
798.674	301.64
799.067	329.72
799.459	327.38
799.851	332.06
800.243	292.27
800.635	268.87
801.027	306.32
801.419	261.85
801.811	339.09
802.203	339.09
802.594	303.98
802.986	350.79
803.378	289.93
803.769	381.21
804.161	273.55
804.552	268.87
804.944	348.45
805.335	322.7
805.726	332.06
806.118	226.74
806.509	266.53
806.9	325.04
807.291	264.19
807.682	329.72
808.073	264.19
808.464	315.68
808.855	280.57
809.245	296.96
809.636	292.27
810.027	320.36
810.417	285.25
810.808	266.53
811.198	313.34
811.589	296.96
811.979	282.91
812.369	339.09
812.759	325.04
813.15	296.96
813.54	294.61
813.93	296.96
814.32	236.1
814.71	280.57
815.1	374.19
815.489	273.55
815.879	271.21
816.269	259.51
816.658	303.98
817.048	229.08
817.438	264.19
817.827	332.06
818.216	360.15
818.606	282.91
818.995	329.72
819.384	306.32
819.773	278.23
820.163	292.27
820.552	268.87
820.941	353.13
821.33	318.02
821.718	247.8
822.107	250.14
822.496	299.3
822.885	294.61
823.273	247.8
823.662	268.87
824.05	327.38
824.439	252.49
824.827	259.51
825.216	250.14
825.604	341.43
825.992	285.25
826.38	308.66
826.768	327.38
827.156	280.57
827.544	259.51
827.932	226.74
828.32	322.7
828.708	327.38
829.096	299.3
829.483	271.21
829.871	273.55
830.259	292.27
830.646	318.02
831.034	299.3
831.421	289.93
831.808	376.53
832.196	315.68
832.583	313.34
832.97	294.61
833.357	243.12
833.744	222.06
834.131	285.25
834.518	273.55
834.905	334.4
835.292	285.25
835.678	285.25
836.065	278.23
836.452	273.55
836.838	332.06
837.225	231.42
837.611	339.09
837.998	238.44
838.384	301.64
838.77	357.81
839.157	243.12
839.543	301.64
839.929	245.46
840.315	292.27
840.701	315.68
841.087	275.89
841.473	296.96
841.858	334.4
842.244	273.55
842.63	327.38
843.015	301.64
843.401	589.52
843.787	299.3
844.172	381.21
844.557	318.02
844.943	353.13
845.328	346.11
845.713	289.93
846.098	261.85
846.483	271.21
846.868	285.25
847.253	233.76
847.638	294.61
848.023	308.66
848.408	327.38
848.793	329.72
849.177	275.89
849.562	203.33
849.947	332.06
850.331	327.38
850.715	296.96
851.1	343.77
851.484	294.61
851.868	264.19
852.253	318.02
852.637	332.06
853.021	289.93
853.405	278.23
853.789	325.04
854.173	243.12
854.557	315.68
854.94	280.57
855.324	303.98
855.708	299.3
856.091	294.61
856.475	303.98
856.858	261.85
857.242	334.4
857.625	285.25
858.009	278.23
858.392	306.32
858.775	313.34
859.158	280.57
859.541	320.36
859.924	303.98
860.307	332.06
860.69	334.4
861.073	346.11
861.456	282.91
861.838	259.51
862.221	292.27
862.604	280.57
862.986	336.74
863.369	259.51
863.751	313.34
864.133	278.23
864.516	341.43
864.898	289.93
865.28	308.66
865.662	320.36
866.044	261.85
866.426	250.14
866.808	355.47
867.19	243.12
867.572	268.87
867.954	322.7
868.336	308.66
868.717	275.89
869.099	303.98
869.48	285.25
869.862	268.87
870.243	327.38
870.625	273.55
871.006	254.83
871.387	259.51
871.768	275.89
872.149	303.98
872.53	353.13
872.911	320.36
873.292	313.34
873.673	278.23
874.054	343.77
874.435	318.02
874.815	296.96
875.196	301.64
875.577	346.11
875.957	280.57
876.338	257.17
876.718	289.93
877.098	311
877.479	346.11
877.859	303.98
878.239	264.19
878.619	285.25
878.999	222.06
879.379	285.25
879.759	296.96
880.139	325.04
880.519	268.87
880.898	308.66
881.278	259.51
881.658	299.3
882.037	243.12
882.417	294.61
882.796	257.17
883.176	280.57
883.555	322.7
883.934	261.85
884.313	315.68
884.693	315.68
885.072	252.49
885.451	292.27
885.83	285.25
886.209	285.25
886.587	243.12
886.966	303.98
887.345	282.91
887.724	315.68
888.102	339.09
888.481	346.11
888.859	329.72
889.238	296.96
889.616	280.57
889.994	325.04
890.373	364.83
890.751	385.9
891.129	285.25
891.507	308.66
891.885	318.02
892.263	303.98
892.641	371.85
893.019	282.91
893.396	318.02
893.774	341.43
894.152	254.83
894.529	303.98
894.907	273.55
895.284	289.93
895.662	250.14
896.039	315.68
896.416	315.68
896.794	311
897.171	341.43
897.548	247.8
897.925	233.76
898.302	275.89
898.679	315.68
899.056	329.72
899.433	282.91
899.809	318.02
900.186	264.19
900.563	289.93
900.939	296.96
901.316	357.81
901.692	303.98
902.069	236.1
902.445	308.66
902.821	275.89
903.197	231.42
903.574	367.17
903.95	311
904.326	257.17
904.702	222.06
905.078	369.51
905.454	226.74
905.829	301.64
906.205	357.81
906.581	299.3
906.956	311
907.332	217.38
907.707	325.04
908.083	343.77
908.458	318.02
908.833	301.64
909.209	353.13
909.584	327.38
909.959	303.98
910.334	341.43
910.709	329.72
911.084	299.3
911.459	266.53
911.834	329.72
912.209	287.59
912.583	301.64
912.958	313.34
913.333	306.32
913.707	296.96
914.082	257.17
914.456	296.96
914.83	292.27
915.205	318.02
915.579	383.56
915.953	325.04
916.327	322.7
916.701	329.72
917.075	229.08
917.449	318.02
917.823	299.3
918.197	287.59
918.571	339.09
918.944	329.72
919.318	332.06
919.692	299.3
920.065	224.4
920.438	259.51
920.812	325.04
921.185	343.77
921.558	233.76
921.932	360.15
922.305	299.3
922.678	261.85
923.051	322.7
923.424	303.98
923.797	259.51
924.17	275.89
924.542	275.89
924.915	339.09
925.288	282.91
925.661	350.79
926.033	292.27
926.406	254.83
926.778	292.27
927.15	320.36
927.523	254.83
927.895	264.19
928.267	311
928.639	217.38
929.011	222.06
929.383	250.14
929.755	278.23
930.127	320.36
930.499	315.68
930.871	299.3
931.242	289.93
931.614	219.72
931.986	268.87
932.357	318.02
932.729	346.11
933.1	294.61
933.471	353.13
933.843	243.12
934.214	336.74
934.585	289.93
934.956	325.04
935.327	318.02
935.698	327.38
936.069	336.74
936.44	336.74
936.811	261.85
937.182	266.53
937.552	266.53
937.923	313.34
938.293	266.53
938.664	308.66
939.034	296.96
939.405	236.1
939.775	292.27
940.145	250.14
940.516	280.57
940.886	369.51
941.256	282.91
941.626	315.68
941.996	355.47
942.366	266.53
942.735	306.32
943.105	250.14
943.475	308.66
943.845	327.38
944.214	259.51
944.584	308.66
944.953	308.66
945.323	369.51
945.692	294.61
946.061	266.53
946.43	289.93
946.8	285.25
947.169	282.91
947.538	325.04
947.907	282.91
948.276	261.85
948.645	320.36
949.013	306.32
949.382	303.98
949.751	250.14
950.119	247.8
950.488	296.96
950.857	289.93
951.225	240.78
951.593	341.43
951.962	259.51
952.33	308.66
952.698	327.38
953.066	280.57
953.434	254.83
953.802	229.08
954.17	294.61
954.538	313.34
954.906	280.57
955.274	334.4
955.642	325.04
956.009	325.04
956.377	226.74
956.744	285.25
957.112	369.51
957.479	322.7
957.847	238.44
958.214	311
958.581	273.55
958.948	343.77
959.315	367.17
959.683	273.55
960.05	212.7
960.416	306.32
960.783	360.15
961.15	296.96
961.517	301.64
961.884	266.53
962.25	266.53
962.617	334.4
962.983	322.7
963.35	245.46
963.716	292.27
964.082	240.78
964.449	294.61
964.815	273.55
965.181	320.36
965.547	250.14
965.913	280.57
966.279	287.59
966.645	250.14
967.011	292.27
967.377	289.93
967.742	243.12
968.108	346.11
968.474	266.53
968.839	250.14
969.205	318.02
969.57	275.89
969.935	299.3
970.301	301.64
970.666	285.25
971.031	327.38
971.396	250.14
971.761	266.53
972.126	282.91
972.491	296.96
972.856	299.3
973.221	247.8
973.586	273.55
973.95	320.36
974.315	257.17
974.679	243.12
975.044	198.65
975.408	240.78
975.773	306.32
976.137	236.1
976.501	322.7
976.866	268.87
977.23	299.3
977.594	252.49
977.958	334.4
978.322	273.55
978.686	327.38
979.049	308.66
979.413	285.25
979.777	318.02
980.141	311
980.504	280.57
980.868	247.8
981.231	334.4
981.595	378.87
981.958	329.72
982.321	318.02
982.684	357.81
983.048	243.12
983.411	339.09
983.774	306.32
984.137	271.21
984.5	245.46
984.862	280.57
985.225	273.55
985.588	341.43
985.951	271.21
986.313	264.19
986.676	318.02
987.038	278.23
987.401	240.78
987.763	318.02
988.125	264.19
988.488	303.98
988.85	275.89
989.212	285.25
989.574	303.98
989.936	325.04
990.298	268.87
990.66	278.23
991.022	273.55
991.383	376.53
991.745	313.34
992.107	243.12
992.468	318.02
992.83	306.32
993.191	301.64
993.553	306.32
993.914	299.3
994.275	289.93
994.637	313.34
994.998	240.78
995.359	219.72
995.72	261.85
996.081	275.89
996.442	357.81
996.803	285.25
997.163	343.77
997.524	289.93
997.885	292.27
998.245	329.72
998.606	301.64
998.966	294.61
999.327	266.53
999.687	254.83
1000.047	367.17
1000.408	320.36
1000.768	301.64
1001.128	282.91
1001.488	287.59
1001.848	334.4
1002.208	320.36
1002.568	292.27
1002.927	287.59
1003.287	266.53
1003.647	360.15
1004.007	217.38
1004.366	315.68
1004.726	257.17
1005.085	273.55
1005.444	320.36
1005.804	231.42
1006.163	285.25
1006.522	245.46
1006.881	287.59
1007.24	278.23
1007.599	299.3
1007.958	306.32
1008.317	287.59
1008.676	252.49
1009.035	289.93
1009.393	350.79
1009.752	266.53
1010.111	318.02
1010.469	341.43
1010.828	327.38
1011.186	240.78
1011.544	268.87
1011.903	275.89
1012.261	329.72
1012.619	289.93
1012.977	327.38
1013.335	369.51
1013.693	264.19
1014.051	306.32
1014.409	261.85
1014.767	252.49
1015.124	339.09
1015.482	292.27
1015.84	215.04
1016.197	299.3
1016.555	327.38
1016.912	240.78
1017.269	208.02
1017.627	257.17
1017.984	233.76
1018.341	299.3
1018.698	247.8
1019.055	222.06
1019.412	292.27
1019.769	238.44
1020.126	285.25
1020.483	343.77
1020.84	219.72
1021.196	287.59
1021.553	311
1021.909	306.32
1022.266	313.34
1022.622	329.72
1022.979	294.61
1023.335	282.91
1023.691	280.57
1024.047	236.1
1024.404	329.72
1024.76	325.04
1025.116	339.09
1025.472	285.25
1025.827	334.4
1026.183	292.27
1026.539	252.49
1026.895	287.59
1027.25	236.1
1027.606	271.21
1027.961	254.83
1028.317	322.7
1028.672	336.74
1029.028	311
1029.383	322.7
1029.738	376.53
1030.093	320.36
1030.448	318.02
1030.803	254.83
1031.158	296.96
1031.513	329.72
1031.868	306.32
1032.223	308.66
1032.577	315.68
1032.932	355.47
1033.287	296.96
1033.641	289.93
1033.996	261.85
1034.35	275.89
1034.704	271.21
1035.059	299.3
1035.413	215.04
1035.767	215.04
1036.121	215.04
