Data from Al_FLMS009871__682__15-07-12-937.txt Node

Date: Fri Mar 08 15:07:12 CST 2024
User: pe5414po
Spectrometer: FLMS00987
Trigger mode: 0
Integration Time (sec): 1.000000E-1
Scans to average: 1
Electric dark correction enabled: true
Nonlinearity correction enabled: false
Boxcar width: 0
XAxis mode: Wavelengths
Number of Pixels in Spectrum: 2048
>>>>>Begin Spectral Data<<<<<
188.938	-32.04
189.409	-32.04
189.879	-32.04
190.349	-78.85
190.819	-57.78
191.29	-46.08
191.76	-46.08
192.23	-172.47
192.7	-69.48
193.17	-67.14
193.64	-34.38
194.109	-57.78
194.579	-3.95
195.049	19.46
195.519	17.12
195.988	14.77
196.458	40.52
196.927	42.86
197.397	138.82
197.866	171.59
198.336	52.22
198.805	99.03
199.274	178.61
199.744	143.5
200.213	244.15
200.682	202.02
201.151	281.6
201.62	232.44
202.089	281.6
202.558	223.08
203.027	244.15
203.495	255.85
203.964	246.49
204.433	251.17
204.902	251.17
205.37	260.53
205.839	323.73
206.307	276.91
206.776	335.43
207.244	316.7
207.712	269.89
208.181	286.28
208.649	305
209.117	335.43
209.585	288.62
210.053	321.38
210.521	281.6
210.989	300.32
211.457	260.53
211.925	283.94
212.393	356.49
212.861	274.57
213.328	293.3
213.796	223.08
214.264	262.87
214.731	283.94
215.199	272.23
215.666	253.51
216.133	288.62
216.601	279.26
217.068	295.64
217.535	279.26
218.003	260.53
218.47	316.7
218.937	241.81
219.404	202.02
219.871	241.81
220.338	237.13
220.805	227.76
221.271	246.49
221.738	206.7
222.205	269.89
222.671	286.28
223.138	253.51
223.605	248.83
224.071	265.21
224.538	288.62
225.004	276.91
225.47	218.4
225.937	295.64
226.403	253.51
226.869	274.57
227.335	319.04
227.801	286.28
228.267	211.38
228.733	241.81
229.199	267.55
229.665	316.7
230.131	267.55
230.597	290.96
231.062	265.21
231.528	300.32
231.994	335.43
232.459	309.68
232.925	283.94
233.39	295.64
233.856	297.98
234.321	283.94
234.786	246.49
235.252	286.28
235.717	211.38
236.182	335.43
236.647	244.15
237.112	295.64
237.577	290.96
238.042	309.68
238.507	255.85
238.972	274.57
239.436	286.28
239.901	232.44
240.366	297.98
240.83	262.87
241.295	300.32
241.76	290.96
242.224	349.47
242.688	279.26
243.153	269.89
243.617	307.34
244.081	246.49
244.545	305
245.01	358.83
245.474	279.26
245.938	274.57
246.402	309.68
246.866	262.87
247.33	295.64
247.793	274.57
248.257	248.83
248.721	255.85
249.185	354.15
249.648	281.6
250.112	319.04
250.575	300.32
251.039	300.32
251.502	293.3
251.965	171.59
252.429	279.26
252.892	255.85
253.355	312.02
253.818	290.96
254.281	300.32
254.744	344.79
255.207	272.23
255.67	272.23
256.133	246.49
256.596	335.43
257.059	302.66
257.522	349.47
257.984	344.79
258.447	272.23
258.909	293.3
259.372	337.77
259.834	272.23
260.297	326.07
260.759	274.57
261.221	258.19
261.684	307.34
262.146	307.34
262.608	312.02
263.07	220.74
263.532	333.09
263.994	293.3
264.456	307.34
264.918	309.68
265.38	305
265.842	258.19
266.303	319.04
266.765	312.02
267.227	251.17
267.688	295.64
268.15	295.64
268.611	279.26
269.072	342.45
269.534	330.75
269.995	239.47
270.456	290.96
270.918	297.98
271.379	365.85
271.84	295.64
272.301	309.68
272.762	274.57
273.223	279.26
273.684	288.62
274.144	370.54
274.605	335.43
275.066	347.13
275.527	265.21
275.987	326.07
276.448	305
276.908	340.11
277.369	297.98
277.829	281.6
278.289	340.11
278.75	295.64
279.21	295.64
279.67	293.3
280.13	279.26
280.59	253.51
281.05	281.6
281.51	225.42
281.97	309.68
282.43	293.3
282.89	372.88
283.35	269.89
283.809	255.85
284.269	358.83
284.729	286.28
285.188	265.21
285.648	274.57
286.107	323.73
286.567	347.13
287.026	276.91
287.485	361.17
287.944	328.41
288.404	276.91
288.863	307.34
289.322	281.6
289.781	323.73
290.24	269.89
290.699	337.77
291.158	307.34
291.616	283.94
292.075	276.91
292.534	326.07
292.992	302.66
293.451	368.2
293.91	286.28
294.368	375.22
294.827	335.43
295.285	342.45
295.743	295.64
296.202	230.1
296.66	307.34
297.118	321.38
297.576	351.81
298.034	286.28
298.492	286.28
298.95	344.79
299.408	333.09
299.866	379.9
300.324	361.17
300.781	379.9
301.239	344.79
301.697	319.04
302.154	281.6
302.612	323.73
303.069	286.28
303.527	358.83
303.984	326.07
304.441	279.26
304.899	225.42
305.356	305
305.813	328.41
306.27	354.15
306.727	335.43
307.184	340.11
307.641	333.09
308.098	316.7
308.555	368.2
309.012	288.62
309.468	333.09
309.925	351.81
310.382	316.7
310.838	333.09
311.295	260.53
311.751	328.41
312.208	319.04
312.664	335.43
313.12	337.77
313.577	363.51
314.033	288.62
314.489	260.53
314.945	297.98
315.401	269.89
315.857	330.75
316.313	265.21
316.769	279.26
317.225	354.15
317.681	279.26
318.136	286.28
318.592	305
319.048	279.26
319.503	326.07
319.959	330.75
320.414	351.81
320.869	333.09
321.325	297.98
321.78	293.3
322.235	356.49
322.691	361.17
323.146	295.64
323.601	302.66
324.056	305
324.511	340.11
324.966	305
325.421	305
325.875	328.41
326.33	328.41
326.785	351.81
327.24	281.6
327.694	309.68
328.149	288.62
328.603	307.34
329.058	286.28
329.512	316.7
329.966	312.02
330.421	307.34
330.875	269.89
331.329	290.96
331.783	312.02
332.237	337.77
332.691	363.51
333.145	274.57
333.599	307.34
334.053	314.36
334.507	312.02
334.96	218.4
335.414	342.45
335.868	326.07
336.321	290.96
336.775	295.64
337.228	314.36
337.682	361.17
338.135	363.51
338.588	302.66
339.042	337.77
339.495	295.64
339.948	290.96
340.401	344.79
340.854	333.09
341.307	279.26
341.76	328.41
342.213	377.56
342.666	293.3
343.119	351.81
343.571	283.94
344.024	232.44
344.477	305
344.929	319.04
345.382	305
345.834	272.23
346.287	316.7
346.739	267.55
347.191	326.07
347.644	319.04
348.096	279.26
348.548	340.11
349	319.04
349.452	326.07
349.904	288.62
350.356	321.38
350.808	361.17
351.26	349.47
351.711	302.66
352.163	321.38
352.615	356.49
353.066	337.77
353.518	286.28
353.969	281.6
354.421	295.64
354.872	335.43
355.324	307.34
355.775	309.68
356.226	302.66
356.677	351.81
357.128	358.83
357.579	293.3
358.03	382.24
358.481	309.68
358.932	295.64
359.383	305
359.834	290.96
360.285	316.7
360.735	307.34
361.186	337.77
361.637	248.83
362.087	330.75
362.538	307.34
362.988	363.51
363.438	377.56
363.889	305
364.339	356.49
364.789	354.15
365.239	302.66
365.689	347.13
366.139	328.41
366.589	326.07
367.039	307.34
367.489	342.45
367.939	354.15
368.389	241.81
368.839	293.3
369.288	344.79
369.738	305
370.187	326.07
370.637	307.34
371.086	314.36
371.536	297.98
371.985	272.23
372.434	302.66
372.884	335.43
373.333	276.91
373.782	391.6
374.231	265.21
374.68	290.96
375.129	312.02
375.578	305
376.027	340.11
376.475	281.6
376.924	312.02
377.373	319.04
377.822	333.09
378.27	323.73
378.719	330.75
379.167	351.81
379.616	307.34
380.064	262.87
380.512	333.09
380.961	267.55
381.409	379.9
381.857	274.57
382.305	312.02
382.753	389.26
383.201	281.6
383.649	375.22
384.097	365.85
384.545	300.32
384.992	290.96
385.44	302.66
385.888	326.07
386.335	297.98
386.783	265.21
387.231	326.07
387.678	319.04
388.125	330.75
388.573	307.34
389.02	305
389.467	307.34
389.914	363.51
390.362	342.45
390.809	372.88
391.256	272.23
391.703	358.83
392.15	321.38
392.596	342.45
393.043	344.79
393.49	269.89
393.937	347.13
394.383	333.09
394.83	351.81
395.276	335.43
395.723	293.3
396.169	358.83
396.616	276.91
397.062	295.64
397.508	293.3
397.954	305
398.401	258.19
398.847	262.87
399.293	319.04
399.739	305
400.185	379.9
400.631	370.54
401.076	340.11
401.522	246.49
401.968	309.68
402.414	337.77
402.859	328.41
403.305	347.13
403.75	365.85
404.196	297.98
404.641	372.88
405.086	321.38
405.532	396.28
405.977	302.66
406.422	288.62
406.867	293.3
407.312	333.09
407.757	389.26
408.202	323.73
408.647	326.07
409.092	309.68
409.537	314.36
409.982	319.04
410.426	272.23
410.871	312.02
411.316	330.75
411.76	309.68
412.205	297.98
412.649	354.15
413.093	314.36
413.538	305
413.982	321.38
414.426	340.11
414.87	297.98
415.314	356.49
415.758	253.51
416.202	384.58
416.646	286.28
417.09	349.47
417.534	391.6
417.978	265.21
418.421	344.79
418.865	356.49
419.309	361.17
419.752	302.66
420.196	351.81
420.639	330.75
421.083	391.6
421.526	305
421.969	319.04
422.412	328.41
422.856	272.23
423.299	307.34
423.742	319.04
424.185	274.57
424.628	260.53
425.071	326.07
425.513	316.7
425.956	274.57
426.399	328.41
426.842	316.7
427.284	349.47
427.727	274.57
428.169	319.04
428.612	386.92
429.054	321.38
429.497	281.6
429.939	290.96
430.381	340.11
430.823	347.13
431.265	295.64
431.707	307.34
432.149	386.92
432.591	384.58
433.033	368.2
433.475	286.28
433.917	344.79
434.359	276.91
434.8	265.21
435.242	347.13
435.684	337.77
436.125	386.92
436.567	276.91
437.008	295.64
437.449	344.79
437.891	312.02
438.332	370.54
438.773	305
439.214	323.73
439.656	297.98
440.097	323.73
440.538	323.73
440.978	253.51
441.419	309.68
441.86	316.7
442.301	272.23
442.742	309.68
443.182	302.66
443.623	312.02
444.063	330.75
444.504	321.38
444.944	302.66
445.385	319.04
445.825	342.45
446.265	309.68
446.706	300.32
447.146	272.23
447.586	237.13
448.026	295.64
448.466	288.62
448.906	293.3
449.346	288.62
449.786	305
450.225	351.81
450.665	283.94
451.105	431.39
451.544	316.7
451.984	276.91
452.424	305
452.863	290.96
453.302	297.98
453.742	326.07
454.181	342.45
454.62	351.81
455.059	326.07
455.499	321.38
455.938	344.79
456.377	267.55
456.816	281.6
457.254	326.07
457.693	384.58
458.132	321.38
458.571	370.54
459.01	279.26
459.448	382.24
459.887	321.38
460.325	300.32
460.764	290.96
461.202	326.07
461.641	312.02
462.079	309.68
462.517	330.75
462.955	297.98
463.393	354.15
463.832	384.58
464.27	279.26
464.708	342.45
465.145	274.57
465.583	372.88
466.021	344.79
466.459	382.24
466.897	361.17
467.334	356.49
467.772	316.7
468.209	354.15
468.647	312.02
469.084	347.13
469.522	312.02
469.959	349.47
470.396	349.47
470.833	356.49
471.271	326.07
471.708	267.55
472.145	328.41
472.582	319.04
473.019	340.11
473.456	279.26
473.892	379.9
474.329	297.98
474.766	307.34
475.202	351.81
475.639	326.07
476.076	337.77
476.512	363.51
476.949	368.2
477.385	333.09
477.821	335.43
478.258	288.62
478.694	349.47
479.13	244.15
479.566	305
480.002	326.07
480.438	260.53
480.874	393.94
481.31	274.57
481.746	342.45
482.181	293.3
482.617	312.02
483.053	265.21
483.488	375.22
483.924	356.49
484.36	323.73
484.795	305
485.23	305
485.666	358.83
486.101	326.07
486.536	309.68
486.971	337.77
487.407	351.81
487.842	337.77
488.277	340.11
488.712	386.92
489.146	372.88
489.581	309.68
490.016	321.38
490.451	328.41
490.885	281.6
491.32	279.26
491.755	429.05
492.189	314.36
492.624	349.47
493.058	354.15
493.492	363.51
493.927	330.75
494.361	347.13
494.795	375.22
495.229	274.57
495.663	288.62
496.097	319.04
496.531	354.15
496.965	279.26
497.399	276.91
497.833	316.7
498.266	321.38
498.7	368.2
499.134	382.24
499.567	342.45
500.001	274.57
500.434	342.45
500.868	290.96
501.301	358.83
501.734	347.13
502.168	356.49
502.601	333.09
503.034	241.81
503.467	333.09
503.9	302.66
504.333	293.3
504.766	248.83
505.199	377.56
505.632	286.28
506.064	300.32
506.497	379.9
506.93	290.96
507.362	286.28
507.795	290.96
508.227	283.94
508.66	286.28
509.092	377.56
509.524	314.36
509.956	363.51
510.389	356.49
510.821	351.81
511.253	244.15
511.685	351.81
512.117	368.2
512.549	321.38
512.981	290.96
513.412	312.02
513.844	328.41
514.276	333.09
514.707	305
515.139	358.83
515.571	347.13
516.002	302.66
516.433	281.6
516.865	337.77
517.296	309.68
517.727	354.15
518.159	379.9
518.59	335.43
519.021	377.56
519.452	316.7
519.883	344.79
520.314	323.73
520.744	330.75
521.175	328.41
521.606	368.2
522.037	372.88
522.467	328.41
522.898	351.81
523.328	316.7
523.759	356.49
524.189	283.94
524.62	354.15
525.05	337.77
525.48	302.66
525.91	335.43
526.341	333.09
526.771	326.07
527.201	321.38
527.631	309.68
528.061	274.57
528.49	290.96
528.92	279.26
529.35	305
529.78	321.38
530.209	365.85
530.639	330.75
531.068	302.66
531.498	281.6
531.927	276.91
532.357	293.3
532.786	323.73
533.215	342.45
533.644	340.11
534.074	305
534.503	361.17
534.932	333.09
535.361	314.36
535.79	347.13
536.218	356.49
536.647	319.04
537.076	365.85
537.505	328.41
537.933	391.6
538.362	349.47
538.79	293.3
539.219	307.34
539.647	330.75
540.076	340.11
540.504	361.17
540.932	323.73
541.36	321.38
541.788	370.54
542.217	319.04
542.645	276.91
543.073	314.36
543.5	351.81
543.928	398.62
544.356	377.56
544.784	323.73
545.211	375.22
545.639	319.04
546.067	319.04
546.494	305
546.922	323.73
547.349	283.94
547.776	335.43
548.204	316.7
548.631	370.54
549.058	295.64
549.485	370.54
549.912	344.79
550.339	321.38
550.766	314.36
551.193	258.19
551.62	356.49
552.047	330.75
552.474	323.73
552.9	309.68
553.327	333.09
553.754	321.38
554.18	295.64
554.607	337.77
555.033	316.7
555.459	328.41
555.886	375.22
556.312	356.49
556.738	335.43
557.164	335.43
557.59	344.79
558.016	312.02
558.442	297.98
558.868	354.15
559.294	344.79
559.72	312.02
560.145	276.91
560.571	279.26
560.997	307.34
561.422	312.02
561.848	361.17
562.273	351.81
562.699	302.66
563.124	302.66
563.549	300.32
563.974	319.04
564.4	300.32
564.825	365.85
565.25	370.54
565.675	358.83
566.1	302.66
566.525	358.83
566.95	302.66
567.374	337.77
567.799	305
568.224	379.9
568.648	356.49
569.073	356.49
569.497	269.89
569.922	305
570.346	347.13
570.771	293.3
571.195	354.15
571.619	307.34
572.043	314.36
572.467	358.83
572.891	365.85
573.315	391.6
573.739	372.88
574.163	295.64
574.587	328.41
575.011	335.43
575.435	326.07
575.858	302.66
576.282	361.17
576.705	297.98
577.129	283.94
577.552	302.66
577.976	333.09
578.399	328.41
578.822	391.6
579.245	281.6
579.669	202.02
580.092	356.49
580.515	344.79
580.938	312.02
581.361	321.38
581.784	365.85
582.206	330.75
582.629	344.79
583.052	337.77
583.474	375.22
583.897	358.83
584.32	342.45
584.742	335.43
585.165	307.34
585.587	344.79
586.009	342.45
586.431	342.45
586.854	302.66
587.276	279.26
587.698	316.7
588.12	253.51
588.542	328.41
588.964	309.68
589.386	312.02
589.807	293.3
590.229	312.02
590.651	288.62
591.073	368.2
591.494	305
591.916	290.96
592.337	342.45
592.759	354.15
593.18	309.68
593.601	328.41
594.022	368.2
594.444	328.41
594.865	316.7
595.286	297.98
595.707	354.15
596.128	356.49
596.549	344.79
596.97	269.89
597.39	372.88
597.811	312.02
598.232	330.75
598.652	344.79
599.073	363.51
599.494	279.26
599.914	272.23
600.334	295.64
600.755	321.38
601.175	293.3
601.595	358.83
602.015	307.34
602.436	370.54
602.856	450.11
603.276	234.78
603.696	323.73
604.115	358.83
604.535	253.51
604.955	283.94
605.375	340.11
605.794	370.54
606.214	333.09
606.634	368.2
607.053	337.77
607.473	365.85
607.892	379.9
608.311	319.04
608.731	319.04
609.15	368.2
609.569	316.7
609.988	337.77
610.407	316.7
610.826	349.47
611.245	393.94
611.664	330.75
612.083	335.43
612.501	321.38
612.92	323.73
613.339	326.07
613.757	305
614.176	293.3
614.594	389.26
615.013	337.77
615.431	349.47
615.85	342.45
616.268	356.49
616.686	319.04
617.104	246.49
617.522	361.17
617.94	351.81
618.358	255.85
618.776	302.66
619.194	286.28
619.612	347.13
620.03	290.96
620.447	323.73
620.865	309.68
621.282	319.04
621.7	316.7
622.117	349.47
622.535	314.36
622.952	293.3
623.369	274.57
623.787	344.79
624.204	300.32
624.621	323.73
625.038	379.9
625.455	389.26
625.872	297.98
626.289	340.11
626.706	375.22
627.123	337.77
627.539	239.47
627.956	283.94
628.373	351.81
628.789	335.43
629.206	344.79
629.622	314.36
630.038	351.81
630.455	333.09
630.871	344.79
631.287	344.79
631.703	319.04
632.12	319.04
632.536	286.28
632.952	297.98
633.368	344.79
633.783	274.57
634.199	307.34
634.615	319.04
635.031	382.24
635.446	330.75
635.862	319.04
636.277	312.02
636.693	312.02
637.108	335.43
637.524	309.68
637.939	354.15
638.354	365.85
638.77	314.36
639.185	400.96
639.6	326.07
640.015	288.62
640.43	316.7
640.845	309.68
641.259	274.57
641.674	326.07
642.089	330.75
642.504	265.21
642.918	358.83
643.333	305
643.747	340.11
644.162	328.41
644.576	337.77
644.991	305
645.405	356.49
645.819	333.09
646.233	321.38
646.647	363.51
647.061	328.41
647.475	368.2
647.889	337.77
648.303	407.98
648.717	293.3
649.131	363.51
649.545	295.64
649.958	358.83
650.372	253.51
650.785	323.73
651.199	279.26
651.612	314.36
652.026	365.85
652.439	283.94
652.852	323.73
653.266	363.51
653.679	356.49
654.092	302.66
654.505	276.91
654.918	328.41
655.331	312.02
655.744	321.38
656.156	384.58
656.569	305
656.982	358.83
657.394	356.49
657.807	305
658.22	293.3
658.632	333.09
659.044	305
659.457	368.2
659.869	305
660.281	328.41
660.693	309.68
661.106	234.78
661.518	337.77
661.93	323.73
662.342	302.66
662.754	307.34
663.165	312.02
663.577	344.79
663.989	333.09
664.401	323.73
664.812	293.3
665.224	305
665.635	358.83
666.047	314.36
666.458	305
666.869	379.9
667.281	351.81
667.692	347.13
668.103	305
668.514	314.36
668.925	333.09
669.336	365.85
669.747	297.98
670.158	281.6
670.569	351.81
670.979	290.96
671.39	344.79
671.801	321.38
672.211	330.75
672.622	347.13
673.032	363.51
673.443	302.66
673.853	347.13
674.263	342.45
674.674	340.11
675.084	330.75
675.494	370.54
675.904	358.83
676.314	333.09
676.724	319.04
677.134	286.28
677.544	323.73
677.953	337.77
678.363	319.04
678.773	335.43
679.182	403.3
679.592	365.85
680.001	321.38
680.411	340.11
680.82	321.38
681.23	382.24
681.639	330.75
682.048	337.77
682.457	295.64
682.866	323.73
683.275	307.34
683.684	361.17
684.093	288.62
684.502	323.73
684.911	361.17
685.32	312.02
685.728	309.68
686.137	283.94
686.546	276.91
686.954	295.64
687.363	356.49
687.771	326.07
688.179	276.91
688.588	286.28
688.996	328.41
689.404	316.7
689.812	297.98
690.22	328.41
690.628	361.17
691.036	363.51
691.444	279.26
691.852	302.66
692.26	312.02
692.667	361.17
693.075	279.26
693.483	297.98
693.89	351.81
694.298	290.96
694.705	328.41
695.112	321.38
695.52	377.56
695.927	328.41
696.334	344.79
696.741	326.07
697.148	351.81
697.555	309.68
697.962	312.02
698.369	316.7
698.776	354.15
699.183	305
699.59	372.88
699.996	333.09
700.403	349.47
700.81	283.94
701.216	422.03
701.623	297.98
702.029	347.13
702.435	272.23
702.842	286.28
703.248	302.66
703.654	377.56
704.06	312.02
704.466	363.51
704.872	305
705.278	300.32
705.684	309.68
706.09	356.49
706.496	312.02
706.901	290.96
707.307	326.07
707.712	340.11
708.118	321.38
708.523	305
708.929	279.26
709.334	415.01
709.74	347.13
710.145	309.68
710.55	319.04
710.955	260.53
711.36	342.45
711.765	279.26
712.17	297.98
712.575	363.51
712.98	883.11
713.385	309.68
713.789	274.57
714.194	326.07
714.599	255.85
715.003	328.41
715.408	354.15
715.812	305
716.217	321.38
716.621	314.36
717.025	297.98
717.429	260.53
717.833	375.22
718.238	361.17
718.642	337.77
719.046	396.28
719.449	288.62
719.853	368.2
720.257	328.41
720.661	349.47
721.065	389.26
721.468	344.79
721.872	337.77
722.275	293.3
722.679	356.49
723.082	356.49
723.485	279.26
723.889	297.98
724.292	333.09
724.695	265.21
725.098	354.15
725.501	297.98
725.904	307.34
726.307	309.68
726.71	365.85
727.113	429.05
727.516	293.3
727.918	344.79
728.321	344.79
728.724	354.15
729.126	335.43
729.529	365.85
729.931	349.47
730.333	330.75
730.736	279.26
731.138	293.3
731.54	340.11
731.942	276.91
732.344	300.32
732.746	340.11
733.148	309.68
733.55	262.87
733.952	286.28
734.354	326.07
734.756	328.41
735.157	340.11
735.559	293.3
735.96	286.28
736.362	297.98
736.763	302.66
737.165	389.26
737.566	384.58
737.967	351.81
738.368	368.2
738.77	337.77
739.171	337.77
739.572	302.66
739.973	314.36
740.374	286.28
740.774	307.34
741.175	288.62
741.576	267.55
741.977	319.04
742.377	286.28
742.778	293.3
743.178	321.38
743.579	342.45
743.979	424.37
744.379	300.32
744.78	319.04
745.18	309.68
745.58	295.64
745.98	295.64
746.38	340.11
746.78	321.38
747.18	312.02
747.58	351.81
747.98	337.77
748.38	305
748.779	300.32
749.179	300.32
749.578	300.32
749.978	344.79
750.377	333.09
750.777	330.75
751.176	391.6
751.575	368.2
751.975	307.34
752.374	361.17
752.773	305
753.172	251.17
753.571	328.41
753.97	391.6
754.369	328.41
754.768	347.13
755.166	288.62
755.565	302.66
755.964	340.11
756.362	246.49
756.761	326.07
757.159	312.02
757.558	319.04
757.956	323.73
758.354	262.87
758.753	246.49
759.151	309.68
759.549	316.7
759.947	295.64
760.345	283.94
760.743	272.23
761.141	279.26
761.539	349.47
761.936	323.73
762.334	309.68
762.732	307.34
763.129	321.38
763.527	305
763.924	342.45
764.322	316.7
764.719	382.24
765.117	319.04
765.514	319.04
765.911	276.91
766.308	260.53
766.705	269.89
767.102	297.98
767.499	326.07
767.896	272.23
768.293	377.56
768.69	274.57
769.086	279.26
769.483	302.66
769.88	297.98
770.276	333.09
770.673	300.32
771.069	358.83
771.466	225.42
771.862	321.38
772.258	356.49
772.654	297.98
773.05	319.04
773.447	344.79
773.843	290.96
774.239	368.2
774.634	297.98
775.03	312.02
775.426	302.66
775.822	307.34
776.218	276.91
776.613	321.38
777.009	281.6
777.404	290.96
777.8	302.66
778.195	351.81
778.59	309.68
778.986	326.07
779.381	354.15
779.776	319.04
780.171	337.77
780.566	260.53
780.961	297.98
781.356	396.28
781.751	354.15
782.146	274.57
782.54	293.3
782.935	279.26
783.33	333.09
783.724	269.89
784.119	295.64
784.513	295.64
784.908	321.38
785.302	342.45
785.696	227.76
786.09	290.96
786.485	323.73
786.879	300.32
787.273	333.09
787.667	328.41
788.061	326.07
788.454	342.45
788.848	368.2
789.242	342.45
789.636	283.94
790.029	297.98
790.423	333.09
790.816	365.85
791.21	267.55
791.603	370.54
791.997	312.02
792.39	347.13
792.783	326.07
793.176	295.64
793.569	253.51
793.962	314.36
794.355	349.47
794.748	269.89
795.141	323.73
795.534	279.26
795.927	300.32
796.319	281.6
796.712	358.83
797.105	333.09
797.497	344.79
797.89	260.53
798.282	283.94
798.674	347.13
799.067	286.28
799.459	288.62
799.851	297.98
800.243	351.81
800.635	326.07
801.027	309.68
801.419	363.51
801.811	312.02
802.203	267.55
802.594	326.07
802.986	340.11
803.378	368.2
803.769	333.09
804.161	300.32
804.552	302.66
804.944	365.85
805.335	319.04
805.726	356.49
806.118	293.3
806.509	309.68
806.9	330.75
807.291	396.28
807.682	391.6
808.073	244.15
808.464	330.75
808.855	389.26
809.245	230.1
809.636	302.66
810.027	363.51
810.417	328.41
810.808	319.04
811.198	342.45
811.589	361.17
811.979	283.94
812.369	335.43
812.759	335.43
813.15	342.45
813.54	375.22
813.93	314.36
814.32	316.7
814.71	326.07
815.1	351.81
815.489	316.7
815.879	276.91
816.269	274.57
816.658	354.15
817.048	305
817.438	316.7
817.827	262.87
818.216	295.64
818.606	344.79
818.995	290.96
819.384	363.51
819.773	363.51
820.163	290.96
820.552	297.98
820.941	335.43
821.33	372.88
821.718	312.02
822.107	302.66
822.496	372.88
822.885	335.43
823.273	340.11
823.662	323.73
824.05	305
824.439	297.98
824.827	321.38
825.216	342.45
825.604	323.73
825.992	290.96
826.38	340.11
826.768	351.81
827.156	333.09
827.544	286.28
827.932	307.34
828.32	276.91
828.708	286.28
829.096	295.64
829.483	323.73
829.871	349.47
830.259	309.68
830.646	365.85
831.034	295.64
831.421	290.96
831.808	314.36
832.196	335.43
832.583	307.34
832.97	319.04
833.357	321.38
833.744	276.91
834.131	335.43
834.518	288.62
834.905	340.11
835.292	314.36
835.678	337.77
836.065	255.85
836.452	251.17
836.838	305
837.225	286.28
837.611	307.34
837.998	314.36
838.384	293.3
838.77	290.96
839.157	328.41
839.543	283.94
839.929	286.28
840.315	319.04
840.701	279.26
841.087	274.57
841.473	328.41
841.858	262.87
842.244	354.15
842.63	321.38
843.015	319.04
843.401	574.16
843.787	269.89
844.172	293.3
844.557	267.55
844.943	316.7
845.328	337.77
845.713	293.3
846.098	295.64
846.483	361.17
846.868	321.38
847.253	274.57
847.638	328.41
848.023	314.36
848.408	281.6
848.793	305
849.177	290.96
849.562	293.3
849.947	333.09
850.331	349.47
850.715	328.41
851.1	344.79
851.484	314.36
851.868	337.77
852.253	337.77
852.637	326.07
853.021	340.11
853.405	370.54
853.789	391.6
854.173	321.38
854.557	326.07
854.94	262.87
855.324	295.64
855.708	283.94
856.091	347.13
856.475	330.75
856.858	316.7
857.242	337.77
857.625	319.04
858.009	307.34
858.392	323.73
858.775	400.96
859.158	279.26
859.541	307.34
859.924	349.47
860.307	295.64
860.69	293.3
861.073	260.53
861.456	297.98
861.838	356.49
862.221	323.73
862.604	314.36
862.986	307.34
863.369	293.3
863.751	340.11
864.133	356.49
864.516	314.36
864.898	265.21
865.28	319.04
865.662	323.73
866.044	316.7
866.426	305
866.808	337.77
867.19	293.3
867.572	351.81
867.954	382.24
868.336	328.41
868.717	335.43
869.099	262.87
869.48	347.13
869.862	372.88
870.243	307.34
870.625	297.98
871.006	335.43
871.387	302.66
871.768	321.38
872.149	312.02
872.53	274.57
872.911	255.85
873.292	333.09
873.673	342.45
874.054	314.36
874.435	290.96
874.815	337.77
875.196	281.6
875.577	347.13
875.957	342.45
876.338	302.66
876.718	232.44
877.098	335.43
877.479	283.94
877.859	342.45
878.239	323.73
878.619	349.47
878.999	274.57
879.379	351.81
879.759	319.04
880.139	290.96
880.519	300.32
880.898	323.73
881.278	333.09
881.658	368.2
882.037	302.66
882.417	349.47
882.796	319.04
883.176	244.15
883.555	300.32
883.934	305
884.313	328.41
884.693	307.34
885.072	424.37
885.451	326.07
885.83	286.28
886.209	307.34
886.587	344.79
886.966	351.81
887.345	293.3
887.724	295.64
888.102	344.79
888.481	297.98
888.859	234.78
889.238	365.85
889.616	365.85
889.994	410.33
890.373	340.11
890.751	312.02
891.129	307.34
891.507	297.98
891.885	307.34
892.263	365.85
892.641	323.73
893.019	274.57
893.396	293.3
893.774	368.2
894.152	326.07
894.529	281.6
894.907	342.45
895.284	323.73
895.662	328.41
896.039	344.79
896.416	354.15
896.794	347.13
897.171	356.49
897.548	293.3
897.925	255.85
898.302	321.38
898.679	354.15
899.056	297.98
899.433	323.73
899.809	300.32
900.186	300.32
900.563	274.57
900.939	279.26
901.316	309.68
901.692	316.7
902.069	321.38
902.445	319.04
902.821	307.34
903.197	302.66
903.574	260.53
903.95	305
904.326	269.89
904.702	335.43
905.078	314.36
905.454	312.02
905.829	393.94
906.205	344.79
906.581	335.43
906.956	234.78
907.332	272.23
907.707	321.38
908.083	321.38
908.458	321.38
908.833	227.76
909.209	330.75
909.584	351.81
909.959	337.77
910.334	309.68
910.709	286.28
911.084	286.28
911.459	361.17
911.834	246.49
912.209	400.96
912.583	328.41
912.958	305
913.333	370.54
913.707	272.23
914.082	265.21
914.456	326.07
914.83	337.77
915.205	342.45
915.579	302.66
915.953	337.77
916.327	326.07
916.701	316.7
917.075	286.28
917.449	342.45
917.823	302.66
918.197	335.43
918.571	316.7
918.944	305
919.318	347.13
919.692	319.04
920.065	283.94
920.438	297.98
920.812	337.77
921.185	312.02
921.558	288.62
921.932	295.64
922.305	349.47
922.678	326.07
923.051	323.73
923.424	330.75
923.797	393.94
924.17	323.73
924.542	335.43
924.915	319.04
925.288	337.77
925.661	279.26
926.033	309.68
926.406	260.53
926.778	297.98
927.15	340.11
927.523	237.13
927.895	340.11
928.267	255.85
928.639	321.38
929.011	286.28
929.383	314.36
929.755	323.73
930.127	337.77
930.499	305
930.871	295.64
931.242	276.91
931.614	295.64
931.986	283.94
932.357	323.73
932.729	337.77
933.1	286.28
933.471	365.85
933.843	286.28
934.214	361.17
934.585	330.75
934.956	361.17
935.327	326.07
935.698	319.04
936.069	309.68
936.44	323.73
936.811	286.28
937.182	255.85
937.552	312.02
937.923	377.56
938.293	337.77
938.664	267.55
939.034	333.09
939.405	281.6
939.775	295.64
940.145	274.57
940.516	342.45
940.886	281.6
941.256	283.94
941.626	337.77
941.996	300.32
942.366	342.45
942.735	335.43
943.105	305
943.475	279.26
943.845	316.7
944.214	272.23
944.584	354.15
944.953	337.77
945.323	335.43
945.692	265.21
946.061	321.38
946.43	335.43
946.8	312.02
947.169	265.21
947.538	258.19
947.907	314.36
948.276	274.57
948.645	375.22
949.013	300.32
949.382	342.45
949.751	328.41
950.119	333.09
950.488	358.83
950.857	321.38
951.225	290.96
951.593	297.98
951.962	379.9
952.33	328.41
952.698	333.09
953.066	237.13
953.434	340.11
953.802	319.04
954.17	279.26
954.538	258.19
954.906	342.45
955.274	295.64
955.642	307.34
956.009	349.47
956.377	286.28
956.744	384.58
957.112	309.68
957.479	302.66
957.847	267.55
958.214	337.77
958.581	349.47
958.948	307.34
959.315	347.13
959.683	281.6
960.05	293.3
960.416	379.9
960.783	326.07
961.15	386.92
961.517	297.98
961.884	309.68
962.25	337.77
962.617	330.75
962.983	309.68
963.35	344.79
963.716	344.79
964.082	358.83
964.449	314.36
964.815	349.47
965.181	251.17
965.547	293.3
965.913	290.96
966.279	295.64
966.645	342.45
967.011	307.34
967.377	370.54
967.742	232.44
968.108	309.68
968.474	290.96
968.839	283.94
969.205	314.36
969.57	316.7
969.935	293.3
970.301	269.89
970.666	300.32
971.031	333.09
971.396	340.11
971.761	281.6
972.126	326.07
972.491	251.17
972.856	300.32
973.221	281.6
973.586	349.47
973.95	288.62
974.315	316.7
974.679	265.21
975.044	321.38
975.408	323.73
975.773	326.07
976.137	312.02
976.501	356.49
976.866	300.32
977.23	319.04
977.594	330.75
977.958	351.81
978.322	316.7
978.686	302.66
979.049	302.66
979.413	281.6
979.777	314.36
980.141	269.89
980.504	309.68
980.868	305
981.231	330.75
981.595	272.23
981.958	312.02
982.321	283.94
982.684	295.64
983.048	356.49
983.411	335.43
983.774	300.32
984.137	305
984.5	290.96
984.862	340.11
985.225	335.43
985.588	326.07
985.951	309.68
986.313	349.47
986.676	295.64
987.038	312.02
987.401	330.75
987.763	368.2
988.125	384.58
988.488	351.81
988.85	276.91
989.212	290.96
989.574	305
989.936	330.75
990.298	295.64
990.66	365.85
991.022	269.89
991.383	253.51
991.745	281.6
992.107	244.15
992.468	283.94
992.83	288.62
993.191	316.7
993.553	321.38
993.914	382.24
994.275	290.96
994.637	307.34
994.998	260.53
995.359	305
995.72	349.47
996.081	307.34
996.442	312.02
996.803	274.57
997.163	361.17
997.524	361.17
997.885	368.2
998.245	309.68
998.606	319.04
998.966	300.32
999.327	309.68
999.687	314.36
1000.047	340.11
1000.408	316.7
1000.768	349.47
1001.128	246.49
1001.488	342.45
1001.848	305
1002.208	358.83
1002.568	319.04
1002.927	305
1003.287	337.77
1003.647	347.13
1004.007	220.74
1004.366	246.49
1004.726	276.91
1005.085	297.98
1005.444	283.94
1005.804	305
1006.163	356.49
1006.522	328.41
1006.881	326.07
1007.24	398.62
1007.599	337.77
1007.958	326.07
1008.317	377.56
1008.676	283.94
1009.035	351.81
1009.393	288.62
1009.752	302.66
1010.111	295.64
1010.469	347.13
1010.828	295.64
1011.186	316.7
1011.544	305
1011.903	286.28
1012.261	316.7
1012.619	319.04
1012.977	279.26
1013.335	276.91
1013.693	398.62
1014.051	302.66
1014.409	297.98
1014.767	316.7
1015.124	319.04
1015.482	323.73
1015.84	314.36
1016.197	302.66
1016.555	297.98
1016.912	316.7
1017.269	309.68
1017.627	351.81
1017.984	351.81
1018.341	358.83
1018.698	293.3
1019.055	354.15
1019.412	319.04
1019.769	305
1020.126	323.73
1020.483	319.04
1020.84	363.51
1021.196	335.43
1021.553	281.6
1021.909	281.6
1022.266	251.17
1022.622	316.7
1022.979	354.15
1023.335	419.69
1023.691	326.07
1024.047	316.7
1024.404	297.98
1024.76	363.51
1025.116	297.98
1025.472	316.7
1025.827	335.43
1026.183	307.34
1026.539	330.75
1026.895	335.43
1027.25	288.62
1027.606	349.47
1027.961	326.07
1028.317	305
1028.672	251.17
1029.028	326.07
1029.383	314.36
1029.738	312.02
1030.093	333.09
1030.448	330.75
1030.803	321.38
1031.158	276.91
1031.513	314.36
1031.868	323.73
1032.223	295.64
1032.577	342.45
1032.932	276.91
1033.287	305
1033.641	314.36
1033.996	314.36
1034.35	337.77
1034.704	248.83
1035.059	258.19
1035.413	248.83
1035.767	248.83
1036.121	248.83
