Data from Al_FLMS009871__699__15-07-14-637.txt Node

Date: Fri Mar 08 15:07:14 CST 2024
User: pe5414po
Spectrometer: FLMS00987
Trigger mode: 0
Integration Time (sec): 1.000000E-1
Scans to average: 1
Electric dark correction enabled: true
Nonlinearity correction enabled: false
Boxcar width: 0
XAxis mode: Wavelengths
Number of Pixels in Spectrum: 2048
>>>>>Begin Spectral Data<<<<<
188.938	-62.46
189.409	-62.46
189.879	-62.46
190.349	-146.72
190.819	-41.4
191.29	-62.46
191.76	-85.87
192.23	-71.83
192.7	-34.38
193.17	-71.83
193.64	-39.06
194.109	-88.21
194.579	21.8
195.049	-10.97
195.519	45.2
195.988	0.73
196.458	82.65
196.927	63.93
197.397	89.67
197.866	47.54
198.336	113.08
198.805	183.29
199.274	145.84
199.744	204.36
200.213	220.74
200.682	253.51
201.151	232.44
201.62	269.89
202.089	286.28
202.558	279.26
203.027	244.15
203.495	230.1
203.964	267.55
204.433	307.34
204.902	281.6
205.37	328.41
205.839	302.66
206.307	274.57
206.776	328.41
207.244	365.85
207.712	305
208.181	307.34
208.649	326.07
209.117	319.04
209.585	286.28
210.053	344.79
210.521	281.6
210.989	333.09
211.457	272.23
211.925	274.57
212.393	286.28
212.861	262.87
213.328	269.89
213.796	319.04
214.264	274.57
214.731	251.17
215.199	342.45
215.666	305
216.133	333.09
216.601	246.49
217.068	253.51
217.535	218.4
218.003	232.44
218.47	241.81
218.937	241.81
219.404	305
219.871	302.66
220.338	225.42
220.805	281.6
221.271	281.6
221.738	260.53
222.205	237.13
222.671	253.51
223.138	300.32
223.605	276.91
224.071	361.17
224.538	255.85
225.004	225.42
225.47	323.73
225.937	288.62
226.403	302.66
226.869	260.53
227.335	248.83
227.801	260.53
228.267	323.73
228.733	326.07
229.199	230.1
229.665	321.38
230.131	276.91
230.597	213.72
231.062	248.83
231.528	274.57
231.994	316.7
232.459	283.94
232.925	281.6
233.39	288.62
233.856	213.72
234.321	314.36
234.786	283.94
235.252	305
235.717	225.42
236.182	267.55
236.647	246.49
237.112	312.02
237.577	293.3
238.042	286.28
238.507	302.66
238.972	246.49
239.436	255.85
239.901	297.98
240.366	283.94
240.83	283.94
241.295	269.89
241.76	307.34
242.224	262.87
242.688	269.89
243.153	218.4
243.617	216.06
244.081	248.83
244.545	276.91
245.01	314.36
245.474	302.66
245.938	286.28
246.402	260.53
246.866	232.44
247.33	283.94
247.793	288.62
248.257	279.26
248.721	309.68
249.185	356.49
249.648	260.53
250.112	267.55
250.575	272.23
251.039	290.96
251.502	309.68
251.965	258.19
252.429	340.11
252.892	272.23
253.355	286.28
253.818	272.23
254.281	265.21
254.744	307.34
255.207	305
255.67	288.62
256.133	272.23
256.596	265.21
257.059	314.36
257.522	326.07
257.984	272.23
258.447	300.32
258.909	321.38
259.372	232.44
259.834	300.32
260.297	351.81
260.759	328.41
261.221	326.07
261.684	276.91
262.146	305
262.608	293.3
263.07	281.6
263.532	281.6
263.994	293.3
264.456	312.02
264.918	340.11
265.38	361.17
265.842	305
266.303	307.34
266.765	269.89
267.227	321.38
267.688	269.89
268.15	283.94
268.611	267.55
269.072	323.73
269.534	316.7
269.995	290.96
270.456	288.62
270.918	297.98
271.379	297.98
271.84	272.23
272.301	248.83
272.762	286.28
273.223	305
273.684	267.55
274.144	225.42
274.605	255.85
275.066	246.49
275.527	288.62
275.987	316.7
276.448	267.55
276.908	312.02
277.369	232.44
277.829	281.6
278.289	286.28
278.75	326.07
279.21	340.11
279.67	323.73
280.13	333.09
280.59	312.02
281.05	281.6
281.51	251.17
281.97	363.51
282.43	321.38
282.89	349.47
283.35	333.09
283.809	347.13
284.269	286.28
284.729	326.07
285.188	326.07
285.648	344.79
286.107	305
286.567	288.62
287.026	286.28
287.485	281.6
287.944	276.91
288.404	260.53
288.863	328.41
289.322	377.56
289.781	290.96
290.24	283.94
290.699	309.68
291.158	323.73
291.616	246.49
292.075	305
292.534	321.38
292.992	305
293.451	302.66
293.91	274.57
294.368	354.15
294.827	302.66
295.285	307.34
295.743	330.75
296.202	312.02
296.66	281.6
297.118	302.66
297.576	333.09
298.034	274.57
298.492	368.2
298.95	272.23
299.408	297.98
299.866	354.15
300.324	340.11
300.781	302.66
301.239	333.09
301.697	290.96
302.154	295.64
302.612	269.89
303.069	326.07
303.527	260.53
303.984	328.41
304.441	368.2
304.899	384.58
305.356	361.17
305.813	333.09
306.27	328.41
306.727	279.26
307.184	290.96
307.641	344.79
308.098	321.38
308.555	309.68
309.012	305
309.468	370.54
309.925	426.71
310.382	349.47
310.838	323.73
311.295	340.11
311.751	293.3
312.208	307.34
312.664	312.02
313.12	363.51
313.577	302.66
314.033	297.98
314.489	342.45
314.945	344.79
315.401	286.28
315.857	363.51
316.313	290.96
316.769	321.38
317.225	333.09
317.681	400.96
318.136	276.91
318.592	300.32
319.048	312.02
319.503	354.15
319.959	295.64
320.414	326.07
320.869	281.6
321.325	288.62
321.78	300.32
322.235	312.02
322.691	347.13
323.146	295.64
323.601	323.73
324.056	323.73
324.511	330.75
324.966	342.45
325.421	312.02
325.875	312.02
326.33	354.15
326.785	326.07
327.24	274.57
327.694	354.15
328.149	354.15
328.603	286.28
329.058	370.54
329.512	321.38
329.966	342.45
330.421	323.73
330.875	344.79
331.329	340.11
331.783	316.7
332.237	283.94
332.691	297.98
333.145	333.09
333.599	260.53
334.053	323.73
334.507	344.79
334.96	290.96
335.414	326.07
335.868	356.49
336.321	330.75
336.775	314.36
337.228	300.32
337.682	347.13
338.135	272.23
338.588	326.07
339.042	358.83
339.495	295.64
339.948	337.77
340.401	337.77
340.854	342.45
341.307	297.98
341.76	340.11
342.213	286.28
342.666	305
343.119	340.11
343.571	333.09
344.024	321.38
344.477	274.57
344.929	307.34
345.382	340.11
345.834	354.15
346.287	302.66
346.739	321.38
347.191	300.32
347.644	349.47
348.096	305
348.548	391.6
349	293.3
349.452	389.26
349.904	326.07
350.356	265.21
350.808	319.04
351.26	335.43
351.711	274.57
352.163	319.04
352.615	377.56
353.066	347.13
353.518	319.04
353.969	316.7
354.421	356.49
354.872	283.94
355.324	356.49
355.775	295.64
356.226	314.36
356.677	309.68
357.128	326.07
357.579	319.04
358.03	363.51
358.481	400.96
358.932	337.77
359.383	356.49
359.834	262.87
360.285	337.77
360.735	333.09
361.186	225.42
361.637	290.96
362.087	309.68
362.538	323.73
362.988	321.38
363.438	272.23
363.889	314.36
364.339	319.04
364.789	293.3
365.239	307.34
365.689	295.64
366.139	307.34
366.589	337.77
367.039	330.75
367.489	305
367.939	288.62
368.389	365.85
368.839	290.96
369.288	372.88
369.738	344.79
370.187	309.68
370.637	361.17
371.086	309.68
371.536	319.04
371.985	276.91
372.434	342.45
372.884	302.66
373.333	319.04
373.782	309.68
374.231	368.2
374.68	312.02
375.129	302.66
375.578	295.64
376.027	342.45
376.475	297.98
376.924	307.34
377.373	293.3
377.822	354.15
378.27	312.02
378.719	314.36
379.167	384.58
379.616	288.62
380.064	347.13
380.512	349.47
380.961	344.79
381.409	328.41
381.857	309.68
382.305	389.26
382.753	321.38
383.201	361.17
383.649	295.64
384.097	337.77
384.545	274.57
384.992	386.92
385.44	326.07
385.888	232.44
386.335	314.36
386.783	321.38
387.231	316.7
387.678	290.96
388.125	342.45
388.573	335.43
389.02	372.88
389.467	370.54
389.914	333.09
390.362	340.11
390.809	300.32
391.256	281.6
391.703	349.47
392.15	283.94
392.596	302.66
393.043	276.91
393.49	356.49
393.937	302.66
394.383	316.7
394.83	335.43
395.276	307.34
395.723	342.45
396.169	316.7
396.616	286.28
397.062	337.77
397.508	323.73
397.954	316.7
398.401	384.58
398.847	335.43
399.293	337.77
399.739	349.47
400.185	333.09
400.631	267.55
401.076	286.28
401.522	272.23
401.968	358.83
402.414	368.2
402.859	316.7
403.305	312.02
403.75	356.49
404.196	340.11
404.641	363.51
405.086	342.45
405.532	312.02
405.977	365.85
406.422	321.38
406.867	333.09
407.312	368.2
407.757	330.75
408.202	365.85
408.647	340.11
409.092	279.26
409.537	340.11
409.982	283.94
410.426	342.45
410.871	326.07
411.316	351.81
411.76	279.26
412.205	307.34
412.649	363.51
413.093	309.68
413.538	274.57
413.982	389.26
414.426	351.81
414.87	314.36
415.314	347.13
415.758	297.98
416.202	288.62
416.646	354.15
417.09	330.75
417.534	356.49
417.978	258.19
418.421	309.68
418.865	267.55
419.309	274.57
419.752	290.96
420.196	349.47
420.639	276.91
421.083	344.79
421.526	190.31
421.969	328.41
422.412	293.3
422.856	335.43
423.299	314.36
423.742	377.56
424.185	361.17
424.628	326.07
425.071	379.9
425.513	293.3
425.956	330.75
426.399	269.89
426.842	295.64
427.284	382.24
427.727	302.66
428.169	312.02
428.612	305
429.054	297.98
429.497	337.77
429.939	307.34
430.381	307.34
430.823	335.43
431.265	309.68
431.707	389.26
432.149	361.17
432.591	295.64
433.033	333.09
433.475	337.77
433.917	321.38
434.359	358.83
434.8	363.51
435.242	354.15
435.684	314.36
436.125	330.75
436.567	326.07
437.008	333.09
437.449	333.09
437.891	372.88
438.332	340.11
438.773	379.9
439.214	358.83
439.656	358.83
440.097	347.13
440.538	335.43
440.978	344.79
441.419	265.21
441.86	293.3
442.301	351.81
442.742	347.13
443.182	342.45
443.623	344.79
444.063	288.62
444.504	335.43
444.944	361.17
445.385	307.34
445.825	239.47
446.265	272.23
446.706	365.85
447.146	279.26
447.586	365.85
448.026	335.43
448.466	290.96
448.906	314.36
449.346	356.49
449.786	361.17
450.225	314.36
450.665	361.17
451.105	283.94
451.544	305
451.984	302.66
452.424	358.83
452.863	354.15
453.302	293.3
453.742	326.07
454.181	312.02
454.62	321.38
455.059	431.39
455.499	321.38
455.938	295.64
456.377	382.24
456.816	358.83
457.254	337.77
457.693	316.7
458.132	326.07
458.571	305
459.01	372.88
459.448	314.36
459.887	309.68
460.325	314.36
460.764	363.51
461.202	319.04
461.641	391.6
462.079	290.96
462.517	358.83
462.955	300.32
463.393	342.45
463.832	305
464.27	328.41
464.708	269.89
465.145	403.3
465.583	344.79
466.021	335.43
466.459	309.68
466.897	342.45
467.334	290.96
467.772	314.36
468.209	351.81
468.647	319.04
469.084	312.02
469.522	323.73
469.959	358.83
470.396	340.11
470.833	300.32
471.271	321.38
471.708	335.43
472.145	349.47
472.582	391.6
473.019	323.73
473.456	288.62
473.892	290.96
474.329	349.47
474.766	276.91
475.202	326.07
475.639	281.6
476.076	319.04
476.512	321.38
476.949	279.26
477.385	295.64
477.821	262.87
478.258	262.87
478.694	326.07
479.13	290.96
479.566	302.66
480.002	328.41
480.438	398.62
480.874	356.49
481.31	333.09
481.746	274.57
482.181	323.73
482.617	340.11
483.053	379.9
483.488	316.7
483.924	307.34
484.36	330.75
484.795	335.43
485.23	321.38
485.666	248.83
486.101	370.54
486.536	288.62
486.971	361.17
487.407	255.85
487.842	316.7
488.277	283.94
488.712	309.68
489.146	302.66
489.581	335.43
490.016	351.81
490.451	321.38
490.885	370.54
491.32	288.62
491.755	286.28
492.189	326.07
492.624	232.44
493.058	330.75
493.492	314.36
493.927	372.88
494.361	300.32
494.795	333.09
495.229	316.7
495.663	330.75
496.097	314.36
496.531	290.96
496.965	344.79
497.399	347.13
497.833	279.26
498.266	340.11
498.7	342.45
499.134	305
499.567	276.91
500.001	347.13
500.434	330.75
500.868	433.73
501.301	307.34
501.734	302.66
502.168	337.77
502.601	297.98
503.034	377.56
503.467	262.87
503.9	321.38
504.333	300.32
504.766	347.13
505.199	330.75
505.632	309.68
506.064	335.43
506.497	379.9
506.93	323.73
507.362	372.88
507.795	258.19
508.227	323.73
508.66	368.2
509.092	344.79
509.524	295.64
509.956	297.98
510.389	326.07
510.821	372.88
511.253	319.04
511.685	302.66
512.117	393.94
512.549	403.3
512.981	337.77
513.412	314.36
513.844	330.75
514.276	347.13
514.707	300.32
515.139	290.96
515.571	354.15
516.002	326.07
516.433	323.73
516.865	281.6
517.296	365.85
517.727	337.77
518.159	323.73
518.59	386.92
519.021	356.49
519.452	276.91
519.883	262.87
520.314	321.38
520.744	297.98
521.175	305
521.606	335.43
522.037	365.85
522.467	321.38
522.898	305
523.328	312.02
523.759	337.77
524.189	286.28
524.62	340.11
525.05	354.15
525.48	307.34
525.91	333.09
526.341	354.15
526.771	391.6
527.201	342.45
527.631	379.9
528.061	283.94
528.49	337.77
528.92	365.85
529.35	349.47
529.78	396.28
530.209	312.02
530.639	267.55
531.068	286.28
531.498	316.7
531.927	316.7
532.357	340.11
532.786	330.75
533.215	349.47
533.644	328.41
534.074	309.68
534.503	260.53
534.932	274.57
535.361	316.7
535.79	290.96
536.218	328.41
536.647	290.96
537.076	265.21
537.505	286.28
537.933	276.91
538.362	333.09
538.79	328.41
539.219	302.66
539.647	340.11
540.076	335.43
540.504	391.6
540.932	389.26
541.36	293.3
541.788	316.7
542.217	342.45
542.645	323.73
543.073	321.38
543.5	340.11
543.928	361.17
544.356	340.11
544.784	307.34
545.211	297.98
545.639	349.47
546.067	363.51
546.494	349.47
546.922	305
547.349	323.73
547.776	344.79
548.204	286.28
548.631	316.7
549.058	316.7
549.485	307.34
549.912	276.91
550.339	316.7
550.766	342.45
551.193	281.6
551.62	309.68
552.047	288.62
552.474	295.64
552.9	335.43
553.327	365.85
553.754	403.3
554.18	323.73
554.607	321.38
555.033	375.22
555.459	281.6
555.886	351.81
556.312	279.26
556.738	283.94
557.164	314.36
557.59	347.13
558.016	358.83
558.442	328.41
558.868	274.57
559.294	368.2
559.72	319.04
560.145	340.11
560.571	333.09
560.997	316.7
561.422	302.66
561.848	323.73
562.273	344.79
562.699	279.26
563.124	333.09
563.549	312.02
563.974	293.3
564.4	356.49
564.825	389.26
565.25	354.15
565.675	307.34
566.1	340.11
566.525	356.49
566.95	297.98
567.374	272.23
567.799	333.09
568.224	265.21
568.648	309.68
569.073	272.23
569.497	319.04
569.922	354.15
570.346	288.62
570.771	347.13
571.195	300.32
571.619	300.32
572.043	295.64
572.467	300.32
572.891	323.73
573.315	333.09
573.739	295.64
574.163	288.62
574.587	267.55
575.011	335.43
575.435	307.34
575.858	316.7
576.282	309.68
576.705	349.47
577.129	258.19
577.552	361.17
577.976	281.6
578.399	323.73
578.822	330.75
579.245	344.79
579.669	307.34
580.092	281.6
580.515	326.07
580.938	307.34
581.361	295.64
581.784	309.68
582.206	267.55
582.629	290.96
583.052	351.81
583.474	349.47
583.897	309.68
584.32	283.94
584.742	384.58
585.165	312.02
585.587	316.7
586.009	361.17
586.431	274.57
586.854	286.28
587.276	330.75
587.698	309.68
588.12	363.51
588.542	363.51
588.964	349.47
589.386	255.85
589.807	347.13
590.229	309.68
590.651	323.73
591.073	335.43
591.494	312.02
591.916	333.09
592.337	342.45
592.759	307.34
593.18	347.13
593.601	297.98
594.022	340.11
594.444	312.02
594.865	276.91
595.286	276.91
595.707	337.77
596.128	358.83
596.549	279.26
596.97	321.38
597.39	312.02
597.811	314.36
598.232	368.2
598.652	333.09
599.073	326.07
599.494	340.11
599.914	307.34
600.334	363.51
600.755	340.11
601.175	337.77
601.595	265.21
602.015	295.64
602.436	342.45
602.856	396.28
603.276	305
603.696	283.94
604.115	340.11
604.535	382.24
604.955	358.83
605.375	344.79
605.794	358.83
606.214	396.28
606.634	309.68
607.053	274.57
607.473	365.85
607.892	326.07
608.311	293.3
608.731	356.49
609.15	349.47
609.569	337.77
609.988	290.96
610.407	316.7
610.826	295.64
611.245	288.62
611.664	333.09
612.083	319.04
612.501	319.04
612.92	326.07
613.339	365.85
613.757	283.94
614.176	309.68
614.594	286.28
615.013	314.36
615.431	356.49
615.85	391.6
616.268	403.3
616.686	340.11
617.104	288.62
617.522	356.49
617.94	309.68
618.358	323.73
618.776	386.92
619.194	309.68
619.612	305
620.03	286.28
620.447	335.43
620.865	312.02
621.282	351.81
621.7	391.6
622.117	377.56
622.535	281.6
622.952	312.02
623.369	326.07
623.787	314.36
624.204	241.81
624.621	309.68
625.038	340.11
625.455	361.17
625.872	321.38
626.289	347.13
626.706	328.41
627.123	368.2
627.539	368.2
627.956	386.92
628.373	300.32
628.789	347.13
629.206	344.79
629.622	326.07
630.038	326.07
630.455	309.68
630.871	290.96
631.287	328.41
631.703	323.73
632.12	286.28
632.536	314.36
632.952	389.26
633.368	333.09
633.783	269.89
634.199	307.34
634.615	349.47
635.031	312.02
635.446	312.02
635.862	323.73
636.277	319.04
636.693	321.38
637.108	312.02
637.524	349.47
637.939	330.75
638.354	323.73
638.77	316.7
639.185	297.98
639.6	326.07
640.015	288.62
640.43	354.15
640.845	351.81
641.259	323.73
641.674	323.73
642.089	290.96
642.504	262.87
642.918	293.3
643.333	302.66
643.747	316.7
644.162	342.45
644.576	295.64
644.991	335.43
645.405	377.56
645.819	300.32
646.233	297.98
646.647	358.83
647.061	309.68
647.475	335.43
647.889	323.73
648.303	370.54
648.717	321.38
649.131	375.22
649.545	309.68
649.958	274.57
650.372	340.11
650.785	293.3
651.199	323.73
651.612	323.73
652.026	382.24
652.439	349.47
652.852	354.15
653.266	363.51
653.679	297.98
654.092	290.96
654.505	354.15
654.918	267.55
655.331	347.13
655.744	300.32
656.156	290.96
656.569	375.22
656.982	241.81
657.394	333.09
657.807	351.81
658.22	314.36
658.632	379.9
659.044	290.96
659.457	312.02
659.869	386.92
660.281	241.81
660.693	363.51
661.106	295.64
661.518	269.89
661.93	358.83
662.342	319.04
662.754	333.09
663.165	307.34
663.577	281.6
663.989	312.02
664.401	356.49
664.812	344.79
665.224	314.36
665.635	290.96
666.047	297.98
666.458	333.09
666.869	361.17
667.281	358.83
667.692	431.39
668.103	351.81
668.514	307.34
668.925	316.7
669.336	354.15
669.747	342.45
670.158	335.43
670.569	422.03
670.979	361.17
671.39	333.09
671.801	321.38
672.211	333.09
672.622	337.77
673.032	326.07
673.443	316.7
673.853	288.62
674.263	335.43
674.674	365.85
675.084	356.49
675.494	262.87
675.904	305
676.314	342.45
676.724	361.17
677.134	319.04
677.544	267.55
677.953	391.6
678.363	330.75
678.773	321.38
679.182	384.58
679.592	335.43
680.001	365.85
680.411	321.38
680.82	368.2
681.23	347.13
681.639	323.73
682.048	295.64
682.457	293.3
682.866	354.15
683.275	319.04
683.684	316.7
684.093	251.17
684.502	410.33
684.911	370.54
685.32	305
685.728	286.28
686.137	333.09
686.546	365.85
686.954	377.56
687.363	312.02
687.771	326.07
688.179	326.07
688.588	379.9
688.996	312.02
689.404	358.83
689.812	305
690.22	319.04
690.628	335.43
691.036	307.34
691.444	330.75
691.852	312.02
692.26	295.64
692.667	342.45
693.075	328.41
693.483	279.26
693.89	349.47
694.298	321.38
694.705	349.47
695.112	319.04
695.52	342.45
695.927	344.79
696.334	326.07
696.741	297.98
697.148	379.9
697.555	382.24
697.962	314.36
698.369	333.09
698.776	347.13
699.183	340.11
699.59	370.54
699.996	265.21
700.403	302.66
700.81	370.54
701.216	330.75
701.623	335.43
702.029	340.11
702.435	330.75
702.842	269.89
703.248	321.38
703.654	286.28
704.06	330.75
704.466	363.51
704.872	323.73
705.278	344.79
705.684	321.38
706.09	246.49
706.496	262.87
706.901	358.83
707.307	319.04
707.712	297.98
708.118	316.7
708.523	365.85
708.929	321.38
709.334	393.94
709.74	244.15
710.145	290.96
710.55	314.36
710.955	326.07
711.36	328.41
711.765	328.41
712.17	300.32
712.575	307.34
712.98	894.82
713.385	342.45
713.789	300.32
714.194	342.45
714.599	286.28
715.003	316.7
715.408	307.34
715.812	384.58
716.217	321.38
716.621	307.34
717.025	342.45
717.429	375.22
717.833	342.45
718.238	251.17
718.642	262.87
719.046	368.2
719.449	398.62
719.853	363.51
720.257	347.13
720.661	314.36
721.065	363.51
721.468	372.88
721.872	323.73
722.275	351.81
722.679	316.7
723.082	375.22
723.485	356.49
723.889	372.88
724.292	330.75
724.695	295.64
725.098	342.45
725.501	365.85
725.904	305
726.307	405.64
726.71	302.66
727.113	283.94
727.516	253.51
727.918	335.43
728.321	330.75
728.724	307.34
729.126	312.02
729.529	328.41
729.931	328.41
730.333	335.43
730.736	347.13
731.138	330.75
731.54	309.68
731.942	342.45
732.344	361.17
732.746	300.32
733.148	293.3
733.55	258.19
733.952	358.83
734.354	312.02
734.756	328.41
735.157	316.7
735.559	302.66
735.96	410.33
736.362	283.94
736.763	351.81
737.165	328.41
737.566	363.51
737.967	295.64
738.368	396.28
738.77	307.34
739.171	342.45
739.572	319.04
739.973	368.2
740.374	344.79
740.774	314.36
741.175	269.89
741.576	300.32
741.977	307.34
742.377	356.49
742.778	340.11
743.178	272.23
743.579	323.73
743.979	389.26
744.379	328.41
744.78	326.07
745.18	305
745.58	335.43
745.98	316.7
746.38	295.64
746.78	290.96
747.18	209.04
747.58	262.87
747.98	300.32
748.38	265.21
748.779	379.9
749.179	330.75
749.578	361.17
749.978	276.91
750.377	326.07
750.777	302.66
751.176	382.24
751.575	312.02
751.975	297.98
752.374	295.64
752.773	288.62
753.172	356.49
753.571	368.2
753.97	309.68
754.369	372.88
754.768	253.51
755.166	384.58
755.565	326.07
755.964	276.91
756.362	342.45
756.761	272.23
757.159	281.6
757.558	286.28
757.956	330.75
758.354	307.34
758.753	337.77
759.151	314.36
759.549	297.98
759.947	321.38
760.345	323.73
760.743	370.54
761.141	321.38
761.539	370.54
761.936	354.15
762.334	269.89
762.732	269.89
763.129	307.34
763.527	321.38
763.924	365.85
764.322	375.22
764.719	295.64
765.117	276.91
765.514	372.88
765.911	351.81
766.308	290.96
766.705	312.02
767.102	297.98
767.499	276.91
767.896	400.96
768.293	300.32
768.69	349.47
769.086	328.41
769.483	255.85
769.88	319.04
770.276	328.41
770.673	386.92
771.069	314.36
771.466	293.3
771.862	328.41
772.258	361.17
772.654	354.15
773.05	326.07
773.447	279.26
773.843	333.09
774.239	326.07
774.634	300.32
775.03	426.71
775.426	323.73
775.822	302.66
776.218	314.36
776.613	305
777.009	307.34
777.404	232.44
777.8	354.15
778.195	358.83
778.59	302.66
778.986	290.96
779.381	365.85
779.776	351.81
780.171	283.94
780.566	358.83
780.961	319.04
781.356	370.54
781.751	326.07
782.146	358.83
782.54	349.47
782.935	281.6
783.33	363.51
783.724	290.96
784.119	255.85
784.513	293.3
784.908	347.13
785.302	347.13
785.696	295.64
786.09	274.57
786.485	358.83
786.879	351.81
787.273	342.45
787.667	288.62
788.061	405.64
788.454	307.34
788.848	302.66
789.242	377.56
789.636	295.64
790.029	269.89
790.423	295.64
790.816	302.66
791.21	363.51
791.603	260.53
791.997	276.91
792.39	312.02
792.783	312.02
793.176	379.9
793.569	319.04
793.962	340.11
794.355	363.51
794.748	349.47
795.141	396.28
795.534	384.58
795.927	344.79
796.319	389.26
796.712	297.98
797.105	312.02
797.497	305
797.89	309.68
798.282	368.2
798.674	286.28
799.067	297.98
799.459	260.53
799.851	337.77
800.243	302.66
800.635	316.7
801.027	305
801.419	379.9
801.811	319.04
802.203	312.02
802.594	347.13
802.986	321.38
803.378	330.75
803.769	272.23
804.161	354.15
804.552	286.28
804.944	279.26
805.335	344.79
805.726	323.73
806.118	309.68
806.509	326.07
806.9	375.22
807.291	328.41
807.682	316.7
808.073	305
808.464	286.28
808.855	333.09
809.245	319.04
809.636	342.45
810.027	288.62
810.417	288.62
810.808	288.62
811.198	305
811.589	330.75
811.979	328.41
812.369	290.96
812.759	323.73
813.15	260.53
813.54	335.43
813.93	375.22
814.32	319.04
814.71	288.62
815.1	375.22
815.489	342.45
815.879	319.04
816.269	375.22
816.658	379.9
817.048	379.9
817.438	340.11
817.827	398.62
818.216	319.04
818.606	340.11
818.995	307.34
819.384	312.02
819.773	358.83
820.163	295.64
820.552	335.43
820.941	258.19
821.33	363.51
821.718	297.98
822.107	297.98
822.496	361.17
822.885	297.98
823.273	356.49
823.662	290.96
824.05	398.62
824.439	363.51
824.827	300.32
825.216	319.04
825.604	333.09
825.992	302.66
826.38	262.87
826.768	276.91
827.156	356.49
827.544	368.2
827.932	321.38
828.32	262.87
828.708	227.76
829.096	342.45
829.483	316.7
829.871	349.47
830.259	272.23
830.646	312.02
831.034	386.92
831.421	319.04
831.808	251.17
832.196	314.36
832.583	302.66
832.97	307.34
833.357	290.96
833.744	342.45
834.131	274.57
834.518	349.47
834.905	309.68
835.292	347.13
835.678	321.38
836.065	330.75
836.452	288.62
836.838	262.87
837.225	356.49
837.611	372.88
837.998	316.7
838.384	309.68
838.77	342.45
839.157	314.36
839.543	300.32
839.929	290.96
840.315	361.17
840.701	335.43
841.087	302.66
841.473	309.68
841.858	305
842.244	344.79
842.63	305
843.015	330.75
843.401	595.23
843.787	274.57
844.172	319.04
844.557	283.94
844.943	316.7
845.328	293.3
845.713	312.02
846.098	328.41
846.483	279.26
846.868	272.23
847.253	358.83
847.638	302.66
848.023	272.23
848.408	370.54
848.793	309.68
849.177	326.07
849.562	312.02
849.947	407.98
850.331	246.49
850.715	323.73
851.1	323.73
851.484	297.98
851.868	312.02
852.253	307.34
852.637	312.02
853.021	316.7
853.405	351.81
853.789	293.3
854.173	328.41
854.557	288.62
854.94	333.09
855.324	321.38
855.708	302.66
856.091	276.91
856.475	319.04
856.858	316.7
857.242	340.11
857.625	316.7
858.009	344.79
858.392	333.09
858.775	314.36
859.158	372.88
859.541	290.96
859.924	305
860.307	307.34
860.69	321.38
861.073	305
861.456	314.36
861.838	386.92
862.221	290.96
862.604	335.43
862.986	283.94
863.369	354.15
863.751	377.56
864.133	333.09
864.516	328.41
864.898	227.76
865.28	258.19
865.662	307.34
866.044	335.43
866.426	309.68
866.808	344.79
867.19	302.66
867.572	384.58
867.954	305
868.336	290.96
868.717	281.6
869.099	340.11
869.48	365.85
869.862	405.64
870.243	337.77
870.625	323.73
871.006	330.75
871.387	290.96
871.768	326.07
872.149	351.81
872.53	372.88
872.911	344.79
873.292	319.04
873.673	290.96
874.054	269.89
874.435	361.17
874.815	314.36
875.196	272.23
875.577	323.73
875.957	290.96
876.338	330.75
876.718	358.83
877.098	300.32
877.479	354.15
877.859	328.41
878.239	283.94
878.619	293.3
878.999	323.73
879.379	300.32
879.759	328.41
880.139	358.83
880.519	297.98
880.898	363.51
881.278	347.13
881.658	333.09
882.037	297.98
882.417	216.06
882.796	258.19
883.176	286.28
883.555	307.34
883.934	290.96
884.313	361.17
884.693	358.83
885.072	288.62
885.451	356.49
885.83	370.54
886.209	340.11
886.587	293.3
886.966	314.36
887.345	370.54
887.724	321.38
888.102	312.02
888.481	354.15
888.859	335.43
889.238	326.07
889.616	321.38
889.994	349.47
890.373	234.78
890.751	290.96
891.129	309.68
891.507	283.94
891.885	316.7
892.263	389.26
892.641	328.41
893.019	305
893.396	344.79
893.774	323.73
894.152	307.34
894.529	295.64
894.907	349.47
895.284	290.96
895.662	288.62
896.039	290.96
896.416	279.26
896.794	330.75
897.171	342.45
897.548	314.36
897.925	333.09
898.302	333.09
898.679	344.79
899.056	368.2
899.433	321.38
899.809	265.21
900.186	297.98
900.563	342.45
900.939	358.83
901.316	377.56
901.692	358.83
902.069	333.09
902.445	386.92
902.821	358.83
903.197	307.34
903.574	344.79
903.95	358.83
904.326	340.11
904.702	269.89
905.078	342.45
905.454	276.91
905.829	302.66
906.205	260.53
906.581	290.96
906.956	330.75
907.332	288.62
907.707	326.07
908.083	323.73
908.458	370.54
908.833	307.34
909.209	290.96
909.584	305
909.959	279.26
910.334	316.7
910.709	309.68
911.084	290.96
911.459	312.02
911.834	305
912.209	281.6
912.583	286.28
912.958	272.23
913.333	344.79
913.707	251.17
914.082	323.73
914.456	321.38
914.83	305
915.205	281.6
915.579	319.04
915.953	288.62
916.327	344.79
916.701	237.13
917.075	300.32
917.449	305
917.823	309.68
918.197	347.13
918.571	260.53
918.944	286.28
919.318	344.79
919.692	267.55
920.065	286.28
920.438	290.96
920.812	288.62
921.185	323.73
921.558	307.34
921.932	340.11
922.305	323.73
922.678	305
923.051	349.47
923.424	267.55
923.797	330.75
924.17	349.47
924.542	335.43
924.915	330.75
925.288	307.34
925.661	330.75
926.033	330.75
926.406	309.68
926.778	283.94
927.15	323.73
927.523	307.34
927.895	265.21
928.267	337.77
928.639	297.98
929.011	274.57
929.383	272.23
929.755	260.53
930.127	342.45
930.499	337.77
930.871	312.02
931.242	319.04
931.614	300.32
931.986	344.79
932.357	262.87
932.729	386.92
933.1	290.96
933.471	305
933.843	314.36
934.214	290.96
934.585	316.7
934.956	365.85
935.327	307.34
935.698	326.07
936.069	290.96
936.44	323.73
936.811	300.32
937.182	300.32
937.552	337.77
937.923	300.32
938.293	335.43
938.664	337.77
939.034	323.73
939.405	314.36
939.775	319.04
940.145	276.91
940.516	337.77
940.886	330.75
941.256	335.43
941.626	295.64
941.996	279.26
942.366	309.68
942.735	321.38
943.105	333.09
943.475	307.34
943.845	356.49
944.214	356.49
944.584	283.94
944.953	316.7
945.323	309.68
945.692	323.73
946.061	384.58
946.43	316.7
946.8	272.23
947.169	258.19
947.538	330.75
947.907	328.41
948.276	309.68
948.645	295.64
949.013	237.13
949.382	312.02
949.751	286.28
950.119	351.81
950.488	241.81
950.857	241.81
951.225	312.02
951.593	288.62
951.962	349.47
952.33	351.81
952.698	323.73
953.066	307.34
953.434	262.87
953.802	279.26
954.17	335.43
954.538	335.43
954.906	351.81
955.274	248.83
955.642	333.09
956.009	319.04
956.377	286.28
956.744	260.53
957.112	274.57
957.479	302.66
957.847	337.77
958.214	307.34
958.581	351.81
958.948	386.92
959.315	288.62
959.683	300.32
960.05	361.17
960.416	335.43
960.783	330.75
961.15	258.19
961.517	323.73
961.884	358.83
962.25	309.68
962.617	335.43
962.983	330.75
963.35	321.38
963.716	274.57
964.082	305
964.449	356.49
964.815	321.38
965.181	302.66
965.547	354.15
965.913	269.89
966.279	351.81
966.645	297.98
967.011	330.75
967.377	300.32
967.742	342.45
968.108	382.24
968.474	356.49
968.839	312.02
969.205	347.13
969.57	368.2
969.935	319.04
970.301	286.28
970.666	377.56
971.031	244.15
971.396	293.3
971.761	314.36
972.126	335.43
972.491	255.85
972.856	347.13
973.221	297.98
973.586	326.07
973.95	314.36
974.315	307.34
974.679	328.41
975.044	370.54
975.408	314.36
975.773	293.3
976.137	305
976.501	384.58
976.866	316.7
977.23	354.15
977.594	340.11
977.958	368.2
978.322	295.64
978.686	365.85
979.049	281.6
979.413	297.98
979.777	363.51
980.141	344.79
980.504	337.77
980.868	342.45
981.231	347.13
981.595	370.54
981.958	305
982.321	309.68
982.684	335.43
983.048	393.94
983.411	330.75
983.774	340.11
984.137	290.96
984.5	314.36
984.862	370.54
985.225	312.02
985.588	340.11
985.951	333.09
986.313	349.47
986.676	330.75
987.038	330.75
987.401	340.11
987.763	326.07
988.125	326.07
988.488	279.26
988.85	330.75
989.212	251.17
989.574	333.09
989.936	309.68
990.298	328.41
990.66	349.47
991.022	323.73
991.383	321.38
991.745	361.17
992.107	384.58
992.468	288.62
992.83	344.79
993.191	246.49
993.553	288.62
993.914	375.22
994.275	356.49
994.637	290.96
994.998	326.07
995.359	300.32
995.72	295.64
996.081	295.64
996.442	286.28
996.803	398.62
997.163	347.13
997.524	274.57
997.885	340.11
998.245	288.62
998.606	363.51
998.966	323.73
999.327	283.94
999.687	279.26
1000.047	286.28
1000.408	323.73
1000.768	312.02
1001.128	321.38
1001.488	347.13
1001.848	326.07
1002.208	293.3
1002.568	279.26
1002.927	279.26
1003.287	300.32
1003.647	295.64
1004.007	312.02
1004.366	323.73
1004.726	272.23
1005.085	267.55
1005.444	363.51
1005.804	316.7
1006.163	279.26
1006.522	323.73
1006.881	297.98
1007.24	276.91
1007.599	300.32
1007.958	309.68
1008.317	316.7
1008.676	323.73
1009.035	316.7
1009.393	370.54
1009.752	361.17
1010.111	375.22
1010.469	344.79
1010.828	300.32
1011.186	293.3
1011.544	330.75
1011.903	323.73
1012.261	333.09
1012.619	295.64
1012.977	316.7
1013.335	330.75
1013.693	344.79
1014.051	274.57
1014.409	293.3
1014.767	328.41
1015.124	321.38
1015.482	295.64
1015.84	316.7
1016.197	377.56
1016.555	286.28
1016.912	307.34
1017.269	293.3
1017.627	347.13
1017.984	326.07
1018.341	283.94
1018.698	286.28
1019.055	274.57
1019.412	342.45
1019.769	295.64
1020.126	354.15
1020.483	269.89
1020.84	302.66
1021.196	335.43
1021.553	368.2
1021.909	323.73
1022.266	253.51
1022.622	344.79
1022.979	309.68
1023.335	316.7
1023.691	382.24
1024.047	300.32
1024.404	319.04
1024.76	328.41
1025.116	347.13
1025.472	370.54
1025.827	262.87
1026.183	356.49
1026.539	276.91
1026.895	370.54
1027.25	307.34
1027.606	319.04
1027.961	333.09
1028.317	293.3
1028.672	232.44
1029.028	262.87
1029.383	314.36
1029.738	288.62
1030.093	269.89
1030.448	305
1030.803	286.28
1031.158	354.15
1031.513	328.41
1031.868	328.41
1032.223	326.07
1032.577	288.62
1032.932	272.23
1033.287	295.64
1033.641	328.41
1033.996	309.68
1034.35	300.32
1034.704	295.64
1035.059	316.7
1035.413	295.64
1035.767	295.64
1036.121	295.64
