Data from Al_FLMS009871__684__15-07-13-137.txt Node

Date: Fri Mar 08 15:07:13 CST 2024
User: pe5414po
Spectrometer: FLMS00987
Trigger mode: 0
Integration Time (sec): 1.000000E-1
Scans to average: 1
Electric dark correction enabled: true
Nonlinearity correction enabled: false
Boxcar width: 0
XAxis mode: Wavelengths
Number of Pixels in Spectrum: 2048
>>>>>Begin Spectral Data<<<<<
188.938	-82.07
189.409	-82.07
189.879	-82.07
190.349	-168.66
190.819	-35.25
191.29	-135.9
191.76	-114.83
192.23	-23.55
192.7	-135.9
193.17	-65.68
193.64	-77.38
194.109	-2.49
194.579	-25.89
195.049	25.6
195.519	9.22
195.988	44.32
196.458	44.32
196.927	121.56
197.397	49
197.866	107.52
198.336	180.07
198.805	217.52
199.274	257.31
199.744	177.73
200.213	198.8
200.682	219.86
201.151	215.18
201.62	217.52
202.089	196.46
202.558	196.46
203.027	287.74
203.495	280.72
203.964	285.4
204.433	276.04
204.902	247.95
205.37	325.19
205.839	355.62
206.307	339.23
206.776	325.19
207.244	297.1
207.712	376.68
208.181	369.66
208.649	276.04
209.117	315.83
209.585	297.1
210.053	341.57
210.521	297.1
210.989	231.57
211.457	240.93
211.925	287.74
212.393	283.06
212.861	343.91
213.328	226.89
213.796	306.46
214.264	245.61
214.731	191.78
215.199	292.42
215.666	257.31
216.133	273.7
216.601	243.27
217.068	287.74
217.535	252.63
218.003	315.83
218.47	322.85
218.937	229.23
219.404	254.97
219.871	266.67
220.338	269.02
220.805	194.12
221.271	250.29
221.738	322.85
222.205	278.38
222.671	311.14
223.138	259.65
223.605	264.33
224.071	292.42
224.538	226.89
225.004	252.63
225.47	245.61
225.937	261.99
226.403	327.53
226.869	266.67
227.335	247.95
227.801	332.21
228.267	308.8
228.733	266.67
229.199	292.42
229.665	236.25
230.131	269.02
230.597	266.67
231.062	283.06
231.528	247.95
231.994	294.76
232.459	325.19
232.925	283.06
233.39	276.04
233.856	217.52
234.321	334.55
234.786	329.87
235.252	313.49
235.717	259.65
236.182	247.95
236.647	222.2
237.112	308.8
237.577	320.51
238.042	283.06
238.507	283.06
238.972	269.02
239.436	327.53
239.901	266.67
240.366	266.67
240.83	299.44
241.295	306.46
241.76	350.93
242.224	306.46
242.688	292.42
243.153	261.99
243.617	306.46
244.081	283.06
244.545	264.33
245.01	233.91
245.474	252.63
245.938	362.64
246.402	299.44
246.866	294.76
247.33	336.89
247.793	252.63
248.257	320.51
248.721	285.4
249.185	311.14
249.648	294.76
250.112	290.08
250.575	276.04
251.039	297.1
251.502	294.76
251.965	315.83
252.429	271.36
252.892	301.78
253.355	236.25
253.818	250.29
254.281	325.19
254.744	313.49
255.207	271.36
255.67	332.21
256.133	292.42
256.596	362.64
257.059	311.14
257.522	280.72
257.984	259.65
258.447	336.89
258.909	292.42
259.372	350.93
259.834	308.8
260.297	320.51
260.759	252.63
261.221	229.23
261.684	283.06
262.146	257.31
262.608	252.63
263.07	308.8
263.532	339.23
263.994	252.63
264.456	283.06
264.918	308.8
265.38	299.44
265.842	294.76
266.303	327.53
266.765	374.34
267.227	346.25
267.688	304.12
268.15	315.83
268.611	276.04
269.072	247.95
269.534	247.95
269.995	306.46
270.456	315.83
270.918	311.14
271.379	311.14
271.84	362.64
272.301	301.78
272.762	301.78
273.223	322.85
273.684	205.82
274.144	334.55
274.605	322.85
275.066	304.12
275.527	372
275.987	243.27
276.448	306.46
276.908	306.46
277.369	292.42
277.829	386.04
278.289	355.62
278.75	301.78
279.21	297.1
279.67	313.49
280.13	238.59
280.59	238.59
281.05	308.8
281.51	348.59
281.97	362.64
282.43	297.1
282.89	278.38
283.35	322.85
283.809	304.12
284.269	329.87
284.729	297.1
285.188	273.7
285.648	259.65
286.107	339.23
286.567	285.4
287.026	325.19
287.485	294.76
287.944	367.32
288.404	299.44
288.863	269.02
289.322	329.87
289.781	292.42
290.24	299.44
290.699	322.85
291.158	348.59
291.616	290.08
292.075	247.95
292.534	318.17
292.992	301.78
293.451	285.4
293.91	379.02
294.368	320.51
294.827	350.93
295.285	346.25
295.743	273.7
296.202	273.7
296.66	336.89
297.118	306.46
297.576	308.8
298.034	290.08
298.492	308.8
298.95	350.93
299.408	297.1
299.866	313.49
300.324	280.72
300.781	299.44
301.239	287.74
301.697	306.46
302.154	297.1
302.612	388.38
303.069	341.57
303.527	334.55
303.984	283.06
304.441	325.19
304.899	287.74
305.356	348.59
305.813	325.19
306.27	243.27
306.727	212.84
307.184	311.14
307.641	276.04
308.098	362.64
308.555	327.53
309.012	292.42
309.468	271.36
309.925	311.14
310.382	348.59
310.838	308.8
311.295	285.4
311.751	346.25
312.208	346.25
312.664	294.76
313.12	360.3
313.577	306.46
314.033	318.17
314.489	379.02
314.945	315.83
315.401	343.91
315.857	334.55
316.313	280.72
316.769	320.51
317.225	348.59
317.681	292.42
318.136	334.55
318.592	416.47
319.048	336.89
319.503	318.17
319.959	304.12
320.414	334.55
320.869	334.55
321.325	355.62
321.78	322.85
322.235	306.46
322.691	315.83
323.146	320.51
323.601	336.89
324.056	301.78
324.511	287.74
324.966	325.19
325.421	318.17
325.875	388.38
326.33	318.17
326.785	311.14
327.24	283.06
327.694	313.49
328.149	292.42
328.603	290.08
329.058	313.49
329.512	336.89
329.966	278.38
330.421	336.89
330.875	271.36
331.329	348.59
331.783	322.85
332.237	297.1
332.691	299.44
333.145	327.53
333.599	318.17
334.053	329.87
334.507	320.51
334.96	336.89
335.414	304.12
335.868	257.31
336.321	243.27
336.775	341.57
337.228	336.89
337.682	283.06
338.135	306.46
338.588	276.04
339.042	353.27
339.495	322.85
339.948	355.62
340.401	292.42
340.854	325.19
341.307	367.32
341.76	311.14
342.213	327.53
342.666	257.31
343.119	376.68
343.571	336.89
344.024	285.4
344.477	294.76
344.929	343.91
345.382	299.44
345.834	290.08
346.287	278.38
346.739	362.64
347.191	320.51
347.644	350.93
348.096	332.21
348.548	357.96
349	283.06
349.452	294.76
349.904	386.04
350.356	357.96
350.808	322.85
351.26	313.49
351.711	343.91
352.163	374.34
352.615	271.36
353.066	334.55
353.518	334.55
353.969	315.83
354.421	336.89
354.872	243.27
355.324	311.14
355.775	301.78
356.226	269.02
356.677	327.53
357.128	304.12
357.579	332.21
358.03	341.57
358.481	362.64
358.932	346.25
359.383	362.64
359.834	353.27
360.285	334.55
360.735	297.1
361.186	290.08
361.637	311.14
362.087	283.06
362.538	348.59
362.988	287.74
363.438	364.98
363.889	374.34
364.339	252.63
364.789	299.44
365.239	339.23
365.689	379.02
366.139	336.89
366.589	360.3
367.039	318.17
367.489	313.49
367.939	367.32
368.389	322.85
368.839	357.96
369.288	369.66
369.738	353.27
370.187	355.62
370.637	372
371.086	336.89
371.536	320.51
371.985	311.14
372.434	341.57
372.884	283.06
373.333	313.49
373.782	247.95
374.231	355.62
374.68	343.91
375.129	341.57
375.578	236.25
376.027	297.1
376.475	318.17
376.924	367.32
377.373	292.42
377.822	355.62
378.27	283.06
378.719	308.8
379.167	308.8
379.616	313.49
380.064	285.4
380.512	322.85
380.961	308.8
381.409	379.02
381.857	367.32
382.305	283.06
382.753	343.91
383.201	243.27
383.649	334.55
384.097	322.85
384.545	257.31
384.992	278.38
385.44	322.85
385.888	334.55
386.335	301.78
386.783	287.74
387.231	292.42
387.678	353.27
388.125	306.46
388.573	304.12
389.02	362.64
389.467	290.08
389.914	283.06
390.362	301.78
390.809	292.42
391.256	353.27
391.703	327.53
392.15	360.3
392.596	341.57
393.043	313.49
393.49	311.14
393.937	388.38
394.383	357.96
394.83	362.64
395.276	325.19
395.723	350.93
396.169	283.06
396.616	313.49
397.062	320.51
397.508	311.14
397.954	334.55
398.401	364.98
398.847	306.46
399.293	393.06
399.739	393.06
400.185	292.42
400.631	285.4
401.076	348.59
401.522	322.85
401.968	364.98
402.414	379.02
402.859	301.78
403.305	346.25
403.75	334.55
404.196	374.34
404.641	348.59
405.086	285.4
405.532	364.98
405.977	367.32
406.422	350.93
406.867	336.89
407.312	278.38
407.757	341.57
408.202	304.12
408.647	339.23
409.092	299.44
409.537	278.38
409.982	292.42
410.426	329.87
410.871	304.12
411.316	280.72
411.76	320.51
412.205	327.53
412.649	327.53
413.093	353.27
413.538	276.04
413.982	379.02
414.426	294.76
414.87	294.76
415.314	306.46
415.758	353.27
416.202	306.46
416.646	287.74
417.09	367.32
417.534	390.72
417.978	329.87
418.421	311.14
418.865	339.23
419.309	341.57
419.752	353.27
420.196	322.85
420.639	257.31
421.083	257.31
421.526	325.19
421.969	292.42
422.412	315.83
422.856	348.59
423.299	301.78
423.742	301.78
424.185	379.02
424.628	325.19
425.071	322.85
425.513	341.57
425.956	332.21
426.399	306.46
426.842	339.23
427.284	297.1
427.727	357.96
428.169	325.19
428.612	301.78
429.054	374.34
429.497	283.06
429.939	364.98
430.381	269.02
430.823	360.3
431.265	341.57
431.707	318.17
432.149	266.67
432.591	320.51
433.033	334.55
433.475	357.96
433.917	280.72
434.359	339.23
434.8	346.25
435.242	343.91
435.684	369.66
436.125	313.49
436.567	308.8
437.008	322.85
437.449	348.59
437.891	339.23
438.332	236.25
438.773	313.49
439.214	339.23
439.656	294.76
440.097	383.7
440.538	299.44
440.978	339.23
441.419	327.53
441.86	325.19
442.301	290.08
442.742	318.17
443.182	336.89
443.623	238.59
444.063	357.96
444.504	313.49
444.944	299.44
445.385	308.8
445.825	292.42
446.265	308.8
446.706	297.1
447.146	318.17
447.586	360.3
448.026	355.62
448.466	280.72
448.906	372
449.346	336.89
449.786	367.32
450.225	313.49
450.665	336.89
451.105	315.83
451.544	327.53
451.984	322.85
452.424	315.83
452.863	318.17
453.302	376.68
453.742	294.76
454.181	320.51
454.62	301.78
455.059	341.57
455.499	327.53
455.938	287.74
456.377	327.53
456.816	341.57
457.254	395.4
457.693	364.98
458.132	315.83
458.571	304.12
459.01	343.91
459.448	341.57
459.887	341.57
460.325	259.65
460.764	292.42
461.202	283.06
461.641	339.23
462.079	334.55
462.517	325.19
462.955	355.62
463.393	322.85
463.832	294.76
464.27	372
464.708	428.17
465.145	322.85
465.583	283.06
466.021	283.06
466.459	311.14
466.897	320.51
467.334	278.38
467.772	304.12
468.209	374.34
468.647	374.34
469.084	379.02
469.522	334.55
469.959	306.46
470.396	336.89
470.833	327.53
471.271	386.04
471.708	311.14
472.145	395.4
472.582	294.76
473.019	379.02
473.456	266.67
473.892	355.62
474.329	294.76
474.766	353.27
475.202	311.14
475.639	301.78
476.076	355.62
476.512	269.02
476.949	301.78
477.385	318.17
477.821	322.85
478.258	271.36
478.694	362.64
479.13	290.08
479.566	299.44
480.002	292.42
480.438	299.44
480.874	320.51
481.31	322.85
481.746	285.4
482.181	233.91
482.617	346.25
483.053	299.44
483.488	320.51
483.924	287.74
484.36	322.85
484.795	350.93
485.23	299.44
485.666	383.7
486.101	329.87
486.536	362.64
486.971	325.19
487.407	294.76
487.842	285.4
488.277	346.25
488.712	386.04
489.146	353.27
489.581	348.59
490.016	390.72
490.451	304.12
490.885	355.62
491.32	357.96
491.755	322.85
492.189	273.7
492.624	329.87
493.058	322.85
493.492	308.8
493.927	292.42
494.361	261.99
494.795	355.62
495.229	376.68
495.663	374.34
496.097	299.44
496.531	336.89
496.965	327.53
497.399	266.67
497.833	327.53
498.266	336.89
498.7	322.85
499.134	379.02
499.567	367.32
500.001	360.3
500.434	379.02
500.868	386.04
501.301	306.46
501.734	341.57
502.168	325.19
502.601	334.55
503.034	360.3
503.467	297.1
503.9	311.14
504.333	325.19
504.766	325.19
505.199	334.55
505.632	343.91
506.064	360.3
506.497	372
506.93	311.14
507.362	390.72
507.795	297.1
508.227	334.55
508.66	320.51
509.092	341.57
509.524	306.46
509.956	315.83
510.389	306.46
510.821	276.04
511.253	334.55
511.685	404.77
512.117	372
512.549	325.19
512.981	343.91
513.412	264.33
513.844	276.04
514.276	297.1
514.707	386.04
515.139	334.55
515.571	341.57
516.002	325.19
516.433	283.06
516.865	341.57
517.296	381.36
517.727	245.61
518.159	283.06
518.59	276.04
519.021	306.46
519.452	339.23
519.883	276.04
520.314	294.76
520.744	362.64
521.175	292.42
521.606	322.85
522.037	297.1
522.467	283.06
522.898	357.96
523.328	304.12
523.759	325.19
524.189	315.83
524.62	379.02
525.05	350.93
525.48	311.14
525.91	386.04
526.341	353.27
526.771	325.19
527.201	343.91
527.631	308.8
528.061	257.31
528.49	301.78
528.92	297.1
529.35	315.83
529.78	285.4
530.209	273.7
530.639	327.53
531.068	390.72
531.498	343.91
531.927	372
532.357	252.63
532.786	285.4
533.215	264.33
533.644	320.51
534.074	278.38
534.503	313.49
534.932	311.14
535.361	364.98
535.79	350.93
536.218	292.42
536.647	348.59
537.076	327.53
537.505	369.66
537.933	301.78
538.362	383.7
538.79	229.23
539.219	364.98
539.647	339.23
540.076	290.08
540.504	285.4
540.932	320.51
541.36	383.7
541.788	374.34
542.217	294.76
542.645	283.06
543.073	322.85
543.5	350.93
543.928	308.8
544.356	269.02
544.784	308.8
545.211	278.38
545.639	343.91
546.067	285.4
546.494	367.32
546.922	336.89
547.349	306.46
547.776	353.27
548.204	353.27
548.631	350.93
549.058	313.49
549.485	283.06
549.912	376.68
550.339	287.74
550.766	297.1
551.193	339.23
551.62	318.17
552.047	341.57
552.474	367.32
552.9	362.64
553.327	294.76
553.754	313.49
554.18	339.23
554.607	374.34
555.033	325.19
555.459	367.32
555.886	348.59
556.312	290.08
556.738	379.02
557.164	367.32
557.59	336.89
558.016	276.04
558.442	322.85
558.868	320.51
559.294	299.44
559.72	369.66
560.145	376.68
560.571	372
560.997	374.34
561.422	350.93
561.848	325.19
562.273	355.62
562.699	353.27
563.124	355.62
563.549	301.78
563.974	301.78
564.4	322.85
564.825	259.65
565.25	322.85
565.675	336.89
566.1	346.25
566.525	278.38
566.95	325.19
567.374	287.74
567.799	299.44
568.224	350.93
568.648	283.06
569.073	306.46
569.497	297.1
569.922	327.53
570.346	432.85
570.771	308.8
571.195	325.19
571.619	325.19
572.043	360.3
572.467	252.63
572.891	294.76
573.315	273.7
573.739	339.23
574.163	320.51
574.587	290.08
575.011	386.04
575.435	383.7
575.858	332.21
576.282	308.8
576.705	233.91
577.129	308.8
577.552	332.21
577.976	339.23
578.399	336.89
578.822	322.85
579.245	341.57
579.669	283.06
580.092	271.36
580.515	299.44
580.938	301.78
581.361	320.51
581.784	327.53
582.206	341.57
582.629	336.89
583.052	313.49
583.474	355.62
583.897	360.3
584.32	315.83
584.742	332.21
585.165	367.32
585.587	313.49
586.009	306.46
586.431	339.23
586.854	339.23
587.276	276.04
587.698	325.19
588.12	334.55
588.542	393.06
588.964	350.93
589.386	357.96
589.807	320.51
590.229	334.55
590.651	322.85
591.073	278.38
591.494	280.72
591.916	304.12
592.337	320.51
592.759	329.87
593.18	320.51
593.601	294.76
594.022	273.7
594.444	374.34
594.865	266.67
595.286	313.49
595.707	306.46
596.128	355.62
596.549	379.02
596.97	357.96
597.39	367.32
597.811	283.06
598.232	332.21
598.652	301.78
599.073	341.57
599.494	304.12
599.914	327.53
600.334	311.14
600.755	336.89
601.175	343.91
601.595	301.78
602.015	379.02
602.436	327.53
602.856	421.15
603.276	353.27
603.696	285.4
604.115	315.83
604.535	346.25
604.955	308.8
605.375	329.87
605.794	353.27
606.214	320.51
606.634	285.4
607.053	364.98
607.473	364.98
607.892	325.19
608.311	299.44
608.731	306.46
609.15	304.12
609.569	364.98
609.988	404.77
610.407	290.08
610.826	353.27
611.245	414.13
611.664	308.8
612.083	276.04
612.501	285.4
612.92	320.51
613.339	327.53
613.757	308.8
614.176	348.59
614.594	273.7
615.013	364.98
615.431	388.38
615.85	280.72
616.268	318.17
616.686	360.3
617.104	350.93
617.522	306.46
617.94	271.36
618.358	360.3
618.776	259.65
619.194	264.33
619.612	348.59
620.03	346.25
620.447	259.65
620.865	297.1
621.282	276.04
621.7	346.25
622.117	360.3
622.535	311.14
622.952	376.68
623.369	306.46
623.787	304.12
624.204	325.19
624.621	346.25
625.038	294.76
625.455	353.27
625.872	315.83
626.289	329.87
626.706	364.98
627.123	245.61
627.539	325.19
627.956	381.36
628.373	350.93
628.789	336.89
629.206	271.36
629.622	329.87
630.038	254.97
630.455	339.23
630.871	402.43
631.287	379.02
631.703	327.53
632.12	219.86
632.536	350.93
632.952	290.08
633.368	348.59
633.783	355.62
634.199	400.09
634.615	306.46
635.031	318.17
635.446	402.43
635.862	336.89
636.277	329.87
636.693	329.87
637.108	355.62
637.524	421.15
637.939	336.89
638.354	290.08
638.77	374.34
639.185	341.57
639.6	379.02
640.015	322.85
640.43	290.08
640.845	313.49
641.259	348.59
641.674	306.46
642.089	372
642.504	355.62
642.918	283.06
643.333	308.8
643.747	283.06
644.162	315.83
644.576	336.89
644.991	290.08
645.405	294.76
645.819	360.3
646.233	372
646.647	369.66
647.061	285.4
647.475	325.19
647.889	259.65
648.303	311.14
648.717	329.87
649.131	357.96
649.545	367.32
649.958	325.19
650.372	346.25
650.785	346.25
651.199	294.76
651.612	313.49
652.026	292.42
652.439	290.08
652.852	285.4
653.266	357.96
653.679	259.65
654.092	266.67
654.505	341.57
654.918	320.51
655.331	290.08
655.744	306.46
656.156	297.1
656.569	297.1
656.982	313.49
657.394	215.18
657.807	292.42
658.22	357.96
658.632	334.55
659.044	254.97
659.457	257.31
659.869	332.21
660.281	285.4
660.693	320.51
661.106	304.12
661.518	320.51
661.93	297.1
662.342	315.83
662.754	336.89
663.165	306.46
663.577	364.98
663.989	367.32
664.401	339.23
664.812	350.93
665.224	320.51
665.635	308.8
666.047	379.02
666.458	280.72
666.869	348.59
667.281	318.17
667.692	393.06
668.103	334.55
668.514	346.25
668.925	360.3
669.336	327.53
669.747	290.08
670.158	343.91
670.569	280.72
670.979	301.78
671.39	313.49
671.801	407.11
672.211	381.36
672.622	336.89
673.032	360.3
673.443	254.97
673.853	329.87
674.263	418.81
674.674	304.12
675.084	287.74
675.494	304.12
675.904	276.04
676.314	339.23
676.724	343.91
677.134	320.51
677.544	334.55
677.953	292.42
678.363	355.62
678.773	362.64
679.182	350.93
679.592	362.64
680.001	332.21
680.411	313.49
680.82	301.78
681.23	311.14
681.639	301.78
682.048	297.1
682.457	329.87
682.866	341.57
683.275	313.49
683.684	327.53
684.093	339.23
684.502	332.21
684.911	306.46
685.32	264.33
685.728	350.93
686.137	271.36
686.546	311.14
686.954	376.68
687.363	247.95
687.771	306.46
688.179	327.53
688.588	355.62
688.996	341.57
689.404	269.02
689.812	367.32
690.22	383.7
690.628	336.89
691.036	386.04
691.444	334.55
691.852	336.89
692.26	332.21
692.667	294.76
693.075	327.53
693.483	325.19
693.89	280.72
694.298	315.83
694.705	325.19
695.112	374.34
695.52	306.46
695.927	327.53
696.334	329.87
696.741	301.78
697.148	341.57
697.555	301.78
697.962	350.93
698.369	308.8
698.776	360.3
699.183	301.78
699.59	327.53
699.996	343.91
700.403	308.8
700.81	343.91
701.216	346.25
701.623	397.74
702.029	315.83
702.435	350.93
702.842	376.68
703.248	364.98
703.654	315.83
704.06	343.91
704.466	334.55
704.872	318.17
705.278	332.21
705.684	376.68
706.09	301.78
706.496	325.19
706.901	280.72
707.307	283.06
707.712	318.17
708.118	299.44
708.523	315.83
708.929	313.49
709.334	322.85
709.74	411.79
710.145	355.62
710.55	311.14
710.955	343.91
711.36	367.32
711.765	336.89
712.17	280.72
712.575	285.4
712.98	910.32
713.385	355.62
713.789	355.62
714.194	369.66
714.599	367.32
715.003	313.49
715.408	444.56
715.812	257.31
716.217	269.02
716.621	261.99
717.025	315.83
717.429	329.87
717.833	273.7
718.238	357.96
718.642	364.98
719.046	329.87
719.449	308.8
719.853	290.08
720.257	294.76
720.661	397.74
721.065	318.17
721.468	280.72
721.872	341.57
722.275	269.02
722.679	301.78
723.082	252.63
723.485	332.21
723.889	320.51
724.292	297.1
724.695	336.89
725.098	332.21
725.501	301.78
725.904	285.4
726.307	320.51
726.71	322.85
727.113	292.42
727.516	313.49
727.918	278.38
728.321	322.85
728.724	306.46
729.126	290.08
729.529	301.78
729.931	343.91
730.333	339.23
730.736	362.64
731.138	327.53
731.54	276.04
731.942	301.78
732.344	341.57
732.746	306.46
733.148	318.17
733.55	273.7
733.952	299.44
734.354	320.51
734.756	357.96
735.157	261.99
735.559	280.72
735.96	336.89
736.362	318.17
736.763	313.49
737.165	290.08
737.566	360.3
737.967	271.36
738.368	336.89
738.77	334.55
739.171	350.93
739.572	292.42
739.973	280.72
740.374	336.89
740.774	348.59
741.175	320.51
741.576	313.49
741.977	332.21
742.377	336.89
742.778	271.36
743.178	294.76
743.579	334.55
743.979	315.83
744.379	304.12
744.78	379.02
745.18	287.74
745.58	292.42
745.98	334.55
746.38	357.96
746.78	292.42
747.18	306.46
747.58	313.49
747.98	376.68
748.38	350.93
748.779	346.25
749.179	339.23
749.578	362.64
749.978	332.21
750.377	301.78
750.777	402.43
751.176	322.85
751.575	311.14
751.975	306.46
752.374	252.63
752.773	308.8
753.172	287.74
753.571	341.57
753.97	390.72
754.369	299.44
754.768	379.02
755.166	329.87
755.565	269.02
755.964	306.46
756.362	355.62
756.761	306.46
757.159	304.12
757.558	348.59
757.956	315.83
758.354	350.93
758.753	329.87
759.151	334.55
759.549	280.72
759.947	325.19
760.345	343.91
760.743	308.8
761.141	311.14
761.539	341.57
761.936	306.46
762.334	320.51
762.732	336.89
763.129	299.44
763.527	334.55
763.924	339.23
764.322	308.8
764.719	341.57
765.117	332.21
765.514	362.64
765.911	294.76
766.308	313.49
766.705	306.46
767.102	343.91
767.499	306.46
767.896	269.02
768.293	311.14
768.69	339.23
769.086	306.46
769.483	343.91
769.88	283.06
770.276	285.4
770.673	355.62
771.069	334.55
771.466	301.78
771.862	308.8
772.258	283.06
772.654	341.57
773.05	269.02
773.447	332.21
773.843	355.62
774.239	336.89
774.634	381.36
775.03	325.19
775.426	325.19
775.822	379.02
776.218	360.3
776.613	325.19
777.009	386.04
777.404	320.51
777.8	306.46
778.195	283.06
778.59	343.91
778.986	294.76
779.381	318.17
779.776	329.87
780.171	336.89
780.566	306.46
780.961	320.51
781.356	393.06
781.751	346.25
782.146	299.44
782.54	339.23
782.935	383.7
783.33	276.04
783.724	280.72
784.119	355.62
784.513	285.4
784.908	322.85
785.302	325.19
785.696	364.98
786.09	290.08
786.485	325.19
786.879	334.55
787.273	311.14
787.667	360.3
788.061	397.74
788.454	320.51
788.848	348.59
789.242	308.8
789.636	297.1
790.029	315.83
790.423	308.8
790.816	276.04
791.21	350.93
791.603	297.1
791.997	292.42
792.39	388.38
792.783	372
793.176	334.55
793.569	301.78
793.962	364.98
794.355	376.68
794.748	320.51
795.141	334.55
795.534	318.17
795.927	379.02
796.319	332.21
796.712	341.57
797.105	297.1
797.497	336.89
797.89	292.42
798.282	283.06
798.674	301.78
799.067	287.74
799.459	313.49
799.851	332.21
800.243	318.17
800.635	280.72
801.027	297.1
801.419	269.02
801.811	311.14
802.203	327.53
802.594	318.17
802.986	311.14
803.378	297.1
803.769	318.17
804.161	341.57
804.552	346.25
804.944	257.31
805.335	348.59
805.726	360.3
806.118	339.23
806.509	299.44
806.9	339.23
807.291	322.85
807.682	339.23
808.073	318.17
808.464	374.34
808.855	327.53
809.245	283.06
809.636	332.21
810.027	336.89
810.417	294.76
810.808	355.62
811.198	355.62
811.589	278.38
811.979	374.34
812.369	353.27
812.759	327.53
813.15	308.8
813.54	320.51
813.93	261.99
814.32	348.59
814.71	318.17
815.1	276.04
815.489	261.99
815.879	299.44
816.269	332.21
816.658	294.76
817.048	348.59
817.438	332.21
817.827	304.12
818.216	283.06
818.606	297.1
818.995	346.25
819.384	339.23
819.773	259.65
820.163	247.95
820.552	353.27
820.941	299.44
821.33	336.89
821.718	297.1
822.107	292.42
822.496	269.02
822.885	350.93
823.273	322.85
823.662	386.04
824.05	350.93
824.439	306.46
824.827	343.91
825.216	301.78
825.604	304.12
825.992	278.38
826.38	315.83
826.768	287.74
827.156	332.21
827.544	320.51
827.932	343.91
828.32	315.83
828.708	301.78
829.096	320.51
829.483	280.72
829.871	395.4
830.259	278.38
830.646	276.04
831.034	271.36
831.421	341.57
831.808	308.8
832.196	254.97
832.583	390.72
832.97	369.66
833.357	329.87
833.744	374.34
834.131	350.93
834.518	334.55
834.905	348.59
835.292	360.3
835.678	369.66
836.065	273.7
836.452	353.27
836.838	322.85
837.225	278.38
837.611	273.7
837.998	364.98
838.384	306.46
838.77	395.4
839.157	311.14
839.543	332.21
839.929	285.4
840.315	348.59
840.701	304.12
841.087	350.93
841.473	311.14
841.858	334.55
842.244	308.8
842.63	325.19
843.015	339.23
843.401	594.35
843.787	372
844.172	229.23
844.557	297.1
844.943	332.21
845.328	353.27
845.713	329.87
846.098	357.96
846.483	292.42
846.868	353.27
847.253	343.91
847.638	294.76
848.023	313.49
848.408	327.53
848.793	381.36
849.177	259.65
849.562	372
849.947	297.1
850.331	369.66
850.715	273.7
851.1	311.14
851.484	311.14
851.868	264.33
852.253	297.1
852.637	308.8
853.021	350.93
853.405	341.57
853.789	332.21
854.173	301.78
854.557	299.44
854.94	320.51
855.324	357.96
855.708	292.42
856.091	308.8
856.475	304.12
856.858	346.25
857.242	304.12
857.625	304.12
858.009	308.8
858.392	287.74
858.775	304.12
859.158	357.96
859.541	329.87
859.924	290.08
860.307	269.02
860.69	339.23
861.073	350.93
861.456	402.43
861.838	322.85
862.221	301.78
862.604	280.72
862.986	283.06
863.369	261.99
863.751	325.19
864.133	322.85
864.516	341.57
864.898	336.89
865.28	341.57
865.662	339.23
866.044	287.74
866.426	278.38
866.808	322.85
867.19	381.36
867.572	285.4
867.954	311.14
868.336	348.59
868.717	292.42
869.099	353.27
869.48	329.87
869.862	346.25
870.243	346.25
870.625	308.8
871.006	287.74
871.387	327.53
871.768	341.57
872.149	374.34
872.53	290.08
872.911	367.32
873.292	346.25
873.673	325.19
874.054	299.44
874.435	364.98
874.815	304.12
875.196	252.63
875.577	343.91
875.957	332.21
876.338	346.25
876.718	348.59
877.098	290.08
877.479	254.97
877.859	287.74
878.239	285.4
878.619	271.36
878.999	313.49
879.379	336.89
879.759	343.91
880.139	329.87
880.519	280.72
880.898	334.55
881.278	336.89
881.658	297.1
882.037	374.34
882.417	313.49
882.796	297.1
883.176	369.66
883.555	315.83
883.934	308.8
884.313	362.64
884.693	362.64
885.072	292.42
885.451	376.68
885.83	341.57
886.209	329.87
886.587	320.51
886.966	294.76
887.345	322.85
887.724	386.04
888.102	299.44
888.481	374.34
888.859	372
889.238	353.27
889.616	322.85
889.994	355.62
890.373	327.53
890.751	329.87
891.129	315.83
891.507	367.32
891.885	369.66
892.263	355.62
892.641	266.67
893.019	334.55
893.396	285.4
893.774	254.97
894.152	266.67
894.529	259.65
894.907	297.1
895.284	334.55
895.662	308.8
896.039	278.38
896.416	254.97
896.794	357.96
897.171	301.78
897.548	271.36
897.925	339.23
898.302	355.62
898.679	374.34
899.056	327.53
899.433	346.25
899.809	294.76
900.186	243.27
900.563	318.17
900.939	261.99
901.316	276.04
901.692	292.42
902.069	308.8
902.445	322.85
902.821	313.49
903.197	311.14
903.574	276.04
903.95	355.62
904.326	353.27
904.702	245.61
905.078	341.57
905.454	395.4
905.829	360.3
906.205	325.19
906.581	285.4
906.956	343.91
907.332	304.12
907.707	334.55
908.083	348.59
908.458	353.27
908.833	278.38
909.209	404.77
909.584	386.04
909.959	313.49
910.334	325.19
910.709	315.83
911.084	327.53
911.459	322.85
911.834	315.83
912.209	292.42
912.583	348.59
912.958	271.36
913.333	311.14
913.707	348.59
914.082	280.72
914.456	332.21
914.83	299.44
915.205	285.4
915.579	257.31
915.953	332.21
916.327	386.04
916.701	313.49
917.075	334.55
917.449	343.91
917.823	339.23
918.197	341.57
918.571	264.33
918.944	357.96
919.318	292.42
919.692	379.02
920.065	325.19
920.438	322.85
920.812	346.25
921.185	374.34
921.558	278.38
921.932	353.27
922.305	306.46
922.678	336.89
923.051	294.76
923.424	395.4
923.797	400.09
924.17	329.87
924.542	327.53
924.915	325.19
925.288	294.76
925.661	357.96
926.033	364.98
926.406	341.57
926.778	311.14
927.15	240.93
927.523	271.36
927.895	271.36
928.267	329.87
928.639	271.36
929.011	423.49
929.383	299.44
929.755	332.21
930.127	336.89
930.499	280.72
930.871	327.53
931.242	285.4
931.614	264.33
931.986	318.17
932.357	299.44
932.729	257.31
933.1	315.83
933.471	290.08
933.843	360.3
934.214	308.8
934.585	297.1
934.956	325.19
935.327	355.62
935.698	320.51
936.069	332.21
936.44	320.51
936.811	372
937.182	238.59
937.552	304.12
937.923	329.87
938.293	313.49
938.664	372
939.034	339.23
939.405	339.23
939.775	285.4
940.145	334.55
940.516	348.59
940.886	355.62
941.256	346.25
941.626	343.91
941.996	315.83
942.366	318.17
942.735	346.25
943.105	304.12
943.475	259.65
943.845	254.97
944.214	313.49
944.584	294.76
944.953	329.87
945.323	315.83
945.692	308.8
946.061	329.87
946.43	418.81
946.8	266.67
947.169	343.91
947.538	327.53
947.907	332.21
948.276	301.78
948.645	306.46
949.013	367.32
949.382	346.25
949.751	217.52
950.119	271.36
950.488	334.55
950.857	327.53
951.225	360.3
951.593	327.53
951.962	304.12
952.33	334.55
952.698	407.11
953.066	231.57
953.434	191.78
953.802	292.42
954.17	343.91
954.538	315.83
954.906	283.06
955.274	283.06
955.642	318.17
956.009	269.02
956.377	348.59
956.744	327.53
957.112	318.17
957.479	341.57
957.847	273.7
958.214	285.4
958.581	261.99
958.948	350.93
959.315	348.59
959.683	318.17
960.05	376.68
960.416	332.21
960.783	292.42
961.15	332.21
961.517	294.76
961.884	336.89
962.25	334.55
962.617	350.93
962.983	315.83
963.35	311.14
963.716	299.44
964.082	283.06
964.449	353.27
964.815	306.46
965.181	355.62
965.547	327.53
965.913	332.21
966.279	292.42
966.645	264.33
967.011	327.53
967.377	280.72
967.742	315.83
968.108	252.63
968.474	336.89
968.839	313.49
969.205	299.44
969.57	297.1
969.935	341.57
970.301	360.3
970.666	269.02
971.031	327.53
971.396	311.14
971.761	339.23
972.126	329.87
972.491	329.87
972.856	271.36
973.221	304.12
973.586	308.8
973.95	388.38
974.315	322.85
974.679	341.57
975.044	348.59
975.408	341.57
975.773	292.42
976.137	343.91
976.501	325.19
976.866	322.85
977.23	325.19
977.594	374.34
977.958	259.65
978.322	254.97
978.686	343.91
979.049	329.87
979.413	402.43
979.777	367.32
980.141	313.49
980.504	278.38
980.868	369.66
981.231	290.08
981.595	304.12
981.958	264.33
982.321	315.83
982.684	339.23
983.048	336.89
983.411	381.36
983.774	364.98
984.137	320.51
984.5	304.12
984.862	364.98
985.225	325.19
985.588	336.89
985.951	369.66
986.313	273.7
986.676	318.17
987.038	367.32
987.401	332.21
987.763	301.78
988.125	299.44
988.488	252.63
988.85	271.36
989.212	301.78
989.574	322.85
989.936	346.25
990.298	318.17
990.66	280.72
991.022	304.12
991.383	306.46
991.745	341.57
992.107	341.57
992.468	294.76
992.83	250.29
993.191	320.51
993.553	329.87
993.914	273.7
994.275	376.68
994.637	343.91
994.998	336.89
995.359	336.89
995.72	332.21
996.081	379.02
996.442	376.68
996.803	332.21
997.163	313.49
997.524	254.97
997.885	212.84
998.245	332.21
998.606	329.87
998.966	376.68
999.327	393.06
999.687	292.42
1000.047	325.19
1000.408	266.67
1000.768	379.02
1001.128	290.08
1001.488	308.8
1001.848	273.7
1002.208	343.91
1002.568	264.33
1002.927	266.67
1003.287	304.12
1003.647	388.38
1004.007	329.87
1004.366	322.85
1004.726	372
1005.085	269.02
1005.444	381.36
1005.804	332.21
1006.163	372
1006.522	372
1006.881	348.59
1007.24	329.87
1007.599	297.1
1007.958	357.96
1008.317	329.87
1008.676	271.36
1009.035	290.08
1009.393	320.51
1009.752	290.08
1010.111	318.17
1010.469	247.95
1010.828	336.89
1011.186	322.85
1011.544	327.53
1011.903	364.98
1012.261	297.1
1012.619	294.76
1012.977	311.14
1013.335	360.3
1013.693	425.83
1014.051	325.19
1014.409	306.46
1014.767	318.17
1015.124	329.87
1015.482	353.27
1015.84	325.19
1016.197	315.83
1016.555	271.36
1016.912	294.76
1017.269	287.74
1017.627	259.65
1017.984	325.19
1018.341	280.72
1018.698	297.1
1019.055	357.96
1019.412	301.78
1019.769	362.64
1020.126	341.57
1020.483	320.51
1020.84	304.12
1021.196	257.31
1021.553	362.64
1021.909	301.78
1022.266	360.3
1022.622	311.14
1022.979	329.87
1023.335	325.19
1023.691	280.72
1024.047	329.87
1024.404	280.72
1024.76	379.02
1025.116	334.55
1025.472	346.25
1025.827	304.12
1026.183	336.89
1026.539	297.1
1026.895	292.42
1027.25	379.02
1027.606	287.74
1027.961	308.8
1028.317	297.1
1028.672	332.21
1029.028	372
1029.383	301.78
1029.738	308.8
1030.093	343.91
1030.448	320.51
1030.803	306.46
1031.158	304.12
1031.513	285.4
1031.868	325.19
1032.223	261.99
1032.577	320.51
1032.932	273.7
1033.287	381.36
1033.641	325.19
1033.996	290.08
1034.35	402.43
1034.704	336.89
1035.059	292.42
1035.413	278.38
1035.767	278.38
1036.121	278.38
