Data from Al_FLMS009871__934__16-19-07-325.txt Node

Date: Fri Mar 08 16:19:07 CST 2024
User: pe5414po
Spectrometer: FLMS00987
Trigger mode: 0
Integration Time (sec): 1.000000E-1
Scans to average: 1
Electric dark correction enabled: true
Nonlinearity correction enabled: false
Boxcar width: 0
XAxis mode: Wavelengths
Number of Pixels in Spectrum: 2048
>>>>>Begin Spectral Data<<<<<
188.938	-51.64
189.409	-51.64
189.879	-51.64
190.349	-107.81
190.819	-68.02
191.29	-114.83
191.76	-117.17
192.23	-91.43
192.7	-30.57
193.17	-68.02
193.64	-53.98
194.109	-68.02
194.579	-42.28
195.049	20.92
195.519	-11.85
195.988	-0.15
196.458	119.22
196.927	100.5
197.397	126.24
197.866	105.18
198.336	126.24
198.805	156.67
199.274	151.99
199.744	203.48
200.213	219.86
200.682	212.84
201.151	236.25
201.62	182.42
202.089	231.57
202.558	254.97
203.027	222.2
203.495	247.95
203.964	231.57
204.433	269.02
204.902	238.59
205.37	297.1
205.839	240.93
206.307	283.06
206.776	273.7
207.244	297.1
207.712	301.78
208.181	301.78
208.649	266.67
209.117	276.04
209.585	287.74
210.053	285.4
210.521	304.12
210.989	264.33
211.457	273.7
211.925	306.46
212.393	287.74
212.861	278.38
213.328	304.12
213.796	350.93
214.264	273.7
214.731	315.83
215.199	278.38
215.666	343.91
216.133	222.2
216.601	261.99
217.068	217.52
217.535	250.29
218.003	231.57
218.47	222.2
218.937	304.12
219.404	243.27
219.871	320.51
220.338	212.84
220.805	231.57
221.271	273.7
221.738	261.99
222.205	247.95
222.671	292.42
223.138	236.25
223.605	201.14
224.071	266.67
224.538	283.06
225.004	322.85
225.47	285.4
225.937	208.16
226.403	212.84
226.869	290.08
227.335	329.87
227.801	297.1
228.267	243.27
228.733	292.42
229.199	238.59
229.665	261.99
230.131	283.06
230.597	257.31
231.062	215.18
231.528	297.1
231.994	233.91
232.459	276.04
232.925	278.38
233.39	285.4
233.856	287.74
234.321	271.36
234.786	194.12
235.252	325.19
235.717	240.93
236.182	231.57
236.647	276.04
237.112	283.06
237.577	194.12
238.042	240.93
238.507	297.1
238.972	250.29
239.436	304.12
239.901	259.65
240.366	315.83
240.83	315.83
241.295	278.38
241.76	301.78
242.224	329.87
242.688	217.52
243.153	259.65
243.617	217.52
244.081	294.76
244.545	252.63
245.01	247.95
245.474	240.93
245.938	233.91
246.402	259.65
246.866	219.86
247.33	264.33
247.793	334.55
248.257	266.67
248.721	301.78
249.185	315.83
249.648	304.12
250.112	306.46
250.575	278.38
251.039	341.57
251.502	269.02
251.965	245.61
252.429	273.7
252.892	301.78
253.355	283.06
253.818	278.38
254.281	280.72
254.744	318.17
255.207	318.17
255.67	276.04
256.133	297.1
256.596	257.31
257.059	276.04
257.522	257.31
257.984	240.93
258.447	297.1
258.909	306.46
259.372	269.02
259.834	306.46
260.297	348.59
260.759	297.1
261.221	334.55
261.684	315.83
262.146	217.52
262.608	290.08
263.07	264.33
263.532	278.38
263.994	254.97
264.456	257.31
264.918	304.12
265.38	290.08
265.842	236.25
266.303	318.17
266.765	320.51
267.227	297.1
267.688	247.95
268.15	322.85
268.611	238.59
269.072	247.95
269.534	278.38
269.995	250.29
270.456	292.42
270.918	231.57
271.379	297.1
271.84	217.52
272.301	301.78
272.762	252.63
273.223	273.7
273.684	301.78
274.144	266.67
274.605	318.17
275.066	294.76
275.527	266.67
275.987	299.44
276.448	245.61
276.908	266.67
277.369	292.42
277.829	320.51
278.289	252.63
278.75	219.86
279.21	231.57
279.67	313.49
280.13	332.21
280.59	233.91
281.05	231.57
281.51	278.38
281.97	297.1
282.43	273.7
282.89	290.08
283.35	259.65
283.809	278.38
284.269	245.61
284.729	304.12
285.188	318.17
285.648	343.91
286.107	315.83
286.567	252.63
287.026	212.84
287.485	201.14
287.944	306.46
288.404	301.78
288.863	336.89
289.322	273.7
289.781	226.89
290.24	240.93
290.699	364.98
291.158	313.49
291.616	276.04
292.075	327.53
292.534	320.51
292.992	318.17
293.451	297.1
293.91	320.51
294.368	266.67
294.827	332.21
295.285	355.62
295.743	301.78
296.202	341.57
296.66	343.91
297.118	334.55
297.576	219.86
298.034	346.25
298.492	245.61
298.95	320.51
299.408	301.78
299.866	297.1
300.324	271.36
300.781	350.93
301.239	271.36
301.697	388.38
302.154	315.83
302.612	327.53
303.069	311.14
303.527	327.53
303.984	306.46
304.441	301.78
304.899	238.59
305.356	276.04
305.813	261.99
306.27	325.19
306.727	271.36
307.184	264.33
307.641	353.27
308.098	336.89
308.555	264.33
309.012	327.53
309.468	247.95
309.925	301.78
310.382	294.76
310.838	308.8
311.295	290.08
311.751	292.42
312.208	285.4
312.664	306.46
313.12	290.08
313.577	318.17
314.033	318.17
314.489	269.02
314.945	283.06
315.401	294.76
315.857	276.04
316.313	257.31
316.769	273.7
317.225	294.76
317.681	250.29
318.136	362.64
318.592	287.74
319.048	318.17
319.503	283.06
319.959	259.65
320.414	320.51
320.869	273.7
321.325	266.67
321.78	308.8
322.235	264.33
322.691	261.99
323.146	257.31
323.601	292.42
324.056	271.36
324.511	290.08
324.966	276.04
325.421	208.16
325.875	350.93
326.33	299.44
326.785	280.72
327.24	306.46
327.694	304.12
328.149	348.59
328.603	294.76
329.058	252.63
329.512	311.14
329.966	297.1
330.421	285.4
330.875	269.02
331.329	313.49
331.783	276.04
332.237	278.38
332.691	320.51
333.145	283.06
333.599	287.74
334.053	325.19
334.507	329.87
334.96	290.08
335.414	322.85
335.868	320.51
336.321	301.78
336.775	304.12
337.228	285.4
337.682	348.59
338.135	313.49
338.588	266.67
339.042	264.33
339.495	269.02
339.948	247.95
340.401	339.23
340.854	283.06
341.307	304.12
341.76	278.38
342.213	353.27
342.666	261.99
343.119	280.72
343.571	334.55
344.024	339.23
344.477	315.83
344.929	233.91
345.382	332.21
345.834	343.91
346.287	332.21
346.739	269.02
347.191	318.17
347.644	231.57
348.096	325.19
348.548	306.46
349	306.46
349.452	294.76
349.904	287.74
350.356	343.91
350.808	320.51
351.26	231.57
351.711	301.78
352.163	320.51
352.615	292.42
353.066	280.72
353.518	259.65
353.969	313.49
354.421	308.8
354.872	299.44
355.324	290.08
355.775	315.83
356.226	273.7
356.677	313.49
357.128	327.53
357.579	247.95
358.03	334.55
358.481	327.53
358.932	306.46
359.383	360.3
359.834	278.38
360.285	315.83
360.735	290.08
361.186	287.74
361.637	283.06
362.087	259.65
362.538	348.59
362.988	210.5
363.438	320.51
363.889	243.27
364.339	315.83
364.789	327.53
365.239	301.78
365.689	290.08
366.139	294.76
366.589	301.78
367.039	318.17
367.489	308.8
367.939	294.76
368.389	278.38
368.839	341.57
369.288	322.85
369.738	290.08
370.187	315.83
370.637	339.23
371.086	269.02
371.536	292.42
371.985	280.72
372.434	292.42
372.884	308.8
373.333	301.78
373.782	304.12
374.231	285.4
374.68	294.76
375.129	285.4
375.578	327.53
376.027	311.14
376.475	325.19
376.924	259.65
377.373	301.78
377.822	308.8
378.27	308.8
378.719	301.78
379.167	287.74
379.616	280.72
380.064	341.57
380.512	318.17
380.961	299.44
381.409	273.7
381.857	322.85
382.305	245.61
382.753	313.49
383.201	313.49
383.649	374.34
384.097	245.61
384.545	308.8
384.992	259.65
385.44	264.33
385.888	271.36
386.335	341.57
386.783	271.36
387.231	287.74
387.678	355.62
388.125	308.8
388.573	297.1
389.02	308.8
389.467	343.91
389.914	299.44
390.362	336.89
390.809	362.64
391.256	252.63
391.703	273.7
392.15	294.76
392.596	327.53
393.043	259.65
393.49	294.76
393.937	252.63
394.383	311.14
394.83	290.08
395.276	287.74
395.723	334.55
396.169	294.76
396.616	285.4
397.062	308.8
397.508	386.04
397.954	297.1
398.401	297.1
398.847	381.36
399.293	327.53
399.739	299.44
400.185	353.27
400.631	325.19
401.076	306.46
401.522	276.04
401.968	276.04
402.414	343.91
402.859	217.52
403.305	250.29
403.75	343.91
404.196	254.97
404.641	329.87
405.086	336.89
405.532	245.61
405.977	311.14
406.422	285.4
406.867	355.62
407.312	280.72
407.757	276.04
408.202	252.63
408.647	320.51
409.092	233.91
409.537	308.8
409.982	250.29
410.426	290.08
410.871	318.17
411.316	294.76
411.76	285.4
412.205	325.19
412.649	271.36
413.093	350.93
413.538	343.91
413.982	400.09
414.426	301.78
414.87	308.8
415.314	315.83
415.758	315.83
416.202	329.87
416.646	341.57
417.09	341.57
417.534	372
417.978	297.1
418.421	304.12
418.865	348.59
419.309	287.74
419.752	320.51
420.196	287.74
420.639	334.55
421.083	360.3
421.526	283.06
421.969	215.18
422.412	311.14
422.856	334.55
423.299	362.64
423.742	355.62
424.185	280.72
424.628	271.36
425.071	297.1
425.513	236.25
425.956	313.49
426.399	350.93
426.842	322.85
427.284	357.96
427.727	322.85
428.169	315.83
428.612	292.42
429.054	287.74
429.497	290.08
429.939	357.96
430.381	306.46
430.823	243.27
431.265	311.14
431.707	252.63
432.149	290.08
432.591	311.14
433.033	336.89
433.475	266.67
433.917	290.08
434.359	355.62
434.8	299.44
435.242	257.31
435.684	357.96
436.125	257.31
436.567	346.25
437.008	336.89
437.449	315.83
437.891	257.31
438.332	297.1
438.773	276.04
439.214	280.72
439.656	353.27
440.097	315.83
440.538	381.36
440.978	250.29
441.419	327.53
441.86	240.93
442.301	306.46
442.742	343.91
443.182	292.42
443.623	360.3
444.063	325.19
444.504	339.23
444.944	254.97
445.385	341.57
445.825	301.78
446.265	320.51
446.706	313.49
447.146	388.38
447.586	264.33
448.026	336.89
448.466	294.76
448.906	329.87
449.346	334.55
449.786	332.21
450.225	383.7
450.665	287.74
451.105	336.89
451.544	353.27
451.984	325.19
452.424	243.27
452.863	301.78
453.302	341.57
453.742	325.19
454.181	297.1
454.62	336.89
455.059	332.21
455.499	343.91
455.938	287.74
456.377	297.1
456.816	383.7
457.254	278.38
457.693	329.87
458.132	306.46
458.571	297.1
459.01	327.53
459.448	259.65
459.887	313.49
460.325	306.46
460.764	367.32
461.202	383.7
461.641	297.1
462.079	297.1
462.517	292.42
462.955	350.93
463.393	299.44
463.832	339.23
464.27	348.59
464.708	304.12
465.145	334.55
465.583	355.62
466.021	379.02
466.459	327.53
466.897	315.83
467.334	339.23
467.772	243.27
468.209	315.83
468.647	322.85
469.084	334.55
469.522	332.21
469.959	327.53
470.396	367.32
470.833	348.59
471.271	334.55
471.708	292.42
472.145	322.85
472.582	238.59
473.019	280.72
473.456	287.74
473.892	402.43
474.329	348.59
474.766	348.59
475.202	341.57
475.639	343.91
476.076	299.44
476.512	327.53
476.949	364.98
477.385	325.19
477.821	362.64
478.258	271.36
478.694	308.8
479.13	285.4
479.566	329.87
480.002	301.78
480.438	318.17
480.874	308.8
481.31	297.1
481.746	336.89
482.181	266.67
482.617	350.93
483.053	369.66
483.488	273.7
483.924	304.12
484.36	339.23
484.795	292.42
485.23	254.97
485.666	266.67
486.101	283.06
486.536	374.34
486.971	261.99
487.407	327.53
487.842	287.74
488.277	261.99
488.712	304.12
489.146	285.4
489.581	322.85
490.016	367.32
490.451	332.21
490.885	283.06
491.32	334.55
491.755	292.42
492.189	294.76
492.624	292.42
493.058	318.17
493.492	269.02
493.927	308.8
494.361	297.1
494.795	346.25
495.229	318.17
495.663	278.38
496.097	332.21
496.531	301.78
496.965	229.23
497.399	318.17
497.833	287.74
498.266	311.14
498.7	313.49
499.134	329.87
499.567	318.17
500.001	222.2
500.434	327.53
500.868	311.14
501.301	299.44
501.734	308.8
502.168	339.23
502.601	332.21
503.034	332.21
503.467	294.76
503.9	383.7
504.333	355.62
504.766	259.65
505.199	315.83
505.632	264.33
506.064	238.59
506.497	313.49
506.93	367.32
507.362	264.33
507.795	290.08
508.227	273.7
508.66	254.97
509.092	304.12
509.524	294.76
509.956	350.93
510.389	313.49
510.821	290.08
511.253	315.83
511.685	334.55
512.117	329.87
512.549	283.06
512.981	243.27
513.412	236.25
513.844	273.7
514.276	332.21
514.707	299.44
515.139	294.76
515.571	294.76
516.002	313.49
516.433	287.74
516.865	346.25
517.296	273.7
517.727	269.02
518.159	343.91
518.59	320.51
519.021	336.89
519.452	261.99
519.883	353.27
520.314	320.51
520.744	294.76
521.175	238.59
521.606	304.12
522.037	301.78
522.467	308.8
522.898	287.74
523.328	278.38
523.759	367.32
524.189	285.4
524.62	271.36
525.05	259.65
525.48	283.06
525.91	322.85
526.341	329.87
526.771	252.63
527.201	372
527.631	280.72
528.061	259.65
528.49	308.8
528.92	308.8
529.35	414.13
529.78	332.21
530.209	329.87
530.639	332.21
531.068	327.53
531.498	318.17
531.927	320.51
532.357	276.04
532.786	292.42
533.215	350.93
533.644	322.85
534.074	243.27
534.503	301.78
534.932	336.89
535.361	320.51
535.79	348.59
536.218	332.21
536.647	322.85
537.076	332.21
537.505	280.72
537.933	327.53
538.362	334.55
538.79	292.42
539.219	320.51
539.647	294.76
540.076	280.72
540.504	339.23
540.932	350.93
541.36	290.08
541.788	320.51
542.217	369.66
542.645	299.44
543.073	269.02
543.5	266.67
543.928	271.36
544.356	329.87
544.784	313.49
545.211	334.55
545.639	292.42
546.067	327.53
546.494	308.8
546.922	254.97
547.349	329.87
547.776	341.57
548.204	350.93
548.631	350.93
549.058	341.57
549.485	341.57
549.912	287.74
550.339	306.46
550.766	306.46
551.193	325.19
551.62	315.83
552.047	362.64
552.474	348.59
552.9	306.46
553.327	203.48
553.754	301.78
554.18	315.83
554.607	346.25
555.033	231.57
555.459	208.16
555.886	252.63
556.312	297.1
556.738	322.85
557.164	292.42
557.59	233.91
558.016	318.17
558.442	269.02
558.868	269.02
559.294	369.66
559.72	266.67
560.145	332.21
560.571	240.93
560.997	315.83
561.422	287.74
561.848	339.23
562.273	259.65
562.699	250.29
563.124	353.27
563.549	297.1
563.974	252.63
564.4	320.51
564.825	329.87
565.25	362.64
565.675	343.91
566.1	327.53
566.525	360.3
566.95	280.72
567.374	273.7
567.799	339.23
568.224	346.25
568.648	339.23
569.073	276.04
569.497	294.76
569.922	294.76
570.346	285.4
570.771	360.3
571.195	329.87
571.619	306.46
572.043	240.93
572.467	264.33
572.891	287.74
573.315	318.17
573.739	339.23
574.163	339.23
574.587	327.53
575.011	283.06
575.435	266.67
575.858	257.31
576.282	261.99
576.705	322.85
577.129	299.44
577.552	315.83
577.976	287.74
578.399	336.89
578.822	404.77
579.245	290.08
579.669	334.55
580.092	306.46
580.515	290.08
580.938	285.4
581.361	322.85
581.784	287.74
582.206	278.38
582.629	290.08
583.052	325.19
583.474	311.14
583.897	343.91
584.32	306.46
584.742	308.8
585.165	320.51
585.587	313.49
586.009	353.27
586.431	264.33
586.854	318.17
587.276	322.85
587.698	259.65
588.12	254.97
588.542	280.72
588.964	299.44
589.386	357.96
589.807	297.1
590.229	332.21
590.651	257.31
591.073	374.34
591.494	285.4
591.916	311.14
592.337	353.27
592.759	311.14
593.18	336.89
593.601	278.38
594.022	350.93
594.444	311.14
594.865	257.31
595.286	299.44
595.707	287.74
596.128	311.14
596.549	294.76
596.97	292.42
597.39	276.04
597.811	339.23
598.232	252.63
598.652	212.84
599.073	336.89
599.494	264.33
599.914	224.55
600.334	261.99
600.755	287.74
601.175	355.62
601.595	318.17
602.015	299.44
602.436	388.38
602.856	446.9
603.276	318.17
603.696	276.04
604.115	332.21
604.535	301.78
604.955	329.87
605.375	355.62
605.794	329.87
606.214	301.78
606.634	364.98
607.053	271.36
607.473	360.3
607.892	332.21
608.311	332.21
608.731	350.93
609.15	336.89
609.569	325.19
609.988	339.23
610.407	278.38
610.826	325.19
611.245	374.34
611.664	348.59
612.083	364.98
612.501	353.27
612.92	306.46
613.339	276.04
613.757	294.76
614.176	374.34
614.594	273.7
615.013	343.91
615.431	306.46
615.85	315.83
616.268	285.4
616.686	355.62
617.104	292.42
617.522	292.42
617.94	343.91
618.358	301.78
618.776	332.21
619.194	290.08
619.612	327.53
620.03	334.55
620.447	313.49
620.865	311.14
621.282	364.98
621.7	327.53
622.117	311.14
622.535	348.59
622.952	322.85
623.369	308.8
623.787	299.44
624.204	313.49
624.621	299.44
625.038	311.14
625.455	285.4
625.872	299.44
626.289	292.42
626.706	271.36
627.123	243.27
627.539	306.46
627.956	355.62
628.373	327.53
628.789	369.66
629.206	332.21
629.622	245.61
630.038	285.4
630.455	290.08
630.871	329.87
631.287	306.46
631.703	276.04
632.12	320.51
632.536	257.31
632.952	322.85
633.368	315.83
633.783	334.55
634.199	332.21
634.615	381.36
635.031	269.02
635.446	343.91
635.862	339.23
636.277	362.64
636.693	283.06
637.108	306.46
637.524	353.27
637.939	247.95
638.354	357.96
638.77	313.49
639.185	315.83
639.6	357.96
640.015	325.19
640.43	229.23
640.845	273.7
641.259	334.55
641.674	294.76
642.089	278.38
642.504	311.14
642.918	294.76
643.333	343.91
643.747	287.74
644.162	353.27
644.576	322.85
644.991	376.68
645.405	287.74
645.819	273.7
646.233	283.06
646.647	269.02
647.061	299.44
647.475	320.51
647.889	294.76
648.303	276.04
648.717	240.93
649.131	313.49
649.545	379.02
649.958	287.74
650.372	372
650.785	231.57
651.199	273.7
651.612	292.42
652.026	287.74
652.439	325.19
652.852	292.42
653.266	313.49
653.679	266.67
654.092	292.42
654.505	306.46
654.918	290.08
655.331	287.74
655.744	334.55
656.156	285.4
656.569	287.74
656.982	247.95
657.394	329.87
657.807	329.87
658.22	269.02
658.632	306.46
659.044	306.46
659.457	304.12
659.869	350.93
660.281	320.51
660.693	301.78
661.106	297.1
661.518	320.51
661.93	278.38
662.342	294.76
662.754	322.85
663.165	287.74
663.577	304.12
663.989	264.33
664.401	292.42
664.812	278.38
665.224	320.51
665.635	278.38
666.047	294.76
666.458	252.63
666.869	348.59
667.281	294.76
667.692	301.78
668.103	311.14
668.514	276.04
668.925	369.66
669.336	329.87
669.747	364.98
670.158	322.85
670.569	325.19
670.979	339.23
671.39	322.85
671.801	327.53
672.211	278.38
672.622	287.74
673.032	280.72
673.443	283.06
673.853	322.85
674.263	306.46
674.674	301.78
675.084	294.76
675.494	313.49
675.904	320.51
676.314	259.65
676.724	294.76
677.134	343.91
677.544	259.65
677.953	290.08
678.363	334.55
678.773	376.68
679.182	362.64
679.592	348.59
680.001	341.57
680.411	325.19
680.82	252.63
681.23	320.51
681.639	294.76
682.048	287.74
682.457	329.87
682.866	304.12
683.275	355.62
683.684	287.74
684.093	315.83
684.502	313.49
684.911	240.93
685.32	350.93
685.728	325.19
686.137	357.96
686.546	400.09
686.954	395.4
687.363	306.46
687.771	311.14
688.179	318.17
688.588	283.06
688.996	233.91
689.404	297.1
689.812	350.93
690.22	336.89
690.628	350.93
691.036	336.89
691.444	315.83
691.852	269.02
692.26	336.89
692.667	357.96
693.075	304.12
693.483	329.87
693.89	259.65
694.298	332.21
694.705	369.66
695.112	329.87
695.52	304.12
695.927	283.06
696.334	273.7
696.741	283.06
697.148	360.3
697.555	329.87
697.962	369.66
698.369	299.44
698.776	290.08
699.183	362.64
699.59	294.76
699.996	264.33
700.403	290.08
700.81	322.85
701.216	325.19
701.623	311.14
702.029	285.4
702.435	341.57
702.842	301.78
703.248	334.55
703.654	336.89
704.06	348.59
704.466	362.64
704.872	280.72
705.278	343.91
705.684	318.17
706.09	318.17
706.496	325.19
706.901	290.08
707.307	273.7
707.712	266.67
708.118	304.12
708.523	254.97
708.929	285.4
709.334	290.08
709.74	353.27
710.145	264.33
710.55	285.4
710.955	353.27
711.36	350.93
711.765	269.02
712.17	313.49
712.575	254.97
712.98	802.66
713.385	325.19
713.789	334.55
714.194	273.7
714.599	308.8
715.003	306.46
715.408	250.29
715.812	287.74
716.217	294.76
716.621	304.12
717.025	320.51
717.429	250.29
717.833	278.38
718.238	301.78
718.642	339.23
719.046	299.44
719.449	273.7
719.853	287.74
720.257	308.8
720.661	350.93
721.065	332.21
721.468	336.89
721.872	334.55
722.275	304.12
722.679	404.77
723.082	339.23
723.485	299.44
723.889	250.29
724.292	311.14
724.695	290.08
725.098	285.4
725.501	313.49
725.904	320.51
726.307	257.31
726.71	266.67
727.113	334.55
727.516	329.87
727.918	374.34
728.321	362.64
728.724	301.78
729.126	315.83
729.529	290.08
729.931	304.12
730.333	334.55
730.736	304.12
731.138	297.1
731.54	304.12
731.942	320.51
732.344	339.23
732.746	189.44
733.148	372
733.55	343.91
733.952	304.12
734.354	224.55
734.756	257.31
735.157	278.38
735.559	259.65
735.96	292.42
736.362	402.43
736.763	264.33
737.165	353.27
737.566	278.38
737.967	308.8
738.368	327.53
738.77	290.08
739.171	334.55
739.572	292.42
739.973	304.12
740.374	247.95
740.774	308.8
741.175	357.96
741.576	318.17
741.977	386.04
742.377	301.78
742.778	280.72
743.178	318.17
743.579	276.04
743.979	294.76
744.379	299.44
744.78	327.53
745.18	327.53
745.58	348.59
745.98	301.78
746.38	280.72
746.78	247.95
747.18	374.34
747.58	252.63
747.98	327.53
748.38	276.04
748.779	311.14
749.179	322.85
749.578	304.12
749.978	346.25
750.377	292.42
750.777	313.49
751.176	306.46
751.575	306.46
751.975	332.21
752.374	336.89
752.773	273.7
753.172	287.74
753.571	283.06
753.97	245.61
754.369	294.76
754.768	294.76
755.166	297.1
755.565	308.8
755.964	313.49
756.362	315.83
756.761	301.78
757.159	245.61
757.558	294.76
757.956	292.42
758.354	334.55
758.753	294.76
759.151	327.53
759.549	297.1
759.947	318.17
760.345	311.14
760.743	334.55
761.141	336.89
761.539	311.14
761.936	341.57
762.334	276.04
762.732	315.83
763.129	360.3
763.527	383.7
763.924	301.78
764.322	254.97
764.719	278.38
765.117	287.74
765.514	332.21
765.911	336.89
766.308	350.93
766.705	306.46
767.102	301.78
767.499	325.19
767.896	276.04
768.293	343.91
768.69	357.96
769.086	360.3
769.483	278.38
769.88	306.46
770.276	334.55
770.673	332.21
771.069	292.42
771.466	320.51
771.862	372
772.258	283.06
772.654	273.7
773.05	280.72
773.447	318.17
773.843	273.7
774.239	290.08
774.634	280.72
775.03	313.49
775.426	238.59
775.822	276.04
776.218	379.02
776.613	304.12
777.009	283.06
777.404	329.87
777.8	297.1
778.195	297.1
778.59	311.14
778.986	332.21
779.381	285.4
779.776	217.52
780.171	292.42
780.566	341.57
780.961	250.29
781.356	306.46
781.751	261.99
782.146	350.93
782.54	315.83
782.935	278.38
783.33	325.19
783.724	280.72
784.119	301.78
784.513	301.78
784.908	343.91
785.302	297.1
785.696	318.17
786.09	318.17
786.485	322.85
786.879	301.78
787.273	306.46
787.667	285.4
788.061	294.76
788.454	343.91
788.848	290.08
789.242	315.83
789.636	329.87
790.029	348.59
790.423	254.97
790.816	257.31
791.21	334.55
791.603	271.36
791.997	332.21
792.39	402.43
792.783	329.87
793.176	320.51
793.569	318.17
793.962	329.87
794.355	322.85
794.748	290.08
795.141	322.85
795.534	322.85
795.927	299.44
796.319	297.1
796.712	233.91
797.105	297.1
797.497	283.06
797.89	313.49
798.282	283.06
798.674	341.57
799.067	283.06
799.459	280.72
799.851	348.59
800.243	266.67
800.635	287.74
801.027	327.53
801.419	285.4
801.811	299.44
802.203	250.29
802.594	343.91
802.986	308.8
803.378	315.83
803.769	355.62
804.161	315.83
804.552	306.46
804.944	294.76
805.335	357.96
805.726	308.8
806.118	311.14
806.509	311.14
806.9	301.78
807.291	346.25
807.682	271.36
808.073	341.57
808.464	318.17
808.855	336.89
809.245	280.72
809.636	313.49
810.027	334.55
810.417	299.44
810.808	290.08
811.198	322.85
811.589	297.1
811.979	278.38
812.369	308.8
812.759	299.44
813.15	287.74
813.54	339.23
813.93	273.7
814.32	327.53
814.71	318.17
815.1	306.46
815.489	294.76
815.879	285.4
816.269	285.4
816.658	299.44
817.048	315.83
817.438	297.1
817.827	320.51
818.216	273.7
818.606	299.44
818.995	343.91
819.384	301.78
819.773	238.59
820.163	299.44
820.552	261.99
820.941	320.51
821.33	299.44
821.718	334.55
822.107	276.04
822.496	266.67
822.885	318.17
823.273	304.12
823.662	283.06
824.05	264.33
824.439	283.06
824.827	332.21
825.216	273.7
825.604	304.12
825.992	285.4
826.38	304.12
826.768	311.14
827.156	327.53
827.544	320.51
827.932	334.55
828.32	292.42
828.708	290.08
829.096	341.57
829.483	346.25
829.871	269.02
830.259	336.89
830.646	299.44
831.034	348.59
831.421	290.08
831.808	353.27
832.196	252.63
832.583	322.85
832.97	308.8
833.357	355.62
833.744	325.19
834.131	336.89
834.518	325.19
834.905	243.27
835.292	346.25
835.678	311.14
836.065	252.63
836.452	292.42
836.838	266.67
837.225	266.67
837.611	304.12
837.998	247.95
838.384	318.17
838.77	283.06
839.157	278.38
839.543	348.59
839.929	306.46
840.315	346.25
840.701	332.21
841.087	357.96
841.473	364.98
841.858	269.02
842.244	304.12
842.63	325.19
843.015	308.8
843.401	589.67
843.787	287.74
844.172	311.14
844.557	334.55
844.943	313.49
845.328	355.62
845.713	245.61
846.098	280.72
846.483	353.27
846.868	301.78
847.253	271.36
847.638	369.66
848.023	266.67
848.408	376.68
848.793	280.72
849.177	336.89
849.562	283.06
849.947	297.1
850.331	322.85
850.715	308.8
851.1	271.36
851.484	308.8
851.868	292.42
852.253	325.19
852.637	304.12
853.021	346.25
853.405	322.85
853.789	266.67
854.173	367.32
854.557	339.23
854.94	308.8
855.324	269.02
855.708	315.83
856.091	322.85
856.475	299.44
856.858	313.49
857.242	254.97
857.625	254.97
858.009	306.46
858.392	346.25
858.775	357.96
859.158	276.04
859.541	383.7
859.924	301.78
860.307	332.21
860.69	308.8
861.073	283.06
861.456	285.4
861.838	313.49
862.221	315.83
862.604	350.93
862.986	308.8
863.369	254.97
863.751	320.51
864.133	301.78
864.516	329.87
864.898	252.63
865.28	341.57
865.662	299.44
866.044	388.38
866.426	294.76
866.808	313.49
867.19	315.83
867.572	285.4
867.954	334.55
868.336	343.91
868.717	278.38
869.099	315.83
869.48	315.83
869.862	315.83
870.243	311.14
870.625	311.14
871.006	287.74
871.387	329.87
871.768	311.14
872.149	280.72
872.53	313.49
872.911	297.1
873.292	332.21
873.673	346.25
874.054	341.57
874.435	329.87
874.815	212.84
875.196	311.14
875.577	257.31
875.957	278.38
876.338	247.95
876.718	250.29
877.098	322.85
877.479	278.38
877.859	334.55
878.239	278.38
878.619	283.06
878.999	254.97
879.379	297.1
879.759	297.1
880.139	325.19
880.519	299.44
880.898	271.36
881.278	320.51
881.658	339.23
882.037	264.33
882.417	285.4
882.796	280.72
883.176	318.17
883.555	290.08
883.934	355.62
884.313	259.65
884.693	374.34
885.072	304.12
885.451	350.93
885.83	285.4
886.209	297.1
886.587	247.95
886.966	329.87
887.345	329.87
887.724	306.46
888.102	273.7
888.481	311.14
888.859	336.89
889.238	252.63
889.616	283.06
889.994	266.67
890.373	294.76
890.751	299.44
891.129	285.4
891.507	304.12
891.885	301.78
892.263	306.46
892.641	327.53
893.019	306.46
893.396	273.7
893.774	285.4
894.152	292.42
894.529	332.21
894.907	278.38
895.284	336.89
895.662	254.97
896.039	341.57
896.416	287.74
896.794	259.65
897.171	290.08
897.548	294.76
897.925	278.38
898.302	329.87
898.679	339.23
899.056	332.21
899.433	315.83
899.809	259.65
900.186	257.31
900.563	276.04
900.939	292.42
901.316	320.51
901.692	329.87
902.069	357.96
902.445	292.42
902.821	290.08
903.197	322.85
903.574	247.95
903.95	280.72
904.326	294.76
904.702	280.72
905.078	339.23
905.454	329.87
905.829	285.4
906.205	315.83
906.581	322.85
906.956	299.44
907.332	210.5
907.707	273.7
908.083	264.33
908.458	287.74
908.833	294.76
909.209	301.78
909.584	271.36
909.959	308.8
910.334	315.83
910.709	297.1
911.084	369.66
911.459	299.44
911.834	243.27
912.209	297.1
912.583	353.27
912.958	273.7
913.333	350.93
913.707	261.99
914.082	320.51
914.456	283.06
914.83	271.36
915.205	264.33
915.579	266.67
915.953	271.36
916.327	276.04
916.701	276.04
917.075	299.44
917.449	315.83
917.823	271.36
918.197	311.14
918.571	339.23
918.944	290.08
919.318	283.06
919.692	346.25
920.065	308.8
920.438	379.02
920.812	280.72
921.185	266.67
921.558	369.66
921.932	271.36
922.305	297.1
922.678	290.08
923.051	315.83
923.424	315.83
923.797	336.89
924.17	334.55
924.542	261.99
924.915	325.19
925.288	343.91
925.661	257.31
926.033	292.42
926.406	332.21
926.778	254.97
927.15	297.1
927.523	222.2
927.895	304.12
928.267	278.38
928.639	308.8
929.011	250.29
929.383	320.51
929.755	334.55
930.127	278.38
930.499	304.12
930.871	245.61
931.242	233.91
931.614	269.02
931.986	287.74
932.357	297.1
932.729	224.55
933.1	308.8
933.471	250.29
933.843	264.33
934.214	301.78
934.585	332.21
934.956	224.55
935.327	264.33
935.698	313.49
936.069	318.17
936.44	297.1
936.811	290.08
937.182	304.12
937.552	311.14
937.923	271.36
938.293	297.1
938.664	355.62
939.034	283.06
939.405	243.27
939.775	285.4
940.145	292.42
940.516	271.36
940.886	299.44
941.256	299.44
941.626	343.91
941.996	341.57
942.366	341.57
942.735	332.21
943.105	238.59
943.475	325.19
943.845	325.19
944.214	353.27
944.584	254.97
944.953	292.42
945.323	311.14
945.692	301.78
946.061	372
946.43	276.04
946.8	238.59
947.169	266.67
947.538	327.53
947.907	311.14
948.276	306.46
948.645	269.02
949.013	264.33
949.382	313.49
949.751	261.99
950.119	320.51
950.488	301.78
950.857	350.93
951.225	325.19
951.593	304.12
951.962	332.21
952.33	313.49
952.698	367.32
953.066	320.51
953.434	283.06
953.802	297.1
954.17	357.96
954.538	261.99
954.906	299.44
955.274	332.21
955.642	292.42
956.009	261.99
956.377	294.76
956.744	280.72
957.112	325.19
957.479	304.12
957.847	336.89
958.214	315.83
958.581	308.8
958.948	320.51
959.315	301.78
959.683	308.8
960.05	306.46
960.416	341.57
960.783	252.63
961.15	374.34
961.517	290.08
961.884	273.7
962.25	325.19
962.617	350.93
962.983	402.43
963.35	364.98
963.716	341.57
964.082	306.46
964.449	297.1
964.815	341.57
965.181	346.25
965.547	297.1
965.913	353.27
966.279	287.74
966.645	245.61
967.011	285.4
967.377	292.42
967.742	287.74
968.108	329.87
968.474	299.44
968.839	315.83
969.205	327.53
969.57	283.06
969.935	322.85
970.301	327.53
970.666	329.87
971.031	294.76
971.396	336.89
971.761	278.38
972.126	355.62
972.491	327.53
972.856	287.74
973.221	327.53
973.586	269.02
973.95	266.67
974.315	374.34
974.679	311.14
975.044	304.12
975.408	339.23
975.773	292.42
976.137	346.25
976.501	276.04
976.866	325.19
977.23	266.67
977.594	313.49
977.958	322.85
978.322	353.27
978.686	353.27
979.049	297.1
979.413	306.46
979.777	311.14
980.141	301.78
980.504	269.02
980.868	269.02
981.231	315.83
981.595	261.99
981.958	322.85
982.321	343.91
982.684	217.52
983.048	315.83
983.411	322.85
983.774	231.57
984.137	301.78
984.5	355.62
984.862	264.33
985.225	264.33
985.588	334.55
985.951	360.3
986.313	322.85
986.676	294.76
987.038	304.12
987.401	297.1
987.763	320.51
988.125	320.51
988.488	306.46
988.85	311.14
989.212	292.42
989.574	299.44
989.936	304.12
990.298	334.55
990.66	350.93
991.022	294.76
991.383	360.3
991.745	292.42
992.107	245.61
992.468	311.14
992.83	311.14
993.191	315.83
993.553	290.08
993.914	252.63
994.275	318.17
994.637	294.76
994.998	278.38
995.359	294.76
995.72	308.8
996.081	308.8
996.442	343.91
996.803	269.02
997.163	231.57
997.524	280.72
997.885	280.72
998.245	292.42
998.606	273.7
998.966	259.65
999.327	341.57
999.687	271.36
1000.047	299.44
1000.408	299.44
1000.768	353.27
1001.128	264.33
1001.488	313.49
1001.848	322.85
1002.208	336.89
1002.568	376.68
1002.927	308.8
1003.287	273.7
1003.647	357.96
1004.007	290.08
1004.366	285.4
1004.726	327.53
1005.085	290.08
1005.444	336.89
1005.804	271.36
1006.163	320.51
1006.522	276.04
1006.881	318.17
1007.24	355.62
1007.599	276.04
1007.958	299.44
1008.317	292.42
1008.676	336.89
1009.035	322.85
1009.393	311.14
1009.752	332.21
1010.111	322.85
1010.469	383.7
1010.828	273.7
1011.186	285.4
1011.544	269.02
1011.903	343.91
1012.261	299.44
1012.619	285.4
1012.977	315.83
1013.335	329.87
1013.693	325.19
1014.051	304.12
1014.409	339.23
1014.767	372
1015.124	229.23
1015.482	287.74
1015.84	203.48
1016.197	285.4
1016.555	339.23
1016.912	226.89
1017.269	287.74
1017.627	283.06
1017.984	297.1
1018.341	266.67
1018.698	290.08
1019.055	315.83
1019.412	308.8
1019.769	376.68
1020.126	264.33
1020.483	266.67
1020.84	334.55
1021.196	322.85
1021.553	276.04
1021.909	332.21
1022.266	259.65
1022.622	278.38
1022.979	334.55
1023.335	273.7
1023.691	269.02
1024.047	250.29
1024.404	292.42
1024.76	283.06
1025.116	332.21
1025.472	306.46
1025.827	339.23
1026.183	285.4
1026.539	304.12
1026.895	343.91
1027.25	311.14
1027.606	294.76
1027.961	311.14
1028.317	283.06
1028.672	311.14
1029.028	280.72
1029.383	259.65
1029.738	294.76
1030.093	397.74
1030.448	332.21
1030.803	238.59
1031.158	311.14
1031.513	269.02
1031.868	306.46
1032.223	269.02
1032.577	283.06
1032.932	350.93
1033.287	283.06
1033.641	297.1
1033.996	278.38
1034.35	332.21
1034.704	283.06
1035.059	308.8
1035.413	315.83
1035.767	315.83
1036.121	315.83
