Data from Al_FLMS009871__921__16-19-06-022.txt Node

Date: Fri Mar 08 16:19:06 CST 2024
User: pe5414po
Spectrometer: FLMS00987
Trigger mode: 0
Integration Time (sec): 1.000000E-1
Scans to average: 1
Electric dark correction enabled: true
Nonlinearity correction enabled: false
Boxcar width: 0
XAxis mode: Wavelengths
Number of Pixels in Spectrum: 2048
>>>>>Begin Spectral Data<<<<<
188.938	-59.54
189.409	-59.54
189.879	-59.54
190.349	-99.33
190.819	-85.28
191.29	-111.03
191.76	-118.05
192.23	-146.14
192.7	-61.88
193.17	-54.86
193.64	-75.92
194.109	-99.33
194.579	31.74
195.049	41.11
195.519	22.38
195.988	1.32
196.458	73.87
196.927	139.41
197.397	144.09
197.866	73.87
198.336	139.41
198.805	137.07
199.274	179.2
199.744	144.09
200.213	141.75
200.682	202.6
201.151	221.33
201.62	228.35
202.089	209.62
202.558	242.39
203.027	328.99
203.495	263.46
203.964	223.67
204.433	293.88
204.902	310.27
205.37	270.48
205.839	321.97
206.307	272.82
206.776	364.1
207.244	279.84
207.712	357.08
208.181	350.06
208.649	275.16
209.117	277.5
209.585	352.4
210.053	307.93
210.521	298.56
210.989	279.84
211.457	268.14
211.925	244.73
212.393	277.5
212.861	310.27
213.328	300.91
213.796	357.08
214.264	256.43
214.731	328.99
215.199	284.52
215.666	321.97
216.133	218.99
216.601	228.35
217.068	284.52
217.535	317.29
218.003	312.61
218.47	233.03
218.937	279.84
219.404	261.12
219.871	286.86
220.338	233.03
220.805	263.46
221.271	282.18
221.738	282.18
222.205	277.5
222.671	235.37
223.138	251.75
223.605	256.43
224.071	326.65
224.538	226.01
225.004	237.71
225.47	244.73
225.937	275.16
226.403	282.18
226.869	209.62
227.335	256.43
227.801	279.84
228.267	265.8
228.733	233.03
229.199	247.07
229.665	204.94
230.131	254.09
230.597	256.43
231.062	277.5
231.528	261.12
231.994	258.78
232.459	317.29
232.925	265.8
233.39	249.41
233.856	305.59
234.321	305.59
234.786	258.78
235.252	237.71
235.717	258.78
236.182	272.82
236.647	300.91
237.112	282.18
237.577	265.8
238.042	314.95
238.507	340.69
238.972	270.48
239.436	326.65
239.901	307.93
240.366	314.95
240.83	284.52
241.295	216.65
241.76	277.5
242.224	258.78
242.688	263.46
243.153	289.2
243.617	293.88
244.081	291.54
244.545	324.31
245.01	340.69
245.474	277.5
245.938	265.8
246.402	261.12
246.866	282.18
247.33	326.65
247.793	310.27
248.257	270.48
248.721	300.91
249.185	317.29
249.648	282.18
250.112	251.75
250.575	263.46
251.039	307.93
251.502	240.05
251.965	312.61
252.429	286.86
252.892	256.43
253.355	272.82
253.818	343.03
254.281	275.16
254.744	291.54
255.207	293.88
255.67	204.94
256.133	249.41
256.596	270.48
257.059	326.65
257.522	289.2
257.984	286.86
258.447	230.69
258.909	286.86
259.372	296.22
259.834	268.14
260.297	230.69
260.759	343.03
261.221	240.05
261.684	254.09
262.146	328.99
262.608	357.08
263.07	277.5
263.532	282.18
263.994	331.33
264.456	359.42
264.918	284.52
265.38	258.78
265.842	270.48
266.303	251.75
266.765	307.93
267.227	284.52
267.688	319.63
268.15	310.27
268.611	319.63
269.072	216.65
269.534	284.52
269.995	303.25
270.456	265.8
270.918	312.61
271.379	284.52
271.84	251.75
272.301	307.93
272.762	261.12
273.223	233.03
273.684	265.8
274.144	328.99
274.605	314.95
275.066	328.99
275.527	296.22
275.987	298.56
276.448	336.01
276.908	319.63
277.369	307.93
277.829	324.31
278.289	221.33
278.75	291.54
279.21	256.43
279.67	282.18
280.13	263.46
280.59	338.35
281.05	284.52
281.51	312.61
281.97	251.75
282.43	279.84
282.89	251.75
283.35	247.07
283.809	289.2
284.269	240.05
284.729	244.73
285.188	310.27
285.648	251.75
286.107	263.46
286.567	305.59
287.026	279.84
287.485	303.25
287.944	282.18
288.404	270.48
288.863	314.95
289.322	314.95
289.781	354.74
290.24	331.33
290.699	244.73
291.158	291.54
291.616	263.46
292.075	343.03
292.534	345.38
292.992	307.93
293.451	317.29
293.91	312.61
294.368	338.35
294.827	254.09
295.285	352.4
295.743	282.18
296.202	275.16
296.66	298.56
297.118	312.61
297.576	291.54
298.034	307.93
298.492	284.52
298.95	305.59
299.408	317.29
299.866	303.25
300.324	240.05
300.781	242.39
301.239	324.31
301.697	347.72
302.154	279.84
302.612	277.5
303.069	296.22
303.527	291.54
303.984	354.74
304.441	324.31
304.899	286.86
305.356	286.86
305.813	303.25
306.27	300.91
306.727	310.27
307.184	291.54
307.641	319.63
308.098	321.97
308.555	331.33
309.012	354.74
309.468	312.61
309.925	265.8
310.382	237.71
310.838	303.25
311.295	333.67
311.751	336.01
312.208	293.88
312.664	312.61
313.12	317.29
313.577	333.67
314.033	282.18
314.489	303.25
314.945	298.56
315.401	235.37
315.857	343.03
316.313	336.01
316.769	251.75
317.225	319.63
317.681	265.8
318.136	310.27
318.592	300.91
319.048	333.67
319.503	303.25
319.959	275.16
320.414	261.12
320.869	312.61
321.325	286.86
321.78	251.75
322.235	303.25
322.691	258.78
323.146	387.5
323.601	268.14
324.056	272.82
324.511	336.01
324.966	310.27
325.421	321.97
325.875	314.95
326.33	359.42
326.785	333.67
327.24	279.84
327.694	298.56
328.149	258.78
328.603	275.16
329.058	324.31
329.512	272.82
329.966	291.54
330.421	357.08
330.875	265.8
331.329	277.5
331.783	293.88
332.237	321.97
332.691	340.69
333.145	251.75
333.599	268.14
334.053	298.56
334.507	317.29
334.96	279.84
335.414	357.08
335.868	291.54
336.321	328.99
336.775	305.59
337.228	319.63
337.682	298.56
338.135	340.69
338.588	298.56
339.042	319.63
339.495	326.65
339.948	263.46
340.401	242.39
340.854	357.08
341.307	317.29
341.76	254.09
342.213	321.97
342.666	352.4
343.119	307.93
343.571	333.67
344.024	298.56
344.477	331.33
344.929	319.63
345.382	324.31
345.834	277.5
346.287	268.14
346.739	336.01
347.191	303.25
347.644	305.59
348.096	324.31
348.548	399.21
349	352.4
349.452	279.84
349.904	314.95
350.356	277.5
350.808	305.59
351.26	324.31
351.711	314.95
352.163	319.63
352.615	338.35
353.066	296.22
353.518	296.22
353.969	310.27
354.421	298.56
354.872	289.2
355.324	310.27
355.775	296.22
356.226	242.39
356.677	300.91
357.128	352.4
357.579	340.69
358.03	254.09
358.481	296.22
358.932	350.06
359.383	282.18
359.834	312.61
360.285	275.16
360.735	291.54
361.186	378.14
361.637	340.69
362.087	382.82
362.538	336.01
362.988	284.52
363.438	261.12
363.889	312.61
364.339	310.27
364.789	263.46
365.239	321.97
365.689	375.8
366.139	321.97
366.589	312.61
367.039	340.69
367.489	373.46
367.939	275.16
368.389	228.35
368.839	321.97
369.288	331.33
369.738	296.22
370.187	359.42
370.637	284.52
371.086	321.97
371.536	303.25
371.985	277.5
372.434	317.29
372.884	312.61
373.333	331.33
373.782	317.29
374.231	319.63
374.68	296.22
375.129	368.78
375.578	321.97
376.027	357.08
376.475	312.61
376.924	272.82
377.373	289.2
377.822	293.88
378.27	275.16
378.719	279.84
379.167	284.52
379.616	343.03
380.064	312.61
380.512	331.33
380.961	286.86
381.409	312.61
381.857	352.4
382.305	289.2
382.753	350.06
383.201	343.03
383.649	284.52
384.097	282.18
384.545	352.4
384.992	392.19
385.44	310.27
385.888	289.2
386.335	359.42
386.783	338.35
387.231	343.03
387.678	275.16
388.125	347.72
388.573	293.88
389.02	218.99
389.467	324.31
389.914	307.93
390.362	303.25
390.809	275.16
391.256	228.35
391.703	305.59
392.15	282.18
392.596	303.25
393.043	312.61
393.49	251.75
393.937	319.63
394.383	284.52
394.83	270.48
395.276	331.33
395.723	300.91
396.169	354.74
396.616	396.87
397.062	300.91
397.508	237.71
397.954	321.97
398.401	343.03
398.847	331.33
399.293	326.65
399.739	336.01
400.185	350.06
400.631	343.03
401.076	289.2
401.522	305.59
401.968	357.08
402.414	265.8
402.859	343.03
403.305	333.67
403.75	319.63
404.196	312.61
404.641	331.33
405.086	347.72
405.532	235.37
405.977	275.16
406.422	350.06
406.867	340.69
407.312	317.29
407.757	331.33
408.202	401.55
408.647	350.06
409.092	289.2
409.537	375.8
409.982	265.8
410.426	310.27
410.871	303.25
411.316	314.95
411.76	298.56
412.205	307.93
412.649	350.06
413.093	326.65
413.538	254.09
413.982	333.67
414.426	333.67
414.87	321.97
415.314	413.25
415.758	321.97
416.202	310.27
416.646	328.99
417.09	336.01
417.534	331.33
417.978	317.29
418.421	298.56
418.865	279.84
419.309	277.5
419.752	265.8
420.196	343.03
420.639	319.63
421.083	296.22
421.526	305.59
421.969	317.29
422.412	324.31
422.856	275.16
423.299	277.5
423.742	305.59
424.185	357.08
424.628	347.72
425.071	317.29
425.513	305.59
425.956	319.63
426.399	303.25
426.842	373.46
427.284	300.91
427.727	268.14
428.169	284.52
428.612	373.46
429.054	338.35
429.497	317.29
429.939	310.27
430.381	289.2
430.823	286.86
431.265	321.97
431.707	343.03
432.149	293.88
432.591	314.95
433.033	366.44
433.475	350.06
433.917	254.09
434.359	317.29
434.8	310.27
435.242	317.29
435.684	321.97
436.125	317.29
436.567	319.63
437.008	340.69
437.449	286.86
437.891	354.74
438.332	333.67
438.773	289.2
439.214	307.93
439.656	277.5
440.097	333.67
440.538	300.91
440.978	310.27
441.419	357.08
441.86	361.76
442.301	296.22
442.742	307.93
443.182	303.25
443.623	279.84
444.063	277.5
444.504	254.09
444.944	314.95
445.385	242.39
445.825	324.31
446.265	343.03
446.706	331.33
447.146	291.54
447.586	268.14
448.026	333.67
448.466	310.27
448.906	350.06
449.346	321.97
449.786	310.27
450.225	286.86
450.665	317.29
451.105	279.84
451.544	326.65
451.984	345.38
452.424	371.12
452.863	333.67
453.302	300.91
453.742	338.35
454.181	263.46
454.62	338.35
455.059	300.91
455.499	317.29
455.938	293.88
456.377	364.1
456.816	345.38
457.254	321.97
457.693	314.95
458.132	331.33
458.571	361.76
459.01	361.76
459.448	331.33
459.887	343.03
460.325	298.56
460.764	296.22
461.202	291.54
461.641	340.69
462.079	328.99
462.517	300.91
462.955	314.95
463.393	317.29
463.832	345.38
464.27	275.16
464.708	359.42
465.145	268.14
465.583	357.08
466.021	305.59
466.459	331.33
466.897	340.69
467.334	282.18
467.772	279.84
468.209	324.31
468.647	256.43
469.084	321.97
469.522	275.16
469.959	282.18
470.396	314.95
470.833	354.74
471.271	326.65
471.708	289.2
472.145	284.52
472.582	399.21
473.019	258.78
473.456	314.95
473.892	333.67
474.329	326.65
474.766	328.99
475.202	300.91
475.639	314.95
476.076	380.48
476.512	319.63
476.949	270.48
477.385	298.56
477.821	305.59
478.258	291.54
478.694	242.39
479.13	333.67
479.566	366.44
480.002	296.22
480.438	307.93
480.874	314.95
481.31	319.63
481.746	354.74
482.181	282.18
482.617	366.44
483.053	352.4
483.488	275.16
483.924	347.72
484.36	326.65
484.795	270.48
485.23	310.27
485.666	326.65
486.101	350.06
486.536	282.18
486.971	300.91
487.407	270.48
487.842	258.78
488.277	265.8
488.712	256.43
489.146	321.97
489.581	385.16
490.016	300.91
490.451	401.55
490.885	354.74
491.32	359.42
491.755	326.65
492.189	312.61
492.624	357.08
493.058	338.35
493.492	312.61
493.927	310.27
494.361	307.93
494.795	331.33
495.229	284.52
495.663	317.29
496.097	293.88
496.531	324.31
496.965	317.29
497.399	336.01
497.833	282.18
498.266	307.93
498.7	343.03
499.134	328.99
499.567	328.99
500.001	345.38
500.434	333.67
500.868	319.63
501.301	340.69
501.734	289.2
502.168	357.08
502.601	296.22
503.034	331.33
503.467	331.33
503.9	305.59
504.333	378.14
504.766	282.18
505.199	368.78
505.632	312.61
506.064	258.78
506.497	331.33
506.93	345.38
507.362	317.29
507.795	284.52
508.227	244.73
508.66	331.33
509.092	361.76
509.524	357.08
509.956	307.93
510.389	312.61
510.821	364.1
511.253	357.08
511.685	340.69
512.117	324.31
512.549	336.01
512.981	300.91
513.412	331.33
513.844	256.43
514.276	338.35
514.707	352.4
515.139	293.88
515.571	279.84
516.002	284.52
516.433	317.29
516.865	366.44
517.296	303.25
517.727	314.95
518.159	364.1
518.59	371.12
519.021	321.97
519.452	317.29
519.883	371.12
520.314	361.76
520.744	314.95
521.175	312.61
521.606	272.82
522.037	333.67
522.467	347.72
522.898	380.48
523.328	364.1
523.759	303.25
524.189	361.76
524.62	190.9
525.05	277.5
525.48	296.22
525.91	317.29
526.341	305.59
526.771	331.33
527.201	338.35
527.631	277.5
528.061	352.4
528.49	296.22
528.92	321.97
529.35	331.33
529.78	427.29
530.209	310.27
530.639	296.22
531.068	317.29
531.498	312.61
531.927	310.27
532.357	307.93
532.786	328.99
533.215	272.82
533.644	368.78
534.074	354.74
534.503	389.85
534.932	293.88
535.361	298.56
535.79	331.33
536.218	371.12
536.647	324.31
537.076	284.52
537.505	324.31
537.933	326.65
538.362	305.59
538.79	277.5
539.219	331.33
539.647	291.54
540.076	286.86
540.504	244.73
540.932	338.35
541.36	392.19
541.788	303.25
542.217	328.99
542.645	368.78
543.073	326.65
543.5	333.67
543.928	279.84
544.356	331.33
544.784	350.06
545.211	333.67
545.639	286.86
546.067	338.35
546.494	368.78
546.922	340.69
547.349	235.37
547.776	314.95
548.204	321.97
548.631	364.1
549.058	336.01
549.485	303.25
549.912	319.63
550.339	378.14
550.766	272.82
551.193	310.27
551.62	331.33
552.047	364.1
552.474	354.74
552.9	307.93
553.327	345.38
553.754	345.38
554.18	305.59
554.607	300.91
555.033	343.03
555.459	319.63
555.886	343.03
556.312	399.21
556.738	275.16
557.164	333.67
557.59	359.42
558.016	258.78
558.442	328.99
558.868	284.52
559.294	343.03
559.72	261.12
560.145	328.99
560.571	340.69
560.997	312.61
561.422	343.03
561.848	324.31
562.273	336.01
562.699	275.16
563.124	359.42
563.549	291.54
563.974	277.5
564.4	347.72
564.825	261.12
565.25	326.65
565.675	321.97
566.1	328.99
566.525	312.61
566.95	427.29
567.374	361.76
567.799	382.82
568.224	256.43
568.648	284.52
569.073	305.59
569.497	291.54
569.922	296.22
570.346	317.29
570.771	354.74
571.195	333.67
571.619	345.38
572.043	352.4
572.467	333.67
572.891	352.4
573.315	371.12
573.739	319.63
574.163	361.76
574.587	282.18
575.011	310.27
575.435	324.31
575.858	289.2
576.282	314.95
576.705	326.65
577.129	270.48
577.552	314.95
577.976	343.03
578.399	310.27
578.822	300.91
579.245	268.14
579.669	310.27
580.092	314.95
580.515	303.25
580.938	331.33
581.361	319.63
581.784	312.61
582.206	310.27
582.629	331.33
583.052	326.65
583.474	293.88
583.897	307.93
584.32	340.69
584.742	359.42
585.165	286.86
585.587	345.38
586.009	244.73
586.431	340.69
586.854	350.06
587.276	338.35
587.698	277.5
588.12	279.84
588.542	340.69
588.964	312.61
589.386	298.56
589.807	333.67
590.229	366.44
590.651	298.56
591.073	312.61
591.494	328.99
591.916	319.63
592.337	261.12
592.759	319.63
593.18	289.2
593.601	289.2
594.022	340.69
594.444	310.27
594.865	382.82
595.286	282.18
595.707	268.14
596.128	373.46
596.549	312.61
596.97	352.4
597.39	336.01
597.811	319.63
598.232	333.67
598.652	293.88
599.073	314.95
599.494	291.54
599.914	303.25
600.334	361.76
600.755	359.42
601.175	314.95
601.595	307.93
602.015	340.69
602.436	324.31
602.856	387.5
603.276	291.54
603.696	371.12
604.115	312.61
604.535	328.99
604.955	261.12
605.375	312.61
605.794	338.35
606.214	284.52
606.634	303.25
607.053	282.18
607.473	293.88
607.892	336.01
608.311	298.56
608.731	354.74
609.15	312.61
609.569	265.8
609.988	282.18
610.407	361.76
610.826	338.35
611.245	293.88
611.664	359.42
612.083	298.56
612.501	226.01
612.92	265.8
613.339	340.69
613.757	275.16
614.176	291.54
614.594	284.52
615.013	368.78
615.431	345.38
615.85	331.33
616.268	350.06
616.686	387.5
617.104	289.2
617.522	324.31
617.94	326.65
618.358	317.29
618.776	317.29
619.194	352.4
619.612	296.22
620.03	291.54
620.447	347.72
620.865	314.95
621.282	343.03
621.7	338.35
622.117	340.69
622.535	373.46
622.952	291.54
623.369	328.99
623.787	340.69
624.204	293.88
624.621	305.59
625.038	275.16
625.455	312.61
625.872	345.38
626.289	289.2
626.706	343.03
627.123	289.2
627.539	293.88
627.956	338.35
628.373	357.08
628.789	338.35
629.206	343.03
629.622	317.29
630.038	340.69
630.455	336.01
630.871	321.97
631.287	296.22
631.703	385.16
632.12	359.42
632.536	328.99
632.952	326.65
633.368	300.91
633.783	345.38
634.199	256.43
634.615	321.97
635.031	310.27
635.446	298.56
635.862	352.4
636.277	275.16
636.693	326.65
637.108	345.38
637.524	361.76
637.939	375.8
638.354	279.84
638.77	324.31
639.185	338.35
639.6	291.54
640.015	298.56
640.43	296.22
640.845	324.31
641.259	321.97
641.674	289.2
642.089	305.59
642.504	291.54
642.918	277.5
643.333	326.65
643.747	357.08
644.162	277.5
644.576	336.01
644.991	305.59
645.405	375.8
645.819	321.97
646.233	347.72
646.647	305.59
647.061	305.59
647.475	331.33
647.889	284.52
648.303	265.8
648.717	296.22
649.131	347.72
649.545	270.48
649.958	289.2
650.372	326.65
650.785	291.54
651.199	350.06
651.612	328.99
652.026	347.72
652.439	375.8
652.852	312.61
653.266	293.88
653.679	368.78
654.092	307.93
654.505	336.01
654.918	401.55
655.331	279.84
655.744	336.01
656.156	371.12
656.569	357.08
656.982	314.95
657.394	277.5
657.807	286.86
658.22	338.35
658.632	336.01
659.044	291.54
659.457	324.31
659.869	305.59
660.281	307.93
660.693	324.31
661.106	275.16
661.518	272.82
661.93	300.91
662.342	263.46
662.754	347.72
663.165	354.74
663.577	279.84
663.989	336.01
664.401	228.35
664.812	321.97
665.224	282.18
665.635	286.86
666.047	263.46
666.458	275.16
666.869	270.48
667.281	307.93
667.692	328.99
668.103	251.75
668.514	251.75
668.925	328.99
669.336	314.95
669.747	303.25
670.158	324.31
670.569	305.59
670.979	326.65
671.39	272.82
671.801	396.87
672.211	314.95
672.622	352.4
673.032	286.86
673.443	364.1
673.853	251.75
674.263	258.78
674.674	361.76
675.084	272.82
675.494	310.27
675.904	310.27
676.314	333.67
676.724	319.63
677.134	350.06
677.544	331.33
677.953	340.69
678.363	328.99
678.773	392.19
679.182	373.46
679.592	378.14
680.001	279.84
680.411	307.93
680.82	286.86
681.23	291.54
681.639	261.12
682.048	202.6
682.457	291.54
682.866	394.53
683.275	284.52
683.684	328.99
684.093	314.95
684.502	336.01
684.911	261.12
685.32	345.38
685.728	275.16
686.137	244.73
686.546	258.78
686.954	300.91
687.363	263.46
687.771	279.84
688.179	261.12
688.588	300.91
688.996	312.61
689.404	350.06
689.812	333.67
690.22	286.86
690.628	321.97
691.036	312.61
691.444	340.69
691.852	352.4
692.26	296.22
692.667	350.06
693.075	279.84
693.483	289.2
693.89	286.86
694.298	347.72
694.705	233.03
695.112	389.85
695.52	310.27
695.927	310.27
696.334	303.25
696.741	319.63
697.148	314.95
697.555	340.69
697.962	326.65
698.369	317.29
698.776	326.65
699.183	371.12
699.59	340.69
699.996	296.22
700.403	324.31
700.81	314.95
701.216	333.67
701.623	406.23
702.029	300.91
702.435	338.35
702.842	230.69
703.248	305.59
703.654	303.25
704.06	275.16
704.466	331.33
704.872	305.59
705.278	268.14
705.684	284.52
706.09	336.01
706.496	293.88
706.901	352.4
707.307	338.35
707.712	298.56
708.118	310.27
708.523	289.2
708.929	310.27
709.334	350.06
709.74	305.59
710.145	293.88
710.55	296.22
710.955	354.74
711.36	298.56
711.765	314.95
712.17	354.74
712.575	319.63
712.98	801.78
713.385	333.67
713.789	305.59
714.194	314.95
714.599	321.97
715.003	244.73
715.408	343.03
715.812	324.31
716.217	277.5
716.621	307.93
717.025	298.56
717.429	277.5
717.833	296.22
718.238	366.44
718.642	291.54
719.046	310.27
719.449	333.67
719.853	254.09
720.257	298.56
720.661	340.69
721.065	303.25
721.468	258.78
721.872	284.52
722.275	338.35
722.679	420.27
723.082	321.97
723.485	314.95
723.889	326.65
724.292	293.88
724.695	314.95
725.098	354.74
725.501	328.99
725.904	310.27
726.307	265.8
726.71	244.73
727.113	352.4
727.516	317.29
727.918	307.93
728.321	233.03
728.724	331.33
729.126	286.86
729.529	389.85
729.931	254.09
730.333	338.35
730.736	284.52
731.138	328.99
731.54	338.35
731.942	275.16
732.344	307.93
732.746	359.42
733.148	293.88
733.55	321.97
733.952	312.61
734.354	263.46
734.756	289.2
735.157	298.56
735.559	228.35
735.96	242.39
736.362	307.93
736.763	296.22
737.165	282.18
737.566	251.75
737.967	291.54
738.368	347.72
738.77	357.08
739.171	336.01
739.572	249.41
739.973	359.42
740.374	312.61
740.774	359.42
741.175	333.67
741.576	385.16
741.977	321.97
742.377	326.65
742.778	275.16
743.178	328.99
743.579	336.01
743.979	298.56
744.379	282.18
744.78	340.69
745.18	396.87
745.58	343.03
745.98	324.31
746.38	321.97
746.78	336.01
747.18	387.5
747.58	286.86
747.98	277.5
748.38	326.65
748.779	310.27
749.179	251.75
749.578	286.86
749.978	296.22
750.377	319.63
750.777	303.25
751.176	328.99
751.575	272.82
751.975	319.63
752.374	359.42
752.773	317.29
753.172	312.61
753.571	392.19
753.97	270.48
754.369	345.38
754.768	268.14
755.166	303.25
755.565	282.18
755.964	324.31
756.362	258.78
756.761	300.91
757.159	279.84
757.558	214.31
757.956	291.54
758.354	310.27
758.753	298.56
759.151	258.78
759.549	211.96
759.947	345.38
760.345	275.16
760.743	263.46
761.141	300.91
761.539	333.67
761.936	328.99
762.334	354.74
762.732	321.97
763.129	345.38
763.527	300.91
763.924	326.65
764.322	305.59
764.719	321.97
765.117	286.86
765.514	284.52
765.911	300.91
766.308	300.91
766.705	275.16
767.102	361.76
767.499	284.52
767.896	336.01
768.293	279.84
768.69	378.14
769.086	286.86
769.483	345.38
769.88	361.76
770.276	258.78
770.673	321.97
771.069	296.22
771.466	324.31
771.862	305.59
772.258	333.67
772.654	298.56
773.05	338.35
773.447	300.91
773.843	338.35
774.239	277.5
774.634	394.53
775.03	279.84
775.426	359.42
775.822	336.01
776.218	319.63
776.613	326.65
777.009	357.08
777.404	350.06
777.8	244.73
778.195	284.52
778.59	343.03
778.986	340.69
779.381	298.56
779.776	293.88
780.171	340.69
780.566	324.31
780.961	303.25
781.356	347.72
781.751	307.93
782.146	251.75
782.54	314.95
782.935	317.29
783.33	368.78
783.724	286.86
784.119	324.31
784.513	305.59
784.908	268.14
785.302	270.48
785.696	268.14
786.09	319.63
786.485	324.31
786.879	263.46
787.273	352.4
787.667	310.27
788.061	345.38
788.454	286.86
788.848	312.61
789.242	375.8
789.636	256.43
790.029	300.91
790.423	254.09
790.816	279.84
791.21	307.93
791.603	265.8
791.997	270.48
792.39	312.61
792.783	263.46
793.176	277.5
793.569	312.61
793.962	347.72
794.355	331.33
794.748	317.29
795.141	357.08
795.534	289.2
795.927	298.56
796.319	251.75
796.712	286.86
797.105	265.8
797.497	357.08
797.89	296.22
798.282	380.48
798.674	357.08
799.067	284.52
799.459	326.65
799.851	333.67
800.243	328.99
800.635	331.33
801.027	317.29
801.419	338.35
801.811	300.91
802.203	247.07
802.594	350.06
802.986	333.67
803.378	326.65
803.769	293.88
804.161	336.01
804.552	331.33
804.944	380.48
805.335	300.91
805.726	289.2
806.118	324.31
806.509	284.52
806.9	286.86
807.291	406.23
807.682	314.95
808.073	282.18
808.464	336.01
808.855	300.91
809.245	261.12
809.636	319.63
810.027	303.25
810.417	338.35
810.808	307.93
811.198	347.72
811.589	364.1
811.979	298.56
812.369	293.88
812.759	338.35
813.15	336.01
813.54	352.4
813.93	324.31
814.32	326.65
814.71	293.88
815.1	310.27
815.489	300.91
815.879	324.31
816.269	314.95
816.658	261.12
817.048	279.84
817.438	354.74
817.827	324.31
818.216	343.03
818.606	272.82
818.995	240.05
819.384	230.69
819.773	282.18
820.163	333.67
820.552	368.78
820.941	347.72
821.33	361.76
821.718	265.8
822.107	314.95
822.496	326.65
822.885	256.43
823.273	314.95
823.662	382.82
824.05	352.4
824.439	305.59
824.827	307.93
825.216	324.31
825.604	347.72
825.992	357.08
826.38	310.27
826.768	291.54
827.156	324.31
827.544	293.88
827.932	303.25
828.32	312.61
828.708	265.8
829.096	389.85
829.483	293.88
829.871	321.97
830.259	293.88
830.646	289.2
831.034	319.63
831.421	359.42
831.808	331.33
832.196	331.33
832.583	268.14
832.97	321.97
833.357	321.97
833.744	359.42
834.131	279.84
834.518	324.31
834.905	307.93
835.292	303.25
835.678	289.2
836.065	366.44
836.452	319.63
836.838	286.86
837.225	275.16
837.611	371.12
837.998	303.25
838.384	331.33
838.77	296.22
839.157	289.2
839.543	291.54
839.929	284.52
840.315	307.93
840.701	338.35
841.087	324.31
841.473	321.97
841.858	321.97
842.244	371.12
842.63	298.56
843.015	324.31
843.401	635.6
843.787	298.56
844.172	310.27
844.557	305.59
844.943	291.54
845.328	347.72
845.713	319.63
846.098	336.01
846.483	324.31
846.868	284.52
847.253	293.88
847.638	326.65
848.023	338.35
848.408	352.4
848.793	321.97
849.177	275.16
849.562	277.5
849.947	279.84
850.331	291.54
850.715	340.69
851.1	317.29
851.484	286.86
851.868	254.09
852.253	331.33
852.637	289.2
853.021	300.91
853.405	324.31
853.789	359.42
854.173	298.56
854.557	352.4
854.94	326.65
855.324	291.54
855.708	373.46
856.091	282.18
856.475	272.82
856.858	333.67
857.242	242.39
857.625	319.63
858.009	378.14
858.392	270.48
858.775	226.01
859.158	314.95
859.541	331.33
859.924	307.93
860.307	310.27
860.69	336.01
861.073	319.63
861.456	350.06
861.838	305.59
862.221	251.75
862.604	296.22
862.986	303.25
863.369	307.93
863.751	277.5
864.133	263.46
864.516	286.86
864.898	256.43
865.28	328.99
865.662	361.76
866.044	275.16
866.426	314.95
866.808	303.25
867.19	340.69
867.572	277.5
867.954	279.84
868.336	249.41
868.717	345.38
869.099	270.48
869.48	268.14
869.862	319.63
870.243	310.27
870.625	268.14
871.006	249.41
871.387	268.14
871.768	293.88
872.149	312.61
872.53	310.27
872.911	310.27
873.292	324.31
873.673	359.42
874.054	350.06
874.435	265.8
874.815	289.2
875.196	352.4
875.577	368.78
875.957	228.35
876.338	326.65
876.718	371.12
877.098	366.44
877.479	331.33
877.859	350.06
878.239	286.86
878.619	305.59
878.999	275.16
879.379	354.74
879.759	354.74
880.139	361.76
880.519	324.31
880.898	317.29
881.278	310.27
881.658	314.95
882.037	282.18
882.417	310.27
882.796	296.22
883.176	345.38
883.555	286.86
883.934	321.97
884.313	307.93
884.693	347.72
885.072	305.59
885.451	366.44
885.83	354.74
886.209	333.67
886.587	307.93
886.966	343.03
887.345	331.33
887.724	291.54
888.102	310.27
888.481	324.31
888.859	319.63
889.238	293.88
889.616	307.93
889.994	321.97
890.373	314.95
890.751	312.61
891.129	284.52
891.507	268.14
891.885	279.84
892.263	277.5
892.641	340.69
893.019	336.01
893.396	240.05
893.774	268.14
894.152	324.31
894.529	256.43
894.907	361.76
895.284	375.8
895.662	361.76
896.039	352.4
896.416	354.74
896.794	305.59
897.171	303.25
897.548	282.18
897.925	319.63
898.302	300.91
898.679	361.76
899.056	336.01
899.433	321.97
899.809	312.61
900.186	336.01
900.563	277.5
900.939	296.22
901.316	331.33
901.692	350.06
902.069	277.5
902.445	328.99
902.821	343.03
903.197	247.07
903.574	336.01
903.95	314.95
904.326	359.42
904.702	277.5
905.078	312.61
905.454	333.67
905.829	277.5
906.205	298.56
906.581	235.37
906.956	251.75
907.332	305.59
907.707	366.44
908.083	343.03
908.458	359.42
908.833	296.22
909.209	314.95
909.584	279.84
909.959	277.5
910.334	265.8
910.709	291.54
911.084	314.95
911.459	277.5
911.834	258.78
912.209	303.25
912.583	331.33
912.958	319.63
913.333	286.86
913.707	380.48
914.082	265.8
914.456	214.31
914.83	289.2
915.205	366.44
915.579	272.82
915.953	321.97
916.327	403.89
916.701	343.03
917.075	317.29
917.449	284.52
917.823	326.65
918.197	321.97
918.571	296.22
918.944	333.67
919.318	303.25
919.692	296.22
920.065	317.29
920.438	333.67
920.812	352.4
921.185	279.84
921.558	286.86
921.932	361.76
922.305	366.44
922.678	291.54
923.051	310.27
923.424	347.72
923.797	380.48
924.17	298.56
924.542	340.69
924.915	317.29
925.288	307.93
925.661	357.08
926.033	319.63
926.406	326.65
926.778	343.03
927.15	357.08
927.523	340.69
927.895	293.88
928.267	319.63
928.639	343.03
929.011	247.07
929.383	350.06
929.755	350.06
930.127	312.61
930.499	361.76
930.871	223.67
931.242	307.93
931.614	359.42
931.986	298.56
932.357	380.48
932.729	319.63
933.1	319.63
933.471	331.33
933.843	319.63
934.214	314.95
934.585	368.78
934.956	289.2
935.327	321.97
935.698	298.56
936.069	343.03
936.44	303.25
936.811	314.95
937.182	321.97
937.552	291.54
937.923	314.95
938.293	331.33
938.664	286.86
939.034	298.56
939.405	270.48
939.775	286.86
940.145	284.52
940.516	282.18
940.886	272.82
941.256	249.41
941.626	314.95
941.996	256.43
942.366	317.29
942.735	321.97
943.105	296.22
943.475	343.03
943.845	261.12
944.214	347.72
944.584	312.61
944.953	254.09
945.323	286.86
945.692	272.82
946.061	312.61
946.43	312.61
946.8	317.29
947.169	291.54
947.538	289.2
947.907	284.52
948.276	317.29
948.645	314.95
949.013	298.56
949.382	314.95
949.751	298.56
950.119	310.27
950.488	244.73
950.857	314.95
951.225	333.67
951.593	282.18
951.962	317.29
952.33	317.29
952.698	333.67
953.066	296.22
953.434	261.12
953.802	310.27
954.17	291.54
954.538	305.59
954.906	286.86
955.274	338.35
955.642	317.29
956.009	307.93
956.377	258.78
956.744	254.09
957.112	307.93
957.479	291.54
957.847	282.18
958.214	268.14
958.581	289.2
958.948	338.35
959.315	336.01
959.683	293.88
960.05	328.99
960.416	328.99
960.783	307.93
961.15	328.99
961.517	312.61
961.884	326.65
962.25	279.84
962.617	385.16
962.983	354.74
963.35	350.06
963.716	300.91
964.082	319.63
964.449	261.12
964.815	305.59
965.181	312.61
965.547	261.12
965.913	284.52
966.279	347.72
966.645	333.67
967.011	359.42
967.377	347.72
967.742	307.93
968.108	293.88
968.474	333.67
968.839	298.56
969.205	228.35
969.57	300.91
969.935	303.25
970.301	352.4
970.666	347.72
971.031	293.88
971.396	317.29
971.761	265.8
972.126	286.86
972.491	307.93
972.856	336.01
973.221	375.8
973.586	275.16
973.95	305.59
974.315	394.53
974.679	338.35
975.044	331.33
975.408	321.97
975.773	310.27
976.137	340.69
976.501	307.93
976.866	293.88
977.23	340.69
977.594	270.48
977.958	326.65
978.322	277.5
978.686	350.06
979.049	293.88
979.413	357.08
979.777	385.16
980.141	314.95
980.504	378.14
980.868	354.74
981.231	289.2
981.595	261.12
981.958	319.63
982.321	247.07
982.684	254.09
983.048	352.4
983.411	282.18
983.774	303.25
984.137	284.52
984.5	410.91
984.862	254.09
985.225	312.61
985.588	340.69
985.951	289.2
986.313	296.22
986.676	364.1
987.038	364.1
987.401	326.65
987.763	357.08
988.125	305.59
988.488	282.18
988.85	314.95
989.212	235.37
989.574	298.56
989.936	343.03
990.298	307.93
990.66	343.03
991.022	298.56
991.383	300.91
991.745	319.63
992.107	314.95
992.468	399.21
992.83	347.72
993.191	303.25
993.553	307.93
993.914	277.5
994.275	324.31
994.637	307.93
994.998	284.52
995.359	347.72
995.72	286.86
996.081	375.8
996.442	314.95
996.803	279.84
997.163	307.93
997.524	258.78
997.885	275.16
998.245	296.22
998.606	282.18
998.966	300.91
999.327	277.5
999.687	289.2
1000.047	291.54
1000.408	298.56
1000.768	312.61
1001.128	305.59
1001.488	319.63
1001.848	251.75
1002.208	286.86
1002.568	293.88
1002.927	296.22
1003.287	317.29
1003.647	328.99
1004.007	235.37
1004.366	242.39
1004.726	300.91
1005.085	333.67
1005.444	284.52
1005.804	270.48
1006.163	319.63
1006.522	307.93
1006.881	375.8
1007.24	359.42
1007.599	249.41
1007.958	368.78
1008.317	291.54
1008.676	307.93
1009.035	317.29
1009.393	296.22
1009.752	279.84
1010.111	321.97
1010.469	272.82
1010.828	291.54
1011.186	263.46
1011.544	300.91
1011.903	251.75
1012.261	359.42
1012.619	303.25
1012.977	326.65
1013.335	242.39
1013.693	305.59
1014.051	242.39
1014.409	279.84
1014.767	286.86
1015.124	263.46
1015.482	338.35
1015.84	263.46
1016.197	244.73
1016.555	366.44
1016.912	270.48
1017.269	326.65
1017.627	387.5
1017.984	298.56
1018.341	279.84
1018.698	258.78
1019.055	328.99
1019.412	256.43
1019.769	249.41
1020.126	291.54
1020.483	366.44
1020.84	312.61
1021.196	354.74
1021.553	305.59
1021.909	303.25
1022.266	312.61
1022.622	284.52
1022.979	333.67
1023.335	361.76
1023.691	261.12
1024.047	303.25
1024.404	275.16
1024.76	333.67
1025.116	268.14
1025.472	254.09
1025.827	331.33
1026.183	359.42
1026.539	277.5
1026.895	314.95
1027.25	298.56
1027.606	284.52
1027.961	350.06
1028.317	291.54
1028.672	296.22
1029.028	296.22
1029.383	326.65
1029.738	340.69
1030.093	298.56
1030.448	296.22
1030.803	296.22
1031.158	296.22
1031.513	270.48
1031.868	380.48
1032.223	314.95
1032.577	272.82
1032.932	296.22
1033.287	338.35
1033.641	343.03
1033.996	258.78
1034.35	336.01
1034.704	240.05
1035.059	289.2
1035.413	324.31
1035.767	324.31
1036.121	324.31
