Data from Al_FLMS009871__923__16-19-06-222.txt Node

Date: Fri Mar 08 16:19:06 CST 2024
User: pe5414po
Spectrometer: FLMS00987
Trigger mode: 0
Integration Time (sec): 1.000000E-1
Scans to average: 1
Electric dark correction enabled: true
Nonlinearity correction enabled: false
Boxcar width: 0
XAxis mode: Wavelengths
Number of Pixels in Spectrum: 2048
>>>>>Begin Spectral Data<<<<<
188.938	-109.27
189.409	-109.27
189.879	-109.27
190.349	-118.64
190.819	-74.17
191.29	-71.83
191.76	-90.55
192.23	-48.42
192.7	-67.14
193.17	-123.32
193.64	-57.78
194.109	-57.78
194.579	-17.99
195.049	-22.67
195.519	14.77
195.988	47.54
196.458	66.27
196.927	82.65
197.397	75.63
197.866	108.4
198.336	162.23
198.805	180.95
199.274	206.7
199.744	124.78
200.213	220.74
200.682	180.95
201.151	190.31
201.62	246.49
202.089	293.3
202.558	192.66
203.027	307.34
203.495	288.62
203.964	255.85
204.433	274.57
204.902	351.81
205.37	347.13
205.839	356.49
206.307	283.94
206.776	279.26
207.244	262.87
207.712	283.94
208.181	288.62
208.649	279.26
209.117	290.96
209.585	307.34
210.053	358.83
210.521	276.91
210.989	272.23
211.457	321.38
211.925	248.83
212.393	293.3
212.861	248.83
213.328	354.15
213.796	269.89
214.264	286.28
214.731	251.17
215.199	290.96
215.666	290.96
216.133	244.15
216.601	276.91
217.068	258.19
217.535	330.75
218.003	237.13
218.47	246.49
218.937	267.55
219.404	290.96
219.871	274.57
220.338	241.81
220.805	297.98
221.271	286.28
221.738	218.4
222.205	293.3
222.671	244.15
223.138	314.36
223.605	206.7
224.071	269.89
224.538	265.21
225.004	218.4
225.47	239.47
225.937	269.89
226.403	295.64
226.869	269.89
227.335	251.17
227.801	290.96
228.267	220.74
228.733	276.91
229.199	239.47
229.665	300.32
230.131	218.4
230.597	337.77
231.062	333.09
231.528	305
231.994	241.81
232.459	288.62
232.925	288.62
233.39	314.36
233.856	328.41
234.321	286.28
234.786	295.64
235.252	272.23
235.717	290.96
236.182	297.98
236.647	323.73
237.112	356.49
237.577	246.49
238.042	260.53
238.507	337.77
238.972	375.22
239.436	288.62
239.901	288.62
240.366	314.36
240.83	260.53
241.295	232.44
241.76	230.1
242.224	351.81
242.688	309.68
243.153	281.6
243.617	365.85
244.081	276.91
244.545	281.6
245.01	274.57
245.474	283.94
245.938	260.53
246.402	319.04
246.866	335.43
247.33	321.38
247.793	326.07
248.257	328.41
248.721	283.94
249.185	290.96
249.648	237.13
250.112	258.19
250.575	251.17
251.039	255.85
251.502	293.3
251.965	237.13
252.429	375.22
252.892	295.64
253.355	316.7
253.818	297.98
254.281	279.26
254.744	283.94
255.207	365.85
255.67	295.64
256.133	314.36
256.596	253.51
257.059	269.89
257.522	279.26
257.984	305
258.447	314.36
258.909	283.94
259.372	295.64
259.834	281.6
260.297	361.17
260.759	286.28
261.221	312.02
261.684	333.09
262.146	363.51
262.608	262.87
263.07	295.64
263.532	279.26
263.994	342.45
264.456	290.96
264.918	269.89
265.38	286.28
265.842	300.32
266.303	258.19
266.765	265.21
267.227	309.68
267.688	300.32
268.15	335.43
268.611	272.23
269.072	232.44
269.534	302.66
269.995	297.98
270.456	333.09
270.918	349.47
271.379	290.96
271.84	340.11
272.301	272.23
272.762	253.51
273.223	255.85
273.684	302.66
274.144	260.53
274.605	279.26
275.066	283.94
275.527	312.02
275.987	237.13
276.448	356.49
276.908	286.28
277.369	340.11
277.829	279.26
278.289	297.98
278.75	293.3
279.21	342.45
279.67	354.15
280.13	258.19
280.59	300.32
281.05	274.57
281.51	333.09
281.97	276.91
282.43	244.15
282.89	293.3
283.35	283.94
283.809	347.13
284.269	286.28
284.729	307.34
285.188	312.02
285.648	326.07
286.107	260.53
286.567	365.85
287.026	276.91
287.485	312.02
287.944	323.73
288.404	328.41
288.863	312.02
289.322	328.41
289.781	293.3
290.24	276.91
290.699	307.34
291.158	269.89
291.616	312.02
292.075	354.15
292.534	337.77
292.992	295.64
293.451	370.54
293.91	293.3
294.368	305
294.827	382.24
295.285	375.22
295.743	328.41
296.202	255.85
296.66	309.68
297.118	337.77
297.576	316.7
298.034	307.34
298.492	307.34
298.95	312.02
299.408	269.89
299.866	300.32
300.324	333.09
300.781	370.54
301.239	344.79
301.697	323.73
302.154	302.66
302.612	305
303.069	286.28
303.527	281.6
303.984	281.6
304.441	274.57
304.899	328.41
305.356	337.77
305.813	344.79
306.27	316.7
306.727	424.37
307.184	377.56
307.641	288.62
308.098	305
308.555	248.83
309.012	316.7
309.468	283.94
309.925	323.73
310.382	333.09
310.838	300.32
311.295	370.54
311.751	302.66
312.208	323.73
312.664	356.49
313.12	321.38
313.577	347.13
314.033	316.7
314.489	305
314.945	358.83
315.401	340.11
315.857	260.53
316.313	370.54
316.769	365.85
317.225	288.62
317.681	340.11
318.136	333.09
318.592	258.19
319.048	312.02
319.503	286.28
319.959	340.11
320.414	290.96
320.869	347.13
321.325	321.38
321.78	258.19
322.235	335.43
322.691	316.7
323.146	293.3
323.601	316.7
324.056	323.73
324.511	351.81
324.966	319.04
325.421	372.88
325.875	403.3
326.33	370.54
326.785	365.85
327.24	312.02
327.694	314.36
328.149	363.51
328.603	309.68
329.058	349.47
329.512	302.66
329.966	305
330.421	337.77
330.875	297.98
331.329	283.94
331.783	297.98
332.237	305
332.691	326.07
333.145	286.28
333.599	321.38
334.053	319.04
334.507	379.9
334.96	314.36
335.414	328.41
335.868	279.26
336.321	316.7
336.775	305
337.228	337.77
337.682	312.02
338.135	295.64
338.588	347.13
339.042	361.17
339.495	372.88
339.948	400.96
340.401	375.22
340.854	307.34
341.307	323.73
341.76	370.54
342.213	290.96
342.666	279.26
343.119	290.96
343.571	295.64
344.024	267.55
344.477	237.13
344.929	342.45
345.382	340.11
345.834	356.49
346.287	290.96
346.739	279.26
347.191	351.81
347.644	354.15
348.096	265.21
348.548	396.28
349	314.36
349.452	319.04
349.904	314.36
350.356	251.17
350.808	330.75
351.26	328.41
351.711	316.7
352.163	314.36
352.615	281.6
353.066	297.98
353.518	344.79
353.969	300.32
354.421	328.41
354.872	283.94
355.324	286.28
355.775	347.13
356.226	279.26
356.677	260.53
357.128	372.88
357.579	361.17
358.03	326.07
358.481	351.81
358.932	309.68
359.383	337.77
359.834	379.9
360.285	328.41
360.735	365.85
361.186	344.79
361.637	349.47
362.087	379.9
362.538	349.47
362.988	349.47
363.438	272.23
363.889	274.57
364.339	314.36
364.789	354.15
365.239	297.98
365.689	302.66
366.139	363.51
366.589	328.41
367.039	276.91
367.489	290.96
367.939	340.11
368.389	328.41
368.839	344.79
369.288	295.64
369.738	312.02
370.187	396.28
370.637	340.11
371.086	290.96
371.536	300.32
371.985	354.15
372.434	382.24
372.884	321.38
373.333	344.79
373.782	302.66
374.231	333.09
374.68	314.36
375.129	372.88
375.578	314.36
376.027	330.75
376.475	258.19
376.924	333.09
377.373	305
377.822	300.32
378.27	354.15
378.719	305
379.167	351.81
379.616	347.13
380.064	344.79
380.512	286.28
380.961	309.68
381.409	328.41
381.857	307.34
382.305	351.81
382.753	290.96
383.201	246.49
383.649	326.07
384.097	333.09
384.545	300.32
384.992	344.79
385.44	349.47
385.888	436.07
386.335	347.13
386.783	358.83
387.231	323.73
387.678	316.7
388.125	328.41
388.573	358.83
389.02	344.79
389.467	333.09
389.914	365.85
390.362	340.11
390.809	340.11
391.256	295.64
391.703	356.49
392.15	335.43
392.596	321.38
393.043	316.7
393.49	319.04
393.937	372.88
394.383	365.85
394.83	377.56
395.276	267.55
395.723	335.43
396.169	323.73
396.616	321.38
397.062	274.57
397.508	370.54
397.954	216.06
398.401	305
398.847	312.02
399.293	316.7
399.739	347.13
400.185	382.24
400.631	295.64
401.076	279.26
401.522	328.41
401.968	372.88
402.414	323.73
402.859	389.26
403.305	370.54
403.75	382.24
404.196	323.73
404.641	300.32
405.086	290.96
405.532	286.28
405.977	305
406.422	361.17
406.867	260.53
407.312	386.92
407.757	384.58
408.202	361.17
408.647	323.73
409.092	276.91
409.537	316.7
409.982	326.07
410.426	281.6
410.871	351.81
411.316	323.73
411.76	328.41
412.205	365.85
412.649	372.88
413.093	300.32
413.538	290.96
413.982	274.57
414.426	316.7
414.87	333.09
415.314	340.11
415.758	316.7
416.202	354.15
416.646	431.39
417.09	398.62
417.534	269.89
417.978	356.49
418.421	276.91
418.865	269.89
419.309	300.32
419.752	309.68
420.196	297.98
420.639	337.77
421.083	403.3
421.526	302.66
421.969	288.62
422.412	328.41
422.856	358.83
423.299	312.02
423.742	269.89
424.185	323.73
424.628	307.34
425.071	377.56
425.513	312.02
425.956	347.13
426.399	300.32
426.842	290.96
427.284	386.92
427.727	330.75
428.169	283.94
428.612	312.02
429.054	321.38
429.497	344.79
429.939	302.66
430.381	330.75
430.823	283.94
431.265	344.79
431.707	342.45
432.149	293.3
432.591	283.94
433.033	344.79
433.475	342.45
433.917	333.09
434.359	307.34
434.8	316.7
435.242	286.28
435.684	314.36
436.125	337.77
436.567	309.68
437.008	319.04
437.449	309.68
437.891	365.85
438.332	386.92
438.773	330.75
439.214	372.88
439.656	349.47
440.097	340.11
440.538	288.62
440.978	297.98
441.419	211.38
441.86	274.57
442.301	335.43
442.742	281.6
443.182	361.17
443.623	370.54
444.063	349.47
444.504	300.32
444.944	340.11
445.385	384.58
445.825	295.64
446.265	391.6
446.706	288.62
447.146	237.13
447.586	302.66
448.026	309.68
448.466	319.04
448.906	342.45
449.346	340.11
449.786	358.83
450.225	330.75
450.665	363.51
451.105	342.45
451.544	307.34
451.984	358.83
452.424	307.34
452.863	267.55
453.302	347.13
453.742	365.85
454.181	316.7
454.62	333.09
455.059	337.77
455.499	335.43
455.938	335.43
456.377	351.81
456.816	333.09
457.254	354.15
457.693	276.91
458.132	244.15
458.571	370.54
459.01	319.04
459.448	347.13
459.887	286.28
460.325	307.34
460.764	351.81
461.202	419.69
461.641	316.7
462.079	375.22
462.517	272.23
462.955	309.68
463.393	370.54
463.832	375.22
464.27	297.98
464.708	312.02
465.145	415.01
465.583	356.49
466.021	316.7
466.459	347.13
466.897	330.75
467.334	368.2
467.772	372.88
468.209	347.13
468.647	316.7
469.084	312.02
469.522	321.38
469.959	314.36
470.396	297.98
470.833	328.41
471.271	349.47
471.708	335.43
472.145	323.73
472.582	295.64
473.019	326.07
473.456	330.75
473.892	286.28
474.329	323.73
474.766	272.23
475.202	314.36
475.639	288.62
476.076	300.32
476.512	309.68
476.949	288.62
477.385	342.45
477.821	309.68
478.258	354.15
478.694	335.43
479.13	337.77
479.566	365.85
480.002	326.07
480.438	319.04
480.874	286.28
481.31	340.11
481.746	326.07
482.181	305
482.617	349.47
483.053	351.81
483.488	293.3
483.924	347.13
484.36	347.13
484.795	302.66
485.23	356.49
485.666	312.02
486.101	326.07
486.536	368.2
486.971	326.07
487.407	330.75
487.842	265.21
488.277	300.32
488.712	255.85
489.146	258.19
489.581	330.75
490.016	330.75
490.451	269.89
490.885	372.88
491.32	314.36
491.755	312.02
492.189	274.57
492.624	384.58
493.058	333.09
493.492	319.04
493.927	344.79
494.361	312.02
494.795	340.11
495.229	309.68
495.663	326.07
496.097	272.23
496.531	297.98
496.965	344.79
497.399	349.47
497.833	314.36
498.266	358.83
498.7	342.45
499.134	309.68
499.567	321.38
500.001	319.04
500.434	260.53
500.868	351.81
501.301	326.07
501.734	316.7
502.168	344.79
502.601	351.81
503.034	309.68
503.467	361.17
503.9	323.73
504.333	384.58
504.766	230.1
505.199	363.51
505.632	412.67
506.064	314.36
506.497	237.13
506.93	272.23
507.362	319.04
507.795	297.98
508.227	258.19
508.66	260.53
509.092	312.02
509.524	335.43
509.956	276.91
510.389	351.81
510.821	295.64
511.253	321.38
511.685	337.77
512.117	290.96
512.549	314.36
512.981	281.6
513.412	321.38
513.844	340.11
514.276	293.3
514.707	337.77
515.139	330.75
515.571	321.38
516.002	326.07
516.433	265.21
516.865	288.62
517.296	297.98
517.727	400.96
518.159	314.36
518.59	382.24
519.021	356.49
519.452	328.41
519.883	333.09
520.314	290.96
520.744	342.45
521.175	354.15
521.606	372.88
522.037	295.64
522.467	377.56
522.898	365.85
523.328	305
523.759	347.13
524.189	337.77
524.62	340.11
525.05	340.11
525.48	314.36
525.91	340.11
526.341	326.07
526.771	237.13
527.201	288.62
527.631	337.77
528.061	349.47
528.49	286.28
528.92	288.62
529.35	347.13
529.78	321.38
530.209	372.88
530.639	328.41
531.068	295.64
531.498	302.66
531.927	335.43
532.357	276.91
532.786	283.94
533.215	347.13
533.644	386.92
534.074	305
534.503	356.49
534.932	354.15
535.361	312.02
535.79	335.43
536.218	305
536.647	354.15
537.076	295.64
537.505	349.47
537.933	337.77
538.362	286.28
538.79	393.94
539.219	333.09
539.647	302.66
540.076	312.02
540.504	379.9
540.932	279.26
541.36	286.28
541.788	312.02
542.217	349.47
542.645	342.45
543.073	351.81
543.5	314.36
543.928	321.38
544.356	279.26
544.784	342.45
545.211	361.17
545.639	347.13
546.067	326.07
546.494	328.41
546.922	370.54
547.349	305
547.776	330.75
548.204	328.41
548.631	344.79
549.058	351.81
549.485	272.23
549.912	349.47
550.339	316.7
550.766	342.45
551.193	370.54
551.62	335.43
552.047	302.66
552.474	333.09
552.9	323.73
553.327	286.28
553.754	347.13
554.18	312.02
554.607	295.64
555.033	305
555.459	384.58
555.886	307.34
556.312	316.7
556.738	309.68
557.164	319.04
557.59	400.96
558.016	365.85
558.442	258.19
558.868	321.38
559.294	344.79
559.72	365.85
560.145	372.88
560.571	305
560.997	274.57
561.422	267.55
561.848	274.57
562.273	384.58
562.699	323.73
563.124	382.24
563.549	323.73
563.974	321.38
564.4	372.88
564.825	309.68
565.25	319.04
565.675	319.04
566.1	283.94
566.525	351.81
566.95	340.11
567.374	293.3
567.799	335.43
568.224	279.26
568.648	258.19
569.073	288.62
569.497	307.34
569.922	356.49
570.346	356.49
570.771	300.32
571.195	314.36
571.619	337.77
572.043	340.11
572.467	297.98
572.891	354.15
573.315	351.81
573.739	302.66
574.163	297.98
574.587	365.85
575.011	333.09
575.435	300.32
575.858	354.15
576.282	262.87
576.705	274.57
577.129	356.49
577.552	344.79
577.976	323.73
578.399	368.2
578.822	349.47
579.245	335.43
579.669	342.45
580.092	342.45
580.515	344.79
580.938	396.28
581.361	328.41
581.784	290.96
582.206	351.81
582.629	239.47
583.052	297.98
583.474	293.3
583.897	251.17
584.32	305
584.742	351.81
585.165	407.98
585.587	316.7
586.009	384.58
586.431	314.36
586.854	323.73
587.276	389.26
587.698	356.49
588.12	363.51
588.542	337.77
588.964	379.9
589.386	286.28
589.807	312.02
590.229	239.47
590.651	316.7
591.073	314.36
591.494	276.91
591.916	326.07
592.337	417.35
592.759	314.36
593.18	365.85
593.601	290.96
594.022	333.09
594.444	272.23
594.865	337.77
595.286	297.98
595.707	415.01
596.128	365.85
596.549	316.7
596.97	354.15
597.39	319.04
597.811	316.7
598.232	297.98
598.652	328.41
599.073	328.41
599.494	330.75
599.914	319.04
600.334	295.64
600.755	330.75
601.175	386.92
601.595	340.11
602.015	283.94
602.436	342.45
602.856	429.05
603.276	283.94
603.696	396.28
604.115	330.75
604.535	253.51
604.955	319.04
605.375	358.83
605.794	265.21
606.214	297.98
606.634	330.75
607.053	358.83
607.473	312.02
607.892	302.66
608.311	314.36
608.731	335.43
609.15	293.3
609.569	307.34
609.988	349.47
610.407	347.13
610.826	351.81
611.245	330.75
611.664	314.36
612.083	307.34
612.501	265.21
612.92	370.54
613.339	326.07
613.757	328.41
614.176	319.04
614.594	377.56
615.013	356.49
615.431	323.73
615.85	368.2
616.268	293.3
616.686	297.98
617.104	349.47
617.522	305
617.94	354.15
618.358	330.75
618.776	290.96
619.194	326.07
619.612	319.04
620.03	309.68
620.447	386.92
620.865	400.96
621.282	393.94
621.7	312.02
622.117	358.83
622.535	377.56
622.952	319.04
623.369	316.7
623.787	307.34
624.204	358.83
624.621	391.6
625.038	312.02
625.455	365.85
625.872	328.41
626.289	302.66
626.706	351.81
627.123	415.01
627.539	349.47
627.956	279.26
628.373	368.2
628.789	347.13
629.206	349.47
629.622	279.26
630.038	314.36
630.455	274.57
630.871	283.94
631.287	372.88
631.703	337.77
632.12	319.04
632.536	354.15
632.952	307.34
633.368	281.6
633.783	358.83
634.199	307.34
634.615	328.41
635.031	295.64
635.446	312.02
635.862	279.26
636.277	309.68
636.693	396.28
637.108	347.13
637.524	358.83
637.939	337.77
638.354	316.7
638.77	363.51
639.185	363.51
639.6	386.92
640.015	372.88
640.43	328.41
640.845	356.49
641.259	309.68
641.674	302.66
642.089	314.36
642.504	312.02
642.918	288.62
643.333	321.38
643.747	386.92
644.162	295.64
644.576	307.34
644.991	305
645.405	326.07
645.819	349.47
646.233	295.64
646.647	309.68
647.061	300.32
647.475	314.36
647.889	382.24
648.303	286.28
648.717	354.15
649.131	377.56
649.545	333.09
649.958	309.68
650.372	370.54
650.785	393.94
651.199	335.43
651.612	356.49
652.026	288.62
652.439	342.45
652.852	340.11
653.266	403.3
653.679	363.51
654.092	305
654.505	337.77
654.918	326.07
655.331	386.92
655.744	258.19
656.156	319.04
656.569	312.02
656.982	342.45
657.394	335.43
657.807	319.04
658.22	354.15
658.632	415.01
659.044	398.62
659.457	286.28
659.869	316.7
660.281	286.28
660.693	297.98
661.106	248.83
661.518	253.51
661.93	281.6
662.342	305
662.754	356.49
663.165	351.81
663.577	340.11
663.989	312.02
664.401	286.28
664.812	335.43
665.224	314.36
665.635	312.02
666.047	349.47
666.458	333.09
666.869	347.13
667.281	375.22
667.692	382.24
668.103	335.43
668.514	281.6
668.925	269.89
669.336	349.47
669.747	309.68
670.158	309.68
670.569	288.62
670.979	379.9
671.39	312.02
671.801	349.47
672.211	260.53
672.622	323.73
673.032	328.41
673.443	358.83
673.853	269.89
674.263	314.36
674.674	379.9
675.084	307.34
675.494	349.47
675.904	365.85
676.314	328.41
676.724	337.77
677.134	342.45
677.544	321.38
677.953	255.85
678.363	326.07
678.773	358.83
679.182	342.45
679.592	297.98
680.001	269.89
680.411	290.96
680.82	326.07
681.23	262.87
681.639	305
682.048	347.13
682.457	316.7
682.866	309.68
683.275	335.43
683.684	295.64
684.093	302.66
684.502	323.73
684.911	288.62
685.32	323.73
685.728	319.04
686.137	260.53
686.546	347.13
686.954	365.85
687.363	272.23
687.771	330.75
688.179	314.36
688.588	283.94
688.996	354.15
689.404	307.34
689.812	349.47
690.22	314.36
690.628	307.34
691.036	305
691.444	379.9
691.852	307.34
692.26	351.81
692.667	272.23
693.075	328.41
693.483	262.87
693.89	300.32
694.298	333.09
694.705	316.7
695.112	340.11
695.52	279.26
695.927	274.57
696.334	351.81
696.741	319.04
697.148	316.7
697.555	290.96
697.962	354.15
698.369	272.23
698.776	377.56
699.183	403.3
699.59	312.02
699.996	379.9
700.403	274.57
700.81	386.92
701.216	330.75
701.623	326.07
702.029	314.36
702.435	288.62
702.842	377.56
703.248	269.89
703.654	295.64
704.06	347.13
704.466	328.41
704.872	335.43
705.278	342.45
705.684	323.73
706.09	269.89
706.496	307.34
706.901	276.91
707.307	295.64
707.712	290.96
708.118	286.28
708.523	309.68
708.929	333.09
709.334	337.77
709.74	293.3
710.145	361.17
710.55	297.98
710.955	295.64
711.36	335.43
711.765	316.7
712.17	309.68
712.575	290.96
712.98	824.6
713.385	314.36
713.789	347.13
714.194	372.88
714.599	260.53
715.003	368.2
715.408	328.41
715.812	349.47
716.217	262.87
716.621	323.73
717.025	274.57
717.429	335.43
717.833	335.43
718.238	316.7
718.642	347.13
719.046	340.11
719.449	286.28
719.853	314.36
720.257	356.49
720.661	302.66
721.065	326.07
721.468	323.73
721.872	267.55
722.275	288.62
722.679	321.38
723.082	267.55
723.485	319.04
723.889	337.77
724.292	351.81
724.695	241.81
725.098	365.85
725.501	297.98
725.904	312.02
726.307	267.55
726.71	328.41
727.113	326.07
727.516	342.45
727.918	363.51
728.321	375.22
728.724	307.34
729.126	300.32
729.529	314.36
729.931	300.32
730.333	344.79
730.736	295.64
731.138	302.66
731.54	333.09
731.942	293.3
732.344	276.91
732.746	290.96
733.148	358.83
733.55	351.81
733.952	274.57
734.354	328.41
734.756	288.62
735.157	326.07
735.559	333.09
735.96	354.15
736.362	312.02
736.763	314.36
737.165	314.36
737.566	328.41
737.967	267.55
738.368	335.43
738.77	333.09
739.171	314.36
739.572	321.38
739.973	309.68
740.374	244.15
740.774	305
741.175	351.81
741.576	335.43
741.977	302.66
742.377	265.21
742.778	347.13
743.178	356.49
743.579	290.96
743.979	335.43
744.379	447.77
744.78	283.94
745.18	288.62
745.58	330.75
745.98	356.49
746.38	347.13
746.78	330.75
747.18	328.41
747.58	288.62
747.98	283.94
748.38	316.7
748.779	363.51
749.179	316.7
749.578	305
749.978	344.79
750.377	361.17
750.777	295.64
751.176	248.83
751.575	323.73
751.975	328.41
752.374	319.04
752.773	389.26
753.172	323.73
753.571	337.77
753.97	368.2
754.369	326.07
754.768	290.96
755.166	342.45
755.565	302.66
755.964	340.11
756.362	314.36
756.761	330.75
757.159	379.9
757.558	293.3
757.956	372.88
758.354	365.85
758.753	358.83
759.151	319.04
759.549	368.2
759.947	319.04
760.345	330.75
760.743	354.15
761.141	316.7
761.539	340.11
761.936	335.43
762.334	340.11
762.732	267.55
763.129	393.94
763.527	283.94
763.924	351.81
764.322	316.7
764.719	262.87
765.117	358.83
765.514	312.02
765.911	305
766.308	286.28
766.705	326.07
767.102	354.15
767.499	330.75
767.896	323.73
768.293	375.22
768.69	262.87
769.086	262.87
769.483	297.98
769.88	389.26
770.276	312.02
770.673	293.3
771.069	335.43
771.466	305
771.862	305
772.258	377.56
772.654	340.11
773.05	323.73
773.447	319.04
773.843	333.09
774.239	316.7
774.634	326.07
775.03	323.73
775.426	288.62
775.822	309.68
776.218	379.9
776.613	319.04
777.009	314.36
777.404	290.96
777.8	382.24
778.195	314.36
778.59	326.07
778.986	319.04
779.381	326.07
779.776	337.77
780.171	333.09
780.566	295.64
780.961	297.98
781.356	323.73
781.751	246.49
782.146	375.22
782.54	370.54
782.935	337.77
783.33	305
783.724	293.3
784.119	368.2
784.513	323.73
784.908	358.83
785.302	314.36
785.696	316.7
786.09	260.53
786.485	314.36
786.879	340.11
787.273	286.28
787.667	305
788.061	290.96
788.454	361.17
788.848	354.15
789.242	328.41
789.636	323.73
790.029	340.11
790.423	295.64
790.816	342.45
791.21	321.38
791.603	290.96
791.997	344.79
792.39	361.17
792.783	365.85
793.176	237.13
793.569	358.83
793.962	276.91
794.355	384.58
794.748	316.7
795.141	302.66
795.534	335.43
795.927	309.68
796.319	340.11
796.712	365.85
797.105	302.66
797.497	337.77
797.89	321.38
798.282	321.38
798.674	316.7
799.067	326.07
799.459	340.11
799.851	349.47
800.243	297.98
800.635	337.77
801.027	314.36
801.419	358.83
801.811	326.07
802.203	342.45
802.594	344.79
802.986	290.96
803.378	326.07
803.769	276.91
804.161	276.91
804.552	314.36
804.944	368.2
805.335	295.64
805.726	328.41
806.118	262.87
806.509	347.13
806.9	274.57
807.291	276.91
807.682	335.43
808.073	330.75
808.464	354.15
808.855	330.75
809.245	281.6
809.636	267.55
810.027	326.07
810.417	351.81
810.808	377.56
811.198	288.62
811.589	370.54
811.979	337.77
812.369	309.68
812.759	363.51
813.15	300.32
813.54	370.54
813.93	293.3
814.32	297.98
814.71	300.32
815.1	326.07
815.489	300.32
815.879	335.43
816.269	314.36
816.658	340.11
817.048	356.49
817.438	344.79
817.827	281.6
818.216	309.68
818.606	316.7
818.995	344.79
819.384	351.81
819.773	321.38
820.163	330.75
820.552	309.68
820.941	305
821.33	319.04
821.718	321.38
822.107	354.15
822.496	354.15
822.885	389.26
823.273	372.88
823.662	344.79
824.05	286.28
824.439	286.28
824.827	272.23
825.216	384.58
825.604	314.36
825.992	309.68
826.38	337.77
826.768	349.47
827.156	265.21
827.544	295.64
827.932	363.51
828.32	288.62
828.708	307.34
829.096	307.34
829.483	286.28
829.871	281.6
830.259	347.13
830.646	300.32
831.034	351.81
831.421	370.54
831.808	358.83
832.196	349.47
832.583	330.75
832.97	356.49
833.357	305
833.744	344.79
834.131	330.75
834.518	312.02
834.905	321.38
835.292	323.73
835.678	281.6
836.065	344.79
836.452	297.98
836.838	307.34
837.225	328.41
837.611	312.02
837.998	337.77
838.384	314.36
838.77	305
839.157	269.89
839.543	344.79
839.929	316.7
840.315	347.13
840.701	305
841.087	305
841.473	309.68
841.858	333.09
842.244	316.7
842.63	319.04
843.015	389.26
843.401	560.12
843.787	314.36
844.172	262.87
844.557	251.17
844.943	356.49
845.328	267.55
845.713	323.73
846.098	391.6
846.483	333.09
846.868	269.89
847.253	314.36
847.638	389.26
848.023	319.04
848.408	328.41
848.793	286.28
849.177	281.6
849.562	309.68
849.947	312.02
850.331	340.11
850.715	328.41
851.1	349.47
851.484	312.02
851.868	302.66
852.253	307.34
852.637	316.7
853.021	330.75
853.405	316.7
853.789	307.34
854.173	375.22
854.557	267.55
854.94	293.3
855.324	319.04
855.708	328.41
856.091	368.2
856.475	305
856.858	260.53
857.242	293.3
857.625	312.02
858.009	255.85
858.392	333.09
858.775	300.32
859.158	312.02
859.541	283.94
859.924	358.83
860.307	272.23
860.69	354.15
861.073	297.98
861.456	265.21
861.838	377.56
862.221	368.2
862.604	272.23
862.986	365.85
863.369	316.7
863.751	321.38
864.133	297.98
864.516	321.38
864.898	363.51
865.28	361.17
865.662	340.11
866.044	323.73
866.426	363.51
866.808	333.09
867.19	356.49
867.572	293.3
867.954	286.28
868.336	356.49
868.717	328.41
869.099	372.88
869.48	307.34
869.862	347.13
870.243	326.07
870.625	269.89
871.006	347.13
871.387	300.32
871.768	326.07
872.149	384.58
872.53	286.28
872.911	316.7
873.292	297.98
873.673	319.04
874.054	321.38
874.435	309.68
874.815	216.06
875.196	323.73
875.577	335.43
875.957	307.34
876.338	358.83
876.718	349.47
877.098	300.32
877.479	300.32
877.859	323.73
878.239	340.11
878.619	377.56
878.999	349.47
879.379	349.47
879.759	351.81
880.139	283.94
880.519	349.47
880.898	354.15
881.278	330.75
881.658	351.81
882.037	344.79
882.417	419.69
882.796	351.81
883.176	293.3
883.555	351.81
883.934	361.17
884.313	305
884.693	314.36
885.072	326.07
885.451	314.36
885.83	356.49
886.209	286.28
886.587	337.77
886.966	253.51
887.345	361.17
887.724	358.83
888.102	333.09
888.481	340.11
888.859	368.2
889.238	309.68
889.616	302.66
889.994	351.81
890.373	237.13
890.751	307.34
891.129	349.47
891.507	335.43
891.885	328.41
892.263	358.83
892.641	351.81
893.019	358.83
893.396	300.32
893.774	358.83
894.152	232.44
894.529	356.49
894.907	316.7
895.284	302.66
895.662	302.66
896.039	319.04
896.416	326.07
896.794	267.55
897.171	283.94
897.548	232.44
897.925	358.83
898.302	323.73
898.679	337.77
899.056	382.24
899.433	389.26
899.809	316.7
900.186	323.73
900.563	405.64
900.939	300.32
901.316	347.13
901.692	328.41
902.069	314.36
902.445	363.51
902.821	330.75
903.197	316.7
903.574	241.81
903.95	337.77
904.326	258.19
904.702	354.15
905.078	379.9
905.454	309.68
905.829	293.3
906.205	323.73
906.581	370.54
906.956	276.91
907.332	335.43
907.707	358.83
908.083	323.73
908.458	337.77
908.833	314.36
909.209	351.81
909.584	372.88
909.959	300.32
910.334	316.7
910.709	351.81
911.084	300.32
911.459	290.96
911.834	330.75
912.209	347.13
912.583	290.96
912.958	274.57
913.333	344.79
913.707	344.79
914.082	344.79
914.456	293.3
914.83	344.79
915.205	323.73
915.579	347.13
915.953	342.45
916.327	302.66
916.701	333.09
917.075	314.36
917.449	302.66
917.823	305
918.197	307.34
918.571	272.23
918.944	300.32
919.318	312.02
919.692	351.81
920.065	314.36
920.438	312.02
920.812	349.47
921.185	330.75
921.558	333.09
921.932	314.36
922.305	279.26
922.678	288.62
923.051	265.21
923.424	309.68
923.797	384.58
924.17	347.13
924.542	342.45
924.915	307.34
925.288	368.2
925.661	340.11
926.033	302.66
926.406	319.04
926.778	328.41
927.15	391.6
927.523	316.7
927.895	297.98
928.267	269.89
928.639	321.38
929.011	379.9
929.383	286.28
929.755	295.64
930.127	342.45
930.499	335.43
930.871	328.41
931.242	342.45
931.614	267.55
931.986	323.73
932.357	281.6
932.729	260.53
933.1	314.36
933.471	272.23
933.843	333.09
934.214	344.79
934.585	309.68
934.956	300.32
935.327	223.08
935.698	323.73
936.069	342.45
936.44	358.83
936.811	363.51
937.182	347.13
937.552	375.22
937.923	389.26
938.293	321.38
938.664	272.23
939.034	372.88
939.405	340.11
939.775	309.68
940.145	288.62
940.516	288.62
940.886	300.32
941.256	321.38
941.626	302.66
941.996	328.41
942.366	309.68
942.735	358.83
943.105	307.34
943.475	293.3
943.845	307.34
944.214	307.34
944.584	288.62
944.953	365.85
945.323	260.53
945.692	319.04
946.061	347.13
946.43	290.96
946.8	293.3
947.169	365.85
947.538	274.57
947.907	246.49
948.276	340.11
948.645	297.98
949.013	283.94
949.382	307.34
949.751	372.88
950.119	312.02
950.488	319.04
950.857	321.38
951.225	361.17
951.593	319.04
951.962	251.17
952.33	358.83
952.698	335.43
953.066	333.09
953.434	283.94
953.802	267.55
954.17	246.49
954.538	323.73
954.906	281.6
955.274	265.21
955.642	281.6
956.009	340.11
956.377	309.68
956.744	316.7
957.112	302.66
957.479	335.43
957.847	377.56
958.214	340.11
958.581	361.17
958.948	382.24
959.315	314.36
959.683	358.83
960.05	297.98
960.416	333.09
960.783	398.62
961.15	290.96
961.517	293.3
961.884	309.68
962.25	314.36
962.617	295.64
962.983	297.98
963.35	321.38
963.716	354.15
964.082	262.87
964.449	309.68
964.815	323.73
965.181	368.2
965.547	286.28
965.913	269.89
966.279	312.02
966.645	393.94
967.011	363.51
967.377	333.09
967.742	305
968.108	321.38
968.474	330.75
968.839	323.73
969.205	295.64
969.57	305
969.935	297.98
970.301	344.79
970.666	379.9
971.031	314.36
971.396	276.91
971.761	309.68
972.126	323.73
972.491	300.32
972.856	384.58
973.221	328.41
973.586	354.15
973.95	328.41
974.315	246.49
974.679	288.62
975.044	283.94
975.408	305
975.773	316.7
976.137	307.34
976.501	286.28
976.866	312.02
977.23	342.45
977.594	305
977.958	365.85
978.322	300.32
978.686	340.11
979.049	234.78
979.413	281.6
979.777	260.53
980.141	358.83
980.504	344.79
980.868	386.92
981.231	326.07
981.595	351.81
981.958	349.47
982.321	262.87
982.684	349.47
983.048	356.49
983.411	389.26
983.774	302.66
984.137	316.7
984.5	302.66
984.862	344.79
985.225	356.49
985.588	349.47
985.951	365.85
986.313	335.43
986.676	267.55
987.038	293.3
987.401	358.83
987.763	326.07
988.125	225.42
988.488	342.45
988.85	260.53
989.212	326.07
989.574	347.13
989.936	283.94
990.298	351.81
990.66	333.09
991.022	281.6
991.383	307.34
991.745	349.47
992.107	305
992.468	305
992.83	344.79
993.191	305
993.553	340.11
993.914	295.64
994.275	258.19
994.637	342.45
994.998	347.13
995.359	326.07
995.72	347.13
996.081	319.04
996.442	286.28
996.803	340.11
997.163	379.9
997.524	363.51
997.885	372.88
998.245	309.68
998.606	307.34
998.966	225.42
999.327	328.41
999.687	342.45
1000.047	372.88
1000.408	290.96
1000.768	307.34
1001.128	358.83
1001.488	314.36
1001.848	309.68
1002.208	358.83
1002.568	305
1002.927	269.89
1003.287	384.58
1003.647	335.43
1004.007	312.02
1004.366	337.77
1004.726	365.85
1005.085	335.43
1005.444	328.41
1005.804	307.34
1006.163	297.98
1006.522	312.02
1006.881	295.64
1007.24	340.11
1007.599	319.04
1007.958	276.91
1008.317	283.94
1008.676	290.96
1009.035	316.7
1009.393	354.15
1009.752	305
1010.111	330.75
1010.469	349.47
1010.828	305
1011.186	290.96
1011.544	272.23
1011.903	241.81
1012.261	330.75
1012.619	342.45
1012.977	316.7
1013.335	386.92
1013.693	295.64
1014.051	265.21
1014.409	309.68
1014.767	290.96
1015.124	297.98
1015.482	319.04
1015.84	368.2
1016.197	312.02
1016.555	246.49
1016.912	356.49
1017.269	335.43
1017.627	335.43
1017.984	316.7
1018.341	326.07
1018.698	312.02
1019.055	262.87
1019.412	290.96
1019.769	347.13
1020.126	309.68
1020.483	279.26
1020.84	330.75
1021.196	283.94
1021.553	358.83
1021.909	382.24
1022.266	290.96
1022.622	400.96
1022.979	307.34
1023.335	321.38
1023.691	328.41
1024.047	316.7
1024.404	253.51
1024.76	309.68
1025.116	297.98
1025.472	297.98
1025.827	407.98
1026.183	330.75
1026.539	260.53
1026.895	351.81
1027.25	295.64
1027.606	300.32
1027.961	358.83
1028.317	295.64
1028.672	365.85
1029.028	365.85
1029.383	288.62
1029.738	382.24
1030.093	375.22
1030.448	316.7
1030.803	283.94
1031.158	365.85
1031.513	323.73
1031.868	274.57
1032.223	300.32
1032.577	340.11
1032.932	358.83
1033.287	333.09
1033.641	344.79
1033.996	260.53
1034.35	321.38
1034.704	302.66
1035.059	276.91
1035.413	361.17
1035.767	361.17
1036.121	361.17
