Data from Al_FLMS009871__927__16-19-06-622.txt Node

Date: Fri Mar 08 16:19:06 CST 2024
User: pe5414po
Spectrometer: FLMS00987
Trigger mode: 0
Integration Time (sec): 1.000000E-1
Scans to average: 1
Electric dark correction enabled: true
Nonlinearity correction enabled: false
Boxcar width: 0
XAxis mode: Wavelengths
Number of Pixels in Spectrum: 2048
>>>>>Begin Spectral Data<<<<<
188.938	-94.21
189.409	-94.21
189.879	-94.21
190.349	-112.93
190.819	-59.1
191.29	-117.61
191.76	-194.85
192.23	-103.57
192.7	-80.16
193.17	-77.82
193.64	-45.06
194.109	-19.31
194.579	50.91
195.049	34.52
195.519	-16.97
195.988	69.63
196.458	102.4
196.927	95.38
197.397	132.83
197.866	41.54
198.336	128.14
198.805	172.61
199.274	186.66
199.744	177.3
200.213	189
200.682	193.68
201.151	221.77
201.62	270.92
202.089	210.06
202.558	280.28
203.027	249.85
203.495	254.53
203.964	284.96
204.433	291.98
204.902	303.68
205.37	348.15
205.839	294.32
206.307	287.3
206.776	242.83
207.244	259.21
207.712	261.55
208.181	338.79
208.649	263.9
209.117	355.18
209.585	282.62
210.053	280.28
210.521	280.28
210.989	289.64
211.457	308.37
211.925	275.6
212.393	219.43
212.861	345.81
213.328	308.37
213.796	214.74
214.264	320.07
214.731	226.45
215.199	280.28
215.666	308.37
216.133	280.28
216.601	275.6
217.068	313.05
217.535	247.51
218.003	308.37
218.47	238.15
218.937	245.17
219.404	203.04
219.871	296.66
220.338	247.51
220.805	306.03
221.271	228.79
221.738	306.03
222.205	273.26
222.671	245.17
223.138	268.58
223.605	226.45
224.071	310.71
224.538	266.24
225.004	256.87
225.47	277.94
225.937	256.87
226.403	322.41
226.869	263.9
227.335	235.81
227.801	291.98
228.267	245.17
228.733	268.58
229.199	242.83
229.665	252.19
230.131	266.24
230.597	224.11
231.062	277.94
231.528	303.68
231.994	266.24
232.459	226.45
232.925	261.55
233.39	296.66
233.856	221.77
234.321	306.03
234.786	322.41
235.252	289.64
235.717	254.53
236.182	315.39
236.647	268.58
237.112	273.26
237.577	289.64
238.042	261.55
238.507	203.04
238.972	235.81
239.436	275.6
239.901	313.05
240.366	238.15
240.83	240.49
241.295	270.92
241.76	259.21
242.224	226.45
242.688	329.43
243.153	310.71
243.617	275.6
244.081	320.07
244.545	270.92
245.01	238.15
245.474	261.55
245.938	235.81
246.402	256.87
246.866	289.64
247.33	240.49
247.793	299
248.257	261.55
248.721	310.71
249.185	313.05
249.648	254.53
250.112	303.68
250.575	280.28
251.039	303.68
251.502	310.71
251.965	266.24
252.429	245.17
252.892	266.24
253.355	282.62
253.818	261.55
254.281	287.3
254.744	256.87
255.207	324.75
255.67	303.68
256.133	284.96
256.596	315.39
257.059	306.03
257.522	291.98
257.984	245.17
258.447	287.3
258.909	338.79
259.372	273.26
259.834	266.24
260.297	308.37
260.759	273.26
261.221	355.18
261.684	252.19
262.146	291.98
262.608	252.19
263.07	242.83
263.532	270.92
263.994	294.32
264.456	294.32
264.918	308.37
265.38	299
265.842	247.51
266.303	240.49
266.765	268.58
267.227	294.32
267.688	261.55
268.15	301.34
268.611	343.47
269.072	296.66
269.534	315.39
269.995	275.6
270.456	313.05
270.918	240.49
271.379	291.98
271.84	324.75
272.301	343.47
272.762	212.4
273.223	380.92
273.684	331.77
274.144	329.43
274.605	320.07
275.066	343.47
275.527	245.17
275.987	287.3
276.448	317.73
276.908	336.45
277.369	334.11
277.829	252.19
278.289	291.98
278.75	303.68
279.21	289.64
279.67	301.34
280.13	294.32
280.59	313.05
281.05	268.58
281.51	289.64
281.97	313.05
282.43	268.58
282.89	310.71
283.35	277.94
283.809	275.6
284.269	338.79
284.729	282.62
285.188	359.86
285.648	315.39
286.107	310.71
286.567	336.45
287.026	313.05
287.485	334.11
287.944	306.03
288.404	303.68
288.863	294.32
289.322	249.85
289.781	287.3
290.24	287.3
290.699	273.26
291.158	366.88
291.616	301.34
292.075	352.84
292.534	352.84
292.992	303.68
293.451	294.32
293.91	275.6
294.368	268.58
294.827	320.07
295.285	287.3
295.743	310.71
296.202	268.58
296.66	291.98
297.118	284.96
297.576	404.33
298.034	317.73
298.492	277.94
298.95	378.58
299.408	352.84
299.866	313.05
300.324	266.24
300.781	291.98
301.239	310.71
301.697	366.88
302.154	282.62
302.612	273.26
303.069	270.92
303.527	322.41
303.984	303.68
304.441	275.6
304.899	383.26
305.356	275.6
305.813	263.9
306.27	291.98
306.727	301.34
307.184	261.55
307.641	273.26
308.098	322.41
308.555	238.15
309.012	299
309.468	317.73
309.925	369.22
310.382	315.39
310.838	348.15
311.295	261.55
311.751	299
312.208	268.58
312.664	315.39
313.12	341.13
313.577	336.45
314.033	336.45
314.489	348.15
314.945	338.79
315.401	287.3
315.857	345.81
316.313	350.5
316.769	317.73
317.225	294.32
317.681	306.03
318.136	299
318.592	320.07
319.048	294.32
319.503	273.26
319.959	268.58
320.414	289.64
320.869	256.87
321.325	366.88
321.78	355.18
322.235	282.62
322.691	280.28
323.146	376.24
323.601	336.45
324.056	308.37
324.511	299
324.966	238.15
325.421	299
325.875	303.68
326.33	270.92
326.785	317.73
327.24	310.71
327.694	322.41
328.149	334.11
328.603	289.64
329.058	294.32
329.512	331.77
329.966	329.43
330.421	273.26
330.875	270.92
331.329	310.71
331.783	324.75
332.237	280.28
332.691	284.96
333.145	313.05
333.599	313.05
334.053	240.49
334.507	284.96
334.96	320.07
335.414	287.3
335.868	310.71
336.321	320.07
336.775	343.47
337.228	299
337.682	310.71
338.135	289.64
338.588	331.77
339.042	306.03
339.495	228.79
339.948	331.77
340.401	214.74
340.854	273.26
341.307	352.84
341.76	254.53
342.213	352.84
342.666	252.19
343.119	303.68
343.571	329.43
344.024	303.68
344.477	287.3
344.929	364.54
345.382	203.04
345.834	327.09
346.287	296.66
346.739	296.66
347.191	322.41
347.644	277.94
348.096	373.9
348.548	357.52
349	320.07
349.452	394.97
349.904	240.49
350.356	289.64
350.808	308.37
351.26	266.24
351.711	331.77
352.163	366.88
352.615	373.9
353.066	299
353.518	282.62
353.969	310.71
354.421	359.86
354.872	341.13
355.324	341.13
355.775	327.09
356.226	308.37
356.677	287.3
357.128	320.07
357.579	324.75
358.03	289.64
358.481	299
358.932	273.26
359.383	322.41
359.834	291.98
360.285	313.05
360.735	331.77
361.186	294.32
361.637	291.98
362.087	359.86
362.538	357.52
362.988	338.79
363.438	352.84
363.889	294.32
364.339	310.71
364.789	373.9
365.239	373.9
365.689	291.98
366.139	310.71
366.589	313.05
367.039	275.6
367.489	308.37
367.939	383.26
368.389	275.6
368.839	338.79
369.288	366.88
369.738	284.96
370.187	280.28
370.637	296.66
371.086	336.45
371.536	327.09
371.985	343.47
372.434	289.64
372.884	277.94
373.333	350.5
373.782	308.37
374.231	390.28
374.68	308.37
375.129	357.52
375.578	334.11
376.027	322.41
376.475	273.26
376.924	336.45
377.373	284.96
377.822	320.07
378.27	324.75
378.719	266.24
379.167	359.86
379.616	324.75
380.064	284.96
380.512	310.71
380.961	320.07
381.409	343.47
381.857	259.21
382.305	306.03
382.753	345.81
383.201	331.77
383.649	324.75
384.097	268.58
384.545	366.88
384.992	284.96
385.44	343.47
385.888	329.43
386.335	343.47
386.783	317.73
387.231	277.94
387.678	343.47
388.125	345.81
388.573	287.3
389.02	327.09
389.467	334.11
389.914	296.66
390.362	317.73
390.809	366.88
391.256	322.41
391.703	338.79
392.15	329.43
392.596	383.26
393.043	341.13
393.49	296.66
393.937	270.92
394.383	224.11
394.83	331.77
395.276	324.75
395.723	277.94
396.169	275.6
396.616	308.37
397.062	263.9
397.508	231.13
397.954	315.39
398.401	268.58
398.847	345.81
399.293	345.81
399.739	334.11
400.185	315.39
400.631	357.52
401.076	341.13
401.522	331.77
401.968	277.94
402.414	357.52
402.859	336.45
403.305	329.43
403.75	390.28
404.196	329.43
404.641	266.24
405.086	289.64
405.532	364.54
405.977	277.94
406.422	327.09
406.867	338.79
407.312	322.41
407.757	327.09
408.202	282.62
408.647	270.92
409.092	299
409.537	343.47
409.982	345.81
410.426	331.77
410.871	294.32
411.316	275.6
411.76	301.34
412.205	280.28
412.649	357.52
413.093	291.98
413.538	273.26
413.982	331.77
414.426	383.26
414.87	299
415.314	378.58
415.758	331.77
416.202	287.3
416.646	322.41
417.09	369.22
417.534	343.47
417.978	287.3
418.421	320.07
418.865	343.47
419.309	245.17
419.752	315.39
420.196	348.15
420.639	303.68
421.083	376.24
421.526	317.73
421.969	329.43
422.412	336.45
422.856	334.11
423.299	284.96
423.742	345.81
424.185	313.05
424.628	350.5
425.071	362.2
425.513	273.26
425.956	308.37
426.399	343.47
426.842	324.75
427.284	352.84
427.727	331.77
428.169	345.81
428.612	296.66
429.054	329.43
429.497	301.34
429.939	366.88
430.381	336.45
430.823	310.71
431.265	331.77
431.707	299
432.149	397.31
432.591	299
433.033	289.64
433.475	399.65
433.917	322.41
434.359	362.2
434.8	308.37
435.242	308.37
435.684	366.88
436.125	380.92
436.567	329.43
437.008	327.09
437.449	397.31
437.891	299
438.332	324.75
438.773	355.18
439.214	303.68
439.656	282.62
440.097	266.24
440.538	343.47
440.978	252.19
441.419	343.47
441.86	299
442.301	291.98
442.742	334.11
443.182	331.77
443.623	348.15
444.063	336.45
444.504	383.26
444.944	357.52
445.385	301.34
445.825	364.54
446.265	313.05
446.706	341.13
447.146	294.32
447.586	284.96
448.026	299
448.466	348.15
448.906	338.79
449.346	310.71
449.786	376.24
450.225	294.32
450.665	331.77
451.105	313.05
451.544	364.54
451.984	331.77
452.424	371.56
452.863	320.07
453.302	315.39
453.742	327.09
454.181	320.07
454.62	324.75
455.059	322.41
455.499	343.47
455.938	373.9
456.377	280.28
456.816	348.15
457.254	380.92
457.693	366.88
458.132	355.18
458.571	270.92
459.01	350.5
459.448	277.94
459.887	336.45
460.325	270.92
460.764	317.73
461.202	357.52
461.641	287.3
462.079	238.15
462.517	322.41
462.955	303.68
463.393	299
463.832	324.75
464.27	296.66
464.708	385.6
465.145	376.24
465.583	289.64
466.021	301.34
466.459	348.15
466.897	270.92
467.334	350.5
467.772	359.86
468.209	345.81
468.647	345.81
469.084	317.73
469.522	249.85
469.959	301.34
470.396	308.37
470.833	387.94
471.271	261.55
471.708	282.62
472.145	224.11
472.582	313.05
473.019	357.52
473.456	341.13
473.892	303.68
474.329	350.5
474.766	366.88
475.202	327.09
475.639	287.3
476.076	306.03
476.512	343.47
476.949	317.73
477.385	289.64
477.821	324.75
478.258	282.62
478.694	310.71
479.13	327.09
479.566	397.31
480.002	259.21
480.438	313.05
480.874	313.05
481.31	294.32
481.746	329.43
482.181	291.98
482.617	362.2
483.053	310.71
483.488	306.03
483.924	345.81
484.36	336.45
484.795	291.98
485.23	266.24
485.666	366.88
486.101	401.99
486.536	336.45
486.971	289.64
487.407	334.11
487.842	266.24
488.277	359.86
488.712	289.64
489.146	299
489.581	376.24
490.016	301.34
490.451	371.56
490.885	331.77
491.32	317.73
491.755	289.64
492.189	284.96
492.624	287.3
493.058	376.24
493.492	317.73
493.927	331.77
494.361	329.43
494.795	282.62
495.229	350.5
495.663	331.77
496.097	376.24
496.531	331.77
496.965	336.45
497.399	348.15
497.833	320.07
498.266	345.81
498.7	348.15
499.134	355.18
499.567	322.41
500.001	252.19
500.434	280.28
500.868	322.41
501.301	261.55
501.734	287.3
502.168	345.81
502.601	284.96
503.034	273.26
503.467	350.5
503.9	380.92
504.333	331.77
504.766	324.75
505.199	299
505.632	380.92
506.064	324.75
506.497	254.53
506.93	296.66
507.362	308.37
507.795	334.11
508.227	343.47
508.66	294.32
509.092	320.07
509.524	303.68
509.956	287.3
510.389	343.47
510.821	334.11
511.253	270.92
511.685	329.43
512.117	329.43
512.549	273.26
512.981	376.24
513.412	350.5
513.844	373.9
514.276	322.41
514.707	308.37
515.139	303.68
515.571	334.11
516.002	313.05
516.433	324.75
516.865	317.73
517.296	348.15
517.727	343.47
518.159	320.07
518.59	357.52
519.021	313.05
519.452	294.32
519.883	338.79
520.314	294.32
520.744	289.64
521.175	366.88
521.606	320.07
522.037	303.68
522.467	315.39
522.898	317.73
523.328	303.68
523.759	355.18
524.189	301.34
524.62	320.07
525.05	313.05
525.48	357.52
525.91	397.31
526.341	299
526.771	355.18
527.201	334.11
527.631	284.96
528.061	343.47
528.49	266.24
528.92	327.09
529.35	315.39
529.78	240.49
530.209	357.52
530.639	343.47
531.068	261.55
531.498	301.34
531.927	404.33
532.357	313.05
532.786	287.3
533.215	299
533.644	341.13
534.074	317.73
534.503	348.15
534.932	352.84
535.361	261.55
535.79	320.07
536.218	294.32
536.647	284.96
537.076	357.52
537.505	364.54
537.933	322.41
538.362	376.24
538.79	296.66
539.219	284.96
539.647	369.22
540.076	287.3
540.504	345.81
540.932	343.47
541.36	320.07
541.788	282.62
542.217	320.07
542.645	350.5
543.073	362.2
543.5	317.73
543.928	331.77
544.356	294.32
544.784	390.28
545.211	287.3
545.639	303.68
546.067	385.6
546.494	306.03
546.922	329.43
547.349	324.75
547.776	343.47
548.204	289.64
548.631	315.39
549.058	392.62
549.485	315.39
549.912	282.62
550.339	322.41
550.766	320.07
551.193	350.5
551.62	338.79
552.047	345.81
552.474	310.71
552.9	350.5
553.327	296.66
553.754	313.05
554.18	317.73
554.607	313.05
555.033	334.11
555.459	394.97
555.886	334.11
556.312	364.54
556.738	376.24
557.164	343.47
557.59	331.77
558.016	390.28
558.442	336.45
558.868	336.45
559.294	404.33
559.72	348.15
560.145	357.52
560.571	383.26
560.997	364.54
561.422	350.5
561.848	317.73
562.273	345.81
562.699	327.09
563.124	327.09
563.549	385.6
563.974	322.41
564.4	359.86
564.825	331.77
565.25	275.6
565.675	336.45
566.1	352.84
566.525	371.56
566.95	338.79
567.374	348.15
567.799	336.45
568.224	329.43
568.648	291.98
569.073	387.94
569.497	359.86
569.922	322.41
570.346	359.86
570.771	373.9
571.195	334.11
571.619	306.03
572.043	273.26
572.467	324.75
572.891	313.05
573.315	291.98
573.739	301.34
574.163	299
574.587	380.92
575.011	282.62
575.435	369.22
575.858	284.96
576.282	331.77
576.705	263.9
577.129	392.62
577.552	334.11
577.976	315.39
578.399	301.34
578.822	289.64
579.245	345.81
579.669	287.3
580.092	273.26
580.515	350.5
580.938	303.68
581.361	313.05
581.784	277.94
582.206	313.05
582.629	296.66
583.052	338.79
583.474	366.88
583.897	282.62
584.32	324.75
584.742	282.62
585.165	303.68
585.587	299
586.009	327.09
586.431	357.52
586.854	303.68
587.276	329.43
587.698	350.5
588.12	317.73
588.542	355.18
588.964	357.52
589.386	341.13
589.807	273.26
590.229	322.41
590.651	355.18
591.073	397.31
591.494	352.84
591.916	303.68
592.337	310.71
592.759	345.81
593.18	338.79
593.601	273.26
594.022	362.2
594.444	299
594.865	270.92
595.286	313.05
595.707	252.19
596.128	329.43
596.549	284.96
596.97	336.45
597.39	320.07
597.811	313.05
598.232	308.37
598.652	320.07
599.073	303.68
599.494	299
599.914	338.79
600.334	327.09
600.755	275.6
601.175	301.34
601.595	261.55
602.015	317.73
602.436	383.26
602.856	399.65
603.276	345.81
603.696	331.77
604.115	331.77
604.535	359.86
604.955	315.39
605.375	275.6
605.794	371.56
606.214	352.84
606.634	324.75
607.053	296.66
607.473	371.56
607.892	296.66
608.311	352.84
608.731	268.58
609.15	352.84
609.569	320.07
609.988	348.15
610.407	343.47
610.826	343.47
611.245	329.43
611.664	387.94
612.083	289.64
612.501	343.47
612.92	310.71
613.339	313.05
613.757	394.97
614.176	359.86
614.594	306.03
615.013	331.77
615.431	315.39
615.85	294.32
616.268	306.03
616.686	277.94
617.104	362.2
617.522	306.03
617.94	324.75
618.358	362.2
618.776	320.07
619.194	329.43
619.612	324.75
620.03	291.98
620.447	315.39
620.865	266.24
621.282	364.54
621.7	385.6
622.117	242.83
622.535	432.41
622.952	348.15
623.369	317.73
623.787	341.13
624.204	327.09
624.621	350.5
625.038	284.96
625.455	359.86
625.872	324.75
626.289	284.96
626.706	315.39
627.123	315.39
627.539	296.66
627.956	235.81
628.373	320.07
628.789	352.84
629.206	324.75
629.622	254.53
630.038	322.41
630.455	331.77
630.871	310.71
631.287	385.6
631.703	313.05
632.12	343.47
632.536	315.39
632.952	317.73
633.368	378.58
633.783	310.71
634.199	306.03
634.615	282.62
635.031	303.68
635.446	334.11
635.862	303.68
636.277	352.84
636.693	341.13
637.108	338.79
637.524	385.6
637.939	306.03
638.354	348.15
638.77	306.03
639.185	322.41
639.6	294.32
640.015	352.84
640.43	308.37
640.845	334.11
641.259	310.71
641.674	357.52
642.089	310.71
642.504	322.41
642.918	282.62
643.333	280.28
643.747	289.64
644.162	308.37
644.576	324.75
644.991	383.26
645.405	331.77
645.819	313.05
646.233	299
646.647	338.79
647.061	313.05
647.475	315.39
647.889	310.71
648.303	313.05
648.717	364.54
649.131	362.2
649.545	376.24
649.958	303.68
650.372	273.26
650.785	331.77
651.199	338.79
651.612	308.37
652.026	277.94
652.439	275.6
652.852	273.26
653.266	341.13
653.679	252.19
654.092	324.75
654.505	348.15
654.918	275.6
655.331	380.92
655.744	317.73
656.156	315.39
656.569	280.28
656.982	315.39
657.394	306.03
657.807	280.28
658.22	348.15
658.632	242.83
659.044	273.26
659.457	301.34
659.869	289.64
660.281	270.92
660.693	313.05
661.106	341.13
661.518	355.18
661.93	341.13
662.342	284.96
662.754	366.88
663.165	329.43
663.577	345.81
663.989	348.15
664.401	343.47
664.812	350.5
665.224	284.96
665.635	289.64
666.047	327.09
666.458	306.03
666.869	362.2
667.281	376.24
667.692	299
668.103	303.68
668.514	306.03
668.925	306.03
669.336	275.6
669.747	336.45
670.158	301.34
670.569	352.84
670.979	287.3
671.39	296.66
671.801	369.22
672.211	327.09
672.622	291.98
673.032	343.47
673.443	366.88
673.853	273.26
674.263	308.37
674.674	336.45
675.084	320.07
675.494	313.05
675.904	280.28
676.314	378.58
676.724	345.81
677.134	313.05
677.544	310.71
677.953	345.81
678.363	334.11
678.773	364.54
679.182	310.71
679.592	303.68
680.001	355.18
680.411	329.43
680.82	256.87
681.23	317.73
681.639	357.52
682.048	313.05
682.457	294.32
682.866	287.3
683.275	308.37
683.684	322.41
684.093	371.56
684.502	348.15
684.911	334.11
685.32	289.64
685.728	291.98
686.137	291.98
686.546	289.64
686.954	324.75
687.363	303.68
687.771	303.68
688.179	322.41
688.588	341.13
688.996	343.47
689.404	409.01
689.812	240.49
690.22	324.75
690.628	352.84
691.036	343.47
691.444	404.33
691.852	329.43
692.26	329.43
692.667	268.58
693.075	334.11
693.483	284.96
693.89	331.77
694.298	336.45
694.705	249.85
695.112	376.24
695.52	287.3
695.927	338.79
696.334	261.55
696.741	376.24
697.148	266.24
697.555	296.66
697.962	256.87
698.369	322.41
698.776	303.68
699.183	287.3
699.59	343.47
699.996	306.03
700.403	329.43
700.81	273.26
701.216	338.79
701.623	301.34
702.029	320.07
702.435	280.28
702.842	303.68
703.248	373.9
703.654	284.96
704.06	308.37
704.466	308.37
704.872	291.98
705.278	247.51
705.684	320.07
706.09	308.37
706.496	261.55
706.901	289.64
707.307	352.84
707.712	303.68
708.118	284.96
708.523	322.41
708.929	350.5
709.334	282.62
709.74	273.26
710.145	338.79
710.55	296.66
710.955	334.11
711.36	294.32
711.765	317.73
712.17	350.5
712.575	338.79
712.98	825.62
713.385	315.39
713.789	364.54
714.194	357.52
714.599	341.13
715.003	294.32
715.408	310.71
715.812	303.68
716.217	280.28
716.621	329.43
717.025	320.07
717.429	313.05
717.833	390.28
718.238	270.92
718.642	345.81
719.046	308.37
719.449	282.62
719.853	301.34
720.257	336.45
720.661	280.28
721.065	266.24
721.468	345.81
721.872	341.13
722.275	313.05
722.679	284.96
723.082	334.11
723.485	219.43
723.889	329.43
724.292	362.2
724.695	324.75
725.098	329.43
725.501	334.11
725.904	299
726.307	338.79
726.71	329.43
727.113	303.68
727.516	254.53
727.918	345.81
728.321	313.05
728.724	256.87
729.126	334.11
729.529	322.41
729.931	345.81
730.333	324.75
730.736	282.62
731.138	315.39
731.54	320.07
731.942	359.86
732.344	324.75
732.746	308.37
733.148	259.21
733.55	313.05
733.952	362.2
734.354	362.2
734.756	299
735.157	343.47
735.559	263.9
735.96	338.79
736.362	315.39
736.763	359.86
737.165	296.66
737.566	373.9
737.967	336.45
738.368	399.65
738.77	273.26
739.171	315.39
739.572	317.73
739.973	308.37
740.374	310.71
740.774	261.55
741.175	296.66
741.576	341.13
741.977	284.96
742.377	303.68
742.778	327.09
743.178	315.39
743.579	348.15
743.979	296.66
744.379	301.34
744.78	331.77
745.18	277.94
745.58	317.73
745.98	348.15
746.38	289.64
746.78	310.71
747.18	315.39
747.58	359.86
747.98	317.73
748.38	224.11
748.779	322.41
749.179	413.69
749.578	324.75
749.978	280.28
750.377	317.73
750.777	282.62
751.176	294.32
751.575	348.15
751.975	369.22
752.374	327.09
752.773	280.28
753.172	254.53
753.571	317.73
753.97	324.75
754.369	303.68
754.768	373.9
755.166	345.81
755.565	313.05
755.964	329.43
756.362	329.43
756.761	369.22
757.159	308.37
757.558	343.47
757.956	378.58
758.354	280.28
758.753	254.53
759.151	313.05
759.549	291.98
759.947	366.88
760.345	266.24
760.743	299
761.141	291.98
761.539	284.96
761.936	336.45
762.334	296.66
762.732	327.09
763.129	317.73
763.527	343.47
763.924	317.73
764.322	334.11
764.719	350.5
765.117	359.86
765.514	334.11
765.911	294.32
766.308	301.34
766.705	296.66
767.102	371.56
767.499	301.34
767.896	306.03
768.293	341.13
768.69	371.56
769.086	315.39
769.483	284.96
769.88	352.84
770.276	315.39
770.673	352.84
771.069	301.34
771.466	385.6
771.862	306.03
772.258	324.75
772.654	362.2
773.05	345.81
773.447	350.5
773.843	357.52
774.239	334.11
774.634	362.2
775.03	252.19
775.426	259.21
775.822	313.05
776.218	324.75
776.613	334.11
777.009	350.5
777.404	291.98
777.8	249.85
778.195	287.3
778.59	306.03
778.986	306.03
779.381	341.13
779.776	282.62
780.171	301.34
780.566	324.75
780.961	348.15
781.356	273.26
781.751	345.81
782.146	284.96
782.54	282.62
782.935	345.81
783.33	313.05
783.724	322.41
784.119	287.3
784.513	331.77
784.908	270.92
785.302	324.75
785.696	334.11
786.09	291.98
786.485	306.03
786.879	284.96
787.273	273.26
787.667	343.47
788.061	359.86
788.454	338.79
788.848	263.9
789.242	322.41
789.636	371.56
790.029	306.03
790.423	345.81
790.816	280.28
791.21	277.94
791.603	287.3
791.997	315.39
792.39	270.92
792.783	317.73
793.176	287.3
793.569	357.52
793.962	343.47
794.355	313.05
794.748	369.22
795.141	418.37
795.534	284.96
795.927	259.21
796.319	343.47
796.712	362.2
797.105	296.66
797.497	338.79
797.89	334.11
798.282	320.07
798.674	291.98
799.067	291.98
799.459	270.92
799.851	334.11
800.243	373.9
800.635	327.09
801.027	317.73
801.419	299
801.811	306.03
802.203	294.32
802.594	364.54
802.986	313.05
803.378	280.28
803.769	268.58
804.161	296.66
804.552	322.41
804.944	380.92
805.335	369.22
805.726	315.39
806.118	310.71
806.509	352.84
806.9	301.34
807.291	399.65
807.682	338.79
808.073	294.32
808.464	357.52
808.855	322.41
809.245	315.39
809.636	308.37
810.027	371.56
810.417	345.81
810.808	329.43
811.198	277.94
811.589	294.32
811.979	338.79
812.369	289.64
812.759	378.58
813.15	348.15
813.54	315.39
813.93	303.68
814.32	284.96
814.71	273.26
815.1	341.13
815.489	273.26
815.879	301.34
816.269	273.26
816.658	336.45
817.048	310.71
817.438	373.9
817.827	322.41
818.216	275.6
818.606	303.68
818.995	355.18
819.384	303.68
819.773	334.11
820.163	282.62
820.552	268.58
820.941	270.92
821.33	371.56
821.718	287.3
822.107	336.45
822.496	306.03
822.885	373.9
823.273	338.79
823.662	315.39
824.05	289.64
824.439	371.56
824.827	261.55
825.216	359.86
825.604	287.3
825.992	256.87
826.38	310.71
826.768	280.28
827.156	329.43
827.544	310.71
827.932	249.85
828.32	303.68
828.708	275.6
829.096	350.5
829.483	383.26
829.871	301.34
830.259	362.2
830.646	380.92
831.034	343.47
831.421	336.45
831.808	284.96
832.196	324.75
832.583	287.3
832.97	329.43
833.357	420.71
833.744	320.07
834.131	399.65
834.518	310.71
834.905	308.37
835.292	299
835.678	364.54
836.065	352.84
836.452	317.73
836.838	289.64
837.225	270.92
837.611	313.05
837.998	282.62
838.384	299
838.77	341.13
839.157	345.81
839.543	320.07
839.929	289.64
840.315	359.86
840.701	296.66
841.087	383.26
841.473	336.45
841.858	252.19
842.244	348.15
842.63	291.98
843.015	331.77
843.401	565.82
843.787	233.47
844.172	341.13
844.557	308.37
844.943	277.94
845.328	306.03
845.713	299
846.098	320.07
846.483	266.24
846.868	380.92
847.253	324.75
847.638	256.87
848.023	322.41
848.408	357.52
848.793	310.71
849.177	338.79
849.562	277.94
849.947	263.9
850.331	327.09
850.715	331.77
851.1	322.41
851.484	282.62
851.868	280.28
852.253	284.96
852.637	296.66
853.021	348.15
853.405	289.64
853.789	266.24
854.173	334.11
854.557	348.15
854.94	294.32
855.324	299
855.708	320.07
856.091	324.75
856.475	303.68
856.858	310.71
857.242	383.26
857.625	261.55
858.009	273.26
858.392	315.39
858.775	322.41
859.158	303.68
859.541	336.45
859.924	322.41
860.307	273.26
860.69	334.11
861.073	329.43
861.456	294.32
861.838	320.07
862.221	294.32
862.604	320.07
862.986	303.68
863.369	287.3
863.751	299
864.133	334.11
864.516	331.77
864.898	357.52
865.28	306.03
865.662	336.45
866.044	291.98
866.426	362.2
866.808	289.64
867.19	291.98
867.572	270.92
867.954	345.81
868.336	306.03
868.717	327.09
869.099	261.55
869.48	261.55
869.862	317.73
870.243	273.26
870.625	327.09
871.006	289.64
871.387	336.45
871.768	313.05
872.149	397.31
872.53	359.86
872.911	350.5
873.292	359.86
873.673	296.66
874.054	329.43
874.435	249.85
874.815	306.03
875.196	259.21
875.577	362.2
875.957	270.92
876.338	306.03
876.718	273.26
877.098	334.11
877.479	315.39
877.859	308.37
878.239	324.75
878.619	341.13
878.999	371.56
879.379	371.56
879.759	331.77
880.139	320.07
880.519	329.43
880.898	338.79
881.278	362.2
881.658	334.11
882.037	313.05
882.417	355.18
882.796	322.41
883.176	343.47
883.555	348.15
883.934	352.84
884.313	336.45
884.693	287.3
885.072	385.6
885.451	327.09
885.83	324.75
886.209	341.13
886.587	259.21
886.966	303.68
887.345	317.73
887.724	362.2
888.102	287.3
888.481	320.07
888.859	320.07
889.238	364.54
889.616	320.07
889.994	263.9
890.373	317.73
890.751	336.45
891.129	284.96
891.507	294.32
891.885	387.94
892.263	303.68
892.641	299
893.019	282.62
893.396	320.07
893.774	334.11
894.152	315.39
894.529	289.64
894.907	317.73
895.284	359.86
895.662	329.43
896.039	343.47
896.416	247.51
896.794	303.68
897.171	320.07
897.548	308.37
897.925	315.39
898.302	296.66
898.679	343.47
899.056	284.96
899.433	308.37
899.809	301.34
900.186	320.07
900.563	306.03
900.939	301.34
901.316	327.09
901.692	383.26
902.069	289.64
902.445	254.53
902.821	322.41
903.197	289.64
903.574	331.77
903.95	303.68
904.326	336.45
904.702	334.11
905.078	327.09
905.454	320.07
905.829	310.71
906.205	350.5
906.581	357.52
906.956	299
907.332	331.77
907.707	308.37
908.083	310.71
908.458	317.73
908.833	289.64
909.209	334.11
909.584	331.77
909.959	308.37
910.334	294.32
910.709	350.5
911.084	254.53
911.459	287.3
911.834	242.83
912.209	343.47
912.583	352.84
912.958	341.13
913.333	301.34
913.707	284.96
914.082	282.62
914.456	301.34
914.83	306.03
915.205	359.86
915.579	324.75
915.953	331.77
916.327	378.58
916.701	366.88
917.075	306.03
917.449	310.71
917.823	263.9
918.197	343.47
918.571	313.05
918.944	352.84
919.318	294.32
919.692	294.32
920.065	310.71
920.438	291.98
920.812	324.75
921.185	291.98
921.558	348.15
921.932	322.41
922.305	242.83
922.678	315.39
923.051	303.68
923.424	373.9
923.797	376.24
924.17	313.05
924.542	343.47
924.915	376.24
925.288	313.05
925.661	317.73
926.033	277.94
926.406	277.94
926.778	280.28
927.15	291.98
927.523	256.87
927.895	343.47
928.267	254.53
928.639	289.64
929.011	294.32
929.383	249.85
929.755	277.94
930.127	313.05
930.499	266.24
930.871	310.71
931.242	306.03
931.614	287.3
931.986	310.71
932.357	240.49
932.729	299
933.1	268.58
933.471	287.3
933.843	336.45
934.214	320.07
934.585	331.77
934.956	277.94
935.327	310.71
935.698	275.6
936.069	242.83
936.44	306.03
936.811	310.71
937.182	303.68
937.552	320.07
937.923	317.73
938.293	315.39
938.664	303.68
939.034	310.71
939.405	322.41
939.775	256.87
940.145	324.75
940.516	249.85
940.886	308.37
941.256	320.07
941.626	362.2
941.996	343.47
942.366	301.34
942.735	303.68
943.105	317.73
943.475	324.75
943.845	343.47
944.214	308.37
944.584	254.53
944.953	280.28
945.323	320.07
945.692	301.34
946.061	313.05
946.43	294.32
946.8	355.18
947.169	266.24
947.538	369.22
947.907	409.01
948.276	329.43
948.645	275.6
949.013	366.88
949.382	357.52
949.751	315.39
950.119	308.37
950.488	343.47
950.857	322.41
951.225	327.09
951.593	357.52
951.962	266.24
952.33	287.3
952.698	329.43
953.066	299
953.434	331.77
953.802	343.47
954.17	320.07
954.538	336.45
954.906	341.13
955.274	277.94
955.642	343.47
956.009	299
956.377	327.09
956.744	315.39
957.112	301.34
957.479	277.94
957.847	256.87
958.214	313.05
958.581	404.33
958.948	275.6
959.315	287.3
959.683	338.79
960.05	287.3
960.416	327.09
960.783	240.49
961.15	273.26
961.517	331.77
961.884	291.98
962.25	350.5
962.617	366.88
962.983	378.58
963.35	357.52
963.716	299
964.082	291.98
964.449	336.45
964.815	343.47
965.181	247.51
965.547	317.73
965.913	275.6
966.279	308.37
966.645	301.34
967.011	221.77
967.377	266.24
967.742	296.66
968.108	303.68
968.474	317.73
968.839	320.07
969.205	329.43
969.57	301.34
969.935	273.26
970.301	270.92
970.666	289.64
971.031	373.9
971.396	345.81
971.761	359.86
972.126	317.73
972.491	294.32
972.856	364.54
973.221	336.45
973.586	324.75
973.95	313.05
974.315	291.98
974.679	313.05
975.044	275.6
975.408	329.43
975.773	348.15
976.137	294.32
976.501	329.43
976.866	320.07
977.23	280.28
977.594	322.41
977.958	362.2
978.322	294.32
978.686	341.13
979.049	303.68
979.413	380.92
979.777	366.88
980.141	352.84
980.504	338.79
980.868	310.71
981.231	249.85
981.595	256.87
981.958	348.15
982.321	341.13
982.684	284.96
983.048	343.47
983.411	268.58
983.774	261.55
984.137	315.39
984.5	334.11
984.862	334.11
985.225	301.34
985.588	289.64
985.951	273.26
986.313	320.07
986.676	324.75
987.038	294.32
987.401	313.05
987.763	317.73
988.125	275.6
988.488	245.17
988.85	362.2
989.212	249.85
989.574	308.37
989.936	268.58
990.298	397.31
990.66	268.58
991.022	282.62
991.383	228.79
991.745	282.62
992.107	259.21
992.468	380.92
992.83	345.81
993.191	329.43
993.553	280.28
993.914	310.71
994.275	287.3
994.637	327.09
994.998	327.09
995.359	289.64
995.72	355.18
996.081	409.01
996.442	373.9
996.803	270.92
997.163	322.41
997.524	359.86
997.885	277.94
998.245	331.77
998.606	392.62
998.966	329.43
999.327	277.94
999.687	320.07
1000.047	366.88
1000.408	294.32
1000.768	284.96
1001.128	376.24
1001.488	289.64
1001.848	341.13
1002.208	366.88
1002.568	277.94
1002.927	294.32
1003.287	355.18
1003.647	287.3
1004.007	299
1004.366	362.2
1004.726	306.03
1005.085	275.6
1005.444	348.15
1005.804	270.92
1006.163	343.47
1006.522	310.71
1006.881	320.07
1007.24	322.41
1007.599	294.32
1007.958	287.3
1008.317	238.15
1008.676	270.92
1009.035	352.84
1009.393	348.15
1009.752	324.75
1010.111	306.03
1010.469	270.92
1010.828	352.84
1011.186	350.5
1011.544	296.66
1011.903	291.98
1012.261	401.99
1012.619	334.11
1012.977	320.07
1013.335	301.34
1013.693	327.09
1014.051	341.13
1014.409	334.11
1014.767	406.67
1015.124	350.5
1015.482	327.09
1015.84	394.97
1016.197	334.11
1016.555	320.07
1016.912	249.85
1017.269	261.55
1017.627	355.18
1017.984	362.2
1018.341	331.77
1018.698	240.49
1019.055	322.41
1019.412	364.54
1019.769	320.07
1020.126	338.79
1020.483	287.3
1020.84	380.92
1021.196	303.68
1021.553	355.18
1021.909	308.37
1022.266	376.24
1022.622	366.88
1022.979	371.56
1023.335	289.64
1023.691	336.45
1024.047	350.5
1024.404	284.96
1024.76	291.98
1025.116	336.45
1025.472	247.51
1025.827	343.47
1026.183	310.71
1026.539	317.73
1026.895	266.24
1027.25	348.15
1027.606	320.07
1027.961	280.28
1028.317	383.26
1028.672	273.26
1029.028	383.26
1029.383	336.45
1029.738	299
1030.093	299
1030.448	313.05
1030.803	299
1031.158	322.41
1031.513	313.05
1031.868	350.5
1032.223	254.53
1032.577	322.41
1032.932	348.15
1033.287	324.75
1033.641	329.43
1033.996	322.41
1034.35	338.79
1034.704	350.5
1035.059	231.13
1035.413	369.22
1035.767	369.22
1036.121	369.22
