Data from Al_FLMS009871__926__16-19-06-522.txt Node

Date: Fri Mar 08 16:19:06 CST 2024
User: pe5414po
Spectrometer: FLMS00987
Trigger mode: 0
Integration Time (sec): 1.000000E-1
Scans to average: 1
Electric dark correction enabled: true
Nonlinearity correction enabled: false
Boxcar width: 0
XAxis mode: Wavelengths
Number of Pixels in Spectrum: 2048
>>>>>Begin Spectral Data<<<<<
188.938	-35.84
189.409	-35.84
189.879	-35.84
190.349	-103.71
190.819	-110.74
191.29	-120.1
191.76	-61.59
192.23	-117.76
192.7	-12.43
193.17	-129.46
193.64	-54.56
194.109	-5.41
194.579	-52.22
195.049	-19.46
195.519	1.61
195.988	57.78
196.458	60.12
196.927	83.53
197.397	99.91
197.866	113.95
198.336	156.08
198.805	144.38
199.274	90.55
199.744	149.06
200.213	202.9
200.682	270.77
201.151	275.45
201.62	284.81
202.089	202.9
202.558	369.07
203.027	427.59
203.495	312.9
203.964	340.99
204.433	345.67
204.902	340.99
205.37	420.57
205.839	378.44
206.307	387.8
206.776	446.31
207.244	345.67
207.712	474.4
208.181	406.52
208.649	537.59
209.117	439.29
209.585	530.57
210.053	518.87
210.521	561
210.989	603.13
211.457	633.55
211.925	692.07
212.393	743.56
212.861	788.03
213.328	654.62
213.796	626.53
214.264	525.89
214.731	415.88
215.199	572.7
215.666	483.76
216.133	577.38
216.601	666.32
217.068	790.37
217.535	848.88
218.003	1075.92
218.47	1132.09
218.937	1157.83
219.404	986.97
219.871	869.95
220.338	862.93
220.805	937.82
221.271	776.33
221.738	710.79
222.205	731.86
222.671	703.77
223.138	876.97
223.605	1022.08
224.071	933.14
224.538	872.29
225.004	755.26
225.47	926.12
225.937	933.14
226.403	963.57
226.869	769.3
227.335	617.17
227.801	535.25
228.267	532.91
228.733	502.48
229.199	488.44
229.665	465.04
230.131	516.53
230.597	521.21
231.062	546.95
231.528	600.79
231.994	607.81
232.459	507.16
232.925	392.48
233.39	434.61
233.856	469.72
234.321	521.21
234.786	605.47
235.252	820.8
235.717	1389.55
236.182	1953.62
236.647	2082.35
237.112	1656.37
237.577	1080.6
238.042	626.53
238.507	589.08
238.972	490.78
239.436	563.34
239.901	546.95
240.366	549.29
240.83	474.4
241.295	458.01
241.76	450.99
242.224	481.42
242.688	490.78
243.153	448.65
243.617	465.04
244.081	507.16
244.545	462.69
245.01	476.74
245.474	530.57
245.938	458.01
246.402	591.42
246.866	720.15
247.33	633.55
247.793	561
248.257	502.48
248.721	450.99
249.185	525.89
249.648	542.27
250.112	586.74
250.575	495.46
251.039	558.66
251.502	577.38
251.965	493.12
252.429	542.27
252.892	539.93
253.355	589.08
253.818	551.64
254.281	528.23
254.744	586.74
255.207	621.85
255.67	895.69
256.133	1279.54
256.596	1684.45
257.059	1857.65
257.522	1455.08
257.984	1122.73
258.447	865.27
258.909	867.61
259.372	926.12
259.834	865.27
260.297	783.35
260.759	776.33
261.221	724.83
261.684	994
262.146	1483.17
262.608	1726.58
263.07	1611.9
263.532	1183.58
263.994	891.01
264.456	879.31
264.918	949.53
265.38	970.59
265.842	823.14
266.303	722.49
266.765	568.02
267.227	467.38
267.688	514.19
268.15	544.61
268.611	479.08
269.072	458.01
269.534	535.25
269.995	553.98
270.456	591.42
270.918	582.06
271.379	600.79
271.84	436.95
272.301	493.12
272.762	479.08
273.223	469.72
273.684	544.61
274.144	575.04
274.605	598.45
275.066	666.32
275.527	605.47
275.987	591.42
276.448	612.49
276.908	703.77
277.369	909.74
277.829	1319.33
278.289	2637.05
278.75	4867.58
279.21	6489.57
279.67	6583.2
280.13	4823.11
280.59	3350.92
281.05	2707.27
281.51	2257.89
281.97	1494.87
282.43	783.35
282.89	610.15
283.35	624.19
283.809	624.19
284.269	762.28
284.729	888.67
285.188	825.48
285.648	682.71
286.107	542.27
286.567	518.87
287.026	568.02
287.485	600.79
287.944	549.29
288.404	680.36
288.863	570.36
289.322	579.72
289.781	596.11
290.24	570.36
290.699	579.72
291.158	600.79
291.616	628.87
292.075	734.2
292.534	858.25
292.992	937.82
293.451	862.93
293.91	778.67
294.368	771.65
294.827	593.76
295.285	539.93
295.743	455.67
296.202	404.18
296.66	453.33
297.118	481.42
297.576	401.84
298.034	401.84
298.492	366.73
298.95	467.38
299.408	425.25
299.866	460.35
300.324	497.8
300.781	469.72
301.239	427.59
301.697	439.29
302.154	427.59
302.612	474.4
303.069	479.08
303.527	518.87
303.984	586.74
304.441	603.13
304.899	659.3
305.356	811.43
305.813	785.69
306.27	846.54
306.727	1010.38
307.184	1506.57
307.641	2779.83
308.098	3929.03
308.555	4919.07
309.012	5178.87
309.468	4340.96
309.925	2211.07
310.382	907.4
310.838	584.4
311.295	530.57
311.751	439.29
312.208	521.21
312.664	497.8
313.12	429.93
313.577	420.57
314.033	441.63
314.489	490.78
314.945	497.8
315.401	497.8
315.857	521.21
316.313	469.72
316.769	415.88
317.225	394.82
317.681	455.67
318.136	387.8
318.592	408.86
319.048	486.1
319.503	366.73
319.959	397.16
320.414	392.48
320.869	392.48
321.325	408.86
321.78	422.91
322.235	383.12
322.691	408.86
323.146	469.72
323.601	481.42
324.056	647.6
324.511	820.8
324.966	776.33
325.421	703.77
325.875	495.46
326.33	488.44
326.785	565.68
327.24	773.99
327.694	792.71
328.149	750.58
328.603	530.57
329.058	406.52
329.512	415.88
329.966	373.75
330.421	329.28
330.875	476.74
331.329	439.29
331.783	439.29
332.237	441.63
332.691	507.16
333.145	525.89
333.599	502.48
334.053	436.95
334.507	474.4
334.96	586.74
335.414	516.53
335.868	621.85
336.321	617.17
336.775	715.47
337.228	603.13
337.682	586.74
338.135	575.04
338.588	450.99
339.042	514.19
339.495	415.88
339.948	425.25
340.401	415.88
340.854	465.04
341.307	441.63
341.76	467.38
342.213	373.75
342.666	429.93
343.119	495.46
343.571	418.22
344.024	502.48
344.477	502.48
344.929	460.35
345.382	418.22
345.834	504.82
346.287	387.8
346.739	509.51
347.191	413.54
347.644	472.06
348.096	460.35
348.548	518.87
349	462.69
349.452	441.63
349.904	434.61
350.356	436.95
350.808	467.38
351.26	453.33
351.711	511.85
352.163	537.59
352.615	439.29
353.066	535.25
353.518	546.95
353.969	481.42
354.421	472.06
354.872	493.12
355.324	469.72
355.775	490.78
356.226	556.32
356.677	757.6
357.128	982.29
357.579	1452.74
358.03	2232.14
358.481	3730.08
358.932	4167.76
359.383	3371.98
359.834	2641.73
360.285	2545.77
360.735	2283.63
361.186	1808.5
361.637	1443.38
362.087	886.33
362.538	605.47
362.988	493.12
363.438	544.61
363.889	521.21
364.339	500.14
364.789	504.82
365.239	462.69
365.689	544.61
366.139	504.82
366.589	467.38
367.039	399.5
367.489	509.51
367.939	474.4
368.389	596.11
368.839	582.06
369.288	518.87
369.738	528.23
370.187	626.53
370.637	766.96
371.086	881.65
371.536	823.14
371.985	743.56
372.434	624.19
372.884	530.57
373.333	521.21
373.782	469.72
374.231	523.55
374.68	504.82
375.129	448.65
375.578	462.69
376.027	422.91
376.475	427.59
376.924	418.22
377.373	502.48
377.822	425.25
378.27	432.27
378.719	406.52
379.167	504.82
379.616	439.29
380.064	486.1
380.512	502.48
380.961	481.42
381.409	582.06
381.857	549.29
382.305	586.74
382.753	696.75
383.201	766.96
383.649	848.88
384.097	781.01
384.545	706.11
384.992	626.53
385.44	614.83
385.888	682.71
386.335	537.59
386.783	589.08
387.231	624.19
387.678	561
388.125	633.55
388.573	542.27
389.02	577.38
389.467	504.82
389.914	502.48
390.362	490.78
390.809	549.29
391.256	570.36
391.703	516.53
392.15	523.55
392.596	546.95
393.043	734.2
393.49	1209.33
393.937	2023.83
394.383	3414.11
394.83	4160.74
395.276	3491.35
395.723	3423.47
396.169	4893.33
396.616	5359.1
397.062	3215.16
397.508	1260.82
397.954	659.3
398.401	518.87
398.847	518.87
399.293	500.14
399.739	612.49
400.185	570.36
400.631	556.32
401.076	453.33
401.522	443.97
401.968	443.97
402.414	455.67
402.859	462.69
403.305	514.19
403.75	668.66
404.196	663.98
404.641	668.66
405.086	542.27
405.532	563.34
405.977	654.62
406.422	717.81
406.867	645.26
407.312	591.42
407.757	591.42
408.202	544.61
408.647	458.01
409.092	469.72
409.537	488.44
409.982	568.02
410.426	488.44
410.871	516.53
411.316	530.57
411.76	497.8
412.205	561
412.649	582.06
413.093	605.47
413.538	561
413.982	596.11
414.426	652.28
414.87	736.54
415.314	785.69
415.758	914.42
416.202	762.28
416.646	654.62
417.09	738.88
417.534	736.54
417.978	663.98
418.421	692.07
418.865	572.7
419.309	450.99
419.752	462.69
420.196	479.08
420.639	507.16
421.083	469.72
421.526	460.35
421.969	420.57
422.412	483.76
422.856	502.48
423.299	507.16
423.742	493.12
424.185	479.08
424.628	537.59
425.071	556.32
425.513	469.72
425.956	467.38
426.399	450.99
426.842	490.78
427.284	514.19
427.727	507.16
428.169	460.35
428.612	446.31
429.054	392.48
429.497	455.67
429.939	385.46
430.381	413.54
430.823	406.52
431.265	479.08
431.707	411.2
432.149	446.31
432.591	474.4
433.033	439.29
433.475	357.37
433.917	380.78
434.359	490.78
434.8	514.19
435.242	507.16
435.684	427.59
436.125	425.25
436.567	453.33
437.008	432.27
437.449	404.18
437.891	425.25
438.332	500.14
438.773	448.65
439.214	446.31
439.656	436.95
440.097	411.2
440.538	458.01
440.978	450.99
441.419	476.74
441.86	392.48
442.301	502.48
442.742	507.16
443.182	465.04
443.623	516.53
444.063	521.21
444.504	561
444.944	568.02
445.385	617.17
445.825	652.28
446.265	724.83
446.706	839.52
447.146	1033.79
447.586	1190.6
448.026	1501.89
448.466	1609.56
448.906	1422.31
449.346	1075.92
449.786	862.93
450.225	930.8
450.665	914.42
451.105	1050.17
451.544	1293.58
451.984	1438.7
452.424	1422.31
452.863	1501.89
453.302	1888.08
453.742	1934.89
454.181	1295.93
454.62	867.61
455.059	612.49
455.499	546.95
455.938	467.38
456.377	472.06
456.816	476.74
457.254	481.42
457.693	401.84
458.132	408.86
458.571	476.74
459.01	418.22
459.448	467.38
459.887	427.59
460.325	509.51
460.764	488.44
461.202	472.06
461.641	413.54
462.079	523.55
462.517	509.51
462.955	507.16
463.393	509.51
463.832	600.79
464.27	516.53
464.708	589.08
465.145	441.63
465.583	528.23
466.021	600.79
466.459	745.9
466.897	951.87
467.334	839.52
467.772	612.49
468.209	493.12
468.647	509.51
469.084	500.14
469.522	434.61
469.959	486.1
470.396	486.1
470.833	429.93
471.271	443.97
471.708	401.84
472.145	488.44
472.582	507.16
473.019	465.04
473.456	397.16
473.892	432.27
474.329	362.05
474.766	376.09
475.202	443.97
475.639	411.2
476.076	418.22
476.512	420.57
476.949	418.22
477.385	429.93
477.821	422.91
478.258	495.46
478.694	404.18
479.13	448.65
479.566	380.78
480.002	399.5
480.438	436.95
480.874	427.59
481.31	497.8
481.746	467.38
482.181	481.42
482.617	443.97
483.053	434.61
483.488	460.35
483.924	479.08
484.36	434.61
484.795	481.42
485.23	443.97
485.666	521.21
486.101	642.92
486.536	631.21
486.971	659.3
487.407	626.53
487.842	575.04
488.277	542.27
488.712	486.1
489.146	490.78
489.581	493.12
490.016	453.33
490.451	441.63
490.885	474.4
491.32	500.14
491.755	495.46
492.189	462.69
492.624	493.12
493.058	509.51
493.492	443.97
493.927	469.72
494.361	481.42
494.795	434.61
495.229	411.2
495.663	495.46
496.097	507.16
496.531	504.82
496.965	472.06
497.399	404.18
497.833	436.95
498.266	507.16
498.7	507.16
499.134	556.32
499.567	624.19
500.001	621.85
500.434	806.75
500.868	881.65
501.301	804.41
501.734	720.15
502.168	607.81
502.601	521.21
503.034	507.16
503.467	511.85
503.9	507.16
504.333	516.53
504.766	476.74
505.199	483.76
505.632	500.14
506.064	441.63
506.497	465.04
506.93	535.25
507.362	462.69
507.795	462.69
508.227	469.72
508.66	542.27
509.092	502.48
509.524	397.16
509.956	481.42
510.389	493.12
510.821	511.85
511.253	467.38
511.685	429.93
512.117	546.95
512.549	532.91
512.981	472.06
513.412	483.76
513.844	469.72
514.276	546.95
514.707	539.93
515.139	500.14
515.571	617.17
516.002	572.7
516.433	631.21
516.865	668.66
517.296	589.08
517.727	666.32
518.159	699.09
518.59	663.98
519.021	706.11
519.452	717.81
519.883	553.98
520.314	523.55
520.744	577.38
521.175	575.04
521.606	532.91
522.037	563.34
522.467	624.19
522.898	561
523.328	495.46
523.759	563.34
524.189	544.61
524.62	509.51
525.05	568.02
525.48	511.85
525.91	553.98
526.341	614.83
526.771	579.72
527.201	603.13
527.631	729.52
528.061	694.41
528.49	743.56
528.92	919.1
529.35	1253.8
529.78	2627.69
530.209	12621.78
530.639	30093.88
531.068	46821.69
531.498	63013.51
531.927	63013.51
532.357	63013.51
532.786	63013.51
533.215	63013.51
533.644	32308.02
534.074	11521.73
534.503	4912.05
534.932	2243.84
535.361	1333.37
535.79	1012.72
536.218	827.82
536.647	668.66
537.076	649.94
537.505	570.36
537.933	553.98
538.362	532.91
538.79	570.36
539.219	514.19
539.647	450.99
540.076	483.76
540.504	465.04
540.932	474.4
541.36	418.22
541.788	441.63
542.217	415.88
542.645	415.88
543.073	429.93
543.5	397.16
543.928	497.8
544.356	415.88
544.784	373.75
545.211	455.67
545.639	411.2
546.067	413.54
546.494	415.88
546.922	427.59
547.349	415.88
547.776	427.59
548.204	432.27
548.631	383.12
549.058	411.2
549.485	415.88
549.912	472.06
550.339	455.67
550.766	422.91
551.193	399.5
551.62	392.48
552.047	355.03
552.474	420.57
552.9	376.09
553.327	397.16
553.754	362.05
554.18	390.14
554.607	465.04
555.033	418.22
555.459	458.01
555.886	364.39
556.312	369.07
556.738	387.8
557.164	429.93
557.59	380.78
558.016	455.67
558.442	425.25
558.868	537.59
559.294	474.4
559.72	537.59
560.145	668.66
560.571	663.98
560.997	603.13
561.422	486.1
561.848	462.69
562.273	392.48
562.699	446.31
563.124	425.25
563.549	418.22
563.974	401.84
564.4	450.99
564.825	331.62
565.25	397.16
565.675	373.75
566.1	390.14
566.525	413.54
566.95	495.46
567.374	561
567.799	558.66
568.224	579.72
568.648	675.68
569.073	731.86
569.497	816.12
569.922	1052.51
570.346	1546.36
570.771	1354.44
571.195	942.5
571.619	642.92
572.043	621.85
572.467	750.58
572.891	968.25
573.315	921.44
573.739	678.02
574.163	514.19
574.587	418.22
575.011	401.84
575.435	429.93
575.858	387.8
576.282	413.54
576.705	312.9
577.129	343.33
577.552	366.73
577.976	336.31
578.399	324.6
578.822	364.39
579.245	256.73
579.669	385.46
580.092	408.86
580.515	411.2
580.938	324.6
581.361	355.03
581.784	371.41
582.206	392.48
582.629	413.54
583.052	425.25
583.474	352.69
583.897	355.03
584.32	343.33
584.742	394.82
585.165	373.75
585.587	420.57
586.009	352.69
586.431	317.58
586.854	404.18
587.276	380.78
587.698	422.91
588.12	355.03
588.542	362.05
588.964	315.24
589.386	434.61
589.807	427.59
590.229	362.05
590.651	406.52
591.073	434.61
591.494	397.16
591.916	345.67
592.337	429.93
592.759	397.16
593.18	373.75
593.601	467.38
594.022	399.5
594.444	376.09
594.865	443.97
595.286	408.86
595.707	385.46
596.128	383.12
596.549	376.09
596.97	345.67
597.39	355.03
597.811	291.84
598.232	305.88
598.652	324.6
599.073	348.01
599.494	338.65
599.914	366.73
600.334	373.75
600.755	401.84
601.175	380.78
601.595	333.97
602.015	394.82
602.436	348.01
602.856	479.08
603.276	392.48
603.696	336.31
604.115	324.6
604.535	329.28
604.955	385.46
605.375	305.88
605.794	333.97
606.214	289.5
606.634	404.18
607.053	357.37
607.473	331.62
607.892	378.44
608.311	404.18
608.731	352.69
609.15	305.88
609.569	392.48
609.988	411.2
610.407	352.69
610.826	359.71
611.245	336.31
611.664	380.78
612.083	399.5
612.501	317.58
612.92	411.2
613.339	380.78
613.757	373.75
614.176	392.48
614.594	366.73
615.013	446.31
615.431	392.48
615.85	399.5
616.268	380.78
616.686	399.5
617.104	369.07
617.522	376.09
617.94	420.57
618.358	420.57
618.776	420.57
619.194	359.71
619.612	366.73
620.03	399.5
620.447	394.82
620.865	310.56
621.282	448.65
621.7	404.18
622.117	462.69
622.535	460.35
622.952	572.7
623.369	591.42
623.787	755.26
624.204	790.37
624.621	862.93
625.038	914.42
625.455	853.56
625.872	668.66
626.289	617.17
626.706	465.04
627.123	434.61
627.539	305.88
627.956	401.84
628.373	362.05
628.789	336.31
629.206	369.07
629.622	340.99
630.038	338.65
630.455	322.26
630.871	338.65
631.287	415.88
631.703	345.67
632.12	394.82
632.536	340.99
632.952	362.05
633.368	359.71
633.783	385.46
634.199	394.82
634.615	397.16
635.031	378.44
635.446	378.44
635.862	352.69
636.277	357.37
636.693	359.71
637.108	359.71
637.524	364.39
637.939	340.99
638.354	371.41
638.77	383.12
639.185	336.31
639.6	329.28
640.015	312.9
640.43	331.62
640.845	296.52
641.259	338.65
641.674	338.65
642.089	331.62
642.504	350.35
642.918	322.26
643.333	333.97
643.747	357.37
644.162	369.07
644.576	322.26
644.991	345.67
645.405	322.26
645.819	366.73
646.233	326.94
646.647	429.93
647.061	366.73
647.475	336.31
647.889	282.47
648.303	390.14
648.717	343.33
649.131	418.22
649.545	418.22
649.958	352.69
650.372	397.16
650.785	350.35
651.199	355.03
651.612	312.9
652.026	331.62
652.439	298.86
652.852	406.52
653.266	357.37
653.679	383.12
654.092	429.93
654.505	413.54
654.918	369.07
655.331	469.72
655.744	577.38
656.156	563.34
656.569	741.22
656.982	926.12
657.394	839.52
657.807	621.85
658.22	502.48
658.632	460.35
659.044	385.46
659.457	429.93
659.869	411.2
660.281	350.35
660.693	413.54
661.106	376.09
661.518	404.18
661.93	310.56
662.342	387.8
662.754	348.01
663.165	343.33
663.577	310.56
663.989	362.05
664.401	317.58
664.812	315.24
665.224	340.99
665.635	338.65
666.047	350.35
666.458	371.41
666.869	331.62
667.281	275.45
667.692	268.43
668.103	275.45
668.514	359.71
668.925	298.86
669.336	350.35
669.747	401.84
670.158	373.75
670.569	350.35
670.979	301.2
671.39	369.07
671.801	348.01
672.211	343.33
672.622	387.8
673.032	343.33
673.443	284.81
673.853	333.97
674.263	270.77
674.674	364.39
675.084	289.5
675.494	336.31
675.904	350.35
676.314	319.92
676.724	273.11
677.134	413.54
677.544	348.01
677.953	406.52
678.363	329.28
678.773	399.5
679.182	310.56
679.592	329.28
680.001	364.39
680.411	324.6
680.82	312.9
681.23	362.05
681.639	319.92
682.048	343.33
682.457	373.75
682.866	392.48
683.275	294.18
683.684	371.41
684.093	406.52
684.502	310.56
684.911	352.69
685.32	373.75
685.728	345.67
686.137	312.9
686.546	319.92
686.954	350.35
687.363	329.28
687.771	380.78
688.179	331.62
688.588	376.09
688.996	406.52
689.404	333.97
689.812	331.62
690.22	322.26
690.628	296.52
691.036	298.86
691.444	322.26
691.852	345.67
692.26	355.03
692.667	369.07
693.075	333.97
693.483	340.99
693.89	385.46
694.298	380.78
694.705	383.12
695.112	373.75
695.52	317.58
695.927	333.97
696.334	312.9
696.741	249.71
697.148	329.28
697.555	273.11
697.962	401.84
698.369	280.13
698.776	331.62
699.183	366.73
699.59	319.92
699.996	362.05
700.403	338.65
700.81	322.26
701.216	319.92
701.623	357.37
702.029	331.62
702.435	343.33
702.842	312.9
703.248	301.2
703.654	390.14
704.06	458.01
704.466	556.32
704.872	528.23
705.278	502.48
705.684	462.69
706.09	511.85
706.496	481.42
706.901	509.51
707.307	420.57
707.712	369.07
708.118	326.94
708.523	345.67
708.929	298.86
709.334	319.92
709.74	312.9
710.145	324.6
710.55	319.92
710.955	404.18
711.36	371.41
711.765	331.62
712.17	331.62
712.575	319.92
712.98	811.43
713.385	303.54
713.789	308.22
714.194	303.54
714.599	291.84
715.003	373.75
715.408	298.86
715.812	273.11
716.217	266.09
716.621	291.84
717.025	324.6
717.429	273.11
717.833	324.6
718.238	326.94
718.642	371.41
719.046	312.9
719.449	319.92
719.853	284.81
720.257	301.2
720.661	256.73
721.065	294.18
721.468	399.5
721.872	308.22
722.275	338.65
722.679	383.12
723.082	308.22
723.485	312.9
723.889	245.02
724.292	315.24
724.695	310.56
725.098	399.5
725.501	326.94
725.904	296.52
726.307	331.62
726.71	296.52
727.113	331.62
727.516	305.88
727.918	326.94
728.321	261.41
728.724	233.32
729.126	294.18
729.529	322.26
729.931	338.65
730.333	305.88
730.736	305.88
731.138	312.9
731.54	340.99
731.942	376.09
732.344	340.99
732.746	326.94
733.148	340.99
733.55	387.8
733.952	287.15
734.354	275.45
734.756	315.24
735.157	336.31
735.559	256.73
735.96	345.67
736.362	336.31
736.763	350.35
737.165	324.6
737.566	303.54
737.967	287.15
738.368	296.52
738.77	298.86
739.171	298.86
739.572	317.58
739.973	284.81
740.374	317.58
740.774	324.6
741.175	291.84
741.576	380.78
741.977	228.64
742.377	291.84
742.778	247.37
743.178	301.2
743.579	270.77
743.979	303.54
744.379	301.2
744.78	350.35
745.18	338.65
745.58	301.2
745.98	284.81
746.38	296.52
746.78	420.57
747.18	348.01
747.58	380.78
747.98	322.26
748.38	331.62
748.779	305.88
749.179	338.65
749.578	322.26
749.978	350.35
750.377	284.81
750.777	270.77
751.176	329.28
751.575	289.5
751.975	284.81
752.374	289.5
752.773	348.01
753.172	254.39
753.571	305.88
753.97	322.26
754.369	319.92
754.768	338.65
755.166	352.69
755.565	261.41
755.964	331.62
756.362	282.47
756.761	287.15
757.159	312.9
757.558	338.65
757.956	387.8
758.354	310.56
758.753	326.94
759.151	322.26
759.549	324.6
759.947	322.26
760.345	305.88
760.743	287.15
761.141	270.77
761.539	308.22
761.936	350.35
762.334	284.81
762.732	275.45
763.129	357.37
763.527	305.88
763.924	308.22
764.322	355.03
764.719	294.18
765.117	380.78
765.514	275.45
765.911	310.56
766.308	338.65
766.705	317.58
767.102	340.99
767.499	270.77
767.896	348.01
768.293	287.15
768.69	249.71
769.086	383.12
769.483	329.28
769.88	343.33
770.276	284.81
770.673	317.58
771.069	287.15
771.466	277.79
771.862	266.09
772.258	289.5
772.654	305.88
773.05	242.68
773.447	280.13
773.843	350.35
774.239	305.88
774.634	406.52
775.03	296.52
775.426	296.52
775.822	359.71
776.218	326.94
776.613	373.75
777.009	411.2
777.404	425.25
777.8	364.39
778.195	362.05
778.59	310.56
778.986	305.88
779.381	280.13
779.776	319.92
780.171	336.31
780.566	296.52
780.961	322.26
781.356	357.37
781.751	259.07
782.146	310.56
782.54	392.48
782.935	284.81
783.33	333.97
783.724	298.86
784.119	254.39
784.513	348.01
784.908	331.62
785.302	294.18
785.696	343.33
786.09	324.6
786.485	348.01
786.879	219.28
787.273	303.54
787.667	322.26
788.061	331.62
788.454	329.28
788.848	284.81
789.242	331.62
789.636	266.09
790.029	252.05
790.423	319.92
790.816	266.09
791.21	308.22
791.603	298.86
791.997	343.33
792.39	310.56
792.783	275.45
793.176	268.43
793.569	343.33
793.962	303.54
794.355	305.88
794.748	326.94
795.141	294.18
795.534	317.58
795.927	355.03
796.319	294.18
796.712	291.84
797.105	266.09
797.497	301.2
797.89	216.94
798.282	266.09
798.674	352.69
799.067	266.09
799.459	263.75
799.851	301.2
800.243	336.31
800.635	317.58
801.027	298.86
801.419	212.26
801.811	273.11
802.203	296.52
802.594	282.47
802.986	282.47
803.378	340.99
803.769	348.01
804.161	294.18
804.552	273.11
804.944	366.73
805.335	270.77
805.726	333.97
806.118	294.18
806.509	319.92
806.9	319.92
807.291	305.88
807.682	322.26
808.073	275.45
808.464	324.6
808.855	352.69
809.245	252.05
809.636	252.05
810.027	284.81
810.417	326.94
810.808	350.35
811.198	268.43
811.589	319.92
811.979	270.77
812.369	254.39
812.759	331.62
813.15	350.35
813.54	263.75
813.93	259.07
814.32	315.24
814.71	303.54
815.1	355.03
815.489	399.5
815.879	308.22
816.269	284.81
816.658	350.35
817.048	301.2
817.438	317.58
817.827	352.69
818.216	350.35
818.606	308.22
818.995	357.37
819.384	296.52
819.773	298.86
820.163	242.68
820.552	352.69
820.941	343.33
821.33	340.99
821.718	259.07
822.107	357.37
822.496	270.77
822.885	326.94
823.273	294.18
823.662	340.99
824.05	338.65
824.439	380.78
824.827	305.88
825.216	298.86
825.604	308.22
825.992	343.33
826.38	364.39
826.768	294.18
827.156	282.47
827.544	296.52
827.932	298.86
828.32	245.02
828.708	280.13
829.096	282.47
829.483	350.35
829.871	268.43
830.259	282.47
830.646	249.71
831.034	268.43
831.421	228.64
831.808	303.54
832.196	268.43
832.583	308.22
832.97	308.22
833.357	233.32
833.744	270.77
834.131	359.71
834.518	310.56
834.905	394.82
835.292	296.52
835.678	268.43
836.065	275.45
836.452	305.88
836.838	273.11
837.225	322.26
837.611	242.68
837.998	331.62
838.384	312.9
838.77	291.84
839.157	317.58
839.543	348.01
839.929	266.09
840.315	345.67
840.701	273.11
841.087	277.79
841.473	324.6
841.858	294.18
842.244	310.56
842.63	324.6
843.015	298.86
843.401	504.82
843.787	373.75
844.172	324.6
844.557	294.18
844.943	310.56
845.328	324.6
845.713	263.75
846.098	303.54
846.483	303.54
846.868	254.39
847.253	298.86
847.638	240.34
848.023	378.44
848.408	322.26
848.793	245.02
849.177	245.02
849.562	317.58
849.947	266.09
850.331	369.07
850.715	287.15
851.1	366.73
851.484	277.79
851.868	326.94
852.253	331.62
852.637	331.62
853.021	221.62
853.405	317.58
853.789	357.37
854.173	312.9
854.557	312.9
854.94	345.67
855.324	376.09
855.708	362.05
856.091	373.75
856.475	275.45
856.858	324.6
857.242	249.71
857.625	294.18
858.009	324.6
858.392	303.54
858.775	303.54
859.158	247.37
859.541	350.35
859.924	308.22
860.307	284.81
860.69	256.73
861.073	252.05
861.456	312.9
861.838	305.88
862.221	322.26
862.604	345.67
862.986	287.15
863.369	317.58
863.751	322.26
864.133	298.86
864.516	254.39
864.898	303.54
865.28	263.75
865.662	266.09
866.044	291.84
866.426	282.47
866.808	383.12
867.19	291.84
867.572	308.22
867.954	291.84
868.336	380.78
868.717	291.84
869.099	291.84
869.48	310.56
869.862	273.11
870.243	326.94
870.625	249.71
871.006	362.05
871.387	357.37
871.768	333.97
872.149	296.52
872.53	294.18
872.911	308.22
873.292	319.92
873.673	345.67
874.054	228.64
874.435	322.26
874.815	329.28
875.196	296.52
875.577	216.94
875.957	326.94
876.338	252.05
876.718	296.52
877.098	373.75
877.479	310.56
877.859	333.97
878.239	301.2
878.619	298.86
878.999	287.15
879.379	296.52
879.759	308.22
880.139	357.37
880.519	310.56
880.898	303.54
881.278	322.26
881.658	343.33
882.037	287.15
882.417	296.52
882.796	322.26
883.176	345.67
883.555	336.31
883.934	284.81
884.313	317.58
884.693	247.37
885.072	287.15
885.451	263.75
885.83	289.5
886.209	376.09
886.587	233.32
886.966	317.58
887.345	319.92
887.724	259.07
888.102	310.56
888.481	324.6
888.859	352.69
889.238	324.6
889.616	340.99
889.994	352.69
890.373	242.68
890.751	280.13
891.129	280.13
891.507	294.18
891.885	350.35
892.263	310.56
892.641	301.2
893.019	268.43
893.396	252.05
893.774	270.77
894.152	277.79
894.529	296.52
894.907	242.68
895.284	319.92
895.662	338.65
896.039	312.9
896.416	317.58
896.794	277.79
897.171	357.37
897.548	296.52
897.925	261.41
898.302	254.39
898.679	312.9
899.056	324.6
899.433	294.18
899.809	315.24
900.186	362.05
900.563	298.86
900.939	322.26
901.316	298.86
901.692	317.58
902.069	308.22
902.445	310.56
902.821	312.9
903.197	338.65
903.574	287.15
903.95	324.6
904.326	221.62
904.702	345.67
905.078	305.88
905.454	294.18
905.829	284.81
906.205	312.9
906.581	348.01
906.956	308.22
907.332	331.62
907.707	312.9
908.083	326.94
908.458	273.11
908.833	305.88
909.209	336.31
909.584	275.45
909.959	263.75
910.334	277.79
910.709	326.94
911.084	296.52
911.459	317.58
911.834	324.6
912.209	261.41
912.583	305.88
912.958	266.09
913.333	301.2
913.707	252.05
914.082	268.43
914.456	308.22
914.83	312.9
915.205	371.41
915.579	357.37
915.953	266.09
916.327	301.2
916.701	294.18
917.075	289.5
917.449	319.92
917.823	322.26
918.197	305.88
918.571	266.09
918.944	296.52
919.318	333.97
919.692	350.35
920.065	312.9
920.438	247.37
920.812	284.81
921.185	308.22
921.558	242.68
921.932	294.18
922.305	373.75
922.678	270.77
923.051	277.79
923.424	338.65
923.797	308.22
924.17	301.2
924.542	324.6
924.915	256.73
925.288	268.43
925.661	235.66
926.033	348.01
926.406	238
926.778	275.45
927.15	270.77
927.523	348.01
927.895	291.84
928.267	280.13
928.639	233.32
929.011	319.92
929.383	287.15
929.755	371.41
930.127	254.39
930.499	245.02
930.871	254.39
931.242	326.94
931.614	280.13
931.986	291.84
932.357	333.97
932.729	324.6
933.1	287.15
933.471	305.88
933.843	249.71
934.214	312.9
934.585	345.67
934.956	266.09
935.327	317.58
935.698	312.9
936.069	247.37
936.44	376.09
936.811	336.31
937.182	273.11
937.552	340.99
937.923	369.07
938.293	245.02
938.664	305.88
939.034	305.88
939.405	298.86
939.775	289.5
940.145	291.84
940.516	340.99
940.886	303.54
941.256	352.69
941.626	282.47
941.996	376.09
942.366	317.58
942.735	350.35
943.105	289.5
943.475	343.33
943.845	268.43
944.214	348.01
944.584	336.31
944.953	352.69
945.323	331.62
945.692	312.9
946.061	268.43
946.43	263.75
946.8	355.03
947.169	298.86
947.538	270.77
947.907	359.71
948.276	343.33
948.645	305.88
949.013	221.62
949.382	296.52
949.751	312.9
950.119	256.73
950.488	294.18
950.857	284.81
951.225	317.58
951.593	284.81
951.962	289.5
952.33	252.05
952.698	303.54
953.066	301.2
953.434	247.37
953.802	315.24
954.17	310.56
954.538	340.99
954.906	277.79
955.274	331.62
955.642	280.13
956.009	287.15
956.377	331.62
956.744	359.71
957.112	298.86
957.479	310.56
957.847	336.31
958.214	252.05
958.581	289.5
958.948	301.2
959.315	305.88
959.683	282.47
960.05	277.79
960.416	282.47
960.783	310.56
961.15	280.13
961.517	305.88
961.884	280.13
962.25	245.02
962.617	338.65
962.983	273.11
963.35	284.81
963.716	352.69
964.082	348.01
964.449	282.47
964.815	268.43
965.181	322.26
965.547	247.37
965.913	408.86
966.279	329.28
966.645	280.13
967.011	233.32
967.377	322.26
967.742	261.41
968.108	324.6
968.474	268.43
968.839	263.75
969.205	172.47
969.57	296.52
969.935	298.86
970.301	326.94
970.666	277.79
971.031	336.31
971.396	312.9
971.761	296.52
972.126	319.92
972.491	294.18
972.856	301.2
973.221	322.26
973.586	340.99
973.95	301.2
974.315	256.73
974.679	296.52
975.044	247.37
975.408	247.37
975.773	263.75
976.137	340.99
976.501	326.94
976.866	261.41
977.23	242.68
977.594	291.84
977.958	317.58
978.322	277.79
978.686	291.84
979.049	273.11
979.413	230.98
979.777	291.84
980.141	242.68
980.504	263.75
980.868	287.15
981.231	247.37
981.595	273.11
981.958	291.84
982.321	329.28
982.684	308.22
983.048	284.81
983.411	291.84
983.774	305.88
984.137	301.2
984.5	315.24
984.862	270.77
985.225	249.71
985.588	401.84
985.951	235.66
986.313	350.35
986.676	357.37
987.038	280.13
987.401	235.66
987.763	263.75
988.125	261.41
988.488	315.24
988.85	259.07
989.212	249.71
989.574	235.66
989.936	296.52
990.298	322.26
990.66	233.32
991.022	312.9
991.383	263.75
991.745	284.81
992.107	266.09
992.468	324.6
992.83	275.45
993.191	305.88
993.553	266.09
993.914	308.22
994.275	326.94
994.637	298.86
994.998	280.13
995.359	322.26
995.72	273.11
996.081	338.65
996.442	268.43
996.803	315.24
997.163	312.9
997.524	240.34
997.885	310.56
998.245	242.68
998.606	336.31
998.966	270.77
999.327	247.37
999.687	296.52
1000.047	235.66
1000.408	305.88
1000.768	338.65
1001.128	214.6
1001.488	308.22
1001.848	305.88
1002.208	303.54
1002.568	305.88
1002.927	301.2
1003.287	268.43
1003.647	326.94
1004.007	317.58
1004.366	289.5
1004.726	259.07
1005.085	369.07
1005.444	291.84
1005.804	333.97
1006.163	324.6
1006.522	247.37
1006.881	289.5
1007.24	287.15
1007.599	322.26
1007.958	298.86
1008.317	317.58
1008.676	287.15
1009.035	336.31
1009.393	340.99
1009.752	296.52
1010.111	333.97
1010.469	303.54
1010.828	240.34
1011.186	261.41
1011.544	284.81
1011.903	326.94
1012.261	266.09
1012.619	294.18
1012.977	287.15
1013.335	280.13
1013.693	235.66
1014.051	280.13
1014.409	284.81
1014.767	275.45
1015.124	291.84
1015.482	301.2
1015.84	273.11
1016.197	228.64
1016.555	242.68
1016.912	235.66
1017.269	249.71
1017.627	263.75
1017.984	312.9
1018.341	310.56
1018.698	291.84
1019.055	294.18
1019.412	282.47
1019.769	275.45
1020.126	296.52
1020.483	329.28
1020.84	378.44
1021.196	333.97
1021.553	331.62
1021.909	247.37
1022.266	333.97
1022.622	228.64
1022.979	261.41
1023.335	340.99
1023.691	284.81
1024.047	303.54
1024.404	326.94
1024.76	291.84
1025.116	280.13
1025.472	252.05
1025.827	275.45
1026.183	259.07
1026.539	301.2
1026.895	310.56
1027.25	348.01
1027.606	294.18
1027.961	345.67
1028.317	310.56
1028.672	338.65
1029.028	338.65
1029.383	294.18
1029.738	319.92
1030.093	254.39
1030.448	319.92
1030.803	343.33
1031.158	345.67
1031.513	310.56
1031.868	305.88
1032.223	305.88
1032.577	275.45
1032.932	333.97
1033.287	282.47
1033.641	312.9
1033.996	284.81
1034.35	336.31
1034.704	350.35
1035.059	315.24
1035.413	238
1035.767	238
1036.121	238
