Data from Al_FLMS009871__925__16-19-06-422.txt Node

Date: Fri Mar 08 16:19:06 CST 2024
User: pe5414po
Spectrometer: FLMS00987
Trigger mode: 0
Integration Time (sec): 1.000000E-1
Scans to average: 1
Electric dark correction enabled: true
Nonlinearity correction enabled: false
Boxcar width: 0
XAxis mode: Wavelengths
Number of Pixels in Spectrum: 2048
>>>>>Begin Spectral Data<<<<<
188.938	-85.28
189.409	-85.28
189.879	-85.28
190.349	-108.69
190.819	-162.52
191.29	-64.22
191.76	-78.26
192.23	-96.99
192.7	-150.82
193.17	-1.02
193.64	-31.45
194.109	-38.47
194.579	13.02
195.049	24.72
195.519	6
195.988	31.74
196.458	-17.41
196.927	73.87
197.397	120.68
197.866	87.92
198.336	120.68
198.805	183.88
199.274	169.84
199.744	165.15
200.213	195.58
200.682	211.96
201.151	181.54
201.62	244.73
202.089	242.39
202.558	300.91
203.027	223.67
203.495	209.62
203.964	207.28
204.433	319.63
204.902	333.67
205.37	282.18
205.839	321.97
206.307	319.63
206.776	277.5
207.244	265.8
207.712	314.95
208.181	265.8
208.649	310.27
209.117	303.25
209.585	293.88
210.053	340.69
210.521	303.25
210.989	352.4
211.457	298.56
211.925	242.39
212.393	256.43
212.861	331.33
213.328	214.31
213.796	286.86
214.264	272.82
214.731	354.74
215.199	298.56
215.666	226.01
216.133	275.16
216.601	314.95
217.068	230.69
217.535	263.46
218.003	286.86
218.47	233.03
218.937	237.71
219.404	251.75
219.871	263.46
220.338	284.52
220.805	226.01
221.271	307.93
221.738	305.59
222.205	230.69
222.671	279.84
223.138	268.14
223.605	282.18
224.071	289.2
224.538	265.8
225.004	272.82
225.47	303.25
225.937	291.54
226.403	240.05
226.869	218.99
227.335	314.95
227.801	312.61
228.267	300.91
228.733	265.8
229.199	284.52
229.665	303.25
230.131	261.12
230.597	235.37
231.062	317.29
231.528	261.12
231.994	261.12
232.459	361.76
232.925	263.46
233.39	235.37
233.856	230.69
234.321	235.37
234.786	270.48
235.252	272.82
235.717	230.69
236.182	265.8
236.647	286.86
237.112	319.63
237.577	258.78
238.042	233.03
238.507	265.8
238.972	261.12
239.436	300.91
239.901	218.99
240.366	277.5
240.83	312.61
241.295	305.59
241.76	272.82
242.224	279.84
242.688	321.97
243.153	270.48
243.617	298.56
244.081	282.18
244.545	226.01
245.01	223.67
245.474	249.41
245.938	314.95
246.402	268.14
246.866	268.14
247.33	230.69
247.793	270.48
248.257	284.52
248.721	303.25
249.185	275.16
249.648	279.84
250.112	254.09
250.575	284.52
251.039	256.43
251.502	298.56
251.965	296.22
252.429	314.95
252.892	307.93
253.355	298.56
253.818	310.27
254.281	312.61
254.744	326.65
255.207	244.73
255.67	286.86
256.133	296.22
256.596	265.8
257.059	254.09
257.522	310.27
257.984	303.25
258.447	307.93
258.909	195.58
259.372	305.59
259.834	333.67
260.297	312.61
260.759	272.82
261.221	324.31
261.684	279.84
262.146	270.48
262.608	251.75
263.07	300.91
263.532	312.61
263.994	258.78
264.456	371.12
264.918	282.18
265.38	291.54
265.842	345.38
266.303	368.78
266.765	321.97
267.227	296.22
267.688	352.4
268.15	310.27
268.611	261.12
269.072	270.48
269.534	242.39
269.995	350.06
270.456	305.59
270.918	240.05
271.379	244.73
271.84	268.14
272.301	261.12
272.762	312.61
273.223	279.84
273.684	324.31
274.144	321.97
274.605	286.86
275.066	265.8
275.527	277.5
275.987	293.88
276.448	331.33
276.908	321.97
277.369	312.61
277.829	279.84
278.289	284.52
278.75	312.61
279.21	265.8
279.67	223.67
280.13	268.14
280.59	340.69
281.05	368.78
281.51	256.43
281.97	347.72
282.43	218.99
282.89	284.52
283.35	284.52
283.809	256.43
284.269	254.09
284.729	331.33
285.188	279.84
285.648	289.2
286.107	270.48
286.567	263.46
287.026	261.12
287.485	319.63
287.944	305.59
288.404	272.82
288.863	263.46
289.322	296.22
289.781	324.31
290.24	270.48
290.699	235.37
291.158	305.59
291.616	307.93
292.075	312.61
292.534	300.91
292.992	319.63
293.451	293.88
293.91	263.46
294.368	312.61
294.827	357.08
295.285	333.67
295.743	279.84
296.202	314.95
296.66	317.29
297.118	338.35
297.576	298.56
298.034	305.59
298.492	307.93
298.95	375.8
299.408	254.09
299.866	305.59
300.324	279.84
300.781	286.86
301.239	254.09
301.697	357.08
302.154	331.33
302.612	314.95
303.069	336.01
303.527	319.63
303.984	328.99
304.441	303.25
304.899	256.43
305.356	314.95
305.813	221.33
306.27	333.67
306.727	293.88
307.184	326.65
307.641	284.52
308.098	284.52
308.555	326.65
309.012	326.65
309.468	258.78
309.925	340.69
310.382	289.2
310.838	314.95
311.295	296.22
311.751	317.29
312.208	307.93
312.664	324.31
313.12	289.2
313.577	321.97
314.033	314.95
314.489	333.67
314.945	293.88
315.401	296.22
315.857	345.38
316.313	270.48
316.769	326.65
317.225	275.16
317.681	279.84
318.136	272.82
318.592	347.72
319.048	324.31
319.503	326.65
319.959	314.95
320.414	263.46
320.869	282.18
321.325	289.2
321.78	310.27
322.235	331.33
322.691	254.09
323.146	300.91
323.601	296.22
324.056	338.35
324.511	359.42
324.966	328.99
325.421	338.35
325.875	275.16
326.33	296.22
326.785	350.06
327.24	333.67
327.694	338.35
328.149	354.74
328.603	303.25
329.058	256.43
329.512	307.93
329.966	240.05
330.421	286.86
330.875	279.84
331.329	312.61
331.783	272.82
332.237	265.8
332.691	289.2
333.145	272.82
333.599	307.93
334.053	300.91
334.507	331.33
334.96	296.22
335.414	310.27
335.868	282.18
336.321	268.14
336.775	312.61
337.228	270.48
337.682	258.78
338.135	286.86
338.588	326.65
339.042	359.42
339.495	338.35
339.948	345.38
340.401	345.38
340.854	347.72
341.307	251.75
341.76	361.76
342.213	305.59
342.666	314.95
343.119	328.99
343.571	286.86
344.024	242.39
344.477	340.69
344.929	321.97
345.382	272.82
345.834	303.25
346.287	338.35
346.739	321.97
347.191	289.2
347.644	347.72
348.096	345.38
348.548	282.18
349	392.19
349.452	305.59
349.904	338.35
350.356	324.31
350.808	328.99
351.26	310.27
351.711	293.88
352.163	380.48
352.615	265.8
353.066	286.86
353.518	310.27
353.969	293.88
354.421	340.69
354.872	326.65
355.324	298.56
355.775	328.99
356.226	340.69
356.677	331.33
357.128	361.76
357.579	291.54
358.03	333.67
358.481	336.01
358.932	279.84
359.383	331.33
359.834	319.63
360.285	368.78
360.735	277.5
361.186	310.27
361.637	270.48
362.087	314.95
362.538	359.42
362.988	298.56
363.438	277.5
363.889	338.35
364.339	298.56
364.789	279.84
365.239	211.96
365.689	312.61
366.139	286.86
366.589	296.22
367.039	258.78
367.489	312.61
367.939	373.46
368.389	293.88
368.839	298.56
369.288	382.82
369.738	336.01
370.187	249.41
370.637	307.93
371.086	357.08
371.536	324.31
371.985	282.18
372.434	275.16
372.884	338.35
373.333	328.99
373.782	321.97
374.231	282.18
374.68	321.97
375.129	296.22
375.578	333.67
376.027	303.25
376.475	328.99
376.924	336.01
377.373	298.56
377.822	284.52
378.27	317.29
378.719	240.05
379.167	282.18
379.616	277.5
380.064	284.52
380.512	310.27
380.961	336.01
381.409	328.99
381.857	270.48
382.305	312.61
382.753	324.31
383.201	338.35
383.649	282.18
384.097	328.99
384.545	321.97
384.992	317.29
385.44	333.67
385.888	300.91
386.335	324.31
386.783	275.16
387.231	286.86
387.678	303.25
388.125	328.99
388.573	293.88
389.02	331.33
389.467	396.87
389.914	270.48
390.362	272.82
390.809	312.61
391.256	275.16
391.703	261.12
392.15	352.4
392.596	343.03
393.043	345.38
393.49	284.52
393.937	268.14
394.383	275.16
394.83	307.93
395.276	286.86
395.723	275.16
396.169	321.97
396.616	317.29
397.062	296.22
397.508	364.1
397.954	275.16
398.401	336.01
398.847	272.82
399.293	284.52
399.739	286.86
400.185	303.25
400.631	291.54
401.076	352.4
401.522	326.65
401.968	261.12
402.414	298.56
402.859	216.65
403.305	289.2
403.75	300.91
404.196	305.59
404.641	268.14
405.086	300.91
405.532	347.72
405.977	286.86
406.422	293.88
406.867	317.29
407.312	352.4
407.757	277.5
408.202	303.25
408.647	307.93
409.092	366.44
409.537	303.25
409.982	265.8
410.426	265.8
410.871	319.63
411.316	333.67
411.76	345.38
412.205	293.88
412.649	326.65
413.093	282.18
413.538	317.29
413.982	324.31
414.426	275.16
414.87	319.63
415.314	296.22
415.758	282.18
416.202	247.07
416.646	251.75
417.09	310.27
417.534	336.01
417.978	314.95
418.421	303.25
418.865	296.22
419.309	357.08
419.752	343.03
420.196	303.25
420.639	312.61
421.083	289.2
421.526	286.86
421.969	284.52
422.412	293.88
422.856	270.48
423.299	361.76
423.742	275.16
424.185	265.8
424.628	326.65
425.071	366.44
425.513	265.8
425.956	284.52
426.399	321.97
426.842	282.18
427.284	324.31
427.727	293.88
428.169	303.25
428.612	303.25
429.054	277.5
429.497	336.01
429.939	270.48
430.381	321.97
430.823	237.71
431.265	307.93
431.707	319.63
432.149	296.22
432.591	312.61
433.033	364.1
433.475	272.82
433.917	314.95
434.359	237.71
434.8	359.42
435.242	300.91
435.684	343.03
436.125	284.52
436.567	378.14
437.008	279.84
437.449	328.99
437.891	293.88
438.332	354.74
438.773	336.01
439.214	286.86
439.656	324.31
440.097	298.56
440.538	296.22
440.978	338.35
441.419	293.88
441.86	251.75
442.301	286.86
442.742	307.93
443.182	286.86
443.623	307.93
444.063	305.59
444.504	312.61
444.944	277.5
445.385	307.93
445.825	357.08
446.265	312.61
446.706	368.78
447.146	340.69
447.586	300.91
448.026	300.91
448.466	336.01
448.906	336.01
449.346	312.61
449.786	338.35
450.225	263.46
450.665	296.22
451.105	277.5
451.544	303.25
451.984	380.48
452.424	314.95
452.863	321.97
453.302	368.78
453.742	340.69
454.181	289.2
454.62	359.42
455.059	331.33
455.499	331.33
455.938	326.65
456.377	296.22
456.816	293.88
457.254	321.97
457.693	275.16
458.132	268.14
458.571	242.39
459.01	350.06
459.448	317.29
459.887	336.01
460.325	317.29
460.764	333.67
461.202	331.33
461.641	291.54
462.079	375.8
462.517	300.91
462.955	298.56
463.393	298.56
463.832	324.31
464.27	319.63
464.708	347.72
465.145	361.76
465.583	371.12
466.021	326.65
466.459	272.82
466.897	333.67
467.334	307.93
467.772	307.93
468.209	324.31
468.647	338.35
469.084	312.61
469.522	272.82
469.959	343.03
470.396	331.33
470.833	314.95
471.271	298.56
471.708	305.59
472.145	350.06
472.582	298.56
473.019	336.01
473.456	314.95
473.892	261.12
474.329	270.48
474.766	347.72
475.202	305.59
475.639	298.56
476.076	333.67
476.512	357.08
476.949	375.8
477.385	298.56
477.821	385.16
478.258	317.29
478.694	240.05
479.13	343.03
479.566	249.41
480.002	357.08
480.438	286.86
480.874	303.25
481.31	345.38
481.746	251.75
482.181	291.54
482.617	368.78
483.053	298.56
483.488	310.27
483.924	300.91
484.36	389.85
484.795	293.88
485.23	319.63
485.666	324.31
486.101	333.67
486.536	298.56
486.971	359.42
487.407	263.46
487.842	382.82
488.277	331.33
488.712	277.5
489.146	303.25
489.581	268.14
490.016	226.01
490.451	326.65
490.885	354.74
491.32	275.16
491.755	378.14
492.189	352.4
492.624	272.82
493.058	319.63
493.492	303.25
493.927	312.61
494.361	284.52
494.795	366.44
495.229	282.18
495.663	298.56
496.097	373.46
496.531	298.56
496.965	380.48
497.399	319.63
497.833	319.63
498.266	296.22
498.7	296.22
499.134	336.01
499.567	324.31
500.001	352.4
500.434	303.25
500.868	359.42
501.301	249.41
501.734	275.16
502.168	237.71
502.601	312.61
503.034	242.39
503.467	331.33
503.9	265.8
504.333	284.52
504.766	284.52
505.199	277.5
505.632	298.56
506.064	317.29
506.497	331.33
506.93	317.29
507.362	364.1
507.795	328.99
508.227	324.31
508.66	289.2
509.092	347.72
509.524	300.91
509.956	296.22
510.389	373.46
510.821	338.35
511.253	300.91
511.685	310.27
512.117	289.2
512.549	343.03
512.981	347.72
513.412	282.18
513.844	305.59
514.276	300.91
514.707	354.74
515.139	286.86
515.571	277.5
516.002	298.56
516.433	357.08
516.865	394.53
517.296	293.88
517.727	331.33
518.159	291.54
518.59	413.25
519.021	333.67
519.452	303.25
519.883	261.12
520.314	338.35
520.744	343.03
521.175	261.12
521.606	364.1
522.037	352.4
522.467	310.27
522.898	307.93
523.328	291.54
523.759	347.72
524.189	326.65
524.62	310.27
525.05	324.31
525.48	375.8
525.91	389.85
526.341	305.59
526.771	314.95
527.201	303.25
527.631	282.18
528.061	284.52
528.49	289.2
528.92	321.97
529.35	326.65
529.78	249.41
530.209	307.93
530.639	385.16
531.068	354.74
531.498	291.54
531.927	345.38
532.357	300.91
532.786	343.03
533.215	310.27
533.644	310.27
534.074	310.27
534.503	371.12
534.932	307.93
535.361	333.67
535.79	347.72
536.218	296.22
536.647	223.67
537.076	286.86
537.505	298.56
537.933	305.59
538.362	256.43
538.79	296.22
539.219	312.61
539.647	371.12
540.076	289.2
540.504	331.33
540.932	289.2
541.36	307.93
541.788	317.29
542.217	324.31
542.645	307.93
543.073	366.44
543.5	268.14
543.928	333.67
544.356	307.93
544.784	324.31
545.211	361.76
545.639	331.33
546.067	284.52
546.494	277.5
546.922	303.25
547.349	350.06
547.776	307.93
548.204	321.97
548.631	289.2
549.058	307.93
549.485	284.52
549.912	282.18
550.339	350.06
550.766	338.35
551.193	324.31
551.62	331.33
552.047	272.82
552.474	317.29
552.9	328.99
553.327	321.97
553.754	307.93
554.18	319.63
554.607	338.35
555.033	296.22
555.459	317.29
555.886	366.44
556.312	328.99
556.738	272.82
557.164	303.25
557.59	338.35
558.016	305.59
558.442	291.54
558.868	291.54
559.294	261.12
559.72	352.4
560.145	275.16
560.571	314.95
560.997	300.91
561.422	254.09
561.848	321.97
562.273	368.78
562.699	256.43
563.124	328.99
563.549	347.72
563.974	312.61
564.4	321.97
564.825	326.65
565.25	310.27
565.675	361.76
566.1	289.2
566.525	284.52
566.95	385.16
567.374	314.95
567.799	331.33
568.224	310.27
568.648	331.33
569.073	277.5
569.497	321.97
569.922	303.25
570.346	343.03
570.771	303.25
571.195	307.93
571.619	340.69
572.043	293.88
572.467	321.97
572.891	321.97
573.315	375.8
573.739	303.25
574.163	336.01
574.587	237.71
575.011	317.29
575.435	328.99
575.858	275.16
576.282	286.86
576.705	359.42
577.129	310.27
577.552	328.99
577.976	373.46
578.399	307.93
578.822	350.06
579.245	244.73
579.669	338.35
580.092	328.99
580.515	352.4
580.938	382.82
581.361	328.99
581.784	333.67
582.206	347.72
582.629	321.97
583.052	263.46
583.474	333.67
583.897	275.16
584.32	277.5
584.742	289.2
585.165	319.63
585.587	312.61
586.009	312.61
586.431	275.16
586.854	361.76
587.276	296.22
587.698	317.29
588.12	293.88
588.542	289.2
588.964	279.84
589.386	321.97
589.807	343.03
590.229	289.2
590.651	263.46
591.073	328.99
591.494	298.56
591.916	350.06
592.337	305.59
592.759	277.5
593.18	347.72
593.601	314.95
594.022	293.88
594.444	359.42
594.865	336.01
595.286	343.03
595.707	293.88
596.128	345.38
596.549	420.27
596.97	333.67
597.39	336.01
597.811	350.06
598.232	328.99
598.652	357.08
599.073	303.25
599.494	375.8
599.914	284.52
600.334	296.22
600.755	272.82
601.175	293.88
601.595	193.24
602.015	312.61
602.436	321.97
602.856	497.51
603.276	261.12
603.696	340.69
604.115	321.97
604.535	270.48
604.955	328.99
605.375	385.16
605.794	303.25
606.214	336.01
606.634	310.27
607.053	286.86
607.473	352.4
607.892	279.84
608.311	347.72
608.731	254.09
609.15	312.61
609.569	345.38
609.988	254.09
610.407	338.35
610.826	347.72
611.245	275.16
611.664	300.91
612.083	343.03
612.501	314.95
612.92	263.46
613.339	331.33
613.757	338.35
614.176	340.69
614.594	312.61
615.013	343.03
615.431	317.29
615.85	291.54
616.268	410.91
616.686	265.8
617.104	382.82
617.522	343.03
617.94	380.48
618.358	314.95
618.776	317.29
619.194	282.18
619.612	331.33
620.03	326.65
620.447	312.61
620.865	282.18
621.282	268.14
621.7	307.93
622.117	338.35
622.535	336.01
622.952	324.31
623.369	368.78
623.787	347.72
624.204	296.22
624.621	221.33
625.038	237.71
625.455	359.42
625.872	286.86
626.289	307.93
626.706	350.06
627.123	261.12
627.539	312.61
627.956	312.61
628.373	268.14
628.789	279.84
629.206	328.99
629.622	359.42
630.038	350.06
630.455	350.06
630.871	286.86
631.287	357.08
631.703	368.78
632.12	340.69
632.536	340.69
632.952	317.29
633.368	357.08
633.783	270.48
634.199	293.88
634.615	336.01
635.031	310.27
635.446	296.22
635.862	310.27
636.277	378.14
636.693	277.5
637.108	347.72
637.524	350.06
637.939	314.95
638.354	321.97
638.77	261.12
639.185	314.95
639.6	331.33
640.015	336.01
640.43	256.43
640.845	300.91
641.259	289.2
641.674	312.61
642.089	324.31
642.504	312.61
642.918	268.14
643.333	240.05
643.747	336.01
644.162	317.29
644.576	382.82
644.991	326.65
645.405	321.97
645.819	366.44
646.233	357.08
646.647	328.99
647.061	272.82
647.475	312.61
647.889	343.03
648.303	272.82
648.717	338.35
649.131	272.82
649.545	373.46
649.958	247.07
650.372	300.91
650.785	282.18
651.199	296.22
651.612	277.5
652.026	336.01
652.439	413.25
652.852	324.31
653.266	265.8
653.679	265.8
654.092	347.72
654.505	333.67
654.918	242.39
655.331	261.12
655.744	331.33
656.156	291.54
656.569	350.06
656.982	380.48
657.394	338.35
657.807	228.35
658.22	277.5
658.632	261.12
659.044	321.97
659.457	385.16
659.869	307.93
660.281	289.2
660.693	324.31
661.106	307.93
661.518	305.59
661.93	310.27
662.342	258.78
662.754	293.88
663.165	352.4
663.577	261.12
663.989	286.86
664.401	261.12
664.812	317.29
665.224	336.01
665.635	324.31
666.047	307.93
666.458	328.99
666.869	272.82
667.281	347.72
667.692	336.01
668.103	310.27
668.514	352.4
668.925	366.44
669.336	277.5
669.747	258.78
670.158	310.27
670.569	312.61
670.979	268.14
671.39	293.88
671.801	242.39
672.211	371.12
672.622	321.97
673.032	364.1
673.443	340.69
673.853	366.44
674.263	359.42
674.674	331.33
675.084	319.63
675.494	307.93
675.904	361.76
676.314	345.38
676.724	336.01
677.134	300.91
677.544	305.59
677.953	364.1
678.363	361.76
678.773	244.73
679.182	291.54
679.592	307.93
680.001	235.37
680.411	312.61
680.82	258.78
681.23	263.46
681.639	347.72
682.048	300.91
682.457	326.65
682.866	256.43
683.275	296.22
683.684	338.35
684.093	328.99
684.502	305.59
684.911	336.01
685.32	298.56
685.728	328.99
686.137	333.67
686.546	284.52
686.954	310.27
687.363	352.4
687.771	296.22
688.179	317.29
688.588	265.8
688.996	366.44
689.404	312.61
689.812	293.88
690.22	291.54
690.628	331.33
691.036	286.86
691.444	326.65
691.852	275.16
692.26	286.86
692.667	326.65
693.075	284.52
693.483	310.27
693.89	233.03
694.298	326.65
694.705	343.03
695.112	256.43
695.52	240.05
695.927	300.91
696.334	328.99
696.741	373.46
697.148	289.2
697.555	364.1
697.962	258.78
698.369	258.78
698.776	235.37
699.183	357.08
699.59	254.09
699.996	279.84
700.403	326.65
700.81	413.25
701.216	328.99
701.623	291.54
702.029	282.18
702.435	296.22
702.842	291.54
703.248	333.67
703.654	277.5
704.06	277.5
704.466	303.25
704.872	343.03
705.278	331.33
705.684	256.43
706.09	261.12
706.496	307.93
706.901	293.88
707.307	312.61
707.712	289.2
708.118	240.05
708.523	324.31
708.929	336.01
709.334	242.39
709.74	263.46
710.145	233.03
710.55	354.74
710.955	291.54
711.36	352.4
711.765	291.54
712.17	305.59
712.575	282.18
712.98	904.76
713.385	289.2
713.789	263.46
714.194	345.38
714.599	338.35
715.003	359.42
715.408	277.5
715.812	291.54
716.217	305.59
716.621	254.09
717.025	279.84
717.429	373.46
717.833	282.18
718.238	340.69
718.642	286.86
719.046	328.99
719.449	282.18
719.853	263.46
720.257	293.88
720.661	279.84
721.065	296.22
721.468	324.31
721.872	333.67
722.275	340.69
722.679	328.99
723.082	331.33
723.485	317.29
723.889	293.88
724.292	275.16
724.695	338.35
725.098	298.56
725.501	333.67
725.904	298.56
726.307	293.88
726.71	357.08
727.113	296.22
727.516	293.88
727.918	310.27
728.321	331.33
728.724	324.31
729.126	293.88
729.529	289.2
729.931	333.67
730.333	401.55
730.736	293.88
731.138	298.56
731.54	380.48
731.942	279.84
732.344	258.78
732.746	303.25
733.148	282.18
733.55	298.56
733.952	333.67
734.354	176.86
734.756	307.93
735.157	314.95
735.559	268.14
735.96	350.06
736.362	310.27
736.763	310.27
737.165	261.12
737.566	289.2
737.967	359.42
738.368	314.95
738.77	300.91
739.171	305.59
739.572	240.05
739.973	247.07
740.374	265.8
740.774	258.78
741.175	321.97
741.576	289.2
741.977	317.29
742.377	293.88
742.778	326.65
743.178	298.56
743.579	319.63
743.979	282.18
744.379	340.69
744.78	296.22
745.18	343.03
745.58	343.03
745.98	268.14
746.38	289.2
746.78	312.61
747.18	321.97
747.58	279.84
747.98	298.56
748.38	357.08
748.779	359.42
749.179	317.29
749.578	300.91
749.978	310.27
750.377	361.76
750.777	331.33
751.176	328.99
751.575	291.54
751.975	263.46
752.374	275.16
752.773	336.01
753.172	324.31
753.571	277.5
753.97	286.86
754.369	289.2
754.768	319.63
755.166	303.25
755.565	270.48
755.964	317.29
756.362	338.35
756.761	314.95
757.159	359.42
757.558	314.95
757.956	347.72
758.354	347.72
758.753	293.88
759.151	293.88
759.549	331.33
759.947	347.72
760.345	343.03
760.743	331.33
761.141	237.71
761.539	298.56
761.936	277.5
762.334	289.2
762.732	312.61
763.129	321.97
763.527	380.48
763.924	270.48
764.322	338.35
764.719	261.12
765.117	312.61
765.514	321.97
765.911	286.86
766.308	296.22
766.705	305.59
767.102	340.69
767.499	336.01
767.896	303.25
768.293	265.8
768.69	265.8
769.086	289.2
769.483	328.99
769.88	293.88
770.276	321.97
770.673	326.65
771.069	324.31
771.466	324.31
771.862	345.38
772.258	396.87
772.654	371.12
773.05	312.61
773.447	331.33
773.843	361.76
774.239	293.88
774.634	312.61
775.03	326.65
775.426	307.93
775.822	270.48
776.218	312.61
776.613	289.2
777.009	385.16
777.404	314.95
777.8	277.5
778.195	303.25
778.59	291.54
778.986	333.67
779.381	261.12
779.776	233.03
780.171	270.48
780.566	310.27
780.961	270.48
781.356	310.27
781.751	277.5
782.146	310.27
782.54	272.82
782.935	319.63
783.33	216.65
783.724	293.88
784.119	361.76
784.513	343.03
784.908	296.22
785.302	338.35
785.696	298.56
786.09	317.29
786.485	359.42
786.879	331.33
787.273	361.76
787.667	310.27
788.061	324.31
788.454	261.12
788.848	303.25
789.242	317.29
789.636	347.72
790.029	317.29
790.423	314.95
790.816	317.29
791.21	244.73
791.603	305.59
791.997	300.91
792.39	331.33
792.783	314.95
793.176	343.03
793.569	317.29
793.962	361.76
794.355	359.42
794.748	303.25
795.141	275.16
795.534	296.22
795.927	331.33
796.319	378.14
796.712	317.29
797.105	368.78
797.497	228.35
797.89	415.59
798.282	364.1
798.674	286.86
799.067	293.88
799.459	261.12
799.851	307.93
800.243	328.99
800.635	307.93
801.027	312.61
801.419	216.65
801.811	371.12
802.203	352.4
802.594	385.16
802.986	279.84
803.378	343.03
803.769	270.48
804.161	251.75
804.552	319.63
804.944	291.54
805.335	303.25
805.726	254.09
806.118	338.35
806.509	305.59
806.9	361.76
807.291	345.38
807.682	291.54
808.073	338.35
808.464	312.61
808.855	340.69
809.245	282.18
809.636	296.22
810.027	291.54
810.417	218.99
810.808	354.74
811.198	319.63
811.589	312.61
811.979	328.99
812.369	307.93
812.759	291.54
813.15	333.67
813.54	336.01
813.93	286.86
814.32	310.27
814.71	328.99
815.1	326.65
815.489	286.86
815.879	326.65
816.269	314.95
816.658	314.95
817.048	305.59
817.438	378.14
817.827	328.99
818.216	298.56
818.606	256.43
818.995	350.06
819.384	284.52
819.773	328.99
820.163	338.35
820.552	345.38
820.941	373.46
821.33	359.42
821.718	333.67
822.107	319.63
822.496	324.31
822.885	333.67
823.273	242.39
823.662	321.97
824.05	305.59
824.439	307.93
824.827	275.16
825.216	235.37
825.604	293.88
825.992	279.84
826.38	314.95
826.768	321.97
827.156	310.27
827.544	284.52
827.932	286.86
828.32	312.61
828.708	265.8
829.096	333.67
829.483	373.46
829.871	293.88
830.259	331.33
830.646	317.29
831.034	298.56
831.421	328.99
831.808	307.93
832.196	289.2
832.583	272.82
832.97	300.91
833.357	300.91
833.744	240.05
834.131	249.41
834.518	324.31
834.905	333.67
835.292	375.8
835.678	298.56
836.065	345.38
836.452	261.12
836.838	312.61
837.225	272.82
837.611	263.46
837.998	268.14
838.384	300.91
838.77	298.56
839.157	328.99
839.543	361.76
839.929	340.69
840.315	291.54
840.701	244.73
841.087	319.63
841.473	261.12
841.858	279.84
842.244	296.22
842.63	268.14
843.015	277.5
843.401	534.96
843.787	352.4
844.172	303.25
844.557	303.25
844.943	326.65
845.328	277.5
845.713	298.56
846.098	261.12
846.483	307.93
846.868	282.18
847.253	317.29
847.638	343.03
848.023	324.31
848.408	380.48
848.793	300.91
849.177	333.67
849.562	275.16
849.947	373.46
850.331	317.29
850.715	343.03
851.1	350.06
851.484	331.33
851.868	230.69
852.253	272.82
852.637	289.2
853.021	359.42
853.405	331.33
853.789	336.01
854.173	314.95
854.557	319.63
854.94	340.69
855.324	336.01
855.708	366.44
856.091	359.42
856.475	352.4
856.858	293.88
857.242	296.22
857.625	319.63
858.009	307.93
858.392	251.75
858.775	303.25
859.158	336.01
859.541	258.78
859.924	268.14
860.307	282.18
860.69	303.25
861.073	324.31
861.456	317.29
861.838	293.88
862.221	272.82
862.604	298.56
862.986	350.06
863.369	333.67
863.751	331.33
864.133	300.91
864.516	338.35
864.898	303.25
865.28	265.8
865.662	289.2
866.044	305.59
866.426	296.22
866.808	293.88
867.19	312.61
867.572	347.72
867.954	303.25
868.336	345.38
868.717	326.65
869.099	242.39
869.48	357.08
869.862	345.38
870.243	282.18
870.625	314.95
871.006	310.27
871.387	272.82
871.768	268.14
872.149	380.48
872.53	331.33
872.911	277.5
873.292	300.91
873.673	303.25
874.054	289.2
874.435	307.93
874.815	307.93
875.196	324.31
875.577	289.2
875.957	258.78
876.338	300.91
876.718	268.14
877.098	336.01
877.479	296.22
877.859	317.29
878.239	347.72
878.619	336.01
878.999	296.22
879.379	317.29
879.759	338.35
880.139	263.46
880.519	258.78
880.898	387.5
881.278	328.99
881.658	305.59
882.037	338.35
882.417	350.06
882.796	307.93
883.176	324.31
883.555	303.25
883.934	282.18
884.313	321.97
884.693	324.31
885.072	275.16
885.451	378.14
885.83	277.5
886.209	321.97
886.587	251.75
886.966	312.61
887.345	293.88
887.724	307.93
888.102	279.84
888.481	277.5
888.859	303.25
889.238	303.25
889.616	375.8
889.994	282.18
890.373	359.42
890.751	265.8
891.129	359.42
891.507	361.76
891.885	347.72
892.263	326.65
892.641	261.12
893.019	373.46
893.396	284.52
893.774	300.91
894.152	366.44
894.529	310.27
894.907	352.4
895.284	373.46
895.662	244.73
896.039	310.27
896.416	305.59
896.794	345.38
897.171	249.41
897.548	286.86
897.925	314.95
898.302	340.69
898.679	338.35
899.056	284.52
899.433	293.88
899.809	307.93
900.186	275.16
900.563	361.76
900.939	321.97
901.316	261.12
901.692	268.14
902.069	307.93
902.445	279.84
902.821	387.5
903.197	314.95
903.574	345.38
903.95	282.18
904.326	333.67
904.702	359.42
905.078	345.38
905.454	333.67
905.829	244.73
906.205	312.61
906.581	345.38
906.956	314.95
907.332	270.48
907.707	328.99
908.083	326.65
908.458	272.82
908.833	326.65
909.209	296.22
909.584	296.22
909.959	357.08
910.334	333.67
910.709	300.91
911.084	336.01
911.459	331.33
911.834	282.18
912.209	340.69
912.583	357.08
912.958	286.86
913.333	289.2
913.707	282.18
914.082	331.33
914.456	286.86
914.83	256.43
915.205	305.59
915.579	352.4
915.953	364.1
916.327	350.06
916.701	289.2
917.075	279.84
917.449	340.69
917.823	305.59
918.197	326.65
918.571	300.91
918.944	314.95
919.318	326.65
919.692	251.75
920.065	328.99
920.438	286.86
920.812	293.88
921.185	296.22
921.558	352.4
921.932	394.53
922.305	242.39
922.678	321.97
923.051	340.69
923.424	270.48
923.797	328.99
924.17	211.96
924.542	317.29
924.915	312.61
925.288	357.08
925.661	310.27
926.033	275.16
926.406	310.27
926.778	275.16
927.15	272.82
927.523	244.73
927.895	261.12
928.267	314.95
928.639	293.88
929.011	249.41
929.383	277.5
929.755	310.27
930.127	331.33
930.499	275.16
930.871	317.29
931.242	378.14
931.614	282.18
931.986	359.42
932.357	261.12
932.729	197.92
933.1	303.25
933.471	333.67
933.843	289.2
934.214	282.18
934.585	291.54
934.956	331.33
935.327	331.33
935.698	328.99
936.069	352.4
936.44	277.5
936.811	275.16
937.182	331.33
937.552	319.63
937.923	303.25
938.293	317.29
938.664	345.38
939.034	270.48
939.405	300.91
939.775	293.88
940.145	277.5
940.516	324.31
940.886	310.27
941.256	310.27
941.626	340.69
941.996	345.38
942.366	265.8
942.735	258.78
943.105	343.03
943.475	256.43
943.845	328.99
944.214	307.93
944.584	298.56
944.953	312.61
945.323	279.84
945.692	305.59
946.061	366.44
946.43	305.59
946.8	298.56
947.169	314.95
947.538	326.65
947.907	324.31
948.276	293.88
948.645	389.85
949.013	350.06
949.382	268.14
949.751	336.01
950.119	336.01
950.488	265.8
950.857	289.2
951.225	256.43
951.593	272.82
951.962	277.5
952.33	284.52
952.698	324.31
953.066	275.16
953.434	291.54
953.802	303.25
954.17	331.33
954.538	312.61
954.906	293.88
955.274	305.59
955.642	340.69
956.009	293.88
956.377	307.93
956.744	275.16
957.112	326.65
957.479	336.01
957.847	321.97
958.214	240.05
958.581	326.65
958.948	375.8
959.315	352.4
959.683	303.25
960.05	275.16
960.416	291.54
960.783	305.59
961.15	289.2
961.517	275.16
961.884	298.56
962.25	291.54
962.617	312.61
962.983	291.54
963.35	401.55
963.716	338.35
964.082	328.99
964.449	396.87
964.815	328.99
965.181	296.22
965.547	310.27
965.913	319.63
966.279	284.52
966.645	347.72
967.011	303.25
967.377	328.99
967.742	277.5
968.108	293.88
968.474	296.22
968.839	279.84
969.205	314.95
969.57	312.61
969.935	396.87
970.301	279.84
970.666	319.63
971.031	336.01
971.396	298.56
971.761	284.52
972.126	347.72
972.491	286.86
972.856	282.18
973.221	324.31
973.586	340.69
973.95	310.27
974.315	307.93
974.679	282.18
975.044	378.14
975.408	321.97
975.773	333.67
976.137	300.91
976.501	324.31
976.866	340.69
977.23	298.56
977.594	307.93
977.958	286.86
978.322	359.42
978.686	321.97
979.049	389.85
979.413	291.54
979.777	331.33
980.141	326.65
980.504	256.43
980.868	303.25
981.231	333.67
981.595	251.75
981.958	347.72
982.321	312.61
982.684	331.33
983.048	303.25
983.411	296.22
983.774	333.67
984.137	321.97
984.5	298.56
984.862	279.84
985.225	364.1
985.588	340.69
985.951	307.93
986.313	249.41
986.676	399.21
987.038	366.44
987.401	359.42
987.763	319.63
988.125	265.8
988.488	312.61
988.85	300.91
989.212	359.42
989.574	277.5
989.936	284.52
990.298	270.48
990.66	268.14
991.022	350.06
991.383	345.38
991.745	289.2
992.107	244.73
992.468	359.42
992.83	265.8
993.191	286.86
993.553	268.14
993.914	291.54
994.275	340.69
994.637	307.93
994.998	279.84
995.359	317.29
995.72	314.95
996.081	284.52
996.442	291.54
996.803	310.27
997.163	347.72
997.524	364.1
997.885	247.07
998.245	286.86
998.606	310.27
998.966	282.18
999.327	254.09
999.687	368.78
1000.047	321.97
1000.408	286.86
1000.768	296.22
1001.128	240.05
1001.488	242.39
1001.848	303.25
1002.208	364.1
1002.568	293.88
1002.927	345.38
1003.287	305.59
1003.647	350.06
1004.007	305.59
1004.366	317.29
1004.726	380.48
1005.085	293.88
1005.444	307.93
1005.804	368.78
1006.163	268.14
1006.522	354.74
1006.881	312.61
1007.24	305.59
1007.599	293.88
1007.958	312.61
1008.317	343.03
1008.676	279.84
1009.035	261.12
1009.393	312.61
1009.752	382.82
1010.111	331.33
1010.469	296.22
1010.828	296.22
1011.186	303.25
1011.544	310.27
1011.903	312.61
1012.261	293.88
1012.619	345.38
1012.977	336.01
1013.335	300.91
1013.693	307.93
1014.051	336.01
1014.409	347.72
1014.767	244.73
1015.124	226.01
1015.482	380.48
1015.84	310.27
1016.197	263.46
1016.555	268.14
1016.912	286.86
1017.269	298.56
1017.627	310.27
1017.984	343.03
1018.341	326.65
1018.698	275.16
1019.055	338.35
1019.412	314.95
1019.769	261.12
1020.126	263.46
1020.483	345.38
1020.84	324.31
1021.196	275.16
1021.553	282.18
1021.909	328.99
1022.266	310.27
1022.622	270.48
1022.979	354.74
1023.335	268.14
1023.691	375.8
1024.047	338.35
1024.404	300.91
1024.76	305.59
1025.116	261.12
1025.472	343.03
1025.827	328.99
1026.183	263.46
1026.539	293.88
1026.895	268.14
1027.25	340.69
1027.606	268.14
1027.961	300.91
1028.317	387.5
1028.672	303.25
1029.028	312.61
1029.383	242.39
1029.738	324.31
1030.093	303.25
1030.448	298.56
1030.803	233.03
1031.158	268.14
1031.513	345.38
1031.868	270.48
1032.223	277.5
1032.577	343.03
1032.932	326.65
1033.287	286.86
1033.641	305.59
1033.996	289.2
1034.35	317.29
1034.704	324.31
1035.059	256.43
1035.413	279.84
1035.767	279.84
1036.121	279.84
