Data from Al_FLMS009871__929__16-19-06-822.txt Node

Date: Fri Mar 08 16:19:06 CST 2024
User: pe5414po
Spectrometer: FLMS00987
Trigger mode: 0
Integration Time (sec): 1.000000E-1
Scans to average: 1
Electric dark correction enabled: true
Nonlinearity correction enabled: false
Boxcar width: 0
XAxis mode: Wavelengths
Number of Pixels in Spectrum: 2048
>>>>>Begin Spectral Data<<<<<
188.938	-103.86
189.409	-103.86
189.879	-103.86
190.349	-35.99
190.819	-50.03
191.29	-150.67
191.76	-124.93
192.23	-40.67
192.7	-68.75
193.17	-57.05
193.64	-47.69
194.109	17.85
194.579	-10.24
195.049	8.48
195.519	45.93
195.988	41.25
196.458	17.85
196.927	22.53
197.397	50.61
197.866	134.87
198.336	160.62
198.805	172.32
199.274	127.85
199.744	174.66
200.213	184.02
200.682	198.07
201.151	132.53
201.62	294.03
202.089	247.22
202.558	261.26
203.027	249.56
203.495	277.65
203.964	277.65
204.433	296.37
204.902	279.99
205.37	354.88
205.839	279.99
206.307	303.39
206.776	317.44
207.244	350.2
207.712	298.71
208.181	256.58
208.649	296.37
209.117	270.62
209.585	254.24
210.053	322.12
210.521	226.15
210.989	256.58
211.457	247.22
211.925	282.33
212.393	287.01
212.861	272.96
213.328	282.33
213.796	329.14
214.264	240.2
214.731	242.54
215.199	305.73
215.666	174.66
216.133	258.92
216.601	247.22
217.068	270.62
217.535	247.22
218.003	265.94
218.47	247.22
218.937	291.69
219.404	205.09
219.871	361.91
220.338	254.24
220.805	254.24
221.271	277.65
221.738	223.81
222.205	298.71
222.671	235.52
223.138	277.65
223.605	326.8
224.071	275.31
224.538	312.75
225.004	301.05
225.47	275.31
225.937	289.35
226.403	277.65
226.869	235.52
227.335	268.28
227.801	272.96
228.267	242.54
228.733	331.48
229.199	305.73
229.665	256.58
230.131	254.24
230.597	317.44
231.062	272.96
231.528	298.71
231.994	226.15
232.459	301.05
232.925	294.03
233.39	249.56
233.856	270.62
234.321	277.65
234.786	338.5
235.252	291.69
235.717	261.26
236.182	312.75
236.647	275.31
237.112	315.09
237.577	287.01
238.042	312.75
238.507	263.6
238.972	263.6
239.436	247.22
239.901	256.58
240.366	193.39
240.83	268.28
241.295	249.56
241.76	329.14
242.224	301.05
242.688	223.81
243.153	237.86
243.617	256.58
244.081	291.69
244.545	263.6
245.01	181.68
245.474	254.24
245.938	258.92
246.402	258.92
246.866	277.65
247.33	277.65
247.793	282.33
248.257	308.07
248.721	237.86
249.185	284.67
249.648	261.26
250.112	305.73
250.575	312.75
251.039	272.96
251.502	263.6
251.965	303.39
252.429	294.03
252.892	202.75
253.355	249.56
253.818	240.2
254.281	235.52
254.744	333.82
255.207	326.8
255.67	251.9
256.133	312.75
256.596	254.24
257.059	322.12
257.522	289.35
257.984	350.2
258.447	230.84
258.909	347.86
259.372	258.92
259.834	298.71
260.297	263.6
260.759	308.07
261.221	319.78
261.684	312.75
262.146	270.62
262.608	268.28
263.07	200.41
263.532	179.34
263.994	319.78
264.456	247.22
264.918	205.09
265.38	315.09
265.842	282.33
266.303	282.33
266.765	254.24
267.227	275.31
267.688	312.75
268.15	315.09
268.611	244.88
269.072	263.6
269.534	244.88
269.995	324.46
270.456	270.62
270.918	287.01
271.379	282.33
271.84	268.28
272.301	345.52
272.762	275.31
273.223	289.35
273.684	263.6
274.144	275.31
274.605	261.26
275.066	272.96
275.527	331.48
275.987	305.73
276.448	263.6
276.908	340.84
277.369	371.27
277.829	296.37
278.289	284.67
278.75	296.37
279.21	333.82
279.67	312.75
280.13	275.31
280.59	254.24
281.05	237.86
281.51	265.94
281.97	296.37
282.43	268.28
282.89	287.01
283.35	315.09
283.809	310.41
284.269	298.71
284.729	279.99
285.188	270.62
285.648	279.99
286.107	324.46
286.567	270.62
287.026	279.99
287.485	354.88
287.944	247.22
288.404	336.16
288.863	261.26
289.322	345.52
289.781	289.35
290.24	291.69
290.699	331.48
291.158	373.61
291.616	298.71
292.075	265.94
292.534	301.05
292.992	216.79
293.451	279.99
293.91	247.22
294.368	287.01
294.827	268.28
295.285	291.69
295.743	270.62
296.202	296.37
296.66	317.44
297.118	298.71
297.576	324.46
298.034	256.58
298.492	298.71
298.95	289.35
299.408	294.03
299.866	317.44
300.324	282.33
300.781	331.48
301.239	308.07
301.697	282.33
302.154	251.9
302.612	282.33
303.069	272.96
303.527	303.39
303.984	343.18
304.441	322.12
304.899	324.46
305.356	277.65
305.813	305.73
306.27	205.09
306.727	282.33
307.184	326.8
307.641	336.16
308.098	312.75
308.555	336.16
309.012	296.37
309.468	289.35
309.925	298.71
310.382	301.05
310.838	298.71
311.295	289.35
311.751	270.62
312.208	322.12
312.664	319.78
313.12	317.44
313.577	294.03
314.033	294.03
314.489	305.73
314.945	329.14
315.401	308.07
315.857	319.78
316.313	352.54
316.769	331.48
317.225	268.28
317.681	326.8
318.136	352.54
318.592	289.35
319.048	315.09
319.503	284.67
319.959	326.8
320.414	294.03
320.869	270.62
321.325	261.26
321.78	272.96
322.235	303.39
322.691	282.33
323.146	345.52
323.601	336.16
324.056	287.01
324.511	277.65
324.966	258.92
325.421	284.67
325.875	331.48
326.33	284.67
326.785	275.31
327.24	265.94
327.694	333.82
328.149	291.69
328.603	221.47
329.058	315.09
329.512	291.69
329.966	336.16
330.421	291.69
330.875	265.94
331.329	298.71
331.783	296.37
332.237	303.39
332.691	319.78
333.145	329.14
333.599	284.67
334.053	265.94
334.507	324.46
334.96	324.46
335.414	282.33
335.868	357.22
336.321	235.52
336.775	251.9
337.228	354.88
337.682	301.05
338.135	305.73
338.588	291.69
339.042	289.35
339.495	308.07
339.948	296.37
340.401	340.84
340.854	305.73
341.307	326.8
341.76	303.39
342.213	326.8
342.666	319.78
343.119	312.75
343.571	289.35
344.024	343.18
344.477	331.48
344.929	347.86
345.382	315.09
345.834	378.29
346.287	322.12
346.739	263.6
347.191	301.05
347.644	308.07
348.096	352.54
348.548	301.05
349	338.5
349.452	333.82
349.904	312.75
350.356	312.75
350.808	418.08
351.26	287.01
351.711	298.71
352.163	268.28
352.615	375.95
353.066	364.25
353.518	326.8
353.969	265.94
354.421	326.8
354.872	319.78
355.324	345.52
355.775	298.71
356.226	343.18
356.677	312.75
357.128	315.09
357.579	312.75
358.03	294.03
358.481	345.52
358.932	272.96
359.383	251.9
359.834	305.73
360.285	343.18
360.735	317.44
361.186	338.5
361.637	359.56
362.087	317.44
362.538	265.94
362.988	382.97
363.438	296.37
363.889	287.01
364.339	251.9
364.789	366.59
365.239	350.2
365.689	317.44
366.139	256.58
366.589	340.84
367.039	324.46
367.489	282.33
367.939	289.35
368.389	315.09
368.839	305.73
369.288	331.48
369.738	333.82
370.187	322.12
370.637	298.71
371.086	303.39
371.536	301.05
371.985	354.88
372.434	305.73
372.884	322.12
373.333	315.09
373.782	272.96
374.231	289.35
374.68	322.12
375.129	329.14
375.578	373.61
376.027	249.56
376.475	317.44
376.924	268.28
377.373	324.46
377.822	359.56
378.27	336.16
378.719	340.84
379.167	294.03
379.616	289.35
380.064	291.69
380.512	340.84
380.961	291.69
381.409	315.09
381.857	251.9
382.305	347.86
382.753	315.09
383.201	343.18
383.649	275.31
384.097	256.58
384.545	329.14
384.992	289.35
385.44	317.44
385.888	310.41
386.335	338.5
386.783	315.09
387.231	308.07
387.678	294.03
388.125	287.01
388.573	301.05
389.02	251.9
389.467	289.35
389.914	343.18
390.362	308.07
390.809	263.6
391.256	265.94
391.703	303.39
392.15	317.44
392.596	345.52
393.043	287.01
393.49	268.28
393.937	235.52
394.383	322.12
394.83	275.31
395.276	322.12
395.723	298.71
396.169	375.95
396.616	324.46
397.062	272.96
397.508	287.01
397.954	279.99
398.401	357.22
398.847	312.75
399.293	296.37
399.739	312.75
400.185	317.44
400.631	301.05
401.076	329.14
401.522	378.29
401.968	319.78
402.414	294.03
402.859	319.78
403.305	361.91
403.75	310.41
404.196	263.6
404.641	347.86
405.086	361.91
405.532	331.48
405.977	287.01
406.422	282.33
406.867	310.41
407.312	359.56
407.757	287.01
408.202	289.35
408.647	375.95
409.092	324.46
409.537	305.73
409.982	312.75
410.426	378.29
410.871	287.01
411.316	294.03
411.76	289.35
412.205	305.73
412.649	324.46
413.093	312.75
413.538	296.37
413.982	279.99
414.426	275.31
414.87	303.39
415.314	315.09
415.758	284.67
416.202	247.22
416.646	343.18
417.09	282.33
417.534	397.01
417.978	375.95
418.421	268.28
418.865	279.99
419.309	277.65
419.752	343.18
420.196	319.78
420.639	336.16
421.083	382.97
421.526	350.2
421.969	308.07
422.412	357.22
422.856	368.93
423.299	345.52
423.742	296.37
424.185	326.8
424.628	338.5
425.071	296.37
425.513	308.07
425.956	317.44
426.399	308.07
426.842	324.46
427.284	308.07
427.727	331.48
428.169	256.58
428.612	322.12
429.054	322.12
429.497	298.71
429.939	366.59
430.381	277.65
430.823	287.01
431.265	343.18
431.707	261.26
432.149	319.78
432.591	345.52
433.033	298.71
433.475	312.75
433.917	359.56
434.359	385.31
434.8	392.33
435.242	317.44
435.684	291.69
436.125	315.09
436.567	333.82
437.008	373.61
437.449	331.48
437.891	272.96
438.332	303.39
438.773	364.25
439.214	256.58
439.656	315.09
440.097	338.5
440.538	333.82
440.978	284.67
441.419	287.01
441.86	331.48
442.301	268.28
442.742	270.62
443.182	315.09
443.623	312.75
444.063	347.86
444.504	322.12
444.944	247.22
445.385	298.71
445.825	277.65
446.265	333.82
446.706	329.14
447.146	301.05
447.586	265.94
448.026	303.39
448.466	350.2
448.906	296.37
449.346	329.14
449.786	301.05
450.225	329.14
450.665	301.05
451.105	294.03
451.544	338.5
451.984	375.95
452.424	343.18
452.863	291.69
453.302	235.52
453.742	301.05
454.181	375.95
454.62	345.52
455.059	375.95
455.499	338.5
455.938	310.41
456.377	301.05
456.816	275.31
457.254	329.14
457.693	305.73
458.132	333.82
458.571	338.5
459.01	380.63
459.448	352.54
459.887	340.84
460.325	317.44
460.764	343.18
461.202	289.35
461.641	298.71
462.079	329.14
462.517	270.62
462.955	298.71
463.393	275.31
463.832	279.99
464.27	338.5
464.708	345.52
465.145	242.54
465.583	301.05
466.021	354.88
466.459	315.09
466.897	233.18
467.334	368.93
467.772	319.78
468.209	336.16
468.647	364.25
469.084	317.44
469.522	315.09
469.959	315.09
470.396	317.44
470.833	312.75
471.271	326.8
471.708	265.94
472.145	298.71
472.582	326.8
473.019	296.37
473.456	270.62
473.892	226.15
474.329	312.75
474.766	317.44
475.202	308.07
475.639	326.8
476.076	361.91
476.512	366.59
476.949	331.48
477.385	284.67
477.821	289.35
478.258	312.75
478.694	310.41
479.13	352.54
479.566	324.46
480.002	317.44
480.438	319.78
480.874	305.73
481.31	340.84
481.746	331.48
482.181	354.88
482.617	338.5
483.053	308.07
483.488	301.05
483.924	310.41
484.36	336.16
484.795	310.41
485.23	294.03
485.666	352.54
486.101	366.59
486.536	322.12
486.971	254.24
487.407	329.14
487.842	308.07
488.277	333.82
488.712	333.82
489.146	338.5
489.581	272.96
490.016	322.12
490.451	289.35
490.885	312.75
491.32	333.82
491.755	305.73
492.189	361.91
492.624	294.03
493.058	347.86
493.492	317.44
493.927	298.71
494.361	279.99
494.795	258.92
495.229	315.09
495.663	317.44
496.097	317.44
496.531	228.49
496.965	373.61
497.399	284.67
497.833	331.48
498.266	294.03
498.7	347.86
499.134	275.31
499.567	375.95
500.001	310.41
500.434	333.82
500.868	329.14
501.301	287.01
501.734	291.69
502.168	338.5
502.601	331.48
503.034	343.18
503.467	312.75
503.9	291.69
504.333	333.82
504.766	389.99
505.199	308.07
505.632	371.27
506.064	319.78
506.497	354.88
506.93	312.75
507.362	298.71
507.795	359.56
508.227	371.27
508.66	298.71
509.092	343.18
509.524	317.44
509.956	347.86
510.389	345.52
510.821	312.75
511.253	368.93
511.685	298.71
512.117	282.33
512.549	340.84
512.981	333.82
513.412	287.01
513.844	373.61
514.276	263.6
514.707	338.5
515.139	336.16
515.571	284.67
516.002	354.88
516.433	263.6
516.865	319.78
517.296	331.48
517.727	347.86
518.159	326.8
518.59	329.14
519.021	333.82
519.452	338.5
519.883	352.54
520.314	359.56
520.744	371.27
521.175	289.35
521.606	343.18
522.037	354.88
522.467	249.56
522.898	322.12
523.328	312.75
523.759	303.39
524.189	322.12
524.62	354.88
525.05	287.01
525.48	301.05
525.91	319.78
526.341	277.65
526.771	303.39
527.201	289.35
527.631	338.5
528.061	324.46
528.49	275.31
528.92	301.05
529.35	331.48
529.78	301.05
530.209	312.75
530.639	333.82
531.068	301.05
531.498	315.09
531.927	324.46
532.357	282.33
532.786	275.31
533.215	291.69
533.644	289.35
534.074	284.67
534.503	291.69
534.932	305.73
535.361	319.78
535.79	270.62
536.218	315.09
536.647	310.41
537.076	284.67
537.505	301.05
537.933	284.67
538.362	345.52
538.79	291.69
539.219	296.37
539.647	343.18
540.076	310.41
540.504	336.16
540.932	254.24
541.36	411.06
541.788	270.62
542.217	347.86
542.645	322.12
543.073	282.33
543.5	317.44
543.928	354.88
544.356	277.65
544.784	296.37
545.211	291.69
545.639	270.62
546.067	270.62
546.494	340.84
546.922	284.67
547.349	277.65
547.776	312.75
548.204	326.8
548.631	301.05
549.058	352.54
549.485	382.97
549.912	324.46
550.339	228.49
550.766	291.69
551.193	279.99
551.62	298.71
552.047	265.94
552.474	291.69
552.9	301.05
553.327	331.48
553.754	322.12
554.18	324.46
554.607	329.14
555.033	287.01
555.459	324.46
555.886	287.01
556.312	312.75
556.738	277.65
557.164	289.35
557.59	350.2
558.016	312.75
558.442	272.96
558.868	317.44
559.294	350.2
559.72	329.14
560.145	310.41
560.571	324.46
560.997	331.48
561.422	305.73
561.848	272.96
562.273	357.22
562.699	336.16
563.124	333.82
563.549	406.38
563.974	333.82
564.4	338.5
564.825	289.35
565.25	294.03
565.675	254.24
566.1	289.35
566.525	296.37
566.95	308.07
567.374	329.14
567.799	329.14
568.224	275.31
568.648	289.35
569.073	336.16
569.497	263.6
569.922	329.14
570.346	324.46
570.771	312.75
571.195	303.39
571.619	343.18
572.043	315.09
572.467	312.75
572.891	305.73
573.315	277.65
573.739	275.31
574.163	340.84
574.587	338.5
575.011	373.61
575.435	289.35
575.858	282.33
576.282	301.05
576.705	319.78
577.129	265.94
577.552	322.12
577.976	357.22
578.399	338.5
578.822	287.01
579.245	263.6
579.669	287.01
580.092	305.73
580.515	315.09
580.938	345.52
581.361	375.95
581.784	345.52
582.206	326.8
582.629	298.71
583.052	298.71
583.474	385.31
583.897	312.75
584.32	294.03
584.742	303.39
585.165	326.8
585.587	338.5
586.009	282.33
586.431	343.18
586.854	343.18
587.276	326.8
587.698	305.73
588.12	347.86
588.542	289.35
588.964	275.31
589.386	308.07
589.807	294.03
590.229	287.01
590.651	350.2
591.073	305.73
591.494	326.8
591.916	366.59
592.337	354.88
592.759	291.69
593.18	340.84
593.601	303.39
594.022	268.28
594.444	331.48
594.865	315.09
595.286	305.73
595.707	333.82
596.128	340.84
596.549	385.31
596.97	289.35
597.39	303.39
597.811	317.44
598.232	254.24
598.652	347.86
599.073	256.58
599.494	357.22
599.914	303.39
600.334	301.05
600.755	277.65
601.175	333.82
601.595	305.73
602.015	310.41
602.436	296.37
602.856	434.46
603.276	322.12
603.696	336.16
604.115	263.6
604.535	298.71
604.955	291.69
605.375	301.05
605.794	331.48
606.214	333.82
606.634	326.8
607.053	338.5
607.473	291.69
607.892	315.09
608.311	359.56
608.731	308.07
609.15	371.27
609.569	296.37
609.988	294.03
610.407	375.95
610.826	294.03
611.245	368.93
611.664	308.07
612.083	291.69
612.501	287.01
612.92	324.46
613.339	324.46
613.757	312.75
614.176	338.5
614.594	261.26
615.013	331.48
615.431	294.03
615.85	272.96
616.268	343.18
616.686	387.65
617.104	324.46
617.522	277.65
617.94	310.41
618.358	279.99
618.776	301.05
619.194	350.2
619.612	265.94
620.03	366.59
620.447	336.16
620.865	291.69
621.282	277.65
621.7	329.14
622.117	371.27
622.535	294.03
622.952	375.95
623.369	294.03
623.787	277.65
624.204	308.07
624.621	277.65
625.038	263.6
625.455	319.78
625.872	289.35
626.289	247.22
626.706	326.8
627.123	343.18
627.539	296.37
627.956	368.93
628.373	296.37
628.789	256.58
629.206	270.62
629.622	331.48
630.038	315.09
630.455	265.94
630.871	319.78
631.287	294.03
631.703	347.86
632.12	354.88
632.536	366.59
632.952	357.22
633.368	319.78
633.783	301.05
634.199	312.75
634.615	272.96
635.031	352.54
635.446	333.82
635.862	329.14
636.277	333.82
636.693	263.6
637.108	406.38
637.524	326.8
637.939	282.33
638.354	303.39
638.77	394.67
639.185	347.86
639.6	322.12
640.015	371.27
640.43	329.14
640.845	305.73
641.259	347.86
641.674	296.37
642.089	373.61
642.504	347.86
642.918	354.88
643.333	268.28
643.747	345.52
644.162	340.84
644.576	301.05
644.991	317.44
645.405	336.16
645.819	209.77
646.233	258.92
646.647	305.73
647.061	289.35
647.475	308.07
647.889	347.86
648.303	214.45
648.717	392.33
649.131	303.39
649.545	279.99
649.958	282.33
650.372	275.31
650.785	265.94
651.199	305.73
651.612	336.16
652.026	324.46
652.439	296.37
652.852	282.33
653.266	331.48
653.679	284.67
654.092	345.52
654.505	284.67
654.918	333.82
655.331	380.63
655.744	296.37
656.156	322.12
656.569	352.54
656.982	275.31
657.394	326.8
657.807	317.44
658.22	268.28
658.632	289.35
659.044	329.14
659.457	279.99
659.869	350.2
660.281	294.03
660.693	350.2
661.106	310.41
661.518	336.16
661.93	347.86
662.342	394.67
662.754	347.86
663.165	272.96
663.577	298.71
663.989	263.6
664.401	296.37
664.812	301.05
665.224	254.24
665.635	326.8
666.047	329.14
666.458	331.48
666.869	287.01
667.281	347.86
667.692	326.8
668.103	319.78
668.514	343.18
668.925	294.03
669.336	315.09
669.747	247.22
670.158	305.73
670.569	312.75
670.979	296.37
671.39	308.07
671.801	357.22
672.211	308.07
672.622	272.96
673.032	298.71
673.443	340.84
673.853	291.69
674.263	289.35
674.674	333.82
675.084	373.61
675.494	324.46
675.904	315.09
676.314	289.35
676.724	294.03
677.134	322.12
677.544	284.67
677.953	331.48
678.363	340.84
678.773	366.59
679.182	282.33
679.592	329.14
680.001	301.05
680.411	296.37
680.82	305.73
681.23	352.54
681.639	319.78
682.048	319.78
682.457	340.84
682.866	345.52
683.275	289.35
683.684	282.33
684.093	375.95
684.502	305.73
684.911	308.07
685.32	345.52
685.728	282.33
686.137	366.59
686.546	284.67
686.954	289.35
687.363	308.07
687.771	324.46
688.179	361.91
688.588	333.82
688.996	364.25
689.404	331.48
689.812	331.48
690.22	387.65
690.628	294.03
691.036	303.39
691.444	347.86
691.852	291.69
692.26	263.6
692.667	371.27
693.075	329.14
693.483	324.46
693.89	310.41
694.298	329.14
694.705	265.94
695.112	338.5
695.52	331.48
695.927	319.78
696.334	272.96
696.741	263.6
697.148	343.18
697.555	287.01
697.962	324.46
698.369	347.86
698.776	357.22
699.183	284.67
699.59	298.71
699.996	336.16
700.403	333.82
700.81	296.37
701.216	333.82
701.623	331.48
702.029	382.97
702.435	368.93
702.842	331.48
703.248	270.62
703.654	291.69
704.06	298.71
704.466	287.01
704.872	305.73
705.278	364.25
705.684	352.54
706.09	303.39
706.496	303.39
706.901	322.12
707.307	331.48
707.712	331.48
708.118	272.96
708.523	319.78
708.929	301.05
709.334	263.6
709.74	333.82
710.145	361.91
710.55	301.05
710.955	315.09
711.36	338.5
711.765	270.62
712.17	354.88
712.575	249.56
712.98	874.48
713.385	296.37
713.789	303.39
714.194	364.25
714.599	261.26
715.003	310.41
715.408	340.84
715.812	282.33
716.217	279.99
716.621	317.44
717.025	333.82
717.429	296.37
717.833	287.01
718.238	279.99
718.642	312.75
719.046	331.48
719.449	270.62
719.853	298.71
720.257	265.94
720.661	338.5
721.065	352.54
721.468	265.94
721.872	303.39
722.275	361.91
722.679	301.05
723.082	340.84
723.485	287.01
723.889	305.73
724.292	340.84
724.695	310.41
725.098	301.05
725.501	303.39
725.904	331.48
726.307	324.46
726.71	296.37
727.113	277.65
727.516	291.69
727.918	329.14
728.321	270.62
728.724	350.2
729.126	308.07
729.529	310.41
729.931	277.65
730.333	317.44
730.736	287.01
731.138	326.8
731.54	296.37
731.942	345.52
732.344	289.35
732.746	303.39
733.148	411.06
733.55	284.67
733.952	256.58
734.354	373.61
734.756	258.92
735.157	294.03
735.559	282.33
735.96	329.14
736.362	303.39
736.763	312.75
737.165	343.18
737.566	315.09
737.967	319.78
738.368	338.5
738.77	282.33
739.171	336.16
739.572	340.84
739.973	296.37
740.374	287.01
740.774	305.73
741.175	279.99
741.576	329.14
741.977	308.07
742.377	331.48
742.778	279.99
743.178	364.25
743.579	366.59
743.979	308.07
744.379	338.5
744.78	256.58
745.18	345.52
745.58	305.73
745.98	350.2
746.38	310.41
746.78	296.37
747.18	387.65
747.58	303.39
747.98	329.14
748.38	380.63
748.779	322.12
749.179	315.09
749.578	319.78
749.978	268.28
750.377	284.67
750.777	333.82
751.176	275.31
751.575	347.86
751.975	289.35
752.374	296.37
752.773	270.62
753.172	329.14
753.571	268.28
753.97	336.16
754.369	228.49
754.768	326.8
755.166	301.05
755.565	336.16
755.964	308.07
756.362	287.01
756.761	331.48
757.159	338.5
757.558	364.25
757.956	359.56
758.354	322.12
758.753	310.41
759.151	338.5
759.549	350.2
759.947	310.41
760.345	380.63
760.743	333.82
761.141	282.33
761.539	282.33
761.936	263.6
762.334	308.07
762.732	298.71
763.129	352.54
763.527	333.82
763.924	375.95
764.322	312.75
764.719	308.07
765.117	275.31
765.514	312.75
765.911	272.96
766.308	343.18
766.705	289.35
767.102	380.63
767.499	329.14
767.896	287.01
768.293	326.8
768.69	345.52
769.086	265.94
769.483	347.86
769.88	298.71
770.276	303.39
770.673	265.94
771.069	366.59
771.466	291.69
771.862	256.58
772.258	352.54
772.654	357.22
773.05	301.05
773.447	277.65
773.843	333.82
774.239	242.54
774.634	282.33
775.03	291.69
775.426	303.39
775.822	284.67
776.218	256.58
776.613	305.73
777.009	305.73
777.404	301.05
777.8	282.33
778.195	291.69
778.59	336.16
778.986	308.07
779.381	333.82
779.776	338.5
780.171	315.09
780.566	270.62
780.961	322.12
781.356	354.88
781.751	361.91
782.146	326.8
782.54	331.48
782.935	347.86
783.33	303.39
783.724	312.75
784.119	359.56
784.513	287.01
784.908	324.46
785.302	329.14
785.696	301.05
786.09	305.73
786.485	350.2
786.879	265.94
787.273	338.5
787.667	310.41
788.061	284.67
788.454	319.78
788.848	352.54
789.242	324.46
789.636	305.73
790.029	352.54
790.423	296.37
790.816	284.67
791.21	322.12
791.603	322.12
791.997	331.48
792.39	298.71
792.783	324.46
793.176	282.33
793.569	291.69
793.962	305.73
794.355	303.39
794.748	261.26
795.141	324.46
795.534	315.09
795.927	275.31
796.319	361.91
796.712	279.99
797.105	298.71
797.497	303.39
797.89	291.69
798.282	397.01
798.674	336.16
799.067	401.69
799.459	198.07
799.851	282.33
800.243	263.6
800.635	317.44
801.027	247.22
801.419	338.5
801.811	296.37
802.203	319.78
802.594	336.16
802.986	277.65
803.378	329.14
803.769	308.07
804.161	282.33
804.552	312.75
804.944	308.07
805.335	296.37
805.726	340.84
806.118	310.41
806.509	310.41
806.9	350.2
807.291	312.75
807.682	301.05
808.073	258.92
808.464	319.78
808.855	310.41
809.245	282.33
809.636	361.91
810.027	289.35
810.417	343.18
810.808	249.56
811.198	282.33
811.589	279.99
811.979	326.8
812.369	261.26
812.759	397.01
813.15	296.37
813.54	270.62
813.93	331.48
814.32	289.35
814.71	207.43
815.1	331.48
815.489	298.71
815.879	268.28
816.269	298.71
816.658	310.41
817.048	333.82
817.438	373.61
817.827	322.12
818.216	294.03
818.606	329.14
818.995	303.39
819.384	317.44
819.773	338.5
820.163	324.46
820.552	296.37
820.941	319.78
821.33	331.48
821.718	324.46
822.107	317.44
822.496	270.62
822.885	371.27
823.273	310.41
823.662	279.99
824.05	279.99
824.439	209.77
824.827	284.67
825.216	282.33
825.604	270.62
825.992	298.71
826.38	287.01
826.768	263.6
827.156	282.33
827.544	298.71
827.932	331.48
828.32	270.62
828.708	329.14
829.096	305.73
829.483	270.62
829.871	310.41
830.259	308.07
830.646	254.24
831.034	331.48
831.421	279.99
831.808	329.14
832.196	223.81
832.583	287.01
832.97	333.82
833.357	340.84
833.744	301.05
834.131	312.75
834.518	350.2
834.905	265.94
835.292	301.05
835.678	301.05
836.065	361.91
836.452	333.82
836.838	357.22
837.225	291.69
837.611	301.05
837.998	242.54
838.384	298.71
838.77	305.73
839.157	329.14
839.543	277.65
839.929	336.16
840.315	326.8
840.701	368.93
841.087	268.28
841.473	294.03
841.858	359.56
842.244	303.39
842.63	329.14
843.015	317.44
843.401	549.15
843.787	399.35
844.172	352.54
844.557	254.24
844.943	312.75
845.328	251.9
845.713	294.03
846.098	340.84
846.483	291.69
846.868	244.88
847.253	322.12
847.638	319.78
848.023	333.82
848.408	287.01
848.793	272.96
849.177	338.5
849.562	315.09
849.947	294.03
850.331	308.07
850.715	282.33
851.1	352.54
851.484	340.84
851.868	254.24
852.253	368.93
852.637	343.18
853.021	368.93
853.405	310.41
853.789	287.01
854.173	333.82
854.557	308.07
854.94	282.33
855.324	343.18
855.708	270.62
856.091	279.99
856.475	359.56
856.858	329.14
857.242	308.07
857.625	228.49
858.009	326.8
858.392	287.01
858.775	282.33
859.158	275.31
859.541	291.69
859.924	237.86
860.307	279.99
860.69	282.33
861.073	319.78
861.456	258.92
861.838	352.54
862.221	270.62
862.604	357.22
862.986	272.96
863.369	331.48
863.751	279.99
864.133	279.99
864.516	329.14
864.898	329.14
865.28	301.05
865.662	317.44
866.044	289.35
866.426	272.96
866.808	230.84
867.19	333.82
867.572	294.03
867.954	294.03
868.336	258.92
868.717	275.31
869.099	289.35
869.48	296.37
869.862	258.92
870.243	256.58
870.625	319.78
871.006	303.39
871.387	237.86
871.768	275.31
872.149	338.5
872.53	272.96
872.911	268.28
873.292	319.78
873.673	319.78
874.054	254.24
874.435	254.24
874.815	326.8
875.196	296.37
875.577	296.37
875.957	305.73
876.338	338.5
876.718	298.71
877.098	308.07
877.479	331.48
877.859	317.44
878.239	254.24
878.619	331.48
878.999	350.2
879.379	385.31
879.759	345.52
880.139	268.28
880.519	296.37
880.898	258.92
881.278	413.4
881.658	298.71
882.037	326.8
882.417	322.12
882.796	279.99
883.176	272.96
883.555	294.03
883.934	256.58
884.313	371.27
884.693	303.39
885.072	268.28
885.451	287.01
885.83	287.01
886.209	289.35
886.587	282.33
886.966	345.52
887.345	312.75
887.724	270.62
888.102	303.39
888.481	357.22
888.859	340.84
889.238	333.82
889.616	275.31
889.994	305.73
890.373	315.09
890.751	296.37
891.129	336.16
891.507	329.14
891.885	308.07
892.263	359.56
892.641	275.31
893.019	270.62
893.396	310.41
893.774	317.44
894.152	254.24
894.529	258.92
894.907	284.67
895.284	287.01
895.662	359.56
896.039	291.69
896.416	303.39
896.794	315.09
897.171	284.67
897.548	235.52
897.925	258.92
898.302	366.59
898.679	373.61
899.056	338.5
899.433	343.18
899.809	303.39
900.186	277.65
900.563	368.93
900.939	333.82
901.316	411.06
901.692	305.73
902.069	312.75
902.445	338.5
902.821	275.31
903.197	275.31
903.574	228.49
903.95	319.78
904.326	389.99
904.702	357.22
905.078	301.05
905.454	315.09
905.829	277.65
906.205	279.99
906.581	324.46
906.956	263.6
907.332	284.67
907.707	284.67
908.083	350.2
908.458	340.84
908.833	282.33
909.209	329.14
909.584	296.37
909.959	329.14
910.334	272.96
910.709	329.14
911.084	394.67
911.459	308.07
911.834	296.37
912.209	333.82
912.583	188.71
912.958	343.18
913.333	279.99
913.707	289.35
914.082	359.56
914.456	235.52
914.83	298.71
915.205	340.84
915.579	312.75
915.953	357.22
916.327	240.2
916.701	298.71
917.075	333.82
917.449	315.09
917.823	310.41
918.197	317.44
918.571	279.99
918.944	303.39
919.318	233.18
919.692	272.96
920.065	284.67
920.438	350.2
920.812	338.5
921.185	308.07
921.558	296.37
921.932	310.41
922.305	282.33
922.678	310.41
923.051	308.07
923.424	242.54
923.797	277.65
924.17	319.78
924.542	319.78
924.915	322.12
925.288	265.94
925.661	279.99
926.033	319.78
926.406	315.09
926.778	343.18
927.15	333.82
927.523	336.16
927.895	282.33
928.267	345.52
928.639	303.39
929.011	364.25
929.383	331.48
929.755	347.86
930.127	364.25
930.499	263.6
930.871	275.31
931.242	310.41
931.614	282.33
931.986	256.58
932.357	329.14
932.729	263.6
933.1	291.69
933.471	287.01
933.843	244.88
934.214	305.73
934.585	347.86
934.956	324.46
935.327	247.22
935.698	277.65
936.069	294.03
936.44	315.09
936.811	322.12
937.182	263.6
937.552	284.67
937.923	268.28
938.293	298.71
938.664	277.65
939.034	324.46
939.405	291.69
939.775	261.26
940.145	298.71
940.516	336.16
940.886	308.07
941.256	324.46
941.626	275.31
941.996	326.8
942.366	284.67
942.735	312.75
943.105	294.03
943.475	301.05
943.845	294.03
944.214	310.41
944.584	282.33
944.953	310.41
945.323	296.37
945.692	329.14
946.061	310.41
946.43	291.69
946.8	338.5
947.169	317.44
947.538	310.41
947.907	268.28
948.276	258.92
948.645	357.22
949.013	345.52
949.382	324.46
949.751	275.31
950.119	364.25
950.488	263.6
950.857	345.52
951.225	303.39
951.593	268.28
951.962	336.16
952.33	296.37
952.698	298.71
953.066	333.82
953.434	303.39
953.802	242.54
954.17	251.9
954.538	312.75
954.906	270.62
955.274	282.33
955.642	298.71
956.009	294.03
956.377	287.01
956.744	326.8
957.112	343.18
957.479	270.62
957.847	287.01
958.214	289.35
958.581	275.31
958.948	294.03
959.315	312.75
959.683	368.93
960.05	261.26
960.416	385.31
960.783	315.09
961.15	315.09
961.517	319.78
961.884	242.54
962.25	230.84
962.617	270.62
962.983	289.35
963.35	291.69
963.716	322.12
964.082	312.75
964.449	322.12
964.815	289.35
965.181	319.78
965.547	249.56
965.913	324.46
966.279	277.65
966.645	303.39
967.011	291.69
967.377	265.94
967.742	289.35
968.108	312.75
968.474	361.91
968.839	254.24
969.205	352.54
969.57	317.44
969.935	296.37
970.301	289.35
970.666	244.88
971.031	289.35
971.396	312.75
971.761	350.2
972.126	331.48
972.491	380.63
972.856	350.2
973.221	315.09
973.586	291.69
973.95	258.92
974.315	275.31
974.679	254.24
975.044	294.03
975.408	310.41
975.773	359.56
976.137	305.73
976.501	338.5
976.866	329.14
977.23	282.33
977.594	277.65
977.958	294.03
978.322	287.01
978.686	310.41
979.049	258.92
979.413	284.67
979.777	305.73
980.141	284.67
980.504	282.33
980.868	354.88
981.231	319.78
981.595	294.03
981.958	338.5
982.321	347.86
982.684	308.07
983.048	235.52
983.411	221.47
983.774	333.82
984.137	357.22
984.5	261.26
984.862	361.91
985.225	284.67
985.588	322.12
985.951	324.46
986.313	331.48
986.676	331.48
987.038	254.24
987.401	319.78
987.763	378.29
988.125	301.05
988.488	277.65
988.85	343.18
989.212	315.09
989.574	305.73
989.936	329.14
990.298	345.52
990.66	312.75
991.022	289.35
991.383	294.03
991.745	277.65
992.107	298.71
992.468	333.82
992.83	242.54
993.191	296.37
993.553	294.03
993.914	326.8
994.275	317.44
994.637	345.52
994.998	312.75
995.359	287.01
995.72	233.18
996.081	279.99
996.442	303.39
996.803	338.5
997.163	303.39
997.524	326.8
997.885	331.48
998.245	315.09
998.606	338.5
998.966	263.6
999.327	322.12
999.687	291.69
1000.047	298.71
1000.408	282.33
1000.768	315.09
1001.128	315.09
1001.488	244.88
1001.848	326.8
1002.208	343.18
1002.568	331.48
1002.927	284.67
1003.287	258.92
1003.647	298.71
1004.007	294.03
1004.366	272.96
1004.726	254.24
1005.085	237.86
1005.444	265.94
1005.804	296.37
1006.163	338.5
1006.522	329.14
1006.881	296.37
1007.24	291.69
1007.599	298.71
1007.958	347.86
1008.317	315.09
1008.676	368.93
1009.035	315.09
1009.393	317.44
1009.752	287.01
1010.111	354.88
1010.469	277.65
1010.828	294.03
1011.186	336.16
1011.544	350.2
1011.903	279.99
1012.261	284.67
1012.619	263.6
1012.977	345.52
1013.335	287.01
1013.693	265.94
1014.051	240.2
1014.409	315.09
1014.767	308.07
1015.124	298.71
1015.482	272.96
1015.84	350.2
1016.197	350.2
1016.555	312.75
1016.912	294.03
1017.269	305.73
1017.627	282.33
1017.984	352.54
1018.341	268.28
1018.698	301.05
1019.055	317.44
1019.412	319.78
1019.769	312.75
1020.126	294.03
1020.483	324.46
1020.84	298.71
1021.196	272.96
1021.553	315.09
1021.909	315.09
1022.266	270.62
1022.622	237.86
1022.979	305.73
1023.335	340.84
1023.691	322.12
1024.047	312.75
1024.404	277.65
1024.76	298.71
1025.116	301.05
1025.472	296.37
1025.827	282.33
1026.183	279.99
1026.539	308.07
1026.895	352.54
1027.25	322.12
1027.606	315.09
1027.961	275.31
1028.317	303.39
1028.672	294.03
1029.028	305.73
1029.383	354.88
1029.738	230.84
1030.093	291.69
1030.448	375.95
1030.803	261.26
1031.158	219.13
1031.513	345.52
1031.868	301.05
1032.223	319.78
1032.577	265.94
1032.932	324.46
1033.287	317.44
1033.641	301.05
1033.996	263.6
1034.35	361.91
1034.704	340.84
1035.059	294.03
1035.413	315.09
1035.767	315.09
1036.121	315.09
