Data from Al_FLMS009871__932__16-19-07-123.txt Node

Date: Fri Mar 08 16:19:07 CST 2024
User: pe5414po
Spectrometer: FLMS00987
Trigger mode: 0
Integration Time (sec): 1.000000E-1
Scans to average: 1
Electric dark correction enabled: true
Nonlinearity correction enabled: false
Boxcar width: 0
XAxis mode: Wavelengths
Number of Pixels in Spectrum: 2048
>>>>>Begin Spectral Data<<<<<
188.938	-21.5
189.409	-21.5
189.879	-21.5
190.349	-143.21
190.819	-117.47
191.29	-157.25
191.76	-103.42
192.23	-82.36
192.7	-77.68
193.17	-63.63
193.64	-51.93
194.109	13.6
194.579	-28.53
195.049	-12.14
195.519	27.65
195.988	53.39
196.458	58.07
196.927	83.82
197.397	95.52
197.866	97.86
198.336	147.01
198.805	177.44
199.274	97.86
199.744	130.63
200.213	151.7
200.682	221.91
201.151	242.98
201.62	273.4
202.089	271.06
202.558	280.43
203.027	273.4
203.495	322.56
203.964	242.98
204.433	303.83
204.902	313.19
205.37	341.28
205.839	245.32
206.307	271.06
206.776	273.4
207.244	334.26
207.712	310.85
208.181	317.87
208.649	317.87
209.117	313.19
209.585	278.08
210.053	299.15
210.521	266.38
210.989	257.02
211.457	278.08
211.925	278.08
212.393	336.6
212.861	381.07
213.328	240.64
213.796	310.85
214.264	296.81
214.731	289.79
215.199	296.81
215.666	301.49
216.133	233.61
216.601	217.23
217.068	280.43
217.535	301.49
218.003	257.02
218.47	303.83
218.937	271.06
219.404	289.79
219.871	271.06
220.338	278.08
220.805	259.36
221.271	247.66
221.738	280.43
222.205	191.49
222.671	235.96
223.138	278.08
223.605	231.27
224.071	238.3
224.538	268.72
225.004	205.53
225.47	264.04
225.937	292.13
226.403	250
226.869	235.96
227.335	275.74
227.801	322.56
228.267	280.43
228.733	207.87
229.199	331.92
229.665	245.32
230.131	273.4
230.597	252.34
231.062	289.79
231.528	320.21
231.994	271.06
232.459	247.66
232.925	280.43
233.39	242.98
233.856	266.38
234.321	261.7
234.786	278.08
235.252	289.79
235.717	308.51
236.182	320.21
236.647	327.24
237.112	306.17
237.577	271.06
238.042	360
238.507	303.83
238.972	280.43
239.436	268.72
239.901	303.83
240.366	268.72
240.83	282.77
241.295	360
241.76	324.9
242.224	287.45
242.688	310.85
243.153	247.66
243.617	240.64
244.081	221.91
244.545	278.08
245.01	317.87
245.474	310.85
245.938	343.62
246.402	404.47
246.866	278.08
247.33	317.87
247.793	303.83
248.257	320.21
248.721	257.02
249.185	278.08
249.648	303.83
250.112	315.53
250.575	271.06
251.039	254.68
251.502	296.81
251.965	315.53
252.429	320.21
252.892	252.34
253.355	322.56
253.818	306.17
254.281	264.04
254.744	341.28
255.207	336.6
255.67	310.85
256.133	259.36
256.596	322.56
257.059	273.4
257.522	374.05
257.984	355.32
258.447	301.49
258.909	254.68
259.372	369.37
259.834	327.24
260.297	331.92
260.759	271.06
261.221	411.5
261.684	306.17
262.146	355.32
262.608	306.17
263.07	327.24
263.532	313.19
263.994	292.13
264.456	294.47
264.918	268.72
265.38	308.51
265.842	334.26
266.303	341.28
266.765	329.58
267.227	296.81
267.688	261.7
268.15	329.58
268.611	334.26
269.072	313.19
269.534	310.85
269.995	294.47
270.456	289.79
270.918	198.51
271.379	296.81
271.84	285.11
272.301	287.45
272.762	327.24
273.223	289.79
273.684	292.13
274.144	329.58
274.605	226.59
275.066	285.11
275.527	313.19
275.987	331.92
276.448	285.11
276.908	331.92
277.369	287.45
277.829	338.94
278.289	315.53
278.75	296.81
279.21	357.66
279.67	362.34
280.13	369.37
280.59	338.94
281.05	287.45
281.51	294.47
281.97	376.39
282.43	273.4
282.89	308.51
283.35	301.49
283.809	273.4
284.269	303.83
284.729	294.47
285.188	392.77
285.648	327.24
286.107	233.61
286.567	250
287.026	324.9
287.485	285.11
287.944	289.79
288.404	257.02
288.863	231.27
289.322	296.81
289.781	343.62
290.24	257.02
290.699	371.71
291.158	315.53
291.616	250
292.075	259.36
292.534	292.13
292.992	292.13
293.451	287.45
293.91	278.08
294.368	282.77
294.827	374.05
295.285	303.83
295.743	338.94
296.202	245.32
296.66	289.79
297.118	299.15
297.576	273.4
298.034	271.06
298.492	322.56
298.95	313.19
299.408	242.98
299.866	313.19
300.324	313.19
300.781	352.98
301.239	315.53
301.697	313.19
302.154	250
302.612	301.49
303.069	292.13
303.527	362.34
303.984	385.75
304.441	315.53
304.899	336.6
305.356	322.56
305.813	343.62
306.27	275.74
306.727	282.77
307.184	341.28
307.641	296.81
308.098	306.17
308.555	310.85
309.012	327.24
309.468	315.53
309.925	259.36
310.382	306.17
310.838	345.96
311.295	228.93
311.751	296.81
312.208	287.45
312.664	301.49
313.12	317.87
313.577	352.98
314.033	343.62
314.489	273.4
314.945	383.41
315.401	345.96
315.857	287.45
316.313	292.13
316.769	355.32
317.225	303.83
317.681	322.56
318.136	320.21
318.592	317.87
319.048	317.87
319.503	343.62
319.959	348.3
320.414	308.51
320.869	308.51
321.325	331.92
321.78	315.53
322.235	327.24
322.691	252.34
323.146	345.96
323.601	324.9
324.056	329.58
324.511	322.56
324.966	336.6
325.421	317.87
325.875	301.49
326.33	322.56
326.785	334.26
327.24	369.37
327.694	355.32
328.149	294.47
328.603	292.13
329.058	329.58
329.512	310.85
329.966	313.19
330.421	381.07
330.875	345.96
331.329	327.24
331.783	317.87
332.237	287.45
332.691	348.3
333.145	252.34
333.599	280.43
334.053	303.83
334.507	348.3
334.96	317.87
335.414	360
335.868	392.77
336.321	301.49
336.775	336.6
337.228	327.24
337.682	348.3
338.135	313.19
338.588	317.87
339.042	285.11
339.495	317.87
339.948	327.24
340.401	320.21
340.854	322.56
341.307	310.85
341.76	383.41
342.213	317.87
342.666	331.92
343.119	306.17
343.571	355.32
344.024	364.68
344.477	331.92
344.929	362.34
345.382	306.17
345.834	303.83
346.287	331.92
346.739	320.21
347.191	315.53
347.644	343.62
348.096	357.66
348.548	315.53
349	299.15
349.452	264.04
349.904	296.81
350.356	308.51
350.808	292.13
351.26	294.47
351.711	322.56
352.163	367.03
352.615	327.24
353.066	383.41
353.518	399.79
353.969	367.03
354.421	322.56
354.872	280.43
355.324	327.24
355.775	352.98
356.226	341.28
356.677	367.03
357.128	350.64
357.579	322.56
358.03	278.08
358.481	343.62
358.932	289.79
359.383	306.17
359.834	287.45
360.285	371.71
360.735	371.71
361.186	257.02
361.637	357.66
362.087	352.98
362.538	367.03
362.988	282.77
363.438	320.21
363.889	331.92
364.339	273.4
364.789	327.24
365.239	266.38
365.689	388.09
366.139	338.94
366.589	331.92
367.039	303.83
367.489	352.98
367.939	320.21
368.389	322.56
368.839	357.66
369.288	278.08
369.738	343.62
370.187	336.6
370.637	362.34
371.086	275.74
371.536	320.21
371.985	343.62
372.434	317.87
372.884	343.62
373.333	329.58
373.782	252.34
374.231	315.53
374.68	388.09
375.129	334.26
375.578	327.24
376.027	322.56
376.475	296.81
376.924	324.9
377.373	301.49
377.822	374.05
378.27	362.34
378.719	376.39
379.167	404.47
379.616	313.19
380.064	378.73
380.512	315.53
380.961	360
381.409	360
381.857	287.45
382.305	292.13
382.753	245.32
383.201	282.77
383.649	278.08
384.097	362.34
384.545	355.32
384.992	345.96
385.44	364.68
385.888	306.17
386.335	315.53
386.783	317.87
387.231	317.87
387.678	345.96
388.125	371.71
388.573	268.72
389.02	369.37
389.467	341.28
389.914	336.6
390.362	292.13
390.809	371.71
391.256	334.26
391.703	399.79
392.15	289.79
392.596	308.51
393.043	367.03
393.49	357.66
393.937	320.21
394.383	303.83
394.83	336.6
395.276	392.77
395.723	355.32
396.169	261.7
396.616	390.43
397.062	252.34
397.508	402.13
397.954	336.6
398.401	308.51
398.847	273.4
399.293	313.19
399.739	317.87
400.185	299.15
400.631	331.92
401.076	345.96
401.522	395.11
401.968	327.24
402.414	317.87
402.859	264.04
403.305	275.74
403.75	313.19
404.196	308.51
404.641	322.56
405.086	313.19
405.532	376.39
405.977	334.26
406.422	271.06
406.867	306.17
407.312	334.26
407.757	327.24
408.202	362.34
408.647	331.92
409.092	338.94
409.537	352.98
409.982	294.47
410.426	315.53
410.871	324.9
411.316	378.73
411.76	385.75
412.205	418.52
412.649	334.26
413.093	348.3
413.538	338.94
413.982	369.37
414.426	334.26
414.87	343.62
415.314	331.92
415.758	360
416.202	385.75
416.646	301.49
417.09	343.62
417.534	287.45
417.978	278.08
418.421	322.56
418.865	303.83
419.309	343.62
419.752	306.17
420.196	320.21
420.639	371.71
421.083	362.34
421.526	264.04
421.969	334.26
422.412	350.64
422.856	362.34
423.299	329.58
423.742	369.37
424.185	301.49
424.628	338.94
425.071	324.9
425.513	257.02
425.956	348.3
426.399	317.87
426.842	341.28
427.284	357.66
427.727	301.49
428.169	360
428.612	303.83
429.054	315.53
429.497	350.64
429.939	280.43
430.381	343.62
430.823	315.53
431.265	296.81
431.707	278.08
432.149	275.74
432.591	338.94
433.033	310.85
433.475	315.53
433.917	348.3
434.359	352.98
434.8	331.92
435.242	402.13
435.684	278.08
436.125	364.68
436.567	390.43
437.008	390.43
437.449	266.38
437.891	231.27
438.332	374.05
438.773	292.13
439.214	296.81
439.656	348.3
440.097	306.17
440.538	350.64
440.978	374.05
441.419	362.34
441.86	303.83
442.301	292.13
442.742	273.4
443.182	313.19
443.623	324.9
444.063	329.58
444.504	322.56
444.944	350.64
445.385	371.71
445.825	310.85
446.265	308.51
446.706	334.26
447.146	320.21
447.586	362.34
448.026	336.6
448.466	317.87
448.906	287.45
449.346	350.64
449.786	338.94
450.225	341.28
450.665	369.37
451.105	324.9
451.544	352.98
451.984	360
452.424	348.3
452.863	352.98
453.302	273.4
453.742	334.26
454.181	343.62
454.62	331.92
455.059	292.13
455.499	383.41
455.938	357.66
456.377	362.34
456.816	352.98
457.254	383.41
457.693	308.51
458.132	303.83
458.571	362.34
459.01	348.3
459.448	331.92
459.887	313.19
460.325	399.79
460.764	329.58
461.202	294.47
461.641	334.26
462.079	320.21
462.517	362.34
462.955	345.96
463.393	329.58
463.832	315.53
464.27	374.05
464.708	395.11
465.145	345.96
465.583	327.24
466.021	320.21
466.459	392.77
466.897	350.64
467.334	336.6
467.772	275.74
468.209	364.68
468.647	275.74
469.084	352.98
469.522	406.81
469.959	320.21
470.396	308.51
470.833	343.62
471.271	287.45
471.708	371.71
472.145	341.28
472.582	327.24
473.019	324.9
473.456	334.26
473.892	259.36
474.329	296.81
474.766	308.51
475.202	371.71
475.639	362.34
476.076	306.17
476.512	301.49
476.949	313.19
477.385	338.94
477.821	367.03
478.258	367.03
478.694	360
479.13	348.3
479.566	308.51
480.002	308.51
480.438	294.47
480.874	329.58
481.31	327.24
481.746	322.56
482.181	299.15
482.617	315.53
483.053	275.74
483.488	327.24
483.924	362.34
484.36	355.32
484.795	352.98
485.23	390.43
485.666	345.96
486.101	329.58
486.536	322.56
486.971	367.03
487.407	231.27
487.842	299.15
488.277	355.32
488.712	324.9
489.146	350.64
489.581	310.85
490.016	289.79
490.451	350.64
490.885	343.62
491.32	343.62
491.755	322.56
492.189	280.43
492.624	306.17
493.058	352.98
493.492	352.98
493.927	310.85
494.361	345.96
494.795	334.26
495.229	296.81
495.663	338.94
496.097	322.56
496.531	331.92
496.965	357.66
497.399	395.11
497.833	360
498.266	343.62
498.7	301.49
499.134	350.64
499.567	289.79
500.001	390.43
500.434	329.58
500.868	289.79
501.301	324.9
501.734	280.43
502.168	371.71
502.601	331.92
503.034	327.24
503.467	338.94
503.9	345.96
504.333	343.62
504.766	357.66
505.199	360
505.632	266.38
506.064	322.56
506.497	343.62
506.93	327.24
507.362	268.72
507.795	338.94
508.227	306.17
508.66	352.98
509.092	317.87
509.524	338.94
509.956	299.15
510.389	324.9
510.821	362.34
511.253	350.64
511.685	317.87
512.117	313.19
512.549	334.26
512.981	245.32
513.412	338.94
513.844	327.24
514.276	334.26
514.707	348.3
515.139	350.64
515.571	289.79
516.002	369.37
516.433	320.21
516.865	397.45
517.296	348.3
517.727	336.6
518.159	381.07
518.59	294.47
519.021	329.58
519.452	383.41
519.883	271.06
520.314	301.49
520.744	264.04
521.175	364.68
521.606	313.19
522.037	350.64
522.467	350.64
522.898	289.79
523.328	317.87
523.759	338.94
524.189	287.45
524.62	329.58
525.05	317.87
525.48	308.51
525.91	308.51
526.341	329.58
526.771	336.6
527.201	285.11
527.631	303.83
528.061	374.05
528.49	378.73
528.92	271.06
529.35	338.94
529.78	362.34
530.209	322.56
530.639	362.34
531.068	317.87
531.498	355.32
531.927	338.94
532.357	338.94
532.786	282.77
533.215	402.13
533.644	336.6
534.074	322.56
534.503	350.64
534.932	299.15
535.361	350.64
535.79	331.92
536.218	250
536.647	301.49
537.076	289.79
537.505	334.26
537.933	343.62
538.362	329.58
538.79	341.28
539.219	331.92
539.647	348.3
540.076	310.85
540.504	299.15
540.932	310.85
541.36	282.77
541.788	350.64
542.217	303.83
542.645	388.09
543.073	416.18
543.5	308.51
543.928	320.21
544.356	343.62
544.784	343.62
545.211	399.79
545.639	252.34
546.067	289.79
546.494	367.03
546.922	315.53
547.349	282.77
547.776	294.47
548.204	322.56
548.631	294.47
549.058	315.53
549.485	345.96
549.912	310.85
550.339	343.62
550.766	362.34
551.193	310.85
551.62	289.79
552.047	299.15
552.474	352.98
552.9	329.58
553.327	261.7
553.754	294.47
554.18	271.06
554.607	367.03
555.033	364.68
555.459	336.6
555.886	329.58
556.312	383.41
556.738	331.92
557.164	345.96
557.59	378.73
558.016	299.15
558.442	322.56
558.868	292.13
559.294	299.15
559.72	315.53
560.145	280.43
560.571	315.53
560.997	336.6
561.422	317.87
561.848	310.85
562.273	313.19
562.699	315.53
563.124	360
563.549	378.73
563.974	303.83
564.4	320.21
564.825	343.62
565.25	287.45
565.675	334.26
566.1	310.85
566.525	350.64
566.95	329.58
567.374	329.58
567.799	348.3
568.224	317.87
568.648	371.71
569.073	313.19
569.497	331.92
569.922	364.68
570.346	345.96
570.771	324.9
571.195	320.21
571.619	357.66
572.043	374.05
572.467	327.24
572.891	334.26
573.315	322.56
573.739	317.87
574.163	322.56
574.587	285.11
575.011	273.4
575.435	282.77
575.858	350.64
576.282	338.94
576.705	306.17
577.129	327.24
577.552	369.37
577.976	310.85
578.399	355.32
578.822	367.03
579.245	308.51
579.669	310.85
580.092	322.56
580.515	331.92
580.938	303.83
581.361	317.87
581.784	331.92
582.206	329.58
582.629	338.94
583.052	278.08
583.474	331.92
583.897	296.81
584.32	331.92
584.742	280.43
585.165	315.53
585.587	343.62
586.009	329.58
586.431	329.58
586.854	327.24
587.276	329.58
587.698	296.81
588.12	299.15
588.542	350.64
588.964	275.74
589.386	383.41
589.807	348.3
590.229	317.87
590.651	301.49
591.073	352.98
591.494	345.96
591.916	275.74
592.337	341.28
592.759	289.79
593.18	301.49
593.601	360
594.022	348.3
594.444	362.34
594.865	350.64
595.286	388.09
595.707	357.66
596.128	308.51
596.549	418.52
596.97	348.3
597.39	315.53
597.811	364.68
598.232	369.37
598.652	362.34
599.073	317.87
599.494	273.4
599.914	331.92
600.334	273.4
600.755	427.88
601.175	280.43
601.595	303.83
602.015	343.62
602.436	402.13
602.856	474.69
603.276	341.28
603.696	348.3
604.115	352.98
604.535	289.79
604.955	357.66
605.375	282.77
605.794	378.73
606.214	315.53
606.634	336.6
607.053	308.51
607.473	327.24
607.892	334.26
608.311	306.17
608.731	308.51
609.15	285.11
609.569	341.28
609.988	376.39
610.407	292.13
610.826	374.05
611.245	334.26
611.664	306.17
612.083	360
612.501	350.64
612.92	331.92
613.339	315.53
613.757	329.58
614.176	296.81
614.594	282.77
615.013	329.58
615.431	338.94
615.85	331.92
616.268	329.58
616.686	345.96
617.104	289.79
617.522	364.68
617.94	371.71
618.358	285.11
618.776	313.19
619.194	331.92
619.612	327.24
620.03	329.58
620.447	338.94
620.865	385.75
621.282	310.85
621.7	331.92
622.117	378.73
622.535	360
622.952	299.15
623.369	341.28
623.787	301.49
624.204	334.26
624.621	338.94
625.038	317.87
625.455	278.08
625.872	331.92
626.289	338.94
626.706	369.37
627.123	374.05
627.539	413.84
627.956	404.47
628.373	331.92
628.789	348.3
629.206	364.68
629.622	289.79
630.038	360
630.455	259.36
630.871	308.51
631.287	336.6
631.703	327.24
632.12	329.58
632.536	362.34
632.952	336.6
633.368	317.87
633.783	317.87
634.199	388.09
634.615	390.43
635.031	327.24
635.446	313.19
635.862	369.37
636.277	310.85
636.693	362.34
637.108	317.87
637.524	367.03
637.939	371.71
638.354	285.11
638.77	282.77
639.185	327.24
639.6	364.68
640.015	296.81
640.43	338.94
640.845	364.68
641.259	313.19
641.674	280.43
642.089	371.71
642.504	331.92
642.918	299.15
643.333	376.39
643.747	261.7
644.162	381.07
644.576	371.71
644.991	266.38
645.405	341.28
645.819	360
646.233	310.85
646.647	287.45
647.061	324.9
647.475	264.04
647.889	371.71
648.303	355.32
648.717	357.66
649.131	367.03
649.545	303.83
649.958	334.26
650.372	369.37
650.785	360
651.199	289.79
651.612	296.81
652.026	296.81
652.439	292.13
652.852	320.21
653.266	308.51
653.679	338.94
654.092	310.85
654.505	313.19
654.918	331.92
655.331	420.86
655.744	238.3
656.156	341.28
656.569	381.07
656.982	334.26
657.394	327.24
657.807	296.81
658.22	338.94
658.632	320.21
659.044	320.21
659.457	261.7
659.869	371.71
660.281	336.6
660.693	360
661.106	406.81
661.518	341.28
661.93	338.94
662.342	271.06
662.754	381.07
663.165	371.71
663.577	348.3
663.989	345.96
664.401	341.28
664.812	306.17
665.224	296.81
665.635	364.68
666.047	331.92
666.458	329.58
666.869	306.17
667.281	367.03
667.692	341.28
668.103	310.85
668.514	322.56
668.925	264.04
669.336	341.28
669.747	264.04
670.158	360
670.569	376.39
670.979	317.87
671.39	367.03
671.801	331.92
672.211	413.84
672.622	331.92
673.032	299.15
673.443	303.83
673.853	282.77
674.263	374.05
674.674	348.3
675.084	303.83
675.494	282.77
675.904	299.15
676.314	355.32
676.724	364.68
677.134	320.21
677.544	299.15
677.953	317.87
678.363	364.68
678.773	327.24
679.182	402.13
679.592	364.68
680.001	303.83
680.411	308.51
680.82	289.79
681.23	360
681.639	289.79
682.048	357.66
682.457	317.87
682.866	289.79
683.275	334.26
683.684	299.15
684.093	327.24
684.502	313.19
684.911	341.28
685.32	301.49
685.728	341.28
686.137	285.11
686.546	362.34
686.954	371.71
687.363	397.45
687.771	315.53
688.179	352.98
688.588	334.26
688.996	357.66
689.404	306.17
689.812	334.26
690.22	296.81
690.628	315.53
691.036	313.19
691.444	282.77
691.852	315.53
692.26	329.58
692.667	352.98
693.075	409.15
693.483	360
693.89	357.66
694.298	285.11
694.705	315.53
695.112	306.17
695.52	338.94
695.927	360
696.334	315.53
696.741	296.81
697.148	362.34
697.555	350.64
697.962	310.85
698.369	334.26
698.776	334.26
699.183	367.03
699.59	315.53
699.996	294.47
700.403	329.58
700.81	324.9
701.216	327.24
701.623	338.94
702.029	343.62
702.435	317.87
702.842	348.3
703.248	406.81
703.654	322.56
704.06	385.75
704.466	383.41
704.872	266.38
705.278	381.07
705.684	273.4
706.09	331.92
706.496	388.09
706.901	273.4
707.307	334.26
707.712	331.92
708.118	296.81
708.523	371.71
708.929	303.83
709.334	324.9
709.74	296.81
710.145	395.11
710.55	296.81
710.955	324.9
711.36	315.53
711.765	315.53
712.17	247.66
712.575	320.21
712.98	839.81
713.385	413.84
713.789	296.81
714.194	348.3
714.599	350.64
715.003	324.9
715.408	360
715.812	343.62
716.217	341.28
716.621	324.9
717.025	320.21
717.429	334.26
717.833	352.98
718.238	352.98
718.642	324.9
719.046	374.05
719.449	334.26
719.853	362.34
720.257	320.21
720.661	390.43
721.065	322.56
721.468	292.13
721.872	259.36
722.275	252.34
722.679	395.11
723.082	367.03
723.485	308.51
723.889	287.45
724.292	289.79
724.695	369.37
725.098	266.38
725.501	313.19
725.904	282.77
726.307	331.92
726.71	343.62
727.113	338.94
727.516	278.08
727.918	327.24
728.321	287.45
728.724	306.17
729.126	322.56
729.529	306.17
729.931	406.81
730.333	306.17
730.736	362.34
731.138	310.85
731.54	315.53
731.942	329.58
732.344	390.43
732.746	301.49
733.148	303.83
733.55	357.66
733.952	331.92
734.354	357.66
734.756	364.68
735.157	306.17
735.559	313.19
735.96	324.9
736.362	331.92
736.763	261.7
737.165	301.49
737.566	371.71
737.967	292.13
738.368	334.26
738.77	322.56
739.171	303.83
739.572	362.34
739.973	345.96
740.374	259.36
740.774	413.84
741.175	320.21
741.576	376.39
741.977	289.79
742.377	310.85
742.778	317.87
743.178	308.51
743.579	360
743.979	313.19
744.379	355.32
744.78	299.15
745.18	322.56
745.58	320.21
745.98	329.58
746.38	331.92
746.78	360
747.18	338.94
747.58	434.9
747.98	299.15
748.38	296.81
748.779	357.66
749.179	275.74
749.578	357.66
749.978	360
750.377	338.94
750.777	313.19
751.176	334.26
751.575	322.56
751.975	352.98
752.374	374.05
752.773	338.94
753.172	381.07
753.571	320.21
753.97	334.26
754.369	341.28
754.768	303.83
755.166	306.17
755.565	299.15
755.964	315.53
756.362	371.71
756.761	273.4
757.159	367.03
757.558	336.6
757.956	310.85
758.354	301.49
758.753	336.6
759.151	411.5
759.549	355.32
759.947	322.56
760.345	289.79
760.743	294.47
761.141	308.51
761.539	299.15
761.936	296.81
762.334	294.47
762.732	282.77
763.129	360
763.527	289.79
763.924	278.08
764.322	385.75
764.719	341.28
765.117	362.34
765.514	360
765.911	310.85
766.308	280.43
766.705	287.45
767.102	306.17
767.499	352.98
767.896	303.83
768.293	322.56
768.69	338.94
769.086	371.71
769.483	338.94
769.88	348.3
770.276	343.62
770.673	350.64
771.069	348.3
771.466	322.56
771.862	257.02
772.258	310.85
772.654	367.03
773.05	299.15
773.447	329.58
773.843	381.07
774.239	355.32
774.634	383.41
775.03	317.87
775.426	369.37
775.822	301.49
776.218	308.51
776.613	360
777.009	313.19
777.404	292.13
777.8	341.28
778.195	374.05
778.59	334.26
778.986	324.9
779.381	345.96
779.776	352.98
780.171	322.56
780.566	306.17
780.961	324.9
781.356	374.05
781.751	310.85
782.146	334.26
782.54	292.13
782.935	352.98
783.33	331.92
783.724	299.15
784.119	329.58
784.513	275.74
784.908	371.71
785.302	324.9
785.696	308.51
786.09	369.37
786.485	324.9
786.879	329.58
787.273	273.4
787.667	369.37
788.061	287.45
788.454	240.64
788.848	360
789.242	345.96
789.636	371.71
790.029	226.59
790.423	338.94
790.816	334.26
791.21	313.19
791.603	357.66
791.997	341.28
792.39	331.92
792.783	320.21
793.176	352.98
793.569	383.41
793.962	348.3
794.355	245.32
794.748	331.92
795.141	315.53
795.534	313.19
795.927	308.51
796.319	350.64
796.712	329.58
797.105	301.49
797.497	278.08
797.89	299.15
798.282	362.34
798.674	364.68
799.067	331.92
799.459	362.34
799.851	308.51
800.243	278.08
800.635	303.83
801.027	315.53
801.419	296.81
801.811	322.56
802.203	301.49
802.594	324.9
802.986	292.13
803.378	338.94
803.769	282.77
804.161	289.79
804.552	338.94
804.944	285.11
805.335	252.34
805.726	388.09
806.118	378.73
806.509	331.92
806.9	310.85
807.291	383.41
807.682	310.85
808.073	278.08
808.464	287.45
808.855	369.37
809.245	294.47
809.636	345.96
810.027	362.34
810.417	287.45
810.808	292.13
811.198	324.9
811.589	327.24
811.979	296.81
812.369	329.58
812.759	341.28
813.15	334.26
813.54	299.15
813.93	296.81
814.32	299.15
814.71	296.81
815.1	264.04
815.489	327.24
815.879	348.3
816.269	374.05
816.658	301.49
817.048	299.15
817.438	299.15
817.827	285.11
818.216	383.41
818.606	369.37
818.995	303.83
819.384	303.83
819.773	287.45
820.163	299.15
820.552	329.58
820.941	292.13
821.33	395.11
821.718	268.72
822.107	294.47
822.496	313.19
822.885	411.5
823.273	364.68
823.662	282.77
824.05	306.17
824.439	320.21
824.827	285.11
825.216	294.47
825.604	388.09
825.992	306.17
826.38	299.15
826.768	343.62
827.156	329.58
827.544	315.53
827.932	273.4
828.32	266.38
828.708	320.21
829.096	345.96
829.483	348.3
829.871	341.28
830.259	282.77
830.646	336.6
831.034	308.51
831.421	289.79
831.808	329.58
832.196	345.96
832.583	411.5
832.97	350.64
833.357	345.96
833.744	266.38
834.131	289.79
834.518	313.19
834.905	292.13
835.292	341.28
835.678	348.3
836.065	308.51
836.452	329.58
836.838	252.34
837.225	367.03
837.611	350.64
837.998	327.24
838.384	261.7
838.77	303.83
839.157	341.28
839.543	292.13
839.929	313.19
840.315	331.92
840.701	343.62
841.087	324.9
841.473	327.24
841.858	287.45
842.244	385.75
842.63	385.75
843.015	376.39
843.401	570.65
843.787	310.85
844.172	327.24
844.557	313.19
844.943	355.32
845.328	350.64
845.713	313.19
846.098	345.96
846.483	371.71
846.868	322.56
847.253	306.17
847.638	348.3
848.023	350.64
848.408	315.53
848.793	287.45
849.177	376.39
849.562	313.19
849.947	348.3
850.331	343.62
850.715	376.39
851.1	350.64
851.484	273.4
851.868	360
852.253	315.53
852.637	369.37
853.021	376.39
853.405	294.47
853.789	338.94
854.173	315.53
854.557	278.08
854.94	350.64
855.324	371.71
855.708	345.96
856.091	235.96
856.475	324.9
856.858	334.26
857.242	376.39
857.625	355.32
858.009	266.38
858.392	357.66
858.775	376.39
859.158	280.43
859.541	308.51
859.924	282.77
860.307	374.05
860.69	294.47
861.073	327.24
861.456	317.87
861.838	341.28
862.221	308.51
862.604	329.58
862.986	350.64
863.369	374.05
863.751	315.53
864.133	308.51
864.516	327.24
864.898	343.62
865.28	327.24
865.662	306.17
866.044	261.7
866.426	313.19
866.808	334.26
867.19	266.38
867.572	282.77
867.954	360
868.336	343.62
868.717	315.53
869.099	395.11
869.48	294.47
869.862	278.08
870.243	315.53
870.625	362.34
871.006	294.47
871.387	343.62
871.768	334.26
872.149	273.4
872.53	329.58
872.911	306.17
873.292	306.17
873.673	278.08
874.054	289.79
874.435	345.96
874.815	348.3
875.196	315.53
875.577	254.68
875.957	317.87
876.338	341.28
876.718	378.73
877.098	301.49
877.479	345.96
877.859	285.11
878.239	315.53
878.619	338.94
878.999	341.28
879.379	322.56
879.759	324.9
880.139	324.9
880.519	336.6
880.898	329.58
881.278	324.9
881.658	385.75
882.037	264.04
882.417	364.68
882.796	355.32
883.176	320.21
883.555	317.87
883.934	341.28
884.313	331.92
884.693	322.56
885.072	355.32
885.451	313.19
885.83	301.49
886.209	362.34
886.587	329.58
886.966	350.64
887.345	362.34
887.724	294.47
888.102	348.3
888.481	378.73
888.859	348.3
889.238	310.85
889.616	334.26
889.994	266.38
890.373	268.72
890.751	289.79
891.129	294.47
891.507	296.81
891.885	296.81
892.263	338.94
892.641	364.68
893.019	329.58
893.396	376.39
893.774	324.9
894.152	317.87
894.529	364.68
894.907	308.51
895.284	364.68
895.662	352.98
896.039	317.87
896.416	308.51
896.794	341.28
897.171	364.68
897.548	334.26
897.925	275.74
898.302	308.51
898.679	254.68
899.056	308.51
899.433	306.17
899.809	296.81
900.186	261.7
900.563	289.79
900.939	327.24
901.316	367.03
901.692	334.26
902.069	345.96
902.445	322.56
902.821	425.54
903.197	336.6
903.574	352.98
903.95	336.6
904.326	371.71
904.702	334.26
905.078	331.92
905.454	362.34
905.829	345.96
906.205	343.62
906.581	324.9
906.956	329.58
907.332	320.21
907.707	289.79
908.083	320.21
908.458	334.26
908.833	336.6
909.209	308.51
909.584	294.47
909.959	327.24
910.334	287.45
910.709	280.43
911.084	303.83
911.459	343.62
911.834	360
912.209	310.85
912.583	355.32
912.958	343.62
913.333	301.49
913.707	352.98
914.082	317.87
914.456	247.66
914.83	287.45
915.205	350.64
915.579	338.94
915.953	345.96
916.327	315.53
916.701	329.58
917.075	315.53
917.449	322.56
917.823	378.73
918.197	306.17
918.571	280.43
918.944	282.77
919.318	292.13
919.692	287.45
920.065	292.13
920.438	299.15
920.812	336.6
921.185	322.56
921.558	352.98
921.932	261.7
922.305	242.98
922.678	271.06
923.051	306.17
923.424	329.58
923.797	336.6
924.17	271.06
924.542	303.83
924.915	287.45
925.288	308.51
925.661	294.47
926.033	317.87
926.406	399.79
926.778	292.13
927.15	289.79
927.523	329.58
927.895	271.06
928.267	278.08
928.639	313.19
929.011	402.13
929.383	374.05
929.755	345.96
930.127	334.26
930.499	338.94
930.871	364.68
931.242	355.32
931.614	294.47
931.986	306.17
932.357	327.24
932.729	299.15
933.1	336.6
933.471	287.45
933.843	306.17
934.214	327.24
934.585	289.79
934.956	308.51
935.327	362.34
935.698	320.21
936.069	303.83
936.44	308.51
936.811	308.51
937.182	324.9
937.552	327.24
937.923	367.03
938.293	345.96
938.664	275.74
939.034	296.81
939.405	299.15
939.775	345.96
940.145	308.51
940.516	306.17
940.886	310.85
941.256	289.79
941.626	317.87
941.996	345.96
942.366	287.45
942.735	308.51
943.105	383.41
943.475	280.43
943.845	303.83
944.214	348.3
944.584	336.6
944.953	331.92
945.323	285.11
945.692	371.71
946.061	378.73
946.43	336.6
946.8	348.3
947.169	367.03
947.538	315.53
947.907	329.58
948.276	327.24
948.645	336.6
949.013	238.3
949.382	296.81
949.751	317.87
950.119	285.11
950.488	345.96
950.857	315.53
951.225	315.53
951.593	345.96
951.962	310.85
952.33	322.56
952.698	381.07
953.066	287.45
953.434	299.15
953.802	289.79
954.17	306.17
954.538	348.3
954.906	320.21
955.274	289.79
955.642	317.87
956.009	315.53
956.377	388.09
956.744	327.24
957.112	345.96
957.479	374.05
957.847	278.08
958.214	334.26
958.581	345.96
958.948	336.6
959.315	303.83
959.683	352.98
960.05	301.49
960.416	322.56
960.783	364.68
961.15	235.96
961.517	329.58
961.884	430.22
962.25	315.53
962.617	275.74
962.983	369.37
963.35	317.87
963.716	313.19
964.082	320.21
964.449	367.03
964.815	334.26
965.181	317.87
965.547	338.94
965.913	317.87
966.279	374.05
966.645	259.36
967.011	308.51
967.377	331.92
967.742	242.98
968.108	331.92
968.474	306.17
968.839	327.24
969.205	352.98
969.57	364.68
969.935	259.36
970.301	338.94
970.666	233.61
971.031	292.13
971.396	317.87
971.761	296.81
972.126	355.32
972.491	313.19
972.856	322.56
973.221	285.11
973.586	268.72
973.95	345.96
974.315	315.53
974.679	292.13
975.044	362.34
975.408	367.03
975.773	280.43
976.137	329.58
976.501	322.56
976.866	343.62
977.23	322.56
977.594	299.15
977.958	289.79
978.322	376.39
978.686	362.34
979.049	310.85
979.413	350.64
979.777	345.96
980.141	322.56
980.504	292.13
980.868	275.74
981.231	245.32
981.595	303.83
981.958	348.3
982.321	360
982.684	395.11
983.048	345.96
983.411	338.94
983.774	360
984.137	357.66
984.5	271.06
984.862	336.6
985.225	299.15
985.588	367.03
985.951	364.68
986.313	308.51
986.676	336.6
987.038	294.47
987.401	261.7
987.763	317.87
988.125	280.43
988.488	252.34
988.85	338.94
989.212	355.32
989.574	345.96
989.936	299.15
990.298	261.7
990.66	364.68
991.022	285.11
991.383	327.24
991.745	355.32
992.107	313.19
992.468	350.64
992.83	301.49
993.191	266.38
993.553	331.92
993.914	315.53
994.275	306.17
994.637	294.47
994.998	320.21
995.359	315.53
995.72	306.17
996.081	320.21
996.442	352.98
996.803	266.38
997.163	212.55
997.524	334.26
997.885	322.56
998.245	259.36
998.606	268.72
998.966	367.03
999.327	343.62
999.687	399.79
1000.047	343.62
1000.408	385.75
1000.768	322.56
1001.128	268.72
1001.488	399.79
1001.848	348.3
1002.208	331.92
1002.568	221.91
1002.927	320.21
1003.287	287.45
1003.647	406.81
1004.007	352.98
1004.366	296.81
1004.726	322.56
1005.085	357.66
1005.444	324.9
1005.804	296.81
1006.163	306.17
1006.522	352.98
1006.881	317.87
1007.24	240.64
1007.599	268.72
1007.958	338.94
1008.317	264.04
1008.676	285.11
1009.035	315.53
1009.393	338.94
1009.752	317.87
1010.111	303.83
1010.469	343.62
1010.828	306.17
1011.186	257.02
1011.544	294.47
1011.903	254.68
1012.261	324.9
1012.619	334.26
1012.977	301.49
1013.335	259.36
1013.693	350.64
1014.051	404.47
1014.409	315.53
1014.767	327.24
1015.124	296.81
1015.482	324.9
1015.84	313.19
1016.197	264.04
1016.555	388.09
1016.912	348.3
1017.269	287.45
1017.627	310.85
1017.984	294.47
1018.341	282.77
1018.698	345.96
1019.055	259.36
1019.412	360
1019.769	310.85
1020.126	266.38
1020.483	285.11
1020.84	306.17
1021.196	287.45
1021.553	360
1021.909	352.98
1022.266	371.71
1022.622	264.04
1022.979	226.59
1023.335	315.53
1023.691	292.13
1024.047	310.85
1024.404	257.02
1024.76	327.24
1025.116	348.3
1025.472	345.96
1025.827	327.24
1026.183	282.77
1026.539	275.74
1026.895	341.28
1027.25	327.24
1027.606	331.92
1027.961	294.47
1028.317	315.53
1028.672	301.49
1029.028	341.28
1029.383	278.08
1029.738	306.17
1030.093	371.71
1030.448	364.68
1030.803	329.58
1031.158	259.36
1031.513	259.36
1031.868	259.36
1032.223	350.64
1032.577	369.37
1032.932	343.62
1033.287	338.94
1033.641	287.45
1033.996	334.26
1034.35	292.13
1034.704	329.58
1035.059	360
1035.413	287.45
1035.767	287.45
1036.121	287.45
