Data from Al_FLMS009871__1290__16-49-39-866.txt Node

Date: Fri Mar 08 16:49:39 CST 2024
User: pe5414po
Spectrometer: FLMS00987
Trigger mode: 0
Integration Time (sec): 1.000000E-1
Scans to average: 1
Electric dark correction enabled: true
Nonlinearity correction enabled: false
Boxcar width: 0
XAxis mode: Wavelengths
Number of Pixels in Spectrum: 2048
>>>>>Begin Spectral Data<<<<<
188.938	-73.43
189.409	-73.43
189.879	-73.43
190.349	-183.44
190.819	-141.31
191.29	-106.2
191.76	-80.46
192.23	-153.01
192.7	-85.14
193.17	-35.99
193.64	-33.65
194.109	-85.14
194.579	27.21
195.049	34.23
195.519	-21.94
195.988	55.3
196.458	90.4
196.927	123.17
197.397	64.66
197.866	78.7
198.336	127.85
198.805	177
199.274	155.94
199.744	123.17
200.213	134.87
200.682	200.41
201.151	174.66
201.62	228.49
202.089	244.88
202.558	209.77
203.027	209.77
203.495	322.12
203.964	270.62
204.433	272.96
204.902	233.18
205.37	298.71
205.839	265.94
206.307	263.6
206.776	282.33
207.244	240.2
207.712	310.41
208.181	279.99
208.649	343.18
209.117	282.33
209.585	279.99
210.053	258.92
210.521	268.28
210.989	233.18
211.457	230.84
211.925	282.33
212.393	247.22
212.861	261.26
213.328	301.05
213.796	303.39
214.264	212.11
214.731	303.39
215.199	277.65
215.666	226.15
216.133	275.31
216.601	242.54
217.068	308.07
217.535	270.62
218.003	282.33
218.47	279.99
218.937	272.96
219.404	235.52
219.871	198.07
220.338	207.43
220.805	221.47
221.271	235.52
221.738	263.6
222.205	240.2
222.671	287.01
223.138	237.86
223.605	263.6
224.071	272.96
224.538	247.22
225.004	219.13
225.47	242.54
225.937	202.75
226.403	216.79
226.869	228.49
227.335	289.35
227.801	305.73
228.267	261.26
228.733	226.15
229.199	289.35
229.665	198.07
230.131	242.54
230.597	244.88
231.062	258.92
231.528	226.15
231.994	263.6
232.459	272.96
232.925	258.92
233.39	294.03
233.856	287.01
234.321	212.11
234.786	263.6
235.252	284.67
235.717	261.26
236.182	270.62
236.647	228.49
237.112	240.2
237.577	247.22
238.042	268.28
238.507	230.84
238.972	289.35
239.436	237.86
239.901	251.9
240.366	270.62
240.83	279.99
241.295	268.28
241.76	270.62
242.224	216.79
242.688	287.01
243.153	296.37
243.617	237.86
244.081	333.82
244.545	272.96
245.01	209.77
245.474	326.8
245.938	294.03
246.402	233.18
246.866	301.05
247.33	247.22
247.793	296.37
248.257	214.45
248.721	254.24
249.185	305.73
249.648	223.81
250.112	275.31
250.575	272.96
251.039	277.65
251.502	265.94
251.965	254.24
252.429	270.62
252.892	254.24
253.355	294.03
253.818	312.75
254.281	291.69
254.744	287.01
255.207	216.79
255.67	247.22
256.133	303.39
256.596	268.28
257.059	261.26
257.522	244.88
257.984	284.67
258.447	205.09
258.909	228.49
259.372	226.15
259.834	235.52
260.297	247.22
260.759	277.65
261.221	359.56
261.684	282.33
262.146	319.78
262.608	275.31
263.07	237.86
263.532	265.94
263.994	240.2
264.456	291.69
264.918	242.54
265.38	294.03
265.842	284.67
266.303	279.99
266.765	249.56
267.227	324.46
267.688	275.31
268.15	289.35
268.611	226.15
269.072	312.75
269.534	294.03
269.995	261.26
270.456	319.78
270.918	305.73
271.379	256.58
271.84	265.94
272.301	249.56
272.762	263.6
273.223	256.58
273.684	247.22
274.144	298.71
274.605	256.58
275.066	287.01
275.527	317.44
275.987	331.48
276.448	272.96
276.908	289.35
277.369	242.54
277.829	230.84
278.289	284.67
278.75	268.28
279.21	263.6
279.67	268.28
280.13	317.44
280.59	256.58
281.05	308.07
281.51	287.01
281.97	275.31
282.43	310.41
282.89	294.03
283.35	347.86
283.809	261.26
284.269	308.07
284.729	329.14
285.188	317.44
285.648	301.05
286.107	338.5
286.567	296.37
287.026	301.05
287.485	249.56
287.944	268.28
288.404	258.92
288.863	322.12
289.322	268.28
289.781	251.9
290.24	237.86
290.699	275.31
291.158	340.84
291.616	247.22
292.075	263.6
292.534	326.8
292.992	364.25
293.451	294.03
293.91	261.26
294.368	333.82
294.827	329.14
295.285	254.24
295.743	261.26
296.202	310.41
296.66	265.94
297.118	254.24
297.576	315.09
298.034	272.96
298.492	287.01
298.95	261.26
299.408	282.33
299.866	303.39
300.324	282.33
300.781	326.8
301.239	277.65
301.697	282.33
302.154	294.03
302.612	287.01
303.069	315.09
303.527	303.39
303.984	244.88
304.441	303.39
304.899	256.58
305.356	242.54
305.813	219.13
306.27	291.69
306.727	331.48
307.184	317.44
307.641	287.01
308.098	312.75
308.555	249.56
309.012	284.67
309.468	263.6
309.925	298.71
310.382	223.81
310.838	279.99
311.295	261.26
311.751	263.6
312.208	240.2
312.664	216.79
313.12	324.46
313.577	319.78
314.033	380.63
314.489	279.99
314.945	254.24
315.401	261.26
315.857	310.41
316.313	312.75
316.769	221.47
317.225	249.56
317.681	296.37
318.136	216.79
318.592	340.84
319.048	308.07
319.503	247.22
319.959	303.39
320.414	258.92
320.869	308.07
321.325	254.24
321.78	279.99
322.235	275.31
322.691	214.45
323.146	315.09
323.601	268.28
324.056	352.54
324.511	284.67
324.966	282.33
325.421	247.22
325.875	298.71
326.33	275.31
326.785	247.22
327.24	268.28
327.694	242.54
328.149	361.91
328.603	289.35
329.058	294.03
329.512	312.75
329.966	282.33
330.421	256.58
330.875	277.65
331.329	256.58
331.783	322.12
332.237	268.28
332.691	270.62
333.145	275.31
333.599	336.16
334.053	303.39
334.507	289.35
334.96	296.37
335.414	270.62
335.868	352.54
336.321	322.12
336.775	385.31
337.228	294.03
337.682	371.27
338.135	429.78
338.588	275.31
339.042	324.46
339.495	308.07
339.948	279.99
340.401	291.69
340.854	298.71
341.307	284.67
341.76	291.69
342.213	301.05
342.666	305.73
343.119	263.6
343.571	322.12
344.024	352.54
344.477	268.28
344.929	322.12
345.382	296.37
345.834	247.22
346.287	364.25
346.739	326.8
347.191	298.71
347.644	289.35
348.096	279.99
348.548	272.96
349	301.05
349.452	310.41
349.904	212.11
350.356	305.73
350.808	244.88
351.26	221.47
351.711	301.05
352.163	298.71
352.615	289.35
353.066	272.96
353.518	265.94
353.969	385.31
354.421	296.37
354.872	263.6
355.324	347.86
355.775	364.25
356.226	343.18
356.677	303.39
357.128	258.92
357.579	338.5
358.03	272.96
358.481	279.99
358.932	336.16
359.383	261.26
359.834	333.82
360.285	230.84
360.735	301.05
361.186	310.41
361.637	258.92
362.087	270.62
362.538	284.67
362.988	301.05
363.438	277.65
363.889	270.62
364.339	277.65
364.789	275.31
365.239	301.05
365.689	359.56
366.139	268.28
366.589	303.39
367.039	331.48
367.489	315.09
367.939	294.03
368.389	237.86
368.839	298.71
369.288	308.07
369.738	368.93
370.187	331.48
370.637	289.35
371.086	287.01
371.536	282.33
371.985	251.9
372.434	331.48
372.884	315.09
373.333	303.39
373.782	305.73
374.231	240.2
374.68	336.16
375.129	354.88
375.578	317.44
376.027	298.71
376.475	331.48
376.924	310.41
377.373	254.24
377.822	291.69
378.27	301.05
378.719	303.39
379.167	305.73
379.616	272.96
380.064	258.92
380.512	329.14
380.961	289.35
381.409	303.39
381.857	282.33
382.305	308.07
382.753	258.92
383.201	324.46
383.649	336.16
384.097	291.69
384.545	287.01
384.992	331.48
385.44	322.12
385.888	301.05
386.335	268.28
386.783	289.35
387.231	336.16
387.678	340.84
388.125	338.5
388.573	331.48
389.02	315.09
389.467	272.96
389.914	317.44
390.362	277.65
390.809	298.71
391.256	251.9
391.703	244.88
392.15	329.14
392.596	345.52
393.043	352.54
393.49	375.95
393.937	277.65
394.383	301.05
394.83	268.28
395.276	256.58
395.723	268.28
396.169	308.07
396.616	296.37
397.062	242.54
397.508	308.07
397.954	308.07
398.401	305.73
398.847	279.99
399.293	291.69
399.739	305.73
400.185	347.86
400.631	336.16
401.076	272.96
401.522	333.82
401.968	354.88
402.414	319.78
402.859	333.82
403.305	357.22
403.75	275.31
404.196	296.37
404.641	287.01
405.086	298.71
405.532	333.82
405.977	247.22
406.422	326.8
406.867	228.49
407.312	254.24
407.757	265.94
408.202	303.39
408.647	254.24
409.092	317.44
409.537	263.6
409.982	317.44
410.426	326.8
410.871	296.37
411.316	277.65
411.76	394.67
412.205	301.05
412.649	282.33
413.093	233.18
413.538	350.2
413.982	272.96
414.426	277.65
414.87	315.09
415.314	263.6
415.758	289.35
416.202	272.96
416.646	317.44
417.09	303.39
417.534	324.46
417.978	301.05
418.421	282.33
418.865	287.01
419.309	284.67
419.752	336.16
420.196	254.24
420.639	333.82
421.083	303.39
421.526	298.71
421.969	343.18
422.412	277.65
422.856	317.44
423.299	294.03
423.742	347.86
424.185	340.84
424.628	317.44
425.071	254.24
425.513	322.12
425.956	324.46
426.399	298.71
426.842	240.2
427.284	258.92
427.727	317.44
428.169	331.48
428.612	319.78
429.054	256.58
429.497	289.35
429.939	315.09
430.381	279.99
430.823	305.73
431.265	326.8
431.707	319.78
432.149	326.8
432.591	338.5
433.033	298.71
433.475	315.09
433.917	277.65
434.359	333.82
434.8	357.22
435.242	319.78
435.684	275.31
436.125	289.35
436.567	345.52
437.008	291.69
437.449	310.41
437.891	251.9
438.332	296.37
438.773	324.46
439.214	333.82
439.656	296.37
440.097	324.46
440.538	350.2
440.978	303.39
441.419	289.35
441.86	275.31
442.301	317.44
442.742	279.99
443.182	265.94
443.623	277.65
444.063	294.03
444.504	287.01
444.944	296.37
445.385	279.99
445.825	251.9
446.265	326.8
446.706	294.03
447.146	308.07
447.586	282.33
448.026	296.37
448.466	296.37
448.906	340.84
449.346	319.78
449.786	357.22
450.225	308.07
450.665	251.9
451.105	237.86
451.544	329.14
451.984	315.09
452.424	310.41
452.863	319.78
453.302	303.39
453.742	352.54
454.181	298.71
454.62	357.22
455.059	315.09
455.499	265.94
455.938	303.39
456.377	258.92
456.816	319.78
457.254	289.35
457.693	373.61
458.132	312.75
458.571	284.67
459.01	305.73
459.448	343.18
459.887	352.54
460.325	298.71
460.764	312.75
461.202	279.99
461.641	284.67
462.079	303.39
462.517	254.24
462.955	308.07
463.393	296.37
463.832	317.44
464.27	350.2
464.708	338.5
465.145	277.65
465.583	294.03
466.021	338.5
466.459	312.75
466.897	333.82
467.334	294.03
467.772	256.58
468.209	343.18
468.647	322.12
469.084	242.54
469.522	317.44
469.959	294.03
470.396	308.07
470.833	265.94
471.271	287.01
471.708	291.69
472.145	279.99
472.582	315.09
473.019	270.62
473.456	308.07
473.892	268.28
474.329	287.01
474.766	312.75
475.202	319.78
475.639	291.69
476.076	261.26
476.512	317.44
476.949	265.94
477.385	357.22
477.821	366.59
478.258	301.05
478.694	305.73
479.13	247.22
479.566	254.24
480.002	338.5
480.438	296.37
480.874	289.35
481.31	261.26
481.746	296.37
482.181	216.79
482.617	261.26
483.053	301.05
483.488	301.05
483.924	294.03
484.36	324.46
484.795	277.65
485.23	343.18
485.666	287.01
486.101	345.52
486.536	359.56
486.971	289.35
487.407	326.8
487.842	312.75
488.277	305.73
488.712	350.2
489.146	338.5
489.581	249.56
490.016	298.71
490.451	308.07
490.885	298.71
491.32	347.86
491.755	242.54
492.189	301.05
492.624	305.73
493.058	319.78
493.492	333.82
493.927	352.54
494.361	324.46
494.795	289.35
495.229	282.33
495.663	350.2
496.097	317.44
496.531	294.03
496.965	282.33
497.399	282.33
497.833	303.39
498.266	296.37
498.7	331.48
499.134	301.05
499.567	305.73
500.001	289.35
500.434	294.03
500.868	298.71
501.301	319.78
501.734	298.71
502.168	268.28
502.601	279.99
503.034	249.56
503.467	366.59
503.9	296.37
504.333	340.84
504.766	249.56
505.199	279.99
505.632	263.6
506.064	294.03
506.497	340.84
506.93	270.62
507.362	347.86
507.795	305.73
508.227	284.67
508.66	209.77
509.092	263.6
509.524	296.37
509.956	340.84
510.389	265.94
510.821	308.07
511.253	249.56
511.685	303.39
512.117	317.44
512.549	350.2
512.981	296.37
513.412	312.75
513.844	298.71
514.276	352.54
514.707	340.84
515.139	303.39
515.571	270.62
516.002	268.28
516.433	251.9
516.865	350.2
517.296	308.07
517.727	324.46
518.159	275.31
518.59	315.09
519.021	279.99
519.452	329.14
519.883	312.75
520.314	312.75
520.744	298.71
521.175	329.14
521.606	338.5
522.037	308.07
522.467	317.44
522.898	305.73
523.328	230.84
523.759	263.6
524.189	347.86
524.62	352.54
525.05	294.03
525.48	279.99
525.91	324.46
526.341	296.37
526.771	265.94
527.201	247.22
527.631	310.41
528.061	322.12
528.49	284.67
528.92	265.94
529.35	317.44
529.78	352.54
530.209	317.44
530.639	294.03
531.068	340.84
531.498	329.14
531.927	317.44
532.357	361.91
532.786	312.75
533.215	261.26
533.644	315.09
534.074	357.22
534.503	294.03
534.932	326.8
535.361	263.6
535.79	317.44
536.218	296.37
536.647	308.07
537.076	315.09
537.505	282.33
537.933	301.05
538.362	350.2
538.79	296.37
539.219	345.52
539.647	287.01
540.076	305.73
540.504	308.07
540.932	289.35
541.36	333.82
541.788	261.26
542.217	322.12
542.645	291.69
543.073	319.78
543.5	312.75
543.928	305.73
544.356	331.48
544.784	291.69
545.211	287.01
545.639	265.94
546.067	270.62
546.494	340.84
546.922	268.28
547.349	261.26
547.776	270.62
548.204	268.28
548.631	298.71
549.058	298.71
549.485	272.96
549.912	310.41
550.339	284.67
550.766	244.88
551.193	291.69
551.62	287.01
552.047	305.73
552.474	270.62
552.9	310.41
553.327	296.37
553.754	331.48
554.18	331.48
554.607	291.69
555.033	329.14
555.459	308.07
555.886	279.99
556.312	382.97
556.738	329.14
557.164	249.56
557.59	338.5
558.016	272.96
558.442	347.86
558.868	343.18
559.294	298.71
559.72	287.01
560.145	385.31
560.571	263.6
560.997	298.71
561.422	249.56
561.848	336.16
562.273	305.73
562.699	263.6
563.124	352.54
563.549	265.94
563.974	287.01
564.4	312.75
564.825	380.63
565.25	326.8
565.675	270.62
566.1	289.35
566.525	322.12
566.95	308.07
567.374	357.22
567.799	315.09
568.224	258.92
568.648	308.07
569.073	268.28
569.497	296.37
569.922	270.62
570.346	340.84
570.771	305.73
571.195	308.07
571.619	303.39
572.043	268.28
572.467	294.03
572.891	270.62
573.315	324.46
573.739	242.54
574.163	298.71
574.587	331.48
575.011	268.28
575.435	312.75
575.858	324.46
576.282	375.95
576.705	308.07
577.129	289.35
577.552	331.48
577.976	298.71
578.399	310.41
578.822	282.33
579.245	357.22
579.669	242.54
580.092	254.24
580.515	291.69
580.938	329.14
581.361	272.96
581.784	268.28
582.206	305.73
582.629	263.6
583.052	249.56
583.474	291.69
583.897	251.9
584.32	322.12
584.742	296.37
585.165	261.26
585.587	333.82
586.009	277.65
586.431	303.39
586.854	312.75
587.276	291.69
587.698	233.18
588.12	340.84
588.542	279.99
588.964	317.44
589.386	301.05
589.807	282.33
590.229	270.62
590.651	301.05
591.073	277.65
591.494	268.28
591.916	301.05
592.337	244.88
592.759	287.01
593.18	326.8
593.601	326.8
594.022	296.37
594.444	319.78
594.865	279.99
595.286	301.05
595.707	371.27
596.128	298.71
596.549	221.47
596.97	296.37
597.39	263.6
597.811	289.35
598.232	329.14
598.652	247.22
599.073	270.62
599.494	282.33
599.914	310.41
600.334	343.18
600.755	312.75
601.175	347.86
601.595	268.28
602.015	422.76
602.436	336.16
602.856	364.25
603.276	310.41
603.696	289.35
604.115	291.69
604.535	230.84
604.955	371.27
605.375	291.69
605.794	287.01
606.214	291.69
606.634	279.99
607.053	303.39
607.473	333.82
607.892	294.03
608.311	319.78
608.731	338.5
609.15	284.67
609.569	284.67
609.988	294.03
610.407	366.59
610.826	272.96
611.245	387.65
611.664	354.88
612.083	312.75
612.501	263.6
612.92	263.6
613.339	261.26
613.757	324.46
614.176	322.12
614.594	291.69
615.013	366.59
615.431	324.46
615.85	345.52
616.268	317.44
616.686	315.09
617.104	333.82
617.522	284.67
617.94	258.92
618.358	301.05
618.776	294.03
619.194	265.94
619.612	350.2
620.03	312.75
620.447	301.05
620.865	298.71
621.282	303.39
621.7	294.03
622.117	298.71
622.535	287.01
622.952	315.09
623.369	275.31
623.787	298.71
624.204	305.73
624.621	270.62
625.038	308.07
625.455	345.52
625.872	291.69
626.289	322.12
626.706	249.56
627.123	319.78
627.539	230.84
627.956	329.14
628.373	251.9
628.789	322.12
629.206	310.41
629.622	331.48
630.038	333.82
630.455	310.41
630.871	275.31
631.287	366.59
631.703	261.26
632.12	242.54
632.536	305.73
632.952	322.12
633.368	338.5
633.783	268.28
634.199	301.05
634.615	256.58
635.031	308.07
635.446	249.56
635.862	340.84
636.277	329.14
636.693	261.26
637.108	258.92
637.524	289.35
637.939	279.99
638.354	338.5
638.77	249.56
639.185	308.07
639.6	244.88
640.015	244.88
640.43	305.73
640.845	298.71
641.259	305.73
641.674	249.56
642.089	268.28
642.504	354.88
642.918	263.6
643.333	256.58
643.747	312.75
644.162	331.48
644.576	343.18
644.991	301.05
645.405	261.26
645.819	340.84
646.233	354.88
646.647	364.25
647.061	282.33
647.475	287.01
647.889	322.12
648.303	329.14
648.717	282.33
649.131	324.46
649.545	256.58
649.958	308.07
650.372	361.91
650.785	301.05
651.199	368.93
651.612	331.48
652.026	315.09
652.439	354.88
652.852	324.46
653.266	303.39
653.679	251.9
654.092	256.58
654.505	343.18
654.918	251.9
655.331	298.71
655.744	263.6
656.156	275.31
656.569	340.84
656.982	296.37
657.394	272.96
657.807	287.01
658.22	308.07
658.632	265.94
659.044	326.8
659.457	272.96
659.869	275.31
660.281	277.65
660.693	270.62
661.106	296.37
661.518	333.82
661.93	233.18
662.342	242.54
662.754	329.14
663.165	326.8
663.577	251.9
663.989	366.59
664.401	333.82
664.812	333.82
665.224	287.01
665.635	352.54
666.047	352.54
666.458	294.03
666.869	336.16
667.281	312.75
667.692	322.12
668.103	284.67
668.514	326.8
668.925	347.86
669.336	191.05
669.747	336.16
670.158	373.61
670.569	329.14
670.979	319.78
671.39	312.75
671.801	287.01
672.211	282.33
672.622	301.05
673.032	301.05
673.443	322.12
673.853	303.39
674.263	352.54
674.674	263.6
675.084	319.78
675.494	279.99
675.904	265.94
676.314	308.07
676.724	310.41
677.134	277.65
677.544	277.65
677.953	350.2
678.363	291.69
678.773	357.22
679.182	326.8
679.592	265.94
680.001	289.35
680.411	305.73
680.82	230.84
681.23	329.14
681.639	294.03
682.048	268.28
682.457	387.65
682.866	312.75
683.275	315.09
683.684	312.75
684.093	294.03
684.502	303.39
684.911	294.03
685.32	317.44
685.728	326.8
686.137	308.07
686.546	303.39
686.954	322.12
687.363	268.28
687.771	324.46
688.179	268.28
688.588	322.12
688.996	289.35
689.404	303.39
689.812	326.8
690.22	270.62
690.628	270.62
691.036	310.41
691.444	294.03
691.852	272.96
692.26	347.86
692.667	291.69
693.075	291.69
693.483	373.61
693.89	310.41
694.298	324.46
694.705	305.73
695.112	287.01
695.52	305.73
695.927	315.09
696.334	294.03
696.741	308.07
697.148	298.71
697.555	345.52
697.962	303.39
698.369	242.54
698.776	305.73
699.183	291.69
699.59	249.56
699.996	308.07
700.403	249.56
700.81	279.99
701.216	385.31
701.623	275.31
702.029	329.14
702.435	270.62
702.842	254.24
703.248	287.01
703.654	294.03
704.06	333.82
704.466	310.41
704.872	301.05
705.278	326.8
705.684	294.03
706.09	294.03
706.496	277.65
706.901	268.28
707.307	347.86
707.712	256.58
708.118	303.39
708.523	340.84
708.929	294.03
709.334	249.56
709.74	294.03
710.145	336.16
710.55	223.81
710.955	289.35
711.36	308.07
711.765	331.48
712.17	268.28
712.575	212.11
712.98	886.19
713.385	230.84
713.789	340.84
714.194	303.39
714.599	294.03
715.003	322.12
715.408	312.75
715.812	317.44
716.217	303.39
716.621	279.99
717.025	251.9
717.429	322.12
717.833	329.14
718.238	289.35
718.642	272.96
719.046	324.46
719.449	275.31
719.853	287.01
720.257	244.88
720.661	315.09
721.065	294.03
721.468	378.29
721.872	289.35
722.275	291.69
722.679	289.35
723.082	289.35
723.485	289.35
723.889	319.78
724.292	263.6
724.695	258.92
725.098	301.05
725.501	315.09
725.904	301.05
726.307	291.69
726.71	326.8
727.113	357.22
727.516	303.39
727.918	324.46
728.321	296.37
728.724	324.46
729.126	287.01
729.529	345.52
729.931	298.71
730.333	340.84
730.736	294.03
731.138	275.31
731.54	324.46
731.942	244.88
732.344	308.07
732.746	279.99
733.148	270.62
733.55	312.75
733.952	301.05
734.354	277.65
734.756	333.82
735.157	301.05
735.559	275.31
735.96	310.41
736.362	331.48
736.763	359.56
737.165	296.37
737.566	326.8
737.967	282.33
738.368	265.94
738.77	303.39
739.171	354.88
739.572	305.73
739.973	277.65
740.374	270.62
740.774	303.39
741.175	343.18
741.576	284.67
741.977	354.88
742.377	296.37
742.778	261.26
743.178	331.48
743.579	354.88
743.979	282.33
744.379	308.07
744.78	296.37
745.18	275.31
745.58	282.33
745.98	315.09
746.38	296.37
746.78	331.48
747.18	261.26
747.58	287.01
747.98	308.07
748.38	308.07
748.779	298.71
749.179	310.41
749.578	364.25
749.978	329.14
750.377	296.37
750.777	221.47
751.176	329.14
751.575	315.09
751.975	287.01
752.374	294.03
752.773	242.54
753.172	305.73
753.571	303.39
753.97	331.48
754.369	308.07
754.768	310.41
755.166	270.62
755.565	303.39
755.964	284.67
756.362	310.41
756.761	371.27
757.159	301.05
757.558	368.93
757.956	411.06
758.354	338.5
758.753	298.71
759.151	333.82
759.549	359.56
759.947	319.78
760.345	263.6
760.743	357.22
761.141	284.67
761.539	200.41
761.936	310.41
762.334	338.5
762.732	277.65
763.129	331.48
763.527	350.2
763.924	324.46
764.322	343.18
764.719	303.39
765.117	317.44
765.514	261.26
765.911	294.03
766.308	209.77
766.705	294.03
767.102	329.14
767.499	315.09
767.896	294.03
768.293	256.58
768.69	317.44
769.086	361.91
769.483	237.86
769.88	284.67
770.276	247.22
770.673	329.14
771.069	284.67
771.466	336.16
771.862	322.12
772.258	256.58
772.654	310.41
773.05	298.71
773.447	357.22
773.843	303.39
774.239	256.58
774.634	282.33
775.03	315.09
775.426	315.09
775.822	303.39
776.218	392.33
776.613	254.24
777.009	331.48
777.404	265.94
777.8	308.07
778.195	282.33
778.59	249.56
778.986	270.62
779.381	265.94
779.776	235.52
780.171	333.82
780.566	359.56
780.961	329.14
781.356	289.35
781.751	333.82
782.146	247.22
782.54	340.84
782.935	287.01
783.33	272.96
783.724	364.25
784.119	317.44
784.513	331.48
784.908	294.03
785.302	268.28
785.696	254.24
786.09	258.92
786.485	298.71
786.879	340.84
787.273	279.99
787.667	291.69
788.061	331.48
788.454	240.2
788.848	303.39
789.242	347.86
789.636	291.69
790.029	312.75
790.423	308.07
790.816	284.67
791.21	287.01
791.603	347.86
791.997	359.56
792.39	287.01
792.783	322.12
793.176	265.94
793.569	361.91
793.962	265.94
794.355	350.2
794.748	261.26
795.141	265.94
795.534	265.94
795.927	340.84
796.319	308.07
796.712	375.95
797.105	359.56
797.497	275.31
797.89	237.86
798.282	277.65
798.674	319.78
799.067	298.71
799.459	219.13
799.851	336.16
800.243	354.88
800.635	329.14
801.027	310.41
801.419	284.67
801.811	329.14
802.203	282.33
802.594	244.88
802.986	272.96
803.378	294.03
803.769	254.24
804.161	244.88
804.552	371.27
804.944	277.65
805.335	312.75
805.726	301.05
806.118	221.47
806.509	284.67
806.9	326.8
807.291	303.39
807.682	305.73
808.073	354.88
808.464	289.35
808.855	319.78
809.245	284.67
809.636	270.62
810.027	315.09
810.417	310.41
810.808	329.14
811.198	331.48
811.589	357.22
811.979	275.31
812.369	329.14
812.759	319.78
813.15	373.61
813.54	287.01
813.93	247.22
814.32	324.46
814.71	263.6
815.1	329.14
815.489	326.8
815.879	289.35
816.269	270.62
816.658	282.33
817.048	305.73
817.438	240.2
817.827	305.73
818.216	319.78
818.606	305.73
818.995	312.75
819.384	308.07
819.773	251.9
820.163	319.78
820.552	294.03
820.941	378.29
821.33	319.78
821.718	277.65
822.107	249.56
822.496	275.31
822.885	265.94
823.273	333.82
823.662	322.12
824.05	294.03
824.439	289.35
824.827	354.88
825.216	251.9
825.604	209.77
825.992	275.31
826.38	305.73
826.768	333.82
827.156	263.6
827.544	251.9
827.932	270.62
828.32	294.03
828.708	340.84
829.096	343.18
829.483	287.01
829.871	301.05
830.259	298.71
830.646	261.26
831.034	284.67
831.421	298.71
831.808	338.5
832.196	282.33
832.583	319.78
832.97	368.93
833.357	287.01
833.744	305.73
834.131	296.37
834.518	324.46
834.905	294.03
835.292	270.62
835.678	265.94
836.065	322.12
836.452	284.67
836.838	359.56
837.225	277.65
837.611	228.49
837.998	298.71
838.384	303.39
838.77	284.67
839.157	312.75
839.543	284.67
839.929	338.5
840.315	354.88
840.701	331.48
841.087	298.71
841.473	303.39
841.858	343.18
842.244	287.01
842.63	298.71
843.015	319.78
843.401	579.58
843.787	312.75
844.172	251.9
844.557	282.33
844.943	333.82
845.328	272.96
845.713	251.9
846.098	347.86
846.483	287.01
846.868	326.8
847.253	319.78
847.638	287.01
848.023	291.69
848.408	312.75
848.793	296.37
849.177	301.05
849.562	345.52
849.947	277.65
850.331	233.18
850.715	284.67
851.1	258.92
851.484	361.91
851.868	303.39
852.253	287.01
852.637	289.35
853.021	270.62
853.405	270.62
853.789	270.62
854.173	261.26
854.557	361.91
854.94	221.47
855.324	385.31
855.708	338.5
856.091	319.78
856.475	261.26
856.858	294.03
857.242	272.96
857.625	301.05
858.009	361.91
858.392	272.96
858.775	298.71
859.158	296.37
859.541	291.69
859.924	322.12
860.307	310.41
860.69	310.41
861.073	284.67
861.456	277.65
861.838	331.48
862.221	272.96
862.604	329.14
862.986	350.2
863.369	256.58
863.751	308.07
864.133	287.01
864.516	268.28
864.898	308.07
865.28	294.03
865.662	310.41
866.044	364.25
866.426	251.9
866.808	254.24
867.19	354.88
867.572	357.22
867.954	310.41
868.336	296.37
868.717	268.28
869.099	319.78
869.48	301.05
869.862	296.37
870.243	322.12
870.625	265.94
871.006	324.46
871.387	272.96
871.768	256.58
872.149	289.35
872.53	308.07
872.911	354.88
873.292	291.69
873.673	233.18
874.054	296.37
874.435	282.33
874.815	305.73
875.196	301.05
875.577	254.24
875.957	317.44
876.338	310.41
876.718	256.58
877.098	268.28
877.479	263.6
877.859	371.27
878.239	301.05
878.619	303.39
878.999	322.12
879.379	347.86
879.759	303.39
880.139	310.41
880.519	209.77
880.898	270.62
881.278	343.18
881.658	289.35
882.037	291.69
882.417	284.67
882.796	329.14
883.176	284.67
883.555	258.92
883.934	254.24
884.313	275.31
884.693	310.41
885.072	303.39
885.451	340.84
885.83	310.41
886.209	261.26
886.587	380.63
886.966	303.39
887.345	205.09
887.724	263.6
888.102	338.5
888.481	350.2
888.859	284.67
889.238	305.73
889.616	305.73
889.994	249.56
890.373	289.35
890.751	317.44
891.129	298.71
891.507	303.39
891.885	326.8
892.263	319.78
892.641	301.05
893.019	277.65
893.396	331.48
893.774	319.78
894.152	310.41
894.529	343.18
894.907	223.81
895.284	331.48
895.662	254.24
896.039	296.37
896.416	387.65
896.794	315.09
897.171	219.13
897.548	296.37
897.925	326.8
898.302	279.99
898.679	284.67
899.056	322.12
899.433	303.39
899.809	361.91
900.186	263.6
900.563	345.52
900.939	284.67
901.316	256.58
901.692	265.94
902.069	282.33
902.445	287.01
902.821	308.07
903.197	270.62
903.574	237.86
903.95	315.09
904.326	294.03
904.702	366.59
905.078	352.54
905.454	289.35
905.829	326.8
906.205	312.75
906.581	315.09
906.956	298.71
907.332	296.37
907.707	249.56
908.083	289.35
908.458	247.22
908.833	324.46
909.209	289.35
909.584	331.48
909.959	305.73
910.334	284.67
910.709	279.99
911.084	296.37
911.459	336.16
911.834	354.88
912.209	256.58
912.583	268.28
912.958	294.03
913.333	291.69
913.707	258.92
914.082	317.44
914.456	326.8
914.83	303.39
915.205	310.41
915.579	345.52
915.953	291.69
916.327	282.33
916.701	289.35
917.075	226.15
917.449	291.69
917.823	329.14
918.197	319.78
918.571	296.37
918.944	277.65
919.318	301.05
919.692	296.37
920.065	301.05
920.438	298.71
920.812	303.39
921.185	296.37
921.558	256.58
921.932	301.05
922.305	324.46
922.678	270.62
923.051	345.52
923.424	270.62
923.797	319.78
924.17	340.84
924.542	272.96
924.915	263.6
925.288	310.41
925.661	291.69
926.033	298.71
926.406	329.14
926.778	305.73
927.15	277.65
927.523	329.14
927.895	263.6
928.267	296.37
928.639	326.8
929.011	298.71
929.383	277.65
929.755	277.65
930.127	340.84
930.499	319.78
930.871	305.73
931.242	317.44
931.614	275.31
931.986	345.52
932.357	333.82
932.729	261.26
933.1	263.6
933.471	322.12
933.843	291.69
934.214	326.8
934.585	347.86
934.956	268.28
935.327	284.67
935.698	319.78
936.069	305.73
936.44	291.69
936.811	261.26
937.182	317.44
937.552	347.86
937.923	284.67
938.293	268.28
938.664	277.65
939.034	291.69
939.405	333.82
939.775	303.39
940.145	284.67
940.516	322.12
940.886	343.18
941.256	261.26
941.626	308.07
941.996	392.33
942.366	364.25
942.735	294.03
943.105	287.01
943.475	277.65
943.845	282.33
944.214	272.96
944.584	228.49
944.953	242.54
945.323	331.48
945.692	329.14
946.061	333.82
946.43	294.03
946.8	268.28
947.169	265.94
947.538	301.05
947.907	261.26
948.276	275.31
948.645	326.8
949.013	298.71
949.382	287.01
949.751	277.65
950.119	312.75
950.488	291.69
950.857	333.82
951.225	303.39
951.593	256.58
951.962	265.94
952.33	315.09
952.698	242.54
953.066	345.52
953.434	284.67
953.802	331.48
954.17	247.22
954.538	310.41
954.906	296.37
955.274	279.99
955.642	265.94
956.009	294.03
956.377	310.41
956.744	298.71
957.112	291.69
957.479	317.44
957.847	256.58
958.214	296.37
958.581	361.91
958.948	357.22
959.315	272.96
959.683	312.75
960.05	298.71
960.416	270.62
960.783	296.37
961.15	324.46
961.517	345.52
961.884	287.01
962.25	212.11
962.617	322.12
962.983	298.71
963.35	221.47
963.716	303.39
964.082	289.35
964.449	317.44
964.815	240.2
965.181	312.75
965.547	289.35
965.913	258.92
966.279	287.01
966.645	237.86
967.011	265.94
967.377	277.65
967.742	317.44
968.108	279.99
968.474	308.07
968.839	242.54
969.205	294.03
969.57	310.41
969.935	263.6
970.301	338.5
970.666	268.28
971.031	265.94
971.396	357.22
971.761	282.33
972.126	347.86
972.491	303.39
972.856	354.88
973.221	296.37
973.586	272.96
973.95	301.05
974.315	251.9
974.679	305.73
975.044	205.09
975.408	319.78
975.773	287.01
976.137	277.65
976.501	303.39
976.866	357.22
977.23	221.47
977.594	233.18
977.958	298.71
978.322	331.48
978.686	315.09
979.049	294.03
979.413	329.14
979.777	268.28
980.141	265.94
980.504	303.39
980.868	326.8
981.231	315.09
981.595	256.58
981.958	336.16
982.321	256.58
982.684	296.37
983.048	308.07
983.411	336.16
983.774	319.78
984.137	284.67
984.5	322.12
984.862	296.37
985.225	263.6
985.588	296.37
985.951	317.44
986.313	279.99
986.676	331.48
987.038	287.01
987.401	265.94
987.763	272.96
988.125	366.59
988.488	322.12
988.85	237.86
989.212	298.71
989.574	282.33
989.936	244.88
990.298	205.09
990.66	270.62
991.022	310.41
991.383	305.73
991.745	258.92
992.107	268.28
992.468	277.65
992.83	305.73
993.191	312.75
993.553	317.44
993.914	303.39
994.275	308.07
994.637	279.99
994.998	331.48
995.359	333.82
995.72	368.93
996.081	277.65
996.442	319.78
996.803	284.67
997.163	242.54
997.524	275.31
997.885	294.03
998.245	338.5
998.606	251.9
998.966	310.41
999.327	294.03
999.687	209.77
1000.047	296.37
1000.408	254.24
1000.768	282.33
1001.128	382.97
1001.488	265.94
1001.848	289.35
1002.208	315.09
1002.568	282.33
1002.927	291.69
1003.287	322.12
1003.647	315.09
1004.007	336.16
1004.366	277.65
1004.726	338.5
1005.085	340.84
1005.444	256.58
1005.804	272.96
1006.163	233.18
1006.522	258.92
1006.881	237.86
1007.24	331.48
1007.599	315.09
1007.958	221.47
1008.317	303.39
1008.676	331.48
1009.035	303.39
1009.393	265.94
1009.752	326.8
1010.111	275.31
1010.469	322.12
1010.828	223.81
1011.186	298.71
1011.544	230.84
1011.903	279.99
1012.261	298.71
1012.619	249.56
1012.977	268.28
1013.335	345.52
1013.693	263.6
1014.051	230.84
1014.409	279.99
1014.767	294.03
1015.124	315.09
1015.482	282.33
1015.84	382.97
1016.197	291.69
1016.555	336.16
1016.912	308.07
1017.269	291.69
1017.627	305.73
1017.984	244.88
1018.341	282.33
1018.698	282.33
1019.055	315.09
1019.412	308.07
1019.769	198.07
1020.126	272.96
1020.483	254.24
1020.84	303.39
1021.196	319.78
1021.553	296.37
1021.909	254.24
1022.266	272.96
1022.622	284.67
1022.979	272.96
1023.335	345.52
1023.691	296.37
1024.047	315.09
1024.404	289.35
1024.76	319.78
1025.116	329.14
1025.472	303.39
1025.827	308.07
1026.183	310.41
1026.539	343.18
1026.895	277.65
1027.25	233.18
1027.606	310.41
1027.961	287.01
1028.317	279.99
1028.672	275.31
1029.028	319.78
1029.383	343.18
1029.738	322.12
1030.093	301.05
1030.448	345.52
1030.803	282.33
1031.158	289.35
1031.513	261.26
1031.868	268.28
1032.223	310.41
1032.577	277.65
1032.932	296.37
1033.287	249.56
1033.641	345.52
1033.996	329.14
1034.35	354.88
1034.704	275.31
1035.059	279.99
1035.413	287.01
1035.767	287.01
1036.121	287.01
