Data from Al_FLMS009871__1299__16-49-40-766.txt Node

Date: Fri Mar 08 16:49:40 CST 2024
User: pe5414po
Spectrometer: FLMS00987
Trigger mode: 0
Integration Time (sec): 1.000000E-1
Scans to average: 1
Electric dark correction enabled: true
Nonlinearity correction enabled: false
Boxcar width: 0
XAxis mode: Wavelengths
Number of Pixels in Spectrum: 2048
>>>>>Begin Spectral Data<<<<<
188.938	-69.05
189.409	-69.05
189.879	-69.05
190.349	-146.28
190.819	-85.43
191.29	-122.88
191.76	-129.9
192.23	-71.39
192.7	-87.77
193.17	-94.79
193.64	-29.26
194.109	-26.92
194.579	-26.92
195.049	-5.85
195.519	59.68
195.988	55
196.458	38.62
196.927	33.94
197.397	104.15
197.866	150.96
198.336	153.31
198.805	146.28
199.274	120.54
199.744	207.14
200.213	230.54
200.682	160.33
201.151	265.65
201.62	195.43
202.089	221.18
202.558	246.93
203.027	230.54
203.495	263.31
203.964	246.93
204.433	293.74
204.902	225.86
205.37	293.74
205.839	324.16
206.307	272.67
206.776	296.08
207.244	319.48
207.712	291.4
208.181	335.87
208.649	291.4
209.117	303.1
209.585	366.29
210.053	333.53
210.521	270.33
210.989	272.67
211.457	230.54
211.925	286.72
212.393	312.46
212.861	260.97
213.328	286.72
213.796	293.74
214.264	298.42
214.731	207.14
215.199	260.97
215.666	223.52
216.133	263.31
216.601	289.06
217.068	225.86
217.535	218.84
218.003	223.52
218.47	314.8
218.937	298.42
219.404	296.08
219.871	216.5
220.338	237.56
220.805	256.29
221.271	242.25
221.738	317.14
222.205	249.27
222.671	249.27
223.138	258.63
223.605	279.69
224.071	270.33
224.538	279.69
225.004	237.56
225.47	265.65
225.937	317.14
226.403	270.33
226.869	251.61
227.335	282.03
227.801	267.99
228.267	279.69
228.733	228.2
229.199	303.1
229.665	239.9
230.131	265.65
230.597	246.93
231.062	291.4
231.528	244.59
231.994	218.84
232.459	282.03
232.925	277.35
233.39	221.18
233.856	230.54
234.321	296.08
234.786	277.35
235.252	190.75
235.717	246.93
236.182	232.88
236.647	303.1
237.112	284.38
237.577	263.31
238.042	258.63
238.507	307.78
238.972	342.89
239.436	291.4
239.901	211.82
240.366	260.97
240.83	298.42
241.295	275.01
241.76	361.61
242.224	223.52
242.688	242.25
243.153	275.01
243.617	253.95
244.081	228.2
244.545	251.61
245.01	289.06
245.474	291.4
245.938	272.67
246.402	286.72
246.866	251.61
247.33	242.25
247.793	310.12
248.257	253.95
248.721	228.2
249.185	209.48
249.648	246.93
250.112	211.82
250.575	277.35
251.039	244.59
251.502	272.67
251.965	342.89
252.429	317.14
252.892	275.01
253.355	216.5
253.818	300.76
254.281	265.65
254.744	321.82
255.207	282.03
255.67	296.08
256.133	338.21
256.596	267.99
257.059	282.03
257.522	310.12
257.984	228.2
258.447	356.93
258.909	284.38
259.372	267.99
259.834	305.44
260.297	272.67
260.759	319.48
261.221	277.35
261.684	265.65
262.146	279.69
262.608	216.5
263.07	249.27
263.532	256.29
263.994	244.59
264.456	317.14
264.918	221.18
265.38	326.5
265.842	244.59
266.303	267.99
266.765	275.01
267.227	293.74
267.688	279.69
268.15	179.05
268.611	326.5
269.072	249.27
269.534	310.12
269.995	284.38
270.456	277.35
270.918	312.46
271.379	307.78
271.84	239.9
272.301	272.67
272.762	303.1
273.223	282.03
273.684	340.55
274.144	279.69
274.605	239.9
275.066	300.76
275.527	300.76
275.987	263.31
276.448	279.69
276.908	284.38
277.369	361.61
277.829	277.35
278.289	314.8
278.75	275.01
279.21	314.8
279.67	335.87
280.13	312.46
280.59	335.87
281.05	333.53
281.51	293.74
281.97	279.69
282.43	286.72
282.89	284.38
283.35	228.2
283.809	258.63
284.269	331.19
284.729	293.74
285.188	296.08
285.648	244.59
286.107	312.46
286.567	347.57
287.026	324.16
287.485	293.74
287.944	342.89
288.404	272.67
288.863	244.59
289.322	270.33
289.781	249.27
290.24	186.07
290.699	314.8
291.158	305.44
291.616	317.14
292.075	298.42
292.534	279.69
292.992	195.43
293.451	265.65
293.91	345.23
294.368	326.5
294.827	270.33
295.285	317.14
295.743	286.72
296.202	298.42
296.66	349.91
297.118	284.38
297.576	335.87
298.034	331.19
298.492	340.55
298.95	305.44
299.408	305.44
299.866	246.93
300.324	328.85
300.781	333.53
301.239	335.87
301.697	289.06
302.154	277.35
302.612	249.27
303.069	279.69
303.527	284.38
303.984	270.33
304.441	279.69
304.899	303.1
305.356	298.42
305.813	249.27
306.27	289.06
306.727	331.19
307.184	282.03
307.641	260.97
308.098	335.87
308.555	326.5
309.012	267.99
309.468	310.12
309.925	307.78
310.382	246.93
310.838	260.97
311.295	340.55
311.751	291.4
312.208	289.06
312.664	239.9
313.12	307.78
313.577	300.76
314.033	324.16
314.489	260.97
314.945	289.06
315.401	307.78
315.857	314.8
316.313	293.74
316.769	284.38
317.225	312.46
317.681	307.78
318.136	303.1
318.592	272.67
319.048	296.08
319.503	338.21
319.959	326.5
320.414	272.67
320.869	291.4
321.325	265.65
321.78	352.25
322.235	251.61
322.691	244.59
323.146	328.85
323.601	282.03
324.056	298.42
324.511	251.61
324.966	300.76
325.421	286.72
325.875	277.35
326.33	359.27
326.785	265.65
327.24	319.48
327.694	275.01
328.149	335.87
328.603	333.53
329.058	296.08
329.512	324.16
329.966	282.03
330.421	284.38
330.875	345.23
331.329	321.82
331.783	340.55
332.237	441.19
332.691	305.44
333.145	321.82
333.599	328.85
334.053	356.93
334.507	310.12
334.96	279.69
335.414	286.72
335.868	352.25
336.321	380.34
336.775	338.21
337.228	312.46
337.682	270.33
338.135	275.01
338.588	284.38
339.042	319.48
339.495	314.8
339.948	378
340.401	347.57
340.854	342.89
341.307	305.44
341.76	373.32
342.213	328.85
342.666	356.93
343.119	298.42
343.571	270.33
344.024	293.74
344.477	258.63
344.929	300.76
345.382	331.19
345.834	228.2
346.287	333.53
346.739	246.93
347.191	328.85
347.644	249.27
348.096	305.44
348.548	354.59
349	310.12
349.452	235.22
349.904	317.14
350.356	279.69
350.808	307.78
351.26	319.48
351.711	319.48
352.163	284.38
352.615	293.74
353.066	345.23
353.518	375.66
353.969	342.89
354.421	249.27
354.872	319.48
355.324	298.42
355.775	338.21
356.226	293.74
356.677	326.5
357.128	277.35
357.579	317.14
358.03	244.59
358.481	291.4
358.932	275.01
359.383	331.19
359.834	382.68
360.285	356.93
360.735	375.66
361.186	319.48
361.637	282.03
362.087	303.1
362.538	342.89
362.988	291.4
363.438	286.72
363.889	272.67
364.339	342.89
364.789	279.69
365.239	333.53
365.689	340.55
366.139	314.8
366.589	307.78
367.039	284.38
367.489	284.38
367.939	328.85
368.389	256.29
368.839	284.38
369.288	277.35
369.738	328.85
370.187	352.25
370.637	370.97
371.086	300.76
371.536	354.59
371.985	314.8
372.434	349.91
372.884	307.78
373.333	263.31
373.782	284.38
374.231	312.46
374.68	305.44
375.129	378
375.578	291.4
376.027	333.53
376.475	230.54
376.924	307.78
377.373	310.12
377.822	272.67
378.27	279.69
378.719	307.78
379.167	340.55
379.616	399.06
380.064	282.03
380.512	307.78
380.961	326.5
381.409	342.89
381.857	345.23
382.305	296.08
382.753	345.23
383.201	284.38
383.649	307.78
384.097	312.46
384.545	303.1
384.992	345.23
385.44	342.89
385.888	317.14
386.335	338.21
386.783	310.12
387.231	321.82
387.678	387.36
388.125	326.5
388.573	263.31
389.02	267.99
389.467	342.89
389.914	253.95
390.362	312.46
390.809	352.25
391.256	340.55
391.703	242.25
392.15	361.61
392.596	277.35
393.043	312.46
393.49	314.8
393.937	331.19
394.383	289.06
394.83	326.5
395.276	282.03
395.723	321.82
396.169	385.02
396.616	284.38
397.062	340.55
397.508	305.44
397.954	300.76
398.401	370.97
398.847	319.48
399.293	305.44
399.739	270.33
400.185	300.76
400.631	270.33
401.076	305.44
401.522	331.19
401.968	307.78
402.414	300.76
402.859	284.38
403.305	363.95
403.75	310.12
404.196	331.19
404.641	324.16
405.086	361.61
405.532	256.29
405.977	300.76
406.422	342.89
406.867	279.69
407.312	293.74
407.757	286.72
408.202	328.85
408.647	312.46
409.092	265.65
409.537	324.16
409.982	326.5
410.426	305.44
410.871	361.61
411.316	286.72
411.76	289.06
412.205	349.91
412.649	279.69
413.093	270.33
413.538	260.97
413.982	298.42
414.426	286.72
414.87	349.91
415.314	279.69
415.758	312.46
416.202	345.23
416.646	312.46
417.09	333.53
417.534	317.14
417.978	291.4
418.421	345.23
418.865	347.57
419.309	303.1
419.752	331.19
420.196	291.4
420.639	326.5
421.083	305.44
421.526	305.44
421.969	310.12
422.412	389.7
422.856	289.06
423.299	228.2
423.742	279.69
424.185	305.44
424.628	331.19
425.071	335.87
425.513	291.4
425.956	331.19
426.399	303.1
426.842	310.12
427.284	298.42
427.727	258.63
428.169	324.16
428.612	291.4
429.054	333.53
429.497	256.29
429.939	363.95
430.381	265.65
430.823	272.67
431.265	340.55
431.707	328.85
432.149	307.78
432.591	324.16
433.033	305.44
433.475	277.35
433.917	258.63
434.359	345.23
434.8	279.69
435.242	293.74
435.684	251.61
436.125	303.1
436.567	251.61
437.008	265.65
437.449	310.12
437.891	237.56
438.332	310.12
438.773	298.42
439.214	253.95
439.656	300.76
440.097	310.12
440.538	324.16
440.978	303.1
441.419	324.16
441.86	319.48
442.301	291.4
442.742	312.46
443.182	389.7
443.623	392.04
444.063	277.35
444.504	342.89
444.944	310.12
445.385	298.42
445.825	284.38
446.265	293.74
446.706	312.46
447.146	342.89
447.586	312.46
448.026	361.61
448.466	310.12
448.906	333.53
449.346	345.23
449.786	366.29
450.225	340.55
450.665	352.25
451.105	293.74
451.544	284.38
451.984	296.08
452.424	300.76
452.863	284.38
453.302	319.48
453.742	328.85
454.181	326.5
454.62	282.03
455.059	314.8
455.499	282.03
455.938	267.99
456.377	275.01
456.816	319.48
457.254	270.33
457.693	328.85
458.132	303.1
458.571	310.12
459.01	333.53
459.448	345.23
459.887	244.59
460.325	324.16
460.764	324.16
461.202	317.14
461.641	326.5
462.079	305.44
462.517	242.25
462.955	303.1
463.393	326.5
463.832	312.46
464.27	335.87
464.708	368.63
465.145	291.4
465.583	340.55
466.021	375.66
466.459	317.14
466.897	342.89
467.334	370.97
467.772	296.08
468.209	253.95
468.647	293.74
469.084	284.38
469.522	392.04
469.959	335.87
470.396	296.08
470.833	272.67
471.271	277.35
471.708	354.59
472.145	335.87
472.582	275.01
473.019	324.16
473.456	284.38
473.892	359.27
474.329	312.46
474.766	333.53
475.202	331.19
475.639	324.16
476.076	272.67
476.512	282.03
476.949	312.46
477.385	286.72
477.821	340.55
478.258	319.48
478.694	375.66
479.13	272.67
479.566	293.74
480.002	338.21
480.438	319.48
480.874	305.44
481.31	324.16
481.746	272.67
482.181	356.93
482.617	314.8
483.053	303.1
483.488	363.95
483.924	375.66
484.36	347.57
484.795	317.14
485.23	319.48
485.666	378
486.101	352.25
486.536	310.12
486.971	303.1
487.407	286.72
487.842	324.16
488.277	284.38
488.712	258.63
489.146	277.35
489.581	307.78
490.016	298.42
490.451	319.48
490.885	246.93
491.32	289.06
491.755	293.74
492.189	298.42
492.624	324.16
493.058	244.59
493.492	331.19
493.927	267.99
494.361	354.59
494.795	260.97
495.229	305.44
495.663	352.25
496.097	251.61
496.531	335.87
496.965	307.78
497.399	256.29
497.833	345.23
498.266	326.5
498.7	289.06
499.134	284.38
499.567	305.44
500.001	359.27
500.434	284.38
500.868	307.78
501.301	314.8
501.734	303.1
502.168	314.8
502.601	286.72
503.034	321.82
503.467	298.42
503.9	300.76
504.333	293.74
504.766	260.97
505.199	333.53
505.632	289.06
506.064	277.35
506.497	286.72
506.93	293.74
507.362	307.78
507.795	289.06
508.227	275.01
508.66	331.19
509.092	286.72
509.524	331.19
509.956	345.23
510.389	277.35
510.821	310.12
511.253	317.14
511.685	324.16
512.117	382.68
512.549	326.5
512.981	324.16
513.412	387.36
513.844	335.87
514.276	363.95
514.707	359.27
515.139	284.38
515.571	324.16
516.002	270.33
516.433	340.55
516.865	380.34
517.296	249.27
517.727	289.06
518.159	303.1
518.59	314.8
519.021	289.06
519.452	293.74
519.883	270.33
520.314	342.89
520.744	307.78
521.175	326.5
521.606	319.48
522.037	326.5
522.467	326.5
522.898	312.46
523.328	345.23
523.759	333.53
524.189	242.25
524.62	293.74
525.05	305.44
525.48	331.19
525.91	317.14
526.341	335.87
526.771	258.63
527.201	284.38
527.631	291.4
528.061	260.97
528.49	298.42
528.92	260.97
529.35	305.44
529.78	314.8
530.209	321.82
530.639	307.78
531.068	340.55
531.498	260.97
531.927	345.23
532.357	267.99
532.786	363.95
533.215	249.27
533.644	321.82
534.074	331.19
534.503	317.14
534.932	321.82
535.361	359.27
535.79	249.27
536.218	319.48
536.647	368.63
537.076	347.57
537.505	333.53
537.933	275.01
538.362	282.03
538.79	333.53
539.219	324.16
539.647	359.27
540.076	296.08
540.504	347.57
540.932	293.74
541.36	307.78
541.788	282.03
542.217	317.14
542.645	314.8
543.073	291.4
543.5	303.1
543.928	267.99
544.356	279.69
544.784	298.42
545.211	249.27
545.639	342.89
546.067	279.69
546.494	331.19
546.922	265.65
547.349	298.42
547.776	317.14
548.204	279.69
548.631	310.12
549.058	277.35
549.485	317.14
549.912	359.27
550.339	317.14
550.766	305.44
551.193	307.78
551.62	349.91
552.047	370.97
552.474	335.87
552.9	303.1
553.327	373.32
553.754	291.4
554.18	340.55
554.607	335.87
555.033	258.63
555.459	279.69
555.886	328.85
556.312	319.48
556.738	317.14
557.164	303.1
557.59	359.27
558.016	300.76
558.442	333.53
558.868	335.87
559.294	305.44
559.72	286.72
560.145	296.08
560.571	321.82
560.997	293.74
561.422	242.25
561.848	326.5
562.273	363.95
562.699	305.44
563.124	328.85
563.549	392.04
563.974	345.23
564.4	303.1
564.825	293.74
565.25	253.95
565.675	275.01
566.1	279.69
566.525	324.16
566.95	286.72
567.374	310.12
567.799	310.12
568.224	303.1
568.648	312.46
569.073	279.69
569.497	324.16
569.922	263.31
570.346	319.48
570.771	305.44
571.195	331.19
571.619	256.29
572.043	352.25
572.467	356.93
572.891	279.69
573.315	296.08
573.739	296.08
574.163	349.91
574.587	310.12
575.011	298.42
575.435	312.46
575.858	368.63
576.282	300.76
576.705	300.76
577.129	256.29
577.552	328.85
577.976	370.97
578.399	347.57
578.822	291.4
579.245	286.72
579.669	272.67
580.092	289.06
580.515	286.72
580.938	370.97
581.361	289.06
581.784	305.44
582.206	293.74
582.629	289.06
583.052	321.82
583.474	349.91
583.897	321.82
584.32	324.16
584.742	279.69
585.165	286.72
585.587	338.21
586.009	324.16
586.431	289.06
586.854	326.5
587.276	303.1
587.698	258.63
588.12	270.33
588.542	335.87
588.964	270.33
589.386	328.85
589.807	401.4
590.229	321.82
590.651	326.5
591.073	335.87
591.494	310.12
591.916	298.42
592.337	347.57
592.759	279.69
593.18	246.93
593.601	300.76
594.022	312.46
594.444	282.03
594.865	303.1
595.286	305.44
595.707	324.16
596.128	328.85
596.549	272.67
596.97	296.08
597.39	260.97
597.811	218.84
598.232	352.25
598.652	338.21
599.073	345.23
599.494	321.82
599.914	366.29
600.334	307.78
600.755	314.8
601.175	317.14
601.595	235.22
602.015	225.86
602.436	340.55
602.856	401.4
603.276	359.27
603.696	277.35
604.115	286.72
604.535	310.12
604.955	349.91
605.375	305.44
605.794	284.38
606.214	270.33
606.634	253.95
607.053	324.16
607.473	354.59
607.892	310.12
608.311	331.19
608.731	291.4
609.15	354.59
609.569	345.23
609.988	310.12
610.407	385.02
610.826	291.4
611.245	321.82
611.664	321.82
612.083	310.12
612.501	267.99
612.92	244.59
613.339	352.25
613.757	314.8
614.176	291.4
614.594	317.14
615.013	333.53
615.431	312.46
615.85	312.46
616.268	272.67
616.686	279.69
617.104	298.42
617.522	338.21
617.94	310.12
618.358	244.59
618.776	256.29
619.194	326.5
619.612	291.4
620.03	291.4
620.447	314.8
620.865	324.16
621.282	335.87
621.7	263.31
622.117	267.99
622.535	293.74
622.952	298.42
623.369	326.5
623.787	277.35
624.204	326.5
624.621	277.35
625.038	303.1
625.455	378
625.872	312.46
626.289	312.46
626.706	251.61
627.123	300.76
627.539	235.22
627.956	314.8
628.373	366.29
628.789	289.06
629.206	389.7
629.622	296.08
630.038	312.46
630.455	328.85
630.871	293.74
631.287	232.88
631.703	340.55
632.12	319.48
632.536	230.54
632.952	338.21
633.368	363.95
633.783	296.08
634.199	347.57
634.615	340.55
635.031	272.67
635.446	345.23
635.862	293.74
636.277	324.16
636.693	267.99
637.108	324.16
637.524	326.5
637.939	263.31
638.354	392.04
638.77	265.65
639.185	293.74
639.6	321.82
640.015	291.4
640.43	387.36
640.845	258.63
641.259	333.53
641.674	258.63
642.089	333.53
642.504	338.21
642.918	298.42
643.333	363.95
643.747	349.91
644.162	349.91
644.576	328.85
644.991	260.97
645.405	209.48
645.819	296.08
646.233	319.48
646.647	249.27
647.061	321.82
647.475	230.54
647.889	303.1
648.303	296.08
648.717	284.38
649.131	305.44
649.545	307.78
649.958	300.76
650.372	312.46
650.785	319.48
651.199	289.06
651.612	284.38
652.026	258.63
652.439	258.63
652.852	296.08
653.266	312.46
653.679	291.4
654.092	303.1
654.505	270.33
654.918	265.65
655.331	328.85
655.744	310.12
656.156	356.93
656.569	293.74
656.982	253.95
657.394	253.95
657.807	328.85
658.22	253.95
658.632	342.89
659.044	352.25
659.457	282.03
659.869	282.03
660.281	310.12
660.693	289.06
661.106	293.74
661.518	305.44
661.93	310.12
662.342	282.03
662.754	321.82
663.165	375.66
663.577	340.55
663.989	352.25
664.401	296.08
664.812	272.67
665.224	380.34
665.635	314.8
666.047	298.42
666.458	345.23
666.869	296.08
667.281	289.06
667.692	303.1
668.103	349.91
668.514	335.87
668.925	293.74
669.336	331.19
669.747	319.48
670.158	324.16
670.569	284.38
670.979	310.12
671.39	324.16
671.801	319.48
672.211	289.06
672.622	296.08
673.032	300.76
673.443	237.56
673.853	221.18
674.263	382.68
674.674	307.78
675.084	291.4
675.494	277.35
675.904	326.5
676.314	279.69
676.724	256.29
677.134	328.85
677.544	260.97
677.953	317.14
678.363	354.59
678.773	356.93
679.182	310.12
679.592	298.42
680.001	307.78
680.411	382.68
680.82	267.99
681.23	338.21
681.639	373.32
682.048	289.06
682.457	293.74
682.866	363.95
683.275	328.85
683.684	331.19
684.093	256.29
684.502	286.72
684.911	279.69
685.32	319.48
685.728	300.76
686.137	282.03
686.546	354.59
686.954	275.01
687.363	225.86
687.771	244.59
688.179	310.12
688.588	298.42
688.996	328.85
689.404	310.12
689.812	267.99
690.22	282.03
690.628	326.5
691.036	314.8
691.444	352.25
691.852	251.61
692.26	291.4
692.667	289.06
693.075	378
693.483	237.56
693.89	359.27
694.298	352.25
694.705	256.29
695.112	263.31
695.52	300.76
695.927	342.89
696.334	345.23
696.741	328.85
697.148	277.35
697.555	244.59
697.962	270.33
698.369	345.23
698.776	258.63
699.183	317.14
699.59	310.12
699.996	279.69
700.403	321.82
700.81	335.87
701.216	303.1
701.623	305.44
702.029	368.63
702.435	296.08
702.842	284.38
703.248	338.21
703.654	289.06
704.06	258.63
704.466	284.38
704.872	319.48
705.278	300.76
705.684	354.59
706.09	326.5
706.496	291.4
706.901	272.67
707.307	333.53
707.712	368.63
708.118	260.97
708.523	356.93
708.929	333.53
709.334	284.38
709.74	338.21
710.145	293.74
710.55	272.67
710.955	246.93
711.36	282.03
711.765	272.67
712.17	333.53
712.575	370.97
712.98	984.2
713.385	389.7
713.789	272.67
714.194	312.46
714.599	303.1
715.003	282.03
715.408	345.23
715.812	253.95
716.217	333.53
716.621	286.72
717.025	356.93
717.429	321.82
717.833	356.93
718.238	340.55
718.642	307.78
719.046	291.4
719.449	296.08
719.853	249.27
720.257	324.16
720.661	317.14
721.065	300.76
721.468	331.19
721.872	260.97
722.275	298.42
722.679	331.19
723.082	258.63
723.485	347.57
723.889	270.33
724.292	265.65
724.695	342.89
725.098	303.1
725.501	296.08
725.904	289.06
726.307	328.85
726.71	284.38
727.113	314.8
727.516	228.2
727.918	317.14
728.321	319.48
728.724	305.44
729.126	303.1
729.529	277.35
729.931	265.65
730.333	338.21
730.736	298.42
731.138	356.93
731.54	373.32
731.942	342.89
732.344	338.21
732.746	321.82
733.148	338.21
733.55	321.82
733.952	349.91
734.354	347.57
734.756	342.89
735.157	286.72
735.559	253.95
735.96	286.72
736.362	286.72
736.763	340.55
737.165	256.29
737.566	300.76
737.967	293.74
738.368	303.1
738.77	282.03
739.171	305.44
739.572	286.72
739.973	286.72
740.374	291.4
740.774	286.72
741.175	354.59
741.576	284.38
741.977	321.82
742.377	267.99
742.778	307.78
743.178	289.06
743.579	263.31
743.979	272.67
744.379	298.42
744.78	354.59
745.18	307.78
745.58	342.89
745.98	338.21
746.38	293.74
746.78	270.33
747.18	289.06
747.58	289.06
747.98	263.31
748.38	319.48
748.779	312.46
749.179	303.1
749.578	354.59
749.978	296.08
750.377	296.08
750.777	338.21
751.176	239.9
751.575	312.46
751.975	293.74
752.374	349.91
752.773	338.21
753.172	289.06
753.571	244.59
753.97	319.48
754.369	389.7
754.768	385.02
755.166	321.82
755.565	296.08
755.964	300.76
756.362	321.82
756.761	338.21
757.159	319.48
757.558	387.36
757.956	239.9
758.354	282.03
758.753	338.21
759.151	216.5
759.549	225.86
759.947	298.42
760.345	300.76
760.743	352.25
761.141	328.85
761.539	342.89
761.936	312.46
762.334	296.08
762.732	279.69
763.129	352.25
763.527	270.33
763.924	342.89
764.322	317.14
764.719	260.97
765.117	251.61
765.514	312.46
765.911	223.52
766.308	232.88
766.705	275.01
767.102	289.06
767.499	333.53
767.896	331.19
768.293	298.42
768.69	300.76
769.086	317.14
769.483	237.56
769.88	300.76
770.276	256.29
770.673	338.21
771.069	340.55
771.466	305.44
771.862	310.12
772.258	286.72
772.654	342.89
773.05	296.08
773.447	335.87
773.843	314.8
774.239	312.46
774.634	298.42
775.03	335.87
775.426	298.42
775.822	363.95
776.218	258.63
776.613	307.78
777.009	298.42
777.404	349.91
777.8	331.19
778.195	284.38
778.59	363.95
778.986	321.82
779.381	296.08
779.776	352.25
780.171	235.22
780.566	335.87
780.961	310.12
781.356	279.69
781.751	293.74
782.146	267.99
782.54	242.25
782.935	310.12
783.33	251.61
783.724	314.8
784.119	303.1
784.513	251.61
784.908	333.53
785.302	317.14
785.696	289.06
786.09	319.48
786.485	340.55
786.879	331.19
787.273	293.74
787.667	382.68
788.061	291.4
788.454	296.08
788.848	352.25
789.242	399.06
789.636	387.36
790.029	310.12
790.423	293.74
790.816	303.1
791.21	317.14
791.603	314.8
791.997	333.53
792.39	221.18
792.783	333.53
793.176	326.5
793.569	317.14
793.962	321.82
794.355	307.78
794.748	312.46
795.141	321.82
795.534	293.74
795.927	296.08
796.319	293.74
796.712	305.44
797.105	310.12
797.497	352.25
797.89	312.46
798.282	300.76
798.674	246.93
799.067	366.29
799.459	326.5
799.851	282.03
800.243	347.57
800.635	338.21
801.027	296.08
801.419	298.42
801.811	314.8
802.203	324.16
802.594	347.57
802.986	260.97
803.378	321.82
803.769	251.61
804.161	275.01
804.552	328.85
804.944	307.78
805.335	272.67
805.726	331.19
806.118	272.67
806.509	244.59
806.9	326.5
807.291	272.67
807.682	324.16
808.073	328.85
808.464	370.97
808.855	345.23
809.245	328.85
809.636	312.46
810.027	300.76
810.417	321.82
810.808	298.42
811.198	282.03
811.589	342.89
811.979	328.85
812.369	319.48
812.759	387.36
813.15	286.72
813.54	382.68
813.93	277.35
814.32	342.89
814.71	272.67
815.1	298.42
815.489	303.1
815.879	317.14
816.269	303.1
816.658	356.93
817.048	246.93
817.438	286.72
817.827	307.78
818.216	328.85
818.606	338.21
818.995	305.44
819.384	321.82
819.773	298.42
820.163	300.76
820.552	282.03
820.941	270.33
821.33	347.57
821.718	312.46
822.107	328.85
822.496	300.76
822.885	270.33
823.273	291.4
823.662	314.8
824.05	347.57
824.439	347.57
824.827	284.38
825.216	249.27
825.604	312.46
825.992	300.76
826.38	319.48
826.768	277.35
827.156	312.46
827.544	324.16
827.932	305.44
828.32	253.95
828.708	303.1
829.096	305.44
829.483	260.97
829.871	251.61
830.259	277.35
830.646	310.12
831.034	307.78
831.421	349.91
831.808	326.5
832.196	293.74
832.583	310.12
832.97	335.87
833.357	291.4
833.744	312.46
834.131	267.99
834.518	342.89
834.905	256.29
835.292	338.21
835.678	305.44
836.065	275.01
836.452	317.14
836.838	380.34
837.225	319.48
837.611	289.06
837.998	310.12
838.384	293.74
838.77	363.95
839.157	244.59
839.543	335.87
839.929	263.31
840.315	272.67
840.701	312.46
841.087	296.08
841.473	382.68
841.858	314.8
842.244	305.44
842.63	324.16
843.015	284.38
843.401	607.37
843.787	284.38
844.172	307.78
844.557	251.61
844.943	244.59
845.328	242.25
845.713	305.44
846.098	307.78
846.483	209.48
846.868	296.08
847.253	298.42
847.638	214.16
848.023	331.19
848.408	225.86
848.793	335.87
849.177	331.19
849.562	228.2
849.947	291.4
850.331	347.57
850.715	326.5
851.1	296.08
851.484	338.21
851.868	249.27
852.253	300.76
852.637	265.65
853.021	251.61
853.405	258.63
853.789	270.33
854.173	314.8
854.557	356.93
854.94	349.91
855.324	289.06
855.708	326.5
856.091	293.74
856.475	300.76
856.858	310.12
857.242	251.61
857.625	279.69
858.009	352.25
858.392	272.67
858.775	314.8
859.158	265.65
859.541	284.38
859.924	289.06
860.307	277.35
860.69	331.19
861.073	352.25
861.456	324.16
861.838	321.82
862.221	312.46
862.604	342.89
862.986	303.1
863.369	228.2
863.751	286.72
864.133	319.48
864.516	335.87
864.898	328.85
865.28	272.67
865.662	275.01
866.044	366.29
866.426	284.38
866.808	300.76
867.19	370.97
867.572	319.48
867.954	286.72
868.336	258.63
868.717	328.85
869.099	317.14
869.48	286.72
869.862	279.69
870.243	298.42
870.625	347.57
871.006	289.06
871.387	270.33
871.768	307.78
872.149	307.78
872.53	324.16
872.911	284.38
873.292	312.46
873.673	242.25
874.054	275.01
874.435	326.5
874.815	342.89
875.196	324.16
875.577	303.1
875.957	314.8
876.338	246.93
876.718	335.87
877.098	298.42
877.479	361.61
877.859	298.42
878.239	300.76
878.619	354.59
878.999	293.74
879.379	345.23
879.759	307.78
880.139	282.03
880.519	345.23
880.898	324.16
881.278	303.1
881.658	303.1
882.037	333.53
882.417	363.95
882.796	312.46
883.176	258.63
883.555	291.4
883.934	312.46
884.313	270.33
884.693	347.57
885.072	284.38
885.451	305.44
885.83	282.03
886.209	270.33
886.587	328.85
886.966	370.97
887.345	312.46
887.724	319.48
888.102	289.06
888.481	267.99
888.859	260.97
889.238	296.08
889.616	361.61
889.994	312.46
890.373	307.78
890.751	312.46
891.129	326.5
891.507	260.97
891.885	253.95
892.263	260.97
892.641	296.08
893.019	270.33
893.396	260.97
893.774	277.35
894.152	223.52
894.529	340.55
894.907	368.63
895.284	284.38
895.662	312.46
896.039	260.97
896.416	267.99
896.794	310.12
897.171	310.12
897.548	286.72
897.925	307.78
898.302	331.19
898.679	314.8
899.056	282.03
899.433	284.38
899.809	307.78
900.186	239.9
900.563	242.25
900.939	267.99
901.316	263.31
901.692	279.69
902.069	317.14
902.445	289.06
902.821	246.93
903.197	291.4
903.574	275.01
903.95	279.69
904.326	359.27
904.702	366.29
905.078	370.97
905.454	319.48
905.829	279.69
906.205	244.59
906.581	314.8
906.956	298.42
907.332	300.76
907.707	326.5
908.083	352.25
908.458	284.38
908.833	275.01
909.209	277.35
909.584	349.91
909.959	270.33
910.334	249.27
910.709	263.31
911.084	284.38
911.459	328.85
911.834	293.74
912.209	303.1
912.583	267.99
912.958	286.72
913.333	239.9
913.707	286.72
914.082	291.4
914.456	349.91
914.83	349.91
915.205	317.14
915.579	307.78
915.953	324.16
916.327	193.09
916.701	296.08
917.075	275.01
917.449	242.25
917.823	317.14
918.197	321.82
918.571	317.14
918.944	314.8
919.318	228.2
919.692	349.91
920.065	342.89
920.438	354.59
920.812	303.1
921.185	282.03
921.558	282.03
921.932	335.87
922.305	293.74
922.678	366.29
923.051	347.57
923.424	300.76
923.797	303.1
924.17	300.76
924.542	277.35
924.915	296.08
925.288	356.93
925.661	305.44
926.033	333.53
926.406	335.87
926.778	317.14
927.15	314.8
927.523	317.14
927.895	340.55
928.267	354.59
928.639	331.19
929.011	345.23
929.383	265.65
929.755	272.67
930.127	349.91
930.499	286.72
930.871	335.87
931.242	319.48
931.614	296.08
931.986	249.27
932.357	298.42
932.729	284.38
933.1	319.48
933.471	298.42
933.843	242.25
934.214	326.5
934.585	300.76
934.956	324.16
935.327	279.69
935.698	279.69
936.069	312.46
936.44	333.53
936.811	275.01
937.182	312.46
937.552	340.55
937.923	296.08
938.293	321.82
938.664	300.76
939.034	282.03
939.405	296.08
939.775	298.42
940.145	296.08
940.516	310.12
940.886	300.76
941.256	340.55
941.626	279.69
941.996	284.38
942.366	319.48
942.735	347.57
943.105	324.16
943.475	307.78
943.845	300.76
944.214	225.86
944.584	239.9
944.953	331.19
945.323	317.14
945.692	263.31
946.061	272.67
946.43	270.33
946.8	258.63
947.169	284.38
947.538	310.12
947.907	272.67
948.276	368.63
948.645	303.1
949.013	244.59
949.382	356.93
949.751	291.4
950.119	286.72
950.488	286.72
950.857	310.12
951.225	291.4
951.593	282.03
951.962	298.42
952.33	256.29
952.698	342.89
953.066	314.8
953.434	253.95
953.802	340.55
954.17	305.44
954.538	317.14
954.906	303.1
955.274	277.35
955.642	282.03
956.009	265.65
956.377	298.42
956.744	249.27
957.112	242.25
957.479	296.08
957.847	267.99
958.214	246.93
958.581	293.74
958.948	279.69
959.315	340.55
959.683	359.27
960.05	253.95
960.416	342.89
960.783	256.29
961.15	277.35
961.517	314.8
961.884	300.76
962.25	354.59
962.617	319.48
962.983	270.33
963.35	317.14
963.716	300.76
964.082	326.5
964.449	305.44
964.815	349.91
965.181	303.1
965.547	296.08
965.913	335.87
966.279	359.27
966.645	356.93
967.011	258.63
967.377	279.69
967.742	270.33
968.108	282.03
968.474	282.03
968.839	317.14
969.205	312.46
969.57	373.32
969.935	342.89
970.301	267.99
970.666	265.65
971.031	338.21
971.396	307.78
971.761	289.06
972.126	251.61
972.491	324.16
972.856	230.54
973.221	265.65
973.586	289.06
973.95	293.74
974.315	232.88
974.679	312.46
975.044	305.44
975.408	321.82
975.773	319.48
976.137	331.19
976.501	253.95
976.866	317.14
977.23	314.8
977.594	291.4
977.958	370.97
978.322	338.21
978.686	303.1
979.049	265.65
979.413	324.16
979.777	303.1
980.141	282.03
980.504	361.61
980.868	352.25
981.231	312.46
981.595	324.16
981.958	328.85
982.321	265.65
982.684	303.1
983.048	366.29
983.411	284.38
983.774	221.18
984.137	338.21
984.5	249.27
984.862	291.4
985.225	263.31
985.588	270.33
985.951	305.44
986.313	312.46
986.676	258.63
987.038	319.48
987.401	218.84
987.763	307.78
988.125	286.72
988.488	326.5
988.85	207.14
989.212	258.63
989.574	298.42
989.936	284.38
990.298	298.42
990.66	244.59
991.022	279.69
991.383	307.78
991.745	263.31
992.107	317.14
992.468	291.4
992.83	321.82
993.191	279.69
993.553	277.35
993.914	246.93
994.275	277.35
994.637	352.25
994.998	293.74
995.359	279.69
995.72	305.44
996.081	284.38
996.442	265.65
996.803	272.67
997.163	279.69
997.524	307.78
997.885	249.27
998.245	305.44
998.606	310.12
998.966	275.01
999.327	298.42
999.687	251.61
1000.047	260.97
1000.408	263.31
1000.768	314.8
1001.128	289.06
1001.488	284.38
1001.848	270.33
1002.208	267.99
1002.568	251.61
1002.927	326.5
1003.287	249.27
1003.647	251.61
1004.007	251.61
1004.366	246.93
1004.726	284.38
1005.085	275.01
1005.444	303.1
1005.804	312.46
1006.163	361.61
1006.522	253.95
1006.881	347.57
1007.24	296.08
1007.599	291.4
1007.958	331.19
1008.317	300.76
1008.676	249.27
1009.035	298.42
1009.393	333.53
1009.752	333.53
1010.111	305.44
1010.469	312.46
1010.828	307.78
1011.186	382.68
1011.544	279.69
1011.903	279.69
1012.261	235.22
1012.619	303.1
1012.977	265.65
1013.335	317.14
1013.693	251.61
1014.051	328.85
1014.409	305.44
1014.767	333.53
1015.124	335.87
1015.482	335.87
1015.84	342.89
1016.197	331.19
1016.555	303.1
1016.912	246.93
1017.269	331.19
1017.627	298.42
1017.984	314.8
1018.341	328.85
1018.698	258.63
1019.055	296.08
1019.412	275.01
1019.769	298.42
1020.126	366.29
1020.483	246.93
1020.84	293.74
1021.196	385.02
1021.553	303.1
1021.909	305.44
1022.266	324.16
1022.622	324.16
1022.979	310.12
1023.335	296.08
1023.691	251.61
1024.047	284.38
1024.404	387.36
1024.76	310.12
1025.116	279.69
1025.472	368.63
1025.827	291.4
1026.183	277.35
1026.539	277.35
1026.895	317.14
1027.25	305.44
1027.606	239.9
1027.961	303.1
1028.317	232.88
1028.672	331.19
1029.028	242.25
1029.383	270.33
1029.738	338.21
1030.093	228.2
1030.448	310.12
1030.803	331.19
1031.158	279.69
1031.513	342.89
1031.868	314.8
1032.223	263.31
1032.577	225.86
1032.932	284.38
1033.287	270.33
1033.641	335.87
1033.996	286.72
1034.35	319.48
1034.704	216.5
1035.059	270.33
1035.413	345.23
1035.767	345.23
1036.121	345.23
