Data from Al_FLMS009871__1286__16-49-39-466.txt Node

Date: Fri Mar 08 16:49:39 CST 2024
User: pe5414po
Spectrometer: FLMS00987
Trigger mode: 0
Integration Time (sec): 1.000000E-1
Scans to average: 1
Electric dark correction enabled: true
Nonlinearity correction enabled: false
Boxcar width: 0
XAxis mode: Wavelengths
Number of Pixels in Spectrum: 2048
>>>>>Begin Spectral Data<<<<<
188.938	-72.41
189.409	-72.41
189.879	-72.41
190.349	-95.82
190.819	-156.67
191.29	-20.92
191.76	-56.03
192.23	-98.16
192.7	-88.79
193.17	-81.77
193.64	-46.66
194.109	42.28
194.579	-20.92
195.049	-16.24
195.519	-2.19
195.988	18.87
196.458	68.02
196.927	61
197.397	7.17
197.866	103.13
198.336	131.22
198.805	114.83
199.274	147.6
199.744	229.52
200.213	238.88
200.682	220.16
201.151	273.99
201.62	196.75
202.089	175.69
202.558	222.5
203.027	273.99
203.495	236.54
203.964	192.07
204.433	309.1
204.902	295.05
205.37	330.16
205.839	245.9
206.307	269.31
206.776	318.46
207.244	330.16
207.712	278.67
208.181	273.99
208.649	257.61
209.117	323.14
209.585	241.22
210.053	323.14
210.521	213.14
210.989	292.71
211.457	250.58
211.925	295.05
212.393	283.35
212.861	238.88
213.328	311.44
213.796	248.24
214.264	264.63
214.731	283.35
215.199	241.22
215.666	306.76
216.133	227.18
216.601	292.71
217.068	292.71
217.535	262.29
218.003	262.29
218.47	255.26
218.937	175.69
219.404	330.16
219.871	248.24
220.338	318.46
220.805	227.18
221.271	220.16
221.738	339.52
222.205	189.73
222.671	206.11
223.138	264.63
223.605	175.69
224.071	250.58
224.538	222.5
225.004	290.37
225.47	264.63
225.937	266.97
226.403	252.92
226.869	220.16
227.335	182.71
227.801	245.9
228.267	255.26
228.733	215.48
229.199	250.58
229.665	227.18
230.131	353.57
230.597	250.58
231.062	337.18
231.528	327.82
231.994	264.63
232.459	262.29
232.925	304.42
233.39	309.1
233.856	229.52
234.321	288.03
234.786	248.24
235.252	306.76
235.717	257.61
236.182	264.63
236.647	365.27
237.112	213.14
237.577	271.65
238.042	311.44
238.507	259.95
238.972	304.42
239.436	295.05
239.901	281.01
240.366	250.58
240.83	234.2
241.295	245.9
241.76	288.03
242.224	229.52
242.688	299.73
243.153	229.52
243.617	273.99
244.081	248.24
244.545	283.35
245.01	238.88
245.474	311.44
245.938	330.16
246.402	269.31
246.866	278.67
247.33	302.08
247.793	255.26
248.257	217.82
248.721	262.29
249.185	238.88
249.648	269.31
250.112	231.86
250.575	292.71
251.039	238.88
251.502	245.9
251.965	290.37
252.429	266.97
252.892	302.08
253.355	311.44
253.818	250.58
254.281	295.05
254.744	241.22
255.207	278.67
255.67	297.39
256.133	271.65
256.596	330.16
257.059	304.42
257.522	243.56
257.984	295.05
258.447	295.05
258.909	302.08
259.372	288.03
259.834	248.24
260.297	250.58
260.759	213.14
261.221	273.99
261.684	285.69
262.146	302.08
262.608	281.01
263.07	299.73
263.532	171.01
263.994	217.82
264.456	297.39
264.918	257.61
265.38	309.1
265.842	292.71
266.303	241.22
266.765	304.42
267.227	292.71
267.688	243.56
268.15	269.31
268.611	290.37
269.072	292.71
269.534	245.9
269.995	271.65
270.456	351.23
270.918	299.73
271.379	269.31
271.84	320.8
272.301	238.88
272.762	264.63
273.223	304.42
273.684	309.1
274.144	245.9
274.605	259.95
275.066	213.14
275.527	255.26
275.987	248.24
276.448	273.99
276.908	313.78
277.369	281.01
277.829	241.22
278.289	273.99
278.75	302.08
279.21	330.16
279.67	332.5
280.13	318.46
280.59	259.95
281.05	302.08
281.51	316.12
281.97	269.31
282.43	295.05
282.89	266.97
283.35	288.03
283.809	295.05
284.269	252.92
284.729	348.89
285.188	362.93
285.648	262.29
286.107	292.71
286.567	276.33
287.026	353.57
287.485	295.05
287.944	351.23
288.404	288.03
288.863	311.44
289.322	257.61
289.781	306.76
290.24	330.16
290.699	295.05
291.158	353.57
291.616	316.12
292.075	234.2
292.534	269.31
292.992	292.71
293.451	327.82
293.91	299.73
294.368	323.14
294.827	304.42
295.285	283.35
295.743	309.1
296.202	215.48
296.66	292.71
297.118	334.84
297.576	288.03
298.034	271.65
298.492	337.18
298.95	334.84
299.408	318.46
299.866	318.46
300.324	290.37
300.781	327.82
301.239	290.37
301.697	276.33
302.154	276.33
302.612	196.75
303.069	248.24
303.527	346.55
303.984	297.39
304.441	278.67
304.899	351.23
305.356	245.9
305.813	323.14
306.27	323.14
306.727	327.82
307.184	344.21
307.641	288.03
308.098	358.25
308.555	344.21
309.012	299.73
309.468	309.1
309.925	262.29
310.382	334.84
310.838	318.46
311.295	337.18
311.751	313.78
312.208	304.42
312.664	355.91
313.12	327.82
313.577	276.33
314.033	269.31
314.489	302.08
314.945	341.86
315.401	313.78
315.857	311.44
316.313	262.29
316.769	320.8
317.225	311.44
317.681	320.8
318.136	302.08
318.592	355.91
319.048	259.95
319.503	273.99
319.959	316.12
320.414	297.39
320.869	327.82
321.325	243.56
321.78	264.63
322.235	304.42
322.691	337.18
323.146	304.42
323.601	299.73
324.056	325.48
324.511	320.8
324.966	355.91
325.421	236.54
325.875	271.65
326.33	266.97
326.785	344.21
327.24	374.63
327.694	311.44
328.149	365.27
328.603	171.01
329.058	323.14
329.512	281.01
329.966	372.29
330.421	243.56
330.875	264.63
331.329	269.31
331.783	276.33
332.237	341.86
332.691	281.01
333.145	325.48
333.599	295.05
334.053	316.12
334.507	325.48
334.96	290.37
335.414	220.16
335.868	273.99
336.321	332.5
336.775	323.14
337.228	290.37
337.682	288.03
338.135	288.03
338.588	330.16
339.042	306.76
339.495	299.73
339.948	313.78
340.401	304.42
340.854	255.26
341.307	290.37
341.76	379.31
342.213	344.21
342.666	316.12
343.119	302.08
343.571	337.18
344.024	269.31
344.477	281.01
344.929	285.69
345.382	330.16
345.834	369.95
346.287	398.04
346.739	337.18
347.191	292.71
347.644	283.35
348.096	320.8
348.548	255.26
349	290.37
349.452	231.86
349.904	325.48
350.356	311.44
350.808	302.08
351.26	276.33
351.711	252.92
352.163	295.05
352.615	334.84
353.066	269.31
353.518	344.21
353.969	299.73
354.421	273.99
354.872	276.33
355.324	285.69
355.775	332.5
356.226	281.01
356.677	320.8
357.128	306.76
357.579	316.12
358.03	320.8
358.481	337.18
358.932	292.71
359.383	323.14
359.834	341.86
360.285	283.35
360.735	248.24
361.186	311.44
361.637	236.54
362.087	269.31
362.538	330.16
362.988	288.03
363.438	292.71
363.889	316.12
364.339	332.5
364.789	330.16
365.239	360.59
365.689	316.12
366.139	266.97
366.589	325.48
367.039	292.71
367.489	391.02
367.939	327.82
368.389	241.22
368.839	285.69
369.288	231.86
369.738	276.33
370.187	309.1
370.637	346.55
371.086	306.76
371.536	337.18
371.985	367.61
372.434	262.29
372.884	266.97
373.333	295.05
373.782	295.05
374.231	339.52
374.68	309.1
375.129	292.71
375.578	302.08
376.027	334.84
376.475	311.44
376.924	323.14
377.373	255.26
377.822	278.67
378.27	313.78
378.719	311.44
379.167	306.76
379.616	320.8
380.064	351.23
380.512	250.58
380.961	292.71
381.409	337.18
381.857	358.25
382.305	306.76
382.753	304.42
383.201	297.39
383.649	304.42
384.097	334.84
384.545	360.59
384.992	288.03
385.44	327.82
385.888	269.31
386.335	337.18
386.783	353.57
387.231	257.61
387.678	304.42
388.125	271.65
388.573	309.1
389.02	327.82
389.467	334.84
389.914	306.76
390.362	365.27
390.809	337.18
391.256	332.5
391.703	351.23
392.15	351.23
392.596	285.69
393.043	341.86
393.49	292.71
393.937	320.8
394.383	283.35
394.83	292.71
395.276	297.39
395.723	320.8
396.169	306.76
396.616	241.22
397.062	330.16
397.508	323.14
397.954	306.76
398.401	332.5
398.847	332.5
399.293	306.76
399.739	259.95
400.185	309.1
400.631	316.12
401.076	292.71
401.522	295.05
401.968	257.61
402.414	318.46
402.859	271.65
403.305	278.67
403.75	325.48
404.196	344.21
404.641	224.84
405.086	360.59
405.532	365.27
405.977	285.69
406.422	299.73
406.867	337.18
407.312	283.35
407.757	346.55
408.202	269.31
408.647	299.73
409.092	337.18
409.537	311.44
409.982	304.42
410.426	290.37
410.871	285.69
411.316	285.69
411.76	367.61
412.205	330.16
412.649	304.42
413.093	255.26
413.538	306.76
413.982	297.39
414.426	278.67
414.87	283.35
415.314	325.48
415.758	257.61
416.202	285.69
416.646	309.1
417.09	353.57
417.534	383.99
417.978	259.95
418.421	348.89
418.865	309.1
419.309	351.23
419.752	304.42
420.196	299.73
420.639	297.39
421.083	355.91
421.526	311.44
421.969	297.39
422.412	309.1
422.856	281.01
423.299	304.42
423.742	273.99
424.185	266.97
424.628	313.78
425.071	299.73
425.513	320.8
425.956	259.95
426.399	278.67
426.842	320.8
427.284	323.14
427.727	297.39
428.169	295.05
428.612	355.91
429.054	283.35
429.497	269.31
429.939	346.55
430.381	311.44
430.823	360.59
431.265	292.71
431.707	252.92
432.149	299.73
432.591	320.8
433.033	302.08
433.475	367.61
433.917	407.4
434.359	271.65
434.8	320.8
435.242	288.03
435.684	292.71
436.125	306.76
436.567	309.1
437.008	311.44
437.449	299.73
437.891	372.29
438.332	304.42
438.773	323.14
439.214	255.26
439.656	346.55
440.097	290.37
440.538	348.89
440.978	367.61
441.419	358.25
441.86	360.59
442.301	290.37
442.742	339.52
443.182	273.99
443.623	316.12
444.063	283.35
444.504	262.29
444.944	292.71
445.385	311.44
445.825	351.23
446.265	297.39
446.706	346.55
447.146	297.39
447.586	306.76
448.026	381.65
448.466	323.14
448.906	323.14
449.346	323.14
449.786	341.86
450.225	337.18
450.665	245.9
451.105	339.52
451.544	316.12
451.984	320.8
452.424	309.1
452.863	297.39
453.302	362.93
453.742	327.82
454.181	273.99
454.62	323.14
455.059	346.55
455.499	295.05
455.938	313.78
456.377	283.35
456.816	292.71
457.254	290.37
457.693	334.84
458.132	283.35
458.571	255.26
459.01	367.61
459.448	327.82
459.887	332.5
460.325	316.12
460.764	222.5
461.202	316.12
461.641	318.46
462.079	339.52
462.517	318.46
462.955	276.33
463.393	271.65
463.832	248.24
464.27	358.25
464.708	252.92
465.145	278.67
465.583	355.91
466.021	292.71
466.459	325.48
466.897	341.86
467.334	210.79
467.772	290.37
468.209	283.35
468.647	313.78
469.084	320.8
469.522	353.57
469.959	351.23
470.396	344.21
470.833	236.54
471.271	325.48
471.708	313.78
472.145	250.58
472.582	295.05
473.019	292.71
473.456	229.52
473.892	241.22
474.329	327.82
474.766	245.9
475.202	236.54
475.639	311.44
476.076	346.55
476.512	266.97
476.949	316.12
477.385	353.57
477.821	316.12
478.258	393.36
478.694	311.44
479.13	295.05
479.566	337.18
480.002	313.78
480.438	323.14
480.874	302.08
481.31	302.08
481.746	360.59
482.181	320.8
482.617	325.48
483.053	283.35
483.488	311.44
483.924	386.33
484.36	316.12
484.795	248.24
485.23	292.71
485.666	283.35
486.101	353.57
486.536	323.14
486.971	288.03
487.407	320.8
487.842	297.39
488.277	351.23
488.712	273.99
489.146	355.91
489.581	325.48
490.016	299.73
490.451	339.52
490.885	325.48
491.32	318.46
491.755	309.1
492.189	295.05
492.624	288.03
493.058	337.18
493.492	295.05
493.927	304.42
494.361	288.03
494.795	355.91
495.229	323.14
495.663	320.8
496.097	334.84
496.531	295.05
496.965	276.33
497.399	311.44
497.833	367.61
498.266	318.46
498.7	288.03
499.134	283.35
499.567	302.08
500.001	311.44
500.434	299.73
500.868	337.18
501.301	339.52
501.734	273.99
502.168	297.39
502.601	281.01
503.034	299.73
503.467	330.16
503.9	259.95
504.333	313.78
504.766	290.37
505.199	360.59
505.632	344.21
506.064	262.29
506.497	334.84
506.93	276.33
507.362	334.84
507.795	295.05
508.227	313.78
508.66	290.37
509.092	311.44
509.524	266.97
509.956	273.99
510.389	255.26
510.821	309.1
511.253	339.52
511.685	222.5
512.117	273.99
512.549	348.89
512.981	313.78
513.412	362.93
513.844	332.5
514.276	339.52
514.707	320.8
515.139	414.42
515.571	299.73
516.002	292.71
516.433	311.44
516.865	259.95
517.296	348.89
517.727	327.82
518.159	316.12
518.59	306.76
519.021	318.46
519.452	236.54
519.883	327.82
520.314	295.05
520.744	346.55
521.175	313.78
521.606	302.08
522.037	318.46
522.467	292.71
522.898	351.23
523.328	297.39
523.759	316.12
524.189	341.86
524.62	316.12
525.05	273.99
525.48	271.65
525.91	318.46
526.341	316.12
526.771	309.1
527.201	283.35
527.631	337.18
528.061	351.23
528.49	299.73
528.92	229.52
529.35	344.21
529.78	266.97
530.209	283.35
530.639	295.05
531.068	316.12
531.498	299.73
531.927	288.03
532.357	316.12
532.786	316.12
533.215	351.23
533.644	290.37
534.074	299.73
534.503	360.59
534.932	304.42
535.361	334.84
535.79	360.59
536.218	318.46
536.647	283.35
537.076	297.39
537.505	266.97
537.933	311.44
538.362	360.59
538.79	339.52
539.219	323.14
539.647	297.39
540.076	339.52
540.504	348.89
540.932	376.97
541.36	358.25
541.788	318.46
542.217	344.21
542.645	302.08
543.073	362.93
543.5	306.76
543.928	290.37
544.356	285.69
544.784	288.03
545.211	327.82
545.639	257.61
546.067	295.05
546.494	339.52
546.922	351.23
547.349	309.1
547.776	283.35
548.204	278.67
548.631	334.84
549.058	330.16
549.485	206.11
549.912	288.03
550.339	313.78
550.766	365.27
551.193	348.89
551.62	304.42
552.047	318.46
552.474	297.39
552.9	337.18
553.327	320.8
553.754	330.16
554.18	309.1
554.607	383.99
555.033	327.82
555.459	292.71
555.886	292.71
556.312	374.63
556.738	351.23
557.164	327.82
557.59	292.71
558.016	344.21
558.442	271.65
558.868	316.12
559.294	318.46
559.72	316.12
560.145	299.73
560.571	360.59
560.997	318.46
561.422	337.18
561.848	266.97
562.273	304.42
562.699	273.99
563.124	332.5
563.549	309.1
563.974	320.8
564.4	311.44
564.825	330.16
565.25	339.52
565.675	355.91
566.1	306.76
566.525	264.63
566.95	311.44
567.374	311.44
567.799	290.37
568.224	332.5
568.648	325.48
569.073	297.39
569.497	269.31
569.922	360.59
570.346	372.29
570.771	327.82
571.195	355.91
571.619	351.23
572.043	320.8
572.467	318.46
572.891	323.14
573.315	318.46
573.739	316.12
574.163	330.16
574.587	318.46
575.011	292.71
575.435	323.14
575.858	355.91
576.282	273.99
576.705	295.05
577.129	330.16
577.552	372.29
577.976	332.5
578.399	306.76
578.822	292.71
579.245	273.99
579.669	281.01
580.092	269.31
580.515	323.14
580.938	302.08
581.361	330.16
581.784	355.91
582.206	346.55
582.629	302.08
583.052	353.57
583.474	325.48
583.897	243.56
584.32	295.05
584.742	306.76
585.165	365.27
585.587	309.1
586.009	299.73
586.431	283.35
586.854	341.86
587.276	374.63
587.698	313.78
588.12	266.97
588.542	269.31
588.964	316.12
589.386	313.78
589.807	297.39
590.229	283.35
590.651	332.5
591.073	341.86
591.494	302.08
591.916	299.73
592.337	316.12
592.759	372.29
593.18	358.25
593.601	339.52
594.022	299.73
594.444	355.91
594.865	323.14
595.286	306.76
595.707	273.99
596.128	351.23
596.549	252.92
596.97	353.57
597.39	346.55
597.811	316.12
598.232	292.71
598.652	299.73
599.073	327.82
599.494	351.23
599.914	281.01
600.334	423.78
600.755	299.73
601.175	295.05
601.595	348.89
602.015	332.5
602.436	320.8
602.856	398.04
603.276	353.57
603.696	339.52
604.115	288.03
604.535	344.21
604.955	320.8
605.375	318.46
605.794	269.31
606.214	276.33
606.634	388.68
607.053	325.48
607.473	379.31
607.892	337.18
608.311	334.84
608.731	288.03
609.15	365.27
609.569	320.8
609.988	295.05
610.407	332.5
610.826	318.46
611.245	379.31
611.664	334.84
612.083	344.21
612.501	273.99
612.92	252.92
613.339	339.52
613.757	374.63
614.176	327.82
614.594	381.65
615.013	318.46
615.431	316.12
615.85	332.5
616.268	299.73
616.686	337.18
617.104	332.5
617.522	355.91
617.94	367.61
618.358	309.1
618.776	295.05
619.194	264.63
619.612	323.14
620.03	283.35
620.447	262.29
620.865	292.71
621.282	288.03
621.7	325.48
622.117	278.67
622.535	351.23
622.952	311.44
623.369	290.37
623.787	285.69
624.204	309.1
624.621	278.67
625.038	330.16
625.455	290.37
625.872	278.67
626.289	281.01
626.706	374.63
627.123	302.08
627.539	313.78
627.956	285.69
628.373	262.29
628.789	266.97
629.206	353.57
629.622	264.63
630.038	334.84
630.455	341.86
630.871	250.58
631.287	285.69
631.703	292.71
632.12	276.33
632.536	409.74
632.952	318.46
633.368	311.44
633.783	297.39
634.199	372.29
634.615	346.55
635.031	383.99
635.446	320.8
635.862	309.1
636.277	295.05
636.693	351.23
637.108	332.5
637.524	358.25
637.939	327.82
638.354	320.8
638.77	320.8
639.185	358.25
639.6	311.44
640.015	266.97
640.43	302.08
640.845	269.31
641.259	339.52
641.674	376.97
642.089	255.26
642.504	316.12
642.918	271.65
643.333	353.57
643.747	283.35
644.162	344.21
644.576	313.78
644.991	299.73
645.405	360.59
645.819	381.65
646.233	295.05
646.647	372.29
647.061	295.05
647.475	353.57
647.889	309.1
648.303	273.99
648.717	318.46
649.131	316.12
649.545	271.65
649.958	313.78
650.372	325.48
650.785	346.55
651.199	313.78
651.612	276.33
652.026	302.08
652.439	248.24
652.852	304.42
653.266	278.67
653.679	302.08
654.092	330.16
654.505	292.71
654.918	302.08
655.331	276.33
655.744	348.89
656.156	311.44
656.569	395.7
656.982	288.03
657.394	344.21
657.807	259.95
658.22	306.76
658.632	283.35
659.044	257.61
659.457	318.46
659.869	337.18
660.281	327.82
660.693	330.16
661.106	302.08
661.518	327.82
661.93	299.73
662.342	266.97
662.754	325.48
663.165	344.21
663.577	323.14
663.989	318.46
664.401	334.84
664.812	346.55
665.224	374.63
665.635	353.57
666.047	295.05
666.458	266.97
666.869	332.5
667.281	299.73
667.692	323.14
668.103	311.44
668.514	334.84
668.925	320.8
669.336	285.69
669.747	320.8
670.158	330.16
670.569	365.27
670.979	348.89
671.39	325.48
671.801	259.95
672.211	278.67
672.622	309.1
673.032	259.95
673.443	271.65
673.853	266.97
674.263	299.73
674.674	309.1
675.084	229.52
675.494	257.61
675.904	255.26
676.314	323.14
676.724	374.63
677.134	222.5
677.544	362.93
677.953	297.39
678.363	344.21
678.773	323.14
679.182	290.37
679.592	285.69
680.001	355.91
680.411	285.69
680.82	297.39
681.23	332.5
681.639	334.84
682.048	365.27
682.457	334.84
682.866	285.69
683.275	222.5
683.684	365.27
684.093	337.18
684.502	276.33
684.911	320.8
685.32	290.37
685.728	238.88
686.137	323.14
686.546	311.44
686.954	306.76
687.363	271.65
687.771	330.16
688.179	334.84
688.588	273.99
688.996	313.78
689.404	285.69
689.812	339.52
690.22	323.14
690.628	339.52
691.036	316.12
691.444	339.52
691.852	292.71
692.26	372.29
692.667	334.84
693.075	276.33
693.483	283.35
693.89	273.99
694.298	346.55
694.705	309.1
695.112	306.76
695.52	320.8
695.927	311.44
696.334	304.42
696.741	318.46
697.148	337.18
697.555	311.44
697.962	306.76
698.369	367.61
698.776	262.29
699.183	327.82
699.59	269.31
699.996	285.69
700.403	316.12
700.81	281.01
701.216	271.65
701.623	295.05
702.029	288.03
702.435	313.78
702.842	266.97
703.248	285.69
703.654	311.44
704.06	360.59
704.466	264.63
704.872	311.44
705.278	339.52
705.684	311.44
706.09	348.89
706.496	334.84
706.901	344.21
707.307	255.26
707.712	292.71
708.118	362.93
708.523	304.42
708.929	295.05
709.334	353.57
709.74	316.12
710.145	323.14
710.55	330.16
710.955	344.21
711.36	276.33
711.765	318.46
712.17	358.25
712.575	400.38
712.98	880.19
713.385	344.21
713.789	281.01
714.194	362.93
714.599	393.36
715.003	327.82
715.408	351.23
715.812	295.05
716.217	355.91
716.621	248.24
717.025	206.11
717.429	334.84
717.833	306.76
718.238	309.1
718.642	292.71
719.046	309.1
719.449	238.88
719.853	299.73
720.257	318.46
720.661	348.89
721.065	257.61
721.468	292.71
721.872	299.73
722.275	351.23
722.679	250.58
723.082	325.48
723.485	316.12
723.889	290.37
724.292	292.71
724.695	285.69
725.098	355.91
725.501	271.65
725.904	341.86
726.307	344.21
726.71	320.8
727.113	337.18
727.516	323.14
727.918	325.48
728.321	266.97
728.724	302.08
729.126	327.82
729.529	259.95
729.931	313.78
730.333	320.8
730.736	255.26
731.138	290.37
731.54	276.33
731.942	325.48
732.344	283.35
732.746	344.21
733.148	295.05
733.55	273.99
733.952	318.46
734.354	283.35
734.756	262.29
735.157	362.93
735.559	283.35
735.96	332.5
736.362	320.8
736.763	360.59
737.165	304.42
737.566	316.12
737.967	278.67
738.368	283.35
738.77	259.95
739.171	339.52
739.572	332.5
739.973	257.61
740.374	316.12
740.774	341.86
741.175	292.71
741.576	339.52
741.977	273.99
742.377	299.73
742.778	269.31
743.178	259.95
743.579	283.35
743.979	288.03
744.379	234.2
744.78	332.5
745.18	323.14
745.58	297.39
745.98	299.73
746.38	295.05
746.78	255.26
747.18	325.48
747.58	309.1
747.98	304.42
748.38	297.39
748.779	292.71
749.179	266.97
749.578	262.29
749.978	297.39
750.377	266.97
750.777	344.21
751.176	302.08
751.575	313.78
751.975	313.78
752.374	302.08
752.773	224.84
753.172	259.95
753.571	353.57
753.97	367.61
754.369	269.31
754.768	238.88
755.166	309.1
755.565	313.78
755.964	362.93
756.362	351.23
756.761	259.95
757.159	318.46
757.558	302.08
757.956	290.37
758.354	306.76
758.753	341.86
759.151	290.37
759.549	288.03
759.947	341.86
760.345	243.56
760.743	227.18
761.141	281.01
761.539	285.69
761.936	292.71
762.334	313.78
762.732	330.16
763.129	281.01
763.527	311.44
763.924	358.25
764.322	376.97
764.719	376.97
765.117	276.33
765.514	311.44
765.911	316.12
766.308	259.95
766.705	372.29
767.102	316.12
767.499	334.84
767.896	299.73
768.293	337.18
768.69	327.82
769.086	346.55
769.483	266.97
769.88	285.69
770.276	285.69
770.673	318.46
771.069	341.86
771.466	316.12
771.862	339.52
772.258	306.76
772.654	299.73
773.05	227.18
773.447	271.65
773.843	344.21
774.239	281.01
774.634	313.78
775.03	320.8
775.426	332.5
775.822	299.73
776.218	327.82
776.613	269.31
777.009	372.29
777.404	334.84
777.8	327.82
778.195	351.23
778.59	313.78
778.986	295.05
779.381	285.69
779.776	299.73
780.171	255.26
780.566	292.71
780.961	292.71
781.356	400.38
781.751	365.27
782.146	306.76
782.54	325.48
782.935	292.71
783.33	351.23
783.724	276.33
784.119	313.78
784.513	313.78
784.908	283.35
785.302	227.18
785.696	372.29
786.09	269.31
786.485	269.31
786.879	302.08
787.273	339.52
787.667	323.14
788.061	281.01
788.454	332.5
788.848	278.67
789.242	297.39
789.636	236.54
790.029	285.69
790.423	208.45
790.816	304.42
791.21	290.37
791.603	320.8
791.997	273.99
792.39	348.89
792.783	297.39
793.176	309.1
793.569	316.12
793.962	297.39
794.355	292.71
794.748	369.95
795.141	304.42
795.534	332.5
795.927	285.69
796.319	311.44
796.712	292.71
797.105	288.03
797.497	358.25
797.89	259.95
798.282	297.39
798.674	255.26
799.067	304.42
799.459	259.95
799.851	295.05
800.243	327.82
800.635	278.67
801.027	320.8
801.419	369.95
801.811	283.35
802.203	295.05
802.594	327.82
802.986	292.71
803.378	264.63
803.769	283.35
804.161	297.39
804.552	346.55
804.944	325.48
805.335	316.12
805.726	320.8
806.118	290.37
806.509	266.97
806.9	365.27
807.291	281.01
807.682	264.63
808.073	309.1
808.464	241.22
808.855	360.59
809.245	374.63
809.636	306.76
810.027	266.97
810.417	304.42
810.808	344.21
811.198	248.24
811.589	346.55
811.979	297.39
812.369	283.35
812.759	341.86
813.15	311.44
813.54	276.33
813.93	252.92
814.32	330.16
814.71	222.5
815.1	264.63
815.489	311.44
815.879	290.37
816.269	288.03
816.658	262.29
817.048	269.31
817.438	325.48
817.827	290.37
818.216	337.18
818.606	327.82
818.995	323.14
819.384	290.37
819.773	252.92
820.163	266.97
820.552	290.37
820.941	269.31
821.33	332.5
821.718	285.69
822.107	241.22
822.496	276.33
822.885	234.2
823.273	348.89
823.662	330.16
824.05	252.92
824.439	278.67
824.827	313.78
825.216	330.16
825.604	278.67
825.992	374.63
826.38	318.46
826.768	278.67
827.156	353.57
827.544	304.42
827.932	327.82
828.32	299.73
828.708	281.01
829.096	299.73
829.483	288.03
829.871	318.46
830.259	323.14
830.646	271.65
831.034	281.01
831.421	323.14
831.808	341.86
832.196	278.67
832.583	290.37
832.97	332.5
833.357	306.76
833.744	273.99
834.131	327.82
834.518	266.97
834.905	330.16
835.292	383.99
835.678	325.48
836.065	341.86
836.452	306.76
836.838	306.76
837.225	266.97
837.611	309.1
837.998	334.84
838.384	299.73
838.77	285.69
839.157	316.12
839.543	271.65
839.929	281.01
840.315	332.5
840.701	325.48
841.087	304.42
841.473	327.82
841.858	271.65
842.244	320.8
842.63	332.5
843.015	292.71
843.401	580.6
843.787	365.27
844.172	302.08
844.557	325.48
844.943	269.31
845.328	262.29
845.713	327.82
846.098	372.29
846.483	327.82
846.868	266.97
847.253	360.59
847.638	290.37
848.023	271.65
848.408	360.59
848.793	339.52
849.177	297.39
849.562	341.86
849.947	332.5
850.331	316.12
850.715	297.39
851.1	257.61
851.484	273.99
851.868	292.71
852.253	295.05
852.637	281.01
853.021	288.03
853.405	316.12
853.789	292.71
854.173	269.31
854.557	252.92
854.94	243.56
855.324	295.05
855.708	339.52
856.091	355.91
856.475	332.5
856.858	346.55
857.242	292.71
857.625	297.39
858.009	299.73
858.392	278.67
858.775	346.55
859.158	311.44
859.541	337.18
859.924	295.05
860.307	304.42
860.69	243.56
861.073	358.25
861.456	285.69
861.838	320.8
862.221	227.18
862.604	318.46
862.986	344.21
863.369	283.35
863.751	245.9
864.133	255.26
864.516	318.46
864.898	337.18
865.28	311.44
865.662	302.08
866.044	273.99
866.426	299.73
866.808	248.24
867.19	362.93
867.572	311.44
867.954	344.21
868.336	276.33
868.717	334.84
869.099	318.46
869.48	288.03
869.862	262.29
870.243	273.99
870.625	281.01
871.006	266.97
871.387	266.97
871.768	337.18
872.149	292.71
872.53	257.61
872.911	283.35
873.292	302.08
873.673	281.01
874.054	264.63
874.435	311.44
874.815	320.8
875.196	306.76
875.577	276.33
875.957	311.44
876.338	302.08
876.718	320.8
877.098	313.78
877.479	381.65
877.859	264.63
878.239	288.03
878.619	273.99
878.999	306.76
879.379	257.61
879.759	325.48
880.139	290.37
880.519	325.48
880.898	299.73
881.278	302.08
881.658	327.82
882.037	304.42
882.417	299.73
882.796	309.1
883.176	264.63
883.555	379.31
883.934	334.84
884.313	393.36
884.693	341.86
885.072	288.03
885.451	344.21
885.83	295.05
886.209	346.55
886.587	302.08
886.966	295.05
887.345	323.14
887.724	367.61
888.102	257.61
888.481	278.67
888.859	339.52
889.238	306.76
889.616	330.16
889.994	250.58
890.373	341.86
890.751	283.35
891.129	262.29
891.507	213.14
891.885	304.42
892.263	250.58
892.641	283.35
893.019	327.82
893.396	327.82
893.774	306.76
894.152	252.92
894.529	306.76
894.907	369.95
895.284	271.65
895.662	276.33
896.039	281.01
896.416	318.46
896.794	330.16
897.171	402.72
897.548	283.35
897.925	323.14
898.302	313.78
898.679	245.9
899.056	271.65
899.433	278.67
899.809	339.52
900.186	316.12
900.563	278.67
900.939	323.14
901.316	304.42
901.692	325.48
902.069	341.86
902.445	299.73
902.821	353.57
903.197	339.52
903.574	309.1
903.95	311.44
904.326	323.14
904.702	290.37
905.078	306.76
905.454	337.18
905.829	320.8
906.205	297.39
906.581	285.69
906.956	243.56
907.332	360.59
907.707	264.63
908.083	252.92
908.458	278.67
908.833	327.82
909.209	297.39
909.584	405.06
909.959	271.65
910.334	327.82
910.709	295.05
911.084	309.1
911.459	325.48
911.834	337.18
912.209	332.5
912.583	325.48
912.958	252.92
913.333	276.33
913.707	332.5
914.082	311.44
914.456	318.46
914.83	360.59
915.205	320.8
915.579	273.99
915.953	297.39
916.327	337.18
916.701	358.25
917.075	395.7
917.449	259.95
917.823	332.5
918.197	262.29
918.571	316.12
918.944	278.67
919.318	318.46
919.692	344.21
920.065	323.14
920.438	276.33
920.812	365.27
921.185	318.46
921.558	252.92
921.932	255.26
922.305	311.44
922.678	388.68
923.051	281.01
923.424	290.37
923.797	292.71
924.17	264.63
924.542	330.16
924.915	355.91
925.288	388.68
925.661	269.31
926.033	306.76
926.406	330.16
926.778	271.65
927.15	302.08
927.523	281.01
927.895	337.18
928.267	311.44
928.639	285.69
929.011	353.57
929.383	304.42
929.755	295.05
930.127	302.08
930.499	273.99
930.871	285.69
931.242	358.25
931.614	273.99
931.986	259.95
932.357	255.26
932.729	330.16
933.1	264.63
933.471	334.84
933.843	323.14
934.214	278.67
934.585	362.93
934.956	306.76
935.327	276.33
935.698	217.82
936.069	281.01
936.44	234.2
936.811	304.42
937.182	334.84
937.552	269.31
937.923	281.01
938.293	323.14
938.664	316.12
939.034	252.92
939.405	234.2
939.775	309.1
940.145	273.99
940.516	299.73
940.886	271.65
941.256	351.23
941.626	341.86
941.996	325.48
942.366	304.42
942.735	252.92
943.105	311.44
943.475	311.44
943.845	323.14
944.214	278.67
944.584	285.69
944.953	297.39
945.323	269.31
945.692	241.22
946.061	285.69
946.43	348.89
946.8	309.1
947.169	355.91
947.538	285.69
947.907	278.67
948.276	255.26
948.645	318.46
949.013	346.55
949.382	250.58
949.751	257.61
950.119	353.57
950.488	327.82
950.857	332.5
951.225	323.14
951.593	297.39
951.962	313.78
952.33	313.78
952.698	288.03
953.066	292.71
953.434	309.1
953.802	255.26
954.17	283.35
954.538	285.69
954.906	372.29
955.274	238.88
955.642	334.84
956.009	344.21
956.377	367.61
956.744	285.69
957.112	250.58
957.479	313.78
957.847	304.42
958.214	306.76
958.581	344.21
958.948	290.37
959.315	348.89
959.683	297.39
960.05	299.73
960.416	327.82
960.783	262.29
961.15	316.12
961.517	295.05
961.884	341.86
962.25	243.56
962.617	285.69
962.983	257.61
963.35	306.76
963.716	348.89
964.082	327.82
964.449	334.84
964.815	245.9
965.181	224.84
965.547	306.76
965.913	337.18
966.279	252.92
966.645	273.99
967.011	323.14
967.377	248.24
967.742	243.56
968.108	290.37
968.474	339.52
968.839	372.29
969.205	334.84
969.57	313.78
969.935	276.33
970.301	316.12
970.666	271.65
971.031	290.37
971.396	241.22
971.761	325.48
972.126	360.59
972.491	252.92
972.856	355.91
973.221	318.46
973.586	318.46
973.95	339.52
974.315	290.37
974.679	304.42
975.044	229.52
975.408	313.78
975.773	348.89
976.137	266.97
976.501	269.31
976.866	334.84
977.23	269.31
977.594	278.67
977.958	273.99
978.322	299.73
978.686	304.42
979.049	323.14
979.413	262.29
979.777	297.39
980.141	313.78
980.504	222.5
980.868	278.67
981.231	276.33
981.595	271.65
981.958	330.16
982.321	262.29
982.684	248.24
983.048	203.77
983.411	313.78
983.774	288.03
984.137	309.1
984.5	255.26
984.862	266.97
985.225	283.35
985.588	355.91
985.951	266.97
986.313	259.95
986.676	283.35
987.038	353.57
987.401	309.1
987.763	283.35
988.125	281.01
988.488	259.95
988.85	281.01
989.212	337.18
989.574	288.03
989.936	313.78
990.298	313.78
990.66	332.5
991.022	304.42
991.383	351.23
991.745	302.08
992.107	344.21
992.468	288.03
992.83	330.16
993.191	330.16
993.553	320.8
993.914	309.1
994.275	304.42
994.637	273.99
994.998	302.08
995.359	306.76
995.72	299.73
996.081	297.39
996.442	259.95
996.803	302.08
997.163	281.01
997.524	196.75
997.885	295.05
998.245	313.78
998.606	339.52
998.966	290.37
999.327	215.48
999.687	353.57
1000.047	273.99
1000.408	273.99
1000.768	318.46
1001.128	248.24
1001.488	304.42
1001.848	311.44
1002.208	241.22
1002.568	290.37
1002.927	227.18
1003.287	273.99
1003.647	320.8
1004.007	313.78
1004.366	234.2
1004.726	273.99
1005.085	325.48
1005.444	306.76
1005.804	306.76
1006.163	323.14
1006.522	292.71
1006.881	313.78
1007.24	323.14
1007.599	276.33
1007.958	236.54
1008.317	255.26
1008.676	269.31
1009.035	325.48
1009.393	316.12
1009.752	255.26
1010.111	292.71
1010.469	257.61
1010.828	318.46
1011.186	266.97
1011.544	283.35
1011.903	297.39
1012.261	386.33
1012.619	187.39
1012.977	292.71
1013.335	316.12
1013.693	332.5
1014.051	311.44
1014.409	351.23
1014.767	311.44
1015.124	327.82
1015.482	316.12
1015.84	334.84
1016.197	241.22
1016.555	311.44
1016.912	229.52
1017.269	341.86
1017.627	313.78
1017.984	341.86
1018.341	217.82
1018.698	320.8
1019.055	259.95
1019.412	306.76
1019.769	372.29
1020.126	344.21
1020.483	358.25
1020.84	341.86
1021.196	369.95
1021.553	304.42
1021.909	299.73
1022.266	311.44
1022.622	334.84
1022.979	320.8
1023.335	302.08
1023.691	295.05
1024.047	316.12
1024.404	285.69
1024.76	320.8
1025.116	339.52
1025.472	334.84
1025.827	290.37
1026.183	344.21
1026.539	250.58
1026.895	273.99
1027.25	351.23
1027.606	295.05
1027.961	299.73
1028.317	304.42
1028.672	245.9
1029.028	236.54
1029.383	316.12
1029.738	313.78
1030.093	297.39
1030.448	302.08
1030.803	199.09
1031.158	252.92
1031.513	292.71
1031.868	313.78
1032.223	325.48
1032.577	288.03
1032.932	323.14
1033.287	320.8
1033.641	358.25
1033.996	295.05
1034.35	290.37
1034.704	339.52
1035.059	302.08
1035.413	320.8
1035.767	320.8
1036.121	320.8
