Data from Al_FLMS009871__1285__16-49-39-366.txt Node

Date: Fri Mar 08 16:49:39 CST 2024
User: pe5414po
Spectrometer: FLMS00987
Trigger mode: 0
Integration Time (sec): 1.000000E-1
Scans to average: 1
Electric dark correction enabled: true
Nonlinearity correction enabled: false
Boxcar width: 0
XAxis mode: Wavelengths
Number of Pixels in Spectrum: 2048
>>>>>Begin Spectral Data<<<<<
188.938	-51.05
189.409	-51.05
189.879	-51.05
190.349	-104.89
190.819	-44.03
191.29	-125.95
191.76	-137.65
192.23	-93.18
192.7	-72.12
193.17	-102.54
193.64	-41.69
194.109	-27.65
194.579	30.87
195.049	-8.92
195.519	-1.9
195.988	42.57
196.458	68.31
196.927	51.93
197.397	147.89
197.866	138.53
198.336	131.51
198.805	98.74
199.274	183
199.744	190.02
200.213	278.96
200.682	307.05
201.151	384.29
201.62	370.24
202.089	374.92
202.558	438.12
203.027	442.8
203.495	503.65
203.964	487.27
204.433	475.57
204.902	438.12
205.37	543.44
205.839	527.06
206.307	452.16
206.776	531.74
207.244	587.91
207.712	653.45
208.181	562.17
208.649	571.53
209.117	644.09
209.585	672.17
210.053	728.35
210.521	681.53
210.989	840.69
211.457	850.05
211.925	962.4
212.393	1032.62
212.861	1060.7
213.328	967.08
213.796	789.2
214.264	779.84
214.731	665.15
215.199	679.19
215.666	679.19
216.133	768.13
216.601	936.65
217.068	1070.06
217.535	1198.79
218.003	1357.95
218.47	1594.34
218.937	1453.91
219.404	1222.2
219.871	1238.58
220.338	1313.48
220.805	1240.92
221.271	1166.03
221.738	931.97
222.205	988.14
222.671	1030.27
223.138	1123.9
223.605	1301.78
224.071	1325.18
224.538	1156.66
225.004	924.95
225.47	1107.51
225.937	1350.93
226.403	1409.44
226.869	1105.17
227.335	798.56
227.801	679.19
228.267	641.75
228.733	641.75
229.199	522.38
229.665	534.08
230.131	473.23
230.597	520.04
231.062	707.28
231.528	639.41
231.994	630.04
232.459	594.93
232.925	552.81
233.39	524.72
233.856	571.53
234.321	618.34
234.786	758.77
235.252	1126.24
235.717	1856.48
236.182	2736.53
236.647	3087.61
237.112	2497.79
237.577	1634.13
238.042	894.52
238.507	637.06
238.972	704.94
239.436	653.45
239.901	618.34
240.366	641.75
240.83	569.19
241.295	515.36
241.76	508.34
242.224	536.42
242.688	454.5
243.153	550.46
243.617	466.21
244.081	496.63
244.545	520.04
245.01	520.04
245.474	531.74
245.938	550.46
246.402	634.72
246.866	646.43
247.33	608.98
247.793	611.32
248.257	513.02
248.721	564.51
249.185	489.61
249.648	587.91
250.112	623.02
250.575	704.94
251.039	557.49
251.502	623.02
251.965	592.59
252.429	599.62
252.892	618.34
253.355	646.43
253.818	524.72
254.281	646.43
254.744	747.07
255.207	803.24
255.67	1163.69
256.133	1702.01
256.596	2338.63
257.059	2577.37
257.522	2156.07
257.984	1395.4
258.447	1126.24
258.909	1159
259.372	1315.82
259.834	1250.28
260.297	1173.05
260.759	1025.59
261.221	971.76
261.684	1212.84
262.146	1727.75
262.608	2275.44
263.07	2116.28
263.532	1496.04
263.994	1053.68
264.456	1016.23
264.918	1182.41
265.38	1144.96
265.842	1140.28
266.303	913.25
266.765	754.09
267.227	632.38
267.688	543.44
268.15	508.34
268.611	538.76
269.072	552.81
269.534	627.7
269.995	667.49
270.456	711.96
270.918	641.75
271.379	616
271.84	601.96
272.301	585.57
272.762	555.15
273.223	599.62
273.684	690.9
274.144	749.41
274.605	768.13
275.066	721.32
275.527	704.94
275.987	700.26
276.448	751.75
276.908	817.29
277.369	1102.83
277.829	1601.37
278.289	3288.89
278.75	5716.03
279.21	7991.03
279.67	8227.42
280.13	6106.9
280.59	4049.57
281.05	3511.24
281.51	3005.69
281.97	2104.58
282.43	969.42
282.89	674.51
283.35	550.46
283.809	728.35
284.269	775.16
284.729	960.06
285.188	920.27
285.648	737.71
286.107	648.77
286.567	513.02
287.026	529.4
287.485	641.75
287.944	625.36
288.404	576.21
288.863	690.9
289.322	693.24
289.781	646.43
290.24	573.87
290.699	688.56
291.158	648.77
291.616	700.26
292.075	775.16
292.534	964.74
292.992	1156.66
293.451	1250.28
293.91	1018.57
294.368	892.18
294.827	747.07
295.285	627.7
295.743	538.76
296.202	573.87
296.66	505.99
297.118	550.46
297.576	480.25
298.034	407.69
298.492	426.42
298.95	419.39
299.408	498.97
299.866	468.55
300.324	477.91
300.781	477.91
301.239	475.57
301.697	487.27
302.154	428.76
302.612	559.83
303.069	513.02
303.527	522.38
303.984	555.15
304.441	639.41
304.899	784.52
305.356	901.55
305.813	892.18
306.27	964.74
306.727	1222.2
307.184	1739.46
307.641	3263.15
308.098	4887.48
308.555	6270.73
309.012	6450.96
309.468	5507.72
309.925	2762.27
310.382	1023.25
310.838	634.72
311.295	583.23
311.751	548.12
312.208	555.15
312.664	529.4
313.12	536.42
313.577	463.86
314.033	449.82
314.489	459.18
314.945	548.12
315.401	520.04
315.857	548.12
316.313	517.7
316.769	414.71
317.225	449.82
317.681	421.74
318.136	421.74
318.592	407.69
319.048	421.74
319.503	363.22
319.959	386.63
320.414	381.95
320.869	393.65
321.325	428.76
321.78	358.54
322.235	384.29
322.691	442.8
323.146	461.52
323.601	452.16
324.056	599.62
324.511	821.97
324.966	828.99
325.421	740.05
325.875	552.81
326.33	536.42
326.785	536.42
327.24	786.86
327.694	803.24
328.149	644.09
328.603	477.91
329.058	482.59
329.512	442.8
329.966	395.99
330.421	452.16
330.875	470.89
331.329	412.37
331.783	459.18
332.237	491.95
332.691	562.17
333.145	482.59
333.599	541.1
334.053	513.02
334.507	505.99
334.96	489.61
335.414	510.68
335.868	592.59
336.321	620.68
336.775	569.19
337.228	604.3
337.682	534.08
338.135	459.18
338.588	426.42
339.042	466.21
339.495	421.74
339.948	484.93
340.401	498.97
340.854	379.61
341.307	372.58
341.76	419.39
342.213	442.8
342.666	351.52
343.119	487.27
343.571	513.02
344.024	498.97
344.477	487.27
344.929	505.99
345.382	456.84
345.834	475.57
346.287	501.31
346.739	466.21
347.191	433.44
347.644	541.1
348.096	508.34
348.548	473.23
349	498.97
349.452	529.4
349.904	484.93
350.356	496.63
350.808	487.27
351.26	454.5
351.711	487.27
352.163	480.25
352.615	484.93
353.066	555.15
353.518	487.27
353.969	517.7
354.421	557.49
354.872	517.7
355.324	534.08
355.775	573.87
356.226	665.15
356.677	772.82
357.128	1039.64
357.579	1561.58
358.03	2640.56
358.481	4487.25
358.932	5271.33
359.383	3888.07
359.834	2759.93
360.285	2750.57
360.735	2425.23
361.186	1889.25
361.637	1549.87
362.087	924.95
362.538	578.55
362.988	531.74
363.438	587.91
363.889	440.46
364.339	536.42
364.789	475.57
365.239	503.65
365.689	555.15
366.139	494.29
366.589	487.27
367.039	475.57
367.489	536.42
367.939	412.37
368.389	494.29
368.839	461.52
369.288	494.29
369.738	562.17
370.187	667.49
370.637	793.88
371.086	866.44
371.536	775.16
371.985	779.84
372.434	688.56
372.884	541.1
373.333	510.68
373.782	648.77
374.231	552.81
374.68	538.76
375.129	527.06
375.578	454.5
376.027	520.04
376.475	452.16
376.924	421.74
377.373	403.01
377.822	482.59
378.27	435.78
378.719	445.14
379.167	489.61
379.616	498.97
380.064	463.86
380.512	510.68
380.961	496.63
381.409	459.18
381.857	468.55
382.305	594.93
382.753	735.37
383.201	873.46
383.649	948.36
384.097	901.55
384.545	772.82
384.992	566.85
385.44	524.72
385.888	454.5
386.335	445.14
386.783	449.82
387.231	449.82
387.678	489.61
388.125	440.46
388.573	562.17
389.02	442.8
389.467	480.25
389.914	482.59
390.362	555.15
390.809	578.55
391.256	505.99
391.703	543.44
392.15	562.17
392.596	655.79
393.043	990.49
393.49	1510.08
393.937	2764.61
394.383	4637.04
394.83	5666.88
395.276	4239.15
395.723	4133.82
396.169	6455.64
396.616	6539.9
397.062	3661.04
397.508	1407.1
397.954	726
398.401	566.85
398.847	538.76
399.293	531.74
399.739	646.43
400.185	651.11
400.631	524.72
401.076	468.55
401.522	484.93
401.968	517.7
402.414	548.12
402.859	555.15
403.305	559.83
403.75	616
404.196	665.15
404.641	613.66
405.086	599.62
405.532	498.97
405.977	517.7
406.422	550.46
406.867	562.17
407.312	555.15
407.757	510.68
408.202	562.17
408.647	536.42
409.092	513.02
409.537	599.62
409.982	566.85
410.426	601.96
410.871	585.57
411.316	616
411.76	597.28
412.205	618.34
412.649	618.34
413.093	627.7
413.538	634.72
413.982	616
414.426	690.9
414.87	695.58
415.314	840.69
415.758	798.56
416.202	751.75
416.646	718.98
417.09	688.56
417.534	728.35
417.978	613.66
418.421	548.12
418.865	625.36
419.309	604.3
419.752	536.42
420.196	552.81
420.639	477.91
421.083	466.21
421.526	477.91
421.969	459.18
422.412	442.8
422.856	517.7
423.299	536.42
423.742	527.06
424.185	545.78
424.628	543.44
425.071	482.59
425.513	534.08
425.956	417.05
426.399	538.76
426.842	498.97
427.284	534.08
427.727	513.02
428.169	463.86
428.612	473.23
429.054	463.86
429.497	405.35
429.939	414.71
430.381	505.99
430.823	487.27
431.265	482.59
431.707	454.5
432.149	496.63
432.591	513.02
433.033	503.65
433.475	454.5
433.917	557.49
434.359	456.84
434.8	498.97
435.242	522.38
435.684	496.63
436.125	463.86
436.567	531.74
437.008	487.27
437.449	494.29
437.891	480.25
438.332	468.55
438.773	456.84
439.214	508.34
439.656	480.25
440.097	449.82
440.538	475.57
440.978	470.89
441.419	515.36
441.86	566.85
442.301	541.1
442.742	550.46
443.182	534.08
443.623	559.83
444.063	557.49
444.504	601.96
444.944	690.9
445.385	695.58
445.825	742.39
446.265	800.9
446.706	847.71
447.146	1046.66
447.586	1170.71
448.026	1390.72
448.466	1568.6
448.906	1474.98
449.346	1093.47
449.786	901.55
450.225	936.65
450.665	913.25
451.105	1128.58
451.544	1336.88
451.984	1498.38
452.424	1510.08
452.863	1582.64
453.302	1896.27
453.742	1917.34
454.181	1421.14
454.62	969.42
455.059	686.22
455.499	651.11
455.938	531.74
456.377	545.78
456.816	477.91
457.254	496.63
457.693	491.95
458.132	513.02
458.571	459.18
459.01	466.21
459.448	508.34
459.887	403.01
460.325	475.57
460.764	545.78
461.202	527.06
461.641	468.55
462.079	564.51
462.517	555.15
462.955	505.99
463.393	524.72
463.832	555.15
464.27	538.76
464.708	637.06
465.145	597.28
465.583	634.72
466.021	623.02
466.459	852.39
466.897	1060.7
467.334	901.55
467.772	667.49
468.209	482.59
468.647	494.29
469.084	477.91
469.522	426.42
469.959	501.31
470.396	576.21
470.833	494.29
471.271	527.06
471.708	529.4
472.145	548.12
472.582	454.5
473.019	475.57
473.456	435.78
473.892	459.18
474.329	398.33
474.766	468.55
475.202	447.48
475.639	515.36
476.076	555.15
476.512	421.74
476.949	405.35
477.385	466.21
477.821	433.44
478.258	440.46
478.694	550.46
479.13	538.76
479.566	466.21
480.002	449.82
480.438	522.38
480.874	498.97
481.31	482.59
481.746	494.29
482.181	424.08
482.617	466.21
483.053	454.5
483.488	505.99
483.924	466.21
484.36	468.55
484.795	592.59
485.23	571.53
485.666	616
486.101	611.32
486.536	644.09
486.971	693.24
487.407	709.62
487.842	672.17
488.277	548.12
488.712	601.96
489.146	555.15
489.581	498.97
490.016	531.74
490.451	543.44
490.885	505.99
491.32	463.86
491.755	473.23
492.189	569.19
492.624	475.57
493.058	541.1
493.492	491.95
493.927	552.81
494.361	541.1
494.795	489.61
495.229	442.8
495.663	491.95
496.097	480.25
496.531	480.25
496.965	431.1
497.399	501.31
497.833	487.27
498.266	505.99
498.7	505.99
499.134	489.61
499.567	599.62
500.001	728.35
500.434	747.07
500.868	971.76
501.301	889.84
501.734	733.03
502.168	662.81
502.601	625.36
503.034	456.84
503.467	536.42
503.9	529.4
504.333	545.78
504.766	494.29
505.199	484.93
505.632	491.95
506.064	491.95
506.497	515.36
506.93	527.06
507.362	456.84
507.795	491.95
508.227	515.36
508.66	541.1
509.092	454.5
509.524	517.7
509.956	543.44
510.389	536.42
510.821	527.06
511.253	580.89
511.685	576.21
512.117	573.87
512.549	534.08
512.981	562.17
513.412	503.65
513.844	562.17
514.276	524.72
514.707	550.46
515.139	545.78
515.571	559.83
516.002	658.13
516.433	639.41
516.865	718.98
517.296	665.15
517.727	747.07
518.159	847.71
518.59	782.18
519.021	878.14
519.452	704.94
519.883	545.78
520.314	566.85
520.744	566.85
521.175	536.42
521.606	576.21
522.037	613.66
522.467	702.6
522.898	646.43
523.328	651.11
523.759	604.3
524.189	538.76
524.62	616
525.05	620.68
525.48	571.53
525.91	669.83
526.341	679.19
526.771	644.09
527.201	674.51
527.631	718.98
528.061	871.12
528.49	894.52
528.92	845.37
529.35	1350.93
529.78	2628.86
530.209	12435.71
530.639	29992.06
531.068	47667.79
531.498	63035.75
531.927	63035.75
532.357	63035.75
532.786	63035.75
533.215	63035.75
533.644	39489.96
534.074	14893.27
534.503	6275.42
534.932	2752.91
535.361	1617.75
535.79	1107.51
536.218	1032.62
536.647	740.05
537.076	587.91
537.505	658.13
537.933	608.98
538.362	608.98
538.79	569.19
539.219	503.65
539.647	557.49
540.076	452.16
540.504	484.93
540.932	433.44
541.36	513.02
541.788	468.55
542.217	501.31
542.645	442.8
543.073	463.86
543.5	475.57
543.928	456.84
544.356	463.86
544.784	445.14
545.211	407.69
545.639	466.21
546.067	555.15
546.494	562.17
546.922	454.5
547.349	463.86
547.776	395.99
548.204	449.82
548.631	395.99
549.058	477.91
549.485	421.74
549.912	417.05
550.339	470.89
550.766	449.82
551.193	461.52
551.62	498.97
552.047	477.91
552.474	374.92
552.9	494.29
553.327	468.55
553.754	388.97
554.18	438.12
554.607	494.29
555.033	475.57
555.459	461.52
555.886	403.01
556.312	456.84
556.738	433.44
557.164	428.76
557.59	468.55
558.016	414.71
558.442	503.65
558.868	463.86
559.294	536.42
559.72	690.9
560.145	754.09
560.571	770.48
560.997	604.3
561.422	454.5
561.848	391.31
562.273	468.55
562.699	445.14
563.124	468.55
563.549	435.78
563.974	395.99
564.4	438.12
564.825	403.01
565.25	470.89
565.675	445.14
566.1	463.86
566.525	461.52
566.95	470.89
567.374	576.21
567.799	632.38
568.224	683.88
568.648	735.37
569.073	744.73
569.497	922.61
569.922	1203.47
570.346	1664.56
570.771	1259.65
571.195	871.12
571.619	740.05
572.043	726
572.467	836.01
572.891	1020.91
573.315	892.18
573.739	639.41
574.163	543.44
574.587	407.69
575.011	400.67
575.435	403.01
575.858	454.5
576.282	433.44
576.705	398.33
577.129	386.63
577.552	391.31
577.976	454.5
578.399	379.61
578.822	412.37
579.245	454.5
579.669	372.58
580.092	360.88
580.515	318.75
580.938	405.35
581.361	388.97
581.784	410.03
582.206	370.24
582.629	433.44
583.052	351.52
583.474	370.24
583.897	349.18
584.32	403.01
584.742	370.24
585.165	398.33
585.587	412.37
586.009	412.37
586.431	414.71
586.854	384.29
587.276	407.69
587.698	480.25
588.12	395.99
588.542	426.42
588.964	428.76
589.386	374.92
589.807	412.37
590.229	374.92
590.651	398.33
591.073	386.63
591.494	452.16
591.916	414.71
592.337	381.95
592.759	463.86
593.18	379.61
593.601	449.82
594.022	407.69
594.444	433.44
594.865	407.69
595.286	459.18
595.707	414.71
596.128	435.78
596.549	412.37
596.97	351.52
597.39	428.76
597.811	360.88
598.232	393.65
598.652	344.5
599.073	421.74
599.494	386.63
599.914	440.46
600.334	419.39
600.755	410.03
601.175	405.35
601.595	384.29
602.015	377.27
602.436	442.8
602.856	480.25
603.276	398.33
603.696	395.99
604.115	374.92
604.535	346.84
604.955	370.24
605.375	417.05
605.794	379.61
606.214	339.82
606.634	353.86
607.053	431.1
607.473	449.82
607.892	398.33
608.311	524.72
608.731	344.5
609.15	395.99
609.569	386.63
609.988	431.1
610.407	381.95
610.826	395.99
611.245	346.84
611.664	314.07
612.083	372.58
612.501	424.08
612.92	370.24
613.339	363.22
613.757	431.1
614.176	433.44
614.594	346.84
615.013	403.01
615.431	414.71
615.85	447.48
616.268	421.74
616.686	400.67
617.104	410.03
617.522	417.05
617.94	395.99
618.358	405.35
618.776	419.39
619.194	386.63
619.612	449.82
620.03	445.14
620.447	435.78
620.865	428.76
621.282	412.37
621.7	484.93
622.117	482.59
622.535	501.31
622.952	616
623.369	733.03
623.787	845.37
624.204	885.16
624.621	969.42
625.038	1013.89
625.455	1053.68
625.872	871.12
626.289	623.02
626.706	562.17
627.123	393.65
627.539	374.92
627.956	363.22
628.373	435.78
628.789	344.5
629.206	335.14
629.622	395.99
630.038	377.27
630.455	384.29
630.871	391.31
631.287	372.58
631.703	393.65
632.12	426.42
632.536	405.35
632.952	358.54
633.368	363.22
633.783	349.18
634.199	398.33
634.615	360.88
635.031	356.2
635.446	349.18
635.862	337.48
636.277	342.16
636.693	346.84
637.108	395.99
637.524	356.2
637.939	367.9
638.354	417.05
638.77	367.9
639.185	384.29
639.6	386.63
640.015	346.84
640.43	365.56
640.845	398.33
641.259	381.95
641.674	384.29
642.089	353.86
642.504	372.58
642.918	398.33
643.333	377.27
643.747	335.14
644.162	335.14
644.576	311.73
644.991	337.48
645.405	365.56
645.819	363.22
646.233	400.67
646.647	384.29
647.061	381.95
647.475	358.54
647.889	372.58
648.303	363.22
648.717	386.63
649.131	381.95
649.545	388.97
649.958	414.71
650.372	358.54
650.785	398.33
651.199	372.58
651.612	407.69
652.026	374.92
652.439	365.56
652.852	351.52
653.266	372.58
653.679	370.24
654.092	414.71
654.505	386.63
654.918	384.29
655.331	508.34
655.744	435.78
656.156	501.31
656.569	665.15
656.982	686.22
657.394	838.35
657.807	529.4
658.22	520.04
658.632	428.76
659.044	407.69
659.457	300.03
659.869	417.05
660.281	365.56
660.693	367.9
661.106	384.29
661.518	377.27
661.93	379.61
662.342	367.9
662.754	374.92
663.165	358.54
663.577	403.01
663.989	384.29
664.401	388.97
664.812	367.9
665.224	337.48
665.635	363.22
666.047	311.73
666.458	360.88
666.869	384.29
667.281	339.82
667.692	372.58
668.103	332.79
668.514	365.56
668.925	353.86
669.336	384.29
669.747	363.22
670.158	393.65
670.569	391.31
670.979	358.54
671.39	288.32
671.801	335.14
672.211	339.82
672.622	363.22
673.032	276.62
673.443	405.35
673.853	400.67
674.263	388.97
674.674	438.12
675.084	417.05
675.494	356.2
675.904	311.73
676.314	407.69
676.724	391.31
677.134	290.67
677.544	316.41
677.953	407.69
678.363	374.92
678.773	377.27
679.182	358.54
679.592	433.44
680.001	300.03
680.411	405.35
680.82	379.61
681.23	314.07
681.639	360.88
682.048	307.05
682.457	351.52
682.866	398.33
683.275	463.86
683.684	384.29
684.093	438.12
684.502	374.92
684.911	412.37
685.32	388.97
685.728	377.27
686.137	316.41
686.546	325.77
686.954	316.41
687.363	314.07
687.771	421.74
688.179	339.82
688.588	307.05
688.996	344.5
689.404	351.52
689.812	311.73
690.22	337.48
690.628	349.18
691.036	297.69
691.444	370.24
691.852	314.07
692.26	353.86
692.667	440.46
693.075	391.31
693.483	403.01
693.89	398.33
694.298	400.67
694.705	363.22
695.112	330.45
695.52	372.58
695.927	300.03
696.334	316.41
696.741	414.71
697.148	356.2
697.555	316.41
697.962	311.73
698.369	321.09
698.776	328.11
699.183	330.45
699.59	339.82
699.996	403.01
700.403	346.84
700.81	330.45
701.216	407.69
701.623	374.92
702.029	372.58
702.435	367.9
702.842	300.03
703.248	379.61
703.654	367.9
704.06	498.97
704.466	548.12
704.872	611.32
705.278	562.17
705.684	477.91
706.09	557.49
706.496	538.76
706.901	454.5
707.307	353.86
707.712	405.35
708.118	370.24
708.523	388.97
708.929	370.24
709.334	363.22
709.74	323.43
710.145	337.48
710.55	407.69
710.955	374.92
711.36	321.09
711.765	388.97
712.17	325.77
712.575	285.98
712.98	934.31
713.385	398.33
713.789	276.62
714.194	288.32
714.599	346.84
715.003	349.18
715.408	290.67
715.812	300.03
716.217	325.77
716.621	330.45
717.025	342.16
717.429	363.22
717.833	330.45
718.238	316.41
718.642	332.79
719.046	300.03
719.449	363.22
719.853	356.2
720.257	316.41
720.661	370.24
721.065	349.18
721.468	330.45
721.872	363.22
722.275	363.22
722.679	323.43
723.082	351.52
723.485	356.2
723.889	293.01
724.292	358.54
724.695	398.33
725.098	365.56
725.501	353.86
725.904	337.48
726.307	276.62
726.71	323.43
727.113	297.69
727.516	344.5
727.918	344.5
728.321	323.43
728.724	393.65
729.126	311.73
729.529	316.41
729.931	325.77
730.333	281.3
730.736	353.86
731.138	318.75
731.54	330.45
731.942	335.14
732.344	414.71
732.746	293.01
733.148	395.99
733.55	318.75
733.952	269.6
734.354	328.11
734.756	356.2
735.157	318.75
735.559	307.05
735.96	208.75
736.362	410.03
736.763	316.41
737.165	353.86
737.566	358.54
737.967	290.67
738.368	307.05
738.77	377.27
739.171	325.77
739.572	351.52
739.973	293.01
740.374	307.05
740.774	323.43
741.175	372.58
741.576	342.16
741.977	346.84
742.377	335.14
742.778	374.92
743.178	325.77
743.579	417.05
743.979	302.37
744.379	358.54
744.78	372.58
745.18	302.37
745.58	323.43
745.98	300.03
746.38	337.48
746.78	358.54
747.18	342.16
747.58	360.88
747.98	405.35
748.38	335.14
748.779	342.16
749.179	342.16
749.578	360.88
749.978	393.65
750.377	316.41
750.777	309.39
751.176	351.52
751.575	262.58
751.975	302.37
752.374	325.77
752.773	363.22
753.172	300.03
753.571	363.22
753.97	267.26
754.369	274.28
754.768	293.01
755.166	344.5
755.565	302.37
755.964	318.75
756.362	346.84
756.761	351.52
757.159	307.05
757.558	360.88
757.956	395.99
758.354	325.77
758.753	300.03
759.151	325.77
759.549	328.11
759.947	300.03
760.345	283.64
760.743	325.77
761.141	335.14
761.539	274.28
761.936	307.05
762.334	332.79
762.732	307.05
763.129	297.69
763.527	290.67
763.924	363.22
764.322	370.24
764.719	335.14
765.117	321.09
765.514	349.18
765.911	358.54
766.308	328.11
766.705	321.09
767.102	295.35
767.499	300.03
767.896	290.67
768.293	311.73
768.69	285.98
769.086	318.75
769.483	367.9
769.88	377.27
770.276	351.52
770.673	351.52
771.069	335.14
771.466	290.67
771.862	332.79
772.258	309.39
772.654	370.24
773.05	316.41
773.447	293.01
773.843	271.94
774.239	264.92
774.634	337.48
775.03	297.69
775.426	314.07
775.822	386.63
776.218	379.61
776.613	316.41
777.009	405.35
777.404	431.1
777.8	332.79
778.195	370.24
778.59	293.01
778.986	318.75
779.381	339.82
779.776	337.48
780.171	328.11
780.566	304.71
780.961	311.73
781.356	384.29
781.751	335.14
782.146	335.14
782.54	253.22
782.935	374.92
783.33	297.69
783.724	293.01
784.119	283.64
784.513	325.77
784.908	353.86
785.302	325.77
785.696	304.71
786.09	356.2
786.485	372.58
786.879	311.73
787.273	335.14
787.667	309.39
788.061	283.64
788.454	325.77
788.848	323.43
789.242	395.99
789.636	325.77
790.029	323.43
790.423	353.86
790.816	337.48
791.21	370.24
791.603	349.18
791.997	295.35
792.39	260.24
792.783	363.22
793.176	295.35
793.569	328.11
793.962	300.03
794.355	335.14
794.748	339.82
795.141	342.16
795.534	302.37
795.927	321.09
796.319	377.27
796.712	304.71
797.105	332.79
797.497	384.29
797.89	342.16
798.282	323.43
798.674	360.88
799.067	243.85
799.459	321.09
799.851	285.98
800.243	309.39
800.635	337.48
801.027	288.32
801.419	365.56
801.811	323.43
802.203	264.92
802.594	424.08
802.986	307.05
803.378	381.95
803.769	328.11
804.161	253.22
804.552	239.17
804.944	321.09
805.335	358.54
805.726	311.73
806.118	307.05
806.509	285.98
806.9	314.07
807.291	328.11
807.682	281.3
808.073	255.56
808.464	332.79
808.855	314.07
809.245	363.22
809.636	316.41
810.027	267.26
810.417	309.39
810.808	337.48
811.198	307.05
811.589	335.14
811.979	346.84
812.369	344.5
812.759	311.73
813.15	260.24
813.54	325.77
813.93	307.05
814.32	293.01
814.71	318.75
815.1	311.73
815.489	302.37
815.879	311.73
816.269	309.39
816.658	321.09
817.048	290.67
817.438	271.94
817.827	290.67
818.216	363.22
818.606	342.16
818.995	377.27
819.384	302.37
819.773	363.22
820.163	321.09
820.552	285.98
820.941	276.62
821.33	290.67
821.718	274.28
822.107	360.88
822.496	328.11
822.885	290.67
823.273	339.82
823.662	300.03
824.05	360.88
824.439	316.41
824.827	363.22
825.216	360.88
825.604	316.41
825.992	360.88
826.38	335.14
826.768	283.64
827.156	318.75
827.544	260.24
827.932	337.48
828.32	335.14
828.708	323.43
829.096	339.82
829.483	307.05
829.871	344.5
830.259	311.73
830.646	304.71
831.034	332.79
831.421	391.31
831.808	367.9
832.196	314.07
832.583	337.48
832.97	337.48
833.357	293.01
833.744	323.43
834.131	295.35
834.518	316.41
834.905	278.96
835.292	346.84
835.678	309.39
836.065	314.07
836.452	335.14
836.838	264.92
837.225	307.05
837.611	297.69
837.998	304.71
838.384	344.5
838.77	351.52
839.157	316.41
839.543	269.6
839.929	346.84
840.315	283.64
840.701	295.35
841.087	330.45
841.473	325.77
841.858	302.37
842.244	374.92
842.63	300.03
843.015	318.75
843.401	625.36
843.787	337.48
844.172	311.73
844.557	335.14
844.943	330.45
845.328	278.96
845.713	391.31
846.098	267.26
846.483	302.37
846.868	332.79
847.253	325.77
847.638	325.77
848.023	332.79
848.408	281.3
848.793	281.3
849.177	372.58
849.562	232.15
849.947	300.03
850.331	330.45
850.715	297.69
851.1	330.45
851.484	288.32
851.868	311.73
852.253	323.43
852.637	297.69
853.021	267.26
853.405	363.22
853.789	309.39
854.173	285.98
854.557	321.09
854.94	356.2
855.324	278.96
855.708	297.69
856.091	346.84
856.475	332.79
856.858	330.45
857.242	321.09
857.625	269.6
858.009	274.28
858.392	285.98
858.775	318.75
859.158	304.71
859.541	232.15
859.924	290.67
860.307	318.75
860.69	321.09
861.073	314.07
861.456	321.09
861.838	335.14
862.221	293.01
862.604	314.07
862.986	281.3
863.369	304.71
863.751	316.41
864.133	271.94
864.516	370.24
864.898	325.77
865.28	328.11
865.662	297.69
866.044	278.96
866.426	351.52
866.808	395.99
867.19	311.73
867.572	377.27
867.954	297.69
868.336	360.88
868.717	328.11
869.099	271.94
869.48	328.11
869.862	250.88
870.243	281.3
870.625	321.09
871.006	339.82
871.387	339.82
871.768	386.63
872.149	344.5
872.53	285.98
872.911	239.17
873.292	314.07
873.673	370.24
874.054	250.88
874.435	295.35
874.815	318.75
875.196	337.48
875.577	290.67
875.957	311.73
876.338	328.11
876.718	311.73
877.098	260.24
877.479	283.64
877.859	328.11
878.239	311.73
878.619	360.88
878.999	307.05
879.379	290.67
879.759	297.69
880.139	314.07
880.519	318.75
880.898	358.54
881.278	339.82
881.658	288.32
882.037	351.52
882.417	325.77
882.796	295.35
883.176	262.58
883.555	321.09
883.934	356.2
884.313	391.31
884.693	304.71
885.072	297.69
885.451	318.75
885.83	325.77
886.209	335.14
886.587	328.11
886.966	274.28
887.345	349.18
887.724	353.86
888.102	325.77
888.481	316.41
888.859	295.35
889.238	300.03
889.616	293.01
889.994	377.27
890.373	274.28
890.751	281.3
891.129	344.5
891.507	318.75
891.885	309.39
892.263	271.94
892.641	283.64
893.019	283.64
893.396	358.54
893.774	274.28
894.152	307.05
894.529	314.07
894.907	285.98
895.284	328.11
895.662	271.94
896.039	255.56
896.416	271.94
896.794	318.75
897.171	325.77
897.548	293.01
897.925	290.67
898.302	339.82
898.679	297.69
899.056	278.96
899.433	271.94
899.809	260.24
900.186	267.26
900.563	283.64
900.939	297.69
901.316	297.69
901.692	316.41
902.069	314.07
902.445	318.75
902.821	339.82
903.197	293.01
903.574	349.18
903.95	374.92
904.326	302.37
904.702	342.16
905.078	304.71
905.454	328.11
905.829	335.14
906.205	304.71
906.581	309.39
906.956	309.39
907.332	283.64
907.707	335.14
908.083	285.98
908.458	250.88
908.833	325.77
909.209	351.52
909.584	297.69
909.959	309.39
910.334	297.69
910.709	293.01
911.084	337.48
911.459	330.45
911.834	372.58
912.209	335.14
912.583	332.79
912.958	330.45
913.333	328.11
913.707	297.69
914.082	391.31
914.456	285.98
914.83	267.26
915.205	330.45
915.579	330.45
915.953	321.09
916.327	337.48
916.701	309.39
917.075	323.43
917.449	285.98
917.823	295.35
918.197	339.82
918.571	344.5
918.944	290.67
919.318	342.16
919.692	356.2
920.065	346.84
920.438	293.01
920.812	330.45
921.185	300.03
921.558	321.09
921.932	297.69
922.305	262.58
922.678	365.56
923.051	325.77
923.424	318.75
923.797	302.37
924.17	255.56
924.542	428.76
924.915	297.69
925.288	302.37
925.661	234.49
926.033	281.3
926.406	321.09
926.778	297.69
927.15	290.67
927.523	264.92
927.895	293.01
928.267	285.98
928.639	358.54
929.011	260.24
929.383	285.98
929.755	323.43
930.127	328.11
930.499	285.98
930.871	269.6
931.242	295.35
931.614	314.07
931.986	316.41
932.357	262.58
932.729	293.01
933.1	271.94
933.471	295.35
933.843	339.82
934.214	302.37
934.585	360.88
934.956	283.64
935.327	304.71
935.698	285.98
936.069	356.2
936.44	356.2
936.811	285.98
937.182	328.11
937.552	351.52
937.923	321.09
938.293	293.01
938.664	267.26
939.034	344.5
939.405	356.2
939.775	295.35
940.145	332.79
940.516	290.67
940.886	330.45
941.256	321.09
941.626	318.75
941.996	285.98
942.366	278.96
942.735	295.35
943.105	370.24
943.475	339.82
943.845	332.79
944.214	335.14
944.584	318.75
944.953	248.54
945.323	323.43
945.692	393.65
946.061	283.64
946.43	288.32
946.8	295.35
947.169	281.3
947.538	288.32
947.907	314.07
948.276	288.32
948.645	248.54
949.013	367.9
949.382	264.92
949.751	267.26
950.119	274.28
950.488	234.49
950.857	271.94
951.225	285.98
951.593	262.58
951.962	295.35
952.33	353.86
952.698	288.32
953.066	351.52
953.434	353.86
953.802	314.07
954.17	227.47
954.538	344.5
954.906	328.11
955.274	316.41
955.642	295.35
956.009	304.71
956.377	274.28
956.744	316.41
957.112	311.73
957.479	318.75
957.847	332.79
958.214	342.16
958.581	344.5
958.948	271.94
959.315	339.82
959.683	351.52
960.05	243.85
960.416	269.6
960.783	339.82
961.15	342.16
961.517	342.16
961.884	297.69
962.25	330.45
962.617	314.07
962.983	271.94
963.35	262.58
963.716	278.96
964.082	365.56
964.449	318.75
964.815	307.05
965.181	264.92
965.547	316.41
965.913	316.41
966.279	321.09
966.645	302.37
967.011	384.29
967.377	283.64
967.742	307.05
968.108	257.9
968.474	374.92
968.839	293.01
969.205	300.03
969.57	325.77
969.935	243.85
970.301	283.64
970.666	304.71
971.031	339.82
971.396	288.32
971.761	288.32
972.126	323.43
972.491	332.79
972.856	314.07
973.221	288.32
973.586	330.45
973.95	332.79
974.315	285.98
974.679	309.39
975.044	349.18
975.408	351.52
975.773	337.48
976.137	290.67
976.501	297.69
976.866	281.3
977.23	281.3
977.594	274.28
977.958	344.5
978.322	353.86
978.686	325.77
979.049	363.22
979.413	300.03
979.777	325.77
980.141	293.01
980.504	325.77
980.868	288.32
981.231	372.58
981.595	330.45
981.958	239.17
982.321	344.5
982.684	232.15
983.048	302.37
983.411	295.35
983.774	323.43
984.137	307.05
984.5	316.41
984.862	285.98
985.225	323.43
985.588	300.03
985.951	311.73
986.313	330.45
986.676	328.11
987.038	323.43
987.401	358.54
987.763	304.71
988.125	309.39
988.488	255.56
988.85	276.62
989.212	365.56
989.574	300.03
989.936	269.6
990.298	323.43
990.66	262.58
991.022	302.37
991.383	278.96
991.745	372.58
992.107	271.94
992.468	307.05
992.83	323.43
993.191	307.05
993.553	302.37
993.914	283.64
994.275	330.45
994.637	304.71
994.998	255.56
995.359	351.52
995.72	215.77
996.081	300.03
996.442	323.43
996.803	323.43
997.163	342.16
997.524	325.77
997.885	316.41
998.245	271.94
998.606	295.35
998.966	290.67
999.327	325.77
999.687	311.73
1000.047	325.77
1000.408	304.71
1000.768	307.05
1001.128	358.54
1001.488	346.84
1001.848	283.64
1002.208	262.58
1002.568	321.09
1002.927	267.26
1003.287	321.09
1003.647	393.65
1004.007	344.5
1004.366	295.35
1004.726	337.48
1005.085	309.39
1005.444	269.6
1005.804	288.32
1006.163	328.11
1006.522	288.32
1006.881	274.28
1007.24	405.35
1007.599	349.18
1007.958	274.28
1008.317	288.32
1008.676	290.67
1009.035	290.67
1009.393	243.85
1009.752	300.03
1010.111	325.77
1010.469	307.05
1010.828	321.09
1011.186	325.77
1011.544	381.95
1011.903	316.41
1012.261	358.54
1012.619	388.97
1012.977	246.2
1013.335	260.24
1013.693	246.2
1014.051	285.98
1014.409	379.61
1014.767	328.11
1015.124	325.77
1015.482	309.39
1015.84	304.71
1016.197	374.92
1016.555	325.77
1016.912	316.41
1017.269	330.45
1017.627	295.35
1017.984	311.73
1018.341	264.92
1018.698	307.05
1019.055	304.71
1019.412	379.61
1019.769	318.75
1020.126	356.2
1020.483	325.77
1020.84	309.39
1021.196	281.3
1021.553	339.82
1021.909	236.83
1022.266	269.6
1022.622	316.41
1022.979	325.77
1023.335	309.39
1023.691	346.84
1024.047	255.56
1024.404	339.82
1024.76	325.77
1025.116	269.6
1025.472	297.69
1025.827	365.56
1026.183	323.43
1026.539	269.6
1026.895	274.28
1027.25	358.54
1027.606	349.18
1027.961	271.94
1028.317	316.41
1028.672	304.71
1029.028	248.54
1029.383	300.03
1029.738	307.05
1030.093	293.01
1030.448	290.67
1030.803	309.39
1031.158	283.64
1031.513	274.28
1031.868	281.3
1032.223	325.77
1032.577	274.28
1032.932	328.11
1033.287	309.39
1033.641	321.09
1033.996	241.51
1034.35	323.43
1034.704	316.41
1035.059	302.37
1035.413	328.11
1035.767	328.11
1036.121	328.11
