Data from Al_FLMS009871__1295__16-49-40-366.txt Node

Date: Fri Mar 08 16:49:40 CST 2024
User: pe5414po
Spectrometer: FLMS00987
Trigger mode: 0
Integration Time (sec): 1.000000E-1
Scans to average: 1
Electric dark correction enabled: true
Nonlinearity correction enabled: false
Boxcar width: 0
XAxis mode: Wavelengths
Number of Pixels in Spectrum: 2048
>>>>>Begin Spectral Data<<<<<
188.938	-81.04
189.409	-81.04
189.879	-81.04
190.349	-99.77
190.819	-134.87
191.29	-97.42
191.76	-76.36
192.23	-27.21
192.7	-69.34
193.17	-52.95
193.64	-104.45
194.109	-29.55
194.579	28.96
195.049	3.22
195.519	-8.48
195.988	-1.46
196.458	78.12
196.927	61.73
197.397	66.41
197.866	71.09
198.336	157.69
198.805	160.03
199.274	167.06
199.744	155.35
200.213	167.06
200.682	176.42
201.151	230.25
201.62	246.63
202.089	237.27
202.558	274.72
203.027	223.23
203.495	256
203.964	309.83
204.433	239.61
204.902	248.97
205.37	256
205.839	309.83
206.307	281.74
206.776	260.68
207.244	237.27
207.712	300.47
208.181	337.91
208.649	342.6
209.117	288.76
209.585	314.51
210.053	333.23
210.521	291.1
210.989	288.76
211.457	298.13
211.925	274.72
212.393	293.44
212.861	300.47
213.328	302.81
213.796	307.49
214.264	239.61
214.731	248.97
215.199	291.1
215.666	333.23
216.133	321.53
216.601	321.53
217.068	358.98
217.535	323.87
218.003	260.68
218.47	225.57
218.937	234.93
219.404	225.57
219.871	321.53
220.338	270.04
220.805	253.66
221.271	314.51
221.738	211.53
222.205	248.97
222.671	246.63
223.138	328.55
223.605	298.13
224.071	237.27
224.538	302.81
225.004	272.38
225.47	216.21
225.937	270.04
226.403	225.57
226.869	239.61
227.335	225.57
227.801	291.1
228.267	265.36
228.733	295.79
229.199	284.08
229.665	319.19
230.131	258.34
230.597	309.83
231.062	251.32
231.528	263.02
231.994	295.79
232.459	274.72
232.925	263.02
233.39	265.36
233.856	277.06
234.321	270.04
234.786	295.79
235.252	263.02
235.717	211.53
236.182	284.08
236.647	279.4
237.112	274.72
237.577	281.74
238.042	288.76
238.507	263.02
238.972	284.08
239.436	267.7
239.901	286.42
240.366	251.32
240.83	323.87
241.295	300.47
241.76	302.81
242.224	312.17
242.688	274.72
243.153	270.04
243.617	309.83
244.081	253.66
244.545	234.93
245.01	244.29
245.474	340.26
245.938	305.15
246.402	244.29
246.866	347.28
247.33	281.74
247.793	211.53
248.257	270.04
248.721	267.7
249.185	267.7
249.648	258.34
250.112	256
250.575	284.08
251.039	316.85
251.502	349.62
251.965	265.36
252.429	281.74
252.892	305.15
253.355	302.81
253.818	202.16
254.281	323.87
254.744	281.74
255.207	279.4
255.67	323.87
256.133	302.81
256.596	270.04
257.059	192.8
257.522	274.72
257.984	284.08
258.447	272.38
258.909	302.81
259.372	298.13
259.834	295.79
260.297	263.02
260.759	300.47
261.221	258.34
261.684	279.4
262.146	298.13
262.608	300.47
263.07	356.64
263.532	288.76
263.994	312.17
264.456	260.68
264.918	361.32
265.38	248.97
265.842	270.04
266.303	305.15
266.765	288.76
267.227	270.04
267.688	260.68
268.15	312.17
268.611	246.63
269.072	307.49
269.534	312.17
269.995	330.89
270.456	295.79
270.918	253.66
271.379	223.23
271.84	328.55
272.301	234.93
272.762	312.17
273.223	263.02
273.684	326.21
274.144	380.04
274.605	337.91
275.066	342.6
275.527	337.91
275.987	279.4
276.448	288.76
276.908	277.06
277.369	270.04
277.829	295.79
278.289	358.98
278.75	274.72
279.21	288.76
279.67	279.4
280.13	288.76
280.59	286.42
281.05	295.79
281.51	293.44
281.97	256
282.43	307.49
282.89	256
283.35	307.49
283.809	272.38
284.269	300.47
284.729	326.21
285.188	333.23
285.648	265.36
286.107	375.36
286.567	323.87
287.026	302.81
287.485	279.4
287.944	230.25
288.404	291.1
288.863	330.89
289.322	333.23
289.781	340.26
290.24	302.81
290.699	248.97
291.158	295.79
291.616	284.08
292.075	253.66
292.534	380.04
292.992	326.21
293.451	321.53
293.91	319.19
294.368	220.89
294.827	316.85
295.285	237.27
295.743	258.34
296.202	300.47
296.66	316.85
297.118	316.85
297.576	337.91
298.034	326.21
298.492	314.51
298.95	321.53
299.408	326.21
299.866	342.6
300.324	326.21
300.781	307.49
301.239	281.74
301.697	354.3
302.154	256
302.612	326.21
303.069	312.17
303.527	314.51
303.984	293.44
304.441	333.23
304.899	368.34
305.356	398.77
305.813	316.85
306.27	300.47
306.727	312.17
307.184	314.51
307.641	279.4
308.098	316.85
308.555	277.06
309.012	323.87
309.468	335.57
309.925	288.76
310.382	340.26
310.838	316.85
311.295	237.27
311.751	307.49
312.208	321.53
312.664	234.93
313.12	340.26
313.577	253.66
314.033	302.81
314.489	328.55
314.945	281.74
315.401	375.36
315.857	333.23
316.313	267.7
316.769	347.28
317.225	323.87
317.681	319.19
318.136	265.36
318.592	241.95
319.048	295.79
319.503	354.3
319.959	314.51
320.414	347.28
320.869	335.57
321.325	302.81
321.78	330.89
322.235	274.72
322.691	333.23
323.146	312.17
323.601	323.87
324.056	258.34
324.511	333.23
324.966	335.57
325.421	314.51
325.875	340.26
326.33	302.81
326.785	298.13
327.24	298.13
327.694	321.53
328.149	323.87
328.603	277.06
329.058	293.44
329.512	330.89
329.966	370.68
330.421	274.72
330.875	307.49
331.329	319.19
331.783	258.34
332.237	330.89
332.691	309.83
333.145	363.66
333.599	347.28
334.053	307.49
334.507	291.1
334.96	361.32
335.414	288.76
335.868	356.64
336.321	321.53
336.775	248.97
337.228	284.08
337.682	288.76
338.135	314.51
338.588	342.6
339.042	279.4
339.495	337.91
339.948	326.21
340.401	354.3
340.854	321.53
341.307	340.26
341.76	319.19
342.213	321.53
342.666	316.85
343.119	342.6
343.571	286.42
344.024	337.91
344.477	300.47
344.929	330.89
345.382	344.94
345.834	279.4
346.287	328.55
346.739	314.51
347.191	342.6
347.644	358.98
348.096	344.94
348.548	337.91
349	344.94
349.452	284.08
349.904	351.96
350.356	307.49
350.808	342.6
351.26	349.62
351.711	309.83
352.163	298.13
352.615	284.08
353.066	321.53
353.518	328.55
353.969	309.83
354.421	227.91
354.872	281.74
355.324	309.83
355.775	347.28
356.226	277.06
356.677	305.15
357.128	248.97
357.579	380.04
358.03	314.51
358.481	321.53
358.932	405.79
359.383	274.72
359.834	284.08
360.285	307.49
360.735	337.91
361.186	272.38
361.637	253.66
362.087	333.23
362.538	354.3
362.988	323.87
363.438	300.47
363.889	323.87
364.339	270.04
364.789	335.57
365.239	270.04
365.689	286.42
366.139	302.81
366.589	321.53
367.039	312.17
367.489	307.49
367.939	326.21
368.389	347.28
368.839	309.83
369.288	337.91
369.738	288.76
370.187	330.89
370.637	305.15
371.086	239.61
371.536	309.83
371.985	274.72
372.434	356.64
372.884	302.81
373.333	293.44
373.782	220.89
374.231	286.42
374.68	291.1
375.129	361.32
375.578	314.51
376.027	312.17
376.475	321.53
376.924	356.64
377.373	256
377.822	349.62
378.27	333.23
378.719	309.83
379.167	309.83
379.616	291.1
380.064	323.87
380.512	321.53
380.961	333.23
381.409	277.06
381.857	309.83
382.305	330.89
382.753	277.06
383.201	344.94
383.649	377.7
384.097	366
384.545	389.41
384.992	270.04
385.44	326.21
385.888	333.23
386.335	309.83
386.783	358.98
387.231	288.76
387.678	288.76
388.125	284.08
388.573	248.97
389.02	267.7
389.467	340.26
389.914	302.81
390.362	342.6
390.809	368.34
391.256	326.21
391.703	248.97
392.15	291.1
392.596	316.85
393.043	291.1
393.49	344.94
393.937	358.98
394.383	351.96
394.83	302.81
395.276	328.55
395.723	288.76
396.169	337.91
396.616	265.36
397.062	333.23
397.508	281.74
397.954	326.21
398.401	323.87
398.847	314.51
399.293	410.47
399.739	319.19
400.185	298.13
400.631	326.21
401.076	330.89
401.522	298.13
401.968	258.34
402.414	382.39
402.859	330.89
403.305	281.74
403.75	321.53
404.196	340.26
404.641	321.53
405.086	342.6
405.532	305.15
405.977	305.15
406.422	295.79
406.867	295.79
407.312	307.49
407.757	349.62
408.202	279.4
408.647	256
409.092	326.21
409.537	284.08
409.982	323.87
410.426	307.49
410.871	305.15
411.316	326.21
411.76	286.42
412.205	302.81
412.649	312.17
413.093	340.26
413.538	312.17
413.982	326.21
414.426	333.23
414.87	356.64
415.314	356.64
415.758	309.83
416.202	316.85
416.646	344.94
417.09	305.15
417.534	412.81
417.978	305.15
418.421	293.44
418.865	302.81
419.309	265.36
419.752	337.91
420.196	298.13
420.639	347.28
421.083	323.87
421.526	314.51
421.969	309.83
422.412	312.17
422.856	309.83
423.299	335.57
423.742	265.36
424.185	263.02
424.628	286.42
425.071	328.55
425.513	312.17
425.956	356.64
426.399	328.55
426.842	265.36
427.284	253.66
427.727	323.87
428.169	309.83
428.612	295.79
429.054	375.36
429.497	361.32
429.939	349.62
430.381	305.15
430.823	293.44
431.265	295.79
431.707	326.21
432.149	300.47
432.591	312.17
433.033	328.55
433.475	326.21
433.917	251.32
434.359	342.6
434.8	258.34
435.242	314.51
435.684	340.26
436.125	326.21
436.567	316.85
437.008	270.04
437.449	358.98
437.891	370.68
438.332	274.72
438.773	330.89
439.214	330.89
439.656	366
440.097	293.44
440.538	309.83
440.978	337.91
441.419	305.15
441.86	277.06
442.301	366
442.742	253.66
443.182	281.74
443.623	312.17
444.063	340.26
444.504	295.79
444.944	398.77
445.385	328.55
445.825	342.6
446.265	333.23
446.706	246.63
447.146	312.17
447.586	351.96
448.026	330.89
448.466	354.3
448.906	291.1
449.346	305.15
449.786	307.49
450.225	239.61
450.665	335.57
451.105	309.83
451.544	377.7
451.984	335.57
452.424	330.89
452.863	349.62
453.302	323.87
453.742	314.51
454.181	340.26
454.62	309.83
455.059	305.15
455.499	354.3
455.938	307.49
456.377	342.6
456.816	347.28
457.254	335.57
457.693	391.75
458.132	284.08
458.571	302.81
459.01	337.91
459.448	260.68
459.887	265.36
460.325	305.15
460.764	337.91
461.202	272.38
461.641	326.21
462.079	286.42
462.517	316.85
462.955	323.87
463.393	356.64
463.832	288.76
464.27	293.44
464.708	326.21
465.145	312.17
465.583	347.28
466.021	307.49
466.459	300.47
466.897	354.3
467.334	389.41
467.772	370.68
468.209	340.26
468.647	337.91
469.084	246.63
469.522	288.76
469.959	349.62
470.396	291.1
470.833	286.42
471.271	295.79
471.708	293.44
472.145	309.83
472.582	370.68
473.019	358.98
473.456	307.49
473.892	291.1
474.329	272.38
474.766	321.53
475.202	277.06
475.639	316.85
476.076	361.32
476.512	319.19
476.949	342.6
477.385	237.27
477.821	274.72
478.258	312.17
478.694	337.91
479.13	246.63
479.566	305.15
480.002	351.96
480.438	314.51
480.874	253.66
481.31	286.42
481.746	330.89
482.181	316.85
482.617	326.21
483.053	253.66
483.488	256
483.924	333.23
484.36	349.62
484.795	302.81
485.23	319.19
485.666	300.47
486.101	321.53
486.536	370.68
486.971	347.28
487.407	314.51
487.842	422.17
488.277	333.23
488.712	298.13
489.146	319.19
489.581	340.26
490.016	412.81
490.451	312.17
490.885	307.49
491.32	319.19
491.755	291.1
492.189	239.61
492.624	351.96
493.058	312.17
493.492	370.68
493.927	258.34
494.361	401.11
494.795	349.62
495.229	286.42
495.663	373.02
496.097	340.26
496.531	232.59
496.965	337.91
497.399	302.81
497.833	330.89
498.266	389.41
498.7	316.85
499.134	300.47
499.567	300.47
500.001	323.87
500.434	340.26
500.868	335.57
501.301	286.42
501.734	286.42
502.168	396.43
502.601	342.6
503.034	335.57
503.467	363.66
503.9	368.34
504.333	384.73
504.766	316.85
505.199	298.13
505.632	298.13
506.064	389.41
506.497	337.91
506.93	316.85
507.362	321.53
507.795	246.63
508.227	302.81
508.66	295.79
509.092	312.17
509.524	323.87
509.956	305.15
510.389	281.74
510.821	363.66
511.253	281.74
511.685	284.08
512.117	419.83
512.549	323.87
512.981	284.08
513.412	337.91
513.844	337.91
514.276	307.49
514.707	340.26
515.139	375.36
515.571	342.6
516.002	291.1
516.433	363.66
516.865	347.28
517.296	361.32
517.727	358.98
518.159	328.55
518.59	354.3
519.021	319.19
519.452	298.13
519.883	370.68
520.314	295.79
520.744	321.53
521.175	333.23
521.606	316.85
522.037	284.08
522.467	326.21
522.898	300.47
523.328	330.89
523.759	349.62
524.189	333.23
524.62	288.76
525.05	295.79
525.48	333.23
525.91	328.55
526.341	312.17
526.771	302.81
527.201	274.72
527.631	270.04
528.061	333.23
528.49	370.68
528.92	319.19
529.35	295.79
529.78	237.27
530.209	302.81
530.639	307.49
531.068	342.6
531.498	279.4
531.927	323.87
532.357	319.19
532.786	354.3
533.215	368.34
533.644	321.53
534.074	302.81
534.503	309.83
534.932	373.02
535.361	244.29
535.79	281.74
536.218	319.19
536.647	380.04
537.076	349.62
537.505	328.55
537.933	384.73
538.362	347.28
538.79	307.49
539.219	300.47
539.647	314.51
540.076	314.51
540.504	366
540.932	293.44
541.36	323.87
541.788	340.26
542.217	335.57
542.645	281.74
543.073	286.42
543.5	349.62
543.928	295.79
544.356	340.26
544.784	295.79
545.211	307.49
545.639	337.91
546.067	302.81
546.494	286.42
546.922	344.94
547.349	340.26
547.776	286.42
548.204	337.91
548.631	363.66
549.058	349.62
549.485	370.68
549.912	354.3
550.339	394.09
550.766	307.49
551.193	305.15
551.62	349.62
552.047	358.98
552.474	356.64
552.9	349.62
553.327	349.62
553.754	300.47
554.18	309.83
554.607	305.15
555.033	258.34
555.459	319.19
555.886	323.87
556.312	319.19
556.738	363.66
557.164	298.13
557.59	403.45
558.016	349.62
558.442	309.83
558.868	312.17
559.294	344.94
559.72	351.96
560.145	380.04
560.571	351.96
560.997	333.23
561.422	330.89
561.848	274.72
562.273	298.13
562.699	373.02
563.124	335.57
563.549	305.15
563.974	291.1
564.4	377.7
564.825	326.21
565.25	288.76
565.675	358.98
566.1	291.1
566.525	351.96
566.95	344.94
567.374	349.62
567.799	272.38
568.224	314.51
568.648	321.53
569.073	340.26
569.497	337.91
569.922	286.42
570.346	307.49
570.771	291.1
571.195	366
571.619	286.42
572.043	312.17
572.467	256
572.891	305.15
573.315	309.83
573.739	330.89
574.163	295.79
574.587	337.91
575.011	354.3
575.435	281.74
575.858	389.41
576.282	433.88
576.705	286.42
577.129	349.62
577.552	370.68
577.976	316.85
578.399	333.23
578.822	293.44
579.245	337.91
579.669	302.81
580.092	344.94
580.515	387.07
580.938	305.15
581.361	333.23
581.784	351.96
582.206	326.21
582.629	323.87
583.052	307.49
583.474	344.94
583.897	335.57
584.32	227.91
584.742	349.62
585.165	302.81
585.587	265.36
586.009	293.44
586.431	328.55
586.854	356.64
587.276	351.96
587.698	366
588.12	300.47
588.542	337.91
588.964	300.47
589.386	340.26
589.807	342.6
590.229	337.91
590.651	408.13
591.073	272.38
591.494	351.96
591.916	288.76
592.337	314.51
592.759	232.59
593.18	267.7
593.601	368.34
594.022	330.89
594.444	340.26
594.865	344.94
595.286	326.21
595.707	239.61
596.128	305.15
596.549	300.47
596.97	270.04
597.39	270.04
597.811	293.44
598.232	326.21
598.652	323.87
599.073	330.89
599.494	316.85
599.914	337.91
600.334	340.26
600.755	340.26
601.175	351.96
601.595	274.72
602.015	286.42
602.436	370.68
602.856	431.54
603.276	340.26
603.696	347.28
604.115	321.53
604.535	330.89
604.955	319.19
605.375	361.32
605.794	281.74
606.214	258.34
606.634	323.87
607.053	295.79
607.473	391.75
607.892	333.23
608.311	335.57
608.731	316.85
609.15	274.72
609.569	354.3
609.988	387.07
610.407	377.7
610.826	326.21
611.245	309.83
611.664	335.57
612.083	305.15
612.501	347.28
612.92	274.72
613.339	295.79
613.757	335.57
614.176	391.75
614.594	328.55
615.013	305.15
615.431	312.17
615.85	326.21
616.268	284.08
616.686	323.87
617.104	307.49
617.522	323.87
617.94	344.94
618.358	375.36
618.776	298.13
619.194	340.26
619.612	344.94
620.03	260.68
620.447	314.51
620.865	358.98
621.282	342.6
621.7	373.02
622.117	293.44
622.535	335.57
622.952	394.09
623.369	302.81
623.787	321.53
624.204	314.51
624.621	284.08
625.038	366
625.455	337.91
625.872	347.28
626.289	335.57
626.706	300.47
627.123	351.96
627.539	347.28
627.956	323.87
628.373	349.62
628.789	394.09
629.206	288.76
629.622	309.83
630.038	330.89
630.455	380.04
630.871	267.7
631.287	279.4
631.703	333.23
632.12	366
632.536	335.57
632.952	358.98
633.368	321.53
633.783	298.13
634.199	239.61
634.615	293.44
635.031	286.42
635.446	337.91
635.862	307.49
636.277	330.89
636.693	384.73
637.108	312.17
637.524	309.83
637.939	354.3
638.354	314.51
638.77	267.7
639.185	351.96
639.6	351.96
640.015	246.63
640.43	284.08
640.845	344.94
641.259	340.26
641.674	288.76
642.089	319.19
642.504	305.15
642.918	288.76
643.333	328.55
643.747	344.94
644.162	277.06
644.576	358.98
644.991	349.62
645.405	272.38
645.819	344.94
646.233	321.53
646.647	314.51
647.061	337.91
647.475	328.55
647.889	368.34
648.303	286.42
648.717	335.57
649.131	309.83
649.545	375.36
649.958	314.51
650.372	316.85
650.785	340.26
651.199	281.74
651.612	356.64
652.026	270.04
652.439	298.13
652.852	267.7
653.266	323.87
653.679	314.51
654.092	321.53
654.505	340.26
654.918	321.53
655.331	307.49
655.744	340.26
656.156	337.91
656.569	342.6
656.982	281.74
657.394	321.53
657.807	253.66
658.22	277.06
658.632	368.34
659.044	305.15
659.457	375.36
659.869	314.51
660.281	358.98
660.693	300.47
661.106	349.62
661.518	366
661.93	321.53
662.342	277.06
662.754	295.79
663.165	347.28
663.577	319.19
663.989	272.38
664.401	358.98
664.812	307.49
665.224	295.79
665.635	286.42
666.047	314.51
666.458	370.68
666.869	284.08
667.281	340.26
667.692	363.66
668.103	293.44
668.514	330.89
668.925	263.02
669.336	356.64
669.747	354.3
670.158	300.47
670.569	351.96
670.979	267.7
671.39	366
671.801	340.26
672.211	351.96
672.622	274.72
673.032	424.51
673.443	295.79
673.853	291.1
674.263	284.08
674.674	328.55
675.084	305.15
675.494	335.57
675.904	309.83
676.314	319.19
676.724	351.96
677.134	354.3
677.544	326.21
677.953	309.83
678.363	323.87
678.773	358.98
679.182	298.13
679.592	340.26
680.001	351.96
680.411	401.11
680.82	328.55
681.23	326.21
681.639	370.68
682.048	354.3
682.457	335.57
682.866	342.6
683.275	307.49
683.684	368.34
684.093	358.98
684.502	321.53
684.911	391.75
685.32	368.34
685.728	333.23
686.137	337.91
686.546	347.28
686.954	349.62
687.363	351.96
687.771	340.26
688.179	328.55
688.588	272.38
688.996	328.55
689.404	363.66
689.812	314.51
690.22	286.42
690.628	258.34
691.036	281.74
691.444	288.76
691.852	288.76
692.26	326.21
692.667	284.08
693.075	366
693.483	321.53
693.89	405.79
694.298	344.94
694.705	263.02
695.112	337.91
695.52	342.6
695.927	272.38
696.334	349.62
696.741	305.15
697.148	323.87
697.555	293.44
697.962	277.06
698.369	281.74
698.776	387.07
699.183	302.81
699.59	267.7
699.996	321.53
700.403	370.68
700.81	314.51
701.216	366
701.623	265.36
702.029	356.64
702.435	340.26
702.842	335.57
703.248	300.47
703.654	295.79
704.06	408.13
704.466	342.6
704.872	279.4
705.278	333.23
705.684	298.13
706.09	340.26
706.496	288.76
706.901	316.85
707.307	387.07
707.712	279.4
708.118	291.1
708.523	330.89
708.929	354.3
709.334	309.83
709.74	279.4
710.145	370.68
710.55	328.55
710.955	284.08
711.36	286.42
711.765	284.08
712.17	316.85
712.575	309.83
712.98	988.58
713.385	340.26
713.789	258.34
714.194	298.13
714.599	286.42
715.003	321.53
715.408	342.6
715.812	260.68
716.217	326.21
716.621	316.85
717.025	366
717.429	344.94
717.833	298.13
718.238	288.76
718.642	368.34
719.046	333.23
719.449	354.3
719.853	387.07
720.257	307.49
720.661	342.6
721.065	256
721.468	321.53
721.872	300.47
722.275	349.62
722.679	321.53
723.082	286.42
723.485	337.91
723.889	309.83
724.292	314.51
724.695	342.6
725.098	302.81
725.501	370.68
725.904	328.55
726.307	354.3
726.71	288.76
727.113	328.55
727.516	293.44
727.918	295.79
728.321	298.13
728.724	288.76
729.126	286.42
729.529	323.87
729.931	326.21
730.333	274.72
730.736	256
731.138	307.49
731.54	316.85
731.942	349.62
732.344	351.96
732.746	380.04
733.148	335.57
733.55	387.07
733.952	267.7
734.354	344.94
734.756	321.53
735.157	274.72
735.559	295.79
735.96	298.13
736.362	302.81
736.763	277.06
737.165	319.19
737.566	237.27
737.967	270.04
738.368	351.96
738.77	335.57
739.171	337.91
739.572	356.64
739.973	260.68
740.374	349.62
740.774	354.3
741.175	323.87
741.576	333.23
741.977	377.7
742.377	319.19
742.778	307.49
743.178	288.76
743.579	298.13
743.979	291.1
744.379	370.68
744.78	340.26
745.18	288.76
745.58	335.57
745.98	300.47
746.38	316.85
746.78	333.23
747.18	312.17
747.58	265.36
747.98	328.55
748.38	312.17
748.779	260.68
749.179	314.51
749.578	328.55
749.978	258.34
750.377	337.91
750.777	330.89
751.176	349.62
751.575	230.25
751.975	302.81
752.374	309.83
752.773	337.91
753.172	323.87
753.571	284.08
753.97	281.74
754.369	305.15
754.768	323.87
755.166	391.75
755.565	342.6
755.964	361.32
756.362	293.44
756.761	358.98
757.159	288.76
757.558	358.98
757.956	265.36
758.354	286.42
758.753	295.79
759.151	312.17
759.549	305.15
759.947	263.02
760.345	321.53
760.743	344.94
761.141	286.42
761.539	302.81
761.936	328.55
762.334	295.79
762.732	298.13
763.129	279.4
763.527	337.91
763.924	375.36
764.322	270.04
764.719	288.76
765.117	377.7
765.514	347.28
765.911	286.42
766.308	260.68
766.705	270.04
767.102	333.23
767.499	281.74
767.896	344.94
768.293	363.66
768.69	340.26
769.086	326.21
769.483	295.79
769.88	349.62
770.276	270.04
770.673	328.55
771.069	363.66
771.466	284.08
771.862	281.74
772.258	237.27
772.654	328.55
773.05	326.21
773.447	347.28
773.843	342.6
774.239	328.55
774.634	342.6
775.03	293.44
775.426	319.19
775.822	354.3
776.218	291.1
776.613	363.66
777.009	305.15
777.404	323.87
777.8	344.94
778.195	258.34
778.59	344.94
778.986	335.57
779.381	358.98
779.776	368.34
780.171	377.7
780.566	326.21
780.961	293.44
781.356	342.6
781.751	337.91
782.146	295.79
782.54	358.98
782.935	291.1
783.33	387.07
783.724	319.19
784.119	373.02
784.513	380.04
784.908	305.15
785.302	309.83
785.696	295.79
786.09	321.53
786.485	316.85
786.879	279.4
787.273	323.87
787.667	288.76
788.061	300.47
788.454	237.27
788.848	330.89
789.242	293.44
789.636	288.76
790.029	337.91
790.423	347.28
790.816	281.74
791.21	281.74
791.603	316.85
791.997	309.83
792.39	314.51
792.783	309.83
793.176	366
793.569	330.89
793.962	319.19
794.355	335.57
794.748	319.19
795.141	366
795.534	305.15
795.927	309.83
796.319	288.76
796.712	300.47
797.105	366
797.497	321.53
797.89	258.34
798.282	321.53
798.674	323.87
799.067	323.87
799.459	337.91
799.851	279.4
800.243	366
800.635	307.49
801.027	330.89
801.419	281.74
801.811	363.66
802.203	337.91
802.594	270.04
802.986	281.74
803.378	370.68
803.769	316.85
804.161	333.23
804.552	298.13
804.944	309.83
805.335	284.08
805.726	335.57
806.118	358.98
806.509	284.08
806.9	286.42
807.291	319.19
807.682	373.02
808.073	323.87
808.464	323.87
808.855	293.44
809.245	291.1
809.636	312.17
810.027	298.13
810.417	251.32
810.808	286.42
811.198	309.83
811.589	281.74
811.979	330.89
812.369	270.04
812.759	302.81
813.15	305.15
813.54	356.64
813.93	309.83
814.32	270.04
814.71	258.34
815.1	326.21
815.489	370.68
815.879	295.79
816.269	302.81
816.658	260.68
817.048	349.62
817.438	246.63
817.827	377.7
818.216	234.93
818.606	274.72
818.995	281.74
819.384	281.74
819.773	253.66
820.163	337.91
820.552	337.91
820.941	309.83
821.33	370.68
821.718	328.55
822.107	319.19
822.496	314.51
822.885	361.32
823.273	274.72
823.662	328.55
824.05	295.79
824.439	316.85
824.827	293.44
825.216	323.87
825.604	328.55
825.992	335.57
826.38	312.17
826.768	295.79
827.156	298.13
827.544	323.87
827.932	270.04
828.32	361.32
828.708	344.94
829.096	279.4
829.483	344.94
829.871	302.81
830.259	354.3
830.646	307.49
831.034	307.49
831.421	321.53
831.808	258.34
832.196	340.26
832.583	298.13
832.97	349.62
833.357	314.51
833.744	316.85
834.131	319.19
834.518	293.44
834.905	375.36
835.292	274.72
835.678	335.57
836.065	300.47
836.452	305.15
836.838	286.42
837.225	342.6
837.611	344.94
837.998	305.15
838.384	349.62
838.77	307.49
839.157	288.76
839.543	312.17
839.929	293.44
840.315	342.6
840.701	284.08
841.087	265.36
841.473	309.83
841.858	309.83
842.244	307.49
842.63	267.7
843.015	347.28
843.401	590.69
843.787	333.23
844.172	284.08
844.557	363.66
844.943	337.91
845.328	351.96
845.713	377.7
846.098	295.79
846.483	307.49
846.868	253.66
847.253	279.4
847.638	305.15
848.023	326.21
848.408	349.62
848.793	342.6
849.177	335.57
849.562	279.4
849.947	274.72
850.331	295.79
850.715	293.44
851.1	312.17
851.484	307.49
851.868	337.91
852.253	354.3
852.637	314.51
853.021	328.55
853.405	227.91
853.789	225.57
854.173	293.44
854.557	284.08
854.94	305.15
855.324	333.23
855.708	305.15
856.091	314.51
856.475	272.38
856.858	293.44
857.242	326.21
857.625	344.94
858.009	293.44
858.392	244.29
858.775	286.42
859.158	330.89
859.541	288.76
859.924	239.61
860.307	333.23
860.69	330.89
861.073	295.79
861.456	307.49
861.838	302.81
862.221	246.63
862.604	239.61
862.986	251.32
863.369	330.89
863.751	309.83
864.133	300.47
864.516	298.13
864.898	302.81
865.28	272.38
865.662	333.23
866.044	328.55
866.426	288.76
866.808	300.47
867.19	314.51
867.572	298.13
867.954	300.47
868.336	344.94
868.717	319.19
869.099	340.26
869.48	279.4
869.862	351.96
870.243	335.57
870.625	309.83
871.006	333.23
871.387	368.34
871.768	316.85
872.149	330.89
872.53	366
872.911	321.53
873.292	267.7
873.673	401.11
874.054	267.7
874.435	295.79
874.815	309.83
875.196	358.98
875.577	321.53
875.957	288.76
876.338	298.13
876.718	267.7
877.098	300.47
877.479	314.51
877.859	363.66
878.239	340.26
878.619	321.53
878.999	291.1
879.379	335.57
879.759	265.36
880.139	319.19
880.519	337.91
880.898	323.87
881.278	312.17
881.658	281.74
882.037	347.28
882.417	281.74
882.796	335.57
883.176	319.19
883.555	337.91
883.934	281.74
884.313	337.91
884.693	246.63
885.072	309.83
885.451	337.91
885.83	351.96
886.209	230.25
886.587	323.87
886.966	291.1
887.345	300.47
887.724	358.98
888.102	298.13
888.481	344.94
888.859	281.74
889.238	328.55
889.616	333.23
889.994	260.68
890.373	312.17
890.751	380.04
891.129	319.19
891.507	326.21
891.885	232.59
892.263	337.91
892.641	307.49
893.019	323.87
893.396	354.3
893.774	326.21
894.152	272.38
894.529	340.26
894.907	293.44
895.284	293.44
895.662	330.89
896.039	319.19
896.416	291.1
896.794	291.1
897.171	342.6
897.548	356.64
897.925	333.23
898.302	281.74
898.679	323.87
899.056	288.76
899.433	347.28
899.809	349.62
900.186	351.96
900.563	363.66
900.939	354.3
901.316	295.79
901.692	309.83
902.069	354.3
902.445	330.89
902.821	321.53
903.197	302.81
903.574	351.96
903.95	344.94
904.326	305.15
904.702	333.23
905.078	295.79
905.454	358.98
905.829	298.13
906.205	330.89
906.581	274.72
906.956	293.44
907.332	305.15
907.707	241.95
908.083	328.55
908.458	314.51
908.833	319.19
909.209	265.36
909.584	298.13
909.959	263.02
910.334	326.21
910.709	309.83
911.084	361.32
911.459	312.17
911.834	281.74
912.209	284.08
912.583	356.64
912.958	307.49
913.333	342.6
913.707	253.66
914.082	314.51
914.456	328.55
914.83	344.94
915.205	349.62
915.579	356.64
915.953	274.72
916.327	342.6
916.701	316.85
917.075	263.02
917.449	342.6
917.823	333.23
918.197	279.4
918.571	358.98
918.944	328.55
919.318	284.08
919.692	265.36
920.065	354.3
920.438	319.19
920.812	305.15
921.185	281.74
921.558	347.28
921.932	288.76
922.305	351.96
922.678	358.98
923.051	366
923.424	300.47
923.797	316.85
924.17	349.62
924.542	300.47
924.915	356.64
925.288	361.32
925.661	307.49
926.033	380.04
926.406	300.47
926.778	309.83
927.15	293.44
927.523	284.08
927.895	307.49
928.267	281.74
928.639	295.79
929.011	291.1
929.383	319.19
929.755	251.32
930.127	323.87
930.499	274.72
930.871	295.79
931.242	309.83
931.614	312.17
931.986	293.44
932.357	267.7
932.729	279.4
933.1	356.64
933.471	272.38
933.843	328.55
934.214	312.17
934.585	237.27
934.956	309.83
935.327	272.38
935.698	323.87
936.069	291.1
936.44	286.42
936.811	337.91
937.182	347.28
937.552	326.21
937.923	314.51
938.293	330.89
938.664	295.79
939.034	314.51
939.405	256
939.775	288.76
940.145	319.19
940.516	358.98
940.886	321.53
941.256	305.15
941.626	377.7
941.996	300.47
942.366	248.97
942.735	361.32
943.105	298.13
943.475	295.79
943.845	356.64
944.214	335.57
944.584	293.44
944.953	293.44
945.323	316.85
945.692	323.87
946.061	312.17
946.43	295.79
946.8	295.79
947.169	326.21
947.538	251.32
947.907	380.04
948.276	293.44
948.645	279.4
949.013	312.17
949.382	340.26
949.751	288.76
950.119	333.23
950.488	410.47
950.857	272.38
951.225	281.74
951.593	288.76
951.962	377.7
952.33	307.49
952.698	291.1
953.066	286.42
953.434	251.32
953.802	253.66
954.17	288.76
954.538	314.51
954.906	260.68
955.274	256
955.642	333.23
956.009	363.66
956.377	284.08
956.744	288.76
957.112	272.38
957.479	298.13
957.847	307.49
958.214	309.83
958.581	256
958.948	337.91
959.315	340.26
959.683	382.39
960.05	361.32
960.416	291.1
960.783	366
961.15	253.66
961.517	260.68
961.884	260.68
962.25	342.6
962.617	258.34
962.983	263.02
963.35	302.81
963.716	344.94
964.082	298.13
964.449	288.76
964.815	295.79
965.181	309.83
965.547	312.17
965.913	288.76
966.279	298.13
966.645	246.63
967.011	253.66
967.377	323.87
967.742	302.81
968.108	312.17
968.474	267.7
968.839	253.66
969.205	284.08
969.57	263.02
969.935	375.36
970.301	293.44
970.666	305.15
971.031	347.28
971.396	281.74
971.761	314.51
972.126	337.91
972.491	330.89
972.856	333.23
973.221	337.91
973.586	284.08
973.95	333.23
974.315	319.19
974.679	316.85
975.044	281.74
975.408	277.06
975.773	316.85
976.137	305.15
976.501	326.21
976.866	314.51
977.23	344.94
977.594	265.36
977.958	270.04
978.322	344.94
978.686	321.53
979.049	279.4
979.413	314.51
979.777	335.57
980.141	316.85
980.504	323.87
980.868	270.04
981.231	298.13
981.595	298.13
981.958	260.68
982.321	316.85
982.684	312.17
983.048	293.44
983.411	302.81
983.774	335.57
984.137	293.44
984.5	333.23
984.862	333.23
985.225	351.96
985.588	321.53
985.951	342.6
986.313	316.85
986.676	354.3
987.038	363.66
987.401	351.96
987.763	284.08
988.125	326.21
988.488	316.85
988.85	382.39
989.212	316.85
989.574	323.87
989.936	260.68
990.298	270.04
990.66	312.17
991.022	274.72
991.383	321.53
991.745	368.34
992.107	288.76
992.468	291.1
992.83	333.23
993.191	328.55
993.553	281.74
993.914	288.76
994.275	277.06
994.637	293.44
994.998	286.42
995.359	342.6
995.72	349.62
996.081	326.21
996.442	305.15
996.803	246.63
997.163	316.85
997.524	230.25
997.885	326.21
998.245	335.57
998.606	337.91
998.966	330.89
999.327	312.17
999.687	401.11
1000.047	274.72
1000.408	305.15
1000.768	328.55
1001.128	328.55
1001.488	307.49
1001.848	305.15
1002.208	302.81
1002.568	295.79
1002.927	351.96
1003.287	279.4
1003.647	335.57
1004.007	305.15
1004.366	335.57
1004.726	279.4
1005.085	344.94
1005.444	363.66
1005.804	340.26
1006.163	373.02
1006.522	321.53
1006.881	265.36
1007.24	302.81
1007.599	281.74
1007.958	260.68
1008.317	300.47
1008.676	356.64
1009.035	361.32
1009.393	295.79
1009.752	312.17
1010.111	295.79
1010.469	314.51
1010.828	326.21
1011.186	312.17
1011.544	333.23
1011.903	335.57
1012.261	344.94
1012.619	363.66
1012.977	380.04
1013.335	344.94
1013.693	302.81
1014.051	307.49
1014.409	330.89
1014.767	307.49
1015.124	330.89
1015.482	295.79
1015.84	293.44
1016.197	305.15
1016.555	298.13
1016.912	314.51
1017.269	284.08
1017.627	314.51
1017.984	316.85
1018.341	335.57
1018.698	302.81
1019.055	309.83
1019.412	326.21
1019.769	298.13
1020.126	368.34
1020.483	286.42
1020.84	333.23
1021.196	326.21
1021.553	321.53
1021.909	314.51
1022.266	321.53
1022.622	302.81
1022.979	302.81
1023.335	356.64
1023.691	330.89
1024.047	337.91
1024.404	305.15
1024.76	328.55
1025.116	328.55
1025.472	323.87
1025.827	258.34
1026.183	330.89
1026.539	337.91
1026.895	291.1
1027.25	344.94
1027.606	321.53
1027.961	323.87
1028.317	314.51
1028.672	351.96
1029.028	293.44
1029.383	272.38
1029.738	260.68
1030.093	302.81
1030.448	307.49
1030.803	319.19
1031.158	277.06
1031.513	316.85
1031.868	370.68
1032.223	321.53
1032.577	314.51
1032.932	307.49
1033.287	288.76
1033.641	340.26
1033.996	230.25
1034.35	312.17
1034.704	321.53
1035.059	302.81
1035.413	239.61
1035.767	239.61
1036.121	239.61
