Data from Al_FLMS009871__1291__16-49-39-967.txt Node

Date: Fri Mar 08 16:49:39 CST 2024
User: pe5414po
Spectrometer: FLMS00987
Trigger mode: 0
Integration Time (sec): 1.000000E-1
Scans to average: 1
Electric dark correction enabled: true
Nonlinearity correction enabled: false
Boxcar width: 0
XAxis mode: Wavelengths
Number of Pixels in Spectrum: 2048
>>>>>Begin Spectral Data<<<<<
188.938	-14.77
189.409	-14.77
189.879	-14.77
190.349	-103.71
190.819	-84.99
191.29	-106.06
191.76	-17.12
192.23	-52.22
192.7	-117.76
193.17	-99.03
193.64	-87.33
194.109	-75.63
194.579	-26.48
195.049	6.29
195.519	20.33
195.988	81.19
196.458	50.76
196.927	106.93
197.397	95.23
197.866	120.98
198.336	99.91
198.805	123.32
199.274	76.51
199.744	214.6
200.213	144.38
200.682	95.23
201.151	205.24
201.62	223.96
202.089	312.9
202.558	282.47
203.027	266.09
203.495	280.13
203.964	284.81
204.433	235.66
204.902	326.94
205.37	268.43
205.839	256.73
206.307	348.01
206.776	331.62
207.244	317.58
207.712	310.56
208.181	282.47
208.649	275.45
209.117	268.43
209.585	331.62
210.053	317.58
210.521	326.94
210.989	240.34
211.457	305.88
211.925	319.92
212.393	280.13
212.861	247.37
213.328	235.66
213.796	254.39
214.264	308.22
214.731	298.86
215.199	268.43
215.666	294.18
216.133	242.68
216.601	303.54
217.068	294.18
217.535	310.56
218.003	240.34
218.47	242.68
218.937	263.75
219.404	282.47
219.871	270.77
220.338	245.02
220.805	308.22
221.271	294.18
221.738	261.41
222.205	266.09
222.671	298.86
223.138	247.37
223.605	193.53
224.071	266.09
224.538	310.56
225.004	266.09
225.47	254.39
225.937	254.39
226.403	296.52
226.869	219.28
227.335	221.62
227.801	294.18
228.267	266.09
228.733	273.11
229.199	277.79
229.665	291.84
230.131	277.79
230.597	230.98
231.062	266.09
231.528	282.47
231.994	340.99
232.459	226.3
232.925	329.28
233.39	291.84
233.856	275.45
234.321	235.66
234.786	270.77
235.252	294.18
235.717	261.41
236.182	287.15
236.647	312.9
237.112	289.5
237.577	263.75
238.042	359.71
238.507	259.07
238.972	245.02
239.436	312.9
239.901	298.86
240.366	216.94
240.83	277.79
241.295	252.05
241.76	273.11
242.224	219.28
242.688	298.86
243.153	277.79
243.617	298.86
244.081	233.32
244.545	305.88
245.01	219.28
245.474	296.52
245.938	350.35
246.402	364.39
246.866	287.15
247.33	315.24
247.793	291.84
248.257	249.71
248.721	205.24
249.185	287.15
249.648	277.79
250.112	289.5
250.575	249.71
251.039	256.73
251.502	268.43
251.965	268.43
252.429	266.09
252.892	259.07
253.355	338.65
253.818	319.92
254.281	296.52
254.744	259.07
255.207	254.39
255.67	252.05
256.133	256.73
256.596	245.02
257.059	277.79
257.522	275.45
257.984	275.45
258.447	240.34
258.909	242.68
259.372	188.85
259.834	315.24
260.297	324.6
260.759	305.88
261.221	294.18
261.684	355.03
262.146	259.07
262.608	249.71
263.07	277.79
263.532	291.84
263.994	298.86
264.456	343.33
264.918	263.75
265.38	277.79
265.842	298.86
266.303	331.62
266.765	343.33
267.227	336.31
267.688	287.15
268.15	280.13
268.611	259.07
269.072	245.02
269.534	280.13
269.995	296.52
270.456	270.77
270.918	310.56
271.379	294.18
271.84	317.58
272.301	324.6
272.762	331.62
273.223	298.86
273.684	291.84
274.144	326.94
274.605	296.52
275.066	287.15
275.527	270.77
275.987	326.94
276.448	355.03
276.908	333.97
277.369	315.24
277.829	331.62
278.289	317.58
278.75	373.75
279.21	226.3
279.67	268.43
280.13	287.15
280.59	331.62
281.05	350.35
281.51	322.26
281.97	277.79
282.43	329.28
282.89	296.52
283.35	333.97
283.809	254.39
284.269	254.39
284.729	317.58
285.188	310.56
285.648	305.88
286.107	242.68
286.567	308.22
287.026	298.86
287.485	261.41
287.944	338.65
288.404	280.13
288.863	298.86
289.322	308.22
289.781	355.03
290.24	261.41
290.699	233.32
291.158	247.37
291.616	294.18
292.075	284.81
292.534	392.48
292.992	322.26
293.451	296.52
293.91	333.97
294.368	263.75
294.827	289.5
295.285	296.52
295.743	273.11
296.202	324.6
296.66	294.18
297.118	317.58
297.576	371.41
298.034	312.9
298.492	390.14
298.95	212.26
299.408	275.45
299.866	259.07
300.324	343.33
300.781	259.07
301.239	301.2
301.697	376.09
302.154	319.92
302.612	273.11
303.069	287.15
303.527	284.81
303.984	289.5
304.441	336.31
304.899	355.03
305.356	277.79
305.813	296.52
306.27	280.13
306.727	359.71
307.184	322.26
307.641	324.6
308.098	296.52
308.555	373.75
309.012	324.6
309.468	259.07
309.925	324.6
310.382	305.88
310.838	284.81
311.295	301.2
311.751	291.84
312.208	291.84
312.664	315.24
313.12	348.01
313.577	298.86
314.033	369.07
314.489	270.77
314.945	319.92
315.401	317.58
315.857	298.86
316.313	249.71
316.769	350.35
317.225	294.18
317.681	326.94
318.136	340.99
318.592	319.92
319.048	287.15
319.503	305.88
319.959	252.05
320.414	362.05
320.869	238
321.325	319.92
321.78	291.84
322.235	261.41
322.691	329.28
323.146	277.79
323.601	322.26
324.056	294.18
324.511	228.64
324.966	359.71
325.421	357.37
325.875	362.05
326.33	291.84
326.785	310.56
327.24	310.56
327.694	326.94
328.149	268.43
328.603	326.94
329.058	364.39
329.512	322.26
329.966	322.26
330.421	305.88
330.875	294.18
331.329	266.09
331.783	366.73
332.237	357.37
332.691	343.33
333.145	319.92
333.599	245.02
334.053	298.86
334.507	303.54
334.96	343.33
335.414	280.13
335.868	322.26
336.321	317.58
336.775	315.24
337.228	329.28
337.682	340.99
338.135	310.56
338.588	303.54
339.042	212.26
339.495	247.37
339.948	291.84
340.401	383.12
340.854	333.97
341.307	287.15
341.76	329.28
342.213	326.94
342.666	322.26
343.119	352.69
343.571	315.24
344.024	252.05
344.477	345.67
344.929	273.11
345.382	315.24
345.834	277.79
346.287	252.05
346.739	270.77
347.191	261.41
347.644	329.28
348.096	338.65
348.548	336.31
349	294.18
349.452	298.86
349.904	326.94
350.356	280.13
350.808	350.35
351.26	329.28
351.711	266.09
352.163	392.48
352.615	312.9
353.066	282.47
353.518	326.94
353.969	254.39
354.421	355.03
354.872	301.2
355.324	261.41
355.775	308.22
356.226	266.09
356.677	298.86
357.128	261.41
357.579	331.62
358.03	294.18
358.481	315.24
358.932	289.5
359.383	331.62
359.834	352.69
360.285	282.47
360.735	319.92
361.186	350.35
361.637	338.65
362.087	319.92
362.538	326.94
362.988	280.13
363.438	324.6
363.889	280.13
364.339	340.99
364.789	378.44
365.239	350.35
365.689	333.97
366.139	326.94
366.589	333.97
367.039	268.43
367.489	305.88
367.939	376.09
368.389	345.67
368.839	291.84
369.288	315.24
369.738	296.52
370.187	303.54
370.637	355.03
371.086	303.54
371.536	333.97
371.985	371.41
372.434	263.75
372.884	275.45
373.333	348.01
373.782	259.07
374.231	310.56
374.68	312.9
375.129	291.84
375.578	331.62
376.027	273.11
376.475	350.35
376.924	296.52
377.373	317.58
377.822	357.37
378.27	298.86
378.719	291.84
379.167	310.56
379.616	392.48
380.064	336.31
380.512	326.94
380.961	303.54
381.409	312.9
381.857	326.94
382.305	298.86
382.753	266.09
383.201	301.2
383.649	282.47
384.097	289.5
384.545	355.03
384.992	291.84
385.44	345.67
385.888	242.68
386.335	298.86
386.783	331.62
387.231	312.9
387.678	298.86
388.125	326.94
388.573	312.9
389.02	380.78
389.467	277.79
389.914	312.9
390.362	322.26
390.809	273.11
391.256	404.18
391.703	287.15
392.15	338.65
392.596	324.6
393.043	303.54
393.49	303.54
393.937	357.37
394.383	397.16
394.83	305.88
395.276	287.15
395.723	324.6
396.169	312.9
396.616	338.65
397.062	319.92
397.508	268.43
397.954	291.84
398.401	259.07
398.847	317.58
399.293	308.22
399.739	333.97
400.185	359.71
400.631	291.84
401.076	345.67
401.522	312.9
401.968	305.88
402.414	357.37
402.859	294.18
403.305	289.5
403.75	338.65
404.196	296.52
404.641	294.18
405.086	319.92
405.532	284.81
405.977	294.18
406.422	310.56
406.867	329.28
407.312	312.9
407.757	305.88
408.202	357.37
408.647	280.13
409.092	322.26
409.537	324.6
409.982	338.65
410.426	312.9
410.871	326.94
411.316	259.07
411.76	310.56
412.205	303.54
412.649	268.43
413.093	345.67
413.538	362.05
413.982	275.45
414.426	376.09
414.87	268.43
415.314	369.07
415.758	277.79
416.202	333.97
416.646	270.77
417.09	296.52
417.534	366.73
417.978	324.6
418.421	291.84
418.865	340.99
419.309	366.73
419.752	359.71
420.196	315.24
420.639	261.41
421.083	329.28
421.526	308.22
421.969	357.37
422.412	277.79
422.856	312.9
423.299	312.9
423.742	294.18
424.185	350.35
424.628	296.52
425.071	287.15
425.513	310.56
425.956	315.24
426.399	348.01
426.842	324.6
427.284	385.46
427.727	317.58
428.169	301.2
428.612	317.58
429.054	310.56
429.497	355.03
429.939	340.99
430.381	266.09
430.823	289.5
431.265	345.67
431.707	294.18
432.149	301.2
432.591	385.46
433.033	298.86
433.475	284.81
433.917	296.52
434.359	369.07
434.8	322.26
435.242	355.03
435.684	277.79
436.125	338.65
436.567	273.11
437.008	329.28
437.449	294.18
437.891	291.84
438.332	284.81
438.773	340.99
439.214	359.71
439.656	366.73
440.097	317.58
440.538	343.33
440.978	357.37
441.419	305.88
441.86	303.54
442.301	340.99
442.742	310.56
443.182	355.03
443.623	376.09
444.063	319.92
444.504	296.52
444.944	298.86
445.385	294.18
445.825	336.31
446.265	322.26
446.706	245.02
447.146	336.31
447.586	333.97
448.026	308.22
448.466	343.33
448.906	326.94
449.346	298.86
449.786	273.11
450.225	350.35
450.665	371.41
451.105	355.03
451.544	303.54
451.984	317.58
452.424	245.02
452.863	319.92
453.302	242.68
453.742	352.69
454.181	317.58
454.62	340.99
455.059	336.31
455.499	298.86
455.938	319.92
456.377	317.58
456.816	296.52
457.254	387.8
457.693	359.71
458.132	317.58
458.571	298.86
459.01	352.69
459.448	310.56
459.887	291.84
460.325	298.86
460.764	312.9
461.202	333.97
461.641	317.58
462.079	369.07
462.517	289.5
462.955	315.24
463.393	310.56
463.832	369.07
464.27	329.28
464.708	261.41
465.145	296.52
465.583	317.58
466.021	390.14
466.459	308.22
466.897	298.86
467.334	319.92
467.772	364.39
468.209	310.56
468.647	284.81
469.084	312.9
469.522	340.99
469.959	355.03
470.396	326.94
470.833	273.11
471.271	324.6
471.708	343.33
472.145	345.67
472.582	326.94
473.019	308.22
473.456	301.2
473.892	254.39
474.329	303.54
474.766	387.8
475.202	340.99
475.639	326.94
476.076	364.39
476.512	352.69
476.949	301.2
477.385	249.71
477.821	275.45
478.258	280.13
478.694	291.84
479.13	420.57
479.566	310.56
480.002	357.37
480.438	336.31
480.874	261.41
481.31	308.22
481.746	322.26
482.181	308.22
482.617	326.94
483.053	294.18
483.488	322.26
483.924	348.01
484.36	308.22
484.795	317.58
485.23	301.2
485.666	282.47
486.101	359.71
486.536	294.18
486.971	317.58
487.407	284.81
487.842	340.99
488.277	319.92
488.712	329.28
489.146	303.54
489.581	296.52
490.016	324.6
490.451	340.99
490.885	340.99
491.32	329.28
491.755	240.34
492.189	315.24
492.624	305.88
493.058	366.73
493.492	340.99
493.927	319.92
494.361	301.2
494.795	315.24
495.229	322.26
495.663	291.84
496.097	298.86
496.531	247.37
496.965	324.6
497.399	296.52
497.833	340.99
498.266	289.5
498.7	324.6
499.134	329.28
499.567	282.47
500.001	315.24
500.434	275.45
500.868	338.65
501.301	275.45
501.734	275.45
502.168	348.01
502.601	291.84
503.034	303.54
503.467	357.37
503.9	333.97
504.333	275.45
504.766	280.13
505.199	362.05
505.632	270.77
506.064	287.15
506.497	263.75
506.93	326.94
507.362	296.52
507.795	261.41
508.227	362.05
508.66	326.94
509.092	303.54
509.524	352.69
509.956	233.32
510.389	277.79
510.821	340.99
511.253	296.52
511.685	333.97
512.117	280.13
512.549	333.97
512.981	362.05
513.412	319.92
513.844	287.15
514.276	312.9
514.707	315.24
515.139	319.92
515.571	326.94
516.002	282.47
516.433	315.24
516.865	315.24
517.296	303.54
517.727	308.22
518.159	298.86
518.59	329.28
519.021	333.97
519.452	380.78
519.883	303.54
520.314	359.71
520.744	317.58
521.175	380.78
521.606	338.65
522.037	343.33
522.467	315.24
522.898	331.62
523.328	324.6
523.759	406.52
524.189	357.37
524.62	291.84
525.05	291.84
525.48	338.65
525.91	310.56
526.341	355.03
526.771	317.58
527.201	308.22
527.631	364.39
528.061	364.39
528.49	289.5
528.92	373.75
529.35	355.03
529.78	322.26
530.209	289.5
530.639	322.26
531.068	289.5
531.498	326.94
531.927	333.97
532.357	373.75
532.786	315.24
533.215	294.18
533.644	289.5
534.074	357.37
534.503	308.22
534.932	352.69
535.361	305.88
535.79	312.9
536.218	312.9
536.647	331.62
537.076	352.69
537.505	296.52
537.933	296.52
538.362	305.88
538.79	324.6
539.219	376.09
539.647	390.14
540.076	338.65
540.504	329.28
540.932	324.6
541.36	312.9
541.788	371.41
542.217	317.58
542.645	359.71
543.073	324.6
543.5	301.2
543.928	338.65
544.356	355.03
544.784	357.37
545.211	310.56
545.639	266.09
546.067	303.54
546.494	322.26
546.922	350.35
547.349	266.09
547.776	277.79
548.204	315.24
548.631	338.65
549.058	352.69
549.485	319.92
549.912	390.14
550.339	315.24
550.766	233.32
551.193	357.37
551.62	280.13
552.047	333.97
552.474	296.52
552.9	322.26
553.327	373.75
553.754	345.67
554.18	296.52
554.607	343.33
555.033	366.73
555.459	317.58
555.886	298.86
556.312	324.6
556.738	305.88
557.164	322.26
557.59	219.28
558.016	429.93
558.442	362.05
558.868	310.56
559.294	301.2
559.72	287.15
560.145	303.54
560.571	348.01
560.997	298.86
561.422	373.75
561.848	282.47
562.273	291.84
562.699	289.5
563.124	326.94
563.549	350.35
563.974	345.67
564.4	312.9
564.825	317.58
565.25	317.58
565.675	263.75
566.1	317.58
566.525	301.2
566.95	340.99
567.374	252.05
567.799	350.35
568.224	336.31
568.648	331.62
569.073	333.97
569.497	355.03
569.922	287.15
570.346	280.13
570.771	310.56
571.195	343.33
571.619	275.45
572.043	333.97
572.467	340.99
572.891	298.86
573.315	259.07
573.739	235.66
574.163	282.47
574.587	287.15
575.011	364.39
575.435	259.07
575.858	294.18
576.282	280.13
576.705	315.24
577.129	308.22
577.552	348.01
577.976	301.2
578.399	303.54
578.822	343.33
579.245	387.8
579.669	336.31
580.092	247.37
580.515	352.69
580.938	366.73
581.361	310.56
581.784	294.18
582.206	291.84
582.629	249.71
583.052	317.58
583.474	331.62
583.897	380.78
584.32	312.9
584.742	291.84
585.165	331.62
585.587	315.24
586.009	315.24
586.431	301.2
586.854	191.19
587.276	301.2
587.698	263.75
588.12	291.84
588.542	242.68
588.964	348.01
589.386	294.18
589.807	331.62
590.229	331.62
590.651	317.58
591.073	294.18
591.494	305.88
591.916	366.73
592.337	254.39
592.759	289.5
593.18	371.41
593.601	291.84
594.022	298.86
594.444	359.71
594.865	350.35
595.286	319.92
595.707	336.31
596.128	266.09
596.549	310.56
596.97	296.52
597.39	326.94
597.811	331.62
598.232	296.52
598.652	308.22
599.073	366.73
599.494	233.32
599.914	263.75
600.334	287.15
600.755	312.9
601.175	266.09
601.595	261.41
602.015	355.03
602.436	366.73
602.856	511.85
603.276	305.88
603.696	294.18
604.115	326.94
604.535	284.81
604.955	319.92
605.375	333.97
605.794	343.33
606.214	317.58
606.634	301.2
607.053	317.58
607.473	277.79
607.892	277.79
608.311	308.22
608.731	270.77
609.15	340.99
609.569	310.56
609.988	329.28
610.407	326.94
610.826	280.13
611.245	301.2
611.664	326.94
612.083	289.5
612.501	289.5
612.92	373.75
613.339	317.58
613.757	322.26
614.176	401.84
614.594	289.5
615.013	331.62
615.431	312.9
615.85	319.92
616.268	308.22
616.686	373.75
617.104	348.01
617.522	315.24
617.94	326.94
618.358	331.62
618.776	331.62
619.194	340.99
619.612	291.84
620.03	331.62
620.447	352.69
620.865	287.15
621.282	371.41
621.7	312.9
622.117	315.24
622.535	296.52
622.952	319.92
623.369	305.88
623.787	352.69
624.204	305.88
624.621	329.28
625.038	359.71
625.455	376.09
625.872	329.28
626.289	305.88
626.706	308.22
627.123	315.24
627.539	298.86
627.956	331.62
628.373	357.37
628.789	317.58
629.206	362.05
629.622	378.44
630.038	301.2
630.455	256.73
630.871	284.81
631.287	268.43
631.703	296.52
632.12	289.5
632.536	277.79
632.952	352.69
633.368	376.09
633.783	254.39
634.199	303.54
634.615	329.28
635.031	324.6
635.446	303.54
635.862	256.73
636.277	348.01
636.693	261.41
637.108	254.39
637.524	404.18
637.939	333.97
638.354	294.18
638.77	280.13
639.185	331.62
639.6	294.18
640.015	362.05
640.43	310.56
640.845	331.62
641.259	329.28
641.674	362.05
642.089	343.33
642.504	340.99
642.918	282.47
643.333	312.9
643.747	277.79
644.162	348.01
644.576	343.33
644.991	336.31
645.405	254.39
645.819	319.92
646.233	345.67
646.647	380.78
647.061	345.67
647.475	317.58
647.889	359.71
648.303	350.35
648.717	305.88
649.131	317.58
649.545	373.75
649.958	324.6
650.372	329.28
650.785	385.46
651.199	340.99
651.612	326.94
652.026	310.56
652.439	322.26
652.852	331.62
653.266	202.9
653.679	275.45
654.092	270.77
654.505	305.88
654.918	357.37
655.331	362.05
655.744	348.01
656.156	312.9
656.569	268.43
656.982	275.45
657.394	319.92
657.807	392.48
658.22	310.56
658.632	254.39
659.044	408.86
659.457	294.18
659.869	284.81
660.281	294.18
660.693	340.99
661.106	333.97
661.518	296.52
661.93	301.2
662.342	366.73
662.754	296.52
663.165	319.92
663.577	371.41
663.989	326.94
664.401	270.77
664.812	329.28
665.224	308.22
665.635	315.24
666.047	373.75
666.458	252.05
666.869	289.5
667.281	355.03
667.692	333.97
668.103	317.58
668.514	289.5
668.925	326.94
669.336	331.62
669.747	305.88
670.158	266.09
670.569	322.26
670.979	252.05
671.39	319.92
671.801	324.6
672.211	315.24
672.622	348.01
673.032	326.94
673.443	312.9
673.853	291.84
674.263	268.43
674.674	298.86
675.084	331.62
675.494	296.52
675.904	317.58
676.314	305.88
676.724	326.94
677.134	315.24
677.544	305.88
677.953	308.22
678.363	291.84
678.773	401.84
679.182	301.2
679.592	296.52
680.001	345.67
680.411	317.58
680.82	294.18
681.23	336.31
681.639	259.07
682.048	280.13
682.457	312.9
682.866	240.34
683.275	308.22
683.684	319.92
684.093	261.41
684.502	333.97
684.911	287.15
685.32	322.26
685.728	317.58
686.137	336.31
686.546	287.15
686.954	315.24
687.363	348.01
687.771	326.94
688.179	312.9
688.588	422.91
688.996	268.43
689.404	312.9
689.812	266.09
690.22	287.15
690.628	392.48
691.036	338.65
691.444	338.65
691.852	343.33
692.26	333.97
692.667	345.67
693.075	308.22
693.483	373.75
693.89	357.37
694.298	273.11
694.705	261.41
695.112	345.67
695.52	238
695.927	280.13
696.334	331.62
696.741	345.67
697.148	303.54
697.555	315.24
697.962	289.5
698.369	315.24
698.776	336.31
699.183	315.24
699.59	310.56
699.996	289.5
700.403	291.84
700.81	326.94
701.216	319.92
701.623	322.26
702.029	317.58
702.435	345.67
702.842	322.26
703.248	350.35
703.654	287.15
704.06	340.99
704.466	317.58
704.872	305.88
705.278	291.84
705.684	319.92
706.09	282.47
706.496	359.71
706.901	343.33
707.307	266.09
707.712	289.5
708.118	308.22
708.523	301.2
708.929	259.07
709.334	310.56
709.74	322.26
710.145	294.18
710.55	270.77
710.955	333.97
711.36	312.9
711.765	287.15
712.17	226.3
712.575	270.77
712.98	848.88
713.385	348.01
713.789	333.97
714.194	364.39
714.599	340.99
715.003	301.2
715.408	252.05
715.812	301.2
716.217	373.75
716.621	301.2
717.025	298.86
717.429	298.86
717.833	317.58
718.238	359.71
718.642	317.58
719.046	350.35
719.449	275.45
719.853	350.35
720.257	362.05
720.661	345.67
721.065	376.09
721.468	329.28
721.872	333.97
722.275	352.69
722.679	308.22
723.082	308.22
723.485	289.5
723.889	348.01
724.292	221.62
724.695	233.32
725.098	350.35
725.501	340.99
725.904	331.62
726.307	362.05
726.71	322.26
727.113	338.65
727.516	287.15
727.918	329.28
728.321	390.14
728.724	385.46
729.126	275.45
729.529	254.39
729.931	326.94
730.333	338.65
730.736	298.86
731.138	329.28
731.54	303.54
731.942	326.94
732.344	289.5
732.746	284.81
733.148	280.13
733.55	305.88
733.952	317.58
734.354	331.62
734.756	310.56
735.157	284.81
735.559	324.6
735.96	383.12
736.362	212.26
736.763	336.31
737.165	338.65
737.566	301.2
737.967	336.31
738.368	338.65
738.77	275.45
739.171	345.67
739.572	350.35
739.973	340.99
740.374	280.13
740.774	324.6
741.175	312.9
741.576	287.15
741.977	268.43
742.377	298.86
742.778	366.73
743.178	329.28
743.579	329.28
743.979	273.11
744.379	322.26
744.78	312.9
745.18	331.62
745.58	345.67
745.98	294.18
746.38	357.37
746.78	277.79
747.18	333.97
747.58	336.31
747.98	352.69
748.38	345.67
748.779	277.79
749.179	277.79
749.578	359.71
749.978	277.79
750.377	317.58
750.777	277.79
751.176	319.92
751.575	385.46
751.975	366.73
752.374	322.26
752.773	371.41
753.172	326.94
753.571	317.58
753.97	373.75
754.369	301.2
754.768	287.15
755.166	261.41
755.565	317.58
755.964	340.99
756.362	312.9
756.761	305.88
757.159	280.13
757.558	289.5
757.956	324.6
758.354	385.46
758.753	333.97
759.151	411.2
759.549	322.26
759.947	338.65
760.345	331.62
760.743	273.11
761.141	336.31
761.539	301.2
761.936	275.45
762.334	348.01
762.732	261.41
763.129	378.44
763.527	373.75
763.924	315.24
764.322	312.9
764.719	350.35
765.117	254.39
765.514	364.39
765.911	291.84
766.308	301.2
766.705	287.15
767.102	294.18
767.499	336.31
767.896	280.13
768.293	317.58
768.69	263.75
769.086	245.02
769.483	280.13
769.88	340.99
770.276	336.31
770.673	308.22
771.069	350.35
771.466	303.54
771.862	268.43
772.258	387.8
772.654	345.67
773.05	296.52
773.447	366.73
773.843	310.56
774.239	301.2
774.634	345.67
775.03	324.6
775.426	317.58
775.822	308.22
776.218	303.54
776.613	261.41
777.009	282.47
777.404	294.18
777.8	238
778.195	343.33
778.59	317.58
778.986	350.35
779.381	305.88
779.776	324.6
780.171	319.92
780.566	326.94
780.961	277.79
781.356	319.92
781.751	371.41
782.146	317.58
782.54	312.9
782.935	310.56
783.33	322.26
783.724	291.84
784.119	340.99
784.513	277.79
784.908	331.62
785.302	324.6
785.696	294.18
786.09	315.24
786.485	366.73
786.879	329.28
787.273	273.11
787.667	315.24
788.061	305.88
788.454	317.58
788.848	308.22
789.242	280.13
789.636	305.88
790.029	277.79
790.423	336.31
790.816	298.86
791.21	308.22
791.603	329.28
791.997	291.84
792.39	298.86
792.783	298.86
793.176	275.45
793.569	373.75
793.962	284.81
794.355	350.35
794.748	322.26
795.141	338.65
795.534	345.67
795.927	319.92
796.319	301.2
796.712	348.01
797.105	322.26
797.497	317.58
797.89	317.58
798.282	289.5
798.674	326.94
799.067	352.69
799.459	355.03
799.851	383.12
800.243	275.45
800.635	275.45
801.027	324.6
801.419	378.44
801.811	280.13
802.203	362.05
802.594	291.84
802.986	343.33
803.378	338.65
803.769	317.58
804.161	282.47
804.552	345.67
804.944	315.24
805.335	303.54
805.726	280.13
806.118	322.26
806.509	340.99
806.9	310.56
807.291	333.97
807.682	308.22
808.073	296.52
808.464	333.97
808.855	340.99
809.245	282.47
809.636	280.13
810.027	268.43
810.417	310.56
810.808	277.79
811.198	261.41
811.589	261.41
811.979	301.2
812.369	266.09
812.759	291.84
813.15	312.9
813.54	373.75
813.93	289.5
814.32	277.79
814.71	247.37
815.1	343.33
815.489	369.07
815.879	312.9
816.269	245.02
816.658	291.84
817.048	324.6
817.438	273.11
817.827	301.2
818.216	326.94
818.606	331.62
818.995	324.6
819.384	308.22
819.773	252.05
820.163	256.73
820.552	282.47
820.941	310.56
821.33	350.35
821.718	326.94
822.107	263.75
822.496	275.45
822.885	312.9
823.273	329.28
823.662	317.58
824.05	322.26
824.439	333.97
824.827	366.73
825.216	317.58
825.604	256.73
825.992	277.79
826.38	287.15
826.768	345.67
827.156	392.48
827.544	254.39
827.932	305.88
828.32	291.84
828.708	303.54
829.096	331.62
829.483	340.99
829.871	324.6
830.259	350.35
830.646	305.88
831.034	277.79
831.421	273.11
831.808	315.24
832.196	301.2
832.583	324.6
832.97	301.2
833.357	284.81
833.744	291.84
834.131	294.18
834.518	338.65
834.905	317.58
835.292	329.28
835.678	326.94
836.065	366.73
836.452	298.86
836.838	378.44
837.225	289.5
837.611	340.99
837.998	280.13
838.384	275.45
838.77	268.43
839.157	294.18
839.543	296.52
839.929	289.5
840.315	305.88
840.701	273.11
841.087	273.11
841.473	329.28
841.858	317.58
842.244	310.56
842.63	355.03
843.015	401.84
843.401	575.04
843.787	308.22
844.172	228.64
844.557	275.45
844.943	312.9
845.328	329.28
845.713	266.09
846.098	301.2
846.483	319.92
846.868	301.2
847.253	322.26
847.638	310.56
848.023	312.9
848.408	308.22
848.793	359.71
849.177	357.37
849.562	284.81
849.947	329.28
850.331	378.44
850.715	390.14
851.1	303.54
851.484	333.97
851.868	270.77
852.253	287.15
852.637	263.75
853.021	343.33
853.405	226.3
853.789	242.68
854.173	296.52
854.557	317.58
854.94	296.52
855.324	280.13
855.708	289.5
856.091	287.15
856.475	345.67
856.858	319.92
857.242	308.22
857.625	326.94
858.009	329.28
858.392	280.13
858.775	298.86
859.158	312.9
859.541	289.5
859.924	294.18
860.307	317.58
860.69	256.73
861.073	282.47
861.456	336.31
861.838	282.47
862.221	312.9
862.604	315.24
862.986	275.45
863.369	308.22
863.751	308.22
864.133	324.6
864.516	324.6
864.898	352.69
865.28	294.18
865.662	252.05
866.044	277.79
866.426	296.52
866.808	249.71
867.19	268.43
867.572	336.31
867.954	362.05
868.336	282.47
868.717	310.56
869.099	273.11
869.48	280.13
869.862	305.88
870.243	364.39
870.625	364.39
871.006	336.31
871.387	317.58
871.768	301.2
872.149	345.67
872.53	322.26
872.911	326.94
873.292	280.13
873.673	275.45
874.054	355.03
874.435	362.05
874.815	303.54
875.196	317.58
875.577	287.15
875.957	308.22
876.338	315.24
876.718	310.56
877.098	303.54
877.479	291.84
877.859	359.71
878.239	329.28
878.619	256.73
878.999	287.15
879.379	364.39
879.759	268.43
880.139	294.18
880.519	287.15
880.898	376.09
881.278	284.81
881.658	259.07
882.037	230.98
882.417	352.69
882.796	298.86
883.176	296.52
883.555	324.6
883.934	362.05
884.313	301.2
884.693	326.94
885.072	329.28
885.451	385.46
885.83	376.09
886.209	336.31
886.587	298.86
886.966	280.13
887.345	331.62
887.724	331.62
888.102	312.9
888.481	359.71
888.859	373.75
889.238	301.2
889.616	362.05
889.994	268.43
890.373	329.28
890.751	415.88
891.129	270.77
891.507	287.15
891.885	287.15
892.263	298.86
892.641	273.11
893.019	336.31
893.396	366.73
893.774	324.6
894.152	340.99
894.529	359.71
894.907	331.62
895.284	294.18
895.662	310.56
896.039	310.56
896.416	357.37
896.794	343.33
897.171	319.92
897.548	280.13
897.925	294.18
898.302	261.41
898.679	315.24
899.056	303.54
899.433	420.57
899.809	282.47
900.186	303.54
900.563	343.33
900.939	301.2
901.316	326.94
901.692	266.09
902.069	273.11
902.445	348.01
902.821	289.5
903.197	369.07
903.574	324.6
903.95	336.31
904.326	355.03
904.702	317.58
905.078	329.28
905.454	249.71
905.829	331.62
906.205	312.9
906.581	331.62
906.956	261.41
907.332	277.79
907.707	259.07
908.083	263.75
908.458	305.88
908.833	298.86
909.209	343.33
909.584	282.47
909.959	294.18
910.334	277.79
910.709	322.26
911.084	301.2
911.459	308.22
911.834	273.11
912.209	249.71
912.583	273.11
912.958	326.94
913.333	312.9
913.707	308.22
914.082	301.2
914.456	242.68
914.83	294.18
915.205	291.84
915.579	312.9
915.953	294.18
916.327	303.54
916.701	259.07
917.075	373.75
917.449	348.01
917.823	319.92
918.197	338.65
918.571	352.69
918.944	317.58
919.318	233.32
919.692	280.13
920.065	317.58
920.438	282.47
920.812	350.35
921.185	275.45
921.558	312.9
921.932	359.71
922.305	312.9
922.678	282.47
923.051	301.2
923.424	287.15
923.797	291.84
924.17	221.62
924.542	289.5
924.915	294.18
925.288	329.28
925.661	326.94
926.033	329.28
926.406	294.18
926.778	235.66
927.15	303.54
927.523	312.9
927.895	289.5
928.267	343.33
928.639	322.26
929.011	310.56
929.383	348.01
929.755	345.67
930.127	362.05
930.499	305.88
930.871	298.86
931.242	289.5
931.614	322.26
931.986	268.43
932.357	273.11
932.729	326.94
933.1	345.67
933.471	273.11
933.843	324.6
934.214	326.94
934.585	317.58
934.956	275.45
935.327	252.05
935.698	249.71
936.069	303.54
936.44	275.45
936.811	352.69
937.182	322.26
937.552	282.47
937.923	282.47
938.293	366.73
938.664	348.01
939.034	343.33
939.405	355.03
939.775	294.18
940.145	392.48
940.516	387.8
940.886	310.56
941.256	326.94
941.626	380.78
941.996	252.05
942.366	352.69
942.735	359.71
943.105	350.35
943.475	296.52
943.845	326.94
944.214	268.43
944.584	348.01
944.953	343.33
945.323	362.05
945.692	242.68
946.061	282.47
946.43	270.77
946.8	287.15
947.169	282.47
947.538	359.71
947.907	308.22
948.276	326.94
948.645	366.73
949.013	326.94
949.382	324.6
949.751	322.26
950.119	275.45
950.488	280.13
950.857	303.54
951.225	273.11
951.593	249.71
951.962	329.28
952.33	359.71
952.698	291.84
953.066	289.5
953.434	324.6
953.802	303.54
954.17	291.84
954.538	326.94
954.906	270.77
955.274	277.79
955.642	254.39
956.009	289.5
956.377	294.18
956.744	298.86
957.112	240.34
957.479	326.94
957.847	308.22
958.214	319.92
958.581	270.77
958.948	259.07
959.315	289.5
959.683	336.31
960.05	261.41
960.416	317.58
960.783	301.2
961.15	415.88
961.517	350.35
961.884	261.41
962.25	331.62
962.617	280.13
962.983	319.92
963.35	385.46
963.716	312.9
964.082	240.34
964.449	294.18
964.815	312.9
965.181	280.13
965.547	319.92
965.913	277.79
966.279	329.28
966.645	352.69
967.011	298.86
967.377	350.35
967.742	324.6
968.108	308.22
968.474	315.24
968.839	312.9
969.205	319.92
969.57	245.02
969.935	312.9
970.301	324.6
970.666	310.56
971.031	303.54
971.396	373.75
971.761	282.47
972.126	235.66
972.491	289.5
972.856	352.69
973.221	280.13
973.586	242.68
973.95	378.44
974.315	322.26
974.679	329.28
975.044	308.22
975.408	289.5
975.773	277.79
976.137	305.88
976.501	303.54
976.866	294.18
977.23	312.9
977.594	301.2
977.958	305.88
978.322	310.56
978.686	296.52
979.049	277.79
979.413	233.32
979.777	315.24
980.141	355.03
980.504	305.88
980.868	319.92
981.231	256.73
981.595	259.07
981.958	303.54
982.321	338.65
982.684	312.9
983.048	310.56
983.411	263.75
983.774	235.66
984.137	336.31
984.5	376.09
984.862	359.71
985.225	397.16
985.588	401.84
985.951	322.26
986.313	326.94
986.676	282.47
987.038	296.52
987.401	359.71
987.763	305.88
988.125	298.86
988.488	252.05
988.85	301.2
989.212	282.47
989.574	371.41
989.936	317.58
990.298	345.67
990.66	294.18
991.022	289.5
991.383	296.52
991.745	317.58
992.107	312.9
992.468	315.24
992.83	336.31
993.191	282.47
993.553	256.73
993.914	352.69
994.275	245.02
994.637	247.37
994.998	340.99
995.359	357.37
995.72	366.73
996.081	355.03
996.442	310.56
996.803	301.2
997.163	284.81
997.524	326.94
997.885	331.62
998.245	331.62
998.606	350.35
998.966	277.79
999.327	308.22
999.687	282.47
1000.047	301.2
1000.408	333.97
1000.768	305.88
1001.128	205.24
1001.488	284.81
1001.848	308.22
1002.208	287.15
1002.568	287.15
1002.927	340.99
1003.287	230.98
1003.647	345.67
1004.007	319.92
1004.366	287.15
1004.726	324.6
1005.085	319.92
1005.444	294.18
1005.804	280.13
1006.163	333.97
1006.522	319.92
1006.881	284.81
1007.24	319.92
1007.599	252.05
1007.958	310.56
1008.317	308.22
1008.676	357.37
1009.035	322.26
1009.393	378.44
1009.752	326.94
1010.111	364.39
1010.469	275.45
1010.828	329.28
1011.186	305.88
1011.544	280.13
1011.903	289.5
1012.261	305.88
1012.619	308.22
1012.977	287.15
1013.335	256.73
1013.693	355.03
1014.051	348.01
1014.409	261.41
1014.767	291.84
1015.124	254.39
1015.482	303.54
1015.84	364.39
1016.197	219.28
1016.555	312.9
1016.912	270.77
1017.269	254.39
1017.627	312.9
1017.984	301.2
1018.341	305.88
1018.698	312.9
1019.055	252.05
1019.412	282.47
1019.769	369.07
1020.126	305.88
1020.483	296.52
1020.84	289.5
1021.196	275.45
1021.553	259.07
1021.909	319.92
1022.266	301.2
1022.622	294.18
1022.979	315.24
1023.335	329.28
1023.691	350.35
1024.047	336.31
1024.404	296.52
1024.76	240.34
1025.116	214.6
1025.472	287.15
1025.827	284.81
1026.183	385.46
1026.539	352.69
1026.895	294.18
1027.25	310.56
1027.606	268.43
1027.961	252.05
1028.317	329.28
1028.672	319.92
1029.028	303.54
1029.383	399.5
1029.738	359.71
1030.093	326.94
1030.448	312.9
1030.803	263.75
1031.158	315.24
1031.513	333.97
1031.868	280.13
1032.223	319.92
1032.577	378.44
1032.932	305.88
1033.287	324.6
1033.641	331.62
1033.996	350.35
1034.35	287.15
1034.704	343.33
1035.059	277.79
1035.413	268.43
1035.767	268.43
1036.121	268.43
