Data from Al_FLMS009871__1289__16-49-39-766.txt Node

Date: Fri Mar 08 16:49:39 CST 2024
User: pe5414po
Spectrometer: FLMS00987
Trigger mode: 0
Integration Time (sec): 1.000000E-1
Scans to average: 1
Electric dark correction enabled: true
Nonlinearity correction enabled: false
Boxcar width: 0
XAxis mode: Wavelengths
Number of Pixels in Spectrum: 2048
>>>>>Begin Spectral Data<<<<<
188.938	-87.77
189.409	-87.77
189.879	-87.77
190.349	-113.52
190.819	-78.41
191.29	-85.43
191.76	-101.81
192.23	-78.41
192.7	-66.71
193.17	-57.34
193.64	-127.56
194.109	-59.68
194.579	-29.26
195.049	-5.85
195.519	22.24
195.988	24.58
196.458	97.13
196.927	92.45
197.397	94.79
197.866	136.92
198.336	143.94
198.805	160.33
199.274	153.31
199.744	169.69
200.213	176.71
200.682	146.28
201.151	225.86
201.62	263.31
202.089	216.5
202.558	260.97
203.027	270.33
203.495	197.78
203.964	216.5
204.433	286.72
204.902	317.14
205.37	279.69
205.839	310.12
206.307	286.72
206.776	345.23
207.244	293.74
207.712	321.82
208.181	300.76
208.649	237.56
209.117	251.61
209.585	310.12
210.053	352.25
210.521	291.4
210.989	253.95
211.457	270.33
211.925	272.67
212.393	321.82
212.861	300.76
213.328	300.76
213.796	251.61
214.264	328.85
214.731	305.44
215.199	244.59
215.666	272.67
216.133	303.1
216.601	258.63
217.068	260.97
217.535	286.72
218.003	282.03
218.47	253.95
218.937	270.33
219.404	246.93
219.871	289.06
220.338	253.95
220.805	272.67
221.271	260.97
221.738	286.72
222.205	260.97
222.671	221.18
223.138	253.95
223.605	260.97
224.071	275.01
224.538	289.06
225.004	256.29
225.47	253.95
225.937	242.25
226.403	244.59
226.869	265.65
227.335	282.03
227.801	272.67
228.267	331.19
228.733	300.76
229.199	314.8
229.665	249.27
230.131	328.85
230.597	291.4
231.062	267.99
231.528	270.33
231.994	237.56
232.459	282.03
232.925	239.9
233.39	275.01
233.856	251.61
234.321	216.5
234.786	272.67
235.252	312.46
235.717	267.99
236.182	279.69
236.647	267.99
237.112	239.9
237.577	291.4
238.042	242.25
238.507	289.06
238.972	307.78
239.436	275.01
239.901	263.31
240.366	270.33
240.83	293.74
241.295	260.97
241.76	272.67
242.224	277.35
242.688	218.84
243.153	258.63
243.617	307.78
244.081	282.03
244.545	265.65
245.01	305.44
245.474	265.65
245.938	237.56
246.402	291.4
246.866	328.85
247.33	270.33
247.793	319.48
248.257	324.16
248.721	239.9
249.185	300.76
249.648	321.82
250.112	319.48
250.575	289.06
251.039	270.33
251.502	291.4
251.965	366.29
252.429	253.95
252.892	340.55
253.355	275.01
253.818	370.97
254.281	277.35
254.744	253.95
255.207	249.27
255.67	296.08
256.133	270.33
256.596	265.65
257.059	267.99
257.522	321.82
257.984	270.33
258.447	340.55
258.909	267.99
259.372	289.06
259.834	310.12
260.297	303.1
260.759	300.76
261.221	312.46
261.684	251.61
262.146	291.4
262.608	291.4
263.07	230.54
263.532	230.54
263.994	321.82
264.456	244.59
264.918	286.72
265.38	270.33
265.842	270.33
266.303	216.5
266.765	310.12
267.227	363.95
267.688	331.19
268.15	331.19
268.611	300.76
269.072	291.4
269.534	326.5
269.995	286.72
270.456	282.03
270.918	291.4
271.379	286.72
271.84	228.2
272.301	242.25
272.762	296.08
273.223	305.44
273.684	340.55
274.144	277.35
274.605	331.19
275.066	289.06
275.527	265.65
275.987	366.29
276.448	321.82
276.908	272.67
277.369	260.97
277.829	342.89
278.289	239.9
278.75	253.95
279.21	267.99
279.67	321.82
280.13	284.38
280.59	373.32
281.05	328.85
281.51	335.87
281.97	352.25
282.43	338.21
282.89	298.42
283.35	338.21
283.809	246.93
284.269	298.42
284.729	366.29
285.188	293.74
285.648	319.48
286.107	277.35
286.567	331.19
287.026	305.44
287.485	291.4
287.944	272.67
288.404	368.63
288.863	282.03
289.322	270.33
289.781	300.76
290.24	361.61
290.699	249.27
291.158	249.27
291.616	349.91
292.075	286.72
292.534	298.42
292.992	270.33
293.451	321.82
293.91	305.44
294.368	345.23
294.827	307.78
295.285	307.78
295.743	235.22
296.202	321.82
296.66	298.42
297.118	284.38
297.576	331.19
298.034	352.25
298.492	310.12
298.95	298.42
299.408	225.86
299.866	267.99
300.324	349.91
300.781	286.72
301.239	275.01
301.697	328.85
302.154	307.78
302.612	324.16
303.069	256.29
303.527	328.85
303.984	314.8
304.441	260.97
304.899	275.01
305.356	324.16
305.813	319.48
306.27	256.29
306.727	298.42
307.184	286.72
307.641	270.33
308.098	352.25
308.555	230.54
309.012	340.55
309.468	340.55
309.925	321.82
310.382	331.19
310.838	349.91
311.295	356.93
311.751	324.16
312.208	202.46
312.664	347.57
313.12	324.16
313.577	319.48
314.033	354.59
314.489	284.38
314.945	380.34
315.401	242.25
315.857	282.03
316.313	335.87
316.769	296.08
317.225	349.91
317.681	284.38
318.136	286.72
318.592	326.5
319.048	237.56
319.503	310.12
319.959	328.85
320.414	363.95
320.869	251.61
321.325	333.53
321.78	385.02
322.235	347.57
322.691	289.06
323.146	279.69
323.601	331.19
324.056	272.67
324.511	300.76
324.966	256.29
325.421	345.23
325.875	324.16
326.33	352.25
326.785	296.08
327.24	370.97
327.694	387.36
328.149	345.23
328.603	321.82
329.058	345.23
329.512	359.27
329.966	263.31
330.421	284.38
330.875	375.66
331.329	312.46
331.783	347.57
332.237	338.21
332.691	333.53
333.145	328.85
333.599	249.27
334.053	319.48
334.507	310.12
334.96	260.97
335.414	319.48
335.868	246.93
336.321	225.86
336.775	342.89
337.228	307.78
337.682	356.93
338.135	333.53
338.588	310.12
339.042	303.1
339.495	340.55
339.948	305.44
340.401	359.27
340.854	305.44
341.307	314.8
341.76	305.44
342.213	279.69
342.666	291.4
343.119	326.5
343.571	396.72
344.024	284.38
344.477	289.06
344.929	333.53
345.382	279.69
345.834	324.16
346.287	338.21
346.739	275.01
347.191	321.82
347.644	326.5
348.096	270.33
348.548	300.76
349	258.63
349.452	338.21
349.904	275.01
350.356	317.14
350.808	366.29
351.26	279.69
351.711	328.85
352.163	324.16
352.615	303.1
353.066	333.53
353.518	321.82
353.969	324.16
354.421	326.5
354.872	356.93
355.324	359.27
355.775	352.25
356.226	293.74
356.677	303.1
357.128	366.29
357.579	300.76
358.03	284.38
358.481	314.8
358.932	324.16
359.383	300.76
359.834	380.34
360.285	370.97
360.735	279.69
361.186	293.74
361.637	356.93
362.087	256.29
362.538	368.63
362.988	331.19
363.438	291.4
363.889	347.57
364.339	333.53
364.789	324.16
365.239	310.12
365.689	333.53
366.139	342.89
366.589	279.69
367.039	331.19
367.489	333.53
367.939	289.06
368.389	321.82
368.839	321.82
369.288	305.44
369.738	307.78
370.187	345.23
370.637	300.76
371.086	310.12
371.536	284.38
371.985	321.82
372.434	317.14
372.884	333.53
373.333	305.44
373.782	352.25
374.231	319.48
374.68	312.46
375.129	345.23
375.578	363.95
376.027	382.68
376.475	319.48
376.924	338.21
377.373	363.95
377.822	317.14
378.27	335.87
378.719	347.57
379.167	305.44
379.616	265.65
380.064	340.55
380.512	312.46
380.961	263.31
381.409	303.1
381.857	342.89
382.305	300.76
382.753	263.31
383.201	347.57
383.649	267.99
384.097	246.93
384.545	347.57
384.992	342.89
385.44	300.76
385.888	293.74
386.335	394.38
386.783	338.21
387.231	307.78
387.678	366.29
388.125	282.03
388.573	328.85
389.02	277.35
389.467	331.19
389.914	314.8
390.362	347.57
390.809	342.89
391.256	260.97
391.703	319.48
392.15	335.87
392.596	305.44
393.043	265.65
393.49	275.01
393.937	305.44
394.383	289.06
394.83	270.33
395.276	267.99
395.723	305.44
396.169	293.74
396.616	279.69
397.062	340.55
397.508	382.68
397.954	317.14
398.401	263.31
398.847	321.82
399.293	399.06
399.739	284.38
400.185	359.27
400.631	328.85
401.076	370.97
401.522	335.87
401.968	305.44
402.414	267.99
402.859	324.16
403.305	284.38
403.75	251.61
404.196	275.01
404.641	340.55
405.086	326.5
405.532	305.44
405.977	293.74
406.422	314.8
406.867	366.29
407.312	303.1
407.757	260.97
408.202	380.34
408.647	321.82
409.092	361.61
409.537	361.61
409.982	401.4
410.426	265.65
410.871	441.19
411.316	396.72
411.76	303.1
412.205	279.69
412.649	296.08
413.093	263.31
413.538	333.53
413.982	328.85
414.426	326.5
414.87	335.87
415.314	347.57
415.758	345.23
416.202	361.61
416.646	284.38
417.09	363.95
417.534	352.25
417.978	340.55
418.421	335.87
418.865	305.44
419.309	307.78
419.752	359.27
420.196	338.21
420.639	256.29
421.083	303.1
421.526	307.78
421.969	328.85
422.412	291.4
422.856	286.72
423.299	277.35
423.742	349.91
424.185	319.48
424.628	342.89
425.071	317.14
425.513	270.33
425.956	333.53
426.399	342.89
426.842	335.87
427.284	298.42
427.727	270.33
428.169	307.78
428.612	335.87
429.054	406.08
429.497	312.46
429.939	359.27
430.381	303.1
430.823	363.95
431.265	375.66
431.707	314.8
432.149	277.35
432.591	286.72
433.033	349.91
433.475	380.34
433.917	275.01
434.359	373.32
434.8	293.74
435.242	272.67
435.684	335.87
436.125	361.61
436.567	354.59
437.008	296.08
437.449	380.34
437.891	260.97
438.332	289.06
438.773	256.29
439.214	378
439.656	275.01
440.097	270.33
440.538	284.38
440.978	305.44
441.419	328.85
441.86	286.72
442.301	368.63
442.742	385.02
443.182	326.5
443.623	338.21
444.063	378
444.504	347.57
444.944	314.8
445.385	298.42
445.825	272.67
446.265	282.03
446.706	314.8
447.146	373.32
447.586	317.14
448.026	305.44
448.466	300.76
448.906	368.63
449.346	293.74
449.786	321.82
450.225	279.69
450.665	347.57
451.105	310.12
451.544	282.03
451.984	338.21
452.424	392.04
452.863	333.53
453.302	324.16
453.742	342.89
454.181	356.93
454.62	378
455.059	349.91
455.499	317.14
455.938	340.55
456.377	277.35
456.816	366.29
457.254	253.95
457.693	345.23
458.132	328.85
458.571	275.01
459.01	338.21
459.448	324.16
459.887	293.74
460.325	314.8
460.764	324.16
461.202	328.85
461.641	363.95
462.079	366.29
462.517	331.19
462.955	246.93
463.393	314.8
463.832	284.38
464.27	338.21
464.708	310.12
465.145	338.21
465.583	289.06
466.021	310.12
466.459	319.48
466.897	361.61
467.334	296.08
467.772	401.4
468.209	314.8
468.647	310.12
469.084	293.74
469.522	335.87
469.959	284.38
470.396	289.06
470.833	352.25
471.271	267.99
471.708	321.82
472.145	324.16
472.582	265.65
473.019	331.19
473.456	326.5
473.892	286.72
474.329	293.74
474.766	314.8
475.202	310.12
475.639	410.76
476.076	317.14
476.512	314.8
476.949	275.01
477.385	356.93
477.821	363.95
478.258	378
478.694	340.55
479.13	296.08
479.566	333.53
480.002	331.19
480.438	333.53
480.874	328.85
481.31	293.74
481.746	260.97
482.181	291.4
482.617	373.32
483.053	314.8
483.488	282.03
483.924	317.14
484.36	286.72
484.795	359.27
485.23	349.91
485.666	333.53
486.101	331.19
486.536	275.01
486.971	319.48
487.407	324.16
487.842	289.06
488.277	277.35
488.712	361.61
489.146	310.12
489.581	335.87
490.016	317.14
490.451	340.55
490.885	317.14
491.32	370.97
491.755	326.5
492.189	303.1
492.624	370.97
493.058	354.59
493.492	326.5
493.927	307.78
494.361	352.25
494.795	340.55
495.229	307.78
495.663	326.5
496.097	335.87
496.531	303.1
496.965	319.48
497.399	331.19
497.833	312.46
498.266	354.59
498.7	291.4
499.134	296.08
499.567	286.72
500.001	286.72
500.434	289.06
500.868	370.97
501.301	303.1
501.734	331.19
502.168	373.32
502.601	345.23
503.034	312.46
503.467	324.16
503.9	305.44
504.333	349.91
504.766	354.59
505.199	380.34
505.632	284.38
506.064	284.38
506.497	300.76
506.93	368.63
507.362	317.14
507.795	338.21
508.227	370.97
508.66	300.76
509.092	277.35
509.524	293.74
509.956	333.53
510.389	326.5
510.821	300.76
511.253	321.82
511.685	314.8
512.117	368.63
512.549	307.78
512.981	324.16
513.412	389.7
513.844	317.14
514.276	239.9
514.707	363.95
515.139	354.59
515.571	340.55
516.002	275.01
516.433	373.32
516.865	359.27
517.296	260.97
517.727	272.67
518.159	319.48
518.59	303.1
519.021	300.76
519.452	321.82
519.883	305.44
520.314	361.61
520.744	272.67
521.175	296.08
521.606	305.44
522.037	349.91
522.467	335.87
522.898	300.76
523.328	289.06
523.759	317.14
524.189	342.89
524.62	307.78
525.05	356.93
525.48	312.46
525.91	373.32
526.341	270.33
526.771	312.46
527.201	347.57
527.631	314.8
528.061	340.55
528.49	326.5
528.92	333.53
529.35	300.76
529.78	293.74
530.209	342.89
530.639	289.06
531.068	326.5
531.498	370.97
531.927	361.61
532.357	349.91
532.786	321.82
533.215	335.87
533.644	312.46
534.074	307.78
534.503	310.12
534.932	319.48
535.361	298.42
535.79	338.21
536.218	335.87
536.647	272.67
537.076	370.97
537.505	298.42
537.933	272.67
538.362	279.69
538.79	352.25
539.219	312.46
539.647	326.5
540.076	300.76
540.504	340.55
540.932	326.5
541.36	305.44
541.788	331.19
542.217	310.12
542.645	239.9
543.073	270.33
543.5	293.74
543.928	282.03
544.356	352.25
544.784	382.68
545.211	279.69
545.639	347.57
546.067	347.57
546.494	349.91
546.922	354.59
547.349	317.14
547.776	296.08
548.204	370.97
548.631	333.53
549.058	373.32
549.485	368.63
549.912	363.95
550.339	307.78
550.766	331.19
551.193	335.87
551.62	253.95
552.047	354.59
552.474	293.74
552.9	221.18
553.327	331.19
553.754	333.53
554.18	340.55
554.607	253.95
555.033	303.1
555.459	263.31
555.886	284.38
556.312	356.93
556.738	310.12
557.164	310.12
557.59	324.16
558.016	342.89
558.442	333.53
558.868	356.93
559.294	324.16
559.72	345.23
560.145	307.78
560.571	317.14
560.997	244.59
561.422	340.55
561.848	331.19
562.273	321.82
562.699	321.82
563.124	394.38
563.549	328.85
563.974	314.8
564.4	319.48
564.825	342.89
565.25	324.16
565.675	296.08
566.1	335.87
566.525	361.61
566.95	349.91
567.374	340.55
567.799	331.19
568.224	293.74
568.648	307.78
569.073	277.35
569.497	310.12
569.922	258.63
570.346	319.48
570.771	331.19
571.195	284.38
571.619	370.97
572.043	289.06
572.467	296.08
572.891	286.72
573.315	347.57
573.739	251.61
574.163	331.19
574.587	279.69
575.011	331.19
575.435	324.16
575.858	363.95
576.282	310.12
576.705	359.27
577.129	263.31
577.552	289.06
577.976	331.19
578.399	319.48
578.822	324.16
579.245	352.25
579.669	321.82
580.092	286.72
580.515	338.21
580.938	387.36
581.361	275.01
581.784	263.31
582.206	363.95
582.629	282.03
583.052	342.89
583.474	328.85
583.897	310.12
584.32	321.82
584.742	291.4
585.165	279.69
585.587	314.8
586.009	310.12
586.431	319.48
586.854	328.85
587.276	289.06
587.698	335.87
588.12	314.8
588.542	356.93
588.964	417.79
589.386	382.68
589.807	331.19
590.229	335.87
590.651	356.93
591.073	345.23
591.494	275.01
591.916	342.89
592.337	312.46
592.759	263.31
593.18	298.42
593.601	338.21
594.022	298.42
594.444	328.85
594.865	300.76
595.286	298.42
595.707	338.21
596.128	321.82
596.549	356.93
596.97	366.29
597.39	349.91
597.811	328.85
598.232	277.35
598.652	267.99
599.073	277.35
599.494	370.97
599.914	319.48
600.334	293.74
600.755	359.27
601.175	331.19
601.595	349.91
602.015	277.35
602.436	333.53
602.856	380.34
603.276	310.12
603.696	300.76
604.115	298.42
604.535	335.87
604.955	270.33
605.375	324.16
605.794	366.29
606.214	307.78
606.634	326.5
607.053	307.78
607.473	256.29
607.892	385.02
608.311	359.27
608.731	373.32
609.15	312.46
609.569	319.48
609.988	366.29
610.407	286.72
610.826	382.68
611.245	385.02
611.664	310.12
612.083	282.03
612.501	349.91
612.92	303.1
613.339	305.44
613.757	328.85
614.176	328.85
614.594	314.8
615.013	300.76
615.431	335.87
615.85	314.8
616.268	300.76
616.686	321.82
617.104	310.12
617.522	303.1
617.94	303.1
618.358	324.16
618.776	342.89
619.194	328.85
619.612	375.66
620.03	310.12
620.447	335.87
620.865	293.74
621.282	300.76
621.7	361.61
622.117	352.25
622.535	368.63
622.952	286.72
623.369	267.99
623.787	317.14
624.204	298.42
624.621	244.59
625.038	326.5
625.455	382.68
625.872	275.01
626.289	321.82
626.706	361.61
627.123	335.87
627.539	275.01
627.956	291.4
628.373	361.61
628.789	340.55
629.206	340.55
629.622	272.67
630.038	314.8
630.455	307.78
630.871	342.89
631.287	272.67
631.703	361.61
632.12	298.42
632.536	307.78
632.952	303.1
633.368	314.8
633.783	256.29
634.199	298.42
634.615	335.87
635.031	267.99
635.446	331.19
635.862	305.44
636.277	303.1
636.693	289.06
637.108	359.27
637.524	361.61
637.939	392.04
638.354	399.06
638.77	303.1
639.185	300.76
639.6	265.65
640.015	293.74
640.43	256.29
640.845	296.08
641.259	342.89
641.674	394.38
642.089	282.03
642.504	314.8
642.918	331.19
643.333	321.82
643.747	370.97
644.162	291.4
644.576	303.1
644.991	380.34
645.405	310.12
645.819	359.27
646.233	291.4
646.647	366.29
647.061	326.5
647.475	319.48
647.889	328.85
648.303	338.21
648.717	347.57
649.131	354.59
649.545	286.72
649.958	272.67
650.372	347.57
650.785	352.25
651.199	293.74
651.612	354.59
652.026	296.08
652.439	342.89
652.852	382.68
653.266	314.8
653.679	298.42
654.092	251.61
654.505	270.33
654.918	289.06
655.331	321.82
655.744	289.06
656.156	246.93
656.569	317.14
656.982	289.06
657.394	291.4
657.807	317.14
658.22	356.93
658.632	321.82
659.044	335.87
659.457	338.21
659.869	279.69
660.281	361.61
660.693	263.31
661.106	326.5
661.518	300.76
661.93	363.95
662.342	317.14
662.754	352.25
663.165	363.95
663.577	314.8
663.989	289.06
664.401	340.55
664.812	354.59
665.224	321.82
665.635	284.38
666.047	270.33
666.458	305.44
666.869	345.23
667.281	300.76
667.692	380.34
668.103	317.14
668.514	317.14
668.925	331.19
669.336	314.8
669.747	326.5
670.158	363.95
670.569	312.46
670.979	319.48
671.39	382.68
671.801	312.46
672.211	326.5
672.622	286.72
673.032	267.99
673.443	303.1
673.853	305.44
674.263	321.82
674.674	317.14
675.084	335.87
675.494	310.12
675.904	331.19
676.314	291.4
676.724	317.14
677.134	307.78
677.544	282.03
677.953	253.95
678.363	389.7
678.773	373.32
679.182	275.01
679.592	310.12
680.001	385.02
680.411	307.78
680.82	354.59
681.23	300.76
681.639	380.34
682.048	319.48
682.457	312.46
682.866	429.49
683.275	328.85
683.684	396.72
684.093	342.89
684.502	258.63
684.911	303.1
685.32	291.4
685.728	319.48
686.137	312.46
686.546	260.97
686.954	253.95
687.363	342.89
687.771	310.12
688.179	352.25
688.588	246.93
688.996	272.67
689.404	246.93
689.812	310.12
690.22	326.5
690.628	361.61
691.036	366.29
691.444	333.53
691.852	314.8
692.26	335.87
692.667	326.5
693.075	324.16
693.483	256.29
693.89	279.69
694.298	275.01
694.705	340.55
695.112	373.32
695.52	263.31
695.927	298.42
696.334	300.76
696.741	300.76
697.148	349.91
697.555	291.4
697.962	326.5
698.369	366.29
698.776	342.89
699.183	338.21
699.59	375.66
699.996	335.87
700.403	314.8
700.81	373.32
701.216	338.21
701.623	286.72
702.029	354.59
702.435	331.19
702.842	298.42
703.248	263.31
703.654	260.97
704.06	317.14
704.466	342.89
704.872	303.1
705.278	338.21
705.684	392.04
706.09	321.82
706.496	279.69
706.901	319.48
707.307	314.8
707.712	312.46
708.118	291.4
708.523	317.14
708.929	352.25
709.334	275.01
709.74	282.03
710.145	328.85
710.55	317.14
710.955	392.04
711.36	296.08
711.765	267.99
712.17	366.29
712.575	275.01
712.98	953.77
713.385	387.36
713.789	265.65
714.194	272.67
714.599	277.35
715.003	326.5
715.408	310.12
715.812	291.4
716.217	328.85
716.621	349.91
717.025	354.59
717.429	286.72
717.833	356.93
718.238	342.89
718.642	319.48
719.046	284.38
719.449	228.2
719.853	366.29
720.257	331.19
720.661	305.44
721.065	347.57
721.468	282.03
721.872	324.16
722.275	333.53
722.679	307.78
723.082	338.21
723.485	338.21
723.889	275.01
724.292	326.5
724.695	275.01
725.098	347.57
725.501	305.44
725.904	282.03
726.307	303.1
726.71	342.89
727.113	324.16
727.516	340.55
727.918	370.97
728.321	328.85
728.724	335.87
729.126	354.59
729.529	347.57
729.931	289.06
730.333	342.89
730.736	335.87
731.138	256.29
731.54	263.31
731.942	293.74
732.344	284.38
732.746	340.55
733.148	310.12
733.55	314.8
733.952	333.53
734.354	305.44
734.756	296.08
735.157	305.44
735.559	345.23
735.96	331.19
736.362	298.42
736.763	326.5
737.165	265.65
737.566	340.55
737.967	352.25
738.368	326.5
738.77	270.33
739.171	296.08
739.572	300.76
739.973	303.1
740.374	359.27
740.774	349.91
741.175	307.78
741.576	324.16
741.977	286.72
742.377	328.85
742.778	319.48
743.178	387.36
743.579	363.95
743.979	373.32
744.379	258.63
744.78	310.12
745.18	352.25
745.58	317.14
745.98	279.69
746.38	387.36
746.78	342.89
747.18	275.01
747.58	312.46
747.98	326.5
748.38	244.59
748.779	331.19
749.179	300.76
749.578	314.8
749.978	265.65
750.377	291.4
750.777	300.76
751.176	272.67
751.575	293.74
751.975	319.48
752.374	347.57
752.773	385.02
753.172	319.48
753.571	328.85
753.97	352.25
754.369	361.61
754.768	291.4
755.166	310.12
755.565	352.25
755.964	275.01
756.362	382.68
756.761	277.35
757.159	314.8
757.558	373.32
757.956	300.76
758.354	303.1
758.753	363.95
759.151	317.14
759.549	321.82
759.947	361.61
760.345	296.08
760.743	382.68
761.141	289.06
761.539	324.16
761.936	335.87
762.334	317.14
762.732	340.55
763.129	265.65
763.527	345.23
763.924	321.82
764.322	223.52
764.719	352.25
765.117	310.12
765.514	260.97
765.911	272.67
766.308	345.23
766.705	321.82
767.102	328.85
767.499	298.42
767.896	263.31
768.293	335.87
768.69	296.08
769.086	352.25
769.483	284.38
769.88	277.35
770.276	382.68
770.673	354.59
771.069	373.32
771.466	338.21
771.862	303.1
772.258	307.78
772.654	298.42
773.05	312.46
773.447	333.53
773.843	352.25
774.239	298.42
774.634	368.63
775.03	356.93
775.426	406.08
775.822	298.42
776.218	354.59
776.613	296.08
777.009	319.48
777.404	296.08
777.8	265.65
778.195	293.74
778.59	298.42
778.986	352.25
779.381	265.65
779.776	305.44
780.171	291.4
780.566	359.27
780.961	335.87
781.356	263.31
781.751	289.06
782.146	305.44
782.54	324.16
782.935	331.19
783.33	319.48
783.724	359.27
784.119	284.38
784.513	321.82
784.908	300.76
785.302	328.85
785.696	291.4
786.09	305.44
786.485	347.57
786.879	305.44
787.273	314.8
787.667	253.95
788.061	363.95
788.454	314.8
788.848	415.45
789.242	335.87
789.636	352.25
790.029	298.42
790.423	275.01
790.816	361.61
791.21	331.19
791.603	284.38
791.997	349.91
792.39	356.93
792.783	279.69
793.176	342.89
793.569	314.8
793.962	296.08
794.355	305.44
794.748	359.27
795.141	298.42
795.534	331.19
795.927	260.97
796.319	298.42
796.712	370.97
797.105	363.95
797.497	333.53
797.89	298.42
798.282	279.69
798.674	321.82
799.067	321.82
799.459	232.88
799.851	303.1
800.243	363.95
800.635	300.76
801.027	324.16
801.419	368.63
801.811	272.67
802.203	331.19
802.594	314.8
802.986	345.23
803.378	338.21
803.769	361.61
804.161	356.93
804.552	284.38
804.944	317.14
805.335	291.4
805.726	289.06
806.118	324.16
806.509	305.44
806.9	279.69
807.291	282.03
807.682	265.65
808.073	289.06
808.464	345.23
808.855	312.46
809.245	385.02
809.636	310.12
810.027	340.55
810.417	317.14
810.808	300.76
811.198	319.48
811.589	253.95
811.979	296.08
812.369	251.61
812.759	291.4
813.15	352.25
813.54	286.72
813.93	289.06
814.32	275.01
814.71	296.08
815.1	321.82
815.489	392.04
815.879	340.55
816.269	300.76
816.658	363.95
817.048	338.21
817.438	317.14
817.827	338.21
818.216	328.85
818.606	242.25
818.995	282.03
819.384	345.23
819.773	296.08
820.163	328.85
820.552	293.74
820.941	347.57
821.33	335.87
821.718	242.25
822.107	296.08
822.496	319.48
822.885	347.57
823.273	251.61
823.662	293.74
824.05	303.1
824.439	253.95
824.827	286.72
825.216	326.5
825.604	314.8
825.992	328.85
826.38	310.12
826.768	317.14
827.156	317.14
827.544	317.14
827.932	366.29
828.32	277.35
828.708	354.59
829.096	293.74
829.483	312.46
829.871	319.48
830.259	349.91
830.646	331.19
831.034	310.12
831.421	347.57
831.808	305.44
832.196	389.7
832.583	324.16
832.97	310.12
833.357	328.85
833.744	321.82
834.131	312.46
834.518	368.63
834.905	310.12
835.292	352.25
835.678	310.12
836.065	347.57
836.452	347.57
836.838	249.27
837.225	307.78
837.611	352.25
837.998	291.4
838.384	225.86
838.77	354.59
839.157	298.42
839.543	354.59
839.929	333.53
840.315	300.76
840.701	275.01
841.087	265.65
841.473	340.55
841.858	293.74
842.244	291.4
842.63	286.72
843.015	305.44
843.401	605.03
843.787	319.48
844.172	296.08
844.557	242.25
844.943	359.27
845.328	349.91
845.713	356.93
846.098	331.19
846.483	265.65
846.868	291.4
847.253	314.8
847.638	300.76
848.023	216.5
848.408	333.53
848.793	338.21
849.177	340.55
849.562	272.67
849.947	305.44
850.331	363.95
850.715	370.97
851.1	253.95
851.484	272.67
851.868	303.1
852.253	303.1
852.637	354.59
853.021	305.44
853.405	314.8
853.789	328.85
854.173	310.12
854.557	335.87
854.94	326.5
855.324	307.78
855.708	375.66
856.091	277.35
856.475	289.06
856.858	260.97
857.242	335.87
857.625	361.61
858.009	349.91
858.392	340.55
858.775	312.46
859.158	340.55
859.541	359.27
859.924	347.57
860.307	300.76
860.69	314.8
861.073	366.29
861.456	282.03
861.838	319.48
862.221	375.66
862.604	237.56
862.986	324.16
863.369	272.67
863.751	310.12
864.133	310.12
864.516	314.8
864.898	345.23
865.28	300.76
865.662	324.16
866.044	342.89
866.426	349.91
866.808	303.1
867.19	356.93
867.572	335.87
867.954	345.23
868.336	352.25
868.717	333.53
869.099	328.85
869.48	279.69
869.862	270.33
870.243	406.08
870.625	335.87
871.006	333.53
871.387	321.82
871.768	326.5
872.149	314.8
872.53	331.19
872.911	331.19
873.292	282.03
873.673	326.5
874.054	279.69
874.435	324.16
874.815	286.72
875.196	310.12
875.577	378
875.957	387.36
876.338	340.55
876.718	359.27
877.098	305.44
877.479	291.4
877.859	314.8
878.239	333.53
878.619	342.89
878.999	363.95
879.379	361.61
879.759	242.25
880.139	279.69
880.519	307.78
880.898	298.42
881.278	293.74
881.658	293.74
882.037	265.65
882.417	303.1
882.796	340.55
883.176	286.72
883.555	291.4
883.934	300.76
884.313	356.93
884.693	342.89
885.072	298.42
885.451	310.12
885.83	314.8
886.209	356.93
886.587	373.32
886.966	340.55
887.345	314.8
887.724	335.87
888.102	342.89
888.481	270.33
888.859	352.25
889.238	279.69
889.616	275.01
889.994	331.19
890.373	312.46
890.751	317.14
891.129	242.25
891.507	300.76
891.885	296.08
892.263	277.35
892.641	331.19
893.019	293.74
893.396	310.12
893.774	335.87
894.152	317.14
894.529	291.4
894.907	291.4
895.284	244.59
895.662	293.74
896.039	307.78
896.416	300.76
896.794	277.35
897.171	342.89
897.548	333.53
897.925	378
898.302	338.21
898.679	331.19
899.056	293.74
899.433	312.46
899.809	361.61
900.186	267.99
900.563	277.35
900.939	258.63
901.316	338.21
901.692	321.82
902.069	340.55
902.445	293.74
902.821	270.33
903.197	310.12
903.574	300.76
903.95	267.99
904.326	328.85
904.702	289.06
905.078	300.76
905.454	361.61
905.829	293.74
906.205	282.03
906.581	321.82
906.956	319.48
907.332	298.42
907.707	352.25
908.083	310.12
908.458	291.4
908.833	338.21
909.209	335.87
909.584	331.19
909.959	300.76
910.334	366.29
910.709	277.35
911.084	284.38
911.459	305.44
911.834	342.89
912.209	305.44
912.583	326.5
912.958	291.4
913.333	321.82
913.707	321.82
914.082	340.55
914.456	335.87
914.83	319.48
915.205	314.8
915.579	291.4
915.953	319.48
916.327	307.78
916.701	328.85
917.075	321.82
917.449	347.57
917.823	333.53
918.197	317.14
918.571	300.76
918.944	319.48
919.318	314.8
919.692	387.36
920.065	326.5
920.438	300.76
920.812	267.99
921.185	359.27
921.558	319.48
921.932	331.19
922.305	324.16
922.678	331.19
923.051	333.53
923.424	338.21
923.797	328.85
924.17	307.78
924.542	324.16
924.915	298.42
925.288	333.53
925.661	310.12
926.033	312.46
926.406	275.01
926.778	298.42
927.15	321.82
927.523	380.34
927.895	324.16
928.267	328.85
928.639	284.38
929.011	291.4
929.383	340.55
929.755	354.59
930.127	328.85
930.499	328.85
930.871	267.99
931.242	263.31
931.614	275.01
931.986	305.44
932.357	333.53
932.729	331.19
933.1	197.78
933.471	305.44
933.843	312.46
934.214	368.63
934.585	385.02
934.956	282.03
935.327	326.5
935.698	310.12
936.069	249.27
936.44	333.53
936.811	328.85
937.182	312.46
937.552	361.61
937.923	349.91
938.293	289.06
938.664	267.99
939.034	286.72
939.405	354.59
939.775	324.16
940.145	279.69
940.516	275.01
940.886	307.78
941.256	303.1
941.626	279.69
941.996	335.87
942.366	296.08
942.735	303.1
943.105	333.53
943.475	321.82
943.845	307.78
944.214	312.46
944.584	305.44
944.953	298.42
945.323	347.57
945.692	326.5
946.061	314.8
946.43	349.91
946.8	345.23
947.169	310.12
947.538	298.42
947.907	373.32
948.276	352.25
948.645	331.19
949.013	286.72
949.382	321.82
949.751	256.29
950.119	298.42
950.488	272.67
950.857	312.46
951.225	324.16
951.593	310.12
951.962	349.91
952.33	300.76
952.698	272.67
953.066	279.69
953.434	296.08
953.802	314.8
954.17	277.35
954.538	324.16
954.906	307.78
955.274	275.01
955.642	321.82
956.009	345.23
956.377	303.1
956.744	293.74
957.112	333.53
957.479	253.95
957.847	326.5
958.214	314.8
958.581	342.89
958.948	326.5
959.315	352.25
959.683	373.32
960.05	345.23
960.416	303.1
960.783	335.87
961.15	340.55
961.517	275.01
961.884	275.01
962.25	314.8
962.617	326.5
962.983	333.53
963.35	356.93
963.716	300.76
964.082	335.87
964.449	326.5
964.815	307.78
965.181	211.82
965.547	314.8
965.913	228.2
966.279	298.42
966.645	340.55
967.011	251.61
967.377	326.5
967.742	342.89
968.108	260.97
968.474	300.76
968.839	307.78
969.205	349.91
969.57	345.23
969.935	303.1
970.301	253.95
970.666	303.1
971.031	385.02
971.396	284.38
971.761	356.93
972.126	314.8
972.491	338.21
972.856	338.21
973.221	380.34
973.586	277.35
973.95	387.36
974.315	380.34
974.679	282.03
975.044	312.46
975.408	279.69
975.773	300.76
976.137	307.78
976.501	328.85
976.866	314.8
977.23	303.1
977.594	310.12
977.958	303.1
978.322	352.25
978.686	293.74
979.049	296.08
979.413	333.53
979.777	258.63
980.141	331.19
980.504	342.89
980.868	335.87
981.231	242.25
981.595	246.93
981.958	286.72
982.321	335.87
982.684	237.56
983.048	289.06
983.411	314.8
983.774	373.32
984.137	359.27
984.5	328.85
984.862	265.65
985.225	256.29
985.588	298.42
985.951	394.38
986.313	328.85
986.676	258.63
987.038	319.48
987.401	298.42
987.763	253.95
988.125	263.31
988.488	298.42
988.85	324.16
989.212	340.55
989.574	300.76
989.936	249.27
990.298	260.97
990.66	289.06
991.022	370.97
991.383	286.72
991.745	340.55
992.107	265.65
992.468	378
992.83	303.1
993.191	317.14
993.553	282.03
993.914	342.89
994.275	333.53
994.637	267.99
994.998	298.42
995.359	235.22
995.72	359.27
996.081	307.78
996.442	335.87
996.803	275.01
997.163	314.8
997.524	244.59
997.885	345.23
998.245	331.19
998.606	328.85
998.966	345.23
999.327	277.35
999.687	321.82
1000.047	244.59
1000.408	282.03
1000.768	317.14
1001.128	312.46
1001.488	277.35
1001.848	253.95
1002.208	342.89
1002.568	275.01
1002.927	370.97
1003.287	340.55
1003.647	347.57
1004.007	354.59
1004.366	310.12
1004.726	270.33
1005.085	286.72
1005.444	366.29
1005.804	303.1
1006.163	319.48
1006.522	307.78
1006.881	345.23
1007.24	310.12
1007.599	305.44
1007.958	310.12
1008.317	359.27
1008.676	321.82
1009.035	314.8
1009.393	331.19
1009.752	225.86
1010.111	338.21
1010.469	356.93
1010.828	331.19
1011.186	272.67
1011.544	324.16
1011.903	296.08
1012.261	314.8
1012.619	310.12
1012.977	230.54
1013.335	307.78
1013.693	321.82
1014.051	303.1
1014.409	347.57
1014.767	256.29
1015.124	298.42
1015.482	342.89
1015.84	347.57
1016.197	324.16
1016.555	300.76
1016.912	303.1
1017.269	260.97
1017.627	342.89
1017.984	321.82
1018.341	286.72
1018.698	370.97
1019.055	354.59
1019.412	331.19
1019.769	319.48
1020.126	340.55
1020.483	293.74
1020.84	317.14
1021.196	342.89
1021.553	361.61
1021.909	403.74
1022.266	272.67
1022.622	307.78
1022.979	340.55
1023.335	321.82
1023.691	342.89
1024.047	305.44
1024.404	368.63
1024.76	352.25
1025.116	342.89
1025.472	293.74
1025.827	289.06
1026.183	417.79
1026.539	242.25
1026.895	284.38
1027.25	253.95
1027.606	349.91
1027.961	293.74
1028.317	307.78
1028.672	347.57
1029.028	394.38
1029.383	319.48
1029.738	310.12
1030.093	256.29
1030.448	333.53
1030.803	352.25
1031.158	370.97
1031.513	352.25
1031.868	328.85
1032.223	298.42
1032.577	270.33
1032.932	307.78
1033.287	242.25
1033.641	333.53
1033.996	279.69
1034.35	275.01
1034.704	312.46
1035.059	331.19
1035.413	340.55
1035.767	340.55
1036.121	340.55
