Data from Al_FLMS009871__1284__16-49-39-266.txt Node

Date: Fri Mar 08 16:49:39 CST 2024
User: pe5414po
Spectrometer: FLMS00987
Trigger mode: 0
Integration Time (sec): 1.000000E-1
Scans to average: 1
Electric dark correction enabled: true
Nonlinearity correction enabled: false
Boxcar width: 0
XAxis mode: Wavelengths
Number of Pixels in Spectrum: 2048
>>>>>Begin Spectral Data<<<<<
188.938	-88.5
189.409	-88.5
189.879	-88.5
190.349	-79.14
190.819	-55.73
191.29	-118.93
191.76	-62.76
192.23	-100.2
192.7	-90.84
193.17	-107.23
193.64	-90.84
194.109	-53.39
194.579	40.23
195.049	-67.44
195.519	44.91
195.988	58.95
196.458	40.23
196.927	77.68
197.397	126.83
197.866	117.47
198.336	185.34
198.805	199.38
199.274	115.13
199.744	199.38
200.213	161.94
200.682	197.04
201.151	143.21
201.62	175.98
202.089	213.43
202.558	274.28
203.027	281.3
203.495	269.6
203.964	281.3
204.433	281.3
204.902	269.6
205.37	201.72
205.839	267.26
206.307	281.3
206.776	248.54
207.244	351.52
207.712	325.77
208.181	297.69
208.649	295.35
209.117	307.05
209.585	297.69
210.053	314.07
210.521	243.85
210.989	264.92
211.457	290.67
211.925	248.54
212.393	307.05
212.861	215.77
213.328	260.24
213.796	318.75
214.264	302.37
214.731	281.3
215.199	271.94
215.666	248.54
216.133	295.35
216.601	260.24
217.068	253.22
217.535	300.03
218.003	241.51
218.47	330.45
218.937	225.13
219.404	225.13
219.871	187.68
220.338	215.77
220.805	241.51
221.271	239.17
221.738	257.9
222.205	229.81
222.671	220.45
223.138	271.94
223.605	283.64
224.071	288.32
224.538	255.56
225.004	204.07
225.47	187.68
225.937	232.15
226.403	257.9
226.869	250.88
227.335	220.45
227.801	257.9
228.267	253.22
228.733	293.01
229.199	318.75
229.665	278.96
230.131	246.2
230.597	300.03
231.062	269.6
231.528	285.98
231.994	295.35
232.459	255.56
232.925	300.03
233.39	295.35
233.856	250.88
234.321	293.01
234.786	283.64
235.252	257.9
235.717	288.32
236.182	183
236.647	227.47
237.112	307.05
237.577	255.56
238.042	300.03
238.507	278.96
238.972	335.14
239.436	229.81
239.901	260.24
240.366	281.3
240.83	262.58
241.295	253.22
241.76	269.6
242.224	276.62
242.688	285.98
243.153	229.81
243.617	281.3
244.081	267.26
244.545	302.37
245.01	232.15
245.474	274.28
245.938	314.07
246.402	269.6
246.866	260.24
247.33	290.67
247.793	353.86
248.257	293.01
248.721	290.67
249.185	267.26
249.648	211.09
250.112	243.85
250.575	250.88
251.039	285.98
251.502	250.88
251.965	325.77
252.429	276.62
252.892	276.62
253.355	339.82
253.818	267.26
254.281	262.58
254.744	260.24
255.207	260.24
255.67	307.05
256.133	335.14
256.596	206.41
257.059	211.09
257.522	285.98
257.984	206.41
258.447	295.35
258.909	281.3
259.372	293.01
259.834	297.69
260.297	225.13
260.759	246.2
261.221	215.77
261.684	222.79
262.146	262.58
262.608	243.85
263.07	311.73
263.532	314.07
263.994	290.67
264.456	360.88
264.918	295.35
265.38	274.28
265.842	288.32
266.303	328.11
266.765	325.77
267.227	255.56
267.688	330.45
268.15	253.22
268.611	206.41
269.072	257.9
269.534	236.83
269.995	218.11
270.456	300.03
270.918	318.75
271.379	344.5
271.84	307.05
272.301	246.2
272.762	300.03
273.223	332.79
273.684	342.16
274.144	300.03
274.605	297.69
275.066	197.04
275.527	255.56
275.987	339.82
276.448	295.35
276.908	323.43
277.369	332.79
277.829	321.09
278.289	297.69
278.75	274.28
279.21	325.77
279.67	255.56
280.13	255.56
280.59	285.98
281.05	236.83
281.51	257.9
281.97	325.77
282.43	293.01
282.89	222.79
283.35	264.92
283.809	307.05
284.269	187.68
284.729	246.2
285.188	295.35
285.648	236.83
286.107	295.35
286.567	276.62
287.026	307.05
287.485	260.24
287.944	307.05
288.404	274.28
288.863	288.32
289.322	304.71
289.781	314.07
290.24	271.94
290.699	330.45
291.158	328.11
291.616	269.6
292.075	255.56
292.534	281.3
292.992	236.83
293.451	229.81
293.91	257.9
294.368	269.6
294.827	271.94
295.285	283.64
295.743	255.56
296.202	250.88
296.66	262.58
297.118	285.98
297.576	311.73
298.034	321.09
298.492	332.79
298.95	281.3
299.408	246.2
299.866	260.24
300.324	278.96
300.781	325.77
301.239	314.07
301.697	232.15
302.154	337.48
302.612	309.39
303.069	332.79
303.527	316.41
303.984	276.62
304.441	360.88
304.899	267.26
305.356	297.69
305.813	220.45
306.27	241.51
306.727	302.37
307.184	316.41
307.641	239.17
308.098	274.28
308.555	300.03
309.012	283.64
309.468	300.03
309.925	227.47
310.382	213.43
310.838	285.98
311.295	274.28
311.751	309.39
312.208	344.5
312.664	304.71
313.12	264.92
313.577	260.24
314.033	229.81
314.489	318.75
314.945	311.73
315.401	264.92
315.857	318.75
316.313	274.28
316.769	285.98
317.225	311.73
317.681	321.09
318.136	300.03
318.592	232.15
319.048	278.96
319.503	283.64
319.959	274.28
320.414	304.71
320.869	239.17
321.325	346.84
321.78	278.96
322.235	274.28
322.691	325.77
323.146	293.01
323.601	225.13
324.056	290.67
324.511	246.2
324.966	314.07
325.421	297.69
325.875	290.67
326.33	262.58
326.785	316.41
327.24	302.37
327.694	290.67
328.149	332.79
328.603	276.62
329.058	323.43
329.512	246.2
329.966	285.98
330.421	264.92
330.875	335.14
331.329	330.45
331.783	311.73
332.237	316.41
332.691	278.96
333.145	257.9
333.599	321.09
334.053	307.05
334.507	271.94
334.96	332.79
335.414	288.32
335.868	311.73
336.321	304.71
336.775	346.84
337.228	302.37
337.682	271.94
338.135	283.64
338.588	278.96
339.042	295.35
339.495	232.15
339.948	290.67
340.401	316.41
340.854	267.26
341.307	269.6
341.76	318.75
342.213	365.56
342.666	276.62
343.119	316.41
343.571	229.81
344.024	262.58
344.477	285.98
344.929	316.41
345.382	253.22
345.834	321.09
346.287	309.39
346.739	372.58
347.191	290.67
347.644	314.07
348.096	330.45
348.548	276.62
349	276.62
349.452	304.71
349.904	325.77
350.356	321.09
350.808	311.73
351.26	307.05
351.711	269.6
352.163	295.35
352.615	255.56
353.066	353.86
353.518	323.43
353.969	239.17
354.421	264.92
354.872	293.01
355.324	281.3
355.775	288.32
356.226	325.77
356.677	363.22
357.128	349.18
357.579	295.35
358.03	248.54
358.481	332.79
358.932	309.39
359.383	250.88
359.834	321.09
360.285	278.96
360.735	353.86
361.186	328.11
361.637	285.98
362.087	278.96
362.538	239.17
362.988	290.67
363.438	253.22
363.889	297.69
364.339	295.35
364.789	316.41
365.239	314.07
365.689	360.88
366.139	314.07
366.589	316.41
367.039	285.98
367.489	349.18
367.939	283.64
368.389	344.5
368.839	239.17
369.288	321.09
369.738	269.6
370.187	260.24
370.637	337.48
371.086	283.64
371.536	264.92
371.985	300.03
372.434	295.35
372.884	276.62
373.333	288.32
373.782	274.28
374.231	285.98
374.68	269.6
375.129	321.09
375.578	281.3
376.027	255.56
376.475	321.09
376.924	281.3
377.373	297.69
377.822	351.52
378.27	349.18
378.719	307.05
379.167	290.67
379.616	262.58
380.064	255.56
380.512	227.47
380.961	257.9
381.409	323.43
381.857	262.58
382.305	325.77
382.753	241.51
383.201	316.41
383.649	297.69
384.097	300.03
384.545	300.03
384.992	365.56
385.44	351.52
385.888	314.07
386.335	328.11
386.783	328.11
387.231	314.07
387.678	260.24
388.125	255.56
388.573	300.03
389.02	314.07
389.467	283.64
389.914	295.35
390.362	218.11
390.809	295.35
391.256	325.77
391.703	358.54
392.15	274.28
392.596	339.82
393.043	344.5
393.49	318.75
393.937	260.24
394.383	316.41
394.83	344.5
395.276	295.35
395.723	314.07
396.169	337.48
396.616	323.43
397.062	374.92
397.508	278.96
397.954	274.28
398.401	323.43
398.847	274.28
399.293	290.67
399.739	323.43
400.185	269.6
400.631	288.32
401.076	321.09
401.522	281.3
401.968	316.41
402.414	285.98
402.859	332.79
403.305	311.73
403.75	304.71
404.196	337.48
404.641	307.05
405.086	302.37
405.532	264.92
405.977	288.32
406.422	281.3
406.867	351.52
407.312	288.32
407.757	269.6
408.202	295.35
408.647	295.35
409.092	293.01
409.537	281.3
409.982	257.9
410.426	307.05
410.871	288.32
411.316	278.96
411.76	328.11
412.205	278.96
412.649	285.98
413.093	332.79
413.538	356.2
413.982	211.09
414.426	314.07
414.87	297.69
415.314	302.37
415.758	309.39
416.202	311.73
416.646	335.14
417.09	290.67
417.534	335.14
417.978	262.58
418.421	264.92
418.865	276.62
419.309	351.52
419.752	281.3
420.196	285.98
420.639	325.77
421.083	264.92
421.526	316.41
421.969	271.94
422.412	311.73
422.856	332.79
423.299	325.77
423.742	271.94
424.185	337.48
424.628	250.88
425.071	278.96
425.513	267.26
425.956	276.62
426.399	285.98
426.842	356.2
427.284	276.62
427.727	307.05
428.169	293.01
428.612	302.37
429.054	332.79
429.497	321.09
429.939	290.67
430.381	264.92
430.823	330.45
431.265	283.64
431.707	269.6
432.149	300.03
432.591	311.73
433.033	316.41
433.475	293.01
433.917	360.88
434.359	337.48
434.8	278.96
435.242	351.52
435.684	321.09
436.125	255.56
436.567	304.71
437.008	234.49
437.449	302.37
437.891	283.64
438.332	344.5
438.773	339.82
439.214	300.03
439.656	283.64
440.097	288.32
440.538	328.11
440.978	311.73
441.419	360.88
441.86	274.28
442.301	318.75
442.742	290.67
443.182	311.73
443.623	353.86
444.063	278.96
444.504	314.07
444.944	281.3
445.385	293.01
445.825	257.9
446.265	384.29
446.706	255.56
447.146	328.11
447.586	288.32
448.026	288.32
448.466	262.58
448.906	293.01
449.346	304.71
449.786	342.16
450.225	271.94
450.665	328.11
451.105	255.56
451.544	302.37
451.984	311.73
452.424	304.71
452.863	365.56
453.302	335.14
453.742	307.05
454.181	297.69
454.62	372.58
455.059	239.17
455.499	328.11
455.938	271.94
456.377	281.3
456.816	314.07
457.254	288.32
457.693	239.17
458.132	253.22
458.571	248.54
459.01	302.37
459.448	323.43
459.887	255.56
460.325	267.26
460.764	278.96
461.202	283.64
461.641	302.37
462.079	307.05
462.517	293.01
462.955	276.62
463.393	283.64
463.832	260.24
464.27	300.03
464.708	302.37
465.145	344.5
465.583	316.41
466.021	314.07
466.459	295.35
466.897	278.96
467.334	295.35
467.772	332.79
468.209	255.56
468.647	363.22
469.084	314.07
469.522	297.69
469.959	363.22
470.396	283.64
470.833	309.39
471.271	307.05
471.708	271.94
472.145	253.22
472.582	297.69
473.019	332.79
473.456	314.07
473.892	351.52
474.329	300.03
474.766	318.75
475.202	372.58
475.639	344.5
476.076	293.01
476.512	300.03
476.949	271.94
477.385	309.39
477.821	342.16
478.258	311.73
478.694	290.67
479.13	267.26
479.566	318.75
480.002	297.69
480.438	288.32
480.874	290.67
481.31	293.01
481.746	309.39
482.181	309.39
482.617	304.71
483.053	248.54
483.488	311.73
483.924	248.54
484.36	267.26
484.795	283.64
485.23	316.41
485.666	293.01
486.101	269.6
486.536	316.41
486.971	302.37
487.407	295.35
487.842	274.28
488.277	309.39
488.712	346.84
489.146	293.01
489.581	325.77
490.016	283.64
490.451	281.3
490.885	314.07
491.32	307.05
491.755	271.94
492.189	335.14
492.624	295.35
493.058	349.18
493.492	328.11
493.927	300.03
494.361	290.67
494.795	274.28
495.229	307.05
495.663	323.43
496.097	262.58
496.531	271.94
496.965	208.75
497.399	360.88
497.833	302.37
498.266	304.71
498.7	346.84
499.134	316.41
499.567	302.37
500.001	302.37
500.434	283.64
500.868	314.07
501.301	243.85
501.734	264.92
502.168	283.64
502.601	302.37
503.034	307.05
503.467	342.16
503.9	293.01
504.333	321.09
504.766	269.6
505.199	342.16
505.632	246.2
506.064	344.5
506.497	335.14
506.93	295.35
507.362	274.28
507.795	325.77
508.227	295.35
508.66	351.52
509.092	260.24
509.524	330.45
509.956	285.98
510.389	278.96
510.821	405.35
511.253	271.94
511.685	325.77
512.117	339.82
512.549	276.62
512.981	297.69
513.412	290.67
513.844	267.26
514.276	358.54
514.707	288.32
515.139	290.67
515.571	300.03
516.002	302.37
516.433	363.22
516.865	276.62
517.296	290.67
517.727	300.03
518.159	307.05
518.59	346.84
519.021	335.14
519.452	328.11
519.883	309.39
520.314	271.94
520.744	342.16
521.175	318.75
521.606	243.85
522.037	295.35
522.467	309.39
522.898	264.92
523.328	328.11
523.759	304.71
524.189	288.32
524.62	248.54
525.05	339.82
525.48	360.88
525.91	353.86
526.341	267.26
526.771	264.92
527.201	297.69
527.631	236.83
528.061	309.39
528.49	297.69
528.92	269.6
529.35	300.03
529.78	344.5
530.209	267.26
530.639	281.3
531.068	271.94
531.498	346.84
531.927	300.03
532.357	302.37
532.786	342.16
533.215	295.35
533.644	314.07
534.074	257.9
534.503	325.77
534.932	293.01
535.361	283.64
535.79	344.5
536.218	232.15
536.647	309.39
537.076	297.69
537.505	311.73
537.933	309.39
538.362	314.07
538.79	271.94
539.219	281.3
539.647	264.92
540.076	271.94
540.504	288.32
540.932	295.35
541.36	271.94
541.788	311.73
542.217	304.71
542.645	342.16
543.073	316.41
543.5	309.39
543.928	321.09
544.356	297.69
544.784	335.14
545.211	328.11
545.639	304.71
546.067	349.18
546.494	356.2
546.922	239.17
547.349	337.48
547.776	330.45
548.204	302.37
548.631	300.03
549.058	316.41
549.485	281.3
549.912	269.6
550.339	325.77
550.766	271.94
551.193	285.98
551.62	328.11
552.047	314.07
552.474	304.71
552.9	295.35
553.327	297.69
553.754	290.67
554.18	278.96
554.607	264.92
555.033	293.01
555.459	248.54
555.886	318.75
556.312	300.03
556.738	349.18
557.164	321.09
557.59	297.69
558.016	309.39
558.442	314.07
558.868	321.09
559.294	344.5
559.72	243.85
560.145	300.03
560.571	302.37
560.997	335.14
561.422	285.98
561.848	253.22
562.273	267.26
562.699	339.82
563.124	304.71
563.549	311.73
563.974	276.62
564.4	339.82
564.825	321.09
565.25	349.18
565.675	293.01
566.1	213.43
566.525	283.64
566.95	278.96
567.374	283.64
567.799	297.69
568.224	314.07
568.648	297.69
569.073	314.07
569.497	395.99
569.922	267.26
570.346	241.51
570.771	332.79
571.195	274.28
571.619	311.73
572.043	278.96
572.467	276.62
572.891	335.14
573.315	288.32
573.739	250.88
574.163	300.03
574.587	316.41
575.011	328.11
575.435	295.35
575.858	300.03
576.282	285.98
576.705	276.62
577.129	267.26
577.552	227.47
577.976	285.98
578.399	302.37
578.822	307.05
579.245	283.64
579.669	293.01
580.092	316.41
580.515	250.88
580.938	304.71
581.361	283.64
581.784	297.69
582.206	342.16
582.629	356.2
583.052	339.82
583.474	297.69
583.897	309.39
584.32	269.6
584.742	257.9
585.165	278.96
585.587	323.43
586.009	337.48
586.431	276.62
586.854	260.24
587.276	318.75
587.698	325.77
588.12	267.26
588.542	353.86
588.964	328.11
589.386	318.75
589.807	295.35
590.229	241.51
590.651	332.79
591.073	300.03
591.494	300.03
591.916	330.45
592.337	295.35
592.759	330.45
593.18	243.85
593.601	257.9
594.022	283.64
594.444	344.5
594.865	293.01
595.286	267.26
595.707	283.64
596.128	293.01
596.549	271.94
596.97	311.73
597.39	274.28
597.811	278.96
598.232	307.05
598.652	314.07
599.073	283.64
599.494	325.77
599.914	295.35
600.334	267.26
600.755	325.77
601.175	316.41
601.595	351.52
602.015	321.09
602.436	321.09
602.856	403.01
603.276	300.03
603.696	344.5
604.115	297.69
604.535	269.6
604.955	314.07
605.375	281.3
605.794	379.61
606.214	300.03
606.634	290.67
607.053	250.88
607.473	248.54
607.892	363.22
608.311	285.98
608.731	271.94
609.15	300.03
609.569	278.96
609.988	271.94
610.407	321.09
610.826	309.39
611.245	239.17
611.664	314.07
612.083	332.79
612.501	255.56
612.92	351.52
613.339	232.15
613.757	316.41
614.176	302.37
614.594	241.51
615.013	311.73
615.431	248.54
615.85	300.03
616.268	236.83
616.686	267.26
617.104	250.88
617.522	302.37
617.94	323.43
618.358	250.88
618.776	321.09
619.194	318.75
619.612	302.37
620.03	316.41
620.447	323.43
620.865	419.39
621.282	267.26
621.7	297.69
622.117	290.67
622.535	283.64
622.952	295.35
623.369	363.22
623.787	346.84
624.204	285.98
624.621	335.14
625.038	278.96
625.455	365.56
625.872	271.94
626.289	344.5
626.706	309.39
627.123	318.75
627.539	328.11
627.956	337.48
628.373	285.98
628.789	304.71
629.206	323.43
629.622	295.35
630.038	323.43
630.455	255.56
630.871	283.64
631.287	250.88
631.703	297.69
632.12	330.45
632.536	335.14
632.952	274.28
633.368	290.67
633.783	281.3
634.199	297.69
634.615	332.79
635.031	250.88
635.446	271.94
635.862	337.48
636.277	262.58
636.693	307.05
637.108	346.84
637.524	295.35
637.939	257.9
638.354	323.43
638.77	243.85
639.185	290.67
639.6	316.41
640.015	213.43
640.43	339.82
640.845	285.98
641.259	290.67
641.674	300.03
642.089	370.24
642.504	358.54
642.918	250.88
643.333	267.26
643.747	314.07
644.162	269.6
644.576	297.69
644.991	257.9
645.405	278.96
645.819	316.41
646.233	290.67
646.647	304.71
647.061	339.82
647.475	370.24
647.889	314.07
648.303	360.88
648.717	274.28
649.131	241.51
649.545	321.09
649.958	255.56
650.372	316.41
650.785	302.37
651.199	365.56
651.612	311.73
652.026	335.14
652.439	290.67
652.852	307.05
653.266	346.84
653.679	302.37
654.092	262.58
654.505	290.67
654.918	281.3
655.331	332.79
655.744	255.56
656.156	304.71
656.569	295.35
656.982	384.29
657.394	316.41
657.807	250.88
658.22	330.45
658.632	344.5
659.044	309.39
659.457	281.3
659.869	309.39
660.281	311.73
660.693	276.62
661.106	351.52
661.518	281.3
661.93	295.35
662.342	297.69
662.754	302.37
663.165	353.86
663.577	337.48
663.989	274.28
664.401	342.16
664.812	283.64
665.224	295.35
665.635	300.03
666.047	274.28
666.458	255.56
666.869	302.37
667.281	293.01
667.692	271.94
668.103	335.14
668.514	302.37
668.925	278.96
669.336	321.09
669.747	351.52
670.158	295.35
670.569	264.92
670.979	328.11
671.39	349.18
671.801	302.37
672.211	330.45
672.622	372.58
673.032	328.11
673.443	302.37
673.853	283.64
674.263	316.41
674.674	398.33
675.084	290.67
675.494	278.96
675.904	311.73
676.314	374.92
676.724	330.45
677.134	314.07
677.544	337.48
677.953	288.32
678.363	295.35
678.773	344.5
679.182	274.28
679.592	337.48
680.001	285.98
680.411	307.05
680.82	290.67
681.23	367.9
681.639	304.71
682.048	274.28
682.457	318.75
682.866	314.07
683.275	307.05
683.684	241.51
684.093	358.54
684.502	281.3
684.911	353.86
685.32	271.94
685.728	342.16
686.137	260.24
686.546	337.48
686.954	323.43
687.363	318.75
687.771	278.96
688.179	276.62
688.588	257.9
688.996	283.64
689.404	285.98
689.812	337.48
690.22	269.6
690.628	367.9
691.036	293.01
691.444	264.92
691.852	243.85
692.26	248.54
692.667	335.14
693.075	307.05
693.483	288.32
693.89	346.84
694.298	330.45
694.705	304.71
695.112	290.67
695.52	271.94
695.927	262.58
696.334	391.31
696.741	297.69
697.148	281.3
697.555	332.79
697.962	276.62
698.369	271.94
698.776	323.43
699.183	276.62
699.59	335.14
699.996	274.28
700.403	304.71
700.81	283.64
701.216	269.6
701.623	267.26
702.029	316.41
702.435	283.64
702.842	297.69
703.248	248.54
703.654	274.28
704.06	271.94
704.466	339.82
704.872	248.54
705.278	297.69
705.684	297.69
706.09	290.67
706.496	321.09
706.901	283.64
707.307	318.75
707.712	346.84
708.118	281.3
708.523	269.6
708.929	260.24
709.334	300.03
709.74	360.88
710.145	304.71
710.55	225.13
710.955	304.71
711.36	248.54
711.765	293.01
712.17	339.82
712.575	253.22
712.98	840.69
713.385	316.41
713.789	288.32
714.194	316.41
714.599	304.71
715.003	276.62
715.408	248.54
715.812	257.9
716.217	271.94
716.621	349.18
717.025	302.37
717.429	316.41
717.833	288.32
718.238	328.11
718.642	264.92
719.046	321.09
719.449	290.67
719.853	309.39
720.257	262.58
720.661	349.18
721.065	288.32
721.468	295.35
721.872	267.26
722.275	323.43
722.679	250.88
723.082	356.2
723.485	274.28
723.889	283.64
724.292	311.73
724.695	337.48
725.098	351.52
725.501	232.15
725.904	288.32
726.307	297.69
726.71	342.16
727.113	349.18
727.516	295.35
727.918	276.62
728.321	300.03
728.724	246.2
729.126	283.64
729.529	330.45
729.931	325.77
730.333	332.79
730.736	297.69
731.138	302.37
731.54	321.09
731.942	323.43
732.344	307.05
732.746	239.17
733.148	311.73
733.55	302.37
733.952	325.77
734.354	276.62
734.756	297.69
735.157	274.28
735.559	236.83
735.96	304.71
736.362	293.01
736.763	271.94
737.165	330.45
737.566	307.05
737.967	269.6
738.368	339.82
738.77	304.71
739.171	307.05
739.572	248.54
739.973	332.79
740.374	288.32
740.774	274.28
741.175	370.24
741.576	278.96
741.977	288.32
742.377	229.81
742.778	302.37
743.178	344.5
743.579	285.98
743.979	314.07
744.379	297.69
744.78	321.09
745.18	309.39
745.58	293.01
745.98	241.51
746.38	332.79
746.78	288.32
747.18	328.11
747.58	311.73
747.98	271.94
748.38	344.5
748.779	262.58
749.179	262.58
749.578	269.6
749.978	328.11
750.377	243.85
750.777	351.52
751.176	290.67
751.575	332.79
751.975	290.67
752.374	253.22
752.773	297.69
753.172	262.58
753.571	316.41
753.97	323.43
754.369	267.26
754.768	285.98
755.166	360.88
755.565	342.16
755.964	316.41
756.362	335.14
756.761	232.15
757.159	297.69
757.558	283.64
757.956	328.11
758.354	309.39
758.753	290.67
759.151	328.11
759.549	311.73
759.947	300.03
760.345	248.54
760.743	276.62
761.141	300.03
761.539	293.01
761.936	328.11
762.334	297.69
762.732	302.37
763.129	332.79
763.527	311.73
763.924	309.39
764.322	290.67
764.719	264.92
765.117	302.37
765.514	264.92
765.911	206.41
766.308	267.26
766.705	307.05
767.102	250.88
767.499	330.45
767.896	234.49
768.293	311.73
768.69	337.48
769.086	351.52
769.483	250.88
769.88	346.84
770.276	307.05
770.673	314.07
771.069	288.32
771.466	290.67
771.862	276.62
772.258	220.45
772.654	349.18
773.05	323.43
773.447	309.39
773.843	293.01
774.239	330.45
774.634	274.28
775.03	307.05
775.426	314.07
775.822	316.41
776.218	288.32
776.613	307.05
777.009	323.43
777.404	283.64
777.8	314.07
778.195	314.07
778.59	271.94
778.986	227.47
779.381	330.45
779.776	297.69
780.171	278.96
780.566	262.58
780.961	349.18
781.356	367.9
781.751	337.48
782.146	267.26
782.54	346.84
782.935	325.77
783.33	302.37
783.724	304.71
784.119	353.86
784.513	267.26
784.908	318.75
785.302	302.37
785.696	255.56
786.09	314.07
786.485	302.37
786.879	309.39
787.273	339.82
787.667	307.05
788.061	316.41
788.454	194.7
788.848	220.45
789.242	246.2
789.636	276.62
790.029	295.35
790.423	262.58
790.816	241.51
791.21	283.64
791.603	278.96
791.997	269.6
792.39	342.16
792.783	281.3
793.176	297.69
793.569	295.35
793.962	295.35
794.355	288.32
794.748	314.07
795.141	281.3
795.534	227.47
795.927	297.69
796.319	332.79
796.712	297.69
797.105	276.62
797.497	311.73
797.89	267.26
798.282	283.64
798.674	309.39
799.067	274.28
799.459	255.56
799.851	269.6
800.243	213.43
800.635	356.2
801.027	307.05
801.419	269.6
801.811	262.58
802.203	300.03
802.594	276.62
802.986	290.67
803.378	309.39
803.769	257.9
804.161	332.79
804.552	283.64
804.944	276.62
805.335	314.07
805.726	349.18
806.118	278.96
806.509	321.09
806.9	307.05
807.291	302.37
807.682	241.51
808.073	290.67
808.464	297.69
808.855	257.9
809.245	311.73
809.636	197.04
810.027	300.03
810.417	318.75
810.808	278.96
811.198	264.92
811.589	346.84
811.979	300.03
812.369	318.75
812.759	285.98
813.15	283.64
813.54	300.03
813.93	318.75
814.32	300.03
814.71	321.09
815.1	269.6
815.489	295.35
815.879	314.07
816.269	257.9
816.658	335.14
817.048	342.16
817.438	274.28
817.827	321.09
818.216	260.24
818.606	267.26
818.995	302.37
819.384	250.88
819.773	321.09
820.163	271.94
820.552	344.5
820.941	311.73
821.33	342.16
821.718	302.37
822.107	365.56
822.496	304.71
822.885	311.73
823.273	283.64
823.662	241.51
824.05	351.52
824.439	372.58
824.827	274.28
825.216	311.73
825.604	356.2
825.992	278.96
826.38	257.9
826.768	283.64
827.156	297.69
827.544	309.39
827.932	300.03
828.32	316.41
828.708	246.2
829.096	290.67
829.483	309.39
829.871	295.35
830.259	314.07
830.646	246.2
831.034	234.49
831.421	403.01
831.808	302.37
832.196	330.45
832.583	307.05
832.97	295.35
833.357	379.61
833.744	269.6
834.131	278.96
834.518	304.71
834.905	297.69
835.292	311.73
835.678	253.22
836.065	285.98
836.452	274.28
836.838	309.39
837.225	255.56
837.611	290.67
837.998	297.69
838.384	372.58
838.77	295.35
839.157	311.73
839.543	314.07
839.929	332.79
840.315	271.94
840.701	311.73
841.087	335.14
841.473	297.69
841.858	288.32
842.244	281.3
842.63	321.09
843.015	318.75
843.401	571.53
843.787	360.88
844.172	304.71
844.557	302.37
844.943	384.29
845.328	328.11
845.713	260.24
846.098	302.37
846.483	297.69
846.868	323.43
847.253	267.26
847.638	248.54
848.023	293.01
848.408	290.67
848.793	302.37
849.177	307.05
849.562	311.73
849.947	269.6
850.331	239.17
850.715	307.05
851.1	323.43
851.484	297.69
851.868	300.03
852.253	288.32
852.637	351.52
853.021	330.45
853.405	342.16
853.789	285.98
854.173	267.26
854.557	302.37
854.94	307.05
855.324	255.56
855.708	297.69
856.091	246.2
856.475	297.69
856.858	314.07
857.242	344.5
857.625	285.98
858.009	227.47
858.392	285.98
858.775	293.01
859.158	332.79
859.541	264.92
859.924	208.75
860.307	288.32
860.69	283.64
861.073	293.01
861.456	302.37
861.838	264.92
862.221	290.67
862.604	269.6
862.986	260.24
863.369	302.37
863.751	307.05
864.133	276.62
864.516	295.35
864.898	257.9
865.28	330.45
865.662	285.98
866.044	264.92
866.426	363.22
866.808	246.2
867.19	297.69
867.572	288.32
867.954	325.77
868.336	309.39
868.717	293.01
869.099	262.58
869.48	356.2
869.862	276.62
870.243	318.75
870.625	236.83
871.006	332.79
871.387	304.71
871.768	302.37
872.149	243.85
872.53	339.82
872.911	269.6
873.292	311.73
873.673	325.77
874.054	365.56
874.435	335.14
874.815	267.26
875.196	288.32
875.577	332.79
875.957	290.67
876.338	211.09
876.718	335.14
877.098	285.98
877.479	316.41
877.859	318.75
878.239	316.41
878.619	309.39
878.999	311.73
879.379	300.03
879.759	285.98
880.139	328.11
880.519	314.07
880.898	307.05
881.278	285.98
881.658	349.18
882.037	342.16
882.417	297.69
882.796	314.07
883.176	339.82
883.555	288.32
883.934	293.01
884.313	323.43
884.693	227.47
885.072	255.56
885.451	342.16
885.83	293.01
886.209	316.41
886.587	339.82
886.966	222.79
887.345	293.01
887.724	213.43
888.102	285.98
888.481	293.01
888.859	276.62
889.238	321.09
889.616	276.62
889.994	363.22
890.373	321.09
890.751	321.09
891.129	307.05
891.507	232.15
891.885	318.75
892.263	344.5
892.641	288.32
893.019	314.07
893.396	281.3
893.774	309.39
894.152	309.39
894.529	285.98
894.907	278.96
895.284	295.35
895.662	267.26
896.039	267.26
896.416	283.64
896.794	262.58
897.171	321.09
897.548	250.88
897.925	297.69
898.302	293.01
898.679	253.22
899.056	250.88
899.433	328.11
899.809	267.26
900.186	274.28
900.563	271.94
900.939	309.39
901.316	285.98
901.692	307.05
902.069	260.24
902.445	285.98
902.821	332.79
903.197	260.24
903.574	248.54
903.95	234.49
904.326	330.45
904.702	325.77
905.078	304.71
905.454	288.32
905.829	360.88
906.205	278.96
906.581	281.3
906.956	269.6
907.332	328.11
907.707	330.45
908.083	257.9
908.458	267.26
908.833	281.3
909.209	370.24
909.584	250.88
909.959	316.41
910.334	316.41
910.709	346.84
911.084	321.09
911.459	309.39
911.834	234.49
912.209	285.98
912.583	276.62
912.958	293.01
913.333	304.71
913.707	304.71
914.082	293.01
914.456	274.28
914.83	307.05
915.205	283.64
915.579	288.32
915.953	255.56
916.327	246.2
916.701	285.98
917.075	274.28
917.449	290.67
917.823	330.45
918.197	297.69
918.571	349.18
918.944	297.69
919.318	323.43
919.692	278.96
920.065	318.75
920.438	269.6
920.812	229.81
921.185	293.01
921.558	271.94
921.932	225.13
922.305	290.67
922.678	232.15
923.051	311.73
923.424	337.48
923.797	332.79
924.17	295.35
924.542	300.03
924.915	330.45
925.288	290.67
925.661	293.01
926.033	353.86
926.406	351.52
926.778	321.09
927.15	276.62
927.523	302.37
927.895	304.71
928.267	288.32
928.639	283.64
929.011	339.82
929.383	274.28
929.755	316.41
930.127	267.26
930.499	302.37
930.871	269.6
931.242	321.09
931.614	318.75
931.986	339.82
932.357	288.32
932.729	290.67
933.1	260.24
933.471	220.45
933.843	274.28
934.214	314.07
934.585	314.07
934.956	328.11
935.327	264.92
935.698	335.14
936.069	307.05
936.44	274.28
936.811	337.48
937.182	241.51
937.552	314.07
937.923	314.07
938.293	288.32
938.664	271.94
939.034	309.39
939.405	278.96
939.775	274.28
940.145	267.26
940.516	379.61
940.886	243.85
941.256	304.71
941.626	302.37
941.996	218.11
942.366	330.45
942.735	328.11
943.105	302.37
943.475	297.69
943.845	330.45
944.214	222.79
944.584	309.39
944.953	325.77
945.323	318.75
945.692	325.77
946.061	257.9
946.43	271.94
946.8	360.88
947.169	257.9
947.538	262.58
947.907	293.01
948.276	351.52
948.645	321.09
949.013	293.01
949.382	318.75
949.751	260.24
950.119	283.64
950.488	278.96
950.857	283.64
951.225	337.48
951.593	370.24
951.962	321.09
952.33	304.71
952.698	250.88
953.066	239.17
953.434	307.05
953.802	288.32
954.17	321.09
954.538	300.03
954.906	264.92
955.274	262.58
955.642	318.75
956.009	316.41
956.377	290.67
956.744	302.37
957.112	300.03
957.479	332.79
957.847	267.26
958.214	318.75
958.581	297.69
958.948	276.62
959.315	293.01
959.683	321.09
960.05	290.67
960.416	295.35
960.783	330.45
961.15	297.69
961.517	321.09
961.884	337.48
962.25	260.24
962.617	278.96
962.983	360.88
963.35	339.82
963.716	290.67
964.082	276.62
964.449	262.58
964.815	283.64
965.181	325.77
965.547	304.71
965.913	325.77
966.279	300.03
966.645	264.92
967.011	281.3
967.377	339.82
967.742	295.35
968.108	239.17
968.474	325.77
968.839	281.3
969.205	260.24
969.57	288.32
969.935	358.54
970.301	271.94
970.666	285.98
971.031	342.16
971.396	314.07
971.761	213.43
972.126	337.48
972.491	302.37
972.856	367.9
973.221	283.64
973.586	285.98
973.95	332.79
974.315	269.6
974.679	269.6
975.044	288.32
975.408	339.82
975.773	278.96
976.137	267.26
976.501	314.07
976.866	323.43
977.23	311.73
977.594	290.67
977.958	218.11
978.322	269.6
978.686	293.01
979.049	278.96
979.413	314.07
979.777	302.37
980.141	314.07
980.504	297.69
980.868	314.07
981.231	274.28
981.595	260.24
981.958	288.32
982.321	285.98
982.684	264.92
983.048	227.47
983.411	314.07
983.774	337.48
984.137	321.09
984.5	297.69
984.862	274.28
985.225	372.58
985.588	332.79
985.951	260.24
986.313	332.79
986.676	274.28
987.038	257.9
987.401	255.56
987.763	346.84
988.125	283.64
988.488	264.92
988.85	307.05
989.212	297.69
989.574	281.3
989.936	330.45
990.298	194.7
990.66	304.71
991.022	229.81
991.383	253.22
991.745	283.64
992.107	271.94
992.468	255.56
992.83	293.01
993.191	314.07
993.553	302.37
993.914	276.62
994.275	311.73
994.637	232.15
994.998	283.64
995.359	335.14
995.72	330.45
996.081	269.6
996.442	234.49
996.803	325.77
997.163	248.54
997.524	227.47
997.885	314.07
998.245	318.75
998.606	285.98
998.966	316.41
999.327	194.7
999.687	269.6
1000.047	314.07
1000.408	264.92
1000.768	271.94
1001.128	332.79
1001.488	271.94
1001.848	269.6
1002.208	297.69
1002.568	295.35
1002.927	278.96
1003.287	304.71
1003.647	276.62
1004.007	276.62
1004.366	297.69
1004.726	323.43
1005.085	321.09
1005.444	283.64
1005.804	311.73
1006.163	342.16
1006.522	260.24
1006.881	264.92
1007.24	297.69
1007.599	293.01
1007.958	293.01
1008.317	342.16
1008.676	316.41
1009.035	234.49
1009.393	274.28
1009.752	278.96
1010.111	339.82
1010.469	379.61
1010.828	271.94
1011.186	283.64
1011.544	356.2
1011.903	255.56
1012.261	339.82
1012.619	262.58
1012.977	278.96
1013.335	295.35
1013.693	250.88
1014.051	325.77
1014.409	304.71
1014.767	337.48
1015.124	246.2
1015.482	332.79
1015.84	253.22
1016.197	311.73
1016.555	285.98
1016.912	330.45
1017.269	250.88
1017.627	384.29
1017.984	255.56
1018.341	316.41
1018.698	250.88
1019.055	281.3
1019.412	276.62
1019.769	274.28
1020.126	281.3
1020.483	243.85
1020.84	295.35
1021.196	353.86
1021.553	363.22
1021.909	318.75
1022.266	290.67
1022.622	250.88
1022.979	276.62
1023.335	328.11
1023.691	253.22
1024.047	234.49
1024.404	300.03
1024.76	293.01
1025.116	267.26
1025.472	314.07
1025.827	262.58
1026.183	309.39
1026.539	307.05
1026.895	321.09
1027.25	377.27
1027.606	248.54
1027.961	300.03
1028.317	323.43
1028.672	241.51
1029.028	325.77
1029.383	316.41
1029.738	351.52
1030.093	316.41
1030.448	271.94
1030.803	332.79
1031.158	281.3
1031.513	269.6
1031.868	276.62
1032.223	262.58
1032.577	274.28
1032.932	276.62
1033.287	276.62
1033.641	302.37
1033.996	332.79
1034.35	349.18
1034.704	255.56
1035.059	367.9
1035.413	283.64
1035.767	283.64
1036.121	283.64
