Data from Al_FLMS009871__896__16-17-04-725.txt Node

Date: Fri Mar 08 16:17:04 CST 2024
User: pe5414po
Spectrometer: FLMS00987
Trigger mode: 0
Integration Time (sec): 1.000000E-1
Scans to average: 1
Electric dark correction enabled: true
Nonlinearity correction enabled: false
Boxcar width: 0
XAxis mode: Wavelengths
Number of Pixels in Spectrum: 2048
>>>>>Begin Spectral Data<<<<<
188.938	-83.24
189.409	-83.24
189.879	-83.24
190.349	-90.26
190.819	-155.79
191.29	-116
191.76	-80.89
192.23	-80.89
192.7	-113.66
193.17	-90.26
193.64	-52.81
194.109	-48.13
194.579	3.36
195.049	43.15
195.519	-1.32
195.988	54.86
196.458	71.24
196.927	73.58
197.397	87.62
197.866	122.73
198.336	127.41
198.805	223.37
199.274	174.22
199.744	185.93
200.213	216.35
200.682	162.52
201.151	244.44
201.62	242.1
202.089	281.89
202.558	244.44
203.027	302.95
203.495	281.89
203.964	263.16
204.433	235.08
204.902	338.06
205.37	288.91
205.839	263.16
206.307	277.21
206.776	291.25
207.244	309.97
207.712	295.93
208.181	380.19
208.649	293.59
209.117	333.38
209.585	258.48
210.053	265.5
210.521	298.27
210.989	335.72
211.457	260.82
211.925	288.91
212.393	331.04
212.861	291.25
213.328	380.19
213.796	225.72
214.264	300.61
214.731	331.04
215.199	291.25
215.666	326.36
216.133	263.16
216.601	305.29
217.068	251.46
217.535	263.16
218.003	281.89
218.47	221.03
218.937	293.59
219.404	272.53
219.871	309.97
220.338	244.44
220.805	265.5
221.271	302.95
221.738	239.76
222.205	244.44
222.671	239.76
223.138	232.74
223.605	246.78
224.071	265.5
224.538	300.61
225.004	270.19
225.47	225.72
225.937	242.1
226.403	265.5
226.869	258.48
227.335	338.06
227.801	347.42
228.267	286.57
228.733	321.68
229.199	312.32
229.665	328.7
230.131	249.12
230.597	284.23
231.062	256.14
231.528	293.59
231.994	277.21
232.459	302.95
232.925	260.82
233.39	246.78
233.856	199.97
234.321	260.82
234.786	270.19
235.252	230.4
235.717	284.23
236.182	232.74
236.647	305.29
237.112	277.21
237.577	270.19
238.042	284.23
238.507	309.97
238.972	321.68
239.436	331.04
239.901	286.57
240.366	260.82
240.83	235.08
241.295	265.5
241.76	251.46
242.224	298.27
242.688	263.16
243.153	239.76
243.617	298.27
244.081	309.97
244.545	309.97
245.01	295.93
245.474	242.1
245.938	286.57
246.402	300.61
246.866	319.34
247.33	270.19
247.793	281.89
248.257	279.55
248.721	305.29
249.185	314.66
249.648	300.61
250.112	295.93
250.575	258.48
251.039	312.32
251.502	270.19
251.965	281.89
252.429	307.63
252.892	321.68
253.355	302.95
253.818	281.89
254.281	338.06
254.744	249.12
255.207	256.14
255.67	373.17
256.133	305.29
256.596	258.48
257.059	326.36
257.522	293.59
257.984	244.44
258.447	279.55
258.909	331.04
259.372	361.47
259.834	307.63
260.297	244.44
260.759	300.61
261.221	312.32
261.684	274.87
262.146	239.76
262.608	230.4
263.07	295.93
263.532	312.32
263.994	326.36
264.456	340.4
264.918	335.72
265.38	331.04
265.842	279.55
266.303	244.44
266.765	288.91
267.227	244.44
267.688	317
268.15	314.66
268.611	291.25
269.072	338.06
269.534	239.76
269.995	281.89
270.456	293.59
270.918	258.48
271.379	267.85
271.84	293.59
272.301	277.21
272.762	270.19
273.223	335.72
273.684	363.81
274.144	302.95
274.605	317
275.066	286.57
275.527	305.29
275.987	295.93
276.448	298.27
276.908	258.48
277.369	288.91
277.829	288.91
278.289	340.4
278.75	253.8
279.21	298.27
279.67	338.06
280.13	291.25
280.59	256.14
281.05	338.06
281.51	361.47
281.97	347.42
282.43	309.97
282.89	274.87
283.35	286.57
283.809	349.76
284.269	286.57
284.729	300.61
285.188	321.68
285.648	354.44
286.107	349.76
286.567	246.78
287.026	300.61
287.485	321.68
287.944	319.34
288.404	354.44
288.863	373.17
289.322	291.25
289.781	246.78
290.24	253.8
290.699	286.57
291.158	309.97
291.616	305.29
292.075	256.14
292.534	338.06
292.992	260.82
293.451	305.29
293.91	331.04
294.368	335.72
294.827	324.02
295.285	356.79
295.743	321.68
296.202	340.4
296.66	309.97
297.118	270.19
297.576	338.06
298.034	293.59
298.492	373.17
298.95	361.47
299.408	225.72
299.866	314.66
300.324	335.72
300.781	352.1
301.239	284.23
301.697	211.67
302.154	317
302.612	281.89
303.069	321.68
303.527	307.63
303.984	359.13
304.441	300.61
304.899	356.79
305.356	368.49
305.813	324.02
306.27	223.37
306.727	309.97
307.184	305.29
307.641	340.4
308.098	312.32
308.555	328.7
309.012	305.29
309.468	237.42
309.925	284.23
310.382	293.59
310.838	221.03
311.295	326.36
311.751	293.59
312.208	284.23
312.664	321.68
313.12	279.55
313.577	319.34
314.033	321.68
314.489	349.76
314.945	288.91
315.401	356.79
315.857	295.93
316.313	345.08
316.769	340.4
317.225	309.97
317.681	314.66
318.136	368.49
318.592	342.74
319.048	317
319.503	300.61
319.959	321.68
320.414	345.08
320.869	260.82
321.325	314.66
321.78	328.7
322.235	326.36
322.691	333.38
323.146	305.29
323.601	274.87
324.056	309.97
324.511	258.48
324.966	270.19
325.421	321.68
325.875	279.55
326.33	319.34
326.785	377.85
327.24	277.21
327.694	321.68
328.149	328.7
328.603	267.85
329.058	274.87
329.512	387.21
329.966	326.36
330.421	319.34
330.875	345.08
331.329	317
331.783	307.63
332.237	272.53
332.691	375.51
333.145	267.85
333.599	333.38
334.053	333.38
334.507	328.7
334.96	427
335.414	284.23
335.868	302.95
336.321	326.36
336.775	263.16
337.228	284.23
337.682	331.04
338.135	321.68
338.588	328.7
339.042	366.15
339.495	321.68
339.948	359.13
340.401	321.68
340.854	389.55
341.307	328.7
341.76	345.08
342.213	279.55
342.666	298.27
343.119	312.32
343.571	333.38
344.024	333.38
344.477	352.1
344.929	253.8
345.382	307.63
345.834	265.5
346.287	349.76
346.739	284.23
347.191	347.42
347.644	286.57
348.096	340.4
348.548	321.68
349	274.87
349.452	281.89
349.904	293.59
350.356	293.59
350.808	354.44
351.26	293.59
351.711	267.85
352.163	331.04
352.615	317
353.066	314.66
353.518	312.32
353.969	368.49
354.421	317
354.872	305.29
355.324	340.4
355.775	307.63
356.226	321.68
356.677	314.66
357.128	359.13
357.579	288.91
358.03	347.42
358.481	340.4
358.932	326.36
359.383	284.23
359.834	291.25
360.285	319.34
360.735	326.36
361.186	319.34
361.637	335.72
362.087	324.02
362.538	277.21
362.988	253.8
363.438	338.06
363.889	314.66
364.339	359.13
364.789	335.72
365.239	319.34
365.689	375.51
366.139	317
366.589	326.36
367.039	352.1
367.489	324.02
367.939	277.21
368.389	291.25
368.839	300.61
369.288	359.13
369.738	284.23
370.187	270.19
370.637	342.74
371.086	319.34
371.536	335.72
371.985	349.76
372.434	277.21
372.884	354.44
373.333	277.21
373.782	338.06
374.231	302.95
374.68	288.91
375.129	324.02
375.578	368.49
376.027	281.89
376.475	279.55
376.924	267.85
377.373	312.32
377.822	321.68
378.27	352.1
378.719	295.93
379.167	326.36
379.616	302.95
380.064	317
380.512	317
380.961	387.21
381.409	384.87
381.857	307.63
382.305	342.74
382.753	319.34
383.201	288.91
383.649	324.02
384.097	314.66
384.545	340.4
384.992	324.02
385.44	338.06
385.888	307.63
386.335	340.4
386.783	279.55
387.231	349.76
387.678	324.02
388.125	375.51
388.573	326.36
389.02	314.66
389.467	335.72
389.914	368.49
390.362	366.15
390.809	366.15
391.256	317
391.703	338.06
392.15	298.27
392.596	375.51
393.043	291.25
393.49	272.53
393.937	361.47
394.383	314.66
394.83	328.7
395.276	352.1
395.723	342.74
396.169	279.55
396.616	270.19
397.062	305.29
397.508	260.82
397.954	260.82
398.401	333.38
398.847	272.53
399.293	335.72
399.739	305.29
400.185	324.02
400.631	326.36
401.076	305.29
401.522	338.06
401.968	307.63
402.414	335.72
402.859	272.53
403.305	335.72
403.75	314.66
404.196	361.47
404.641	338.06
405.086	319.34
405.532	272.53
405.977	270.19
406.422	349.76
406.867	338.06
407.312	309.97
407.757	319.34
408.202	291.25
408.647	288.91
409.092	384.87
409.537	328.7
409.982	342.74
410.426	338.06
410.871	328.7
411.316	305.29
411.76	281.89
412.205	331.04
412.649	272.53
413.093	300.61
413.538	246.78
413.982	324.02
414.426	298.27
414.87	249.12
415.314	370.83
415.758	279.55
416.202	312.32
416.646	319.34
417.09	317
417.534	359.13
417.978	356.79
418.421	326.36
418.865	338.06
419.309	309.97
419.752	302.95
420.196	319.34
420.639	291.25
421.083	347.42
421.526	319.34
421.969	359.13
422.412	342.74
422.856	347.42
423.299	328.7
423.742	361.47
424.185	354.44
424.628	335.72
425.071	366.15
425.513	291.25
425.956	363.81
426.399	352.1
426.842	319.34
427.284	309.97
427.727	347.42
428.169	291.25
428.612	274.87
429.054	244.44
429.497	305.29
429.939	375.51
430.381	338.06
430.823	321.68
431.265	309.97
431.707	302.95
432.149	314.66
432.591	338.06
433.033	237.42
433.475	356.79
433.917	307.63
434.359	317
434.8	267.85
435.242	260.82
435.684	356.79
436.125	352.1
436.567	366.15
437.008	326.36
437.449	324.02
437.891	338.06
438.332	359.13
438.773	403.6
439.214	389.55
439.656	312.32
440.097	356.79
440.538	279.55
440.978	375.51
441.419	321.68
441.86	317
442.301	347.42
442.742	319.34
443.182	286.57
443.623	260.82
444.063	324.02
444.504	370.83
444.944	338.06
445.385	354.44
445.825	347.42
446.265	326.36
446.706	363.81
447.146	319.34
447.586	291.25
448.026	333.38
448.466	352.1
448.906	352.1
449.346	309.97
449.786	356.79
450.225	265.5
450.665	302.95
451.105	302.95
451.544	328.7
451.984	263.16
452.424	302.95
452.863	302.95
453.302	317
453.742	305.29
454.181	253.8
454.62	307.63
455.059	340.4
455.499	361.47
455.938	401.26
456.377	356.79
456.816	328.7
457.254	354.44
457.693	302.95
458.132	352.1
458.571	305.29
459.01	333.38
459.448	314.66
459.887	288.91
460.325	302.95
460.764	321.68
461.202	302.95
461.641	359.13
462.079	253.8
462.517	368.49
462.955	382.53
463.393	345.08
463.832	331.04
464.27	338.06
464.708	345.08
465.145	370.83
465.583	319.34
466.021	349.76
466.459	314.66
466.897	403.6
467.334	331.04
467.772	370.83
468.209	387.21
468.647	317
469.084	366.15
469.522	265.5
469.959	373.17
470.396	354.44
470.833	295.93
471.271	319.34
471.708	321.68
472.145	291.25
472.582	295.93
473.019	317
473.456	328.7
473.892	335.72
474.329	225.72
474.766	279.55
475.202	253.8
475.639	295.93
476.076	281.89
476.512	291.25
476.949	356.79
477.385	375.51
477.821	293.59
478.258	324.02
478.694	286.57
479.13	328.7
479.566	347.42
480.002	363.81
480.438	270.19
480.874	307.63
481.31	324.02
481.746	305.29
482.181	314.66
482.617	295.93
483.053	281.89
483.488	302.95
483.924	382.53
484.36	345.08
484.795	326.36
485.23	333.38
485.666	373.17
486.101	328.7
486.536	342.74
486.971	347.42
487.407	302.95
487.842	333.38
488.277	314.66
488.712	377.85
489.146	324.02
489.581	321.68
490.016	298.27
490.451	298.27
490.885	340.4
491.32	312.32
491.755	359.13
492.189	338.06
492.624	361.47
493.058	335.72
493.492	302.95
493.927	335.72
494.361	305.29
494.795	312.32
495.229	309.97
495.663	345.08
496.097	375.51
496.531	298.27
496.965	265.5
497.399	309.97
497.833	361.47
498.266	347.42
498.7	309.97
499.134	307.63
499.567	324.02
500.001	321.68
500.434	366.15
500.868	324.02
501.301	361.47
501.734	340.4
502.168	345.08
502.601	370.83
503.034	377.85
503.467	331.04
503.9	377.85
504.333	272.53
504.766	288.91
505.199	359.13
505.632	312.32
506.064	317
506.497	314.66
506.93	263.16
507.362	312.32
507.795	293.59
508.227	300.61
508.66	321.68
509.092	314.66
509.524	331.04
509.956	363.81
510.389	347.42
510.821	298.27
511.253	321.68
511.685	302.95
512.117	347.42
512.549	319.34
512.981	314.66
513.412	260.82
513.844	302.95
514.276	361.47
514.707	319.34
515.139	312.32
515.571	309.97
516.002	326.36
516.433	321.68
516.865	342.74
517.296	373.17
517.727	356.79
518.159	319.34
518.59	401.26
519.021	312.32
519.452	352.1
519.883	333.38
520.314	333.38
520.744	258.48
521.175	349.76
521.606	335.72
522.037	331.04
522.467	279.55
522.898	307.63
523.328	359.13
523.759	338.06
524.189	279.55
524.62	338.06
525.05	305.29
525.48	345.08
525.91	309.97
526.341	295.93
526.771	338.06
527.201	284.23
527.631	314.66
528.061	309.97
528.49	340.4
528.92	305.29
529.35	331.04
529.78	288.91
530.209	291.25
530.639	326.36
531.068	284.23
531.498	307.63
531.927	286.57
532.357	347.42
532.786	338.06
533.215	373.17
533.644	356.79
534.074	312.32
534.503	295.93
534.932	263.16
535.361	328.7
535.79	281.89
536.218	317
536.647	359.13
537.076	366.15
537.505	394.23
537.933	375.51
538.362	319.34
538.79	293.59
539.219	333.38
539.647	342.74
540.076	305.29
540.504	314.66
540.932	307.63
541.36	340.4
541.788	331.04
542.217	335.72
542.645	331.04
543.073	281.89
543.5	340.4
543.928	359.13
544.356	366.15
544.784	359.13
545.211	333.38
545.639	279.55
546.067	349.76
546.494	366.15
546.922	354.44
547.349	321.68
547.776	338.06
548.204	368.49
548.631	305.29
549.058	370.83
549.485	326.36
549.912	347.42
550.339	368.49
550.766	317
551.193	326.36
551.62	356.79
552.047	281.89
552.474	340.4
552.9	333.38
553.327	281.89
553.754	291.25
554.18	347.42
554.607	326.36
555.033	354.44
555.459	319.34
555.886	277.21
556.312	291.25
556.738	309.97
557.164	300.61
557.59	333.38
558.016	373.17
558.442	324.02
558.868	333.38
559.294	286.57
559.72	345.08
560.145	366.15
560.571	317
560.997	340.4
561.422	326.36
561.848	277.21
562.273	305.29
562.699	338.06
563.124	368.49
563.549	277.21
563.974	317
564.4	363.81
564.825	366.15
565.25	312.32
565.675	307.63
566.1	319.34
566.525	342.74
566.95	342.74
567.374	307.63
567.799	361.47
568.224	300.61
568.648	396.57
569.073	321.68
569.497	305.29
569.922	284.23
570.346	361.47
570.771	335.72
571.195	312.32
571.619	298.27
572.043	298.27
572.467	335.72
572.891	272.53
573.315	317
573.739	361.47
574.163	370.83
574.587	370.83
575.011	338.06
575.435	291.25
575.858	288.91
576.282	321.68
576.705	326.36
577.129	309.97
577.552	333.38
577.976	408.28
578.399	326.36
578.822	352.1
579.245	338.06
579.669	317
580.092	256.14
580.515	328.7
580.938	349.76
581.361	300.61
581.784	342.74
582.206	335.72
582.629	338.06
583.052	312.32
583.474	324.02
583.897	302.95
584.32	361.47
584.742	277.21
585.165	321.68
585.587	312.32
586.009	260.82
586.431	354.44
586.854	317
587.276	387.21
587.698	335.72
588.12	375.51
588.542	352.1
588.964	356.79
589.386	298.27
589.807	347.42
590.229	295.93
590.651	340.4
591.073	333.38
591.494	342.74
591.916	319.34
592.337	354.44
592.759	340.4
593.18	293.59
593.601	373.17
594.022	244.44
594.444	281.89
594.865	317
595.286	302.95
595.707	389.55
596.128	277.21
596.549	352.1
596.97	309.97
597.39	354.44
597.811	335.72
598.232	317
598.652	317
599.073	324.02
599.494	314.66
599.914	277.21
600.334	314.66
600.755	347.42
601.175	331.04
601.595	368.49
602.015	354.44
602.436	293.59
602.856	441.04
603.276	274.87
603.696	302.95
604.115	319.34
604.535	396.57
604.955	342.74
605.375	312.32
605.794	354.44
606.214	295.93
606.634	302.95
607.053	312.32
607.473	317
607.892	328.7
608.311	331.04
608.731	321.68
609.15	368.49
609.569	291.25
609.988	324.02
610.407	345.08
610.826	317
611.245	335.72
611.664	328.7
612.083	274.87
612.501	305.29
612.92	338.06
613.339	300.61
613.757	338.06
614.176	410.62
614.594	387.21
615.013	314.66
615.431	300.61
615.85	384.87
616.268	324.02
616.686	321.68
617.104	359.13
617.522	366.15
617.94	342.74
618.358	368.49
618.776	321.68
619.194	298.27
619.612	324.02
620.03	363.81
620.447	293.59
620.865	298.27
621.282	277.21
621.7	331.04
622.117	356.79
622.535	321.68
622.952	277.21
623.369	335.72
623.787	359.13
624.204	314.66
624.621	363.81
625.038	274.87
625.455	319.34
625.872	349.76
626.289	331.04
626.706	305.29
627.123	298.27
627.539	319.34
627.956	284.23
628.373	293.59
628.789	307.63
629.206	249.12
629.622	370.83
630.038	331.04
630.455	293.59
630.871	300.61
631.287	307.63
631.703	373.17
632.12	373.17
632.536	335.72
632.952	300.61
633.368	309.97
633.783	328.7
634.199	300.61
634.615	324.02
635.031	333.38
635.446	328.7
635.862	324.02
636.277	380.19
636.693	349.76
637.108	288.91
637.524	333.38
637.939	307.63
638.354	288.91
638.77	335.72
639.185	342.74
639.6	298.27
640.015	314.66
640.43	314.66
640.845	342.74
641.259	363.81
641.674	309.97
642.089	288.91
642.504	363.81
642.918	326.36
643.333	263.16
643.747	267.85
644.162	342.74
644.576	272.53
644.991	300.61
645.405	338.06
645.819	340.4
646.233	312.32
646.647	356.79
647.061	370.83
647.475	375.51
647.889	321.68
648.303	321.68
648.717	272.53
649.131	312.32
649.545	366.15
649.958	340.4
650.372	312.32
650.785	361.47
651.199	321.68
651.612	366.15
652.026	298.27
652.439	401.26
652.852	256.14
653.266	368.49
653.679	253.8
654.092	324.02
654.505	324.02
654.918	340.4
655.331	321.68
655.744	309.97
656.156	279.55
656.569	405.94
656.982	302.95
657.394	345.08
657.807	338.06
658.22	309.97
658.632	274.87
659.044	340.4
659.457	328.7
659.869	305.29
660.281	272.53
660.693	331.04
661.106	321.68
661.518	352.1
661.93	293.59
662.342	398.92
662.754	317
663.165	317
663.577	317
663.989	415.3
664.401	326.36
664.812	324.02
665.224	342.74
665.635	272.53
666.047	312.32
666.458	338.06
666.869	340.4
667.281	321.68
667.692	258.48
668.103	331.04
668.514	338.06
668.925	373.17
669.336	359.13
669.747	312.32
670.158	354.44
670.569	324.02
670.979	300.61
671.39	270.19
671.801	312.32
672.211	352.1
672.622	312.32
673.032	333.38
673.443	300.61
673.853	284.23
674.263	279.55
674.674	354.44
675.084	307.63
675.494	305.29
675.904	349.76
676.314	375.51
676.724	249.12
677.134	309.97
677.544	302.95
677.953	321.68
678.363	319.34
678.773	331.04
679.182	356.79
679.592	317
680.001	340.4
680.411	403.6
680.82	307.63
681.23	361.47
681.639	324.02
682.048	298.27
682.457	305.29
682.866	338.06
683.275	377.85
683.684	251.46
684.093	267.85
684.502	349.76
684.911	258.48
685.32	251.46
685.728	300.61
686.137	340.4
686.546	321.68
686.954	382.53
687.363	272.53
687.771	319.34
688.179	349.76
688.588	317
688.996	291.25
689.404	394.23
689.812	319.34
690.22	251.46
690.628	398.92
691.036	300.61
691.444	253.8
691.852	314.66
692.26	352.1
692.667	284.23
693.075	380.19
693.483	338.06
693.89	349.76
694.298	349.76
694.705	349.76
695.112	335.72
695.52	342.74
695.927	354.44
696.334	340.4
696.741	321.68
697.148	314.66
697.555	354.44
697.962	375.51
698.369	321.68
698.776	373.17
699.183	401.26
699.59	305.29
699.996	291.25
700.403	317
700.81	366.15
701.216	277.21
701.623	349.76
702.029	319.34
702.435	277.21
702.842	328.7
703.248	335.72
703.654	293.59
704.06	324.02
704.466	345.08
704.872	305.29
705.278	258.48
705.684	335.72
706.09	368.49
706.496	295.93
706.901	321.68
707.307	326.36
707.712	328.7
708.118	326.36
708.523	307.63
708.929	317
709.334	375.51
709.74	267.85
710.145	314.66
710.55	314.66
710.955	300.61
711.36	347.42
711.765	331.04
712.17	326.36
712.575	307.63
712.98	932.56
713.385	366.15
713.789	317
714.194	291.25
714.599	281.89
715.003	326.36
715.408	356.79
715.812	333.38
716.217	333.38
716.621	324.02
717.025	333.38
717.429	319.34
717.833	307.63
718.238	270.19
718.642	246.78
719.046	312.32
719.449	361.47
719.853	352.1
720.257	352.1
720.661	288.91
721.065	298.27
721.468	326.36
721.872	373.17
722.275	288.91
722.679	356.79
723.082	295.93
723.485	291.25
723.889	319.34
724.292	281.89
724.695	258.48
725.098	340.4
725.501	258.48
725.904	347.42
726.307	295.93
726.71	293.59
727.113	377.85
727.516	256.14
727.918	295.93
728.321	293.59
728.724	326.36
729.126	326.36
729.529	349.76
729.931	359.13
730.333	274.87
730.736	422.32
731.138	328.7
731.54	363.81
731.942	368.49
732.344	298.27
732.746	347.42
733.148	295.93
733.55	295.93
733.952	340.4
734.354	324.02
734.756	333.38
735.157	242.1
735.559	335.72
735.96	331.04
736.362	326.36
736.763	317
737.165	263.16
737.566	277.21
737.967	359.13
738.368	272.53
738.77	314.66
739.171	333.38
739.572	293.59
739.973	359.13
740.374	370.83
740.774	312.32
741.175	326.36
741.576	260.82
741.977	382.53
742.377	387.21
742.778	331.04
743.178	281.89
743.579	309.97
743.979	258.48
744.379	349.76
744.78	345.08
745.18	309.97
745.58	309.97
745.98	293.59
746.38	274.87
746.78	221.03
747.18	328.7
747.58	328.7
747.98	242.1
748.38	274.87
748.779	354.44
749.179	384.87
749.578	328.7
749.978	333.38
750.377	349.76
750.777	324.02
751.176	352.1
751.575	324.02
751.975	279.55
752.374	340.4
752.773	279.55
753.172	331.04
753.571	345.08
753.97	352.1
754.369	256.14
754.768	333.38
755.166	359.13
755.565	342.74
755.964	293.59
756.362	265.5
756.761	321.68
757.159	274.87
757.558	317
757.956	317
758.354	274.87
758.753	340.4
759.151	274.87
759.549	286.57
759.947	328.7
760.345	410.62
760.743	302.95
761.141	270.19
761.539	274.87
761.936	295.93
762.334	295.93
762.732	293.59
763.129	328.7
763.527	293.59
763.924	298.27
764.322	335.72
764.719	307.63
765.117	347.42
765.514	326.36
765.911	300.61
766.308	333.38
766.705	324.02
767.102	319.34
767.499	267.85
767.896	352.1
768.293	307.63
768.69	340.4
769.086	324.02
769.483	326.36
769.88	382.53
770.276	277.21
770.673	317
771.069	256.14
771.466	347.42
771.862	221.03
772.258	326.36
772.654	333.38
773.05	279.55
773.447	352.1
773.843	363.81
774.239	375.51
774.634	279.55
775.03	314.66
775.426	377.85
775.822	356.79
776.218	300.61
776.613	272.53
777.009	345.08
777.404	317
777.8	338.06
778.195	300.61
778.59	333.38
778.986	300.61
779.381	309.97
779.776	305.29
780.171	333.38
780.566	387.21
780.961	333.38
781.356	295.93
781.751	331.04
782.146	274.87
782.54	293.59
782.935	317
783.33	237.42
783.724	302.95
784.119	302.95
784.513	232.74
784.908	314.66
785.302	284.23
785.696	317
786.09	326.36
786.485	328.7
786.879	345.08
787.273	293.59
787.667	338.06
788.061	281.89
788.454	319.34
788.848	324.02
789.242	312.32
789.636	328.7
790.029	309.97
790.423	328.7
790.816	335.72
791.21	382.53
791.603	305.29
791.997	328.7
792.39	384.87
792.783	333.38
793.176	352.1
793.569	335.72
793.962	309.97
794.355	309.97
794.748	312.32
795.141	284.23
795.534	375.51
795.927	221.03
796.319	253.8
796.712	335.72
797.105	312.32
797.497	324.02
797.89	284.23
798.282	309.97
798.674	342.74
799.067	349.76
799.459	279.55
799.851	326.36
800.243	361.47
800.635	354.44
801.027	298.27
801.419	291.25
801.811	314.66
802.203	307.63
802.594	324.02
802.986	352.1
803.378	352.1
803.769	340.4
804.161	319.34
804.552	345.08
804.944	312.32
805.335	288.91
805.726	382.53
806.118	295.93
806.509	370.83
806.9	302.95
807.291	403.6
807.682	272.53
808.073	279.55
808.464	293.59
808.855	382.53
809.245	300.61
809.636	319.34
810.027	286.57
810.417	293.59
810.808	253.8
811.198	295.93
811.589	328.7
811.979	274.87
812.369	288.91
812.759	295.93
813.15	349.76
813.54	338.06
813.93	307.63
814.32	272.53
814.71	317
815.1	302.95
815.489	314.66
815.879	314.66
816.269	295.93
816.658	361.47
817.048	274.87
817.438	345.08
817.827	242.1
818.216	340.4
818.606	312.32
818.995	359.13
819.384	281.89
819.773	272.53
820.163	302.95
820.552	312.32
820.941	284.23
821.33	305.29
821.718	309.97
822.107	345.08
822.496	302.95
822.885	340.4
823.273	335.72
823.662	324.02
824.05	305.29
824.439	302.95
824.827	354.44
825.216	338.06
825.604	260.82
825.992	387.21
826.38	274.87
826.768	291.25
827.156	314.66
827.544	286.57
827.932	293.59
828.32	302.95
828.708	347.42
829.096	284.23
829.483	331.04
829.871	298.27
830.259	359.13
830.646	314.66
831.034	326.36
831.421	302.95
831.808	300.61
832.196	298.27
832.583	270.19
832.97	333.38
833.357	331.04
833.744	324.02
834.131	352.1
834.518	352.1
834.905	312.32
835.292	317
835.678	345.08
836.065	242.1
836.452	349.76
836.838	185.93
837.225	305.29
837.611	319.34
837.998	244.44
838.384	288.91
838.77	319.34
839.157	288.91
839.543	309.97
839.929	253.8
840.315	333.38
840.701	328.7
841.087	295.93
841.473	286.57
841.858	258.48
842.244	274.87
842.63	309.97
843.015	317
843.401	307.63
843.787	256.14
844.172	284.23
844.557	324.02
844.943	342.74
845.328	309.97
845.713	340.4
846.098	387.21
846.483	298.27
846.868	256.14
847.253	366.15
847.638	307.63
848.023	354.44
848.408	347.42
848.793	265.5
849.177	244.44
849.562	333.38
849.947	347.42
850.331	324.02
850.715	363.81
851.1	342.74
851.484	293.59
851.868	314.66
852.253	377.85
852.637	324.02
853.021	284.23
853.405	373.17
853.789	359.13
854.173	288.91
854.557	307.63
854.94	298.27
855.324	375.51
855.708	368.49
856.091	291.25
856.475	352.1
856.858	356.79
857.242	324.02
857.625	345.08
858.009	295.93
858.392	274.87
858.775	408.28
859.158	293.59
859.541	342.74
859.924	345.08
860.307	302.95
860.69	317
861.073	279.55
861.456	307.63
861.838	277.21
862.221	335.72
862.604	361.47
862.986	319.34
863.369	352.1
863.751	307.63
864.133	342.74
864.516	298.27
864.898	324.02
865.28	331.04
865.662	333.38
866.044	265.5
866.426	314.66
866.808	363.81
867.19	274.87
867.572	345.08
867.954	288.91
868.336	331.04
868.717	338.06
869.099	331.04
869.48	347.42
869.862	286.57
870.243	246.78
870.625	291.25
871.006	321.68
871.387	333.38
871.768	387.21
872.149	349.76
872.53	295.93
872.911	312.32
873.292	321.68
873.673	307.63
874.054	340.4
874.435	335.72
874.815	307.63
875.196	284.23
875.577	366.15
875.957	349.76
876.338	281.89
876.718	300.61
877.098	326.36
877.479	314.66
877.859	331.04
878.239	305.29
878.619	375.51
878.999	291.25
879.379	363.81
879.759	326.36
880.139	321.68
880.519	450.41
880.898	309.97
881.278	338.06
881.658	347.42
882.037	349.76
882.417	328.7
882.796	267.85
883.176	347.42
883.555	338.06
883.934	317
884.313	314.66
884.693	246.78
885.072	347.42
885.451	333.38
885.83	295.93
886.209	265.5
886.587	312.32
886.966	314.66
887.345	274.87
887.724	302.95
888.102	335.72
888.481	265.5
888.859	373.17
889.238	214.01
889.616	302.95
889.994	263.16
890.373	302.95
890.751	356.79
891.129	314.66
891.507	340.4
891.885	291.25
892.263	312.32
892.641	239.76
893.019	359.13
893.396	326.36
893.774	300.61
894.152	326.36
894.529	256.14
894.907	363.81
895.284	272.53
895.662	309.97
896.039	347.42
896.416	293.59
896.794	319.34
897.171	333.38
897.548	394.23
897.925	319.34
898.302	288.91
898.679	324.02
899.056	331.04
899.433	333.38
899.809	356.79
900.186	300.61
900.563	363.81
900.939	391.89
901.316	321.68
901.692	267.85
902.069	361.47
902.445	314.66
902.821	361.47
903.197	260.82
903.574	260.82
903.95	302.95
904.326	317
904.702	321.68
905.078	309.97
905.454	324.02
905.829	293.59
906.205	281.89
906.581	321.68
906.956	286.57
907.332	368.49
907.707	274.87
908.083	314.66
908.458	359.13
908.833	265.5
909.209	270.19
909.584	274.87
909.959	349.76
910.334	340.4
910.709	335.72
911.084	356.79
911.459	321.68
911.834	340.4
912.209	298.27
912.583	263.16
912.958	258.48
913.333	293.59
913.707	312.32
914.082	403.6
914.456	328.7
914.83	317
915.205	307.63
915.579	331.04
915.953	272.53
916.327	338.06
916.701	328.7
917.075	309.97
917.449	302.95
917.823	328.7
918.197	328.7
918.571	333.38
918.944	267.85
919.318	340.4
919.692	319.34
920.065	324.02
920.438	279.55
920.812	284.23
921.185	382.53
921.558	398.92
921.932	331.04
922.305	295.93
922.678	293.59
923.051	352.1
923.424	214.01
923.797	349.76
924.17	279.55
924.542	242.1
924.915	340.4
925.288	225.72
925.661	256.14
926.033	366.15
926.406	319.34
926.778	363.81
927.15	277.21
927.523	312.32
927.895	305.29
928.267	356.79
928.639	305.29
929.011	284.23
929.383	302.95
929.755	349.76
930.127	366.15
930.499	321.68
930.871	279.55
931.242	317
931.614	340.4
931.986	309.97
932.357	359.13
932.729	291.25
933.1	338.06
933.471	391.89
933.843	342.74
934.214	349.76
934.585	338.06
934.956	324.02
935.327	342.74
935.698	274.87
936.069	331.04
936.44	324.02
936.811	270.19
937.182	373.17
937.552	237.42
937.923	354.44
938.293	340.4
938.664	309.97
939.034	352.1
939.405	335.72
939.775	366.15
940.145	345.08
940.516	267.85
940.886	331.04
941.256	309.97
941.626	361.47
941.996	333.38
942.366	312.32
942.735	298.27
943.105	328.7
943.475	345.08
943.845	302.95
944.214	317
944.584	263.16
944.953	314.66
945.323	352.1
945.692	317
946.061	356.79
946.43	286.57
946.8	349.76
947.169	377.85
947.538	295.93
947.907	309.97
948.276	331.04
948.645	284.23
949.013	312.32
949.382	307.63
949.751	309.97
950.119	307.63
950.488	331.04
950.857	284.23
951.225	249.12
951.593	277.21
951.962	267.85
952.33	270.19
952.698	214.01
953.066	251.46
953.434	265.5
953.802	335.72
954.17	258.48
954.538	253.8
954.906	324.02
955.274	302.95
955.642	338.06
956.009	331.04
956.377	319.34
956.744	298.27
957.112	293.59
957.479	352.1
957.847	284.23
958.214	342.74
958.581	370.83
958.948	368.49
959.315	284.23
959.683	317
960.05	326.36
960.416	312.32
960.783	321.68
961.15	321.68
961.517	333.38
961.884	338.06
962.25	359.13
962.617	359.13
962.983	331.04
963.35	326.36
963.716	319.34
964.082	288.91
964.449	284.23
964.815	298.27
965.181	375.51
965.547	342.74
965.913	342.74
966.279	298.27
966.645	338.06
967.011	347.42
967.377	279.55
967.742	321.68
968.108	361.47
968.474	253.8
968.839	221.03
969.205	342.74
969.57	317
969.935	349.76
970.301	309.97
970.666	307.63
971.031	331.04
971.396	314.66
971.761	312.32
972.126	249.12
972.491	333.38
972.856	373.17
973.221	279.55
973.586	242.1
973.95	368.49
974.315	307.63
974.679	277.21
975.044	277.21
975.408	291.25
975.773	359.13
976.137	333.38
976.501	317
976.866	345.08
977.23	235.08
977.594	270.19
977.958	270.19
978.322	333.38
978.686	338.06
979.049	328.7
979.413	314.66
979.777	305.29
980.141	326.36
980.504	309.97
980.868	380.19
981.231	302.95
981.595	246.78
981.958	286.57
982.321	291.25
982.684	331.04
983.048	363.81
983.411	317
983.774	260.82
984.137	309.97
984.5	354.44
984.862	408.28
985.225	333.38
985.588	309.97
985.951	272.53
986.313	277.21
986.676	279.55
987.038	307.63
987.401	319.34
987.763	324.02
988.125	270.19
988.488	305.29
988.85	272.53
989.212	277.21
989.574	312.32
989.936	263.16
990.298	340.4
990.66	375.51
991.022	340.4
991.383	307.63
991.745	305.29
992.107	288.91
992.468	300.61
992.83	331.04
993.191	361.47
993.553	260.82
993.914	277.21
994.275	300.61
994.637	345.08
994.998	326.36
995.359	314.66
995.72	274.87
996.081	328.7
996.442	305.29
996.803	342.74
997.163	340.4
997.524	317
997.885	328.7
998.245	288.91
998.606	312.32
998.966	312.32
999.327	324.02
999.687	295.93
1000.047	314.66
1000.408	335.72
1000.768	307.63
1001.128	284.23
1001.488	298.27
1001.848	307.63
1002.208	314.66
1002.568	263.16
1002.927	246.78
1003.287	361.47
1003.647	305.29
1004.007	298.27
1004.366	300.61
1004.726	298.27
1005.085	302.95
1005.444	349.76
1005.804	239.76
1006.163	324.02
1006.522	239.76
1006.881	293.59
1007.24	265.5
1007.599	288.91
1007.958	345.08
1008.317	293.59
1008.676	265.5
1009.035	326.36
1009.393	319.34
1009.752	300.61
1010.111	288.91
1010.469	298.27
1010.828	333.38
1011.186	309.97
1011.544	436.36
1011.903	333.38
1012.261	314.66
1012.619	293.59
1012.977	324.02
1013.335	312.32
1013.693	284.23
1014.051	391.89
1014.409	354.44
1014.767	335.72
1015.124	307.63
1015.482	331.04
1015.84	333.38
1016.197	309.97
1016.555	352.1
1016.912	328.7
1017.269	321.68
1017.627	302.95
1017.984	291.25
1018.341	307.63
1018.698	305.29
1019.055	242.1
1019.412	377.85
1019.769	300.61
1020.126	305.29
1020.483	345.08
1020.84	281.89
1021.196	326.36
1021.553	319.34
1021.909	349.76
1022.266	295.93
1022.622	314.66
1022.979	281.89
1023.335	333.38
1023.691	302.95
1024.047	279.55
1024.404	270.19
1024.76	277.21
1025.116	359.13
1025.472	317
1025.827	281.89
1026.183	314.66
1026.539	270.19
1026.895	354.44
1027.25	286.57
1027.606	342.74
1027.961	228.06
1028.317	286.57
1028.672	356.79
1029.028	349.76
1029.383	298.27
1029.738	256.14
1030.093	302.95
1030.448	342.74
1030.803	293.59
1031.158	281.89
1031.513	326.36
1031.868	363.81
1032.223	368.49
1032.577	345.08
1032.932	342.74
1033.287	328.7
1033.641	324.02
1033.996	419.98
1034.35	319.34
1034.704	317
1035.059	319.34
1035.413	377.85
1035.767	377.85
1036.121	377.85
