Data from Al_FLMS009871__898__16-17-04-925.txt Node

Date: Fri Mar 08 16:17:04 CST 2024
User: pe5414po
Spectrometer: FLMS00987
Trigger mode: 0
Integration Time (sec): 1.000000E-1
Scans to average: 1
Electric dark correction enabled: true
Nonlinearity correction enabled: false
Boxcar width: 0
XAxis mode: Wavelengths
Number of Pixels in Spectrum: 2048
>>>>>Begin Spectral Data<<<<<
188.938	-80.46
189.409	-80.46
189.879	-80.46
190.349	-129.61
190.819	-78.12
191.29	-127.27
191.76	-87.48
192.23	-35.99
192.7	-71.09
193.17	-40.67
193.64	-43.01
194.109	-45.35
194.579	-19.6
195.049	-0.88
195.519	-64.07
195.988	-0.88
196.458	41.25
196.927	141.89
197.397	132.53
197.866	120.83
198.336	99.77
198.805	148.92
199.274	106.79
199.744	228.49
200.213	151.26
200.682	207.43
201.151	179.34
201.62	177
202.089	289.35
202.558	233.18
203.027	275.31
203.495	247.22
203.964	226.15
204.433	282.33
204.902	310.41
205.37	270.62
205.839	294.03
206.307	237.86
206.776	308.07
207.244	275.31
207.712	305.73
208.181	326.8
208.649	261.26
209.117	315.09
209.585	336.16
210.053	277.65
210.521	268.28
210.989	310.41
211.457	272.96
211.925	258.92
212.393	296.37
212.861	305.73
213.328	317.44
213.796	317.44
214.264	324.46
214.731	366.59
215.199	244.88
215.666	315.09
216.133	310.41
216.601	282.33
217.068	265.94
217.535	294.03
218.003	277.65
218.47	237.86
218.937	261.26
219.404	256.58
219.871	247.22
220.338	188.71
220.805	294.03
221.271	230.84
221.738	336.16
222.205	303.39
222.671	308.07
223.138	205.09
223.605	235.52
224.071	282.33
224.538	219.13
225.004	277.65
225.47	230.84
225.937	237.86
226.403	228.49
226.869	294.03
227.335	258.92
227.801	254.24
228.267	205.09
228.733	256.58
229.199	242.54
229.665	249.56
230.131	275.31
230.597	287.01
231.062	256.58
231.528	212.11
231.994	371.27
232.459	322.12
232.925	254.24
233.39	265.94
233.856	282.33
234.321	240.2
234.786	223.81
235.252	270.62
235.717	233.18
236.182	265.94
236.647	249.56
237.112	268.28
237.577	268.28
238.042	272.96
238.507	270.62
238.972	277.65
239.436	343.18
239.901	216.79
240.366	247.22
240.83	291.69
241.295	249.56
241.76	315.09
242.224	294.03
242.688	247.22
243.153	242.54
243.617	277.65
244.081	282.33
244.545	242.54
245.01	242.54
245.474	268.28
245.938	282.33
246.402	195.73
246.866	226.15
247.33	282.33
247.793	221.47
248.257	233.18
248.721	263.6
249.185	265.94
249.648	308.07
250.112	249.56
250.575	296.37
251.039	317.44
251.502	345.52
251.965	296.37
252.429	319.78
252.892	240.2
253.355	188.71
253.818	258.92
254.281	319.78
254.744	284.67
255.207	291.69
255.67	242.54
256.133	240.2
256.596	322.12
257.059	298.71
257.522	294.03
257.984	244.88
258.447	230.84
258.909	284.67
259.372	277.65
259.834	265.94
260.297	270.62
260.759	287.01
261.221	247.22
261.684	244.88
262.146	275.31
262.608	249.56
263.07	282.33
263.532	279.99
263.994	289.35
264.456	308.07
264.918	282.33
265.38	261.26
265.842	324.46
266.303	277.65
266.765	272.96
267.227	256.58
267.688	268.28
268.15	226.15
268.611	198.07
269.072	312.75
269.534	261.26
269.995	221.47
270.456	270.62
270.918	247.22
271.379	265.94
271.84	249.56
272.301	277.65
272.762	249.56
273.223	284.67
273.684	270.62
274.144	301.05
274.605	287.01
275.066	258.92
275.527	265.94
275.987	263.6
276.448	354.88
276.908	268.28
277.369	249.56
277.829	247.22
278.289	275.31
278.75	282.33
279.21	296.37
279.67	305.73
280.13	354.88
280.59	279.99
281.05	251.9
281.51	221.47
281.97	301.05
282.43	277.65
282.89	258.92
283.35	268.28
283.809	310.41
284.269	326.8
284.729	305.73
285.188	310.41
285.648	254.24
286.107	242.54
286.567	282.33
287.026	352.54
287.485	270.62
287.944	364.25
288.404	296.37
288.863	298.71
289.322	305.73
289.781	277.65
290.24	268.28
290.699	282.33
291.158	291.69
291.616	291.69
292.075	305.73
292.534	282.33
292.992	237.86
293.451	270.62
293.91	401.69
294.368	319.78
294.827	294.03
295.285	303.39
295.743	268.28
296.202	329.14
296.66	294.03
297.118	289.35
297.576	275.31
298.034	305.73
298.492	265.94
298.95	303.39
299.408	272.96
299.866	237.86
300.324	254.24
300.781	336.16
301.239	261.26
301.697	279.99
302.154	289.35
302.612	200.41
303.069	310.41
303.527	235.52
303.984	296.37
304.441	263.6
304.899	223.81
305.356	279.99
305.813	233.18
306.27	310.41
306.727	256.58
307.184	291.69
307.641	272.96
308.098	249.56
308.555	298.71
309.012	303.39
309.468	317.44
309.925	294.03
310.382	263.6
310.838	296.37
311.295	336.16
311.751	324.46
312.208	331.48
312.664	233.18
313.12	240.2
313.577	212.11
314.033	287.01
314.489	350.2
314.945	352.54
315.401	282.33
315.857	249.56
316.313	258.92
316.769	317.44
317.225	315.09
317.681	359.56
318.136	287.01
318.592	240.2
319.048	263.6
319.503	263.6
319.959	289.35
320.414	254.24
320.869	291.69
321.325	298.71
321.78	336.16
322.235	296.37
322.691	312.75
323.146	265.94
323.601	249.56
324.056	207.43
324.511	296.37
324.966	303.39
325.421	326.8
325.875	249.56
326.33	265.94
326.785	296.37
327.24	303.39
327.694	230.84
328.149	319.78
328.603	303.39
329.058	272.96
329.512	270.62
329.966	291.69
330.421	256.58
330.875	284.67
331.329	275.31
331.783	277.65
332.237	308.07
332.691	354.88
333.145	251.9
333.599	265.94
334.053	254.24
334.507	287.01
334.96	361.91
335.414	258.92
335.868	228.49
336.321	265.94
336.775	244.88
337.228	333.82
337.682	296.37
338.135	411.06
338.588	284.67
339.042	298.71
339.495	296.37
339.948	235.52
340.401	310.41
340.854	317.44
341.307	301.05
341.76	315.09
342.213	298.71
342.666	308.07
343.119	282.33
343.571	261.26
344.024	296.37
344.477	272.96
344.929	296.37
345.382	298.71
345.834	296.37
346.287	324.46
346.739	251.9
347.191	296.37
347.644	296.37
348.096	333.82
348.548	287.01
349	272.96
349.452	310.41
349.904	338.5
350.356	296.37
350.808	291.69
351.26	265.94
351.711	289.35
352.163	303.39
352.615	296.37
353.066	336.16
353.518	247.22
353.969	319.78
354.421	265.94
354.872	263.6
355.324	310.41
355.775	317.44
356.226	340.84
356.677	303.39
357.128	265.94
357.579	294.03
358.03	272.96
358.481	331.48
358.932	289.35
359.383	326.8
359.834	298.71
360.285	336.16
360.735	322.12
361.186	291.69
361.637	244.88
362.087	272.96
362.538	361.91
362.988	359.56
363.438	247.22
363.889	336.16
364.339	242.54
364.789	366.59
365.239	275.31
365.689	336.16
366.139	272.96
366.589	338.5
367.039	261.26
367.489	303.39
367.939	272.96
368.389	265.94
368.839	298.71
369.288	305.73
369.738	233.18
370.187	303.39
370.637	261.26
371.086	333.82
371.536	315.09
371.985	329.14
372.434	279.99
372.884	282.33
373.333	263.6
373.782	272.96
374.231	279.99
374.68	310.41
375.129	317.44
375.578	265.94
376.027	294.03
376.475	310.41
376.924	275.31
377.373	357.22
377.822	303.39
378.27	317.44
378.719	223.81
379.167	326.8
379.616	345.52
380.064	326.8
380.512	319.78
380.961	319.78
381.409	324.46
381.857	343.18
382.305	310.41
382.753	354.88
383.201	294.03
383.649	305.73
384.097	315.09
384.545	284.67
384.992	305.73
385.44	373.61
385.888	329.14
386.335	258.92
386.783	303.39
387.231	301.05
387.678	254.24
388.125	317.44
388.573	324.46
389.02	326.8
389.467	340.84
389.914	303.39
390.362	352.54
390.809	287.01
391.256	319.78
391.703	317.44
392.15	331.48
392.596	347.86
393.043	315.09
393.49	308.07
393.937	282.33
394.383	303.39
394.83	312.75
395.276	301.05
395.723	319.78
396.169	284.67
396.616	289.35
397.062	284.67
397.508	279.99
397.954	289.35
398.401	223.81
398.847	315.09
399.293	289.35
399.739	277.65
400.185	329.14
400.631	343.18
401.076	329.14
401.522	301.05
401.968	296.37
402.414	331.48
402.859	282.33
403.305	336.16
403.75	340.84
404.196	343.18
404.641	308.07
405.086	340.84
405.532	310.41
405.977	350.2
406.422	287.01
406.867	338.5
407.312	364.25
407.757	284.67
408.202	336.16
408.647	263.6
409.092	303.39
409.537	226.15
409.982	308.07
410.426	310.41
410.871	429.78
411.316	303.39
411.76	322.12
412.205	291.69
412.649	340.84
413.093	244.88
413.538	378.29
413.982	317.44
414.426	294.03
414.87	350.2
415.314	289.35
415.758	345.52
416.202	277.65
416.646	340.84
417.09	289.35
417.534	352.54
417.978	296.37
418.421	361.91
418.865	275.31
419.309	249.56
419.752	352.54
420.196	254.24
420.639	258.92
421.083	308.07
421.526	282.33
421.969	343.18
422.412	322.12
422.856	338.5
423.299	263.6
423.742	326.8
424.185	254.24
424.628	284.67
425.071	284.67
425.513	298.71
425.956	371.27
426.399	317.44
426.842	406.38
427.284	294.03
427.727	343.18
428.169	329.14
428.612	240.2
429.054	340.84
429.497	284.67
429.939	310.41
430.381	265.94
430.823	263.6
431.265	275.31
431.707	256.58
432.149	308.07
432.591	275.31
433.033	317.44
433.475	336.16
433.917	284.67
434.359	272.96
434.8	308.07
435.242	287.01
435.684	352.54
436.125	336.16
436.567	326.8
437.008	333.82
437.449	282.33
437.891	301.05
438.332	324.46
438.773	305.73
439.214	301.05
439.656	298.71
440.097	284.67
440.538	301.05
440.978	310.41
441.419	294.03
441.86	287.01
442.301	265.94
442.742	261.26
443.182	284.67
443.623	303.39
444.063	324.46
444.504	322.12
444.944	296.37
445.385	270.62
445.825	294.03
446.265	254.24
446.706	265.94
447.146	287.01
447.586	258.92
448.026	256.58
448.466	345.52
448.906	340.84
449.346	310.41
449.786	352.54
450.225	294.03
450.665	287.01
451.105	284.67
451.544	317.44
451.984	263.6
452.424	279.99
452.863	268.28
453.302	340.84
453.742	329.14
454.181	331.48
454.62	380.63
455.059	282.33
455.499	322.12
455.938	317.44
456.377	364.25
456.816	287.01
457.254	251.9
457.693	359.56
458.132	329.14
458.571	352.54
459.01	319.78
459.448	282.33
459.887	340.84
460.325	289.35
460.764	333.82
461.202	261.26
461.641	298.71
462.079	345.52
462.517	329.14
462.955	263.6
463.393	268.28
463.832	352.54
464.27	296.37
464.708	284.67
465.145	275.31
465.583	347.86
466.021	343.18
466.459	324.46
466.897	284.67
467.334	261.26
467.772	214.45
468.209	375.95
468.647	347.86
469.084	322.12
469.522	305.73
469.959	361.91
470.396	289.35
470.833	336.16
471.271	303.39
471.708	338.5
472.145	268.28
472.582	268.28
473.019	263.6
473.456	336.16
473.892	373.61
474.329	333.82
474.766	296.37
475.202	326.8
475.639	268.28
476.076	343.18
476.512	329.14
476.949	319.78
477.385	319.78
477.821	254.24
478.258	249.56
478.694	308.07
479.13	298.71
479.566	298.71
480.002	251.9
480.438	263.6
480.874	343.18
481.31	305.73
481.746	338.5
482.181	315.09
482.617	359.56
483.053	357.22
483.488	366.59
483.924	279.99
484.36	254.24
484.795	294.03
485.23	331.48
485.666	350.2
486.101	361.91
486.536	308.07
486.971	326.8
487.407	312.75
487.842	354.88
488.277	343.18
488.712	324.46
489.146	301.05
489.581	331.48
490.016	296.37
490.451	366.59
490.885	282.33
491.32	265.94
491.755	237.86
492.189	305.73
492.624	312.75
493.058	261.26
493.492	298.71
493.927	284.67
494.361	226.15
494.795	298.71
495.229	291.69
495.663	324.46
496.097	317.44
496.531	251.9
496.965	389.99
497.399	359.56
497.833	319.78
498.266	230.84
498.7	305.73
499.134	287.01
499.567	256.58
500.001	331.48
500.434	282.33
500.868	287.01
501.301	291.69
501.734	308.07
502.168	312.75
502.601	317.44
503.034	310.41
503.467	237.86
503.9	333.82
504.333	265.94
504.766	310.41
505.199	270.62
505.632	294.03
506.064	277.65
506.497	350.2
506.93	279.99
507.362	324.46
507.795	340.84
508.227	277.65
508.66	345.52
509.092	343.18
509.524	277.65
509.956	251.9
510.389	258.92
510.821	329.14
511.253	389.99
511.685	296.37
512.117	268.28
512.549	305.73
512.981	322.12
513.412	329.14
513.844	347.86
514.276	301.05
514.707	310.41
515.139	340.84
515.571	298.71
516.002	289.35
516.433	279.99
516.865	294.03
517.296	275.31
517.727	319.78
518.159	319.78
518.59	305.73
519.021	294.03
519.452	322.12
519.883	312.75
520.314	354.88
520.744	366.59
521.175	397.01
521.606	298.71
522.037	303.39
522.467	296.37
522.898	270.62
523.328	354.88
523.759	282.33
524.189	247.22
524.62	329.14
525.05	305.73
525.48	380.63
525.91	233.18
526.341	298.71
526.771	298.71
527.201	315.09
527.631	254.24
528.061	287.01
528.49	272.96
528.92	310.41
529.35	258.92
529.78	298.71
530.209	272.96
530.639	294.03
531.068	294.03
531.498	329.14
531.927	258.92
532.357	284.67
532.786	308.07
533.215	326.8
533.644	345.52
534.074	305.73
534.503	345.52
534.932	240.2
535.361	221.47
535.79	366.59
536.218	282.33
536.647	291.69
537.076	258.92
537.505	282.33
537.933	251.9
538.362	340.84
538.79	247.22
539.219	343.18
539.647	359.56
540.076	352.54
540.504	364.25
540.932	350.2
541.36	305.73
541.788	294.03
542.217	268.28
542.645	329.14
543.073	298.71
543.5	310.41
543.928	228.49
544.356	329.14
544.784	350.2
545.211	305.73
545.639	298.71
546.067	261.26
546.494	326.8
546.922	294.03
547.349	305.73
547.776	324.46
548.204	207.43
548.631	366.59
549.058	256.58
549.485	305.73
549.912	301.05
550.339	265.94
550.766	294.03
551.193	326.8
551.62	343.18
552.047	336.16
552.474	270.62
552.9	326.8
553.327	366.59
553.754	268.28
554.18	319.78
554.607	287.01
555.033	277.65
555.459	345.52
555.886	235.52
556.312	392.33
556.738	347.86
557.164	347.86
557.59	319.78
558.016	354.88
558.442	305.73
558.868	270.62
559.294	294.03
559.72	256.58
560.145	240.2
560.571	287.01
560.997	333.82
561.422	317.44
561.848	340.84
562.273	310.41
562.699	258.92
563.124	301.05
563.549	343.18
563.974	270.62
564.4	284.67
564.825	352.54
565.25	345.52
565.675	347.86
566.1	361.91
566.525	312.75
566.95	258.92
567.374	343.18
567.799	279.99
568.224	305.73
568.648	354.88
569.073	324.46
569.497	338.5
569.922	315.09
570.346	268.28
570.771	263.6
571.195	361.91
571.619	326.8
572.043	272.96
572.467	301.05
572.891	308.07
573.315	291.69
573.739	329.14
574.163	350.2
574.587	294.03
575.011	310.41
575.435	265.94
575.858	326.8
576.282	261.26
576.705	322.12
577.129	289.35
577.552	359.56
577.976	357.22
578.399	282.33
578.822	373.61
579.245	357.22
579.669	265.94
580.092	350.2
580.515	368.93
580.938	301.05
581.361	284.67
581.784	308.07
582.206	256.58
582.629	265.94
583.052	312.75
583.474	251.9
583.897	310.41
584.32	312.75
584.742	284.67
585.165	279.99
585.587	324.46
586.009	303.39
586.431	256.58
586.854	298.71
587.276	366.59
587.698	287.01
588.12	336.16
588.542	275.31
588.964	254.24
589.386	279.99
589.807	272.96
590.229	301.05
590.651	340.84
591.073	345.52
591.494	263.6
591.916	322.12
592.337	345.52
592.759	336.16
593.18	347.86
593.601	247.22
594.022	233.18
594.444	315.09
594.865	343.18
595.286	312.75
595.707	308.07
596.128	319.78
596.549	291.69
596.97	249.56
597.39	265.94
597.811	319.78
598.232	345.52
598.652	265.94
599.073	301.05
599.494	350.2
599.914	233.18
600.334	296.37
600.755	275.31
601.175	312.75
601.595	265.94
602.015	249.56
602.436	301.05
602.856	392.33
603.276	219.13
603.696	326.8
604.115	343.18
604.535	279.99
604.955	282.33
605.375	317.44
605.794	329.14
606.214	310.41
606.634	329.14
607.053	350.2
607.473	263.6
607.892	359.56
608.311	303.39
608.731	364.25
609.15	251.9
609.569	326.8
609.988	312.75
610.407	345.52
610.826	315.09
611.245	352.54
611.664	291.69
612.083	270.62
612.501	305.73
612.92	268.28
613.339	319.78
613.757	308.07
614.176	296.37
614.594	319.78
615.013	371.27
615.431	312.75
615.85	343.18
616.268	301.05
616.686	275.31
617.104	282.33
617.522	331.48
617.94	277.65
618.358	308.07
618.776	354.88
619.194	279.99
619.612	294.03
620.03	329.14
620.447	258.92
620.865	268.28
621.282	291.69
621.7	331.48
622.117	308.07
622.535	333.82
622.952	254.24
623.369	312.75
623.787	275.31
624.204	301.05
624.621	287.01
625.038	317.44
625.455	270.62
625.872	256.58
626.289	317.44
626.706	310.41
627.123	305.73
627.539	352.54
627.956	279.99
628.373	310.41
628.789	279.99
629.206	371.27
629.622	301.05
630.038	315.09
630.455	368.93
630.871	324.46
631.287	263.6
631.703	317.44
632.12	272.96
632.536	261.26
632.952	324.46
633.368	275.31
633.783	343.18
634.199	354.88
634.615	249.56
635.031	305.73
635.446	284.67
635.862	240.2
636.277	352.54
636.693	338.5
637.108	287.01
637.524	336.16
637.939	244.88
638.354	310.41
638.77	331.48
639.185	338.5
639.6	371.27
640.015	289.35
640.43	317.44
640.845	308.07
641.259	317.44
641.674	305.73
642.089	385.31
642.504	301.05
642.918	329.14
643.333	301.05
643.747	352.54
644.162	340.84
644.576	270.62
644.991	322.12
645.405	312.75
645.819	263.6
646.233	397.01
646.647	291.69
647.061	303.39
647.475	317.44
647.889	279.99
648.303	322.12
648.717	279.99
649.131	298.71
649.545	315.09
649.958	282.33
650.372	331.48
650.785	272.96
651.199	296.37
651.612	324.46
652.026	336.16
652.439	265.94
652.852	317.44
653.266	329.14
653.679	315.09
654.092	333.82
654.505	284.67
654.918	287.01
655.331	312.75
655.744	338.5
656.156	385.31
656.569	242.54
656.982	268.28
657.394	331.48
657.807	294.03
658.22	322.12
658.632	315.09
659.044	277.65
659.457	336.16
659.869	336.16
660.281	364.25
660.693	296.37
661.106	305.73
661.518	333.82
661.93	310.41
662.342	352.54
662.754	296.37
663.165	347.86
663.577	357.22
663.989	275.31
664.401	296.37
664.812	329.14
665.224	261.26
665.635	214.45
666.047	242.54
666.458	310.41
666.869	279.99
667.281	315.09
667.692	333.82
668.103	287.01
668.514	317.44
668.925	310.41
669.336	291.69
669.747	329.14
670.158	301.05
670.569	347.86
670.979	326.8
671.39	322.12
671.801	294.03
672.211	359.56
672.622	298.71
673.032	240.2
673.443	223.81
673.853	256.58
674.263	354.88
674.674	301.05
675.084	258.92
675.494	277.65
675.904	331.48
676.314	329.14
676.724	242.54
677.134	310.41
677.544	329.14
677.953	298.71
678.363	345.52
678.773	324.46
679.182	331.48
679.592	275.31
680.001	305.73
680.411	272.96
680.82	301.05
681.23	270.62
681.639	298.71
682.048	324.46
682.457	270.62
682.866	261.26
683.275	329.14
683.684	258.92
684.093	315.09
684.502	272.96
684.911	272.96
685.32	317.44
685.728	301.05
686.137	338.5
686.546	247.22
686.954	340.84
687.363	268.28
687.771	270.62
688.179	289.35
688.588	298.71
688.996	312.75
689.404	282.33
689.812	357.22
690.22	422.76
690.628	305.73
691.036	336.16
691.444	275.31
691.852	312.75
692.26	345.52
692.667	310.41
693.075	319.78
693.483	303.39
693.89	354.88
694.298	272.96
694.705	340.84
695.112	331.48
695.52	308.07
695.927	310.41
696.334	336.16
696.741	326.8
697.148	279.99
697.555	235.52
697.962	364.25
698.369	287.01
698.776	305.73
699.183	310.41
699.59	251.9
699.996	258.92
700.403	291.69
700.81	315.09
701.216	331.48
701.623	254.24
702.029	338.5
702.435	270.62
702.842	315.09
703.248	303.39
703.654	247.22
704.06	317.44
704.466	258.92
704.872	291.69
705.278	326.8
705.684	294.03
706.09	296.37
706.496	258.92
706.901	284.67
707.307	244.88
707.712	279.99
708.118	324.46
708.523	329.14
708.929	303.39
709.334	294.03
709.74	310.41
710.145	249.56
710.55	322.12
710.955	326.8
711.36	279.99
711.765	308.07
712.17	319.78
712.575	279.99
712.98	890.87
713.385	380.63
713.789	347.86
714.194	284.67
714.599	287.01
715.003	289.35
715.408	338.5
715.812	294.03
716.217	289.35
716.621	319.78
717.025	249.56
717.429	256.58
717.833	298.71
718.238	361.91
718.642	294.03
719.046	315.09
719.449	275.31
719.853	352.54
720.257	272.96
720.661	317.44
721.065	277.65
721.468	284.67
721.872	324.46
722.275	345.52
722.679	333.82
723.082	329.14
723.485	265.94
723.889	352.54
724.292	301.05
724.695	324.46
725.098	312.75
725.501	275.31
725.904	258.92
726.307	289.35
726.71	287.01
727.113	331.48
727.516	284.67
727.918	338.5
728.321	305.73
728.724	277.65
729.126	317.44
729.529	336.16
729.931	312.75
730.333	282.33
730.736	254.24
731.138	291.69
731.54	324.46
731.942	317.44
732.344	279.99
732.746	350.2
733.148	340.84
733.55	324.46
733.952	287.01
734.354	310.41
734.756	303.39
735.157	308.07
735.559	277.65
735.96	268.28
736.362	298.71
736.763	317.44
737.165	249.56
737.566	324.46
737.967	296.37
738.368	226.15
738.77	343.18
739.171	315.09
739.572	324.46
739.973	272.96
740.374	345.52
740.774	249.56
741.175	296.37
741.576	315.09
741.977	279.99
742.377	319.78
742.778	287.01
743.178	319.78
743.579	230.84
743.979	310.41
744.379	308.07
744.78	324.46
745.18	331.48
745.58	272.96
745.98	359.56
746.38	338.5
746.78	310.41
747.18	261.26
747.58	303.39
747.98	350.2
748.38	326.8
748.779	279.99
749.179	282.33
749.578	322.12
749.978	326.8
750.377	329.14
750.777	319.78
751.176	298.71
751.575	350.2
751.975	333.82
752.374	317.44
752.773	354.88
753.172	277.65
753.571	350.2
753.97	301.05
754.369	258.92
754.768	315.09
755.166	244.88
755.565	256.58
755.964	279.99
756.362	394.67
756.761	357.22
757.159	312.75
757.558	336.16
757.956	291.69
758.354	345.52
758.753	303.39
759.151	331.48
759.549	310.41
759.947	256.58
760.345	263.6
760.743	233.18
761.141	340.84
761.539	317.44
761.936	209.77
762.334	279.99
762.732	315.09
763.129	312.75
763.527	333.82
763.924	397.01
764.322	333.82
764.719	272.96
765.117	322.12
765.514	272.96
765.911	317.44
766.308	333.82
766.705	312.75
767.102	270.62
767.499	308.07
767.896	319.78
768.293	315.09
768.69	322.12
769.086	319.78
769.483	268.28
769.88	331.48
770.276	380.63
770.673	289.35
771.069	345.52
771.466	329.14
771.862	350.2
772.258	272.96
772.654	296.37
773.05	324.46
773.447	317.44
773.843	340.84
774.239	308.07
774.634	258.92
775.03	296.37
775.426	347.86
775.822	322.12
776.218	291.69
776.613	282.33
777.009	263.6
777.404	364.25
777.8	368.93
778.195	359.56
778.59	284.67
778.986	317.44
779.381	310.41
779.776	317.44
780.171	298.71
780.566	289.35
780.961	296.37
781.356	308.07
781.751	324.46
782.146	296.37
782.54	305.73
782.935	301.05
783.33	263.6
783.724	212.11
784.119	287.01
784.513	296.37
784.908	354.88
785.302	256.58
785.696	291.69
786.09	258.92
786.485	319.78
786.879	329.14
787.273	298.71
787.667	298.71
788.061	310.41
788.454	298.71
788.848	294.03
789.242	305.73
789.636	310.41
790.029	303.39
790.423	291.69
790.816	322.12
791.21	338.5
791.603	317.44
791.997	279.99
792.39	331.48
792.783	298.71
793.176	382.97
793.569	310.41
793.962	361.91
794.355	298.71
794.748	291.69
795.141	301.05
795.534	322.12
795.927	357.22
796.319	315.09
796.712	331.48
797.105	340.84
797.497	261.26
797.89	261.26
798.282	287.01
798.674	322.12
799.067	326.8
799.459	347.86
799.851	263.6
800.243	305.73
800.635	242.54
801.027	347.86
801.419	303.39
801.811	340.84
802.203	282.33
802.594	338.5
802.986	247.22
803.378	256.58
803.769	308.07
804.161	345.52
804.552	312.75
804.944	336.16
805.335	275.31
805.726	310.41
806.118	319.78
806.509	270.62
806.9	296.37
807.291	354.88
807.682	312.75
808.073	354.88
808.464	310.41
808.855	254.24
809.245	333.82
809.636	294.03
810.027	333.82
810.417	345.52
810.808	312.75
811.198	347.86
811.589	340.84
811.979	244.88
812.369	258.92
812.759	317.44
813.15	284.67
813.54	256.58
813.93	289.35
814.32	282.33
814.71	287.01
815.1	279.99
815.489	289.35
815.879	333.82
816.269	298.71
816.658	291.69
817.048	315.09
817.438	291.69
817.827	310.41
818.216	319.78
818.606	308.07
818.995	301.05
819.384	247.22
819.773	317.44
820.163	345.52
820.552	347.86
820.941	279.99
821.33	242.54
821.718	357.22
822.107	240.2
822.496	350.2
822.885	291.69
823.273	249.56
823.662	265.94
824.05	296.37
824.439	303.39
824.827	284.67
825.216	315.09
825.604	312.75
825.992	324.46
826.38	312.75
826.768	317.44
827.156	315.09
827.544	443.82
827.932	329.14
828.32	294.03
828.708	296.37
829.096	301.05
829.483	294.03
829.871	331.48
830.259	322.12
830.646	254.24
831.034	298.71
831.421	322.12
831.808	303.39
832.196	275.31
832.583	326.8
832.97	324.46
833.357	275.31
833.744	340.84
834.131	331.48
834.518	268.28
834.905	324.46
835.292	326.8
835.678	303.39
836.065	322.12
836.452	324.46
836.838	258.92
837.225	258.92
837.611	303.39
837.998	265.94
838.384	296.37
838.77	235.52
839.157	357.22
839.543	326.8
839.929	350.2
840.315	310.41
840.701	354.88
841.087	308.07
841.473	324.46
841.858	294.03
842.244	270.62
842.63	333.82
843.015	343.18
843.401	343.18
843.787	308.07
844.172	324.46
844.557	296.37
844.943	357.22
845.328	296.37
845.713	296.37
846.098	296.37
846.483	361.91
846.868	322.12
847.253	357.22
847.638	291.69
848.023	282.33
848.408	310.41
848.793	340.84
849.177	340.84
849.562	261.26
849.947	289.35
850.331	326.8
850.715	303.39
851.1	191.05
851.484	305.73
851.868	329.14
852.253	291.69
852.637	284.67
853.021	303.39
853.405	315.09
853.789	312.75
854.173	340.84
854.557	279.99
854.94	359.56
855.324	333.82
855.708	298.71
856.091	279.99
856.475	319.78
856.858	265.94
857.242	272.96
857.625	310.41
858.009	296.37
858.392	279.99
858.775	289.35
859.158	298.71
859.541	336.16
859.924	329.14
860.307	347.86
860.69	301.05
861.073	324.46
861.456	385.31
861.838	401.69
862.221	228.49
862.604	294.03
862.986	282.33
863.369	312.75
863.751	333.82
864.133	275.31
864.516	251.9
864.898	336.16
865.28	298.71
865.662	324.46
866.044	340.84
866.426	277.65
866.808	287.01
867.19	324.46
867.572	291.69
867.954	322.12
868.336	333.82
868.717	258.92
869.099	333.82
869.48	336.16
869.862	247.22
870.243	305.73
870.625	343.18
871.006	291.69
871.387	296.37
871.768	284.67
872.149	324.46
872.53	338.5
872.911	326.8
873.292	319.78
873.673	279.99
874.054	254.24
874.435	326.8
874.815	310.41
875.196	340.84
875.577	287.01
875.957	336.16
876.338	305.73
876.718	340.84
877.098	261.26
877.479	296.37
877.859	291.69
878.239	258.92
878.619	256.58
878.999	310.41
879.379	338.5
879.759	275.31
880.139	324.46
880.519	270.62
880.898	336.16
881.278	289.35
881.658	233.18
882.037	287.01
882.417	277.65
882.796	268.28
883.176	352.54
883.555	282.33
883.934	301.05
884.313	324.46
884.693	315.09
885.072	352.54
885.451	368.93
885.83	350.2
886.209	301.05
886.587	319.78
886.966	268.28
887.345	378.29
887.724	261.26
888.102	312.75
888.481	326.8
888.859	333.82
889.238	251.9
889.616	338.5
889.994	303.39
890.373	301.05
890.751	329.14
891.129	338.5
891.507	284.67
891.885	251.9
892.263	251.9
892.641	275.31
893.019	364.25
893.396	270.62
893.774	361.91
894.152	268.28
894.529	298.71
894.907	254.24
895.284	343.18
895.662	357.22
896.039	305.73
896.416	287.01
896.794	317.44
897.171	319.78
897.548	270.62
897.925	277.65
898.302	380.63
898.679	324.46
899.056	256.58
899.433	310.41
899.809	329.14
900.186	305.73
900.563	277.65
900.939	265.94
901.316	284.67
901.692	331.48
902.069	296.37
902.445	282.33
902.821	294.03
903.197	279.99
903.574	294.03
903.95	287.01
904.326	233.18
904.702	312.75
905.078	287.01
905.454	336.16
905.829	235.52
906.205	385.31
906.581	242.54
906.956	272.96
907.332	277.65
907.707	289.35
908.083	251.9
908.458	230.84
908.833	289.35
909.209	272.96
909.584	361.91
909.959	324.46
910.334	305.73
910.709	319.78
911.084	331.48
911.459	310.41
911.834	366.59
912.209	268.28
912.583	322.12
912.958	275.31
913.333	294.03
913.707	294.03
914.082	254.24
914.456	345.52
914.83	340.84
915.205	350.2
915.579	298.71
915.953	387.65
916.327	324.46
916.701	322.12
917.075	275.31
917.449	305.73
917.823	284.67
918.197	282.33
918.571	289.35
918.944	392.33
919.318	305.73
919.692	298.71
920.065	247.22
920.438	305.73
920.812	338.5
921.185	272.96
921.558	277.65
921.932	331.48
922.305	291.69
922.678	205.09
923.051	294.03
923.424	291.69
923.797	284.67
924.17	378.29
924.542	287.01
924.915	289.35
925.288	303.39
925.661	331.48
926.033	284.67
926.406	282.33
926.778	282.33
927.15	251.9
927.523	308.07
927.895	322.12
928.267	270.62
928.639	350.2
929.011	268.28
929.383	254.24
929.755	284.67
930.127	310.41
930.499	275.31
930.871	254.24
931.242	322.12
931.614	368.93
931.986	326.8
932.357	256.58
932.729	326.8
933.1	270.62
933.471	294.03
933.843	287.01
934.214	326.8
934.585	338.5
934.956	291.69
935.327	251.9
935.698	296.37
936.069	301.05
936.44	312.75
936.811	336.16
937.182	305.73
937.552	296.37
937.923	350.2
938.293	270.62
938.664	310.41
939.034	357.22
939.405	338.5
939.775	284.67
940.145	315.09
940.516	284.67
940.886	308.07
941.256	322.12
941.626	331.48
941.996	291.69
942.366	340.84
942.735	272.96
943.105	308.07
943.475	331.48
943.845	289.35
944.214	284.67
944.584	289.35
944.953	301.05
945.323	279.99
945.692	287.01
946.061	336.16
946.43	291.69
946.8	317.44
947.169	272.96
947.538	258.92
947.907	319.78
948.276	373.61
948.645	282.33
949.013	279.99
949.382	333.82
949.751	378.29
950.119	315.09
950.488	256.58
950.857	357.22
951.225	361.91
951.593	312.75
951.962	258.92
952.33	261.26
952.698	308.07
953.066	258.92
953.434	336.16
953.802	301.05
954.17	296.37
954.538	315.09
954.906	272.96
955.274	315.09
955.642	354.88
956.009	287.01
956.377	333.82
956.744	261.26
957.112	296.37
957.479	338.5
957.847	254.24
958.214	310.41
958.581	324.46
958.948	272.96
959.315	294.03
959.683	331.48
960.05	317.44
960.416	291.69
960.783	261.26
961.15	294.03
961.517	368.93
961.884	305.73
962.25	322.12
962.617	338.5
962.983	265.94
963.35	312.75
963.716	301.05
964.082	317.44
964.449	303.39
964.815	247.22
965.181	340.84
965.547	261.26
965.913	240.2
966.279	336.16
966.645	326.8
967.011	303.39
967.377	301.05
967.742	305.73
968.108	305.73
968.474	319.78
968.839	308.07
969.205	298.71
969.57	319.78
969.935	263.6
970.301	312.75
970.666	254.24
971.031	324.46
971.396	368.93
971.761	294.03
972.126	326.8
972.491	322.12
972.856	301.05
973.221	317.44
973.586	298.71
973.95	277.65
974.315	326.8
974.679	284.67
975.044	240.2
975.408	343.18
975.773	263.6
976.137	287.01
976.501	284.67
976.866	310.41
977.23	254.24
977.594	181.68
977.958	315.09
978.322	261.26
978.686	275.31
979.049	251.9
979.413	294.03
979.777	254.24
980.141	329.14
980.504	322.12
980.868	338.5
981.231	312.75
981.595	233.18
981.958	270.62
982.321	368.93
982.684	336.16
983.048	322.12
983.411	291.69
983.774	338.5
984.137	294.03
984.5	361.91
984.862	359.56
985.225	298.71
985.588	284.67
985.951	373.61
986.313	277.65
986.676	378.29
987.038	310.41
987.401	336.16
987.763	375.95
988.125	324.46
988.488	284.67
988.85	294.03
989.212	319.78
989.574	270.62
989.936	324.46
990.298	284.67
990.66	350.2
991.022	326.8
991.383	347.86
991.745	343.18
992.107	350.2
992.468	308.07
992.83	338.5
993.191	308.07
993.553	333.82
993.914	298.71
994.275	301.05
994.637	265.94
994.998	249.56
995.359	282.33
995.72	310.41
996.081	279.99
996.442	261.26
996.803	329.14
997.163	298.71
997.524	251.9
997.885	296.37
998.245	310.41
998.606	279.99
998.966	310.41
999.327	329.14
999.687	361.91
1000.047	270.62
1000.408	315.09
1000.768	373.61
1001.128	279.99
1001.488	329.14
1001.848	343.18
1002.208	333.82
1002.568	305.73
1002.927	272.96
1003.287	322.12
1003.647	319.78
1004.007	291.69
1004.366	324.46
1004.726	303.39
1005.085	331.48
1005.444	340.84
1005.804	345.52
1006.163	277.65
1006.522	256.58
1006.881	345.52
1007.24	331.48
1007.599	263.6
1007.958	315.09
1008.317	345.52
1008.676	291.69
1009.035	303.39
1009.393	336.16
1009.752	366.59
1010.111	263.6
1010.469	298.71
1010.828	270.62
1011.186	352.54
1011.544	298.71
1011.903	303.39
1012.261	268.28
1012.619	235.52
1012.977	310.41
1013.335	287.01
1013.693	242.54
1014.051	221.47
1014.409	312.75
1014.767	340.84
1015.124	361.91
1015.482	329.14
1015.84	282.33
1016.197	336.16
1016.555	331.48
1016.912	258.92
1017.269	284.67
1017.627	265.94
1017.984	329.14
1018.341	303.39
1018.698	221.47
1019.055	317.44
1019.412	284.67
1019.769	261.26
1020.126	303.39
1020.483	277.65
1020.84	282.33
1021.196	322.12
1021.553	268.28
1021.909	354.88
1022.266	305.73
1022.622	289.35
1022.979	368.93
1023.335	254.24
1023.691	319.78
1024.047	272.96
1024.404	282.33
1024.76	326.8
1025.116	261.26
1025.472	256.58
1025.827	336.16
1026.183	265.94
1026.539	287.01
1026.895	305.73
1027.25	284.67
1027.606	319.78
1027.961	242.54
1028.317	305.73
1028.672	249.56
1029.028	322.12
1029.383	275.31
1029.738	249.56
1030.093	296.37
1030.448	272.96
1030.803	382.97
1031.158	289.35
1031.513	268.28
1031.868	291.69
1032.223	312.75
1032.577	249.56
1032.932	315.09
1033.287	226.15
1033.641	284.67
1033.996	279.99
1034.35	315.09
1034.704	282.33
1035.059	303.39
1035.413	308.07
1035.767	308.07
1036.121	308.07
