Data from Al_FLMS009871__888__16-17-03-925.txt Node

Date: Fri Mar 08 16:17:03 CST 2024
User: pe5414po
Spectrometer: FLMS00987
Trigger mode: 0
Integration Time (sec): 1.000000E-1
Scans to average: 1
Electric dark correction enabled: true
Nonlinearity correction enabled: false
Boxcar width: 0
XAxis mode: Wavelengths
Number of Pixels in Spectrum: 2048
>>>>>Begin Spectral Data<<<<<
188.938	-105.03
189.409	-105.03
189.879	-105.03
190.349	-172.91
190.819	-112.05
191.29	-130.78
191.76	-90.99
192.23	-60.56
192.7	-88.65
193.17	-58.22
193.64	-30.13
194.109	21.36
194.579	-32.47
195.049	-18.43
195.519	-46.52
195.988	28.38
196.458	49.44
196.927	79.87
197.397	124.34
197.866	133.7
198.336	119.66
198.805	152.43
199.274	136.04
199.744	138.38
200.213	171.15
200.682	234.35
201.151	171.15
201.62	210.94
202.089	164.13
202.558	288.18
203.027	222.64
203.495	306.9
203.964	196.9
204.433	229.67
204.902	290.52
205.37	229.67
205.839	309.24
206.307	278.82
206.776	337.33
207.244	269.45
207.712	309.24
208.181	246.05
208.649	290.52
209.117	274.14
209.585	313.92
210.053	264.77
210.521	274.14
210.989	269.45
211.457	269.45
211.925	295.2
212.393	222.64
212.861	325.63
213.328	290.52
213.796	271.79
214.264	192.22
214.731	271.79
215.199	248.39
215.666	269.45
216.133	260.09
216.601	192.22
217.068	288.18
217.535	295.2
218.003	332.65
218.47	234.35
218.937	220.3
219.404	253.07
219.871	257.75
220.338	234.35
220.805	255.41
221.271	271.79
221.738	269.45
222.205	276.48
222.671	292.86
223.138	246.05
223.605	222.64
224.071	285.84
224.538	299.88
225.004	283.5
225.47	241.37
225.937	253.07
226.403	267.11
226.869	208.6
227.335	292.86
227.801	309.24
228.267	236.69
228.733	267.11
229.199	217.96
229.665	222.64
230.131	241.37
230.597	250.73
231.062	281.16
231.528	316.26
231.994	276.48
232.459	323.29
232.925	243.71
233.39	269.45
233.856	271.79
234.321	267.11
234.786	253.07
235.252	232.01
235.717	318.61
236.182	246.05
236.647	285.84
237.112	269.45
237.577	299.88
238.042	316.26
238.507	283.5
238.972	351.37
239.436	253.07
239.901	194.56
240.366	281.16
240.83	194.56
241.295	267.11
241.76	292.86
242.224	271.79
242.688	241.37
243.153	285.84
243.617	253.07
244.081	269.45
244.545	250.73
245.01	248.39
245.474	239.03
245.938	260.09
246.402	299.88
246.866	290.52
247.33	229.67
247.793	243.71
248.257	309.24
248.721	288.18
249.185	297.54
249.648	285.84
250.112	325.63
250.575	232.01
251.039	323.29
251.502	253.07
251.965	281.16
252.429	342.01
252.892	262.43
253.355	276.48
253.818	255.41
254.281	339.67
254.744	215.62
255.207	288.18
255.67	299.88
256.133	246.05
256.596	269.45
257.059	316.26
257.522	290.52
257.984	311.58
258.447	180.51
258.909	234.35
259.372	304.56
259.834	306.9
260.297	358.39
260.759	339.67
261.221	292.86
261.684	313.92
262.146	267.11
262.608	283.5
263.07	349.03
263.532	269.45
263.994	285.84
264.456	318.61
264.918	278.82
265.38	269.45
265.842	290.52
266.303	337.33
266.765	236.69
267.227	295.2
267.688	271.79
268.15	241.37
268.611	232.01
269.072	320.95
269.534	257.75
269.995	222.64
270.456	271.79
270.918	295.2
271.379	306.9
271.84	285.84
272.301	267.11
272.762	274.14
273.223	239.03
273.684	290.52
274.144	295.2
274.605	327.97
275.066	283.5
275.527	262.43
275.987	246.05
276.448	239.03
276.908	334.99
277.369	344.35
277.829	274.14
278.289	250.73
278.75	253.07
279.21	327.97
279.67	290.52
280.13	311.58
280.59	262.43
281.05	199.24
281.51	274.14
281.97	260.09
282.43	264.77
282.89	344.35
283.35	302.22
283.809	222.64
284.269	295.2
284.729	288.18
285.188	253.07
285.648	250.73
286.107	290.52
286.567	323.29
287.026	285.84
287.485	250.73
287.944	173.49
288.404	330.31
288.863	304.56
289.322	299.88
289.781	295.2
290.24	299.88
290.699	311.58
291.158	234.35
291.616	283.5
292.075	276.48
292.534	236.69
292.992	297.54
293.451	325.63
293.91	278.82
294.368	318.61
294.827	260.09
295.285	323.29
295.743	299.88
296.202	192.22
296.66	297.54
297.118	281.16
297.576	248.39
298.034	246.05
298.492	342.01
298.95	253.07
299.408	334.99
299.866	276.48
300.324	297.54
300.781	290.52
301.239	269.45
301.697	271.79
302.154	295.2
302.612	271.79
303.069	278.82
303.527	281.16
303.984	316.26
304.441	285.84
304.899	274.14
305.356	346.69
305.813	292.86
306.27	337.33
306.727	290.52
307.184	311.58
307.641	283.5
308.098	278.82
308.555	334.99
309.012	306.9
309.468	316.26
309.925	330.31
310.382	379.46
310.838	295.2
311.295	299.88
311.751	304.56
312.208	297.54
312.664	295.2
313.12	267.11
313.577	288.18
314.033	360.74
314.489	253.07
314.945	262.43
315.401	267.11
315.857	267.11
316.313	262.43
316.769	255.41
317.225	283.5
317.681	262.43
318.136	248.39
318.592	306.9
319.048	353.71
319.503	264.77
319.959	316.26
320.414	262.43
320.869	243.71
321.325	290.52
321.78	264.77
322.235	281.16
322.691	325.63
323.146	292.86
323.601	264.77
324.056	292.86
324.511	288.18
324.966	304.56
325.421	292.86
325.875	306.9
326.33	330.31
326.785	257.75
327.24	313.92
327.694	246.05
328.149	229.67
328.603	306.9
329.058	210.94
329.512	267.11
329.966	311.58
330.421	285.84
330.875	290.52
331.329	351.37
331.783	318.61
332.237	274.14
332.691	267.11
333.145	274.14
333.599	356.05
334.053	363.08
334.507	288.18
334.96	239.03
335.414	302.22
335.868	274.14
336.321	285.84
336.775	257.75
337.228	327.97
337.682	339.67
338.135	320.95
338.588	337.33
339.042	332.65
339.495	264.77
339.948	269.45
340.401	292.86
340.854	297.54
341.307	332.65
341.76	325.63
342.213	281.16
342.666	349.03
343.119	281.16
343.571	318.61
344.024	271.79
344.477	288.18
344.929	334.99
345.382	288.18
345.834	297.54
346.287	405.21
346.739	313.92
347.191	281.16
347.644	342.01
348.096	342.01
348.548	302.22
349	267.11
349.452	274.14
349.904	295.2
350.356	313.92
350.808	325.63
351.26	299.88
351.711	316.26
352.163	323.29
352.615	285.84
353.066	285.84
353.518	330.31
353.969	318.61
354.421	304.56
354.872	313.92
355.324	313.92
355.775	311.58
356.226	278.82
356.677	327.97
357.128	342.01
357.579	323.29
358.03	349.03
358.481	393.5
358.932	358.39
359.383	304.56
359.834	257.75
360.285	386.48
360.735	306.9
361.186	269.45
361.637	281.16
362.087	309.24
362.538	306.9
362.988	318.61
363.438	304.56
363.889	344.35
364.339	283.5
364.789	257.75
365.239	278.82
365.689	257.75
366.139	337.33
366.589	250.73
367.039	267.11
367.489	290.52
367.939	346.69
368.389	278.82
368.839	304.56
369.288	323.29
369.738	278.82
370.187	264.77
370.637	253.07
371.086	309.24
371.536	299.88
371.985	304.56
372.434	236.69
372.884	302.22
373.333	260.09
373.782	358.39
374.231	271.79
374.68	292.86
375.129	311.58
375.578	313.92
376.027	391.16
376.475	292.86
376.924	283.5
377.373	330.31
377.822	304.56
378.27	318.61
378.719	306.9
379.167	344.35
379.616	264.77
380.064	313.92
380.512	306.9
380.961	248.39
381.409	299.88
381.857	316.26
382.305	281.16
382.753	281.16
383.201	327.97
383.649	292.86
384.097	290.52
384.545	353.71
384.992	264.77
385.44	363.08
385.888	344.35
386.335	311.58
386.783	323.29
387.231	344.35
387.678	295.2
388.125	374.78
388.573	353.71
389.02	346.69
389.467	253.07
389.914	309.24
390.362	292.86
390.809	304.56
391.256	306.9
391.703	349.03
392.15	288.18
392.596	311.58
393.043	313.92
393.49	346.69
393.937	274.14
394.383	342.01
394.83	349.03
395.276	304.56
395.723	302.22
396.169	283.5
396.616	243.71
397.062	330.31
397.508	276.48
397.954	222.64
398.401	274.14
398.847	306.9
399.293	292.86
399.739	342.01
400.185	356.05
400.631	316.26
401.076	304.56
401.522	302.22
401.968	327.97
402.414	278.82
402.859	304.56
403.305	332.65
403.75	246.05
404.196	395.84
404.641	290.52
405.086	342.01
405.532	295.2
405.977	274.14
406.422	316.26
406.867	274.14
407.312	332.65
407.757	323.29
408.202	311.58
408.647	393.5
409.092	334.99
409.537	332.65
409.982	351.37
410.426	288.18
410.871	302.22
411.316	243.71
411.76	323.29
412.205	327.97
412.649	342.01
413.093	269.45
413.538	250.73
413.982	323.29
414.426	306.9
414.87	239.03
415.314	276.48
415.758	346.69
416.202	299.88
416.646	267.11
417.09	276.48
417.534	318.61
417.978	274.14
418.421	344.35
418.865	337.33
419.309	332.65
419.752	306.9
420.196	330.31
420.639	323.29
421.083	325.63
421.526	374.78
421.969	243.71
422.412	344.35
422.856	271.79
423.299	332.65
423.742	339.67
424.185	320.95
424.628	262.43
425.071	255.41
425.513	313.92
425.956	344.35
426.399	264.77
426.842	260.09
427.284	283.5
427.727	267.11
428.169	290.52
428.612	274.14
429.054	323.29
429.497	320.95
429.939	224.98
430.381	227.32
430.823	320.95
431.265	337.33
431.707	353.71
432.149	320.95
432.591	283.5
433.033	250.73
433.475	288.18
433.917	290.52
434.359	297.54
434.8	339.67
435.242	285.84
435.684	332.65
436.125	330.31
436.567	318.61
437.008	260.09
437.449	295.2
437.891	332.65
438.332	283.5
438.773	274.14
439.214	318.61
439.656	337.33
440.097	304.56
440.538	292.86
440.978	255.41
441.419	316.26
441.86	405.21
442.301	243.71
442.742	320.95
443.182	316.26
443.623	318.61
444.063	320.95
444.504	316.26
444.944	344.35
445.385	327.97
445.825	330.31
446.265	288.18
446.706	337.33
447.146	313.92
447.586	325.63
448.026	278.82
448.466	313.92
448.906	306.9
449.346	281.16
449.786	295.2
450.225	318.61
450.665	337.33
451.105	299.88
451.544	330.31
451.984	262.43
452.424	288.18
452.863	260.09
453.302	302.22
453.742	339.67
454.181	311.58
454.62	304.56
455.059	262.43
455.499	297.54
455.938	264.77
456.377	349.03
456.816	295.2
457.254	339.67
457.693	304.56
458.132	274.14
458.571	283.5
459.01	295.2
459.448	367.76
459.887	285.84
460.325	330.31
460.764	260.09
461.202	290.52
461.641	255.41
462.079	276.48
462.517	297.54
462.955	309.24
463.393	297.54
463.832	288.18
464.27	295.2
464.708	290.52
465.145	325.63
465.583	360.74
466.021	318.61
466.459	327.97
466.897	283.5
467.334	220.3
467.772	276.48
468.209	302.22
468.647	320.95
469.084	339.67
469.522	388.82
469.959	304.56
470.396	334.99
470.833	260.09
471.271	302.22
471.708	318.61
472.145	267.11
472.582	271.79
473.019	262.43
473.456	255.41
473.892	325.63
474.329	276.48
474.766	292.86
475.202	302.22
475.639	358.39
476.076	276.48
476.512	313.92
476.949	334.99
477.385	316.26
477.821	274.14
478.258	304.56
478.694	313.92
479.13	285.84
479.566	323.29
480.002	278.82
480.438	290.52
480.874	360.74
481.31	304.56
481.746	281.16
482.181	281.16
482.617	339.67
483.053	370.1
483.488	295.2
483.924	363.08
484.36	302.22
484.795	306.9
485.23	304.56
485.666	313.92
486.101	276.48
486.536	269.45
486.971	271.79
487.407	332.65
487.842	281.16
488.277	290.52
488.712	342.01
489.146	302.22
489.581	318.61
490.016	344.35
490.451	292.86
490.885	290.52
491.32	311.58
491.755	363.08
492.189	248.39
492.624	306.9
493.058	306.9
493.492	297.54
493.927	323.29
494.361	281.16
494.795	374.78
495.229	267.11
495.663	346.69
496.097	281.16
496.531	288.18
496.965	320.95
497.399	313.92
497.833	349.03
498.266	320.95
498.7	430.95
499.134	330.31
499.567	337.33
500.001	339.67
500.434	320.95
500.868	306.9
501.301	334.99
501.734	250.73
502.168	344.35
502.601	339.67
503.034	271.79
503.467	299.88
503.9	323.29
504.333	295.2
504.766	264.77
505.199	330.31
505.632	236.69
506.064	253.07
506.497	356.05
506.93	353.71
507.362	334.99
507.795	227.32
508.227	306.9
508.66	330.31
509.092	346.69
509.524	309.24
509.956	311.58
510.389	351.37
510.821	288.18
511.253	334.99
511.685	302.22
512.117	288.18
512.549	304.56
512.981	285.84
513.412	351.37
513.844	325.63
514.276	309.24
514.707	360.74
515.139	304.56
515.571	243.71
516.002	318.61
516.433	269.45
516.865	342.01
517.296	318.61
517.727	292.86
518.159	306.9
518.59	318.61
519.021	342.01
519.452	199.24
519.883	297.54
520.314	313.92
520.744	260.09
521.175	342.01
521.606	246.05
522.037	271.79
522.467	295.2
522.898	309.24
523.328	290.52
523.759	325.63
524.189	320.95
524.62	309.24
525.05	264.77
525.48	250.73
525.91	327.97
526.341	269.45
526.771	283.5
527.201	278.82
527.631	262.43
528.061	283.5
528.49	313.92
528.92	344.35
529.35	267.11
529.78	311.58
530.209	278.82
530.639	337.33
531.068	379.46
531.498	276.48
531.927	246.05
532.357	299.88
532.786	255.41
533.215	271.79
533.644	337.33
534.074	283.5
534.503	306.9
534.932	278.82
535.361	264.77
535.79	325.63
536.218	306.9
536.647	398.18
537.076	332.65
537.505	302.22
537.933	337.33
538.362	370.1
538.79	323.29
539.219	248.39
539.647	311.58
540.076	250.73
540.504	351.37
540.932	271.79
541.36	271.79
541.788	250.73
542.217	313.92
542.645	290.52
543.073	302.22
543.5	320.95
543.928	332.65
544.356	285.84
544.784	311.58
545.211	255.41
545.639	274.14
546.067	351.37
546.494	327.97
546.922	372.44
547.349	325.63
547.776	283.5
548.204	323.29
548.631	269.45
549.058	323.29
549.485	299.88
549.912	274.14
550.339	318.61
550.766	351.37
551.193	346.69
551.62	325.63
552.047	274.14
552.474	278.82
552.9	304.56
553.327	278.82
553.754	276.48
554.18	386.48
554.607	267.11
555.033	323.29
555.459	304.56
555.886	262.43
556.312	372.44
556.738	290.52
557.164	318.61
557.59	262.43
558.016	311.58
558.442	285.84
558.868	316.26
559.294	288.18
559.72	297.54
560.145	278.82
560.571	318.61
560.997	257.75
561.422	304.56
561.848	248.39
562.273	299.88
562.699	213.28
563.124	299.88
563.549	229.67
563.974	299.88
564.4	292.86
564.825	323.29
565.25	297.54
565.675	337.33
566.1	316.26
566.525	339.67
566.95	276.48
567.374	271.79
567.799	288.18
568.224	342.01
568.648	269.45
569.073	271.79
569.497	283.5
569.922	267.11
570.346	281.16
570.771	327.97
571.195	288.18
571.619	297.54
572.043	281.16
572.467	288.18
572.891	316.26
573.315	267.11
573.739	318.61
574.163	292.86
574.587	285.84
575.011	337.33
575.435	299.88
575.858	344.35
576.282	288.18
576.705	295.2
577.129	334.99
577.552	302.22
577.976	332.65
578.399	229.67
578.822	332.65
579.245	309.24
579.669	283.5
580.092	318.61
580.515	309.24
580.938	313.92
581.361	330.31
581.784	302.22
582.206	302.22
582.629	316.26
583.052	267.11
583.474	278.82
583.897	264.77
584.32	311.58
584.742	346.69
585.165	299.88
585.587	295.2
586.009	288.18
586.431	339.67
586.854	288.18
587.276	274.14
587.698	290.52
588.12	295.2
588.542	344.35
588.964	239.03
589.386	316.26
589.807	236.69
590.229	332.65
590.651	234.35
591.073	281.16
591.494	323.29
591.916	260.09
592.337	323.29
592.759	278.82
593.18	288.18
593.601	210.94
594.022	304.56
594.444	299.88
594.865	285.84
595.286	304.56
595.707	309.24
596.128	281.16
596.549	344.35
596.97	327.97
597.39	271.79
597.811	306.9
598.232	288.18
598.652	253.07
599.073	353.71
599.494	339.67
599.914	323.29
600.334	356.05
600.755	339.67
601.175	295.2
601.595	288.18
602.015	271.79
602.436	339.67
602.856	414.57
603.276	224.98
603.696	304.56
604.115	302.22
604.535	274.14
604.955	255.41
605.375	334.99
605.794	290.52
606.214	377.12
606.634	367.76
607.053	339.67
607.473	304.56
607.892	330.31
608.311	302.22
608.731	297.54
609.15	269.45
609.569	304.56
609.988	358.39
610.407	292.86
610.826	285.84
611.245	299.88
611.664	304.56
612.083	250.73
612.501	330.31
612.92	276.48
613.339	283.5
613.757	309.24
614.176	342.01
614.594	278.82
615.013	365.42
615.431	349.03
615.85	306.9
616.268	290.52
616.686	332.65
617.104	330.31
617.522	292.86
617.94	309.24
618.358	316.26
618.776	285.84
619.194	288.18
619.612	363.08
620.03	274.14
620.447	337.33
620.865	304.56
621.282	253.07
621.7	253.07
622.117	264.77
622.535	288.18
622.952	215.62
623.369	367.76
623.787	353.71
624.204	320.95
624.621	248.39
625.038	302.22
625.455	339.67
625.872	304.56
626.289	325.63
626.706	356.05
627.123	297.54
627.539	325.63
627.956	295.2
628.373	313.92
628.789	255.41
629.206	276.48
629.622	342.01
630.038	253.07
630.455	374.78
630.871	292.86
631.287	257.75
631.703	285.84
632.12	339.67
632.536	292.86
632.952	349.03
633.368	299.88
633.783	285.84
634.199	260.09
634.615	302.22
635.031	367.76
635.446	278.82
635.862	262.43
636.277	299.88
636.693	264.77
637.108	344.35
637.524	309.24
637.939	288.18
638.354	274.14
638.77	339.67
639.185	281.16
639.6	288.18
640.015	276.48
640.43	288.18
640.845	316.26
641.259	339.67
641.674	295.2
642.089	295.2
642.504	290.52
642.918	285.84
643.333	316.26
643.747	309.24
644.162	285.84
644.576	302.22
644.991	356.05
645.405	309.24
645.819	316.26
646.233	276.48
646.647	283.5
647.061	334.99
647.475	334.99
647.889	290.52
648.303	295.2
648.717	372.44
649.131	313.92
649.545	360.74
649.958	292.86
650.372	304.56
650.785	299.88
651.199	327.97
651.612	309.24
652.026	302.22
652.439	224.98
652.852	274.14
653.266	292.86
653.679	278.82
654.092	292.86
654.505	344.35
654.918	260.09
655.331	325.63
655.744	290.52
656.156	274.14
656.569	327.97
656.982	271.79
657.394	346.69
657.807	292.86
658.22	250.73
658.632	330.31
659.044	306.9
659.457	283.5
659.869	325.63
660.281	374.78
660.693	316.26
661.106	262.43
661.518	283.5
661.93	299.88
662.342	311.58
662.754	304.56
663.165	283.5
663.577	297.54
663.989	302.22
664.401	278.82
664.812	304.56
665.224	325.63
665.635	351.37
666.047	292.86
666.458	318.61
666.869	337.33
667.281	332.65
667.692	299.88
668.103	316.26
668.514	344.35
668.925	344.35
669.336	332.65
669.747	344.35
670.158	313.92
670.569	290.52
670.979	276.48
671.39	346.69
671.801	323.29
672.211	318.61
672.622	278.82
673.032	257.75
673.443	306.9
673.853	318.61
674.263	325.63
674.674	281.16
675.084	276.48
675.494	229.67
675.904	288.18
676.314	304.56
676.724	330.31
677.134	304.56
677.544	365.42
677.953	351.37
678.363	290.52
678.773	349.03
679.182	337.33
679.592	344.35
680.001	309.24
680.411	269.45
680.82	353.71
681.23	260.09
681.639	304.56
682.048	255.41
682.457	285.84
682.866	295.2
683.275	281.16
683.684	257.75
684.093	278.82
684.502	309.24
684.911	351.37
685.32	339.67
685.728	267.11
686.137	318.61
686.546	269.45
686.954	285.84
687.363	297.54
687.771	243.71
688.179	260.09
688.588	332.65
688.996	337.33
689.404	295.2
689.812	320.95
690.22	332.65
690.628	253.07
691.036	306.9
691.444	327.97
691.852	339.67
692.26	299.88
692.667	349.03
693.075	318.61
693.483	349.03
693.89	320.95
694.298	297.54
694.705	306.9
695.112	278.82
695.52	222.64
695.927	311.58
696.334	239.03
696.741	285.84
697.148	299.88
697.555	290.52
697.962	236.69
698.369	290.52
698.776	342.01
699.183	334.99
699.59	325.63
699.996	269.45
700.403	325.63
700.81	271.79
701.216	248.39
701.623	281.16
702.029	253.07
702.435	262.43
702.842	311.58
703.248	332.65
703.654	306.9
704.06	334.99
704.466	236.69
704.872	316.26
705.278	271.79
705.684	243.71
706.09	318.61
706.496	353.71
706.901	295.2
707.307	208.6
707.712	260.09
708.118	325.63
708.523	285.84
708.929	337.33
709.334	274.14
709.74	304.56
710.145	318.61
710.55	248.39
710.955	311.58
711.36	344.35
711.765	290.52
712.17	297.54
712.575	388.82
712.98	896.72
713.385	332.65
713.789	358.39
714.194	276.48
714.599	299.88
715.003	248.39
715.408	323.29
715.812	288.18
716.217	374.78
716.621	302.22
717.025	281.16
717.429	304.56
717.833	332.65
718.238	288.18
718.642	311.58
719.046	264.77
719.449	276.48
719.853	285.84
720.257	332.65
720.661	288.18
721.065	334.99
721.468	309.24
721.872	323.29
722.275	346.69
722.679	248.39
723.082	262.43
723.485	316.26
723.889	304.56
724.292	311.58
724.695	267.11
725.098	297.54
725.501	313.92
725.904	323.29
726.307	269.45
726.71	276.48
727.113	313.92
727.516	257.75
727.918	276.48
728.321	337.33
728.724	323.29
729.126	388.82
729.529	290.52
729.931	327.97
730.333	241.37
730.736	262.43
731.138	248.39
731.54	297.54
731.942	297.54
732.344	267.11
732.746	330.31
733.148	346.69
733.55	337.33
733.952	318.61
734.354	332.65
734.756	311.58
735.157	274.14
735.559	292.86
735.96	320.95
736.362	346.69
736.763	246.05
737.165	306.9
737.566	320.95
737.967	217.96
738.368	246.05
738.77	306.9
739.171	337.33
739.572	302.22
739.973	325.63
740.374	292.86
740.774	248.39
741.175	320.95
741.576	278.82
741.977	323.29
742.377	325.63
742.778	318.61
743.178	316.26
743.579	356.05
743.979	299.88
744.379	295.2
744.78	311.58
745.18	290.52
745.58	339.67
745.98	363.08
746.38	365.42
746.78	283.5
747.18	334.99
747.58	297.54
747.98	262.43
748.38	292.86
748.779	292.86
749.179	243.71
749.578	313.92
749.978	250.73
750.377	325.63
750.777	255.41
751.176	260.09
751.575	313.92
751.975	346.69
752.374	351.37
752.773	292.86
753.172	290.52
753.571	290.52
753.97	255.41
754.369	379.46
754.768	269.45
755.166	292.86
755.565	236.69
755.964	274.14
756.362	323.29
756.761	318.61
757.159	306.9
757.558	297.54
757.956	283.5
758.354	388.82
758.753	306.9
759.151	285.84
759.549	313.92
759.947	292.86
760.345	299.88
760.743	271.79
761.141	299.88
761.539	295.2
761.936	386.48
762.334	325.63
762.732	292.86
763.129	306.9
763.527	267.11
763.924	330.31
764.322	295.2
764.719	306.9
765.117	360.74
765.514	299.88
765.911	288.18
766.308	309.24
766.705	299.88
767.102	318.61
767.499	292.86
767.896	323.29
768.293	330.31
768.69	334.99
769.086	260.09
769.483	269.45
769.88	290.52
770.276	325.63
770.673	262.43
771.069	323.29
771.466	351.37
771.862	334.99
772.258	290.52
772.654	292.86
773.05	337.33
773.447	281.16
773.843	332.65
774.239	278.82
774.634	292.86
775.03	297.54
775.426	311.58
775.822	248.39
776.218	318.61
776.613	297.54
777.009	356.05
777.404	222.64
777.8	290.52
778.195	278.82
778.59	342.01
778.986	283.5
779.381	313.92
779.776	334.99
780.171	271.79
780.566	239.03
780.961	297.54
781.356	285.84
781.751	295.2
782.146	330.31
782.54	267.11
782.935	360.74
783.33	309.24
783.724	290.52
784.119	325.63
784.513	323.29
784.908	313.92
785.302	325.63
785.696	316.26
786.09	313.92
786.485	267.11
786.879	285.84
787.273	318.61
787.667	365.42
788.061	299.88
788.454	243.71
788.848	309.24
789.242	311.58
789.636	274.14
790.029	306.9
790.423	227.32
790.816	213.28
791.21	274.14
791.603	274.14
791.997	318.61
792.39	316.26
792.783	271.79
793.176	269.45
793.569	363.08
793.962	264.77
794.355	309.24
794.748	302.22
795.141	337.33
795.534	290.52
795.927	334.99
796.319	288.18
796.712	325.63
797.105	274.14
797.497	292.86
797.89	290.52
798.282	318.61
798.674	351.37
799.067	264.77
799.459	306.9
799.851	391.16
800.243	302.22
800.635	304.56
801.027	297.54
801.419	299.88
801.811	257.75
802.203	320.95
802.594	290.52
802.986	276.48
803.378	297.54
803.769	318.61
804.161	283.5
804.552	297.54
804.944	276.48
805.335	295.2
805.726	334.99
806.118	297.54
806.509	248.39
806.9	290.52
807.291	229.67
807.682	281.16
808.073	276.48
808.464	337.33
808.855	349.03
809.245	318.61
809.636	274.14
810.027	281.16
810.417	330.31
810.808	278.82
811.198	302.22
811.589	292.86
811.979	278.82
812.369	283.5
812.759	276.48
813.15	330.31
813.54	344.35
813.93	304.56
814.32	283.5
814.71	253.07
815.1	246.05
815.489	332.65
815.879	309.24
816.269	297.54
816.658	306.9
817.048	325.63
817.438	271.79
817.827	306.9
818.216	281.16
818.606	271.79
818.995	299.88
819.384	409.89
819.773	309.24
820.163	320.95
820.552	292.86
820.941	283.5
821.33	295.2
821.718	297.54
822.107	306.9
822.496	330.31
822.885	274.14
823.273	295.2
823.662	276.48
824.05	313.92
824.439	274.14
824.827	269.45
825.216	299.88
825.604	276.48
825.992	276.48
826.38	302.22
826.768	323.29
827.156	320.95
827.544	304.56
827.932	248.39
828.32	274.14
828.708	243.71
829.096	297.54
829.483	309.24
829.871	295.2
830.259	363.08
830.646	316.26
831.034	351.37
831.421	288.18
831.808	271.79
832.196	276.48
832.583	313.92
832.97	388.82
833.357	290.52
833.744	325.63
834.131	295.2
834.518	253.07
834.905	299.88
835.292	302.22
835.678	332.65
836.065	295.2
836.452	283.5
836.838	377.12
837.225	250.73
837.611	281.16
837.998	243.71
838.384	288.18
838.77	302.22
839.157	313.92
839.543	349.03
839.929	292.86
840.315	276.48
840.701	339.67
841.087	318.61
841.473	316.26
841.858	260.09
842.244	318.61
842.63	255.41
843.015	311.58
843.401	370.1
843.787	267.11
844.172	269.45
844.557	269.45
844.943	283.5
845.328	323.29
845.713	253.07
846.098	318.61
846.483	309.24
846.868	349.03
847.253	299.88
847.638	316.26
848.023	306.9
848.408	349.03
848.793	302.22
849.177	302.22
849.562	299.88
849.947	290.52
850.331	316.26
850.715	302.22
851.1	278.82
851.484	288.18
851.868	250.73
852.253	229.67
852.637	288.18
853.021	309.24
853.405	285.84
853.789	271.79
854.173	342.01
854.557	318.61
854.94	344.35
855.324	299.88
855.708	283.5
856.091	342.01
856.475	278.82
856.858	327.97
857.242	363.08
857.625	241.37
858.009	299.88
858.392	290.52
858.775	306.9
859.158	318.61
859.541	313.92
859.924	320.95
860.307	344.35
860.69	309.24
861.073	311.58
861.456	304.56
861.838	349.03
862.221	323.29
862.604	288.18
862.986	260.09
863.369	351.37
863.751	306.9
864.133	299.88
864.516	253.07
864.898	332.65
865.28	290.52
865.662	290.52
866.044	246.05
866.426	283.5
866.808	295.2
867.19	283.5
867.572	349.03
867.954	363.08
868.336	306.9
868.717	285.84
869.099	316.26
869.48	255.41
869.862	271.79
870.243	290.52
870.625	239.03
871.006	346.69
871.387	278.82
871.768	339.67
872.149	264.77
872.53	295.2
872.911	297.54
873.292	318.61
873.673	292.86
874.054	330.31
874.435	323.29
874.815	299.88
875.196	288.18
875.577	264.77
875.957	255.41
876.338	309.24
876.718	334.99
877.098	323.29
877.479	311.58
877.859	297.54
878.239	297.54
878.619	332.65
878.999	323.29
879.379	302.22
879.759	342.01
880.139	351.37
880.519	253.07
880.898	318.61
881.278	334.99
881.658	356.05
882.037	285.84
882.417	260.09
882.796	316.26
883.176	290.52
883.555	250.73
883.934	323.29
884.313	281.16
884.693	285.84
885.072	363.08
885.451	267.11
885.83	271.79
886.209	349.03
886.587	327.97
886.966	248.39
887.345	299.88
887.724	297.54
888.102	349.03
888.481	330.31
888.859	253.07
889.238	278.82
889.616	262.43
889.994	302.22
890.373	278.82
890.751	302.22
891.129	351.37
891.507	344.35
891.885	264.77
892.263	281.16
892.641	292.86
893.019	281.16
893.396	299.88
893.774	222.64
894.152	288.18
894.529	250.73
894.907	306.9
895.284	288.18
895.662	384.14
896.039	416.91
896.416	360.74
896.794	290.52
897.171	370.1
897.548	363.08
897.925	290.52
898.302	262.43
898.679	320.95
899.056	290.52
899.433	332.65
899.809	339.67
900.186	339.67
900.563	334.99
900.939	269.45
901.316	290.52
901.692	320.95
902.069	306.9
902.445	210.94
902.821	323.29
903.197	339.67
903.574	367.76
903.95	313.92
904.326	346.69
904.702	281.16
905.078	330.31
905.454	349.03
905.829	299.88
906.205	302.22
906.581	297.54
906.956	306.9
907.332	283.5
907.707	334.99
908.083	330.31
908.458	281.16
908.833	318.61
909.209	241.37
909.584	271.79
909.959	250.73
910.334	283.5
910.709	334.99
911.084	313.92
911.459	260.09
911.834	323.29
912.209	311.58
912.583	337.33
912.958	281.16
913.333	276.48
913.707	262.43
914.082	292.86
914.456	302.22
914.83	297.54
915.205	332.65
915.579	264.77
915.953	330.31
916.327	297.54
916.701	346.69
917.075	295.2
917.449	241.37
917.823	264.77
918.197	267.11
918.571	269.45
918.944	304.56
919.318	318.61
919.692	344.35
920.065	346.69
920.438	360.74
920.812	342.01
921.185	250.73
921.558	304.56
921.932	339.67
922.305	346.69
922.678	295.2
923.051	257.75
923.424	257.75
923.797	264.77
924.17	278.82
924.542	309.24
924.915	412.23
925.288	267.11
925.661	264.77
926.033	309.24
926.406	292.86
926.778	311.58
927.15	379.46
927.523	325.63
927.895	311.58
928.267	241.37
928.639	288.18
929.011	327.97
929.383	332.65
929.755	320.95
930.127	370.1
930.499	267.11
930.871	377.12
931.242	313.92
931.614	269.45
931.986	295.2
932.357	374.78
932.729	288.18
933.1	271.79
933.471	318.61
933.843	262.43
934.214	339.67
934.585	304.56
934.956	264.77
935.327	344.35
935.698	278.82
936.069	255.41
936.44	243.71
936.811	358.39
937.182	262.43
937.552	290.52
937.923	306.9
938.293	344.35
938.664	358.39
939.034	283.5
939.405	320.95
939.775	234.35
940.145	295.2
940.516	278.82
940.886	264.77
941.256	269.45
941.626	311.58
941.996	370.1
942.366	271.79
942.735	288.18
943.105	253.07
943.475	269.45
943.845	309.24
944.214	302.22
944.584	295.2
944.953	325.63
945.323	253.07
945.692	330.31
946.061	297.54
946.43	332.65
946.8	309.24
947.169	241.37
947.538	353.71
947.907	262.43
948.276	342.01
948.645	260.09
949.013	318.61
949.382	281.16
949.751	288.18
950.119	342.01
950.488	295.2
950.857	344.35
951.225	325.63
951.593	276.48
951.962	313.92
952.33	253.07
952.698	290.52
953.066	313.92
953.434	337.33
953.802	370.1
954.17	255.41
954.538	232.01
954.906	356.05
955.274	311.58
955.642	271.79
956.009	227.32
956.377	290.52
956.744	367.76
957.112	264.77
957.479	297.54
957.847	246.05
958.214	306.9
958.581	241.37
958.948	330.31
959.315	309.24
959.683	349.03
960.05	290.52
960.416	304.56
960.783	260.09
961.15	292.86
961.517	264.77
961.884	288.18
962.25	267.11
962.617	285.84
962.983	325.63
963.35	330.31
963.716	239.03
964.082	309.24
964.449	290.52
964.815	290.52
965.181	320.95
965.547	267.11
965.913	339.67
966.279	288.18
966.645	227.32
967.011	274.14
967.377	295.2
967.742	288.18
968.108	318.61
968.474	288.18
968.839	250.73
969.205	309.24
969.57	342.01
969.935	302.22
970.301	332.65
970.666	323.29
971.031	349.03
971.396	351.37
971.761	330.31
972.126	276.48
972.491	337.33
972.856	306.9
973.221	346.69
973.586	297.54
973.95	337.33
974.315	288.18
974.679	295.2
975.044	283.5
975.408	271.79
975.773	297.54
976.137	281.16
976.501	327.97
976.866	358.39
977.23	292.86
977.594	299.88
977.958	325.63
978.322	269.45
978.686	274.14
979.049	255.41
979.413	339.67
979.777	295.2
980.141	304.56
980.504	260.09
980.868	325.63
981.231	325.63
981.595	313.92
981.958	239.03
982.321	267.11
982.684	318.61
983.048	346.69
983.411	342.01
983.774	318.61
984.137	309.24
984.5	367.76
984.862	288.18
985.225	271.79
985.588	367.76
985.951	260.09
986.313	297.54
986.676	356.05
987.038	325.63
987.401	344.35
987.763	267.11
988.125	267.11
988.488	297.54
988.85	290.52
989.212	243.71
989.574	337.33
989.936	327.97
990.298	281.16
990.66	344.35
991.022	250.73
991.383	320.95
991.745	255.41
992.107	330.31
992.468	370.1
992.83	267.11
993.191	358.39
993.553	283.5
993.914	311.58
994.275	257.75
994.637	299.88
994.998	358.39
995.359	292.86
995.72	316.26
996.081	346.69
996.442	302.22
996.803	297.54
997.163	325.63
997.524	370.1
997.885	349.03
998.245	386.48
998.606	285.84
998.966	229.67
999.327	281.16
999.687	325.63
1000.047	325.63
1000.408	323.29
1000.768	285.84
1001.128	274.14
1001.488	323.29
1001.848	210.94
1002.208	257.75
1002.568	327.97
1002.927	292.86
1003.287	313.92
1003.647	342.01
1004.007	290.52
1004.366	274.14
1004.726	217.96
1005.085	295.2
1005.444	220.3
1005.804	232.01
1006.163	288.18
1006.522	292.86
1006.881	323.29
1007.24	327.97
1007.599	299.88
1007.958	318.61
1008.317	297.54
1008.676	337.33
1009.035	269.45
1009.393	330.31
1009.752	283.5
1010.111	313.92
1010.469	269.45
1010.828	323.29
1011.186	330.31
1011.544	269.45
1011.903	281.16
1012.261	267.11
1012.619	313.92
1012.977	269.45
1013.335	323.29
1013.693	306.9
1014.051	206.26
1014.409	323.29
1014.767	271.79
1015.124	332.65
1015.482	281.16
1015.84	278.82
1016.197	342.01
1016.555	320.95
1016.912	379.46
1017.269	278.82
1017.627	299.88
1017.984	262.43
1018.341	334.99
1018.698	304.56
1019.055	295.2
1019.412	311.58
1019.769	325.63
1020.126	295.2
1020.483	318.61
1020.84	285.84
1021.196	330.31
1021.553	299.88
1021.909	323.29
1022.266	236.69
1022.622	285.84
1022.979	372.44
1023.335	297.54
1023.691	276.48
1024.047	302.22
1024.404	290.52
1024.76	309.24
1025.116	318.61
1025.472	253.07
1025.827	306.9
1026.183	302.22
1026.539	316.26
1026.895	325.63
1027.25	241.37
1027.606	224.98
1027.961	292.86
1028.317	271.79
1028.672	290.52
1029.028	285.84
1029.383	302.22
1029.738	330.31
1030.093	339.67
1030.448	306.9
1030.803	262.43
1031.158	278.82
1031.513	302.22
1031.868	316.26
1032.223	360.74
1032.577	222.64
1032.932	281.16
1033.287	302.22
1033.641	313.92
1033.996	215.62
1034.35	285.84
1034.704	330.31
1035.059	278.82
1035.413	267.11
1035.767	267.11
1036.121	267.11
