Data from Al_FLMS009871__881__16-17-03-225.txt Node

Date: Fri Mar 08 16:17:03 CST 2024
User: pe5414po
Spectrometer: FLMS00987
Trigger mode: 0
Integration Time (sec): 1.000000E-1
Scans to average: 1
Electric dark correction enabled: true
Nonlinearity correction enabled: false
Boxcar width: 0
XAxis mode: Wavelengths
Number of Pixels in Spectrum: 2048
>>>>>Begin Spectral Data<<<<<
188.938	-120.54
189.409	-120.54
189.879	-120.54
190.349	-104.15
190.819	-125.22
191.29	-120.54
191.76	-73.73
192.23	-78.41
192.7	-108.83
193.17	-99.47
193.64	-31.6
194.109	-36.28
194.579	64.36
195.049	43.3
195.519	-12.87
195.988	8.19
196.458	24.58
196.927	106.49
197.397	111.18
197.866	143.94
198.336	59.68
198.805	139.26
199.274	155.65
199.744	162.67
200.213	286.72
200.682	263.31
201.151	200.12
201.62	176.71
202.089	253.95
202.558	242.25
203.027	305.44
203.495	277.35
203.964	176.71
204.433	230.54
204.902	293.74
205.37	176.71
205.839	368.63
206.307	270.33
206.776	307.78
207.244	244.59
207.712	363.95
208.181	338.21
208.649	289.06
209.117	317.14
209.585	319.48
210.053	260.97
210.521	249.27
210.989	312.46
211.457	335.87
211.925	324.16
212.393	223.52
212.861	321.82
213.328	286.72
213.796	275.01
214.264	242.25
214.731	214.16
215.199	300.76
215.666	307.78
216.133	282.03
216.601	237.56
217.068	289.06
217.535	296.08
218.003	279.69
218.47	282.03
218.937	328.85
219.404	279.69
219.871	270.33
220.338	223.52
220.805	239.9
221.271	314.8
221.738	279.69
222.205	270.33
222.671	293.74
223.138	275.01
223.605	279.69
224.071	293.74
224.538	228.2
225.004	333.53
225.47	249.27
225.937	242.25
226.403	244.59
226.869	258.63
227.335	317.14
227.801	331.19
228.267	331.19
228.733	338.21
229.199	265.65
229.665	345.23
230.131	272.67
230.597	188.41
231.062	258.63
231.528	286.72
231.994	270.33
232.459	361.61
232.925	338.21
233.39	237.56
233.856	298.42
234.321	307.78
234.786	279.69
235.252	286.72
235.717	319.48
236.182	284.38
236.647	340.55
237.112	307.78
237.577	298.42
238.042	324.16
238.507	263.31
238.972	235.22
239.436	279.69
239.901	275.01
240.366	326.5
240.83	277.35
241.295	342.89
241.76	284.38
242.224	272.67
242.688	307.78
243.153	340.55
243.617	237.56
244.081	277.35
244.545	328.85
245.01	312.46
245.474	286.72
245.938	253.95
246.402	284.38
246.866	272.67
247.33	300.76
247.793	265.65
248.257	282.03
248.721	235.22
249.185	310.12
249.648	286.72
250.112	305.44
250.575	253.95
251.039	352.25
251.502	263.31
251.965	312.46
252.429	368.63
252.892	296.08
253.355	345.23
253.818	342.89
254.281	342.89
254.744	277.35
255.207	326.5
255.67	326.5
256.133	298.42
256.596	223.52
257.059	321.82
257.522	214.16
257.984	279.69
258.447	345.23
258.909	289.06
259.372	286.72
259.834	284.38
260.297	321.82
260.759	270.33
261.221	335.87
261.684	256.29
262.146	267.99
262.608	291.4
263.07	312.46
263.532	340.55
263.994	253.95
264.456	270.33
264.918	296.08
265.38	314.8
265.842	286.72
266.303	267.99
266.765	326.5
267.227	303.1
267.688	279.69
268.15	307.78
268.611	293.74
269.072	326.5
269.534	324.16
269.995	246.93
270.456	275.01
270.918	324.16
271.379	321.82
271.84	307.78
272.301	286.72
272.762	272.67
273.223	270.33
273.684	328.85
274.144	345.23
274.605	349.91
275.066	300.76
275.527	275.01
275.987	277.35
276.448	354.59
276.908	296.08
277.369	310.12
277.829	286.72
278.289	307.78
278.75	307.78
279.21	251.61
279.67	333.53
280.13	345.23
280.59	284.38
281.05	279.69
281.51	289.06
281.97	265.65
282.43	326.5
282.89	324.16
283.35	260.97
283.809	340.55
284.269	328.85
284.729	396.72
285.188	307.78
285.648	312.46
286.107	272.67
286.567	319.48
287.026	310.12
287.485	378
287.944	296.08
288.404	249.27
288.863	338.21
289.322	324.16
289.781	370.97
290.24	223.52
290.699	246.93
291.158	305.44
291.616	251.61
292.075	289.06
292.534	270.33
292.992	305.44
293.451	312.46
293.91	265.65
294.368	321.82
294.827	284.38
295.285	340.55
295.743	361.61
296.202	239.9
296.66	263.31
297.118	277.35
297.576	314.8
298.034	303.1
298.492	246.93
298.95	286.72
299.408	326.5
299.866	345.23
300.324	300.76
300.781	403.74
301.239	298.42
301.697	335.87
302.154	312.46
302.612	305.44
303.069	324.16
303.527	312.46
303.984	275.01
304.441	282.03
304.899	279.69
305.356	326.5
305.813	300.76
306.27	310.12
306.727	361.61
307.184	382.68
307.641	298.42
308.098	333.53
308.555	319.48
309.012	307.78
309.468	265.65
309.925	218.84
310.382	265.65
310.838	310.12
311.295	335.87
311.751	338.21
312.208	324.16
312.664	324.16
313.12	305.44
313.577	307.78
314.033	338.21
314.489	237.56
314.945	284.38
315.401	321.82
315.857	298.42
316.313	310.12
316.769	296.08
317.225	291.4
317.681	272.67
318.136	345.23
318.592	319.48
319.048	382.68
319.503	300.76
319.959	286.72
320.414	359.27
320.869	314.8
321.325	293.74
321.78	324.16
322.235	340.55
322.691	305.44
323.146	321.82
323.601	333.53
324.056	312.46
324.511	356.93
324.966	321.82
325.421	286.72
325.875	312.46
326.33	296.08
326.785	319.48
327.24	338.21
327.694	335.87
328.149	305.44
328.603	345.23
329.058	328.85
329.512	235.22
329.966	321.82
330.421	340.55
330.875	368.63
331.329	310.12
331.783	291.4
332.237	338.21
332.691	319.48
333.145	328.85
333.599	356.93
334.053	263.31
334.507	342.89
334.96	263.31
335.414	385.02
335.868	277.35
336.321	356.93
336.775	321.82
337.228	370.97
337.682	352.25
338.135	321.82
338.588	319.48
339.042	310.12
339.495	284.38
339.948	303.1
340.401	380.34
340.854	296.08
341.307	305.44
341.76	305.44
342.213	249.27
342.666	289.06
343.119	373.32
343.571	354.59
344.024	373.32
344.477	284.38
344.929	289.06
345.382	326.5
345.834	186.07
346.287	289.06
346.739	370.97
347.191	354.59
347.644	303.1
348.096	279.69
348.548	321.82
349	340.55
349.452	251.61
349.904	286.72
350.356	349.91
350.808	338.21
351.26	347.57
351.711	317.14
352.163	289.06
352.615	389.7
353.066	286.72
353.518	296.08
353.969	223.52
354.421	293.74
354.872	335.87
355.324	289.06
355.775	321.82
356.226	317.14
356.677	277.35
357.128	260.97
357.579	331.19
358.03	324.16
358.481	321.82
358.932	307.78
359.383	335.87
359.834	272.67
360.285	289.06
360.735	310.12
361.186	256.29
361.637	321.82
362.087	300.76
362.538	368.63
362.988	333.53
363.438	324.16
363.889	305.44
364.339	338.21
364.789	296.08
365.239	251.61
365.689	279.69
366.139	326.5
366.589	277.35
367.039	321.82
367.489	331.19
367.939	307.78
368.389	218.84
368.839	378
369.288	314.8
369.738	296.08
370.187	326.5
370.637	356.93
371.086	286.72
371.536	256.29
371.985	354.59
372.434	317.14
372.884	347.57
373.333	349.91
373.782	300.76
374.231	303.1
374.68	392.04
375.129	380.34
375.578	319.48
376.027	324.16
376.475	258.63
376.924	303.1
377.373	331.19
377.822	314.8
378.27	317.14
378.719	298.42
379.167	314.8
379.616	328.85
380.064	321.82
380.512	293.74
380.961	335.87
381.409	303.1
381.857	356.93
382.305	352.25
382.753	333.53
383.201	321.82
383.649	291.4
384.097	324.16
384.545	293.74
384.992	340.55
385.44	314.8
385.888	352.25
386.335	317.14
386.783	342.89
387.231	356.93
387.678	410.76
388.125	378
388.573	284.38
389.02	307.78
389.467	310.12
389.914	340.55
390.362	328.85
390.809	338.21
391.256	326.5
391.703	286.72
392.15	361.61
392.596	291.4
393.043	277.35
393.49	246.93
393.937	326.5
394.383	363.95
394.83	324.16
395.276	289.06
395.723	282.03
396.169	312.46
396.616	289.06
397.062	349.91
397.508	289.06
397.954	366.29
398.401	361.61
398.847	270.33
399.293	361.61
399.739	317.14
400.185	310.12
400.631	326.5
401.076	331.19
401.522	284.38
401.968	340.55
402.414	375.66
402.859	335.87
403.305	282.03
403.75	347.57
404.196	267.99
404.641	375.66
405.086	279.69
405.532	310.12
405.977	300.76
406.422	317.14
406.867	333.53
407.312	312.46
407.757	375.66
408.202	300.76
408.647	317.14
409.092	303.1
409.537	342.89
409.982	319.48
410.426	314.8
410.871	331.19
411.316	324.16
411.76	265.65
412.205	333.53
412.649	284.38
413.093	333.53
413.538	354.59
413.982	296.08
414.426	354.59
414.87	253.95
415.314	284.38
415.758	298.42
416.202	354.59
416.646	284.38
417.09	370.97
417.534	347.57
417.978	321.82
418.421	321.82
418.865	314.8
419.309	312.46
419.752	347.57
420.196	319.48
420.639	347.57
421.083	275.01
421.526	356.93
421.969	291.4
422.412	244.59
422.856	375.66
423.299	296.08
423.742	319.48
424.185	314.8
424.628	375.66
425.071	394.38
425.513	279.69
425.956	291.4
426.399	317.14
426.842	239.9
427.284	291.4
427.727	270.33
428.169	328.85
428.612	284.38
429.054	298.42
429.497	277.35
429.939	303.1
430.381	249.27
430.823	286.72
431.265	345.23
431.707	345.23
432.149	342.89
432.591	317.14
433.033	293.74
433.475	251.61
433.917	321.82
434.359	312.46
434.8	345.23
435.242	352.25
435.684	326.5
436.125	319.48
436.567	352.25
437.008	363.95
437.449	326.5
437.891	331.19
438.332	333.53
438.773	307.78
439.214	331.19
439.656	307.78
440.097	342.89
440.538	326.5
440.978	303.1
441.419	314.8
441.86	260.97
442.301	345.23
442.742	340.55
443.182	342.89
443.623	321.82
444.063	298.42
444.504	317.14
444.944	375.66
445.385	293.74
445.825	291.4
446.265	326.5
446.706	354.59
447.146	328.85
447.586	347.57
448.026	333.53
448.466	260.97
448.906	232.88
449.346	305.44
449.786	296.08
450.225	312.46
450.665	331.19
451.105	279.69
451.544	354.59
451.984	284.38
452.424	338.21
452.863	314.8
453.302	359.27
453.742	387.36
454.181	305.44
454.62	249.27
455.059	246.93
455.499	272.67
455.938	310.12
456.377	293.74
456.816	363.95
457.254	338.21
457.693	352.25
458.132	310.12
458.571	338.21
459.01	307.78
459.448	296.08
459.887	312.46
460.325	291.4
460.764	342.89
461.202	378
461.641	242.25
462.079	328.85
462.517	380.34
462.955	317.14
463.393	296.08
463.832	354.59
464.27	338.21
464.708	298.42
465.145	284.38
465.583	321.82
466.021	307.78
466.459	328.85
466.897	298.42
467.334	356.93
467.772	356.93
468.209	289.06
468.647	296.08
469.084	303.1
469.522	277.35
469.959	328.85
470.396	317.14
470.833	317.14
471.271	263.31
471.708	349.91
472.145	347.57
472.582	335.87
473.019	331.19
473.456	333.53
473.892	310.12
474.329	314.8
474.766	340.55
475.202	286.72
475.639	345.23
476.076	352.25
476.512	312.46
476.949	338.21
477.385	326.5
477.821	317.14
478.258	349.91
478.694	305.44
479.13	361.61
479.566	378
480.002	321.82
480.438	305.44
480.874	373.32
481.31	312.46
481.746	319.48
482.181	310.12
482.617	279.69
483.053	312.46
483.488	291.4
483.924	300.76
484.36	338.21
484.795	378
485.23	352.25
485.666	347.57
486.101	366.29
486.536	356.93
486.971	277.35
487.407	340.55
487.842	314.8
488.277	305.44
488.712	389.7
489.146	279.69
489.581	310.12
490.016	373.32
490.451	303.1
490.885	326.5
491.32	303.1
491.755	310.12
492.189	359.27
492.624	314.8
493.058	298.42
493.492	338.21
493.927	352.25
494.361	305.44
494.795	340.55
495.229	317.14
495.663	342.89
496.097	368.63
496.531	312.46
496.965	370.97
497.399	378
497.833	354.59
498.266	244.59
498.7	314.8
499.134	359.27
499.567	324.16
500.001	331.19
500.434	328.85
500.868	321.82
501.301	352.25
501.734	321.82
502.168	272.67
502.601	300.76
503.034	296.08
503.467	289.06
503.9	286.72
504.333	342.89
504.766	267.99
505.199	307.78
505.632	317.14
506.064	312.46
506.497	326.5
506.93	326.5
507.362	340.55
507.795	340.55
508.227	319.48
508.66	265.65
509.092	321.82
509.524	272.67
509.956	324.16
510.389	319.48
510.821	366.29
511.253	296.08
511.685	314.8
512.117	312.46
512.549	347.57
512.981	272.67
513.412	237.56
513.844	270.33
514.276	221.18
514.707	342.89
515.139	352.25
515.571	310.12
516.002	363.95
516.433	279.69
516.865	279.69
517.296	303.1
517.727	338.21
518.159	270.33
518.59	298.42
519.021	326.5
519.452	300.76
519.883	380.34
520.314	298.42
520.744	289.06
521.175	340.55
521.606	389.7
522.037	321.82
522.467	368.63
522.898	307.78
523.328	347.57
523.759	396.72
524.189	394.38
524.62	342.89
525.05	340.55
525.48	333.53
525.91	286.72
526.341	328.85
526.771	256.29
527.201	282.03
527.631	363.95
528.061	293.74
528.49	347.57
528.92	356.93
529.35	352.25
529.78	298.42
530.209	394.38
530.639	300.76
531.068	267.99
531.498	321.82
531.927	354.59
532.357	370.97
532.786	314.8
533.215	242.25
533.644	347.57
534.074	293.74
534.503	382.68
534.932	331.19
535.361	326.5
535.79	352.25
536.218	356.93
536.647	265.65
537.076	347.57
537.505	317.14
537.933	298.42
538.362	328.85
538.79	366.29
539.219	282.03
539.647	335.87
540.076	312.46
540.504	296.08
540.932	314.8
541.36	310.12
541.788	307.78
542.217	356.93
542.645	335.87
543.073	321.82
543.5	338.21
543.928	307.78
544.356	314.8
544.784	349.91
545.211	305.44
545.639	342.89
546.067	387.36
546.494	340.55
546.922	291.4
547.349	368.63
547.776	298.42
548.204	319.48
548.631	310.12
549.058	328.85
549.485	305.44
549.912	284.38
550.339	296.08
550.766	314.8
551.193	296.08
551.62	312.46
552.047	366.29
552.474	293.74
552.9	298.42
553.327	373.32
553.754	356.93
554.18	352.25
554.607	352.25
555.033	335.87
555.459	363.95
555.886	347.57
556.312	331.19
556.738	307.78
557.164	303.1
557.59	345.23
558.016	324.16
558.442	338.21
558.868	284.38
559.294	333.53
559.72	359.27
560.145	307.78
560.571	347.57
560.997	282.03
561.422	275.01
561.848	300.76
562.273	331.19
562.699	347.57
563.124	399.06
563.549	324.16
563.974	314.8
564.4	356.93
564.825	286.72
565.25	349.91
565.675	359.27
566.1	298.42
566.525	333.53
566.95	312.46
567.374	333.53
567.799	314.8
568.224	303.1
568.648	317.14
569.073	305.44
569.497	331.19
569.922	331.19
570.346	352.25
570.771	321.82
571.195	298.42
571.619	305.44
572.043	380.34
572.467	331.19
572.891	272.67
573.315	340.55
573.739	312.46
574.163	326.5
574.587	356.93
575.011	333.53
575.435	333.53
575.858	319.48
576.282	298.42
576.705	324.16
577.129	298.42
577.552	335.87
577.976	352.25
578.399	307.78
578.822	345.23
579.245	265.65
579.669	289.06
580.092	317.14
580.515	321.82
580.938	354.59
581.361	356.93
581.784	303.1
582.206	331.19
582.629	291.4
583.052	317.14
583.474	319.48
583.897	286.72
584.32	394.38
584.742	286.72
585.165	298.42
585.587	352.25
586.009	392.04
586.431	385.02
586.854	279.69
587.276	251.61
587.698	345.23
588.12	345.23
588.542	338.21
588.964	326.5
589.386	345.23
589.807	373.32
590.229	373.32
590.651	291.4
591.073	307.78
591.494	256.29
591.916	345.23
592.337	340.55
592.759	361.61
593.18	284.38
593.601	291.4
594.022	256.29
594.444	314.8
594.865	340.55
595.286	314.8
595.707	310.12
596.128	380.34
596.549	326.5
596.97	319.48
597.39	335.87
597.811	310.12
598.232	289.06
598.652	232.88
599.073	328.85
599.494	298.42
599.914	319.48
600.334	298.42
600.755	378
601.175	310.12
601.595	349.91
602.015	356.93
602.436	340.55
602.856	464.6
603.276	310.12
603.696	244.59
604.115	305.44
604.535	300.76
604.955	312.46
605.375	385.02
605.794	389.7
606.214	335.87
606.634	314.8
607.053	375.66
607.473	403.74
607.892	335.87
608.311	289.06
608.731	317.14
609.15	272.67
609.569	347.57
609.988	275.01
610.407	317.14
610.826	368.63
611.245	370.97
611.664	342.89
612.083	319.48
612.501	317.14
612.92	342.89
613.339	326.5
613.757	345.23
614.176	380.34
614.594	303.1
615.013	359.27
615.431	293.74
615.85	321.82
616.268	284.38
616.686	319.48
617.104	258.63
617.522	291.4
617.94	291.4
618.358	282.03
618.776	272.67
619.194	293.74
619.612	235.22
620.03	286.72
620.447	272.67
620.865	324.16
621.282	267.99
621.7	342.89
622.117	354.59
622.535	328.85
622.952	307.78
623.369	289.06
623.787	265.65
624.204	293.74
624.621	431.83
625.038	289.06
625.455	335.87
625.872	267.99
626.289	319.48
626.706	258.63
627.123	317.14
627.539	340.55
627.956	326.5
628.373	342.89
628.789	354.59
629.206	312.46
629.622	342.89
630.038	359.27
630.455	270.33
630.871	321.82
631.287	324.16
631.703	349.91
632.12	305.44
632.536	289.06
632.952	352.25
633.368	321.82
633.783	291.4
634.199	237.56
634.615	312.46
635.031	303.1
635.446	338.21
635.862	314.8
636.277	370.97
636.693	267.99
637.108	352.25
637.524	305.44
637.939	331.19
638.354	293.74
638.77	298.42
639.185	340.55
639.6	378
640.015	338.21
640.43	338.21
640.845	256.29
641.259	366.29
641.674	286.72
642.089	291.4
642.504	338.21
642.918	338.21
643.333	310.12
643.747	270.33
644.162	286.72
644.576	277.35
644.991	347.57
645.405	347.57
645.819	331.19
646.233	307.78
646.647	335.87
647.061	347.57
647.475	356.93
647.889	296.08
648.303	354.59
648.717	373.32
649.131	319.48
649.545	305.44
649.958	317.14
650.372	326.5
650.785	321.82
651.199	305.44
651.612	363.95
652.026	331.19
652.439	335.87
652.852	356.93
653.266	331.19
653.679	284.38
654.092	328.85
654.505	359.27
654.918	385.02
655.331	338.21
655.744	319.48
656.156	342.89
656.569	272.67
656.982	258.63
657.394	282.03
657.807	282.03
658.22	340.55
658.632	333.53
659.044	326.5
659.457	356.93
659.869	328.85
660.281	370.97
660.693	279.69
661.106	363.95
661.518	361.61
661.93	310.12
662.342	345.23
662.754	312.46
663.165	345.23
663.577	270.33
663.989	267.99
664.401	270.33
664.812	305.44
665.224	312.46
665.635	307.78
666.047	312.46
666.458	321.82
666.869	373.32
667.281	375.66
667.692	368.63
668.103	319.48
668.514	286.72
668.925	321.82
669.336	314.8
669.747	310.12
670.158	328.85
670.569	373.32
670.979	347.57
671.39	354.59
671.801	328.85
672.211	272.67
672.622	363.95
673.032	272.67
673.443	345.23
673.853	314.8
674.263	338.21
674.674	317.14
675.084	300.76
675.494	410.76
675.904	354.59
676.314	342.89
676.724	307.78
677.134	310.12
677.544	331.19
677.953	326.5
678.363	359.27
678.773	378
679.182	333.53
679.592	361.61
680.001	363.95
680.411	347.57
680.82	375.66
681.23	289.06
681.639	363.95
682.048	289.06
682.457	394.38
682.866	314.8
683.275	363.95
683.684	289.06
684.093	321.82
684.502	375.66
684.911	335.87
685.32	312.46
685.728	354.59
686.137	291.4
686.546	300.76
686.954	354.59
687.363	352.25
687.771	298.42
688.179	324.16
688.588	328.85
688.996	359.27
689.404	303.1
689.812	228.2
690.22	354.59
690.628	310.12
691.036	310.12
691.444	356.93
691.852	333.53
692.26	382.68
692.667	319.48
693.075	310.12
693.483	356.93
693.89	363.95
694.298	298.42
694.705	291.4
695.112	356.93
695.52	305.44
695.927	298.42
696.334	293.74
696.741	347.57
697.148	305.44
697.555	312.46
697.962	349.91
698.369	319.48
698.776	249.27
699.183	321.82
699.59	380.34
699.996	342.89
700.403	310.12
700.81	312.46
701.216	338.21
701.623	317.14
702.029	303.1
702.435	291.4
702.842	282.03
703.248	310.12
703.654	317.14
704.06	347.57
704.466	314.8
704.872	375.66
705.278	352.25
705.684	321.82
706.09	324.16
706.496	354.59
706.901	249.27
707.307	331.19
707.712	356.93
708.118	279.69
708.523	349.91
708.929	317.14
709.334	333.53
709.74	263.31
710.145	321.82
710.55	366.29
710.955	260.97
711.36	289.06
711.765	282.03
712.17	314.8
712.575	253.95
712.98	860.15
713.385	359.27
713.789	300.76
714.194	228.2
714.599	272.67
715.003	349.91
715.408	408.42
715.812	310.12
716.217	300.76
716.621	272.67
717.025	324.16
717.429	317.14
717.833	319.48
718.238	342.89
718.642	314.8
719.046	303.1
719.449	303.1
719.853	272.67
720.257	312.46
720.661	335.87
721.065	361.61
721.468	328.85
721.872	319.48
722.275	300.76
722.679	242.25
723.082	340.55
723.485	342.89
723.889	380.34
724.292	282.03
724.695	279.69
725.098	296.08
725.501	275.01
725.904	321.82
726.307	385.02
726.71	345.23
727.113	345.23
727.516	324.16
727.918	286.72
728.321	356.93
728.724	321.82
729.126	270.33
729.529	331.19
729.931	303.1
730.333	314.8
730.736	310.12
731.138	312.46
731.54	347.57
731.942	342.89
732.344	359.27
732.746	277.35
733.148	314.8
733.55	286.72
733.952	307.78
734.354	305.44
734.756	321.82
735.157	275.01
735.559	237.56
735.96	312.46
736.362	396.72
736.763	305.44
737.165	347.57
737.566	328.85
737.967	296.08
738.368	314.8
738.77	335.87
739.171	221.18
739.572	314.8
739.973	335.87
740.374	237.56
740.774	293.74
741.175	354.59
741.576	293.74
741.977	307.78
742.377	356.93
742.778	314.8
743.178	373.32
743.579	282.03
743.979	293.74
744.379	291.4
744.78	298.42
745.18	345.23
745.58	366.29
745.98	239.9
746.38	352.25
746.78	345.23
747.18	331.19
747.58	338.21
747.98	251.61
748.38	345.23
748.779	326.5
749.179	310.12
749.578	319.48
749.978	335.87
750.377	373.32
750.777	340.55
751.176	403.74
751.575	300.76
751.975	326.5
752.374	363.95
752.773	328.85
753.172	319.48
753.571	319.48
753.97	340.55
754.369	326.5
754.768	277.35
755.166	305.44
755.565	319.48
755.964	347.57
756.362	293.74
756.761	326.5
757.159	321.82
757.558	338.21
757.956	253.95
758.354	328.85
758.753	326.5
759.151	328.85
759.549	314.8
759.947	328.85
760.345	347.57
760.743	265.65
761.141	328.85
761.539	345.23
761.936	356.93
762.334	300.76
762.732	305.44
763.129	319.48
763.527	321.82
763.924	356.93
764.322	338.21
764.719	284.38
765.117	272.67
765.514	310.12
765.911	267.99
766.308	324.16
766.705	310.12
767.102	286.72
767.499	253.95
767.896	317.14
768.293	378
768.69	338.21
769.086	279.69
769.483	282.03
769.88	298.42
770.276	338.21
770.673	352.25
771.069	345.23
771.466	277.35
771.862	289.06
772.258	324.16
772.654	331.19
773.05	373.32
773.447	326.5
773.843	363.95
774.239	326.5
774.634	366.29
775.03	312.46
775.426	298.42
775.822	345.23
776.218	293.74
776.613	300.76
777.009	300.76
777.404	307.78
777.8	354.59
778.195	277.35
778.59	291.4
778.986	300.76
779.381	349.91
779.776	345.23
780.171	331.19
780.566	352.25
780.961	305.44
781.356	300.76
781.751	317.14
782.146	352.25
782.54	312.46
782.935	307.78
783.33	291.4
783.724	284.38
784.119	317.14
784.513	394.38
784.908	373.32
785.302	338.21
785.696	310.12
786.09	312.46
786.485	319.48
786.879	246.93
787.273	300.76
787.667	338.21
788.061	300.76
788.454	263.31
788.848	296.08
789.242	347.57
789.636	314.8
790.029	370.97
790.423	239.9
790.816	289.06
791.21	305.44
791.603	289.06
791.997	321.82
792.39	307.78
792.783	307.78
793.176	335.87
793.569	312.46
793.962	319.48
794.355	279.69
794.748	331.19
795.141	345.23
795.534	342.89
795.927	286.72
796.319	298.42
796.712	333.53
797.105	317.14
797.497	303.1
797.89	382.68
798.282	303.1
798.674	326.5
799.067	312.46
799.459	342.89
799.851	373.32
800.243	361.61
800.635	321.82
801.027	314.8
801.419	279.69
801.811	340.55
802.203	340.55
802.594	282.03
802.986	317.14
803.378	270.33
803.769	328.85
804.161	324.16
804.552	310.12
804.944	326.5
805.335	307.78
805.726	389.7
806.118	303.1
806.509	267.99
806.9	331.19
807.291	303.1
807.682	312.46
808.073	253.95
808.464	298.42
808.855	300.76
809.245	356.93
809.636	314.8
810.027	370.97
810.417	326.5
810.808	319.48
811.198	300.76
811.589	349.91
811.979	312.46
812.369	214.16
812.759	296.08
813.15	347.57
813.54	310.12
813.93	296.08
814.32	321.82
814.71	368.63
815.1	324.16
815.489	291.4
815.879	354.59
816.269	394.38
816.658	352.25
817.048	349.91
817.438	342.89
817.827	279.69
818.216	314.8
818.606	312.46
818.995	282.03
819.384	340.55
819.773	246.93
820.163	331.19
820.552	305.44
820.941	328.85
821.33	347.57
821.718	277.35
822.107	310.12
822.496	317.14
822.885	258.63
823.273	324.16
823.662	335.87
824.05	370.97
824.439	331.19
824.827	331.19
825.216	312.46
825.604	331.19
825.992	293.74
826.38	314.8
826.768	272.67
827.156	413.1
827.544	291.4
827.932	291.4
828.32	289.06
828.708	342.89
829.096	291.4
829.483	258.63
829.871	286.72
830.259	289.06
830.646	335.87
831.034	282.03
831.421	298.42
831.808	303.1
832.196	251.61
832.583	289.06
832.97	385.02
833.357	293.74
833.744	310.12
834.131	251.61
834.518	242.25
834.905	310.12
835.292	277.35
835.678	305.44
836.065	284.38
836.452	326.5
836.838	263.31
837.225	293.74
837.611	307.78
837.998	305.44
838.384	289.06
838.77	310.12
839.157	314.8
839.543	340.55
839.929	307.78
840.315	321.82
840.701	300.76
841.087	392.04
841.473	324.16
841.858	368.63
842.244	310.12
842.63	328.85
843.015	359.27
843.401	363.95
843.787	305.44
844.172	286.72
844.557	296.08
844.943	352.25
845.328	303.1
845.713	420.13
846.098	345.23
846.483	303.1
846.868	303.1
847.253	310.12
847.638	326.5
848.023	331.19
848.408	338.21
848.793	282.03
849.177	305.44
849.562	307.78
849.947	338.21
850.331	296.08
850.715	347.57
851.1	293.74
851.484	270.33
851.868	347.57
852.253	340.55
852.637	310.12
853.021	324.16
853.405	260.97
853.789	310.12
854.173	258.63
854.557	305.44
854.94	251.61
855.324	256.29
855.708	375.66
856.091	265.65
856.475	298.42
856.858	270.33
857.242	272.67
857.625	347.57
858.009	282.03
858.392	317.14
858.775	279.69
859.158	291.4
859.541	324.16
859.924	286.72
860.307	289.06
860.69	260.97
861.073	263.31
861.456	331.19
861.838	246.93
862.221	335.87
862.604	335.87
862.986	296.08
863.369	328.85
863.751	356.93
864.133	349.91
864.516	321.82
864.898	340.55
865.28	328.85
865.662	286.72
866.044	272.67
866.426	338.21
866.808	272.67
867.19	310.12
867.572	326.5
867.954	258.63
868.336	370.97
868.717	263.31
869.099	296.08
869.48	359.27
869.862	312.46
870.243	349.91
870.625	310.12
871.006	331.19
871.387	356.93
871.768	347.57
872.149	310.12
872.53	338.21
872.911	333.53
873.292	305.44
873.673	305.44
874.054	310.12
874.435	324.16
874.815	279.69
875.196	293.74
875.577	298.42
875.957	356.93
876.338	359.27
876.718	303.1
877.098	347.57
877.479	317.14
877.859	244.59
878.239	305.44
878.619	366.29
878.999	324.16
879.379	335.87
879.759	352.25
880.139	335.87
880.519	352.25
880.898	307.78
881.278	303.1
881.658	312.46
882.037	340.55
882.417	359.27
882.796	345.23
883.176	258.63
883.555	267.99
883.934	324.16
884.313	356.93
884.693	279.69
885.072	312.46
885.451	363.95
885.83	275.01
886.209	380.34
886.587	359.27
886.966	282.03
887.345	331.19
887.724	324.16
888.102	340.55
888.481	370.97
888.859	314.8
889.238	258.63
889.616	284.38
889.994	338.21
890.373	265.65
890.751	289.06
891.129	321.82
891.507	319.48
891.885	272.67
892.263	361.61
892.641	284.38
893.019	361.61
893.396	338.21
893.774	263.31
894.152	321.82
894.529	319.48
894.907	331.19
895.284	277.35
895.662	366.29
896.039	319.48
896.416	296.08
896.794	291.4
897.171	270.33
897.548	319.48
897.925	338.21
898.302	321.82
898.679	282.03
899.056	293.74
899.433	286.72
899.809	342.89
900.186	282.03
900.563	328.85
900.939	277.35
901.316	265.65
901.692	331.19
902.069	314.8
902.445	338.21
902.821	279.69
903.197	305.44
903.574	300.76
903.95	345.23
904.326	267.99
904.702	345.23
905.078	307.78
905.454	310.12
905.829	293.74
906.205	307.78
906.581	331.19
906.956	289.06
907.332	314.8
907.707	347.57
908.083	265.65
908.458	305.44
908.833	246.93
909.209	307.78
909.584	296.08
909.959	324.16
910.334	354.59
910.709	305.44
911.084	340.55
911.459	335.87
911.834	317.14
912.209	335.87
912.583	345.23
912.958	310.12
913.333	270.33
913.707	340.55
914.082	293.74
914.456	345.23
914.83	305.44
915.205	275.01
915.579	324.16
915.953	296.08
916.327	275.01
916.701	363.95
917.075	286.72
917.449	321.82
917.823	354.59
918.197	338.21
918.571	345.23
918.944	307.78
919.318	338.21
919.692	335.87
920.065	389.7
920.438	284.38
920.812	279.69
921.185	366.29
921.558	401.4
921.932	312.46
922.305	314.8
922.678	382.68
923.051	328.85
923.424	307.78
923.797	314.8
924.17	260.97
924.542	298.42
924.915	324.16
925.288	242.25
925.661	317.14
926.033	317.14
926.406	293.74
926.778	331.19
927.15	298.42
927.523	345.23
927.895	289.06
928.267	324.16
928.639	314.8
929.011	270.33
929.383	275.01
929.755	312.46
930.127	359.27
930.499	378
930.871	270.33
931.242	296.08
931.614	361.61
931.986	342.89
932.357	282.03
932.729	279.69
933.1	298.42
933.471	335.87
933.843	345.23
934.214	333.53
934.585	303.1
934.956	237.56
935.327	363.95
935.698	312.46
936.069	293.74
936.44	305.44
936.811	333.53
937.182	298.42
937.552	310.12
937.923	338.21
938.293	321.82
938.664	317.14
939.034	265.65
939.405	282.03
939.775	282.03
940.145	314.8
940.516	378
940.886	314.8
941.256	314.8
941.626	282.03
941.996	317.14
942.366	324.16
942.735	303.1
943.105	284.38
943.475	286.72
943.845	345.23
944.214	307.78
944.584	305.44
944.953	347.57
945.323	331.19
945.692	331.19
946.061	340.55
946.43	293.74
946.8	282.03
947.169	314.8
947.538	258.63
947.907	319.48
948.276	347.57
948.645	305.44
949.013	321.82
949.382	354.59
949.751	314.8
950.119	258.63
950.488	335.87
950.857	352.25
951.225	237.56
951.593	307.78
951.962	284.38
952.33	349.91
952.698	279.69
953.066	394.38
953.434	340.55
953.802	225.86
954.17	361.61
954.538	335.87
954.906	296.08
955.274	272.67
955.642	244.59
956.009	392.04
956.377	275.01
956.744	279.69
957.112	277.35
957.479	347.57
957.847	363.95
958.214	310.12
958.581	326.5
958.948	363.95
959.315	300.76
959.683	298.42
960.05	319.48
960.416	335.87
960.783	354.59
961.15	389.7
961.517	354.59
961.884	338.21
962.25	275.01
962.617	312.46
962.983	284.38
963.35	331.19
963.716	347.57
964.082	296.08
964.449	324.16
964.815	263.31
965.181	277.35
965.547	286.72
965.913	289.06
966.279	312.46
966.645	356.93
967.011	335.87
967.377	317.14
967.742	270.33
968.108	375.66
968.474	244.59
968.839	345.23
969.205	256.29
969.57	270.33
969.935	310.12
970.301	263.31
970.666	303.1
971.031	342.89
971.396	326.5
971.761	314.8
972.126	347.57
972.491	356.93
972.856	307.78
973.221	260.97
973.586	260.97
973.95	310.12
974.315	328.85
974.679	303.1
975.044	363.95
975.408	321.82
975.773	356.93
976.137	328.85
976.501	319.48
976.866	326.5
977.23	296.08
977.594	403.74
977.958	310.12
978.322	267.99
978.686	406.08
979.049	303.1
979.413	328.85
979.777	403.74
980.141	265.65
980.504	244.59
980.868	342.89
981.231	310.12
981.595	263.31
981.958	328.85
982.321	328.85
982.684	321.82
983.048	300.76
983.411	370.97
983.774	286.72
984.137	244.59
984.5	342.89
984.862	300.76
985.225	303.1
985.588	326.5
985.951	244.59
986.313	223.52
986.676	361.61
987.038	324.16
987.401	331.19
987.763	314.8
988.125	335.87
988.488	382.68
988.85	349.91
989.212	267.99
989.574	373.32
989.936	387.36
990.298	317.14
990.66	361.61
991.022	289.06
991.383	331.19
991.745	300.76
992.107	251.61
992.468	317.14
992.83	312.46
993.191	286.72
993.553	305.44
993.914	345.23
994.275	265.65
994.637	352.25
994.998	246.93
995.359	303.1
995.72	317.14
996.081	324.16
996.442	275.01
996.803	300.76
997.163	267.99
997.524	307.78
997.885	298.42
998.245	380.34
998.606	286.72
998.966	246.93
999.327	312.46
999.687	349.91
1000.047	307.78
1000.408	321.82
1000.768	305.44
1001.128	352.25
1001.488	305.44
1001.848	321.82
1002.208	310.12
1002.568	345.23
1002.927	275.01
1003.287	279.69
1003.647	399.06
1004.007	328.85
1004.366	289.06
1004.726	328.85
1005.085	270.33
1005.444	321.82
1005.804	328.85
1006.163	335.87
1006.522	314.8
1006.881	275.01
1007.24	300.76
1007.599	328.85
1007.958	349.91
1008.317	307.78
1008.676	310.12
1009.035	352.25
1009.393	328.85
1009.752	366.29
1010.111	265.65
1010.469	408.42
1010.828	317.14
1011.186	356.93
1011.544	314.8
1011.903	361.61
1012.261	335.87
1012.619	368.63
1012.977	356.93
1013.335	359.27
1013.693	298.42
1014.051	326.5
1014.409	310.12
1014.767	324.16
1015.124	282.03
1015.482	321.82
1015.84	307.78
1016.197	319.48
1016.555	307.78
1016.912	272.67
1017.269	319.48
1017.627	270.33
1017.984	300.76
1018.341	312.46
1018.698	272.67
1019.055	296.08
1019.412	317.14
1019.769	267.99
1020.126	319.48
1020.483	272.67
1020.84	256.29
1021.196	340.55
1021.553	321.82
1021.909	328.85
1022.266	324.16
1022.622	324.16
1022.979	366.29
1023.335	286.72
1023.691	333.53
1024.047	242.25
1024.404	349.91
1024.76	319.48
1025.116	279.69
1025.472	373.32
1025.827	232.88
1026.183	239.9
1026.539	263.31
1026.895	256.29
1027.25	284.38
1027.606	265.65
1027.961	331.19
1028.317	291.4
1028.672	300.76
1029.028	361.61
1029.383	370.97
1029.738	296.08
1030.093	319.48
1030.448	291.4
1030.803	298.42
1031.158	345.23
1031.513	345.23
1031.868	375.66
1032.223	347.57
1032.577	368.63
1032.932	317.14
1033.287	368.63
1033.641	366.29
1033.996	324.16
1034.35	356.93
1034.704	293.74
1035.059	244.59
1035.413	389.7
1035.767	389.7
1036.121	389.7
