Data from Al_FLMS009871__897__16-17-04-825.txt Node

Date: Fri Mar 08 16:17:04 CST 2024
User: pe5414po
Spectrometer: FLMS00987
Trigger mode: 0
Integration Time (sec): 1.000000E-1
Scans to average: 1
Electric dark correction enabled: true
Nonlinearity correction enabled: false
Boxcar width: 0
XAxis mode: Wavelengths
Number of Pixels in Spectrum: 2048
>>>>>Begin Spectral Data<<<<<
188.938	-125.36
189.409	-125.36
189.879	-125.36
190.349	-165.15
190.819	-71.53
191.29	-120.68
191.76	-69.19
192.23	-125.36
192.7	-57.49
193.17	-34.08
193.64	-71.53
194.109	5.71
194.579	-55.15
195.049	1.02
195.519	-10.68
195.988	45.49
196.458	108.69
196.927	125.07
197.397	64.22
197.866	113.37
198.336	80.6
198.805	43.15
199.274	153.16
199.744	174.22
200.213	185.93
200.682	164.86
201.151	183.59
201.62	298.27
202.089	221.03
202.558	258.48
203.027	277.21
203.495	267.85
203.964	277.21
204.433	225.72
204.902	253.8
205.37	178.9
205.839	375.51
206.307	295.93
206.776	288.91
207.244	298.27
207.712	321.68
208.181	279.55
208.649	333.38
209.117	300.61
209.585	263.16
210.053	321.68
210.521	319.34
210.989	295.93
211.457	265.5
211.925	256.14
212.393	321.68
212.861	274.87
213.328	244.44
213.796	246.78
214.264	284.23
214.731	288.91
215.199	307.63
215.666	288.91
216.133	218.69
216.601	223.37
217.068	286.57
217.535	230.4
218.003	249.12
218.47	340.4
218.937	206.99
219.404	244.44
219.871	277.21
220.338	211.67
220.805	265.5
221.271	279.55
221.738	256.14
222.205	291.25
222.671	277.21
223.138	246.78
223.605	235.08
224.071	284.23
224.538	302.95
225.004	202.31
225.47	298.27
225.937	288.91
226.403	298.27
226.869	246.78
227.335	263.16
227.801	249.12
228.267	319.34
228.733	230.4
229.199	214.01
229.665	279.55
230.131	370.83
230.597	307.63
231.062	263.16
231.528	338.06
231.994	258.48
232.459	272.53
232.925	328.7
233.39	246.78
233.856	256.14
234.321	258.48
234.786	293.59
235.252	307.63
235.717	270.19
236.182	307.63
236.647	291.25
237.112	298.27
237.577	277.21
238.042	309.97
238.507	272.53
238.972	317
239.436	263.16
239.901	277.21
240.366	274.87
240.83	284.23
241.295	305.29
241.76	279.55
242.224	235.08
242.688	237.42
243.153	302.95
243.617	211.67
244.081	272.53
244.545	298.27
245.01	190.61
245.474	288.91
245.938	253.8
246.402	288.91
246.866	286.57
247.33	209.33
247.793	291.25
248.257	228.06
248.721	230.4
249.185	300.61
249.648	256.14
250.112	279.55
250.575	270.19
251.039	281.89
251.502	321.68
251.965	307.63
252.429	291.25
252.892	249.12
253.355	279.55
253.818	345.08
254.281	272.53
254.744	288.91
255.207	380.19
255.67	333.38
256.133	277.21
256.596	223.37
257.059	319.34
257.522	300.61
257.984	258.48
258.447	239.76
258.909	314.66
259.372	274.87
259.834	302.95
260.297	309.97
260.759	277.21
261.221	300.61
261.684	279.55
262.146	293.59
262.608	265.5
263.07	277.21
263.532	256.14
263.994	267.85
264.456	270.19
264.918	293.59
265.38	319.34
265.842	307.63
266.303	309.97
266.765	291.25
267.227	298.27
267.688	288.91
268.15	253.8
268.611	242.1
269.072	354.44
269.534	295.93
269.995	295.93
270.456	307.63
270.918	267.85
271.379	309.97
271.84	314.66
272.301	221.03
272.762	272.53
273.223	235.08
273.684	387.21
274.144	305.29
274.605	253.8
275.066	284.23
275.527	307.63
275.987	302.95
276.448	281.89
276.908	237.42
277.369	293.59
277.829	258.48
278.289	284.23
278.75	331.04
279.21	321.68
279.67	260.82
280.13	272.53
280.59	331.04
281.05	293.59
281.51	298.27
281.97	319.34
282.43	312.32
282.89	302.95
283.35	354.44
283.809	314.66
284.269	326.36
284.729	256.14
285.188	321.68
285.648	291.25
286.107	244.44
286.567	291.25
287.026	288.91
287.485	331.04
287.944	270.19
288.404	302.95
288.863	312.32
289.322	286.57
289.781	279.55
290.24	300.61
290.699	321.68
291.158	242.1
291.616	277.21
292.075	235.08
292.534	340.4
292.992	288.91
293.451	342.74
293.91	314.66
294.368	242.1
294.827	345.08
295.285	286.57
295.743	258.48
296.202	319.34
296.66	263.16
297.118	333.38
297.576	356.79
298.034	221.03
298.492	232.74
298.95	302.95
299.408	319.34
299.866	317
300.324	244.44
300.781	324.02
301.239	256.14
301.697	326.36
302.154	375.51
302.612	335.72
303.069	291.25
303.527	345.08
303.984	324.02
304.441	331.04
304.899	347.42
305.356	293.59
305.813	319.34
306.27	267.85
306.727	270.19
307.184	312.32
307.641	293.59
308.098	288.91
308.555	328.7
309.012	291.25
309.468	270.19
309.925	284.23
310.382	319.34
310.838	354.44
311.295	288.91
311.751	314.66
312.208	317
312.664	288.91
313.12	314.66
313.577	333.38
314.033	328.7
314.489	197.63
314.945	314.66
315.401	286.57
315.857	319.34
316.313	354.44
316.769	354.44
317.225	328.7
317.681	314.66
318.136	274.87
318.592	291.25
319.048	291.25
319.503	284.23
319.959	319.34
320.414	340.4
320.869	284.23
321.325	270.19
321.78	279.55
322.235	340.4
322.691	302.95
323.146	349.76
323.601	309.97
324.056	370.83
324.511	279.55
324.966	256.14
325.421	288.91
325.875	274.87
326.33	291.25
326.785	338.06
327.24	274.87
327.694	281.89
328.149	260.82
328.603	312.32
329.058	288.91
329.512	312.32
329.966	321.68
330.421	319.34
330.875	331.04
331.329	361.47
331.783	288.91
332.237	293.59
332.691	354.44
333.145	326.36
333.599	319.34
334.053	389.55
334.507	317
334.96	328.7
335.414	272.53
335.868	223.37
336.321	347.42
336.775	305.29
337.228	321.68
337.682	359.13
338.135	305.29
338.588	209.33
339.042	352.1
339.495	307.63
339.948	321.68
340.401	305.29
340.854	340.4
341.307	277.21
341.76	314.66
342.213	293.59
342.666	319.34
343.119	377.85
343.571	338.06
344.024	328.7
344.477	302.95
344.929	321.68
345.382	307.63
345.834	331.04
346.287	265.5
346.739	298.27
347.191	279.55
347.644	272.53
348.096	349.76
348.548	284.23
349	352.1
349.452	300.61
349.904	265.5
350.356	331.04
350.808	345.08
351.26	333.38
351.711	368.49
352.163	321.68
352.615	298.27
353.066	295.93
353.518	309.97
353.969	368.49
354.421	368.49
354.872	328.7
355.324	295.93
355.775	349.76
356.226	302.95
356.677	321.68
357.128	298.27
357.579	291.25
358.03	232.74
358.481	260.82
358.932	335.72
359.383	328.7
359.834	340.4
360.285	295.93
360.735	258.48
361.186	361.47
361.637	321.68
362.087	326.36
362.538	319.34
362.988	342.74
363.438	300.61
363.889	345.08
364.339	352.1
364.789	302.95
365.239	352.1
365.689	331.04
366.139	319.34
366.589	361.47
367.039	382.53
367.489	347.42
367.939	326.36
368.389	302.95
368.839	352.1
369.288	230.4
369.738	279.55
370.187	347.42
370.637	335.72
371.086	295.93
371.536	305.29
371.985	319.34
372.434	317
372.884	314.66
373.333	333.38
373.782	361.47
374.231	359.13
374.68	263.16
375.129	272.53
375.578	295.93
376.027	319.34
376.475	312.32
376.924	307.63
377.373	265.5
377.822	272.53
378.27	326.36
378.719	288.91
379.167	272.53
379.616	270.19
380.064	326.36
380.512	235.08
380.961	356.79
381.409	326.36
381.857	305.29
382.305	338.06
382.753	312.32
383.201	326.36
383.649	384.87
384.097	249.12
384.545	335.72
384.992	317
385.44	286.57
385.888	312.32
386.335	291.25
386.783	281.89
387.231	356.79
387.678	338.06
388.125	387.21
388.573	288.91
389.02	246.78
389.467	377.85
389.914	274.87
390.362	359.13
390.809	295.93
391.256	368.49
391.703	307.63
392.15	274.87
392.596	345.08
393.043	347.42
393.49	321.68
393.937	314.66
394.383	331.04
394.83	277.21
395.276	265.5
395.723	363.81
396.169	295.93
396.616	298.27
397.062	263.16
397.508	331.04
397.954	300.61
398.401	277.21
398.847	263.16
399.293	302.95
399.739	251.46
400.185	302.95
400.631	314.66
401.076	321.68
401.522	317
401.968	324.02
402.414	354.44
402.859	342.74
403.305	302.95
403.75	300.61
404.196	309.97
404.641	295.93
405.086	324.02
405.532	317
405.977	293.59
406.422	288.91
406.867	324.02
407.312	324.02
407.757	305.29
408.202	279.55
408.647	309.97
409.092	291.25
409.537	319.34
409.982	319.34
410.426	286.57
410.871	260.82
411.316	326.36
411.76	284.23
412.205	335.72
412.649	291.25
413.093	305.29
413.538	295.93
413.982	307.63
414.426	314.66
414.87	363.81
415.314	305.29
415.758	333.38
416.202	356.79
416.646	300.61
417.09	370.83
417.534	328.7
417.978	309.97
418.421	335.72
418.865	307.63
419.309	305.29
419.752	359.13
420.196	288.91
420.639	361.47
421.083	370.83
421.526	314.66
421.969	246.78
422.412	286.57
422.856	314.66
423.299	309.97
423.742	295.93
424.185	331.04
424.628	356.79
425.071	356.79
425.513	284.23
425.956	342.74
426.399	270.19
426.842	237.42
427.284	312.32
427.727	331.04
428.169	263.16
428.612	361.47
429.054	260.82
429.497	391.89
429.939	349.76
430.381	265.5
430.823	324.02
431.265	300.61
431.707	286.57
432.149	321.68
432.591	349.76
433.033	309.97
433.475	340.4
433.917	342.74
434.359	321.68
434.8	298.27
435.242	312.32
435.684	251.46
436.125	286.57
436.567	302.95
437.008	342.74
437.449	288.91
437.891	291.25
438.332	333.38
438.773	326.36
439.214	277.21
439.656	342.74
440.097	345.08
440.538	309.97
440.978	347.42
441.419	305.29
441.86	333.38
442.301	300.61
442.742	317
443.182	368.49
443.623	277.21
444.063	263.16
444.504	251.46
444.944	258.48
445.385	307.63
445.825	338.06
446.265	359.13
446.706	328.7
447.146	328.7
447.586	309.97
448.026	331.04
448.466	331.04
448.906	326.36
449.346	349.76
449.786	284.23
450.225	260.82
450.665	279.55
451.105	309.97
451.544	373.17
451.984	321.68
452.424	319.34
452.863	342.74
453.302	307.63
453.742	361.47
454.181	354.44
454.62	340.4
455.059	342.74
455.499	286.57
455.938	361.47
456.377	361.47
456.816	237.42
457.254	328.7
457.693	300.61
458.132	347.42
458.571	277.21
459.01	302.95
459.448	256.14
459.887	274.87
460.325	326.36
460.764	225.72
461.202	321.68
461.641	317
462.079	284.23
462.517	272.53
462.955	326.36
463.393	298.27
463.832	347.42
464.27	335.72
464.708	359.13
465.145	291.25
465.583	314.66
466.021	302.95
466.459	314.66
466.897	363.81
467.334	307.63
467.772	347.42
468.209	317
468.647	338.06
469.084	384.87
469.522	342.74
469.959	335.72
470.396	272.53
470.833	331.04
471.271	274.87
471.708	263.16
472.145	319.34
472.582	293.59
473.019	335.72
473.456	284.23
473.892	377.85
474.329	354.44
474.766	340.4
475.202	272.53
475.639	302.95
476.076	345.08
476.512	328.7
476.949	317
477.385	317
477.821	387.21
478.258	277.21
478.694	265.5
479.13	366.15
479.566	352.1
480.002	312.32
480.438	314.66
480.874	373.17
481.31	293.59
481.746	309.97
482.181	274.87
482.617	342.74
483.053	338.06
483.488	331.04
483.924	340.4
484.36	359.13
484.795	291.25
485.23	354.44
485.666	298.27
486.101	312.32
486.536	335.72
486.971	405.94
487.407	309.97
487.842	356.79
488.277	307.63
488.712	300.61
489.146	312.32
489.581	274.87
490.016	307.63
490.451	356.79
490.885	312.32
491.32	270.19
491.755	373.17
492.189	342.74
492.624	284.23
493.058	293.59
493.492	389.55
493.927	309.97
494.361	291.25
494.795	298.27
495.229	373.17
495.663	338.06
496.097	321.68
496.531	270.19
496.965	328.7
497.399	342.74
497.833	373.17
498.266	237.42
498.7	309.97
499.134	288.91
499.567	333.38
500.001	309.97
500.434	321.68
500.868	331.04
501.301	342.74
501.734	295.93
502.168	326.36
502.601	391.89
503.034	312.32
503.467	347.42
503.9	272.53
504.333	394.23
504.766	342.74
505.199	359.13
505.632	307.63
506.064	302.95
506.497	321.68
506.93	342.74
507.362	302.95
507.795	291.25
508.227	307.63
508.66	340.4
509.092	286.57
509.524	265.5
509.956	251.46
510.389	342.74
510.821	279.55
511.253	342.74
511.685	373.17
512.117	300.61
512.549	333.38
512.981	277.21
513.412	305.29
513.844	281.89
514.276	307.63
514.707	309.97
515.139	352.1
515.571	295.93
516.002	424.66
516.433	300.61
516.865	312.32
517.296	263.16
517.727	300.61
518.159	377.85
518.59	391.89
519.021	335.72
519.452	242.1
519.883	340.4
520.314	279.55
520.744	403.6
521.175	375.51
521.606	314.66
522.037	284.23
522.467	300.61
522.898	298.27
523.328	260.82
523.759	300.61
524.189	270.19
524.62	307.63
525.05	309.97
525.48	394.23
525.91	307.63
526.341	314.66
526.771	291.25
527.201	265.5
527.631	349.76
528.061	324.02
528.49	277.21
528.92	307.63
529.35	260.82
529.78	331.04
530.209	324.02
530.639	300.61
531.068	347.42
531.498	375.51
531.927	302.95
532.357	281.89
532.786	354.44
533.215	340.4
533.644	284.23
534.074	321.68
534.503	331.04
534.932	333.38
535.361	274.87
535.79	382.53
536.218	340.4
536.647	326.36
537.076	352.1
537.505	345.08
537.933	314.66
538.362	251.46
538.79	338.06
539.219	277.21
539.647	244.44
540.076	342.74
540.504	300.61
540.932	335.72
541.36	309.97
541.788	340.4
542.217	352.1
542.645	340.4
543.073	244.44
543.5	317
543.928	321.68
544.356	305.29
544.784	284.23
545.211	335.72
545.639	305.29
546.067	363.81
546.494	272.53
546.922	382.53
547.349	253.8
547.776	347.42
548.204	333.38
548.631	359.13
549.058	370.83
549.485	260.82
549.912	326.36
550.339	342.74
550.766	345.08
551.193	291.25
551.62	328.7
552.047	356.79
552.474	244.44
552.9	347.42
553.327	331.04
553.754	270.19
554.18	251.46
554.607	270.19
555.033	340.4
555.459	298.27
555.886	342.74
556.312	319.34
556.738	295.93
557.164	340.4
557.59	328.7
558.016	309.97
558.442	270.19
558.868	309.97
559.294	270.19
559.72	321.68
560.145	321.68
560.571	277.21
560.997	288.91
561.422	333.38
561.848	340.4
562.273	293.59
562.699	225.72
563.124	286.57
563.549	398.92
563.974	307.63
564.4	270.19
564.825	302.95
565.25	309.97
565.675	309.97
566.1	319.34
566.525	295.93
566.95	368.49
567.374	326.36
567.799	373.17
568.224	312.32
568.648	305.29
569.073	326.36
569.497	309.97
569.922	328.7
570.346	260.82
570.771	333.38
571.195	277.21
571.619	298.27
572.043	242.1
572.467	286.57
572.891	277.21
573.315	333.38
573.739	338.06
574.163	361.47
574.587	324.02
575.011	305.29
575.435	347.42
575.858	326.36
576.282	309.97
576.705	333.38
577.129	319.34
577.552	359.13
577.976	319.34
578.399	321.68
578.822	300.61
579.245	288.91
579.669	331.04
580.092	251.46
580.515	326.36
580.938	256.14
581.361	309.97
581.784	284.23
582.206	281.89
582.629	338.06
583.052	326.36
583.474	265.5
583.897	321.68
584.32	307.63
584.742	279.55
585.165	309.97
585.587	335.72
586.009	270.19
586.431	324.02
586.854	291.25
587.276	260.82
587.698	366.15
588.12	319.34
588.542	352.1
588.964	321.68
589.386	286.57
589.807	321.68
590.229	293.59
590.651	249.12
591.073	363.81
591.494	309.97
591.916	349.76
592.337	335.72
592.759	300.61
593.18	403.6
593.601	340.4
594.022	298.27
594.444	384.87
594.865	312.32
595.286	321.68
595.707	298.27
596.128	324.02
596.549	312.32
596.97	288.91
597.39	293.59
597.811	300.61
598.232	375.51
598.652	354.44
599.073	305.29
599.494	256.14
599.914	312.32
600.334	317
600.755	338.06
601.175	361.47
601.595	256.14
602.015	302.95
602.436	291.25
602.856	419.98
603.276	314.66
603.696	312.32
604.115	284.23
604.535	270.19
604.955	277.21
605.375	314.66
605.794	387.21
606.214	321.68
606.634	277.21
607.053	328.7
607.473	324.02
607.892	317
608.311	279.55
608.731	281.89
609.15	288.91
609.569	366.15
609.988	319.34
610.407	295.93
610.826	251.46
611.245	319.34
611.664	373.17
612.083	326.36
612.501	352.1
612.92	300.61
613.339	317
613.757	300.61
614.176	249.12
614.594	333.38
615.013	335.72
615.431	370.83
615.85	368.49
616.268	328.7
616.686	324.02
617.104	291.25
617.522	324.02
617.94	317
618.358	321.68
618.776	249.12
619.194	274.87
619.612	338.06
620.03	314.66
620.447	359.13
620.865	272.53
621.282	340.4
621.7	354.44
622.117	305.29
622.535	302.95
622.952	242.1
623.369	307.63
623.787	281.89
624.204	324.02
624.621	349.76
625.038	286.57
625.455	295.93
625.872	321.68
626.289	328.7
626.706	260.82
627.123	319.34
627.539	338.06
627.956	387.21
628.373	298.27
628.789	300.61
629.206	349.76
629.622	265.5
630.038	340.4
630.455	324.02
630.871	270.19
631.287	335.72
631.703	284.23
632.12	274.87
632.536	328.7
632.952	347.42
633.368	291.25
633.783	260.82
634.199	326.36
634.615	312.32
635.031	293.59
635.446	317
635.862	300.61
636.277	328.7
636.693	284.23
637.108	307.63
637.524	267.85
637.939	340.4
638.354	302.95
638.77	270.19
639.185	300.61
639.6	314.66
640.015	270.19
640.43	279.55
640.845	295.93
641.259	307.63
641.674	333.38
642.089	263.16
642.504	319.34
642.918	333.38
643.333	277.21
643.747	366.15
644.162	317
644.576	293.59
644.991	309.97
645.405	272.53
645.819	317
646.233	258.48
646.647	298.27
647.061	265.5
647.475	298.27
647.889	253.8
648.303	319.34
648.717	267.85
649.131	302.95
649.545	314.66
649.958	321.68
650.372	387.21
650.785	375.51
651.199	335.72
651.612	305.29
652.026	377.85
652.439	288.91
652.852	302.95
653.266	328.7
653.679	380.19
654.092	312.32
654.505	314.66
654.918	298.27
655.331	298.27
655.744	352.1
656.156	279.55
656.569	309.97
656.982	305.29
657.394	328.7
657.807	309.97
658.22	338.06
658.632	354.44
659.044	361.47
659.457	331.04
659.869	373.17
660.281	363.81
660.693	352.1
661.106	300.61
661.518	359.13
661.93	352.1
662.342	281.89
662.754	263.16
663.165	340.4
663.577	345.08
663.989	328.7
664.401	288.91
664.812	302.95
665.224	265.5
665.635	314.66
666.047	321.68
666.458	333.38
666.869	396.57
667.281	345.08
667.692	361.47
668.103	298.27
668.514	300.61
668.925	349.76
669.336	272.53
669.747	305.29
670.158	286.57
670.569	317
670.979	274.87
671.39	321.68
671.801	366.15
672.211	314.66
672.622	286.57
673.032	293.59
673.443	288.91
673.853	354.44
674.263	263.16
674.674	309.97
675.084	256.14
675.494	267.85
675.904	295.93
676.314	363.81
676.724	293.59
677.134	307.63
677.544	230.4
677.953	380.19
678.363	295.93
678.773	363.81
679.182	305.29
679.592	295.93
680.001	324.02
680.411	370.83
680.82	314.66
681.23	352.1
681.639	370.83
682.048	347.42
682.457	366.15
682.866	309.97
683.275	356.79
683.684	295.93
684.093	317
684.502	298.27
684.911	317
685.32	317
685.728	333.38
686.137	291.25
686.546	338.06
686.954	352.1
687.363	328.7
687.771	394.23
688.179	340.4
688.588	302.95
688.996	309.97
689.404	349.76
689.812	302.95
690.22	331.04
690.628	340.4
691.036	345.08
691.444	363.81
691.852	335.72
692.26	349.76
692.667	345.08
693.075	239.76
693.483	342.74
693.89	319.34
694.298	331.04
694.705	309.97
695.112	324.02
695.52	286.57
695.927	340.4
696.334	302.95
696.741	284.23
697.148	324.02
697.555	319.34
697.962	302.95
698.369	359.13
698.776	284.23
699.183	281.89
699.59	349.76
699.996	326.36
700.403	345.08
700.81	373.17
701.216	307.63
701.623	274.87
702.029	291.25
702.435	267.85
702.842	286.57
703.248	324.02
703.654	270.19
704.06	270.19
704.466	258.48
704.872	263.16
705.278	361.47
705.684	314.66
706.09	286.57
706.496	375.51
706.901	265.5
707.307	314.66
707.712	272.53
708.118	235.08
708.523	302.95
708.929	317
709.334	352.1
709.74	363.81
710.145	302.95
710.55	307.63
710.955	342.74
711.36	338.06
711.765	277.21
712.17	307.63
712.575	300.61
712.98	881.07
713.385	302.95
713.789	361.47
714.194	300.61
714.599	265.5
715.003	298.27
715.408	288.91
715.812	277.21
716.217	331.04
716.621	265.5
717.025	281.89
717.429	286.57
717.833	239.76
718.238	335.72
718.642	326.36
719.046	307.63
719.449	328.7
719.853	328.7
720.257	338.06
720.661	272.53
721.065	272.53
721.468	293.59
721.872	288.91
722.275	260.82
722.679	270.19
723.082	293.59
723.485	331.04
723.889	356.79
724.292	389.55
724.695	286.57
725.098	326.36
725.501	288.91
725.904	317
726.307	286.57
726.71	342.74
727.113	361.47
727.516	281.89
727.918	253.8
728.321	333.38
728.724	314.66
729.126	286.57
729.529	387.21
729.931	331.04
730.333	291.25
730.736	314.66
731.138	295.93
731.54	288.91
731.942	298.27
732.344	345.08
732.746	333.38
733.148	324.02
733.55	342.74
733.952	314.66
734.354	328.7
734.756	366.15
735.157	319.34
735.559	291.25
735.96	338.06
736.362	279.55
736.763	279.55
737.165	312.32
737.566	373.17
737.967	298.27
738.368	305.29
738.77	286.57
739.171	335.72
739.572	324.02
739.973	324.02
740.374	342.74
740.774	291.25
741.175	328.7
741.576	253.8
741.977	300.61
742.377	328.7
742.778	321.68
743.178	260.82
743.579	298.27
743.979	270.19
744.379	312.32
744.78	256.14
745.18	305.29
745.58	314.66
745.98	319.34
746.38	312.32
746.78	293.59
747.18	305.29
747.58	263.16
747.98	284.23
748.38	321.68
748.779	340.4
749.179	291.25
749.578	288.91
749.978	335.72
750.377	326.36
750.777	359.13
751.176	340.4
751.575	338.06
751.975	333.38
752.374	333.38
752.773	345.08
753.172	363.81
753.571	317
753.97	328.7
754.369	342.74
754.768	291.25
755.166	324.02
755.565	286.57
755.964	251.46
756.362	375.51
756.761	321.68
757.159	333.38
757.558	347.42
757.956	291.25
758.354	326.36
758.753	288.91
759.151	333.38
759.549	363.81
759.947	317
760.345	314.66
760.743	305.29
761.141	333.38
761.539	258.48
761.936	375.51
762.334	319.34
762.732	230.4
763.129	291.25
763.527	267.85
763.924	345.08
764.322	284.23
764.719	258.48
765.117	354.44
765.514	277.21
765.911	319.34
766.308	321.68
766.705	328.7
767.102	347.42
767.499	380.19
767.896	335.72
768.293	368.49
768.69	293.59
769.086	246.78
769.483	328.7
769.88	328.7
770.276	331.04
770.673	298.27
771.069	317
771.466	302.95
771.862	293.59
772.258	288.91
772.654	347.42
773.05	347.42
773.447	265.5
773.843	321.68
774.239	295.93
774.634	335.72
775.03	251.46
775.426	326.36
775.822	377.85
776.218	277.21
776.613	380.19
777.009	281.89
777.404	398.92
777.8	382.53
778.195	328.7
778.59	366.15
778.986	340.4
779.381	286.57
779.776	324.02
780.171	340.4
780.566	270.19
780.961	340.4
781.356	328.7
781.751	366.15
782.146	317
782.54	366.15
782.935	317
783.33	270.19
783.724	307.63
784.119	356.79
784.513	251.46
784.908	319.34
785.302	384.87
785.696	291.25
786.09	377.85
786.485	263.16
786.879	321.68
787.273	288.91
787.667	279.55
788.061	270.19
788.454	317
788.848	331.04
789.242	272.53
789.636	342.74
790.029	291.25
790.423	295.93
790.816	279.55
791.21	359.13
791.603	286.57
791.997	321.68
792.39	295.93
792.783	249.12
793.176	340.4
793.569	333.38
793.962	274.87
794.355	286.57
794.748	309.97
795.141	293.59
795.534	347.42
795.927	270.19
796.319	267.85
796.712	251.46
797.105	284.23
797.497	270.19
797.89	286.57
798.282	309.97
798.674	338.06
799.067	288.91
799.459	328.7
799.851	300.61
800.243	312.32
800.635	326.36
801.027	286.57
801.419	340.4
801.811	340.4
802.203	340.4
802.594	314.66
802.986	277.21
803.378	260.82
803.769	302.95
804.161	307.63
804.552	361.47
804.944	267.85
805.335	342.74
805.726	317
806.118	338.06
806.509	347.42
806.9	319.34
807.291	239.76
807.682	291.25
808.073	340.4
808.464	340.4
808.855	288.91
809.245	258.48
809.636	307.63
810.027	349.76
810.417	317
810.808	389.55
811.198	314.66
811.589	324.02
811.979	326.36
812.369	305.29
812.759	291.25
813.15	328.7
813.54	286.57
813.93	291.25
814.32	366.15
814.71	288.91
815.1	298.27
815.489	361.47
815.879	345.08
816.269	284.23
816.658	338.06
817.048	342.74
817.438	295.93
817.827	324.02
818.216	298.27
818.606	298.27
818.995	272.53
819.384	281.89
819.773	305.29
820.163	263.16
820.552	319.34
820.941	265.5
821.33	401.26
821.718	314.66
822.107	293.59
822.496	302.95
822.885	293.59
823.273	281.89
823.662	258.48
824.05	307.63
824.439	237.42
824.827	288.91
825.216	317
825.604	291.25
825.992	305.29
826.38	326.36
826.768	281.89
827.156	281.89
827.544	317
827.932	295.93
828.32	319.34
828.708	377.85
829.096	284.23
829.483	305.29
829.871	324.02
830.259	326.36
830.646	302.95
831.034	335.72
831.421	314.66
831.808	338.06
832.196	380.19
832.583	317
832.97	309.97
833.357	309.97
833.744	246.78
834.131	281.89
834.518	291.25
834.905	312.32
835.292	321.68
835.678	363.81
836.065	312.32
836.452	354.44
836.838	302.95
837.225	307.63
837.611	342.74
837.998	335.72
838.384	295.93
838.77	317
839.157	258.48
839.543	328.7
839.929	338.06
840.315	291.25
840.701	347.42
841.087	253.8
841.473	265.5
841.858	288.91
842.244	373.17
842.63	274.87
843.015	302.95
843.401	321.68
843.787	375.51
844.172	380.19
844.557	331.04
844.943	335.72
845.328	288.91
845.713	260.82
846.098	319.34
846.483	326.36
846.868	300.61
847.253	291.25
847.638	300.61
848.023	298.27
848.408	277.21
848.793	288.91
849.177	284.23
849.562	256.14
849.947	300.61
850.331	295.93
850.715	324.02
851.1	302.95
851.484	326.36
851.868	307.63
852.253	309.97
852.637	295.93
853.021	274.87
853.405	305.29
853.789	319.34
854.173	270.19
854.557	249.12
854.94	256.14
855.324	333.38
855.708	321.68
856.091	286.57
856.475	352.1
856.858	251.46
857.242	314.66
857.625	288.91
858.009	352.1
858.392	342.74
858.775	361.47
859.158	342.74
859.541	347.42
859.924	272.53
860.307	291.25
860.69	281.89
861.073	309.97
861.456	232.74
861.838	345.08
862.221	242.1
862.604	317
862.986	293.59
863.369	272.53
863.751	338.06
864.133	361.47
864.516	361.47
864.898	265.5
865.28	326.36
865.662	331.04
866.044	263.16
866.426	291.25
866.808	293.59
867.19	291.25
867.572	312.32
867.954	288.91
868.336	251.46
868.717	298.27
869.099	340.4
869.48	359.13
869.862	295.93
870.243	324.02
870.625	352.1
871.006	349.76
871.387	326.36
871.768	305.29
872.149	324.02
872.53	295.93
872.911	317
873.292	300.61
873.673	291.25
874.054	286.57
874.435	338.06
874.815	324.02
875.196	359.13
875.577	312.32
875.957	328.7
876.338	326.36
876.718	352.1
877.098	279.55
877.479	298.27
877.859	279.55
878.239	272.53
878.619	295.93
878.999	314.66
879.379	352.1
879.759	309.97
880.139	349.76
880.519	295.93
880.898	319.34
881.278	338.06
881.658	307.63
882.037	307.63
882.417	356.79
882.796	340.4
883.176	307.63
883.555	267.85
883.934	338.06
884.313	326.36
884.693	317
885.072	333.38
885.451	361.47
885.83	302.95
886.209	300.61
886.587	333.38
886.966	328.7
887.345	281.89
887.724	317
888.102	317
888.481	352.1
888.859	246.78
889.238	293.59
889.616	338.06
889.994	253.8
890.373	277.21
890.751	218.69
891.129	260.82
891.507	321.68
891.885	307.63
892.263	272.53
892.641	284.23
893.019	300.61
893.396	260.82
893.774	338.06
894.152	251.46
894.529	279.55
894.907	368.49
895.284	300.61
895.662	302.95
896.039	300.61
896.416	314.66
896.794	354.44
897.171	335.72
897.548	335.72
897.925	270.19
898.302	319.34
898.679	305.29
899.056	356.79
899.433	314.66
899.809	305.29
900.186	335.72
900.563	295.93
900.939	321.68
901.316	305.29
901.692	324.02
902.069	309.97
902.445	342.74
902.821	377.85
903.197	328.7
903.574	361.47
903.95	354.44
904.326	338.06
904.702	260.82
905.078	317
905.454	295.93
905.829	328.7
906.205	349.76
906.581	314.66
906.956	366.15
907.332	333.38
907.707	345.08
908.083	293.59
908.458	324.02
908.833	302.95
909.209	333.38
909.584	300.61
909.959	302.95
910.334	281.89
910.709	312.32
911.084	295.93
911.459	331.04
911.834	265.5
912.209	345.08
912.583	312.32
912.958	309.97
913.333	302.95
913.707	279.55
914.082	333.38
914.456	270.19
914.83	340.4
915.205	293.59
915.579	314.66
915.953	263.16
916.327	309.97
916.701	340.4
917.075	363.81
917.449	239.76
917.823	354.44
918.197	293.59
918.571	251.46
918.944	309.97
919.318	333.38
919.692	253.8
920.065	284.23
920.438	328.7
920.812	302.95
921.185	309.97
921.558	307.63
921.932	307.63
922.305	307.63
922.678	279.55
923.051	288.91
923.424	211.67
923.797	300.61
924.17	328.7
924.542	319.34
924.915	314.66
925.288	286.57
925.661	326.36
926.033	317
926.406	382.53
926.778	375.51
927.15	295.93
927.523	295.93
927.895	352.1
928.267	328.7
928.639	298.27
929.011	272.53
929.383	347.42
929.755	324.02
930.127	373.17
930.499	352.1
930.871	340.4
931.242	302.95
931.614	338.06
931.986	314.66
932.357	295.93
932.729	326.36
933.1	270.19
933.471	335.72
933.843	352.1
934.214	338.06
934.585	309.97
934.956	305.29
935.327	328.7
935.698	356.79
936.069	288.91
936.44	317
936.811	356.79
937.182	288.91
937.552	293.59
937.923	309.97
938.293	305.29
938.664	345.08
939.034	258.48
939.405	335.72
939.775	298.27
940.145	305.29
940.516	380.19
940.886	295.93
941.256	291.25
941.626	338.06
941.996	309.97
942.366	370.83
942.735	342.74
943.105	265.5
943.475	321.68
943.845	312.32
944.214	328.7
944.584	258.48
944.953	321.68
945.323	246.78
945.692	307.63
946.061	302.95
946.43	319.34
946.8	307.63
947.169	288.91
947.538	300.61
947.907	321.68
948.276	274.87
948.645	291.25
949.013	356.79
949.382	279.55
949.751	288.91
950.119	382.53
950.488	326.36
950.857	345.08
951.225	356.79
951.593	249.12
951.962	305.29
952.33	309.97
952.698	277.21
953.066	321.68
953.434	319.34
953.802	300.61
954.17	302.95
954.538	347.42
954.906	349.76
955.274	317
955.642	331.04
956.009	279.55
956.377	326.36
956.744	293.59
957.112	253.8
957.479	345.08
957.847	314.66
958.214	314.66
958.581	359.13
958.948	340.4
959.315	324.02
959.683	309.97
960.05	300.61
960.416	302.95
960.783	284.23
961.15	305.29
961.517	302.95
961.884	354.44
962.25	321.68
962.617	321.68
962.983	272.53
963.35	326.36
963.716	309.97
964.082	307.63
964.449	340.4
964.815	284.23
965.181	286.57
965.547	312.32
965.913	277.21
966.279	307.63
966.645	307.63
967.011	370.83
967.377	359.13
967.742	309.97
968.108	338.06
968.474	370.83
968.839	235.08
969.205	354.44
969.57	312.32
969.935	288.91
970.301	305.29
970.666	312.32
971.031	305.29
971.396	363.81
971.761	338.06
972.126	295.93
972.491	279.55
972.856	319.34
973.221	347.42
973.586	284.23
973.95	342.74
974.315	347.42
974.679	260.82
975.044	265.5
975.408	317
975.773	239.76
976.137	307.63
976.501	295.93
976.866	293.59
977.23	249.12
977.594	324.02
977.958	305.29
978.322	338.06
978.686	284.23
979.049	300.61
979.413	338.06
979.777	328.7
980.141	293.59
980.504	293.59
980.868	265.5
981.231	288.91
981.595	279.55
981.958	307.63
982.321	293.59
982.684	354.44
983.048	342.74
983.411	352.1
983.774	300.61
984.137	307.63
984.5	309.97
984.862	380.19
985.225	235.08
985.588	359.13
985.951	324.02
986.313	345.08
986.676	361.47
987.038	317
987.401	284.23
987.763	281.89
988.125	356.79
988.488	319.34
988.85	338.06
989.212	251.46
989.574	317
989.936	307.63
990.298	279.55
990.66	302.95
991.022	309.97
991.383	342.74
991.745	333.38
992.107	375.51
992.468	345.08
992.83	363.81
993.191	333.38
993.553	338.06
993.914	293.59
994.275	324.02
994.637	352.1
994.998	309.97
995.359	298.27
995.72	279.55
996.081	286.57
996.442	309.97
996.803	284.23
997.163	277.21
997.524	352.1
997.885	324.02
998.245	265.5
998.606	317
998.966	295.93
999.327	319.34
999.687	380.19
1000.047	302.95
1000.408	309.97
1000.768	319.34
1001.128	279.55
1001.488	295.93
1001.848	279.55
1002.208	302.95
1002.568	317
1002.927	328.7
1003.287	253.8
1003.647	281.89
1004.007	288.91
1004.366	361.47
1004.726	270.19
1005.085	274.87
1005.444	317
1005.804	295.93
1006.163	295.93
1006.522	356.79
1006.881	321.68
1007.24	263.16
1007.599	225.72
1007.958	305.29
1008.317	302.95
1008.676	317
1009.035	326.36
1009.393	270.19
1009.752	277.21
1010.111	288.91
1010.469	347.42
1010.828	295.93
1011.186	319.34
1011.544	324.02
1011.903	295.93
1012.261	317
1012.619	305.29
1012.977	307.63
1013.335	319.34
1013.693	309.97
1014.051	314.66
1014.409	333.38
1014.767	333.38
1015.124	307.63
1015.482	331.04
1015.84	333.38
1016.197	328.7
1016.555	295.93
1016.912	347.42
1017.269	279.55
1017.627	281.89
1017.984	331.04
1018.341	295.93
1018.698	302.95
1019.055	249.12
1019.412	251.46
1019.769	265.5
1020.126	249.12
1020.483	349.76
1020.84	328.7
1021.196	333.38
1021.553	251.46
1021.909	328.7
1022.266	317
1022.622	242.1
1022.979	309.97
1023.335	277.21
1023.691	340.4
1024.047	267.85
1024.404	324.02
1024.76	270.19
1025.116	221.03
1025.472	335.72
1025.827	319.34
1026.183	319.34
1026.539	253.8
1026.895	342.74
1027.25	291.25
1027.606	321.68
1027.961	302.95
1028.317	298.27
1028.672	225.72
1029.028	312.32
1029.383	326.36
1029.738	293.59
1030.093	319.34
1030.448	293.59
1030.803	312.32
1031.158	309.97
1031.513	260.82
1031.868	335.72
1032.223	284.23
1032.577	279.55
1032.932	340.4
1033.287	319.34
1033.641	258.48
1033.996	260.82
1034.35	305.29
1034.704	317
1035.059	349.76
1035.413	338.06
1035.767	338.06
1036.121	338.06
