Data from Al_FLMS009871__887__16-17-03-825.txt Node

Date: Fri Mar 08 16:17:03 CST 2024
User: pe5414po
Spectrometer: FLMS00987
Trigger mode: 0
Integration Time (sec): 1.000000E-1
Scans to average: 1
Electric dark correction enabled: true
Nonlinearity correction enabled: false
Boxcar width: 0
XAxis mode: Wavelengths
Number of Pixels in Spectrum: 2048
>>>>>Begin Spectral Data<<<<<
188.938	-122
189.409	-122
189.879	-122
190.349	-147.75
190.819	-96.25
191.29	-131.36
191.76	-196.9
192.23	-26.04
192.7	-117.32
193.17	-72.85
193.64	-42.42
194.109	4.39
194.579	23.11
195.049	-49.44
195.519	41.84
195.988	58.22
196.458	62.9
196.927	100.35
197.397	95.67
197.866	109.71
198.336	140.14
198.805	147.16
199.274	114.39
199.744	196.31
200.213	203.33
200.682	172.91
201.151	198.65
201.62	224.4
202.089	238.44
202.558	236.1
203.027	264.19
203.495	229.08
203.964	280.57
204.433	231.42
204.902	327.38
205.37	247.8
205.839	315.68
206.307	289.93
206.776	250.14
207.244	303.98
207.712	315.68
208.181	268.87
208.649	233.76
209.117	264.19
209.585	245.46
210.053	259.51
210.521	250.14
210.989	327.38
211.457	266.53
211.925	252.49
212.393	268.87
212.861	315.68
213.328	322.7
213.796	278.23
214.264	266.53
214.731	273.55
215.199	236.1
215.666	226.74
216.133	259.51
216.601	250.14
217.068	285.25
217.535	285.25
218.003	271.21
218.47	268.87
218.937	264.19
219.404	329.72
219.871	273.55
220.338	271.21
220.805	292.27
221.271	285.25
221.738	275.89
222.205	280.57
222.671	243.12
223.138	294.61
223.605	254.83
224.071	222.06
224.538	266.53
225.004	252.49
225.47	236.1
225.937	346.11
226.403	245.46
226.869	264.19
227.335	289.93
227.801	266.53
228.267	233.76
228.733	294.61
229.199	252.49
229.665	238.44
230.131	245.46
230.597	275.89
231.062	259.51
231.528	289.93
231.994	254.83
232.459	303.98
232.925	226.74
233.39	287.59
233.856	257.17
234.321	252.49
234.786	287.59
235.252	257.17
235.717	264.19
236.182	264.19
236.647	266.53
237.112	250.14
237.577	268.87
238.042	318.02
238.507	219.72
238.972	292.27
239.436	292.27
239.901	292.27
240.366	289.93
240.83	264.19
241.295	257.17
241.76	266.53
242.224	252.49
242.688	247.8
243.153	285.25
243.617	311
244.081	240.78
244.545	285.25
245.01	212.7
245.474	287.59
245.938	266.53
246.402	245.46
246.866	231.42
247.33	208.02
247.793	273.55
248.257	245.46
248.721	247.8
249.185	273.55
249.648	257.17
250.112	346.11
250.575	285.25
251.039	296.96
251.502	271.21
251.965	264.19
252.429	219.72
252.892	287.59
253.355	268.87
253.818	266.53
254.281	172.91
254.744	306.32
255.207	320.36
255.67	296.96
256.133	306.32
256.596	236.1
257.059	278.23
257.522	233.76
257.984	362.49
258.447	273.55
258.909	271.21
259.372	259.51
259.834	243.12
260.297	226.74
260.759	289.93
261.221	285.25
261.684	325.04
262.146	261.85
262.608	294.61
263.07	318.02
263.532	264.19
263.994	268.87
264.456	285.25
264.918	278.23
265.38	233.76
265.842	313.34
266.303	287.59
266.765	315.68
267.227	287.59
267.688	308.66
268.15	245.46
268.611	254.83
269.072	306.32
269.534	334.4
269.995	247.8
270.456	275.89
270.918	299.3
271.379	226.74
271.84	236.1
272.301	278.23
272.762	287.59
273.223	280.57
273.684	313.34
274.144	247.8
274.605	311
275.066	301.64
275.527	196.31
275.987	362.49
276.448	362.49
276.908	252.49
277.369	285.25
277.829	261.85
278.289	264.19
278.75	273.55
279.21	280.57
279.67	301.64
280.13	299.3
280.59	257.17
281.05	336.74
281.51	318.02
281.97	280.57
282.43	355.47
282.89	282.91
283.35	303.98
283.809	266.53
284.269	219.72
284.729	303.98
285.188	252.49
285.648	301.64
286.107	311
286.567	282.91
287.026	268.87
287.485	332.06
287.944	346.11
288.404	360.15
288.863	271.21
289.322	278.23
289.781	287.59
290.24	369.51
290.699	254.83
291.158	275.89
291.616	325.04
292.075	329.72
292.534	315.68
292.992	294.61
293.451	292.27
293.91	264.19
294.368	252.49
294.827	343.77
295.285	301.64
295.743	205.67
296.202	346.11
296.66	275.89
297.118	245.46
297.576	280.57
298.034	322.7
298.492	257.17
298.95	273.55
299.408	336.74
299.866	350.79
300.324	273.55
300.781	273.55
301.239	285.25
301.697	285.25
302.154	325.04
302.612	341.43
303.069	313.34
303.527	287.59
303.984	320.36
304.441	292.27
304.899	311
305.356	306.32
305.813	325.04
306.27	280.57
306.727	346.11
307.184	219.72
307.641	278.23
308.098	306.32
308.555	318.02
309.012	285.25
309.468	264.19
309.925	287.59
310.382	278.23
310.838	332.06
311.295	343.77
311.751	327.38
312.208	273.55
312.664	325.04
313.12	250.14
313.577	315.68
314.033	289.93
314.489	308.66
314.945	273.55
315.401	236.1
315.857	311
316.313	294.61
316.769	271.21
317.225	266.53
317.681	299.3
318.136	299.3
318.592	292.27
319.048	332.06
319.503	329.72
319.959	271.21
320.414	303.98
320.869	346.11
321.325	306.32
321.78	336.74
322.235	289.93
322.691	296.96
323.146	346.11
323.601	311
324.056	346.11
324.511	308.66
324.966	320.36
325.421	341.43
325.875	322.7
326.33	336.74
326.785	285.25
327.24	308.66
327.694	273.55
328.149	268.87
328.603	280.57
329.058	367.17
329.512	313.34
329.966	332.06
330.421	278.23
330.875	303.98
331.329	299.3
331.783	273.55
332.237	325.04
332.691	362.49
333.145	362.49
333.599	285.25
334.053	318.02
334.507	268.87
334.96	325.04
335.414	292.27
335.868	282.91
336.321	266.53
336.775	240.78
337.228	301.64
337.682	303.98
338.135	322.7
338.588	250.14
339.042	306.32
339.495	341.43
339.948	273.55
340.401	339.09
340.854	315.68
341.307	329.72
341.76	301.64
342.213	303.98
342.666	318.02
343.119	311
343.571	285.25
344.024	289.93
344.477	343.77
344.929	275.89
345.382	322.7
345.834	301.64
346.287	294.61
346.739	245.46
347.191	287.59
347.644	296.96
348.096	294.61
348.548	367.17
349	285.25
349.452	343.77
349.904	273.55
350.356	273.55
350.808	266.53
351.26	325.04
351.711	240.78
352.163	332.06
352.615	294.61
353.066	287.59
353.518	259.51
353.969	390.58
354.421	329.72
354.872	353.13
355.324	367.17
355.775	339.09
356.226	353.13
356.677	261.85
357.128	311
357.579	303.98
358.03	280.57
358.481	273.55
358.932	285.25
359.383	275.89
359.834	353.13
360.285	308.66
360.735	294.61
361.186	254.83
361.637	208.02
362.087	343.77
362.538	341.43
362.988	287.59
363.438	303.98
363.889	257.17
364.339	282.91
364.789	334.4
365.239	311
365.689	278.23
366.139	278.23
366.589	369.51
367.039	287.59
367.489	294.61
367.939	296.96
368.389	240.78
368.839	343.77
369.288	226.74
369.738	254.83
370.187	264.19
370.637	325.04
371.086	311
371.536	257.17
371.985	285.25
372.434	299.3
372.884	329.72
373.333	275.89
373.782	296.96
374.231	348.45
374.68	257.17
375.129	299.3
375.578	301.64
376.027	306.32
376.475	318.02
376.924	381.21
377.373	266.53
377.822	303.98
378.27	287.59
378.719	313.34
379.167	339.09
379.616	301.64
380.064	357.81
380.512	348.45
380.961	296.96
381.409	308.66
381.857	303.98
382.305	229.08
382.753	252.49
383.201	343.77
383.649	355.47
384.097	306.32
384.545	315.68
384.992	346.11
385.44	268.87
385.888	313.34
386.335	315.68
386.783	292.27
387.231	369.51
387.678	311
388.125	296.96
388.573	315.68
389.02	318.02
389.467	311
389.914	299.3
390.362	325.04
390.809	301.64
391.256	322.7
391.703	308.66
392.15	322.7
392.596	306.32
393.043	294.61
393.49	301.64
393.937	299.3
394.383	296.96
394.83	306.32
395.276	278.23
395.723	285.25
396.169	308.66
396.616	339.09
397.062	287.59
397.508	320.36
397.954	339.09
398.401	294.61
398.847	313.34
399.293	320.36
399.739	280.57
400.185	364.83
400.631	296.96
401.076	357.81
401.522	233.76
401.968	243.12
402.414	266.53
402.859	292.27
403.305	289.93
403.75	252.49
404.196	313.34
404.641	320.36
405.086	318.02
405.532	294.61
405.977	252.49
406.422	217.38
406.867	313.34
407.312	313.34
407.757	315.68
408.202	294.61
408.647	308.66
409.092	306.32
409.537	292.27
409.982	226.74
410.426	339.09
410.871	369.51
411.316	315.68
411.76	308.66
412.205	299.3
412.649	313.34
413.093	296.96
413.538	348.45
413.982	289.93
414.426	341.43
414.87	353.13
415.314	259.51
415.758	266.53
416.202	341.43
416.646	315.68
417.09	282.91
417.534	282.91
417.978	325.04
418.421	236.1
418.865	278.23
419.309	243.12
419.752	369.51
420.196	254.83
420.639	318.02
421.083	311
421.526	257.17
421.969	311
422.412	313.34
422.856	318.02
423.299	303.98
423.742	329.72
424.185	360.15
424.628	320.36
425.071	299.3
425.513	315.68
425.956	350.79
426.399	278.23
426.842	308.66
427.284	346.11
427.727	306.32
428.169	334.4
428.612	367.17
429.054	318.02
429.497	252.49
429.939	348.45
430.381	315.68
430.823	327.38
431.265	289.93
431.707	200.99
432.149	355.47
432.591	385.9
433.033	289.93
433.475	271.21
433.917	311
434.359	289.93
434.8	322.7
435.242	294.61
435.684	299.3
436.125	355.47
436.567	261.85
437.008	292.27
437.449	325.04
437.891	308.66
438.332	350.79
438.773	336.74
439.214	308.66
439.656	278.23
440.097	336.74
440.538	306.32
440.978	369.51
441.419	266.53
441.86	315.68
442.301	266.53
442.742	273.55
443.182	334.4
443.623	287.59
444.063	278.23
444.504	348.45
444.944	327.38
445.385	371.85
445.825	254.83
446.265	264.19
446.706	350.79
447.146	318.02
447.586	278.23
448.026	318.02
448.466	261.85
448.906	306.32
449.346	332.06
449.786	315.68
450.225	308.66
450.665	294.61
451.105	292.27
451.544	343.77
451.984	268.87
452.424	280.57
452.863	240.78
453.302	341.43
453.742	329.72
454.181	339.09
454.62	289.93
455.059	353.13
455.499	334.4
455.938	341.43
456.377	341.43
456.816	332.06
457.254	320.36
457.693	348.45
458.132	381.21
458.571	315.68
459.01	273.55
459.448	299.3
459.887	308.66
460.325	315.68
460.764	273.55
461.202	299.3
461.641	350.79
462.079	313.34
462.517	325.04
462.955	313.34
463.393	275.89
463.832	301.64
464.27	320.36
464.708	301.64
465.145	254.83
465.583	282.91
466.021	285.25
466.459	313.34
466.897	308.66
467.334	327.38
467.772	313.34
468.209	320.36
468.647	334.4
469.084	289.93
469.522	327.38
469.959	311
470.396	313.34
470.833	315.68
471.271	257.17
471.708	336.74
472.145	364.83
472.582	231.42
473.019	296.96
473.456	413.98
473.892	299.3
474.329	336.74
474.766	325.04
475.202	306.32
475.639	318.02
476.076	327.38
476.512	350.79
476.949	320.36
477.385	250.14
477.821	266.53
478.258	336.74
478.694	329.72
479.13	322.7
479.566	311
480.002	292.27
480.438	327.38
480.874	327.38
481.31	264.19
481.746	327.38
482.181	285.25
482.617	327.38
483.053	266.53
483.488	299.3
483.924	346.11
484.36	273.55
484.795	299.3
485.23	278.23
485.666	327.38
486.101	341.43
486.536	341.43
486.971	289.93
487.407	231.42
487.842	322.7
488.277	311
488.712	306.32
489.146	303.98
489.581	315.68
490.016	301.64
490.451	294.61
490.885	362.49
491.32	325.04
491.755	357.81
492.189	303.98
492.624	357.81
493.058	311
493.492	334.4
493.927	299.3
494.361	268.87
494.795	318.02
495.229	266.53
495.663	329.72
496.097	332.06
496.531	371.85
496.965	341.43
497.399	287.59
497.833	303.98
498.266	362.49
498.7	296.96
499.134	320.36
499.567	329.72
500.001	343.77
500.434	306.32
500.868	329.72
501.301	299.3
501.734	322.7
502.168	311
502.601	296.96
503.034	369.51
503.467	360.15
503.9	292.27
504.333	336.74
504.766	292.27
505.199	339.09
505.632	245.46
506.064	332.06
506.497	336.74
506.93	332.06
507.362	285.25
507.795	275.89
508.227	296.96
508.66	318.02
509.092	311
509.524	240.78
509.956	339.09
510.389	315.68
510.821	289.93
511.253	238.44
511.685	325.04
512.117	318.02
512.549	278.23
512.981	346.11
513.412	311
513.844	329.72
514.276	243.12
514.707	278.23
515.139	294.61
515.571	327.38
516.002	332.06
516.433	318.02
516.865	306.32
517.296	311
517.727	257.17
518.159	264.19
518.59	383.56
519.021	259.51
519.452	303.98
519.883	264.19
520.314	289.93
520.744	299.3
521.175	334.4
521.606	306.32
522.037	285.25
522.467	299.3
522.898	303.98
523.328	329.72
523.759	278.23
524.189	348.45
524.62	308.66
525.05	306.32
525.48	332.06
525.91	320.36
526.341	308.66
526.771	289.93
527.201	311
527.631	329.72
528.061	322.7
528.49	378.87
528.92	327.38
529.35	229.08
529.78	243.12
530.209	329.72
530.639	339.09
531.068	289.93
531.498	348.45
531.927	299.3
532.357	341.43
532.786	336.74
533.215	280.57
533.644	327.38
534.074	294.61
534.503	325.04
534.932	364.83
535.361	313.34
535.79	327.38
536.218	301.64
536.647	334.4
537.076	303.98
537.505	367.17
537.933	327.38
538.362	378.87
538.79	343.77
539.219	301.64
539.647	313.34
540.076	280.57
540.504	287.59
540.932	287.59
541.36	266.53
541.788	292.27
542.217	369.51
542.645	343.77
543.073	404.62
543.5	282.91
543.928	346.11
544.356	343.77
544.784	306.32
545.211	280.57
545.639	294.61
546.067	303.98
546.494	357.81
546.922	287.59
547.349	327.38
547.776	296.96
548.204	301.64
548.631	294.61
549.058	268.87
549.485	336.74
549.912	357.81
550.339	313.34
550.766	320.36
551.193	348.45
551.62	378.87
552.047	350.79
552.474	306.32
552.9	261.85
553.327	327.38
553.754	292.27
554.18	301.64
554.607	315.68
555.033	285.25
555.459	313.34
555.886	313.34
556.312	266.53
556.738	264.19
557.164	320.36
557.59	311
558.016	311
558.442	325.04
558.868	313.34
559.294	364.83
559.72	303.98
560.145	322.7
560.571	325.04
560.997	315.68
561.422	299.3
561.848	208.02
562.273	329.72
562.699	339.09
563.124	301.64
563.549	313.34
563.974	318.02
564.4	364.83
564.825	327.38
565.25	350.79
565.675	343.77
566.1	289.93
566.525	318.02
566.95	299.3
567.374	287.59
567.799	339.09
568.224	355.47
568.648	285.25
569.073	313.34
569.497	306.32
569.922	364.83
570.346	322.7
570.771	348.45
571.195	282.91
571.619	348.45
572.043	303.98
572.467	306.32
572.891	318.02
573.315	332.06
573.739	322.7
574.163	292.27
574.587	292.27
575.011	318.02
575.435	278.23
575.858	254.83
576.282	299.3
576.705	318.02
577.129	285.25
577.552	381.21
577.976	275.89
578.399	261.85
578.822	336.74
579.245	320.36
579.669	268.87
580.092	320.36
580.515	303.98
580.938	289.93
581.361	271.21
581.784	320.36
582.206	266.53
582.629	278.23
583.052	285.25
583.474	294.61
583.897	280.57
584.32	339.09
584.742	339.09
585.165	306.32
585.587	343.77
586.009	280.57
586.431	318.02
586.854	308.66
587.276	292.27
587.698	320.36
588.12	327.38
588.542	364.83
588.964	327.38
589.386	313.34
589.807	299.3
590.229	271.21
590.651	294.61
591.073	299.3
591.494	339.09
591.916	299.3
592.337	336.74
592.759	315.68
593.18	346.11
593.601	318.02
594.022	280.57
594.444	280.57
594.865	329.72
595.286	341.43
595.707	299.3
596.128	289.93
596.549	341.43
596.97	238.44
597.39	296.96
597.811	378.87
598.232	341.43
598.652	301.64
599.073	306.32
599.494	343.77
599.914	296.96
600.334	399.94
600.755	378.87
601.175	292.27
601.595	306.32
602.015	273.55
602.436	325.04
602.856	465.47
603.276	327.38
603.696	250.14
604.115	266.53
604.535	282.91
604.955	287.59
605.375	341.43
605.794	278.23
606.214	292.27
606.634	243.12
607.053	334.4
607.473	334.4
607.892	273.55
608.311	332.06
608.731	303.98
609.15	339.09
609.569	306.32
609.988	350.79
610.407	264.19
610.826	296.96
611.245	299.3
611.664	348.45
612.083	306.32
612.501	275.89
612.92	353.13
613.339	322.7
613.757	378.87
614.176	268.87
614.594	268.87
615.013	385.9
615.431	273.55
615.85	282.91
616.268	268.87
616.686	348.45
617.104	294.61
617.522	332.06
617.94	294.61
618.358	231.42
618.776	303.98
619.194	268.87
619.612	287.59
620.03	325.04
620.447	292.27
620.865	278.23
621.282	325.04
621.7	301.64
622.117	357.81
622.535	285.25
622.952	278.23
623.369	287.59
623.787	303.98
624.204	318.02
624.621	301.64
625.038	367.17
625.455	348.45
625.872	296.96
626.289	327.38
626.706	332.06
627.123	318.02
627.539	332.06
627.956	296.96
628.373	238.44
628.789	315.68
629.206	322.7
629.622	292.27
630.038	362.49
630.455	334.4
630.871	278.23
631.287	339.09
631.703	322.7
632.12	329.72
632.536	357.81
632.952	306.32
633.368	336.74
633.783	292.27
634.199	299.3
634.615	294.61
635.031	301.64
635.446	341.43
635.862	299.3
636.277	346.11
636.693	320.36
637.108	341.43
637.524	357.81
637.939	322.7
638.354	266.53
638.77	336.74
639.185	315.68
639.6	341.43
640.015	339.09
640.43	301.64
640.845	285.25
641.259	311
641.674	306.32
642.089	322.7
642.504	341.43
642.918	250.14
643.333	346.11
643.747	348.45
644.162	287.59
644.576	264.19
644.991	367.17
645.405	322.7
645.819	355.47
646.233	273.55
646.647	257.17
647.061	346.11
647.475	306.32
647.889	369.51
648.303	303.98
648.717	325.04
649.131	332.06
649.545	282.91
649.958	306.32
650.372	325.04
650.785	273.55
651.199	231.42
651.612	364.83
652.026	353.13
652.439	292.27
652.852	346.11
653.266	315.68
653.679	332.06
654.092	287.59
654.505	313.34
654.918	322.7
655.331	325.04
655.744	287.59
656.156	306.32
656.569	292.27
656.982	278.23
657.394	254.83
657.807	296.96
658.22	222.06
658.632	364.83
659.044	306.32
659.457	332.06
659.869	287.59
660.281	287.59
660.693	289.93
661.106	348.45
661.518	292.27
661.93	278.23
662.342	250.14
662.754	299.3
663.165	346.11
663.577	303.98
663.989	306.32
664.401	353.13
664.812	360.15
665.224	257.17
665.635	329.72
666.047	296.96
666.458	282.91
666.869	236.1
667.281	296.96
667.692	360.15
668.103	334.4
668.514	275.89
668.925	336.74
669.336	268.87
669.747	264.19
670.158	301.64
670.569	320.36
670.979	289.93
671.39	292.27
671.801	332.06
672.211	336.74
672.622	294.61
673.032	318.02
673.443	318.02
673.853	343.77
674.263	360.15
674.674	357.81
675.084	322.7
675.494	271.21
675.904	315.68
676.314	343.77
676.724	271.21
677.134	245.46
677.544	285.25
677.953	273.55
678.363	296.96
678.773	355.47
679.182	275.89
679.592	301.64
680.001	266.53
680.411	306.32
680.82	261.85
681.23	296.96
681.639	336.74
682.048	264.19
682.457	353.13
682.866	303.98
683.275	264.19
683.684	303.98
684.093	313.34
684.502	273.55
684.911	339.09
685.32	313.34
685.728	278.23
686.137	385.9
686.546	322.7
686.954	303.98
687.363	329.72
687.771	357.81
688.179	299.3
688.588	320.36
688.996	367.17
689.404	322.7
689.812	313.34
690.22	369.51
690.628	271.21
691.036	275.89
691.444	325.04
691.852	339.09
692.26	306.32
692.667	360.15
693.075	353.13
693.483	268.87
693.89	280.57
694.298	343.77
694.705	348.45
695.112	306.32
695.52	353.13
695.927	247.8
696.334	325.04
696.741	346.11
697.148	320.36
697.555	287.59
697.962	315.68
698.369	320.36
698.776	271.21
699.183	336.74
699.59	292.27
699.996	287.59
700.403	294.61
700.81	257.17
701.216	303.98
701.623	332.06
702.029	339.09
702.435	353.13
702.842	385.9
703.248	325.04
703.654	273.55
704.06	289.93
704.466	334.4
704.872	355.47
705.278	278.23
705.684	327.38
706.09	261.85
706.496	296.96
706.901	289.93
707.307	268.87
707.712	364.83
708.118	271.21
708.523	306.32
708.929	271.21
709.334	357.81
709.74	308.66
710.145	369.51
710.55	287.59
710.955	308.66
711.36	350.79
711.765	289.93
712.17	301.64
712.575	357.81
712.98	912.52
713.385	371.85
713.789	294.61
714.194	280.57
714.599	252.49
715.003	315.68
715.408	306.32
715.812	296.96
716.217	336.74
716.621	327.38
717.025	306.32
717.429	222.06
717.833	325.04
718.238	303.98
718.642	280.57
719.046	329.72
719.449	320.36
719.853	287.59
720.257	325.04
720.661	318.02
721.065	322.7
721.468	336.74
721.872	282.91
722.275	339.09
722.679	308.66
723.082	208.02
723.485	252.49
723.889	332.06
724.292	318.02
724.695	299.3
725.098	318.02
725.501	299.3
725.904	390.58
726.307	299.3
726.71	261.85
727.113	275.89
727.516	280.57
727.918	367.17
728.321	327.38
728.724	346.11
729.126	292.27
729.529	313.34
729.931	350.79
730.333	299.3
730.736	332.06
731.138	233.76
731.54	240.78
731.942	315.68
732.344	322.7
732.746	301.64
733.148	350.79
733.55	287.59
733.952	226.74
734.354	268.87
734.756	336.74
735.157	325.04
735.559	306.32
735.96	303.98
736.362	343.77
736.763	266.53
737.165	329.72
737.566	315.68
737.967	325.04
738.368	292.27
738.77	292.27
739.171	303.98
739.572	250.14
739.973	339.09
740.374	299.3
740.774	285.25
741.175	254.83
741.576	292.27
741.977	322.7
742.377	294.61
742.778	278.23
743.178	303.98
743.579	318.02
743.979	292.27
744.379	315.68
744.78	376.53
745.18	325.04
745.58	285.25
745.98	374.19
746.38	306.32
746.78	322.7
747.18	259.51
747.58	348.45
747.98	266.53
748.38	311
748.779	315.68
749.179	320.36
749.578	332.06
749.978	287.59
750.377	294.61
750.777	278.23
751.176	243.12
751.575	311
751.975	315.68
752.374	301.64
752.773	264.19
753.172	294.61
753.571	313.34
753.97	282.91
754.369	350.79
754.768	369.51
755.166	353.13
755.565	334.4
755.964	261.85
756.362	367.17
756.761	353.13
757.159	329.72
757.558	245.46
757.956	318.02
758.354	318.02
758.753	278.23
759.151	289.93
759.549	285.25
759.947	355.47
760.345	299.3
760.743	287.59
761.141	285.25
761.539	296.96
761.936	285.25
762.334	346.11
762.732	287.59
763.129	306.32
763.527	325.04
763.924	282.91
764.322	369.51
764.719	329.72
765.117	339.09
765.514	259.51
765.911	313.34
766.308	306.32
766.705	318.02
767.102	266.53
767.499	329.72
767.896	259.51
768.293	226.74
768.69	280.57
769.086	306.32
769.483	303.98
769.88	329.72
770.276	374.19
770.673	313.34
771.069	348.45
771.466	334.4
771.862	257.17
772.258	308.66
772.654	264.19
773.05	275.89
773.447	320.36
773.843	296.96
774.239	275.89
774.634	374.19
775.03	311
775.426	318.02
775.822	306.32
776.218	348.45
776.613	336.74
777.009	318.02
777.404	266.53
777.8	325.04
778.195	318.02
778.59	238.44
778.986	280.57
779.381	212.7
779.776	306.32
780.171	308.66
780.566	278.23
780.961	257.17
781.356	320.36
781.751	325.04
782.146	332.06
782.54	301.64
782.935	259.51
783.33	313.34
783.724	245.46
784.119	320.36
784.513	224.4
784.908	371.85
785.302	353.13
785.696	318.02
786.09	243.12
786.485	289.93
786.879	315.68
787.273	296.96
787.667	308.66
788.061	289.93
788.454	303.98
788.848	240.78
789.242	278.23
789.636	275.89
790.029	322.7
790.423	250.14
790.816	399.94
791.21	306.32
791.603	325.04
791.997	259.51
792.39	268.87
792.783	367.17
793.176	311
793.569	329.72
793.962	282.91
794.355	362.49
794.748	318.02
795.141	299.3
795.534	318.02
795.927	308.66
796.319	222.06
796.712	308.66
797.105	294.61
797.497	364.83
797.89	299.3
798.282	353.13
798.674	257.17
799.067	250.14
799.459	303.98
799.851	322.7
800.243	240.78
800.635	353.13
801.027	325.04
801.419	311
801.811	292.27
802.203	339.09
802.594	268.87
802.986	254.83
803.378	322.7
803.769	313.34
804.161	318.02
804.552	315.68
804.944	308.66
805.335	278.23
805.726	292.27
806.118	318.02
806.509	315.68
806.9	332.06
807.291	292.27
807.682	289.93
808.073	313.34
808.464	287.59
808.855	306.32
809.245	303.98
809.636	303.98
810.027	311
810.417	301.64
810.808	301.64
811.198	311
811.589	296.96
811.979	289.93
812.369	266.53
812.759	294.61
813.15	332.06
813.54	282.91
813.93	346.11
814.32	329.72
814.71	334.4
815.1	306.32
815.489	243.12
815.879	285.25
816.269	289.93
816.658	334.4
817.048	329.72
817.438	318.02
817.827	315.68
818.216	322.7
818.606	292.27
818.995	280.57
819.384	299.3
819.773	343.77
820.163	282.91
820.552	303.98
820.941	308.66
821.33	285.25
821.718	339.09
822.107	308.66
822.496	301.64
822.885	318.02
823.273	320.36
823.662	327.38
824.05	275.89
824.439	285.25
824.827	308.66
825.216	252.49
825.604	271.21
825.992	278.23
826.38	315.68
826.768	299.3
827.156	313.34
827.544	336.74
827.932	301.64
828.32	282.91
828.708	322.7
829.096	311
829.483	336.74
829.871	308.66
830.259	355.47
830.646	334.4
831.034	327.38
831.421	341.43
831.808	350.79
832.196	303.98
832.583	311
832.97	233.76
833.357	287.59
833.744	254.83
834.131	282.91
834.518	299.3
834.905	318.02
835.292	296.96
835.678	303.98
836.065	280.57
836.452	285.25
836.838	299.3
837.225	357.81
837.611	353.13
837.998	313.34
838.384	339.09
838.77	313.34
839.157	346.11
839.543	315.68
839.929	367.17
840.315	341.43
840.701	320.36
841.087	299.3
841.473	264.19
841.858	275.89
842.244	306.32
842.63	303.98
843.015	346.11
843.401	425.68
843.787	292.27
844.172	273.55
844.557	240.78
844.943	322.7
845.328	320.36
845.713	257.17
846.098	350.79
846.483	292.27
846.868	353.13
847.253	332.06
847.638	348.45
848.023	367.17
848.408	308.66
848.793	311
849.177	282.91
849.562	247.8
849.947	289.93
850.331	336.74
850.715	327.38
851.1	271.21
851.484	264.19
851.868	303.98
852.253	346.11
852.637	322.7
853.021	313.34
853.405	289.93
853.789	287.59
854.173	332.06
854.557	315.68
854.94	381.21
855.324	341.43
855.708	278.23
856.091	315.68
856.475	357.81
856.858	301.64
857.242	296.96
857.625	306.32
858.009	301.64
858.392	247.8
858.775	229.08
859.158	311
859.541	287.59
859.924	238.44
860.307	292.27
860.69	278.23
861.073	299.3
861.456	306.32
861.838	325.04
862.221	285.25
862.604	334.4
862.986	299.3
863.369	306.32
863.751	353.13
864.133	278.23
864.516	296.96
864.898	243.12
865.28	245.46
865.662	353.13
866.044	339.09
866.426	287.59
866.808	313.34
867.19	322.7
867.572	250.14
867.954	275.89
868.336	315.68
868.717	353.13
869.099	296.96
869.48	264.19
869.862	301.64
870.243	306.32
870.625	376.53
871.006	353.13
871.387	308.66
871.768	360.15
872.149	287.59
872.53	289.93
872.911	287.59
873.292	280.57
873.673	245.46
874.054	390.58
874.435	275.89
874.815	348.45
875.196	341.43
875.577	289.93
875.957	306.32
876.338	222.06
876.718	285.25
877.098	343.77
877.479	303.98
877.859	339.09
878.239	329.72
878.619	296.96
878.999	343.77
879.379	348.45
879.759	374.19
880.139	327.38
880.519	296.96
880.898	334.4
881.278	303.98
881.658	299.3
882.037	350.79
882.417	278.23
882.796	282.91
883.176	268.87
883.555	294.61
883.934	311
884.313	385.9
884.693	294.61
885.072	311
885.451	362.49
885.83	322.7
886.209	289.93
886.587	282.91
886.966	313.34
887.345	311
887.724	296.96
888.102	261.85
888.481	308.66
888.859	348.45
889.238	280.57
889.616	348.45
889.994	346.11
890.373	229.08
890.751	341.43
891.129	266.53
891.507	303.98
891.885	275.89
892.263	315.68
892.641	320.36
893.019	334.4
893.396	296.96
893.774	339.09
894.152	296.96
894.529	350.79
894.907	311
895.284	334.4
895.662	313.34
896.039	264.19
896.416	329.72
896.794	303.98
897.171	320.36
897.548	315.68
897.925	350.79
898.302	322.7
898.679	254.83
899.056	327.38
899.433	339.09
899.809	343.77
900.186	315.68
900.563	303.98
900.939	318.02
901.316	266.53
901.692	306.32
902.069	296.96
902.445	296.96
902.821	294.61
903.197	353.13
903.574	315.68
903.95	278.23
904.326	268.87
904.702	404.62
905.078	306.32
905.454	334.4
905.829	301.64
906.205	268.87
906.581	280.57
906.956	301.64
907.332	282.91
907.707	280.57
908.083	254.83
908.458	346.11
908.833	355.47
909.209	346.11
909.584	369.51
909.959	266.53
910.334	289.93
910.709	313.34
911.084	313.34
911.459	287.59
911.834	287.59
912.209	332.06
912.583	362.49
912.958	301.64
913.333	306.32
913.707	268.87
914.082	315.68
914.456	315.68
914.83	289.93
915.205	259.51
915.579	282.91
915.953	240.78
916.327	325.04
916.701	247.8
917.075	287.59
917.449	313.34
917.823	292.27
918.197	329.72
918.571	278.23
918.944	287.59
919.318	268.87
919.692	280.57
920.065	275.89
920.438	334.4
920.812	306.32
921.185	329.72
921.558	275.89
921.932	296.96
922.305	339.09
922.678	287.59
923.051	327.38
923.424	325.04
923.797	348.45
924.17	261.85
924.542	325.04
924.915	318.02
925.288	287.59
925.661	322.7
926.033	280.57
926.406	282.91
926.778	266.53
927.15	329.72
927.523	273.55
927.895	289.93
928.267	322.7
928.639	306.32
929.011	336.74
929.383	271.21
929.755	275.89
930.127	268.87
930.499	325.04
930.871	322.7
931.242	364.83
931.614	301.64
931.986	292.27
932.357	296.96
932.729	259.51
933.1	285.25
933.471	299.3
933.843	313.34
934.214	287.59
934.585	320.36
934.956	325.04
935.327	350.79
935.698	296.96
936.069	329.72
936.44	271.21
936.811	320.36
937.182	306.32
937.552	339.09
937.923	229.08
938.293	280.57
938.664	224.4
939.034	306.32
939.405	280.57
939.775	311
940.145	327.38
940.516	318.02
940.886	320.36
941.256	318.02
941.626	280.57
941.996	303.98
942.366	247.8
942.735	322.7
943.105	266.53
943.475	350.79
943.845	320.36
944.214	282.91
944.584	329.72
944.953	404.62
945.323	264.19
945.692	294.61
946.061	299.3
946.43	318.02
946.8	341.43
947.169	266.53
947.538	240.78
947.907	341.43
948.276	299.3
948.645	381.21
949.013	287.59
949.382	315.68
949.751	278.23
950.119	308.66
950.488	339.09
950.857	292.27
951.225	353.13
951.593	278.23
951.962	289.93
952.33	336.74
952.698	299.3
953.066	315.68
953.434	343.77
953.802	355.47
954.17	350.79
954.538	275.89
954.906	268.87
955.274	348.45
955.642	318.02
956.009	250.14
956.377	273.55
956.744	296.96
957.112	275.89
957.479	299.3
957.847	325.04
958.214	327.38
958.581	311
958.948	301.64
959.315	289.93
959.683	301.64
960.05	313.34
960.416	346.11
960.783	299.3
961.15	374.19
961.517	271.21
961.884	296.96
962.25	322.7
962.617	294.61
962.983	261.85
963.35	261.85
963.716	339.09
964.082	278.23
964.449	278.23
964.815	252.49
965.181	294.61
965.547	247.8
965.913	296.96
966.279	292.27
966.645	294.61
967.011	329.72
967.377	287.59
967.742	315.68
968.108	308.66
968.474	334.4
968.839	322.7
969.205	311
969.57	353.13
969.935	280.57
970.301	282.91
970.666	311
971.031	271.21
971.396	329.72
971.761	364.83
972.126	364.83
972.491	289.93
972.856	303.98
973.221	303.98
973.586	266.53
973.95	299.3
974.315	252.49
974.679	296.96
975.044	282.91
975.408	273.55
975.773	303.98
976.137	350.79
976.501	287.59
976.866	294.61
977.23	332.06
977.594	325.04
977.958	367.17
978.322	278.23
978.686	301.64
979.049	278.23
979.413	296.96
979.777	257.17
980.141	306.32
980.504	285.25
980.868	311
981.231	311
981.595	245.46
981.958	385.9
982.321	329.72
982.684	313.34
983.048	313.34
983.411	275.89
983.774	332.06
984.137	308.66
984.5	329.72
984.862	334.4
985.225	381.21
985.588	268.87
985.951	318.02
986.313	285.25
986.676	282.91
987.038	311
987.401	325.04
987.763	402.28
988.125	306.32
988.488	388.24
988.85	318.02
989.212	301.64
989.574	299.3
989.936	296.96
990.298	353.13
990.66	336.74
991.022	299.3
991.383	243.12
991.745	306.32
992.107	339.09
992.468	261.85
992.83	229.08
993.191	364.83
993.553	301.64
993.914	252.49
994.275	332.06
994.637	339.09
994.998	285.25
995.359	360.15
995.72	369.51
996.081	311
996.442	238.44
996.803	250.14
997.163	311
997.524	329.72
997.885	346.11
998.245	329.72
998.606	334.4
998.966	243.12
999.327	308.66
999.687	252.49
1000.047	294.61
1000.408	259.51
1000.768	275.89
1001.128	285.25
1001.488	303.98
1001.848	320.36
1002.208	282.91
1002.568	353.13
1002.927	348.45
1003.287	278.23
1003.647	261.85
1004.007	252.49
1004.366	296.96
1004.726	238.44
1005.085	306.32
1005.444	299.3
1005.804	261.85
1006.163	315.68
1006.522	264.19
1006.881	259.51
1007.24	266.53
1007.599	261.85
1007.958	273.55
1008.317	318.02
1008.676	320.36
1009.035	315.68
1009.393	322.7
1009.752	327.38
1010.111	299.3
1010.469	360.15
1010.828	325.04
1011.186	273.55
1011.544	327.38
1011.903	285.25
1012.261	278.23
1012.619	329.72
1012.977	280.57
1013.335	327.38
1013.693	254.83
1014.051	268.87
1014.409	341.43
1014.767	271.21
1015.124	247.8
1015.482	350.79
1015.84	311
1016.197	348.45
1016.555	266.53
1016.912	320.36
1017.269	329.72
1017.627	294.61
1017.984	261.85
1018.341	259.51
1018.698	346.11
1019.055	229.08
1019.412	301.64
1019.769	275.89
1020.126	245.46
1020.483	332.06
1020.84	273.55
1021.196	271.21
1021.553	287.59
1021.909	271.21
1022.266	264.19
1022.622	332.06
1022.979	350.79
1023.335	296.96
1023.691	313.34
1024.047	364.83
1024.404	353.13
1024.76	296.96
1025.116	287.59
1025.472	334.4
1025.827	313.34
1026.183	311
1026.539	301.64
1026.895	273.55
1027.25	329.72
1027.606	311
1027.961	224.4
1028.317	261.85
1028.672	308.66
1029.028	322.7
1029.383	275.89
1029.738	247.8
1030.093	266.53
1030.448	360.15
1030.803	348.45
1031.158	339.09
1031.513	278.23
1031.868	320.36
1032.223	315.68
1032.577	350.79
1032.932	261.85
1033.287	278.23
1033.641	285.25
1033.996	311
1034.35	311
1034.704	336.74
1035.059	268.87
1035.413	315.68
1035.767	315.68
1036.121	315.68
