Data from Al_FLMS009871__889__16-17-04-025.txt Node

Date: Fri Mar 08 16:17:04 CST 2024
User: pe5414po
Spectrometer: FLMS00987
Trigger mode: 0
Integration Time (sec): 1.000000E-1
Scans to average: 1
Electric dark correction enabled: true
Nonlinearity correction enabled: false
Boxcar width: 0
XAxis mode: Wavelengths
Number of Pixels in Spectrum: 2048
>>>>>Begin Spectral Data<<<<<
188.938	-98.01
189.409	-98.01
189.879	-98.01
190.349	-114.39
190.819	-109.71
191.29	-34.82
191.76	-88.65
192.23	-105.03
192.7	-102.69
193.17	-25.45
193.64	-44.18
194.109	-39.5
194.579	-27.79
195.049	61.15
195.519	35.4
195.988	44.76
196.458	33.06
196.927	70.51
197.397	49.44
197.866	65.83
198.336	107.96
198.805	105.62
199.274	171.15
199.744	143.07
200.213	224.98
200.682	217.96
201.151	283.5
201.62	232.01
202.089	236.69
202.558	248.39
203.027	283.5
203.495	269.45
203.964	220.3
204.433	241.37
204.902	246.05
205.37	269.45
205.839	215.62
206.307	372.44
206.776	309.24
207.244	302.22
207.712	323.29
208.181	267.11
208.649	290.52
209.117	299.88
209.585	283.5
210.053	288.18
210.521	358.39
210.989	327.97
211.457	318.61
211.925	278.82
212.393	262.43
212.861	316.26
213.328	220.3
213.796	229.67
214.264	253.07
214.731	201.58
215.199	248.39
215.666	283.5
216.133	297.54
216.601	248.39
217.068	250.73
217.535	274.14
218.003	320.95
218.47	248.39
218.937	246.05
219.404	304.56
219.871	194.56
220.338	241.37
220.805	236.69
221.271	283.5
221.738	222.64
222.205	257.75
222.671	271.79
223.138	213.28
223.605	274.14
224.071	257.75
224.538	278.82
225.004	234.35
225.47	327.97
225.937	208.6
226.403	255.41
226.869	168.81
227.335	257.75
227.801	248.39
228.267	316.26
228.733	189.88
229.199	206.26
229.665	288.18
230.131	246.05
230.597	267.11
231.062	269.45
231.528	210.94
231.994	224.98
232.459	260.09
232.925	199.24
233.39	262.43
233.856	297.54
234.321	248.39
234.786	243.71
235.252	302.22
235.717	285.84
236.182	248.39
236.647	320.95
237.112	290.52
237.577	213.28
238.042	278.82
238.507	269.45
238.972	250.73
239.436	295.2
239.901	253.07
240.366	271.79
240.83	267.11
241.295	309.24
241.76	306.9
242.224	342.01
242.688	253.07
243.153	288.18
243.617	271.79
244.081	262.43
244.545	297.54
245.01	337.33
245.474	239.03
245.938	346.69
246.402	323.29
246.866	215.62
247.33	239.03
247.793	264.77
248.257	285.84
248.721	288.18
249.185	253.07
249.648	274.14
250.112	260.09
250.575	278.82
251.039	243.71
251.502	224.98
251.965	250.73
252.429	281.16
252.892	243.71
253.355	281.16
253.818	276.48
254.281	309.24
254.744	309.24
255.207	271.79
255.67	285.84
256.133	213.28
256.596	323.29
257.059	285.84
257.522	342.01
257.984	316.26
258.447	276.48
258.909	217.96
259.372	264.77
259.834	316.26
260.297	281.16
260.759	316.26
261.221	246.05
261.684	297.54
262.146	290.52
262.608	309.24
263.07	327.97
263.532	344.35
263.994	360.74
264.456	290.52
264.918	262.43
265.38	276.48
265.842	323.29
266.303	306.9
266.765	220.3
267.227	299.88
267.688	283.5
268.15	236.69
268.611	299.88
269.072	213.28
269.534	313.92
269.995	264.77
270.456	311.58
270.918	323.29
271.379	313.92
271.84	334.99
272.301	278.82
272.762	311.58
273.223	250.73
273.684	297.54
274.144	313.92
274.605	262.43
275.066	297.54
275.527	290.52
275.987	276.48
276.448	250.73
276.908	281.16
277.369	323.29
277.829	285.84
278.289	325.63
278.75	262.43
279.21	295.2
279.67	316.26
280.13	292.86
280.59	220.3
281.05	262.43
281.51	306.9
281.97	304.56
282.43	283.5
282.89	250.73
283.35	253.07
283.809	290.52
284.269	306.9
284.729	306.9
285.188	290.52
285.648	285.84
286.107	285.84
286.567	309.24
287.026	327.97
287.485	262.43
287.944	320.95
288.404	222.64
288.863	304.56
289.322	271.79
289.781	271.79
290.24	227.32
290.699	337.33
291.158	334.99
291.616	285.84
292.075	374.78
292.534	246.05
292.992	309.24
293.451	285.84
293.91	246.05
294.368	262.43
294.827	250.73
295.285	299.88
295.743	274.14
296.202	283.5
296.66	318.61
297.118	285.84
297.576	276.48
298.034	255.41
298.492	278.82
298.95	239.03
299.408	283.5
299.866	344.35
300.324	278.82
300.781	327.97
301.239	278.82
301.697	316.26
302.154	262.43
302.612	323.29
303.069	332.65
303.527	313.92
303.984	299.88
304.441	299.88
304.899	311.58
305.356	227.32
305.813	283.5
306.27	332.65
306.727	346.69
307.184	306.9
307.641	297.54
308.098	320.95
308.555	302.22
309.012	318.61
309.468	356.05
309.925	299.88
310.382	246.05
310.838	349.03
311.295	337.33
311.751	299.88
312.208	346.69
312.664	283.5
313.12	349.03
313.577	267.11
314.033	323.29
314.489	342.01
314.945	278.82
315.401	320.95
315.857	302.22
316.313	288.18
316.769	320.95
317.225	248.39
317.681	311.58
318.136	274.14
318.592	313.92
319.048	269.45
319.503	264.77
319.959	339.67
320.414	302.22
320.869	367.76
321.325	356.05
321.78	320.95
322.235	311.58
322.691	227.32
323.146	320.95
323.601	295.2
324.056	288.18
324.511	306.9
324.966	302.22
325.421	325.63
325.875	353.71
326.33	290.52
326.785	262.43
327.24	306.9
327.694	276.48
328.149	262.43
328.603	262.43
329.058	323.29
329.512	327.97
329.966	306.9
330.421	323.29
330.875	271.79
331.329	302.22
331.783	262.43
332.237	271.79
332.691	302.22
333.145	262.43
333.599	372.44
334.053	332.65
334.507	323.29
334.96	325.63
335.414	271.79
335.868	318.61
336.321	330.31
336.775	297.54
337.228	290.52
337.682	342.01
338.135	299.88
338.588	269.45
339.042	253.07
339.495	281.16
339.948	297.54
340.401	318.61
340.854	327.97
341.307	304.56
341.76	313.92
342.213	215.62
342.666	224.98
343.119	234.35
343.571	269.45
344.024	278.82
344.477	313.92
344.929	281.16
345.382	323.29
345.834	295.2
346.287	267.11
346.739	325.63
347.191	337.33
347.644	316.26
348.096	325.63
348.548	306.9
349	342.01
349.452	327.97
349.904	290.52
350.356	253.07
350.808	281.16
351.26	274.14
351.711	276.48
352.163	356.05
352.615	295.2
353.066	295.2
353.518	325.63
353.969	278.82
354.421	285.84
354.872	278.82
355.324	330.31
355.775	243.71
356.226	313.92
356.677	227.32
357.128	342.01
357.579	302.22
358.03	374.78
358.481	232.01
358.932	255.41
359.383	278.82
359.834	363.08
360.285	351.37
360.735	271.79
361.186	349.03
361.637	295.2
362.087	281.16
362.538	241.37
362.988	299.88
363.438	353.71
363.889	311.58
364.339	290.52
364.789	309.24
365.239	351.37
365.689	313.92
366.139	302.22
366.589	318.61
367.039	323.29
367.489	306.9
367.939	349.03
368.389	349.03
368.839	309.24
369.288	353.71
369.738	271.79
370.187	363.08
370.637	334.99
371.086	313.92
371.536	281.16
371.985	281.16
372.434	388.82
372.884	323.29
373.333	297.54
373.782	248.39
374.231	365.42
374.68	353.71
375.129	306.9
375.578	342.01
376.027	292.86
376.475	276.48
376.924	337.33
377.373	313.92
377.822	302.22
378.27	316.26
378.719	306.9
379.167	304.56
379.616	330.31
380.064	306.9
380.512	337.33
380.961	313.92
381.409	391.16
381.857	288.18
382.305	309.24
382.753	332.65
383.201	344.35
383.649	374.78
384.097	285.84
384.545	337.33
384.992	339.67
385.44	285.84
385.888	342.01
386.335	292.86
386.783	342.01
387.231	288.18
387.678	334.99
388.125	344.35
388.573	302.22
389.02	325.63
389.467	295.2
389.914	290.52
390.362	332.65
390.809	278.82
391.256	262.43
391.703	344.35
392.15	285.84
392.596	349.03
393.043	290.52
393.49	281.16
393.937	262.43
394.383	241.37
394.83	274.14
395.276	224.98
395.723	323.29
396.169	271.79
396.616	327.97
397.062	283.5
397.508	295.2
397.954	302.22
398.401	295.2
398.847	262.43
399.293	330.31
399.739	311.58
400.185	320.95
400.631	349.03
401.076	299.88
401.522	283.5
401.968	302.22
402.414	395.84
402.859	325.63
403.305	267.11
403.75	311.58
404.196	278.82
404.641	311.58
405.086	290.52
405.532	302.22
405.977	264.77
406.422	309.24
406.867	297.54
407.312	313.92
407.757	292.86
408.202	306.9
408.647	285.84
409.092	346.69
409.537	297.54
409.982	274.14
410.426	290.52
410.871	292.86
411.316	234.35
411.76	281.16
412.205	320.95
412.649	267.11
413.093	297.54
413.538	271.79
413.982	243.71
414.426	297.54
414.87	283.5
415.314	351.37
415.758	309.24
416.202	299.88
416.646	313.92
417.09	353.71
417.534	330.31
417.978	318.61
418.421	309.24
418.865	292.86
419.309	234.35
419.752	306.9
420.196	327.97
420.639	313.92
421.083	367.76
421.526	290.52
421.969	271.79
422.412	304.56
422.856	325.63
423.299	311.58
423.742	332.65
424.185	337.33
424.628	236.69
425.071	351.37
425.513	353.71
425.956	311.58
426.399	365.42
426.842	325.63
427.284	349.03
427.727	323.29
428.169	363.08
428.612	318.61
429.054	337.33
429.497	344.35
429.939	264.77
430.381	285.84
430.823	351.37
431.265	327.97
431.707	295.2
432.149	297.54
432.591	353.71
433.033	292.86
433.475	327.97
433.917	269.45
434.359	318.61
434.8	309.24
435.242	353.71
435.684	318.61
436.125	332.65
436.567	318.61
437.008	337.33
437.449	332.65
437.891	356.05
438.332	292.86
438.773	360.74
439.214	309.24
439.656	320.95
440.097	370.1
440.538	320.95
440.978	311.58
441.419	290.52
441.86	236.69
442.301	288.18
442.742	306.9
443.182	353.71
443.623	290.52
444.063	320.95
444.504	309.24
444.944	243.71
445.385	384.14
445.825	332.65
446.265	344.35
446.706	299.88
447.146	346.69
447.586	309.24
448.026	423.93
448.466	271.79
448.906	327.97
449.346	299.88
449.786	290.52
450.225	330.31
450.665	309.24
451.105	332.65
451.544	318.61
451.984	332.65
452.424	363.08
452.863	323.29
453.302	269.45
453.742	313.92
454.181	344.35
454.62	365.42
455.059	358.39
455.499	342.01
455.938	297.54
456.377	365.42
456.816	313.92
457.254	306.9
457.693	292.86
458.132	309.24
458.571	346.69
459.01	330.31
459.448	356.05
459.887	320.95
460.325	281.16
460.764	267.11
461.202	274.14
461.641	285.84
462.079	320.95
462.517	313.92
462.955	311.58
463.393	367.76
463.832	339.67
464.27	306.9
464.708	381.8
465.145	311.58
465.583	297.54
466.021	320.95
466.459	365.42
466.897	384.14
467.334	339.67
467.772	342.01
468.209	325.63
468.647	290.52
469.084	299.88
469.522	330.31
469.959	311.58
470.396	323.29
470.833	262.43
471.271	313.92
471.708	288.18
472.145	316.26
472.582	334.99
473.019	290.52
473.456	269.45
473.892	285.84
474.329	323.29
474.766	309.24
475.202	327.97
475.639	313.92
476.076	339.67
476.512	316.26
476.949	309.24
477.385	370.1
477.821	232.01
478.258	367.76
478.694	304.56
479.13	313.92
479.566	377.12
480.002	248.39
480.438	311.58
480.874	325.63
481.31	349.03
481.746	306.9
482.181	358.39
482.617	353.71
483.053	290.52
483.488	377.12
483.924	351.37
484.36	288.18
484.795	342.01
485.23	318.61
485.666	320.95
486.101	278.82
486.536	332.65
486.971	306.9
487.407	299.88
487.842	292.86
488.277	309.24
488.712	330.31
489.146	356.05
489.581	271.79
490.016	306.9
490.451	276.48
490.885	344.35
491.32	276.48
491.755	351.37
492.189	370.1
492.624	353.71
493.058	281.16
493.492	274.14
493.927	325.63
494.361	334.99
494.795	313.92
495.229	342.01
495.663	274.14
496.097	360.74
496.531	313.92
496.965	334.99
497.399	269.45
497.833	306.9
498.266	311.58
498.7	349.03
499.134	346.69
499.567	360.74
500.001	332.65
500.434	325.63
500.868	274.14
501.301	318.61
501.734	236.69
502.168	320.95
502.601	248.39
503.034	288.18
503.467	290.52
503.9	334.99
504.333	325.63
504.766	330.31
505.199	342.01
505.632	327.97
506.064	365.42
506.497	304.56
506.93	320.95
507.362	320.95
507.795	342.01
508.227	332.65
508.66	325.63
509.092	316.26
509.524	344.35
509.956	344.35
510.389	372.44
510.821	304.56
511.253	351.37
511.685	356.05
512.117	332.65
512.549	351.37
512.981	274.14
513.412	320.95
513.844	243.71
514.276	339.67
514.707	330.31
515.139	306.9
515.571	302.22
516.002	290.52
516.433	349.03
516.865	302.22
517.296	318.61
517.727	306.9
518.159	323.29
518.59	292.86
519.021	330.31
519.452	327.97
519.883	318.61
520.314	292.86
520.744	283.5
521.175	316.26
521.606	402.86
522.037	299.88
522.467	349.03
522.898	381.8
523.328	323.29
523.759	365.42
524.189	281.16
524.62	325.63
525.05	290.52
525.48	320.95
525.91	351.37
526.341	309.24
526.771	318.61
527.201	267.11
527.631	278.82
528.061	283.5
528.49	323.29
528.92	323.29
529.35	274.14
529.78	290.52
530.209	311.58
530.639	325.63
531.068	330.31
531.498	283.5
531.927	295.2
532.357	250.73
532.786	285.84
533.215	395.84
533.644	325.63
534.074	330.31
534.503	281.16
534.932	302.22
535.361	320.95
535.79	384.14
536.218	367.76
536.647	327.97
537.076	325.63
537.505	330.31
537.933	318.61
538.362	311.58
538.79	337.33
539.219	323.29
539.647	316.26
540.076	323.29
540.504	292.86
540.932	318.61
541.36	264.77
541.788	295.2
542.217	334.99
542.645	288.18
543.073	290.52
543.5	241.37
543.928	358.39
544.356	342.01
544.784	281.16
545.211	327.97
545.639	271.79
546.067	339.67
546.494	353.71
546.922	337.33
547.349	346.69
547.776	267.11
548.204	274.14
548.631	342.01
549.058	295.2
549.485	342.01
549.912	334.99
550.339	381.8
550.766	241.37
551.193	391.16
551.62	325.63
552.047	360.74
552.474	304.56
552.9	262.43
553.327	332.65
553.754	360.74
554.18	325.63
554.607	311.58
555.033	295.2
555.459	302.22
555.886	325.63
556.312	346.69
556.738	283.5
557.164	330.31
557.59	358.39
558.016	323.29
558.442	346.69
558.868	334.99
559.294	264.77
559.72	246.05
560.145	283.5
560.571	318.61
560.997	337.33
561.422	339.67
561.848	367.76
562.273	288.18
562.699	299.88
563.124	337.33
563.549	288.18
563.974	297.54
564.4	327.97
564.825	323.29
565.25	342.01
565.675	276.48
566.1	337.33
566.525	360.74
566.95	320.95
567.374	250.73
567.799	358.39
568.224	351.37
568.648	297.54
569.073	320.95
569.497	304.56
569.922	274.14
570.346	386.48
570.771	337.33
571.195	320.95
571.619	306.9
572.043	330.31
572.467	320.95
572.891	365.42
573.315	306.9
573.739	327.97
574.163	339.67
574.587	302.22
575.011	267.11
575.435	332.65
575.858	365.42
576.282	325.63
576.705	288.18
577.129	288.18
577.552	316.26
577.976	281.16
578.399	299.88
578.822	309.24
579.245	304.56
579.669	271.79
580.092	379.46
580.515	309.24
580.938	332.65
581.361	339.67
581.784	346.69
582.206	297.54
582.629	239.03
583.052	199.24
583.474	246.05
583.897	360.74
584.32	323.29
584.742	325.63
585.165	302.22
585.587	330.31
586.009	274.14
586.431	288.18
586.854	318.61
587.276	269.45
587.698	288.18
588.12	325.63
588.542	332.65
588.964	318.61
589.386	332.65
589.807	304.56
590.229	285.84
590.651	344.35
591.073	309.24
591.494	349.03
591.916	278.82
592.337	349.03
592.759	276.48
593.18	309.24
593.601	334.99
594.022	323.29
594.444	288.18
594.865	325.63
595.286	332.65
595.707	351.37
596.128	358.39
596.549	342.01
596.97	281.16
597.39	297.54
597.811	320.95
598.232	278.82
598.652	320.95
599.073	337.33
599.494	313.92
599.914	330.31
600.334	342.01
600.755	288.18
601.175	309.24
601.595	302.22
602.015	353.71
602.436	297.54
602.856	473.08
603.276	327.97
603.696	334.99
604.115	346.69
604.535	271.79
604.955	274.14
605.375	276.48
605.794	271.79
606.214	267.11
606.634	304.56
607.053	306.9
607.473	297.54
607.892	276.48
608.311	292.86
608.731	274.14
609.15	309.24
609.569	332.65
609.988	330.31
610.407	320.95
610.826	222.64
611.245	271.79
611.664	334.99
612.083	278.82
612.501	260.09
612.92	281.16
613.339	342.01
613.757	309.24
614.176	304.56
614.594	295.2
615.013	290.52
615.431	325.63
615.85	309.24
616.268	372.44
616.686	292.86
617.104	384.14
617.522	360.74
617.94	370.1
618.358	304.56
618.776	325.63
619.194	262.43
619.612	349.03
620.03	349.03
620.447	302.22
620.865	323.29
621.282	337.33
621.7	306.9
622.117	372.44
622.535	302.22
622.952	353.71
623.369	304.56
623.787	309.24
624.204	299.88
624.621	292.86
625.038	351.37
625.455	363.08
625.872	285.84
626.289	318.61
626.706	311.58
627.123	260.09
627.539	313.92
627.956	358.39
628.373	342.01
628.789	278.82
629.206	351.37
629.622	292.86
630.038	316.26
630.455	339.67
630.871	323.29
631.287	367.76
631.703	302.22
632.12	299.88
632.536	302.22
632.952	292.86
633.368	353.71
633.783	334.99
634.199	304.56
634.615	306.9
635.031	306.9
635.446	351.37
635.862	285.84
636.277	339.67
636.693	313.92
637.108	309.24
637.524	349.03
637.939	292.86
638.354	306.9
638.77	316.26
639.185	356.05
639.6	297.54
640.015	334.99
640.43	285.84
640.845	309.24
641.259	370.1
641.674	356.05
642.089	290.52
642.504	344.35
642.918	323.29
643.333	316.26
643.747	356.05
644.162	327.97
644.576	337.33
644.991	349.03
645.405	332.65
645.819	309.24
646.233	313.92
646.647	290.52
647.061	260.09
647.475	260.09
647.889	229.67
648.303	264.77
648.717	318.61
649.131	356.05
649.545	276.48
649.958	316.26
650.372	349.03
650.785	342.01
651.199	337.33
651.612	339.67
652.026	295.2
652.439	344.35
652.852	334.99
653.266	313.92
653.679	297.54
654.092	395.84
654.505	360.74
654.918	290.52
655.331	316.26
655.744	257.75
656.156	344.35
656.569	330.31
656.982	295.2
657.394	285.84
657.807	288.18
658.22	276.48
658.632	316.26
659.044	316.26
659.457	320.95
659.869	337.33
660.281	297.54
660.693	271.79
661.106	309.24
661.518	260.09
661.93	360.74
662.342	271.79
662.754	346.69
663.165	332.65
663.577	318.61
663.989	353.71
664.401	332.65
664.812	337.33
665.224	363.08
665.635	360.74
666.047	299.88
666.458	339.67
666.869	285.84
667.281	309.24
667.692	274.14
668.103	318.61
668.514	260.09
668.925	363.08
669.336	281.16
669.747	339.67
670.158	309.24
670.569	337.33
670.979	332.65
671.39	309.24
671.801	278.82
672.211	271.79
672.622	290.52
673.032	363.08
673.443	327.97
673.853	281.16
674.263	309.24
674.674	337.33
675.084	337.33
675.494	295.2
675.904	290.52
676.314	337.33
676.724	346.69
677.134	342.01
677.544	316.26
677.953	295.2
678.363	290.52
678.773	426.27
679.182	297.54
679.592	281.16
680.001	297.54
680.411	318.61
680.82	269.45
681.23	304.56
681.639	327.97
682.048	290.52
682.457	299.88
682.866	327.97
683.275	297.54
683.684	327.97
684.093	346.69
684.502	351.37
684.911	271.79
685.32	318.61
685.728	360.74
686.137	342.01
686.546	344.35
686.954	398.18
687.363	313.92
687.771	292.86
688.179	302.22
688.588	374.78
688.996	349.03
689.404	306.9
689.812	269.45
690.22	433.29
690.628	309.24
691.036	325.63
691.444	323.29
691.852	281.16
692.26	334.99
692.667	318.61
693.075	309.24
693.483	349.03
693.89	309.24
694.298	290.52
694.705	290.52
695.112	313.92
695.52	334.99
695.927	337.33
696.334	327.97
696.741	360.74
697.148	288.18
697.555	313.92
697.962	327.97
698.369	295.2
698.776	297.54
699.183	299.88
699.59	316.26
699.996	253.07
700.403	306.9
700.81	346.69
701.216	337.33
701.623	332.65
702.029	337.33
702.435	332.65
702.842	281.16
703.248	346.69
703.654	377.12
704.06	257.75
704.466	288.18
704.872	299.88
705.278	313.92
705.684	274.14
706.09	288.18
706.496	257.75
706.901	313.92
707.307	302.22
707.712	320.95
708.118	271.79
708.523	377.12
708.929	297.54
709.334	288.18
709.74	353.71
710.145	299.88
710.55	330.31
710.955	262.43
711.36	313.92
711.765	267.11
712.17	309.24
712.575	334.99
712.98	969.27
713.385	400.52
713.789	339.67
714.194	365.42
714.599	295.2
715.003	363.08
715.408	327.97
715.812	250.73
716.217	332.65
716.621	353.71
717.025	323.29
717.429	318.61
717.833	379.46
718.238	372.44
718.642	304.56
719.046	288.18
719.449	304.56
719.853	297.54
720.257	304.56
720.661	306.9
721.065	356.05
721.468	330.31
721.872	253.07
722.275	409.89
722.679	360.74
723.082	285.84
723.485	264.77
723.889	313.92
724.292	365.42
724.695	283.5
725.098	339.67
725.501	278.82
725.904	292.86
726.307	276.48
726.71	283.5
727.113	311.58
727.516	323.29
727.918	367.76
728.321	274.14
728.724	274.14
729.126	311.58
729.529	349.03
729.931	363.08
730.333	278.82
730.736	363.08
731.138	278.82
731.54	353.71
731.942	313.92
732.344	276.48
732.746	271.79
733.148	295.2
733.55	337.33
733.952	316.26
734.354	316.26
734.756	318.61
735.157	288.18
735.559	248.39
735.96	309.24
736.362	402.86
736.763	327.97
737.165	290.52
737.566	334.99
737.967	346.69
738.368	318.61
738.77	379.46
739.171	304.56
739.572	295.2
739.973	318.61
740.374	365.42
740.774	320.95
741.175	349.03
741.576	241.37
741.977	318.61
742.377	276.48
742.778	409.89
743.178	339.67
743.579	337.33
743.979	356.05
744.379	330.31
744.78	365.42
745.18	278.82
745.58	323.29
745.98	290.52
746.38	297.54
746.78	365.42
747.18	309.24
747.58	339.67
747.98	248.39
748.38	342.01
748.779	332.65
749.179	285.84
749.578	316.26
749.978	311.58
750.377	297.54
750.777	283.5
751.176	232.01
751.575	327.97
751.975	274.14
752.374	351.37
752.773	288.18
753.172	290.52
753.571	327.97
753.97	222.64
754.369	344.35
754.768	299.88
755.166	309.24
755.565	313.92
755.964	299.88
756.362	323.29
756.761	323.29
757.159	248.39
757.558	363.08
757.956	271.79
758.354	339.67
758.753	325.63
759.151	339.67
759.549	313.92
759.947	304.56
760.345	325.63
760.743	337.33
761.141	330.31
761.539	250.73
761.936	320.95
762.334	276.48
762.732	281.16
763.129	260.09
763.527	243.71
763.924	260.09
764.322	395.84
764.719	337.33
765.117	360.74
765.514	262.43
765.911	370.1
766.308	320.95
766.705	229.67
767.102	325.63
767.499	346.69
767.896	302.22
768.293	334.99
768.69	311.58
769.086	257.75
769.483	304.56
769.88	372.44
770.276	318.61
770.673	302.22
771.069	316.26
771.466	381.8
771.862	304.56
772.258	313.92
772.654	353.71
773.05	332.65
773.447	281.16
773.843	452.02
774.239	330.31
774.634	342.01
775.03	316.26
775.426	295.2
775.822	339.67
776.218	302.22
776.613	334.99
777.009	281.16
777.404	320.95
777.8	325.63
778.195	395.84
778.59	332.65
778.986	313.92
779.381	297.54
779.776	318.61
780.171	278.82
780.566	316.26
780.961	349.03
781.356	318.61
781.751	299.88
782.146	304.56
782.54	313.92
782.935	278.82
783.33	257.75
783.724	248.39
784.119	316.26
784.513	297.54
784.908	267.11
785.302	320.95
785.696	255.41
786.09	318.61
786.485	356.05
786.879	311.58
787.273	297.54
787.667	320.95
788.061	304.56
788.454	267.11
788.848	292.86
789.242	356.05
789.636	302.22
790.029	260.09
790.423	260.09
790.816	288.18
791.21	323.29
791.603	316.26
791.997	365.42
792.39	337.33
792.783	346.69
793.176	339.67
793.569	374.78
793.962	323.29
794.355	332.65
794.748	323.29
795.141	302.22
795.534	299.88
795.927	250.73
796.319	236.69
796.712	344.35
797.105	292.86
797.497	299.88
797.89	342.01
798.282	306.9
798.674	285.84
799.067	334.99
799.459	295.2
799.851	283.5
800.243	262.43
800.635	316.26
801.027	248.39
801.419	325.63
801.811	311.58
802.203	346.69
802.594	304.56
802.986	316.26
803.378	351.37
803.769	260.09
804.161	276.48
804.552	349.03
804.944	290.52
805.335	288.18
805.726	332.65
806.118	349.03
806.509	302.22
806.9	304.56
807.291	267.11
807.682	227.32
808.073	311.58
808.464	363.08
808.855	316.26
809.245	330.31
809.636	297.54
810.027	372.44
810.417	285.84
810.808	257.75
811.198	349.03
811.589	257.75
811.979	342.01
812.369	320.95
812.759	292.86
813.15	269.45
813.54	288.18
813.93	302.22
814.32	316.26
814.71	302.22
815.1	360.74
815.489	299.88
815.879	316.26
816.269	281.16
816.658	325.63
817.048	330.31
817.438	295.2
817.827	309.24
818.216	281.16
818.606	309.24
818.995	325.63
819.384	292.86
819.773	267.11
820.163	309.24
820.552	253.07
820.941	337.33
821.33	316.26
821.718	292.86
822.107	239.03
822.496	346.69
822.885	356.05
823.273	313.92
823.662	306.9
824.05	306.9
824.439	295.2
824.827	295.2
825.216	260.09
825.604	342.01
825.992	351.37
826.38	288.18
826.768	377.12
827.156	295.2
827.544	363.08
827.932	283.5
828.32	295.2
828.708	316.26
829.096	283.5
829.483	342.01
829.871	353.71
830.259	358.39
830.646	360.74
831.034	297.54
831.421	377.12
831.808	281.16
832.196	306.9
832.583	241.37
832.97	271.79
833.357	255.41
833.744	309.24
834.131	281.16
834.518	356.05
834.905	346.69
835.292	334.99
835.678	271.79
836.065	299.88
836.452	318.61
836.838	337.33
837.225	299.88
837.611	309.24
837.998	384.14
838.384	309.24
838.77	318.61
839.157	234.35
839.543	309.24
839.929	281.16
840.315	370.1
840.701	309.24
841.087	304.56
841.473	346.69
841.858	304.56
842.244	297.54
842.63	374.78
843.015	367.76
843.401	346.69
843.787	316.26
844.172	253.07
844.557	309.24
844.943	269.45
845.328	318.61
845.713	337.33
846.098	318.61
846.483	327.97
846.868	384.14
847.253	262.43
847.638	309.24
848.023	281.16
848.408	281.16
848.793	342.01
849.177	299.88
849.562	351.37
849.947	285.84
850.331	276.48
850.715	264.77
851.1	299.88
851.484	325.63
851.868	250.73
852.253	288.18
852.637	302.22
853.021	299.88
853.405	337.33
853.789	337.33
854.173	290.52
854.557	203.92
854.94	271.79
855.324	327.97
855.708	356.05
856.091	253.07
856.475	318.61
856.858	337.33
857.242	248.39
857.625	309.24
858.009	313.92
858.392	337.33
858.775	342.01
859.158	344.35
859.541	351.37
859.924	283.5
860.307	285.84
860.69	325.63
861.073	332.65
861.456	334.99
861.838	344.35
862.221	349.03
862.604	327.97
862.986	278.82
863.369	290.52
863.751	327.97
864.133	316.26
864.516	346.69
864.898	281.16
865.28	309.24
865.662	332.65
866.044	290.52
866.426	295.2
866.808	323.29
867.19	342.01
867.572	311.58
867.954	295.2
868.336	363.08
868.717	320.95
869.099	274.14
869.48	288.18
869.862	274.14
870.243	346.69
870.625	288.18
871.006	297.54
871.387	262.43
871.768	283.5
872.149	290.52
872.53	262.43
872.911	346.69
873.292	356.05
873.673	363.08
874.054	285.84
874.435	337.33
874.815	332.65
875.196	356.05
875.577	360.74
875.957	269.45
876.338	327.97
876.718	283.5
877.098	318.61
877.479	278.82
877.859	299.88
878.239	346.69
878.619	349.03
878.999	356.05
879.379	267.11
879.759	271.79
880.139	332.65
880.519	306.9
880.898	346.69
881.278	302.22
881.658	318.61
882.037	288.18
882.417	370.1
882.796	243.71
883.176	302.22
883.555	295.2
883.934	285.84
884.313	349.03
884.693	337.33
885.072	288.18
885.451	316.26
885.83	288.18
886.209	339.67
886.587	318.61
886.966	342.01
887.345	299.88
887.724	313.92
888.102	311.58
888.481	304.56
888.859	339.67
889.238	402.86
889.616	334.99
889.994	316.26
890.373	306.9
890.751	306.9
891.129	271.79
891.507	342.01
891.885	327.97
892.263	276.48
892.641	290.52
893.019	332.65
893.396	292.86
893.774	332.65
894.152	325.63
894.529	360.74
894.907	269.45
895.284	330.31
895.662	311.58
896.039	323.29
896.416	260.09
896.794	295.2
897.171	288.18
897.548	283.5
897.925	339.67
898.302	313.92
898.679	269.45
899.056	309.24
899.433	391.16
899.809	330.31
900.186	297.54
900.563	304.56
900.939	323.29
901.316	342.01
901.692	288.18
902.069	323.29
902.445	302.22
902.821	334.99
903.197	283.5
903.574	323.29
903.95	297.54
904.326	367.76
904.702	295.2
905.078	334.99
905.454	311.58
905.829	295.2
906.205	334.99
906.581	367.76
906.956	285.84
907.332	292.86
907.707	292.86
908.083	313.92
908.458	278.82
908.833	311.58
909.209	363.08
909.584	274.14
909.959	283.5
910.334	262.43
910.709	288.18
911.084	374.78
911.459	325.63
911.834	297.54
912.209	309.24
912.583	281.16
912.958	290.52
913.333	374.78
913.707	356.05
914.082	281.16
914.456	262.43
914.83	281.16
915.205	290.52
915.579	304.56
915.953	318.61
916.327	271.79
916.701	342.01
917.075	374.78
917.449	302.22
917.823	295.2
918.197	281.16
918.571	278.82
918.944	295.2
919.318	292.86
919.692	288.18
920.065	271.79
920.438	271.79
920.812	325.63
921.185	363.08
921.558	309.24
921.932	318.61
922.305	271.79
922.678	309.24
923.051	346.69
923.424	337.33
923.797	313.92
924.17	337.33
924.542	327.97
924.915	299.88
925.288	318.61
925.661	311.58
926.033	327.97
926.406	356.05
926.778	360.74
927.15	309.24
927.523	274.14
927.895	356.05
928.267	304.56
928.639	320.95
929.011	215.62
929.383	325.63
929.755	299.88
930.127	353.71
930.499	260.09
930.871	243.71
931.242	281.16
931.614	271.79
931.986	332.65
932.357	309.24
932.729	290.52
933.1	323.29
933.471	290.52
933.843	274.14
934.214	327.97
934.585	318.61
934.956	288.18
935.327	253.07
935.698	311.58
936.069	304.56
936.44	295.2
936.811	309.24
937.182	309.24
937.552	302.22
937.923	311.58
938.293	325.63
938.664	374.78
939.034	281.16
939.405	306.9
939.775	260.09
940.145	304.56
940.516	327.97
940.886	290.52
941.256	365.42
941.626	318.61
941.996	302.22
942.366	267.11
942.735	271.79
943.105	342.01
943.475	346.69
943.845	274.14
944.214	274.14
944.584	304.56
944.953	311.58
945.323	295.2
945.692	325.63
946.061	330.31
946.43	334.99
946.8	320.95
947.169	320.95
947.538	356.05
947.907	288.18
948.276	323.29
948.645	391.16
949.013	297.54
949.382	267.11
949.751	402.86
950.119	311.58
950.488	248.39
950.857	290.52
951.225	297.54
951.593	342.01
951.962	292.86
952.33	288.18
952.698	323.29
953.066	356.05
953.434	316.26
953.802	283.5
954.17	346.69
954.538	330.31
954.906	304.56
955.274	281.16
955.642	381.8
956.009	276.48
956.377	353.71
956.744	316.26
957.112	281.16
957.479	346.69
957.847	316.26
958.214	304.56
958.581	290.52
958.948	356.05
959.315	285.84
959.683	309.24
960.05	311.58
960.416	271.79
960.783	309.24
961.15	292.86
961.517	271.79
961.884	344.35
962.25	337.33
962.617	267.11
962.983	325.63
963.35	290.52
963.716	304.56
964.082	290.52
964.449	344.35
964.815	327.97
965.181	313.92
965.547	260.09
965.913	215.62
966.279	342.01
966.645	299.88
967.011	297.54
967.377	262.43
967.742	327.97
968.108	339.67
968.474	323.29
968.839	327.97
969.205	299.88
969.57	299.88
969.935	334.99
970.301	311.58
970.666	332.65
971.031	253.07
971.396	299.88
971.761	318.61
972.126	325.63
972.491	306.9
972.856	323.29
973.221	276.48
973.586	271.79
973.95	271.79
974.315	337.33
974.679	288.18
975.044	278.82
975.408	313.92
975.773	271.79
976.137	332.65
976.501	313.92
976.866	337.33
977.23	255.41
977.594	304.56
977.958	372.44
978.322	320.95
978.686	267.11
979.049	316.26
979.413	255.41
979.777	332.65
980.141	344.35
980.504	334.99
980.868	313.92
981.231	292.86
981.595	306.9
981.958	313.92
982.321	304.56
982.684	297.54
983.048	344.35
983.411	342.01
983.774	316.26
984.137	330.31
984.5	309.24
984.862	337.33
985.225	334.99
985.588	309.24
985.951	372.44
986.313	309.24
986.676	281.16
987.038	365.42
987.401	290.52
987.763	281.16
988.125	281.16
988.488	295.2
988.85	318.61
989.212	360.74
989.574	271.79
989.936	253.07
990.298	334.99
990.66	309.24
991.022	255.41
991.383	299.88
991.745	271.79
992.107	285.84
992.468	248.39
992.83	306.9
993.191	323.29
993.553	365.42
993.914	316.26
994.275	297.54
994.637	299.88
994.998	316.26
995.359	309.24
995.72	356.05
996.081	243.71
996.442	304.56
996.803	318.61
997.163	239.03
997.524	360.74
997.885	318.61
998.245	311.58
998.606	234.35
998.966	292.86
999.327	203.92
999.687	309.24
1000.047	325.63
1000.408	323.29
1000.768	297.54
1001.128	271.79
1001.488	313.92
1001.848	281.16
1002.208	320.95
1002.568	309.24
1002.927	290.52
1003.287	344.35
1003.647	299.88
1004.007	353.71
1004.366	257.75
1004.726	309.24
1005.085	342.01
1005.444	234.35
1005.804	318.61
1006.163	344.35
1006.522	304.56
1006.881	320.95
1007.24	313.92
1007.599	253.07
1007.958	323.29
1008.317	358.39
1008.676	297.54
1009.035	306.9
1009.393	327.97
1009.752	260.09
1010.111	283.5
1010.469	248.39
1010.828	309.24
1011.186	342.01
1011.544	318.61
1011.903	260.09
1012.261	311.58
1012.619	206.26
1012.977	292.86
1013.335	351.37
1013.693	281.16
1014.051	274.14
1014.409	388.82
1014.767	330.31
1015.124	246.05
1015.482	332.65
1015.84	391.16
1016.197	288.18
1016.555	325.63
1016.912	320.95
1017.269	302.22
1017.627	318.61
1017.984	342.01
1018.341	304.56
1018.698	316.26
1019.055	353.71
1019.412	342.01
1019.769	241.37
1020.126	297.54
1020.483	337.33
1020.84	313.92
1021.196	288.18
1021.553	290.52
1021.909	402.86
1022.266	337.33
1022.622	330.31
1022.979	318.61
1023.335	327.97
1023.691	379.46
1024.047	276.48
1024.404	367.76
1024.76	285.84
1025.116	295.2
1025.472	278.82
1025.827	353.71
1026.183	288.18
1026.539	288.18
1026.895	302.22
1027.25	290.52
1027.606	290.52
1027.961	290.52
1028.317	313.92
1028.672	292.86
1029.028	309.24
1029.383	346.69
1029.738	295.2
1030.093	306.9
1030.448	349.03
1030.803	337.33
1031.158	262.43
1031.513	325.63
1031.868	342.01
1032.223	255.41
1032.577	346.69
1032.932	271.79
1033.287	304.56
1033.641	330.31
1033.996	320.95
1034.35	243.71
1034.704	323.29
1035.059	260.09
1035.413	316.26
1035.767	316.26
1036.121	316.26
