Data from Al_FLMS009871__882__16-17-03-325.txt Node

Date: Fri Mar 08 16:17:03 CST 2024
User: pe5414po
Spectrometer: FLMS00987
Trigger mode: 0
Integration Time (sec): 1.000000E-1
Scans to average: 1
Electric dark correction enabled: true
Nonlinearity correction enabled: false
Boxcar width: 0
XAxis mode: Wavelengths
Number of Pixels in Spectrum: 2048
>>>>>Begin Spectral Data<<<<<
188.938	-57.05
189.409	-57.05
189.879	-57.05
190.349	-143.65
190.819	-124.93
191.29	-115.56
191.76	-68.75
192.23	-108.54
192.7	-57.05
193.17	-80.46
193.64	-52.37
194.109	-24.28
194.579	-47.69
195.049	15.51
195.519	55.3
195.988	8.48
196.458	88.06
196.927	52.95
197.397	59.98
197.866	146.58
198.336	127.85
198.805	205.09
199.274	186.37
199.744	223.81
200.213	219.13
200.682	162.96
201.151	221.47
201.62	235.52
202.089	272.96
202.558	308.07
203.027	284.67
203.495	167.64
203.964	244.88
204.433	296.37
204.902	296.37
205.37	289.35
205.839	371.27
206.307	319.78
206.776	279.99
207.244	284.67
207.712	277.65
208.181	223.81
208.649	357.22
209.117	315.09
209.585	284.67
210.053	331.48
210.521	221.47
210.989	249.56
211.457	284.67
211.925	303.39
212.393	265.94
212.861	340.84
213.328	312.75
213.796	233.18
214.264	251.9
214.731	308.07
215.199	350.2
215.666	261.26
216.133	226.15
216.601	296.37
217.068	226.15
217.535	251.9
218.003	277.65
218.47	235.52
218.937	209.77
219.404	291.69
219.871	268.28
220.338	256.58
220.805	235.52
221.271	270.62
221.738	263.6
222.205	251.9
222.671	242.54
223.138	291.69
223.605	244.88
224.071	212.11
224.538	212.11
225.004	258.92
225.47	249.56
225.937	310.41
226.403	289.35
226.869	289.35
227.335	214.45
227.801	336.16
228.267	301.05
228.733	329.14
229.199	371.27
229.665	287.01
230.131	296.37
230.597	338.5
231.062	301.05
231.528	359.56
231.994	322.12
232.459	289.35
232.925	254.24
233.39	244.88
233.856	279.99
234.321	284.67
234.786	212.11
235.252	258.92
235.717	272.96
236.182	361.91
236.647	237.86
237.112	284.67
237.577	270.62
238.042	254.24
238.507	298.71
238.972	298.71
239.436	275.31
239.901	277.65
240.366	258.92
240.83	268.28
241.295	315.09
241.76	326.8
242.224	256.58
242.688	354.88
243.153	294.03
243.617	247.22
244.081	329.14
244.545	303.39
245.01	296.37
245.474	303.39
245.938	247.22
246.402	291.69
246.866	270.62
247.33	350.2
247.793	275.31
248.257	303.39
248.721	296.37
249.185	291.69
249.648	322.12
250.112	228.49
250.575	294.03
251.039	251.9
251.502	263.6
251.965	294.03
252.429	279.99
252.892	303.39
253.355	258.92
253.818	319.78
254.281	261.26
254.744	263.6
255.207	251.9
255.67	284.67
256.133	301.05
256.596	324.46
257.059	296.37
257.522	301.05
257.984	219.13
258.447	296.37
258.909	261.26
259.372	303.39
259.834	235.52
260.297	279.99
260.759	219.13
261.221	287.01
261.684	294.03
262.146	282.33
262.608	244.88
263.07	275.31
263.532	289.35
263.994	298.71
264.456	324.46
264.918	305.73
265.38	233.18
265.842	277.65
266.303	291.69
266.765	331.48
267.227	336.16
267.688	235.52
268.15	308.07
268.611	272.96
269.072	289.35
269.534	347.86
269.995	296.37
270.456	310.41
270.918	301.05
271.379	268.28
271.84	315.09
272.301	237.86
272.762	352.54
273.223	338.5
273.684	336.16
274.144	354.88
274.605	289.35
275.066	294.03
275.527	263.6
275.987	329.14
276.448	305.73
276.908	296.37
277.369	284.67
277.829	347.86
278.289	296.37
278.75	270.62
279.21	326.8
279.67	326.8
280.13	352.54
280.59	326.8
281.05	329.14
281.51	366.59
281.97	296.37
282.43	312.75
282.89	272.96
283.35	296.37
283.809	287.01
284.269	322.12
284.729	270.62
285.188	343.18
285.648	336.16
286.107	317.44
286.567	354.88
287.026	212.11
287.485	322.12
287.944	324.46
288.404	301.05
288.863	324.46
289.322	261.26
289.781	284.67
290.24	256.58
290.699	254.24
291.158	326.8
291.616	315.09
292.075	331.48
292.534	340.84
292.992	244.88
293.451	291.69
293.91	308.07
294.368	331.48
294.827	275.31
295.285	357.22
295.743	324.46
296.202	338.5
296.66	350.2
297.118	275.31
297.576	352.54
298.034	275.31
298.492	287.01
298.95	317.44
299.408	322.12
299.866	331.48
300.324	298.71
300.781	308.07
301.239	305.73
301.697	251.9
302.154	322.12
302.612	371.27
303.069	268.28
303.527	378.29
303.984	296.37
304.441	294.03
304.899	294.03
305.356	279.99
305.813	270.62
306.27	322.12
306.727	312.75
307.184	345.52
307.641	343.18
308.098	272.96
308.555	279.99
309.012	247.22
309.468	272.96
309.925	289.35
310.382	319.78
310.838	315.09
311.295	308.07
311.751	291.69
312.208	343.18
312.664	301.05
313.12	228.49
313.577	347.86
314.033	357.22
314.489	336.16
314.945	375.95
315.401	247.22
315.857	296.37
316.313	301.05
316.769	315.09
317.225	329.14
317.681	270.62
318.136	350.2
318.592	310.41
319.048	298.71
319.503	366.59
319.959	282.33
320.414	322.12
320.869	305.73
321.325	254.24
321.78	329.14
322.235	301.05
322.691	289.35
323.146	294.03
323.601	315.09
324.056	310.41
324.511	315.09
324.966	272.96
325.421	322.12
325.875	294.03
326.33	282.33
326.785	270.62
327.24	277.65
327.694	289.35
328.149	251.9
328.603	310.41
329.058	329.14
329.512	350.2
329.966	254.24
330.421	305.73
330.875	352.54
331.329	375.95
331.783	322.12
332.237	315.09
332.691	317.44
333.145	312.75
333.599	315.09
334.053	308.07
334.507	298.71
334.96	296.37
335.414	350.2
335.868	233.18
336.321	319.78
336.775	305.73
337.228	326.8
337.682	270.62
338.135	366.59
338.588	324.46
339.042	279.99
339.495	249.56
339.948	301.05
340.401	371.27
340.854	364.25
341.307	310.41
341.76	298.71
342.213	319.78
342.666	364.25
343.119	357.22
343.571	272.96
344.024	319.78
344.477	324.46
344.929	319.78
345.382	333.82
345.834	263.6
346.287	380.63
346.739	354.88
347.191	329.14
347.644	326.8
348.096	277.65
348.548	322.12
349	310.41
349.452	333.82
349.904	333.82
350.356	284.67
350.808	340.84
351.26	319.78
351.711	340.84
352.163	354.88
352.615	289.35
353.066	345.52
353.518	338.5
353.969	354.88
354.421	343.18
354.872	357.22
355.324	287.01
355.775	333.82
356.226	352.54
356.677	340.84
357.128	310.41
357.579	340.84
358.03	312.75
358.481	284.67
358.932	279.99
359.383	319.78
359.834	289.35
360.285	340.84
360.735	326.8
361.186	352.54
361.637	357.22
362.087	371.27
362.538	279.99
362.988	333.82
363.438	308.07
363.889	301.05
364.339	331.48
364.789	291.69
365.239	331.48
365.689	329.14
366.139	333.82
366.589	308.07
367.039	333.82
367.489	382.97
367.939	291.69
368.389	294.03
368.839	361.91
369.288	294.03
369.738	305.73
370.187	343.18
370.637	298.71
371.086	303.39
371.536	312.75
371.985	340.84
372.434	294.03
372.884	324.46
373.333	331.48
373.782	298.71
374.231	364.25
374.68	336.16
375.129	275.31
375.578	284.67
376.027	296.37
376.475	277.65
376.924	352.54
377.373	265.94
377.822	270.62
378.27	289.35
378.719	359.56
379.167	387.65
379.616	326.8
380.064	338.5
380.512	371.27
380.961	336.16
381.409	373.61
381.857	361.91
382.305	301.05
382.753	326.8
383.201	291.69
383.649	287.01
384.097	378.29
384.545	333.82
384.992	277.65
385.44	324.46
385.888	350.2
386.335	308.07
386.783	270.62
387.231	336.16
387.678	340.84
388.125	322.12
388.573	310.41
389.02	324.46
389.467	319.78
389.914	284.67
390.362	317.44
390.809	282.33
391.256	336.16
391.703	282.33
392.15	298.71
392.596	310.41
393.043	230.84
393.49	268.28
393.937	268.28
394.383	361.91
394.83	338.5
395.276	308.07
395.723	326.8
396.169	322.12
396.616	340.84
397.062	324.46
397.508	305.73
397.954	315.09
398.401	373.61
398.847	317.44
399.293	322.12
399.739	378.29
400.185	312.75
400.631	291.69
401.076	296.37
401.522	354.88
401.968	364.25
402.414	308.07
402.859	305.73
403.305	331.48
403.75	258.92
404.196	338.5
404.641	343.18
405.086	359.56
405.532	312.75
405.977	350.2
406.422	296.37
406.867	378.29
407.312	364.25
407.757	364.25
408.202	322.12
408.647	284.67
409.092	345.52
409.537	361.91
409.982	258.92
410.426	284.67
410.871	382.97
411.316	333.82
411.76	308.07
412.205	303.39
412.649	322.12
413.093	352.54
413.538	322.12
413.982	343.18
414.426	289.35
414.87	336.16
415.314	265.94
415.758	308.07
416.202	298.71
416.646	329.14
417.09	305.73
417.534	331.48
417.978	329.14
418.421	361.91
418.865	291.69
419.309	336.16
419.752	364.25
420.196	333.82
420.639	322.12
421.083	385.31
421.526	258.92
421.969	305.73
422.412	214.45
422.856	322.12
423.299	338.5
423.742	336.16
424.185	312.75
424.628	305.73
425.071	298.71
425.513	301.05
425.956	394.67
426.399	322.12
426.842	331.48
427.284	324.46
427.727	282.33
428.169	338.5
428.612	359.56
429.054	317.44
429.497	331.48
429.939	343.18
430.381	343.18
430.823	382.97
431.265	347.86
431.707	326.8
432.149	336.16
432.591	298.71
433.033	361.91
433.475	263.6
433.917	301.05
434.359	296.37
434.8	282.33
435.242	265.94
435.684	287.01
436.125	343.18
436.567	284.67
437.008	296.37
437.449	275.31
437.891	350.2
438.332	364.25
438.773	279.99
439.214	312.75
439.656	326.8
440.097	350.2
440.538	315.09
440.978	287.01
441.419	303.39
441.86	329.14
442.301	354.88
442.742	340.84
443.182	298.71
443.623	298.71
444.063	310.41
444.504	301.05
444.944	359.56
445.385	329.14
445.825	361.91
446.265	347.86
446.706	291.69
447.146	326.8
447.586	385.31
448.026	303.39
448.466	352.54
448.906	291.69
449.346	282.33
449.786	333.82
450.225	373.61
450.665	312.75
451.105	291.69
451.544	380.63
451.984	350.2
452.424	310.41
452.863	336.16
453.302	357.22
453.742	312.75
454.181	354.88
454.62	343.18
455.059	404.03
455.499	324.46
455.938	340.84
456.377	291.69
456.816	312.75
457.254	310.41
457.693	312.75
458.132	387.65
458.571	329.14
459.01	350.2
459.448	291.69
459.887	345.52
460.325	331.48
460.764	230.84
461.202	312.75
461.641	319.78
462.079	357.22
462.517	350.2
462.955	312.75
463.393	312.75
463.832	357.22
464.27	371.27
464.708	331.48
465.145	294.03
465.583	373.61
466.021	291.69
466.459	326.8
466.897	340.84
467.334	312.75
467.772	310.41
468.209	338.5
468.647	301.05
469.084	350.2
469.522	345.52
469.959	329.14
470.396	324.46
470.833	333.82
471.271	340.84
471.708	380.63
472.145	291.69
472.582	265.94
473.019	322.12
473.456	322.12
473.892	354.88
474.329	329.14
474.766	350.2
475.202	340.84
475.639	284.67
476.076	305.73
476.512	296.37
476.949	312.75
477.385	298.71
477.821	275.31
478.258	331.48
478.694	350.2
479.13	401.69
479.566	319.78
480.002	336.16
480.438	294.03
480.874	340.84
481.31	329.14
481.746	324.46
482.181	310.41
482.617	392.33
483.053	331.48
483.488	361.91
483.924	350.2
484.36	329.14
484.795	361.91
485.23	350.2
485.666	364.25
486.101	298.71
486.536	319.78
486.971	303.39
487.407	364.25
487.842	347.86
488.277	352.54
488.712	352.54
489.146	378.29
489.581	296.37
490.016	324.46
490.451	331.48
490.885	289.35
491.32	270.62
491.755	303.39
492.189	317.44
492.624	289.35
493.058	333.82
493.492	315.09
493.927	331.48
494.361	329.14
494.795	385.31
495.229	317.44
495.663	359.56
496.097	368.93
496.531	324.46
496.965	357.22
497.399	319.78
497.833	354.88
498.266	350.2
498.7	312.75
499.134	319.78
499.567	347.86
500.001	301.05
500.434	322.12
500.868	359.56
501.301	375.95
501.734	310.41
502.168	301.05
502.601	336.16
503.034	331.48
503.467	305.73
503.9	333.82
504.333	287.01
504.766	277.65
505.199	322.12
505.632	322.12
506.064	303.39
506.497	294.03
506.93	265.94
507.362	340.84
507.795	303.39
508.227	284.67
508.66	326.8
509.092	294.03
509.524	312.75
509.956	284.67
510.389	368.93
510.821	357.22
511.253	284.67
511.685	294.03
512.117	242.54
512.549	331.48
512.981	343.18
513.412	303.39
513.844	308.07
514.276	329.14
514.707	326.8
515.139	354.88
515.571	326.8
516.002	310.41
516.433	375.95
516.865	375.95
517.296	310.41
517.727	310.41
518.159	343.18
518.59	319.78
519.021	338.5
519.452	315.09
519.883	291.69
520.314	303.39
520.744	310.41
521.175	329.14
521.606	308.07
522.037	338.5
522.467	326.8
522.898	343.18
523.328	343.18
523.759	361.91
524.189	333.82
524.62	235.52
525.05	298.71
525.48	392.33
525.91	354.88
526.341	270.62
526.771	319.78
527.201	319.78
527.631	305.73
528.061	301.05
528.49	319.78
528.92	319.78
529.35	357.22
529.78	331.48
530.209	361.91
530.639	366.59
531.068	343.18
531.498	338.5
531.927	317.44
532.357	303.39
532.786	343.18
533.215	312.75
533.644	319.78
534.074	305.73
534.503	350.2
534.932	359.56
535.361	336.16
535.79	310.41
536.218	373.61
536.647	354.88
537.076	284.67
537.505	404.03
537.933	310.41
538.362	268.28
538.79	385.31
539.219	265.94
539.647	315.09
540.076	291.69
540.504	317.44
540.932	315.09
541.36	336.16
541.788	279.99
542.217	333.82
542.645	333.82
543.073	294.03
543.5	338.5
543.928	375.95
544.356	303.39
544.784	312.75
545.211	312.75
545.639	389.99
546.067	329.14
546.494	322.12
546.922	251.9
547.349	317.44
547.776	345.52
548.204	282.33
548.631	368.93
549.058	329.14
549.485	272.96
549.912	287.01
550.339	329.14
550.766	326.8
551.193	329.14
551.62	347.86
552.047	294.03
552.474	324.46
552.9	343.18
553.327	324.46
553.754	319.78
554.18	340.84
554.607	322.12
555.033	214.45
555.459	312.75
555.886	301.05
556.312	247.22
556.738	298.71
557.164	287.01
557.59	336.16
558.016	315.09
558.442	326.8
558.868	291.69
559.294	298.71
559.72	413.4
560.145	308.07
560.571	352.54
560.997	291.69
561.422	296.37
561.848	296.37
562.273	399.35
562.699	336.16
563.124	352.54
563.549	326.8
563.974	298.71
564.4	298.71
564.825	338.5
565.25	322.12
565.675	287.01
566.1	315.09
566.525	315.09
566.95	361.91
567.374	368.93
567.799	303.39
568.224	326.8
568.648	340.84
569.073	354.88
569.497	336.16
569.922	331.48
570.346	291.69
570.771	368.93
571.195	329.14
571.619	389.99
572.043	265.94
572.467	366.59
572.891	331.48
573.315	272.96
573.739	387.65
574.163	279.99
574.587	296.37
575.011	368.93
575.435	343.18
575.858	308.07
576.282	385.31
576.705	392.33
577.129	298.71
577.552	275.31
577.976	301.05
578.399	380.63
578.822	375.95
579.245	319.78
579.669	336.16
580.092	268.28
580.515	331.48
580.938	361.91
581.361	413.4
581.784	310.41
582.206	270.62
582.629	350.2
583.052	350.2
583.474	287.01
583.897	249.56
584.32	357.22
584.742	350.2
585.165	303.39
585.587	303.39
586.009	331.48
586.431	338.5
586.854	284.67
587.276	298.71
587.698	340.84
588.12	303.39
588.542	263.6
588.964	368.93
589.386	258.92
589.807	303.39
590.229	331.48
590.651	258.92
591.073	294.03
591.494	322.12
591.916	331.48
592.337	303.39
592.759	265.94
593.18	345.52
593.601	312.75
594.022	298.71
594.444	298.71
594.865	322.12
595.286	319.78
595.707	350.2
596.128	310.41
596.549	361.91
596.97	350.2
597.39	301.05
597.811	270.62
598.232	319.78
598.652	289.35
599.073	284.67
599.494	310.41
599.914	291.69
600.334	329.14
600.755	301.05
601.175	326.8
601.595	319.78
602.015	310.41
602.436	287.01
602.856	441.48
603.276	361.91
603.696	291.69
604.115	329.14
604.535	261.26
604.955	361.91
605.375	322.12
605.794	305.73
606.214	366.59
606.634	301.05
607.053	294.03
607.473	359.56
607.892	289.35
608.311	333.82
608.731	329.14
609.15	336.16
609.569	322.12
609.988	282.33
610.407	392.33
610.826	329.14
611.245	347.86
611.664	312.75
612.083	272.96
612.501	315.09
612.92	343.18
613.339	338.5
613.757	350.2
614.176	361.91
614.594	368.93
615.013	331.48
615.431	371.27
615.85	294.03
616.268	279.99
616.686	397.01
617.104	270.62
617.522	279.99
617.94	303.39
618.358	310.41
618.776	233.18
619.194	310.41
619.612	347.86
620.03	303.39
620.447	375.95
620.865	277.65
621.282	319.78
621.7	343.18
622.117	354.88
622.535	366.59
622.952	317.44
623.369	329.14
623.787	331.48
624.204	310.41
624.621	375.95
625.038	357.22
625.455	324.46
625.872	364.25
626.289	371.27
626.706	375.95
627.123	301.05
627.539	317.44
627.956	375.95
628.373	294.03
628.789	301.05
629.206	268.28
629.622	272.96
630.038	277.65
630.455	350.2
630.871	258.92
631.287	322.12
631.703	310.41
632.12	359.56
632.536	336.16
632.952	294.03
633.368	411.06
633.783	366.59
634.199	303.39
634.615	305.73
635.031	298.71
635.446	296.37
635.862	315.09
636.277	345.52
636.693	284.67
637.108	310.41
637.524	415.74
637.939	345.52
638.354	361.91
638.77	303.39
639.185	380.63
639.6	364.25
640.015	305.73
640.43	382.97
640.845	368.93
641.259	298.71
641.674	380.63
642.089	331.48
642.504	399.35
642.918	354.88
643.333	272.96
643.747	303.39
644.162	345.52
644.576	242.54
644.991	347.86
645.405	338.5
645.819	317.44
646.233	305.73
646.647	408.72
647.061	305.73
647.475	324.46
647.889	329.14
648.303	359.56
648.717	340.84
649.131	345.52
649.545	312.75
649.958	371.27
650.372	378.29
650.785	275.31
651.199	338.5
651.612	331.48
652.026	312.75
652.439	275.31
652.852	289.35
653.266	357.22
653.679	279.99
654.092	256.58
654.505	261.26
654.918	329.14
655.331	315.09
655.744	333.82
656.156	350.2
656.569	301.05
656.982	324.46
657.394	317.44
657.807	317.44
658.22	382.97
658.632	244.88
659.044	308.07
659.457	315.09
659.869	301.05
660.281	296.37
660.693	272.96
661.106	357.22
661.518	350.2
661.93	305.73
662.342	397.01
662.754	352.54
663.165	343.18
663.577	326.8
663.989	242.54
664.401	364.25
664.812	312.75
665.224	303.39
665.635	305.73
666.047	347.86
666.458	315.09
666.869	382.97
667.281	340.84
667.692	289.35
668.103	329.14
668.514	312.75
668.925	263.6
669.336	350.2
669.747	296.37
670.158	357.22
670.569	289.35
670.979	277.65
671.39	312.75
671.801	308.07
672.211	272.96
672.622	324.46
673.032	265.94
673.443	303.39
673.853	315.09
674.263	315.09
674.674	294.03
675.084	322.12
675.494	326.8
675.904	331.48
676.314	378.29
676.724	294.03
677.134	345.52
677.544	319.78
677.953	354.88
678.363	368.93
678.773	308.07
679.182	375.95
679.592	333.82
680.001	282.33
680.411	322.12
680.82	338.5
681.23	352.54
681.639	326.8
682.048	380.63
682.457	331.48
682.866	272.96
683.275	261.26
683.684	394.67
684.093	326.8
684.502	340.84
684.911	338.5
685.32	272.96
685.728	287.01
686.137	315.09
686.546	378.29
686.954	343.18
687.363	352.54
687.771	345.52
688.179	382.97
688.588	289.35
688.996	354.88
689.404	303.39
689.812	343.18
690.22	333.82
690.628	352.54
691.036	333.82
691.444	270.62
691.852	326.8
692.26	359.56
692.667	303.39
693.075	326.8
693.483	361.91
693.89	263.6
694.298	336.16
694.705	308.07
695.112	380.63
695.52	303.39
695.927	319.78
696.334	375.95
696.741	296.37
697.148	331.48
697.555	322.12
697.962	366.59
698.369	315.09
698.776	331.48
699.183	247.22
699.59	289.35
699.996	272.96
700.403	322.12
700.81	368.93
701.216	317.44
701.623	305.73
702.029	319.78
702.435	261.26
702.842	331.48
703.248	329.14
703.654	312.75
704.06	258.92
704.466	287.01
704.872	279.99
705.278	352.54
705.684	308.07
706.09	322.12
706.496	368.93
706.901	315.09
707.307	326.8
707.712	338.5
708.118	368.93
708.523	387.65
708.929	247.22
709.334	272.96
709.74	380.63
710.145	345.52
710.55	326.8
710.955	303.39
711.36	310.41
711.765	317.44
712.17	329.14
712.575	333.82
712.98	897.89
713.385	371.27
713.789	333.82
714.194	329.14
714.599	322.12
715.003	315.09
715.408	354.88
715.812	312.75
716.217	361.91
716.621	331.48
717.025	382.97
717.429	305.73
717.833	350.2
718.238	331.48
718.642	270.62
719.046	315.09
719.449	354.88
719.853	251.9
720.257	373.61
720.661	282.33
721.065	359.56
721.468	333.82
721.872	329.14
722.275	221.47
722.679	291.69
723.082	336.16
723.485	364.25
723.889	329.14
724.292	251.9
724.695	301.05
725.098	301.05
725.501	287.01
725.904	333.82
726.307	366.59
726.71	310.41
727.113	333.82
727.516	294.03
727.918	336.16
728.321	296.37
728.724	347.86
729.126	331.48
729.529	289.35
729.931	305.73
730.333	331.48
730.736	301.05
731.138	345.52
731.54	315.09
731.942	317.44
732.344	237.86
732.746	329.14
733.148	272.96
733.55	242.54
733.952	394.67
734.354	312.75
734.756	258.92
735.157	329.14
735.559	343.18
735.96	394.67
736.362	322.12
736.763	336.16
737.165	366.59
737.566	265.94
737.967	315.09
738.368	294.03
738.77	287.01
739.171	338.5
739.572	308.07
739.973	284.67
740.374	392.33
740.774	308.07
741.175	399.35
741.576	249.56
741.977	270.62
742.377	277.65
742.778	282.33
743.178	294.03
743.579	322.12
743.979	366.59
744.379	308.07
744.78	305.73
745.18	322.12
745.58	303.39
745.98	347.86
746.38	310.41
746.78	378.29
747.18	275.31
747.58	336.16
747.98	305.73
748.38	333.82
748.779	326.8
749.179	317.44
749.578	319.78
749.978	261.26
750.377	340.84
750.777	291.69
751.176	375.95
751.575	315.09
751.975	315.09
752.374	308.07
752.773	394.67
753.172	240.2
753.571	317.44
753.97	256.58
754.369	287.01
754.768	333.82
755.166	368.93
755.565	272.96
755.964	322.12
756.362	364.25
756.761	326.8
757.159	261.26
757.558	319.78
757.956	378.29
758.354	296.37
758.753	263.6
759.151	324.46
759.549	301.05
759.947	364.25
760.345	317.44
760.743	361.91
761.141	336.16
761.539	408.72
761.936	291.69
762.334	310.41
762.732	294.03
763.129	301.05
763.527	331.48
763.924	301.05
764.322	324.46
764.719	336.16
765.117	296.37
765.514	317.44
765.911	315.09
766.308	345.52
766.705	371.27
767.102	397.01
767.499	329.14
767.896	317.44
768.293	333.82
768.69	317.44
769.086	322.12
769.483	296.37
769.88	319.78
770.276	275.31
770.673	277.65
771.069	308.07
771.466	354.88
771.862	338.5
772.258	265.94
772.654	350.2
773.05	361.91
773.447	333.82
773.843	333.82
774.239	284.67
774.634	340.84
775.03	331.48
775.426	312.75
775.822	354.88
776.218	261.26
776.613	322.12
777.009	289.35
777.404	289.35
777.8	343.18
778.195	366.59
778.59	326.8
778.986	301.05
779.381	254.24
779.776	336.16
780.171	343.18
780.566	324.46
780.961	287.01
781.356	287.01
781.751	287.01
782.146	298.71
782.54	317.44
782.935	279.99
783.33	317.44
783.724	279.99
784.119	291.69
784.513	268.28
784.908	343.18
785.302	319.78
785.696	310.41
786.09	319.78
786.485	364.25
786.879	317.44
787.273	282.33
787.667	343.18
788.061	338.5
788.454	291.69
788.848	324.46
789.242	361.91
789.636	312.75
790.029	319.78
790.423	282.33
790.816	312.75
791.21	312.75
791.603	303.39
791.997	282.33
792.39	301.05
792.783	317.44
793.176	237.86
793.569	322.12
793.962	263.6
794.355	296.37
794.748	333.82
795.141	364.25
795.534	317.44
795.927	347.86
796.319	331.48
796.712	279.99
797.105	301.05
797.497	338.5
797.89	399.35
798.282	237.86
798.674	333.82
799.067	333.82
799.459	272.96
799.851	247.22
800.243	303.39
800.635	331.48
801.027	322.12
801.419	249.56
801.811	312.75
802.203	312.75
802.594	298.71
802.986	354.88
803.378	336.16
803.769	317.44
804.161	265.94
804.552	296.37
804.944	296.37
805.335	319.78
805.726	310.41
806.118	294.03
806.509	368.93
806.9	312.75
807.291	315.09
807.682	310.41
808.073	294.03
808.464	336.16
808.855	279.99
809.245	284.67
809.636	319.78
810.027	308.07
810.417	357.22
810.808	394.67
811.198	322.12
811.589	268.28
811.979	315.09
812.369	319.78
812.759	305.73
813.15	322.12
813.54	312.75
813.93	322.12
814.32	315.09
814.71	336.16
815.1	368.93
815.489	340.84
815.879	326.8
816.269	322.12
816.658	319.78
817.048	378.29
817.438	336.16
817.827	310.41
818.216	298.71
818.606	347.86
818.995	312.75
819.384	301.05
819.773	296.37
820.163	324.46
820.552	352.54
820.941	312.75
821.33	329.14
821.718	317.44
822.107	331.48
822.496	289.35
822.885	308.07
823.273	287.01
823.662	347.86
824.05	270.62
824.439	301.05
824.827	375.95
825.216	294.03
825.604	333.82
825.992	277.65
826.38	310.41
826.768	305.73
827.156	289.35
827.544	387.65
827.932	354.88
828.32	324.46
828.708	336.16
829.096	333.82
829.483	270.62
829.871	352.54
830.259	359.56
830.646	385.31
831.034	336.16
831.421	319.78
831.808	289.35
832.196	345.52
832.583	338.5
832.97	268.28
833.357	329.14
833.744	352.54
834.131	296.37
834.518	277.65
834.905	350.2
835.292	319.78
835.678	331.48
836.065	303.39
836.452	303.39
836.838	359.56
837.225	324.46
837.611	350.2
837.998	303.39
838.384	350.2
838.77	298.71
839.157	336.16
839.543	322.12
839.929	237.86
840.315	336.16
840.701	357.22
841.087	254.24
841.473	265.94
841.858	326.8
842.244	333.82
842.63	301.05
843.015	315.09
843.401	345.52
843.787	333.82
844.172	251.9
844.557	347.86
844.943	378.29
845.328	301.05
845.713	298.71
846.098	357.22
846.483	282.33
846.868	279.99
847.253	287.01
847.638	305.73
848.023	319.78
848.408	371.27
848.793	272.96
849.177	284.67
849.562	331.48
849.947	343.18
850.331	270.62
850.715	315.09
851.1	340.84
851.484	350.2
851.868	275.31
852.253	324.46
852.637	331.48
853.021	326.8
853.405	326.8
853.789	308.07
854.173	392.33
854.557	294.03
854.94	291.69
855.324	338.5
855.708	333.82
856.091	287.01
856.475	214.45
856.858	244.88
857.242	268.28
857.625	294.03
858.009	289.35
858.392	287.01
858.775	315.09
859.158	326.8
859.541	326.8
859.924	268.28
860.307	354.88
860.69	261.26
861.073	319.78
861.456	324.46
861.838	368.93
862.221	380.63
862.604	301.05
862.986	324.46
863.369	308.07
863.751	317.44
864.133	317.44
864.516	277.65
864.898	270.62
865.28	361.91
865.662	282.33
866.044	296.37
866.426	279.99
866.808	282.33
867.19	336.16
867.572	319.78
867.954	312.75
868.336	263.6
868.717	301.05
869.099	301.05
869.48	352.54
869.862	322.12
870.243	315.09
870.625	277.65
871.006	287.01
871.387	317.44
871.768	368.93
872.149	317.44
872.53	340.84
872.911	322.12
873.292	272.96
873.673	322.12
874.054	296.37
874.435	322.12
874.815	340.84
875.196	347.86
875.577	322.12
875.957	336.16
876.338	322.12
876.718	373.61
877.098	319.78
877.479	322.12
877.859	305.73
878.239	322.12
878.619	324.46
878.999	319.78
879.379	354.88
879.759	350.2
880.139	364.25
880.519	294.03
880.898	305.73
881.278	319.78
881.658	261.26
882.037	263.6
882.417	298.71
882.796	322.12
883.176	272.96
883.555	296.37
883.934	357.22
884.313	352.54
884.693	312.75
885.072	258.92
885.451	382.97
885.83	291.69
886.209	303.39
886.587	331.48
886.966	308.07
887.345	333.82
887.724	333.82
888.102	364.25
888.481	345.52
888.859	371.27
889.238	317.44
889.616	298.71
889.994	296.37
890.373	343.18
890.751	354.88
891.129	287.01
891.507	329.14
891.885	284.67
892.263	303.39
892.641	315.09
893.019	317.44
893.396	305.73
893.774	331.48
894.152	312.75
894.529	317.44
894.907	389.99
895.284	251.9
895.662	317.44
896.039	345.52
896.416	357.22
896.794	322.12
897.171	263.6
897.548	301.05
897.925	272.96
898.302	301.05
898.679	294.03
899.056	319.78
899.433	310.41
899.809	258.92
900.186	305.73
900.563	317.44
900.939	333.82
901.316	389.99
901.692	317.44
902.069	298.71
902.445	343.18
902.821	368.93
903.197	317.44
903.574	296.37
903.95	301.05
904.326	312.75
904.702	261.26
905.078	315.09
905.454	298.71
905.829	301.05
906.205	294.03
906.581	329.14
906.956	331.48
907.332	329.14
907.707	329.14
908.083	289.35
908.458	230.84
908.833	270.62
909.209	441.48
909.584	338.5
909.959	375.95
910.334	322.12
910.709	301.05
911.084	305.73
911.459	282.33
911.834	291.69
912.209	340.84
912.583	455.53
912.958	350.2
913.333	305.73
913.707	324.46
914.082	317.44
914.456	298.71
914.83	364.25
915.205	322.12
915.579	312.75
915.953	263.6
916.327	305.73
916.701	268.28
917.075	289.35
917.449	289.35
917.823	305.73
918.197	298.71
918.571	312.75
918.944	338.5
919.318	305.73
919.692	387.65
920.065	338.5
920.438	279.99
920.812	296.37
921.185	312.75
921.558	308.07
921.932	291.69
922.305	305.73
922.678	322.12
923.051	284.67
923.424	352.54
923.797	258.92
924.17	242.54
924.542	270.62
924.915	336.16
925.288	308.07
925.661	265.94
926.033	291.69
926.406	301.05
926.778	371.27
927.15	287.01
927.523	350.2
927.895	282.33
928.267	301.05
928.639	284.67
929.011	317.44
929.383	322.12
929.755	310.41
930.127	277.65
930.499	317.44
930.871	305.73
931.242	303.39
931.614	310.41
931.986	336.16
932.357	343.18
932.729	312.75
933.1	294.03
933.471	263.6
933.843	352.54
934.214	270.62
934.585	279.99
934.956	298.71
935.327	389.99
935.698	368.93
936.069	296.37
936.44	296.37
936.811	357.22
937.182	298.71
937.552	322.12
937.923	312.75
938.293	368.93
938.664	333.82
939.034	324.46
939.405	373.61
939.775	308.07
940.145	312.75
940.516	336.16
940.886	303.39
941.256	324.46
941.626	418.08
941.996	308.07
942.366	277.65
942.735	308.07
943.105	312.75
943.475	294.03
943.845	352.54
944.214	294.03
944.584	282.33
944.953	387.65
945.323	284.67
945.692	373.61
946.061	303.39
946.43	296.37
946.8	308.07
947.169	205.09
947.538	277.65
947.907	350.2
948.276	326.8
948.645	319.78
949.013	324.46
949.382	317.44
949.751	294.03
950.119	324.46
950.488	338.5
950.857	275.31
951.225	240.2
951.593	223.81
951.962	303.39
952.33	338.5
952.698	303.39
953.066	326.8
953.434	282.33
953.802	317.44
954.17	244.88
954.538	279.99
954.906	347.86
955.274	324.46
955.642	319.78
956.009	352.54
956.377	263.6
956.744	287.01
957.112	317.44
957.479	319.78
957.847	368.93
958.214	291.69
958.581	308.07
958.948	282.33
959.315	347.86
959.683	364.25
960.05	338.5
960.416	240.2
960.783	287.01
961.15	268.28
961.517	310.41
961.884	371.27
962.25	289.35
962.617	298.71
962.983	345.52
963.35	389.99
963.716	345.52
964.082	305.73
964.449	361.91
964.815	371.27
965.181	350.2
965.547	282.33
965.913	345.52
966.279	326.8
966.645	251.9
967.011	303.39
967.377	329.14
967.742	282.33
968.108	338.5
968.474	333.82
968.839	350.2
969.205	305.73
969.57	352.54
969.935	272.96
970.301	312.75
970.666	308.07
971.031	294.03
971.396	322.12
971.761	272.96
972.126	303.39
972.491	310.41
972.856	275.31
973.221	336.16
973.586	268.28
973.95	331.48
974.315	333.82
974.679	345.52
975.044	315.09
975.408	326.8
975.773	382.97
976.137	331.48
976.501	324.46
976.866	284.67
977.23	343.18
977.594	254.24
977.958	350.2
978.322	364.25
978.686	256.58
979.049	359.56
979.413	282.33
979.777	289.35
980.141	291.69
980.504	284.67
980.868	331.48
981.231	343.18
981.595	343.18
981.958	272.96
982.321	322.12
982.684	303.39
983.048	233.18
983.411	331.48
983.774	347.86
984.137	354.88
984.5	312.75
984.862	352.54
985.225	345.52
985.588	277.65
985.951	291.69
986.313	331.48
986.676	209.77
987.038	254.24
987.401	317.44
987.763	343.18
988.125	294.03
988.488	397.01
988.85	343.18
989.212	343.18
989.574	326.8
989.936	284.67
990.298	289.35
990.66	298.71
991.022	242.54
991.383	319.78
991.745	312.75
992.107	319.78
992.468	291.69
992.83	287.01
993.191	357.22
993.553	336.16
993.914	371.27
994.275	324.46
994.637	308.07
994.998	329.14
995.359	380.63
995.72	279.99
996.081	284.67
996.442	333.82
996.803	366.59
997.163	354.88
997.524	268.28
997.885	317.44
998.245	359.56
998.606	357.22
998.966	315.09
999.327	289.35
999.687	287.01
1000.047	308.07
1000.408	272.96
1000.768	317.44
1001.128	347.86
1001.488	308.07
1001.848	319.78
1002.208	343.18
1002.568	338.5
1002.927	277.65
1003.287	244.88
1003.647	301.05
1004.007	359.56
1004.366	310.41
1004.726	298.71
1005.085	277.65
1005.444	329.14
1005.804	317.44
1006.163	333.82
1006.522	268.28
1006.881	350.2
1007.24	352.54
1007.599	296.37
1007.958	331.48
1008.317	336.16
1008.676	322.12
1009.035	336.16
1009.393	364.25
1009.752	345.52
1010.111	296.37
1010.469	317.44
1010.828	315.09
1011.186	352.54
1011.544	329.14
1011.903	317.44
1012.261	329.14
1012.619	261.26
1012.977	270.62
1013.335	301.05
1013.693	347.86
1014.051	319.78
1014.409	315.09
1014.767	324.46
1015.124	394.67
1015.482	357.22
1015.84	301.05
1016.197	294.03
1016.555	336.16
1016.912	305.73
1017.269	301.05
1017.627	324.46
1017.984	265.94
1018.341	282.33
1018.698	340.84
1019.055	338.5
1019.412	279.99
1019.769	340.84
1020.126	305.73
1020.483	364.25
1020.84	375.95
1021.196	244.88
1021.553	308.07
1021.909	289.35
1022.266	315.09
1022.622	315.09
1022.979	366.59
1023.335	333.82
1023.691	361.91
1024.047	265.94
1024.404	326.8
1024.76	287.01
1025.116	340.84
1025.472	359.56
1025.827	373.61
1026.183	282.33
1026.539	270.62
1026.895	359.56
1027.25	345.52
1027.606	301.05
1027.961	324.46
1028.317	319.78
1028.672	284.67
1029.028	305.73
1029.383	338.5
1029.738	317.44
1030.093	361.91
1030.448	284.67
1030.803	382.97
1031.158	254.24
1031.513	319.78
1031.868	294.03
1032.223	331.48
1032.577	310.41
1032.932	375.95
1033.287	277.65
1033.641	294.03
1033.996	331.48
1034.35	324.46
1034.704	352.54
1035.059	289.35
1035.413	289.35
1035.767	289.35
1036.121	289.35
