Data from Al_FLMS009871__884__16-17-03-525.txt Node

Date: Fri Mar 08 16:17:03 CST 2024
User: pe5414po
Spectrometer: FLMS00987
Trigger mode: 0
Integration Time (sec): 1.000000E-1
Scans to average: 1
Electric dark correction enabled: true
Nonlinearity correction enabled: false
Boxcar width: 0
XAxis mode: Wavelengths
Number of Pixels in Spectrum: 2048
>>>>>Begin Spectral Data<<<<<
188.938	-37.45
189.409	-37.45
189.879	-37.45
190.349	-58.51
190.819	-49.15
191.29	-126.39
191.76	-147.45
192.23	-159.16
192.7	-60.85
193.17	-51.49
193.64	-58.51
194.109	-35.11
194.579	37.45
195.049	-25.75
195.519	49.15
195.988	93.62
196.458	95.96
196.927	79.58
197.397	67.88
197.866	142.77
198.336	98.3
198.805	142.77
199.274	170.86
199.744	231.71
200.213	292.57
200.682	297.25
201.151	273.84
201.62	320.65
202.089	379.17
202.558	372.15
203.027	355.76
203.495	400.23
203.964	400.23
204.433	400.23
204.902	369.8
205.37	416.62
205.839	430.66
206.307	430.66
206.776	440.02
207.244	400.23
207.712	470.45
208.181	524.28
208.649	449.38
209.117	505.56
209.585	514.92
210.053	573.43
210.521	561.73
210.989	669.39
211.457	622.58
211.925	805.14
212.393	798.12
212.861	847.27
213.328	620.24
213.796	620.24
214.264	571.09
214.731	643.65
215.199	470.45
215.666	545.34
216.133	653.01
216.601	763.01
217.068	847.27
217.535	915.15
218.003	994.73
218.47	1273.25
218.937	1177.29
219.404	1004.09
219.871	992.39
220.338	1022.81
220.805	945.58
221.271	894.08
221.738	821.53
222.205	692.8
222.671	830.89
223.138	936.21
223.605	1013.45
224.071	1020.47
224.538	884.72
225.004	781.74
225.47	880.04
225.937	1050.9
226.403	1104.73
226.869	905.79
227.335	671.73
227.801	608.54
228.267	587.47
228.733	669.39
229.199	599.18
229.665	524.28
230.131	552.37
230.597	538.32
231.062	629.6
231.528	603.86
231.994	631.94
232.459	524.28
232.925	573.43
233.39	587.47
233.856	489.17
234.321	596.84
234.786	660.03
235.252	1093.03
235.717	1582.2
236.182	2169.68
236.647	2363.94
237.112	1935.62
237.577	1390.28
238.042	964.3
238.507	758.33
238.972	648.33
239.436	683.44
239.901	699.82
240.366	697.48
240.83	706.84
241.295	601.52
241.76	585.13
242.224	524.28
242.688	629.6
243.153	521.94
243.617	582.79
244.081	573.43
244.545	500.87
245.01	526.62
245.474	547.69
245.938	578.11
246.402	648.33
246.866	667.05
247.33	727.91
247.793	676.41
248.257	631.94
248.721	512.58
249.185	568.75
249.648	627.26
250.112	671.73
250.575	671.73
251.039	688.12
251.502	753.65
251.965	786.42
252.429	781.74
252.892	636.63
253.355	582.79
253.818	564.07
254.281	636.63
254.744	638.97
255.207	786.42
255.67	1055.58
256.133	1425.39
256.596	1872.43
257.059	2057.33
257.522	1788.17
257.984	1207.72
258.447	924.51
258.909	926.85
259.372	1043.88
259.834	950.26
260.297	936.21
260.759	805.14
261.221	884.72
261.684	1004.09
262.146	1504.96
262.608	1769.44
263.07	1671.14
263.532	1275.59
263.994	858.98
264.456	936.21
264.918	898.77
265.38	1078.99
265.842	971.32
266.303	814.51
266.765	599.18
267.227	514.92
267.688	526.62
268.15	561.73
268.611	599.18
269.072	608.54
269.534	594.5
269.995	610.88
270.456	589.81
270.918	594.5
271.379	580.45
271.84	582.79
272.301	550.03
272.762	482.15
273.223	503.22
273.684	622.58
274.144	681.1
274.605	631.94
275.066	732.59
275.527	734.93
275.987	755.99
276.448	617.9
276.908	713.86
277.369	887.06
277.829	1322.4
278.289	2593.31
278.75	4400.21
279.21	6050.28
279.67	6024.54
280.13	4599.15
280.59	3295.47
281.05	2874.18
281.51	2333.51
281.97	1584.54
282.43	1013.45
282.89	706.84
283.35	688.12
283.809	648.33
284.269	741.95
284.729	947.92
285.188	924.51
285.648	770.04
286.107	526.62
286.567	610.88
287.026	606.2
287.485	627.26
287.944	648.33
288.404	648.33
288.863	643.65
289.322	636.63
289.781	613.22
290.24	638.97
290.699	582.79
291.158	678.76
291.616	617.9
292.075	713.86
292.534	751.31
292.992	915.15
293.451	933.87
293.91	851.95
294.368	793.44
294.827	634.29
295.285	519.6
295.743	496.19
296.202	486.83
296.66	491.51
297.118	500.87
297.576	545.34
298.034	496.19
298.492	500.87
298.95	475.13
299.408	433
299.866	484.49
300.324	482.15
300.781	414.27
301.239	496.19
301.697	451.72
302.154	486.83
302.612	456.4
303.069	531.3
303.527	510.24
303.984	620.24
304.441	636.63
304.899	805.14
305.356	800.46
305.813	812.17
306.27	840.25
306.727	1114.09
307.184	1643.06
307.641	2960.78
308.098	4432.97
308.555	5495.58
309.012	5640.69
309.468	4805.12
309.925	2455.22
310.382	910.47
310.838	589.81
311.295	559.39
311.751	559.39
312.208	507.9
312.664	475.13
313.12	538.32
313.577	491.51
314.033	575.77
314.489	531.3
314.945	472.79
315.401	550.03
315.857	578.11
316.313	568.75
316.769	472.79
317.225	451.72
317.681	454.06
318.136	407.25
318.592	472.79
319.048	437.68
319.503	381.51
319.959	376.83
320.414	418.96
320.869	386.19
321.325	425.98
321.78	425.98
322.235	423.64
322.691	449.38
323.146	433
323.601	550.03
324.056	657.69
324.511	919.83
324.966	889.4
325.421	760.67
325.875	533.64
326.33	573.43
326.785	610.88
327.24	847.27
327.694	919.83
328.149	786.42
328.603	653.01
329.058	507.9
329.512	526.62
329.966	475.13
330.421	496.19
330.875	472.79
331.329	484.49
331.783	461.09
332.237	477.47
332.691	547.69
333.145	550.03
333.599	585.13
334.053	554.71
334.507	561.73
334.96	634.29
335.414	486.83
335.868	676.41
336.321	685.78
336.775	664.71
337.228	678.76
337.682	599.18
338.135	629.6
338.588	573.43
339.042	561.73
339.495	545.34
339.948	599.18
340.401	573.43
340.854	596.84
341.307	674.07
341.76	489.17
342.213	547.69
342.666	535.98
343.119	557.05
343.571	613.22
344.024	643.65
344.477	681.1
344.929	751.31
345.382	732.59
345.834	713.86
346.287	641.31
346.739	627.26
347.191	531.3
347.644	535.98
348.096	545.34
348.548	521.94
349	571.09
349.452	524.28
349.904	610.88
350.356	582.79
350.808	716.2
351.26	674.07
351.711	627.26
352.163	564.07
352.615	723.23
353.066	662.37
353.518	655.35
353.969	575.77
354.421	489.17
354.872	587.47
355.324	566.41
355.775	613.22
356.226	634.29
356.677	798.12
357.128	1156.22
357.579	1579.86
358.03	2427.14
358.481	3847.84
358.932	4299.56
359.383	3325.9
359.834	2513.74
360.285	2455.22
360.735	2298.41
361.186	1884.13
361.637	1509.65
362.087	933.87
362.538	713.86
362.988	550.03
363.438	479.81
363.889	550.03
364.339	641.31
364.789	596.84
365.239	561.73
365.689	568.75
366.139	561.73
366.589	475.13
367.039	468.11
367.489	552.37
367.939	524.28
368.389	519.6
368.839	547.69
369.288	468.11
369.738	557.05
370.187	683.44
370.637	868.34
371.086	821.53
371.536	908.13
371.985	760.67
372.434	664.71
372.884	566.41
373.333	613.22
373.782	585.13
374.231	601.52
374.68	594.5
375.129	531.3
375.578	489.17
376.027	512.58
376.475	512.58
376.924	465.77
377.373	477.47
377.822	418.96
378.27	491.51
378.719	444.7
379.167	421.3
379.616	514.92
380.064	528.96
380.512	512.58
380.961	545.34
381.409	543
381.857	622.58
382.305	596.84
382.753	650.67
383.201	765.36
383.649	837.91
384.097	784.08
384.545	748.97
384.992	657.69
385.44	627.26
385.888	554.71
386.335	589.81
386.783	650.67
387.231	606.2
387.678	655.35
388.125	723.23
388.573	603.86
389.02	550.03
389.467	566.41
389.914	571.09
390.362	624.92
390.809	601.52
391.256	575.77
391.703	657.69
392.15	575.77
392.596	725.57
393.043	985.37
393.49	1584.54
393.937	2679.91
394.383	4098.28
394.83	4762.99
395.276	3789.33
395.723	3775.28
396.169	5638.35
396.616	6202.42
397.062	3758.9
397.508	1657.1
397.954	849.61
398.401	620.24
398.847	606.2
399.293	596.84
399.739	725.57
400.185	702.16
400.631	493.85
401.076	491.51
401.522	557.05
401.968	521.94
402.414	496.19
402.859	589.81
403.305	624.92
403.75	709.18
404.196	697.48
404.641	660.03
405.086	603.86
405.532	622.58
405.977	781.74
406.422	882.38
406.867	671.73
407.312	657.69
407.757	592.16
408.202	624.92
408.647	568.75
409.092	617.9
409.537	540.66
409.982	643.65
410.426	608.54
410.871	580.45
411.316	566.41
411.76	580.45
412.205	613.22
412.649	669.39
413.093	645.99
413.538	690.46
413.982	678.76
414.426	638.97
414.87	770.04
415.314	842.59
415.758	814.51
416.202	774.72
416.646	732.59
417.09	718.54
417.534	748.97
417.978	683.44
418.421	631.94
418.865	667.05
419.309	589.81
419.752	571.09
420.196	571.09
420.639	521.94
421.083	545.34
421.526	505.56
421.969	557.05
422.412	552.37
422.856	552.37
423.299	610.88
423.742	580.45
424.185	582.79
424.628	613.22
425.071	510.24
425.513	470.45
425.956	472.79
426.399	526.62
426.842	493.85
427.284	540.66
427.727	517.26
428.169	489.17
428.612	451.72
429.054	468.11
429.497	454.06
429.939	414.27
430.381	390.87
430.823	461.09
431.265	449.38
431.707	461.09
432.149	479.81
432.591	486.83
433.033	521.94
433.475	421.3
433.917	489.17
434.359	559.39
434.8	528.96
435.242	486.83
435.684	580.45
436.125	456.4
436.567	491.51
437.008	479.81
437.449	505.56
437.891	416.62
438.332	500.87
438.773	461.09
439.214	447.04
439.656	421.3
440.097	503.22
440.538	437.68
440.978	470.45
441.419	566.41
441.86	571.09
442.301	486.83
442.742	585.13
443.182	610.88
443.623	554.71
444.063	533.64
444.504	650.67
444.944	648.33
445.385	634.29
445.825	713.86
446.265	828.55
446.706	788.76
447.146	971.32
447.586	1188.99
448.026	1411.34
448.466	1481.56
448.906	1350.49
449.346	1062.6
449.786	903.45
450.225	833.23
450.665	929.19
451.105	1022.81
451.544	1308.36
451.984	1490.92
452.424	1413.68
452.863	1500.28
453.302	1856.04
453.742	1867.75
454.181	1373.89
454.62	861.32
455.059	737.27
455.499	578.11
455.938	596.84
456.377	482.15
456.816	500.87
457.254	510.24
457.693	500.87
458.132	425.98
458.571	489.17
459.01	498.53
459.448	475.13
459.887	451.72
460.325	512.58
460.764	456.4
461.202	465.77
461.641	496.19
462.079	489.17
462.517	510.24
462.955	561.73
463.393	528.96
463.832	538.32
464.27	610.88
464.708	601.52
465.145	580.45
465.583	653.01
466.021	667.05
466.459	695.14
466.897	947.92
467.334	861.32
467.772	580.45
468.209	559.39
468.647	531.3
469.084	507.9
469.522	505.56
469.959	538.32
470.396	589.81
470.833	557.05
471.271	559.39
471.708	472.79
472.145	507.9
472.582	468.11
473.019	493.85
473.456	468.11
473.892	442.36
474.329	456.4
474.766	472.79
475.202	444.7
475.639	458.74
476.076	489.17
476.512	500.87
476.949	442.36
477.385	442.36
477.821	416.62
478.258	428.32
478.694	507.9
479.13	400.23
479.566	517.26
480.002	433
480.438	397.89
480.874	545.34
481.31	528.96
481.746	503.22
482.181	493.85
482.617	526.62
483.053	554.71
483.488	470.45
483.924	561.73
484.36	519.6
484.795	587.47
485.23	615.56
485.666	671.73
486.101	720.88
486.536	685.78
486.971	683.44
487.407	683.44
487.842	585.13
488.277	617.9
488.712	601.52
489.146	538.32
489.581	571.09
490.016	610.88
490.451	580.45
490.885	484.49
491.32	535.98
491.755	528.96
492.189	568.75
492.624	500.87
493.058	528.96
493.492	451.72
493.927	512.58
494.361	510.24
494.795	475.13
495.229	517.26
495.663	475.13
496.097	538.32
496.531	493.85
496.965	496.19
497.399	409.59
497.833	458.74
498.266	470.45
498.7	421.3
499.134	543
499.567	599.18
500.001	688.12
500.434	830.89
500.868	1011.11
501.301	940.9
501.734	786.42
502.168	671.73
502.601	599.18
503.034	500.87
503.467	507.9
503.9	468.11
504.333	500.87
504.766	547.69
505.199	554.71
505.632	592.16
506.064	510.24
506.497	540.66
506.93	451.72
507.362	503.22
507.795	498.53
508.227	484.49
508.66	533.64
509.092	564.07
509.524	500.87
509.956	475.13
510.389	552.37
510.821	514.92
511.253	493.85
511.685	493.85
512.117	594.5
512.549	528.96
512.981	566.41
513.412	477.47
513.844	561.73
514.276	521.94
514.707	545.34
515.139	521.94
515.571	627.26
516.002	594.5
516.433	589.81
516.865	592.16
517.296	688.12
517.727	631.94
518.159	662.37
518.59	720.88
519.021	713.86
519.452	681.1
519.883	564.07
520.314	557.05
520.744	608.54
521.175	568.75
521.606	575.77
522.037	592.16
522.467	620.24
522.898	613.22
523.328	613.22
523.759	564.07
524.189	573.43
524.62	643.65
525.05	568.75
525.48	568.75
525.91	540.66
526.341	667.05
526.771	608.54
527.201	641.31
527.631	772.38
528.061	772.38
528.49	858.98
528.92	917.49
529.35	1322.4
529.78	2740.77
530.209	12711.45
530.639	30469.09
531.068	47091.58
531.498	63039.99
531.927	63039.99
532.357	63039.99
532.786	63039.99
533.215	63039.99
533.644	33298.8
534.074	11901.62
534.503	5060.24
534.932	2466.92
535.361	1432.41
535.79	1071.97
536.218	858.98
536.647	704.5
537.076	662.37
537.505	650.67
537.933	573.43
538.362	594.5
538.79	512.58
539.219	533.64
539.647	521.94
540.076	456.4
540.504	484.49
540.932	491.51
541.36	458.74
541.788	449.38
542.217	397.89
542.645	482.15
543.073	475.13
543.5	435.34
543.928	444.7
544.356	451.72
544.784	461.09
545.211	486.83
545.639	479.81
546.067	461.09
546.494	433
546.922	498.53
547.349	449.38
547.776	526.62
548.204	404.91
548.631	535.98
549.058	451.72
549.485	393.21
549.912	418.96
550.339	404.91
550.766	456.4
551.193	465.77
551.62	411.93
552.047	416.62
552.474	437.68
552.9	449.38
553.327	430.66
553.754	444.7
554.18	465.77
554.607	463.43
555.033	393.21
555.459	440.02
555.886	423.64
556.312	440.02
556.738	470.45
557.164	486.83
557.59	402.57
558.016	433
558.442	477.47
558.868	564.07
559.294	585.13
559.72	589.81
560.145	737.27
560.571	674.07
560.997	489.17
561.422	423.64
561.848	402.57
562.273	458.74
562.699	472.79
563.124	433
563.549	475.13
563.974	388.53
564.4	397.89
564.825	447.04
565.25	428.32
565.675	458.74
566.1	489.17
566.525	479.81
566.95	486.83
567.374	608.54
567.799	645.99
568.224	648.33
568.648	709.18
569.073	758.33
569.497	828.55
569.922	1118.78
570.346	1453.47
570.771	1334.11
571.195	889.4
571.619	732.59
572.043	699.82
572.467	760.67
572.891	1027.5
573.315	889.4
573.739	568.75
574.163	552.37
574.587	433
575.011	425.98
575.435	407.25
575.858	463.43
576.282	440.02
576.705	386.19
577.129	414.27
577.552	489.17
577.976	447.04
578.399	449.38
578.822	381.51
579.245	433
579.669	386.19
580.092	365.12
580.515	379.17
580.938	430.66
581.361	414.27
581.784	358.1
582.206	388.53
582.629	447.04
583.052	351.08
583.474	372.15
583.897	451.72
584.32	451.72
584.742	454.06
585.165	381.51
585.587	425.98
586.009	400.23
586.431	456.4
586.854	414.27
587.276	360.44
587.698	433
588.12	435.34
588.542	435.34
588.964	386.19
589.386	437.68
589.807	409.59
590.229	414.27
590.651	404.91
591.073	428.32
591.494	341.72
591.916	360.44
592.337	465.77
592.759	461.09
593.18	416.62
593.601	456.4
594.022	433
594.444	463.43
594.865	390.87
595.286	414.27
595.707	383.85
596.128	447.04
596.549	376.83
596.97	369.8
597.39	409.59
597.811	393.21
598.232	393.21
598.652	311.29
599.073	367.46
599.494	440.02
599.914	397.89
600.334	411.93
600.755	428.32
601.175	381.51
601.595	411.93
602.015	390.87
602.436	365.12
602.856	496.19
603.276	421.3
603.696	411.93
604.115	383.85
604.535	346.4
604.955	341.72
605.375	402.57
605.794	421.3
606.214	388.53
606.634	421.3
607.053	358.1
607.473	379.17
607.892	369.8
608.311	348.74
608.731	411.93
609.15	372.15
609.569	367.46
609.988	372.15
610.407	479.81
610.826	421.3
611.245	440.02
611.664	362.78
612.083	393.21
612.501	475.13
612.92	411.93
613.339	393.21
613.757	402.57
614.176	435.34
614.594	393.21
615.013	402.57
615.431	440.02
615.85	374.49
616.268	395.55
616.686	421.3
617.104	425.98
617.522	440.02
617.94	360.44
618.358	367.46
618.776	458.74
619.194	390.87
619.612	425.98
620.03	414.27
620.447	409.59
620.865	444.7
621.282	458.74
621.7	447.04
622.117	484.49
622.535	505.56
622.952	521.94
623.369	603.86
623.787	748.97
624.204	805.14
624.621	922.17
625.038	964.3
625.455	863.66
625.872	739.61
626.289	585.13
626.706	489.17
627.123	444.7
627.539	418.96
627.956	440.02
628.373	301.93
628.789	362.78
629.206	423.64
629.622	402.57
630.038	327.67
630.455	489.17
630.871	411.93
631.287	386.19
631.703	355.76
632.12	430.66
632.536	461.09
632.952	393.21
633.368	418.96
633.783	411.93
634.199	308.95
634.615	414.27
635.031	360.44
635.446	416.62
635.862	421.3
636.277	369.8
636.693	414.27
637.108	404.91
637.524	344.06
637.939	346.4
638.354	395.55
638.77	348.74
639.185	353.42
639.6	355.76
640.015	318.31
640.43	423.64
640.845	395.55
641.259	346.4
641.674	383.85
642.089	346.4
642.504	390.87
642.918	386.19
643.333	393.21
643.747	341.72
644.162	379.17
644.576	379.17
644.991	376.83
645.405	411.93
645.819	353.42
646.233	339.38
646.647	470.45
647.061	451.72
647.475	346.4
647.889	425.98
648.303	390.87
648.717	358.1
649.131	404.91
649.545	407.25
649.958	461.09
650.372	355.76
650.785	358.1
651.199	404.91
651.612	409.59
652.026	395.55
652.439	421.3
652.852	330.02
653.266	381.51
653.679	397.89
654.092	456.4
654.505	416.62
654.918	423.64
655.331	524.28
655.744	610.88
656.156	753.65
656.569	863.66
656.982	1008.77
657.394	931.53
657.807	723.23
658.22	578.11
658.632	517.26
659.044	458.74
659.457	395.55
659.869	418.96
660.281	393.21
660.693	381.51
661.106	402.57
661.518	386.19
661.93	425.98
662.342	407.25
662.754	397.89
663.165	332.36
663.577	367.46
663.989	400.23
664.401	325.33
664.812	418.96
665.224	381.51
665.635	330.02
666.047	341.72
666.458	402.57
666.869	374.49
667.281	393.21
667.692	409.59
668.103	423.64
668.514	369.8
668.925	369.8
669.336	383.85
669.747	360.44
670.158	325.33
670.569	376.83
670.979	395.55
671.39	313.63
671.801	372.15
672.211	355.76
672.622	418.96
673.032	358.1
673.443	367.46
673.853	341.72
674.263	355.76
674.674	351.08
675.084	348.74
675.494	381.51
675.904	311.29
676.314	379.17
676.724	362.78
677.134	301.93
677.544	388.53
677.953	386.19
678.363	339.38
678.773	346.4
679.182	348.74
679.592	423.64
680.001	315.97
680.411	367.46
680.82	407.25
681.23	386.19
681.639	395.55
682.048	379.17
682.457	367.46
682.866	386.19
683.275	376.83
683.684	418.96
684.093	409.59
684.502	390.87
684.911	418.96
685.32	362.78
685.728	365.12
686.137	346.4
686.546	346.4
686.954	322.99
687.363	337.04
687.771	332.36
688.179	383.85
688.588	355.76
688.996	353.42
689.404	308.95
689.812	334.7
690.22	322.99
690.628	393.21
691.036	393.21
691.444	299.59
691.852	383.85
692.26	344.06
692.667	407.25
693.075	322.99
693.483	388.53
693.89	355.76
694.298	346.4
694.705	315.97
695.112	372.15
695.52	381.51
695.927	379.17
696.334	318.31
696.741	360.44
697.148	313.63
697.555	290.23
697.962	358.1
698.369	355.76
698.776	353.42
699.183	320.65
699.59	337.04
699.996	278.52
700.403	313.63
700.81	308.95
701.216	325.33
701.623	304.27
702.029	351.08
702.435	320.65
702.842	341.72
703.248	407.25
703.654	461.09
704.06	418.96
704.466	493.85
704.872	592.16
705.278	512.58
705.684	498.53
706.09	552.37
706.496	486.83
706.901	409.59
707.307	425.98
707.712	418.96
708.118	318.31
708.523	365.12
708.929	374.49
709.334	325.33
709.74	430.66
710.145	299.59
710.55	280.86
710.955	322.99
711.36	360.44
711.765	337.04
712.17	308.95
712.575	337.04
712.98	976
713.385	386.19
713.789	346.4
714.194	280.86
714.599	351.08
715.003	320.65
715.408	372.15
715.812	313.63
716.217	379.17
716.621	287.89
717.025	344.06
717.429	369.8
717.833	325.33
718.238	306.61
718.642	411.93
719.046	271.5
719.449	372.15
719.853	341.72
720.257	322.99
720.661	290.23
721.065	332.36
721.468	332.36
721.872	414.27
722.275	320.65
722.679	365.12
723.082	358.1
723.485	269.16
723.889	367.46
724.292	362.78
724.695	337.04
725.098	353.42
725.501	346.4
725.904	358.1
726.307	355.76
726.71	290.23
727.113	355.76
727.516	360.44
727.918	334.7
728.321	355.76
728.724	341.72
729.126	369.8
729.529	400.23
729.931	337.04
730.333	365.12
730.736	339.38
731.138	334.7
731.54	322.99
731.942	365.12
732.344	276.18
732.746	339.38
733.148	332.36
733.55	287.89
733.952	341.72
734.354	325.33
734.756	358.1
735.157	306.61
735.559	337.04
735.96	386.19
736.362	351.08
736.763	250.44
737.165	430.66
737.566	355.76
737.967	320.65
738.368	297.25
738.77	360.44
739.171	351.08
739.572	369.8
739.973	381.51
740.374	285.55
740.774	311.29
741.175	358.1
741.576	362.78
741.977	248.1
742.377	348.74
742.778	362.78
743.178	311.29
743.579	304.27
743.979	311.29
744.379	315.97
744.78	337.04
745.18	367.46
745.58	362.78
745.98	348.74
746.38	369.8
746.78	294.91
747.18	362.78
747.58	416.62
747.98	428.32
748.38	283.2
748.779	339.38
749.179	299.59
749.578	344.06
749.978	360.44
750.377	358.1
750.777	390.87
751.176	327.67
751.575	327.67
751.975	325.33
752.374	306.61
752.773	332.36
753.172	351.08
753.571	360.44
753.97	383.85
754.369	383.85
754.768	273.84
755.166	372.15
755.565	376.83
755.964	257.46
756.362	355.76
756.761	433
757.159	351.08
757.558	315.97
757.956	315.97
758.354	341.72
758.753	381.51
759.151	330.02
759.549	318.31
759.947	379.17
760.345	330.02
760.743	393.21
761.141	362.78
761.539	341.72
761.936	320.65
762.334	311.29
762.732	304.27
763.129	360.44
763.527	306.61
763.924	334.7
764.322	367.46
764.719	334.7
765.117	287.89
765.514	262.14
765.911	374.49
766.308	297.25
766.705	360.44
767.102	365.12
767.499	327.67
767.896	351.08
768.293	304.27
768.69	339.38
769.086	393.21
769.483	299.59
769.88	283.2
770.276	409.59
770.673	414.27
771.069	341.72
771.466	355.76
771.862	334.7
772.258	397.89
772.654	358.1
773.05	315.97
773.447	337.04
773.843	327.67
774.239	358.1
774.634	344.06
775.03	346.4
775.426	397.89
775.822	308.95
776.218	334.7
776.613	430.66
777.009	425.98
777.404	479.81
777.8	388.53
778.195	397.89
778.59	327.67
778.986	325.33
779.381	320.65
779.776	306.61
780.171	372.15
780.566	313.63
780.961	346.4
781.356	348.74
781.751	308.95
782.146	341.72
782.54	367.46
782.935	360.44
783.33	259.8
783.724	327.67
784.119	344.06
784.513	372.15
784.908	306.61
785.302	332.36
785.696	332.36
786.09	276.18
786.485	332.36
786.879	308.95
787.273	292.57
787.667	348.74
788.061	315.97
788.454	325.33
788.848	327.67
789.242	315.97
789.636	306.61
790.029	322.99
790.423	285.55
790.816	360.44
791.21	327.67
791.603	322.99
791.997	358.1
792.39	301.93
792.783	395.55
793.176	327.67
793.569	297.25
793.962	348.74
794.355	376.83
794.748	264.48
795.141	290.23
795.534	369.8
795.927	334.7
796.319	315.97
796.712	353.42
797.105	276.18
797.497	301.93
797.89	271.5
798.282	299.59
798.674	341.72
799.067	227.03
799.459	292.57
799.851	322.99
800.243	346.4
800.635	287.89
801.027	339.38
801.419	353.42
801.811	264.48
802.203	332.36
802.594	327.67
802.986	311.29
803.378	313.63
803.769	301.93
804.161	287.89
804.552	304.27
804.944	278.52
805.335	301.93
805.726	423.64
806.118	360.44
806.509	325.33
806.9	313.63
807.291	362.78
807.682	358.1
808.073	330.02
808.464	327.67
808.855	348.74
809.245	425.98
809.636	362.78
810.027	353.42
810.417	360.44
810.808	353.42
811.198	287.89
811.589	337.04
811.979	308.95
812.369	395.55
812.759	257.46
813.15	411.93
813.54	322.99
813.93	341.72
814.32	344.06
814.71	292.57
815.1	360.44
815.489	372.15
815.879	320.65
816.269	379.17
816.658	334.7
817.048	390.87
817.438	308.95
817.827	362.78
818.216	334.7
818.606	360.44
818.995	365.12
819.384	299.59
819.773	365.12
820.163	341.72
820.552	372.15
820.941	341.72
821.33	322.99
821.718	280.86
822.107	362.78
822.496	318.31
822.885	381.51
823.273	325.33
823.662	234.05
824.05	411.93
824.439	299.59
824.827	346.4
825.216	280.86
825.604	322.99
825.992	322.99
826.38	346.4
826.768	346.4
827.156	360.44
827.544	353.42
827.932	287.89
828.32	341.72
828.708	332.36
829.096	409.59
829.483	313.63
829.871	355.76
830.259	278.52
830.646	301.93
831.034	341.72
831.421	278.52
831.808	365.12
832.196	308.95
832.583	353.42
832.97	344.06
833.357	308.95
833.744	290.23
834.131	266.82
834.518	332.36
834.905	308.95
835.292	304.27
835.678	290.23
836.065	315.97
836.452	287.89
836.838	318.31
837.225	367.46
837.611	337.04
837.998	374.49
838.384	332.36
838.77	346.4
839.157	306.61
839.543	360.44
839.929	411.93
840.315	301.93
840.701	285.55
841.087	290.23
841.473	287.89
841.858	383.85
842.244	400.23
842.63	292.57
843.015	313.63
843.401	383.85
843.787	365.12
844.172	360.44
844.557	306.61
844.943	358.1
845.328	308.95
845.713	369.8
846.098	353.42
846.483	374.49
846.868	278.52
847.253	308.95
847.638	353.42
848.023	346.4
848.408	365.12
848.793	332.36
849.177	374.49
849.562	299.59
849.947	304.27
850.331	285.55
850.715	353.42
851.1	294.91
851.484	341.72
851.868	400.23
852.253	367.46
852.637	271.5
853.021	287.89
853.405	330.02
853.789	322.99
854.173	414.27
854.557	294.91
854.94	374.49
855.324	367.46
855.708	269.16
856.091	315.97
856.475	287.89
856.858	234.05
857.242	330.02
857.625	318.31
858.009	346.4
858.392	337.04
858.775	322.99
859.158	306.61
859.541	308.95
859.924	271.5
860.307	355.76
860.69	287.89
861.073	360.44
861.456	327.67
861.838	280.86
862.221	304.27
862.604	332.36
862.986	287.89
863.369	313.63
863.751	346.4
864.133	283.2
864.516	325.33
864.898	304.27
865.28	344.06
865.662	285.55
866.044	325.33
866.426	327.67
866.808	339.38
867.19	294.91
867.572	334.7
867.954	290.23
868.336	322.99
868.717	250.44
869.099	287.89
869.48	332.36
869.862	346.4
870.243	353.42
870.625	346.4
871.006	313.63
871.387	372.15
871.768	262.14
872.149	304.27
872.53	379.17
872.911	330.02
873.292	379.17
873.673	285.55
874.054	395.55
874.435	348.74
874.815	334.7
875.196	278.52
875.577	358.1
875.957	325.33
876.338	273.84
876.718	365.12
877.098	299.59
877.479	418.96
877.859	308.95
878.239	315.97
878.619	318.31
878.999	369.8
879.379	332.36
879.759	299.59
880.139	346.4
880.519	327.67
880.898	330.02
881.278	376.83
881.658	327.67
882.037	299.59
882.417	355.76
882.796	297.25
883.176	330.02
883.555	322.99
883.934	299.59
884.313	327.67
884.693	294.91
885.072	348.74
885.451	353.42
885.83	313.63
886.209	355.76
886.587	269.16
886.966	353.42
887.345	379.17
887.724	330.02
888.102	243.42
888.481	313.63
888.859	322.99
889.238	292.57
889.616	330.02
889.994	308.95
890.373	358.1
890.751	320.65
891.129	381.51
891.507	320.65
891.885	313.63
892.263	297.25
892.641	311.29
893.019	327.67
893.396	311.29
893.774	278.52
894.152	271.5
894.529	330.02
894.907	308.95
895.284	255.12
895.662	313.63
896.039	332.36
896.416	334.7
896.794	290.23
897.171	353.42
897.548	292.57
897.925	353.42
898.302	313.63
898.679	280.86
899.056	262.14
899.433	297.25
899.809	299.59
900.186	362.78
900.563	299.59
900.939	308.95
901.316	304.27
901.692	266.82
902.069	332.36
902.445	318.31
902.821	308.95
903.197	278.52
903.574	339.38
903.95	278.52
904.326	332.36
904.702	341.72
905.078	341.72
905.454	339.38
905.829	285.55
906.205	353.42
906.581	358.1
906.956	348.74
907.332	362.78
907.707	395.55
908.083	355.76
908.458	334.7
908.833	315.97
909.209	365.12
909.584	311.29
909.959	322.99
910.334	285.55
910.709	360.44
911.084	360.44
911.459	311.29
911.834	311.29
912.209	334.7
912.583	348.74
912.958	315.97
913.333	311.29
913.707	390.87
914.082	318.31
914.456	283.2
914.83	355.76
915.205	390.87
915.579	327.67
915.953	299.59
916.327	358.1
916.701	337.04
917.075	322.99
917.449	318.31
917.823	351.08
918.197	273.84
918.571	322.99
918.944	297.25
919.318	346.4
919.692	278.52
920.065	287.89
920.438	320.65
920.812	299.59
921.185	369.8
921.558	388.53
921.932	313.63
922.305	353.42
922.678	327.67
923.051	297.25
923.424	334.7
923.797	311.29
924.17	318.31
924.542	341.72
924.915	383.85
925.288	351.08
925.661	320.65
926.033	360.44
926.406	334.7
926.778	341.72
927.15	320.65
927.523	273.84
927.895	292.57
928.267	337.04
928.639	301.93
929.011	315.97
929.383	367.46
929.755	325.33
930.127	369.8
930.499	283.2
930.871	341.72
931.242	367.46
931.614	308.95
931.986	348.74
932.357	315.97
932.729	330.02
933.1	311.29
933.471	351.08
933.843	259.8
934.214	407.25
934.585	404.91
934.956	278.52
935.327	325.33
935.698	313.63
936.069	362.78
936.44	339.38
936.811	346.4
937.182	285.55
937.552	348.74
937.923	341.72
938.293	311.29
938.664	318.31
939.034	301.93
939.405	297.25
939.775	320.65
940.145	306.61
940.516	332.36
940.886	330.02
941.256	383.85
941.626	367.46
941.996	351.08
942.366	287.89
942.735	353.42
943.105	337.04
943.475	330.02
943.845	344.06
944.214	355.76
944.584	313.63
944.953	322.99
945.323	339.38
945.692	299.59
946.061	332.36
946.43	362.78
946.8	301.93
947.169	287.89
947.538	379.17
947.907	348.74
948.276	322.99
948.645	311.29
949.013	402.57
949.382	334.7
949.751	269.16
950.119	297.25
950.488	372.15
950.857	304.27
951.225	332.36
951.593	360.44
951.962	299.59
952.33	327.67
952.698	344.06
953.066	339.38
953.434	367.46
953.802	313.63
954.17	346.4
954.538	322.99
954.906	376.83
955.274	311.29
955.642	292.57
956.009	299.59
956.377	311.29
956.744	325.33
957.112	320.65
957.479	320.65
957.847	304.27
958.214	334.7
958.581	365.12
958.948	180.22
959.315	320.65
959.683	320.65
960.05	276.18
960.416	285.55
960.783	330.02
961.15	301.93
961.517	386.19
961.884	330.02
962.25	292.57
962.617	409.59
962.983	269.16
963.35	367.46
963.716	259.8
964.082	311.29
964.449	271.5
964.815	351.08
965.181	320.65
965.547	355.76
965.913	320.65
966.279	304.27
966.645	311.29
967.011	278.52
967.377	332.36
967.742	348.74
968.108	325.33
968.474	409.59
968.839	271.5
969.205	325.33
969.57	315.97
969.935	215.33
970.301	318.31
970.666	294.91
971.031	313.63
971.396	299.59
971.761	290.23
972.126	360.44
972.491	320.65
972.856	320.65
973.221	327.67
973.586	346.4
973.95	344.06
974.315	306.61
974.679	330.02
975.044	341.72
975.408	355.76
975.773	318.31
976.137	318.31
976.501	348.74
976.866	376.83
977.23	374.49
977.594	327.67
977.958	308.95
978.322	334.7
978.686	245.76
979.049	332.36
979.413	318.31
979.777	360.44
980.141	299.59
980.504	320.65
980.868	320.65
981.231	304.27
981.595	339.38
981.958	369.8
982.321	297.25
982.684	376.83
983.048	273.84
983.411	334.7
983.774	273.84
984.137	294.91
984.5	292.57
984.862	358.1
985.225	327.67
985.588	264.48
985.951	386.19
986.313	325.33
986.676	348.74
987.038	369.8
987.401	372.15
987.763	269.16
988.125	294.91
988.488	273.84
988.85	269.16
989.212	379.17
989.574	271.5
989.936	278.52
990.298	311.29
990.66	308.95
991.022	325.33
991.383	374.49
991.745	262.14
992.107	315.97
992.468	294.91
992.83	243.42
993.191	369.8
993.553	337.04
993.914	327.67
994.275	353.42
994.637	346.4
994.998	325.33
995.359	308.95
995.72	332.36
996.081	318.31
996.442	322.99
996.803	337.04
997.163	327.67
997.524	339.38
997.885	355.76
998.245	259.8
998.606	318.31
998.966	224.69
999.327	311.29
999.687	374.49
1000.047	290.23
1000.408	369.8
1000.768	346.4
1001.128	358.1
1001.488	294.91
1001.848	262.14
1002.208	311.29
1002.568	346.4
1002.927	325.33
1003.287	278.52
1003.647	379.17
1004.007	372.15
1004.366	351.08
1004.726	379.17
1005.085	327.67
1005.444	297.25
1005.804	271.5
1006.163	353.42
1006.522	339.38
1006.881	308.95
1007.24	313.63
1007.599	318.31
1007.958	346.4
1008.317	344.06
1008.676	280.86
1009.035	395.55
1009.393	337.04
1009.752	280.86
1010.111	318.31
1010.469	351.08
1010.828	353.42
1011.186	341.72
1011.544	332.36
1011.903	374.49
1012.261	348.74
1012.619	308.95
1012.977	362.78
1013.335	358.1
1013.693	369.8
1014.051	344.06
1014.409	276.18
1014.767	271.5
1015.124	311.29
1015.482	311.29
1015.84	299.59
1016.197	358.1
1016.555	308.95
1016.912	348.74
1017.269	334.7
1017.627	337.04
1017.984	348.74
1018.341	332.36
1018.698	334.7
1019.055	266.82
1019.412	318.31
1019.769	278.52
1020.126	287.89
1020.483	276.18
1020.84	287.89
1021.196	290.23
1021.553	257.46
1021.909	308.95
1022.266	315.97
1022.622	332.36
1022.979	360.44
1023.335	344.06
1023.691	299.59
1024.047	299.59
1024.404	301.93
1024.76	301.93
1025.116	332.36
1025.472	290.23
1025.827	346.4
1026.183	264.48
1026.539	334.7
1026.895	315.97
1027.25	379.17
1027.606	290.23
1027.961	264.48
1028.317	304.27
1028.672	290.23
1029.028	315.97
1029.383	346.4
1029.738	297.25
1030.093	334.7
1030.448	290.23
1030.803	332.36
1031.158	262.14
1031.513	322.99
1031.868	257.46
1032.223	304.27
1032.577	311.29
1032.932	285.55
1033.287	358.1
1033.641	283.2
1033.996	353.42
1034.35	362.78
1034.704	278.52
1035.059	315.97
1035.413	362.78
1035.767	362.78
1036.121	362.78
