Data from Al_FLMS009871__894__16-17-04-525.txt Node

Date: Fri Mar 08 16:17:04 CST 2024
User: pe5414po
Spectrometer: FLMS00987
Trigger mode: 0
Integration Time (sec): 1.000000E-1
Scans to average: 1
Electric dark correction enabled: true
Nonlinearity correction enabled: false
Boxcar width: 0
XAxis mode: Wavelengths
Number of Pixels in Spectrum: 2048
>>>>>Begin Spectral Data<<<<<
188.938	-32.04
189.409	-32.04
189.879	-32.04
190.349	-151.4
190.819	-111.61
191.29	-43.74
191.76	-78.85
192.23	-132.68
192.7	-50.76
193.17	-97.57
193.64	-15.65
194.109	-20.33
194.579	-41.4
195.049	-25.01
195.519	17.12
195.988	54.56
196.458	75.63
196.927	120.1
197.397	106.06
197.866	80.31
198.336	52.22
198.805	164.57
199.274	117.76
199.744	199.68
200.213	237.13
200.682	199.68
201.151	269.89
201.62	297.98
202.089	274.57
202.558	260.53
203.027	195
203.495	272.23
203.964	276.91
204.433	265.21
204.902	216.06
205.37	309.68
205.839	319.04
206.307	321.38
206.776	340.11
207.244	290.96
207.712	295.64
208.181	370.54
208.649	283.94
209.117	307.34
209.585	300.32
210.053	316.7
210.521	363.51
210.989	241.81
211.457	323.73
211.925	323.73
212.393	216.06
212.861	309.68
213.328	244.15
213.796	283.94
214.264	237.13
214.731	305
215.199	309.68
215.666	333.09
216.133	283.94
216.601	330.75
217.068	209.04
217.535	262.87
218.003	344.79
218.47	307.34
218.937	265.21
219.404	255.85
219.871	239.47
220.338	267.55
220.805	272.23
221.271	288.62
221.738	274.57
222.205	302.66
222.671	316.7
223.138	314.36
223.605	248.83
224.071	255.85
224.538	227.76
225.004	267.55
225.47	246.49
225.937	297.98
226.403	279.26
226.869	293.3
227.335	288.62
227.801	209.04
228.267	230.1
228.733	258.19
229.199	312.02
229.665	314.36
230.131	218.4
230.597	269.89
231.062	265.21
231.528	227.76
231.994	288.62
232.459	237.13
232.925	244.15
233.39	260.53
233.856	363.51
234.321	333.09
234.786	335.43
235.252	281.6
235.717	272.23
236.182	295.64
236.647	199.68
237.112	262.87
237.577	300.32
238.042	342.45
238.507	223.08
238.972	302.66
239.436	347.13
239.901	262.87
240.366	316.7
240.83	276.91
241.295	260.53
241.76	319.04
242.224	328.41
242.688	328.41
243.153	312.02
243.617	319.04
244.081	305
244.545	276.91
245.01	272.23
245.474	288.62
245.938	295.64
246.402	265.21
246.866	237.13
247.33	300.32
247.793	323.73
248.257	363.51
248.721	251.17
249.185	340.11
249.648	305
250.112	251.17
250.575	239.47
251.039	286.28
251.502	316.7
251.965	260.53
252.429	286.28
252.892	297.98
253.355	283.94
253.818	272.23
254.281	258.19
254.744	297.98
255.207	300.32
255.67	321.38
256.133	262.87
256.596	283.94
257.059	333.09
257.522	276.91
257.984	269.89
258.447	276.91
258.909	288.62
259.372	251.17
259.834	255.85
260.297	319.04
260.759	288.62
261.221	328.41
261.684	272.23
262.146	283.94
262.608	309.68
263.07	281.6
263.532	361.17
263.994	333.09
264.456	321.38
264.918	305
265.38	262.87
265.842	269.89
266.303	316.7
266.765	321.38
267.227	269.89
267.688	267.55
268.15	305
268.611	319.04
269.072	274.57
269.534	272.23
269.995	269.89
270.456	307.34
270.918	272.23
271.379	274.57
271.84	309.68
272.301	333.09
272.762	290.96
273.223	290.96
273.684	316.7
274.144	239.47
274.605	312.02
275.066	262.87
275.527	323.73
275.987	305
276.448	283.94
276.908	265.21
277.369	347.13
277.829	321.38
278.289	241.81
278.75	335.43
279.21	269.89
279.67	295.64
280.13	195
280.59	323.73
281.05	300.32
281.51	258.19
281.97	251.17
282.43	314.36
282.89	237.13
283.35	272.23
283.809	218.4
284.269	239.47
284.729	246.49
285.188	363.51
285.648	375.22
286.107	288.62
286.567	293.3
287.026	269.89
287.485	267.55
287.944	272.23
288.404	314.36
288.863	297.98
289.322	295.64
289.781	283.94
290.24	319.04
290.699	293.3
291.158	379.9
291.616	358.83
292.075	321.38
292.534	276.91
292.992	279.26
293.451	326.07
293.91	335.43
294.368	307.34
294.827	302.66
295.285	258.19
295.743	361.17
296.202	286.28
296.66	286.28
297.118	344.79
297.576	340.11
298.034	321.38
298.492	312.02
298.95	274.57
299.408	314.36
299.866	288.62
300.324	307.34
300.781	279.26
301.239	288.62
301.697	302.66
302.154	356.49
302.612	328.41
303.069	248.83
303.527	276.91
303.984	321.38
304.441	347.13
304.899	323.73
305.356	293.3
305.813	283.94
306.27	316.7
306.727	290.96
307.184	330.75
307.641	297.98
308.098	344.79
308.555	314.36
309.012	309.68
309.468	316.7
309.925	323.73
310.382	370.54
310.838	274.57
311.295	347.13
311.751	314.36
312.208	335.43
312.664	307.34
313.12	316.7
313.577	248.83
314.033	312.02
314.489	295.64
314.945	309.68
315.401	281.6
315.857	274.57
316.313	330.75
316.769	312.02
317.225	281.6
317.681	328.41
318.136	288.62
318.592	363.51
319.048	335.43
319.503	337.77
319.959	319.04
320.414	295.64
320.869	258.19
321.325	351.81
321.78	272.23
322.235	314.36
322.691	344.79
323.146	330.75
323.601	274.57
324.056	342.45
324.511	330.75
324.966	267.55
325.421	330.75
325.875	307.34
326.33	330.75
326.785	330.75
327.24	377.56
327.694	246.49
328.149	258.19
328.603	297.98
329.058	307.34
329.512	297.98
329.966	307.34
330.421	293.3
330.875	370.54
331.329	323.73
331.783	305
332.237	290.96
332.691	274.57
333.145	321.38
333.599	269.89
334.053	265.21
334.507	309.68
334.96	344.79
335.414	363.51
335.868	351.81
336.321	335.43
336.775	300.32
337.228	239.47
337.682	309.68
338.135	326.07
338.588	295.64
339.042	286.28
339.495	293.3
339.948	309.68
340.401	342.45
340.854	293.3
341.307	302.66
341.76	344.79
342.213	286.28
342.666	344.79
343.119	307.34
343.571	382.24
344.024	300.32
344.477	377.56
344.929	319.04
345.382	305
345.834	323.73
346.287	384.58
346.739	326.07
347.191	356.49
347.644	316.7
348.096	288.62
348.548	319.04
349	295.64
349.452	295.64
349.904	305
350.356	337.77
350.808	328.41
351.26	218.4
351.711	330.75
352.163	316.7
352.615	323.73
353.066	290.96
353.518	349.47
353.969	269.89
354.421	305
354.872	316.7
355.324	295.64
355.775	316.7
356.226	300.32
356.677	368.2
357.128	361.17
357.579	288.62
358.03	365.85
358.481	281.6
358.932	302.66
359.383	312.02
359.834	314.36
360.285	305
360.735	389.26
361.186	316.7
361.637	321.38
362.087	326.07
362.538	316.7
362.988	293.3
363.438	314.36
363.889	293.3
364.339	361.17
364.789	379.9
365.239	349.47
365.689	265.21
366.139	307.34
366.589	335.43
367.039	255.85
367.489	344.79
367.939	293.3
368.389	351.81
368.839	258.19
369.288	283.94
369.738	305
370.187	307.34
370.637	316.7
371.086	255.85
371.536	335.43
371.985	358.83
372.434	309.68
372.884	347.13
373.333	321.38
373.782	342.45
374.231	251.17
374.68	272.23
375.129	319.04
375.578	335.43
376.027	377.56
376.475	333.09
376.924	309.68
377.373	328.41
377.822	333.09
378.27	316.7
378.719	330.75
379.167	328.41
379.616	309.68
380.064	358.83
380.512	267.55
380.961	269.89
381.409	356.49
381.857	258.19
382.305	330.75
382.753	269.89
383.201	365.85
383.649	361.17
384.097	279.26
384.545	302.66
384.992	351.81
385.44	309.68
385.888	312.02
386.335	314.36
386.783	251.17
387.231	265.21
387.678	309.68
388.125	326.07
388.573	340.11
389.02	305
389.467	297.98
389.914	365.85
390.362	351.81
390.809	344.79
391.256	312.02
391.703	337.77
392.15	370.54
392.596	307.34
393.043	314.36
393.49	354.15
393.937	365.85
394.383	302.66
394.83	393.94
395.276	363.51
395.723	244.15
396.169	319.04
396.616	297.98
397.062	319.04
397.508	267.55
397.954	328.41
398.401	365.85
398.847	342.45
399.293	309.68
399.739	293.3
400.185	384.58
400.631	309.68
401.076	283.94
401.522	314.36
401.968	358.83
402.414	333.09
402.859	258.19
403.305	293.3
403.75	354.15
404.196	279.26
404.641	326.07
405.086	344.79
405.532	349.47
405.977	365.85
406.422	328.41
406.867	365.85
407.312	305
407.757	363.51
408.202	337.77
408.647	309.68
409.092	309.68
409.537	312.02
409.982	295.64
410.426	319.04
410.871	309.68
411.316	286.28
411.76	293.3
412.205	344.79
412.649	272.23
413.093	319.04
413.538	265.21
413.982	255.85
414.426	314.36
414.87	356.49
415.314	342.45
415.758	372.88
416.202	335.43
416.646	312.02
417.09	286.28
417.534	335.43
417.978	375.22
418.421	314.36
418.865	307.34
419.309	283.94
419.752	351.81
420.196	309.68
420.639	321.38
421.083	290.96
421.526	265.21
421.969	326.07
422.412	370.54
422.856	265.21
423.299	314.36
423.742	283.94
424.185	305
424.628	368.2
425.071	297.98
425.513	283.94
425.956	288.62
426.399	307.34
426.842	330.75
427.284	337.77
427.727	321.38
428.169	272.23
428.612	309.68
429.054	293.3
429.497	309.68
429.939	326.07
430.381	347.13
430.823	361.17
431.265	293.3
431.707	342.45
432.149	342.45
432.591	319.04
433.033	312.02
433.475	335.43
433.917	335.43
434.359	354.15
434.8	305
435.242	344.79
435.684	276.91
436.125	365.85
436.567	262.87
437.008	307.34
437.449	342.45
437.891	330.75
438.332	356.49
438.773	319.04
439.214	328.41
439.656	326.07
440.097	283.94
440.538	305
440.978	276.91
441.419	286.28
441.86	319.04
442.301	349.47
442.742	316.7
443.182	368.2
443.623	335.43
444.063	361.17
444.504	396.28
444.944	309.68
445.385	293.3
445.825	361.17
446.265	316.7
446.706	312.02
447.146	351.81
447.586	283.94
448.026	335.43
448.466	323.73
448.906	340.11
449.346	344.79
449.786	330.75
450.225	351.81
450.665	349.47
451.105	335.43
451.544	333.09
451.984	269.89
452.424	349.47
452.863	349.47
453.302	276.91
453.742	321.38
454.181	290.96
454.62	251.17
455.059	260.53
455.499	297.98
455.938	316.7
456.377	290.96
456.816	290.96
457.254	267.55
457.693	342.45
458.132	290.96
458.571	281.6
459.01	347.13
459.448	326.07
459.887	344.79
460.325	361.17
460.764	398.62
461.202	328.41
461.641	295.64
462.079	305
462.517	363.51
462.955	340.11
463.393	356.49
463.832	340.11
464.27	349.47
464.708	333.09
465.145	419.69
465.583	309.68
466.021	391.6
466.459	363.51
466.897	368.2
467.334	258.19
467.772	309.68
468.209	379.9
468.647	314.36
469.084	400.96
469.522	307.34
469.959	370.54
470.396	255.85
470.833	363.51
471.271	384.58
471.708	309.68
472.145	307.34
472.582	326.07
473.019	342.45
473.456	314.36
473.892	300.32
474.329	295.64
474.766	370.54
475.202	274.57
475.639	358.83
476.076	262.87
476.512	265.21
476.949	274.57
477.385	297.98
477.821	288.62
478.258	309.68
478.694	279.26
479.13	330.75
479.566	319.04
480.002	379.9
480.438	347.13
480.874	370.54
481.31	358.83
481.746	337.77
482.181	372.88
482.617	286.28
483.053	302.66
483.488	326.07
483.924	300.32
484.36	328.41
484.795	293.3
485.23	279.26
485.666	342.45
486.101	412.67
486.536	375.22
486.971	335.43
487.407	295.64
487.842	424.37
488.277	328.41
488.712	323.73
489.146	328.41
489.581	368.2
490.016	358.83
490.451	370.54
490.885	316.7
491.32	337.77
491.755	386.92
492.189	391.6
492.624	358.83
493.058	319.04
493.492	342.45
493.927	377.56
494.361	342.45
494.795	260.53
495.229	342.45
495.663	358.83
496.097	344.79
496.531	312.02
496.965	370.54
497.399	377.56
497.833	307.34
498.266	347.13
498.7	246.49
499.134	302.66
499.567	288.62
500.001	333.09
500.434	286.28
500.868	340.11
501.301	335.43
501.734	281.6
502.168	340.11
502.601	302.66
503.034	302.66
503.467	309.68
503.9	258.19
504.333	349.47
504.766	279.26
505.199	344.79
505.632	319.04
506.064	316.7
506.497	307.34
506.93	351.81
507.362	286.28
507.795	333.09
508.227	328.41
508.66	361.17
509.092	354.15
509.524	297.98
509.956	316.7
510.389	276.91
510.821	349.47
511.253	333.09
511.685	319.04
512.117	267.55
512.549	321.38
512.981	312.02
513.412	382.24
513.844	356.49
514.276	326.07
514.707	312.02
515.139	321.38
515.571	384.58
516.002	328.41
516.433	342.45
516.865	368.2
517.296	274.57
517.727	295.64
518.159	328.41
518.59	330.75
519.021	326.07
519.452	321.38
519.883	377.56
520.314	389.26
520.744	293.3
521.175	351.81
521.606	372.88
522.037	335.43
522.467	368.2
522.898	321.38
523.328	358.83
523.759	389.26
524.189	333.09
524.62	396.28
525.05	297.98
525.48	340.11
525.91	344.79
526.341	349.47
526.771	340.11
527.201	319.04
527.631	274.57
528.061	262.87
528.49	293.3
528.92	358.83
529.35	290.96
529.78	340.11
530.209	375.22
530.639	335.43
531.068	349.47
531.498	276.91
531.927	307.34
532.357	295.64
532.786	314.36
533.215	307.34
533.644	354.15
534.074	328.41
534.503	358.83
534.932	354.15
535.361	379.9
535.79	295.64
536.218	328.41
536.647	297.98
537.076	337.77
537.505	377.56
537.933	227.76
538.362	393.94
538.79	300.32
539.219	328.41
539.647	330.75
540.076	316.7
540.504	281.6
540.932	286.28
541.36	300.32
541.788	354.15
542.217	365.85
542.645	356.49
543.073	265.21
543.5	305
543.928	407.98
544.356	337.77
544.784	342.45
545.211	363.51
545.639	316.7
546.067	302.66
546.494	351.81
546.922	321.38
547.349	295.64
547.776	337.77
548.204	255.85
548.631	349.47
549.058	293.3
549.485	391.6
549.912	356.49
550.339	326.07
550.766	354.15
551.193	335.43
551.62	333.09
552.047	300.32
552.474	314.36
552.9	314.36
553.327	370.54
553.754	330.75
554.18	356.49
554.607	340.11
555.033	288.62
555.459	297.98
555.886	358.83
556.312	230.1
556.738	251.17
557.164	379.9
557.59	300.32
558.016	307.34
558.442	321.38
558.868	295.64
559.294	358.83
559.72	351.81
560.145	319.04
560.571	344.79
560.997	340.11
561.422	316.7
561.848	358.83
562.273	328.41
562.699	258.19
563.124	363.51
563.549	286.28
563.974	326.07
564.4	305
564.825	326.07
565.25	337.77
565.675	349.47
566.1	347.13
566.525	316.7
566.95	286.28
567.374	347.13
567.799	326.07
568.224	305
568.648	295.64
569.073	372.88
569.497	286.28
569.922	286.28
570.346	391.6
570.771	307.34
571.195	361.17
571.619	274.57
572.043	302.66
572.467	286.28
572.891	351.81
573.315	330.75
573.739	283.94
574.163	302.66
574.587	269.89
575.011	372.88
575.435	297.98
575.858	288.62
576.282	354.15
576.705	328.41
577.129	337.77
577.552	347.13
577.976	379.9
578.399	365.85
578.822	309.68
579.245	319.04
579.669	356.49
580.092	321.38
580.515	300.32
580.938	323.73
581.361	379.9
581.784	356.49
582.206	288.62
582.629	290.96
583.052	354.15
583.474	363.51
583.897	314.36
584.32	305
584.742	286.28
585.165	309.68
585.587	300.32
586.009	372.88
586.431	297.98
586.854	288.62
587.276	323.73
587.698	328.41
588.12	319.04
588.542	342.45
588.964	337.77
589.386	274.57
589.807	337.77
590.229	323.73
590.651	288.62
591.073	347.13
591.494	330.75
591.916	342.45
592.337	307.34
592.759	393.94
593.18	342.45
593.601	330.75
594.022	321.38
594.444	342.45
594.865	323.73
595.286	283.94
595.707	335.43
596.128	354.15
596.549	302.66
596.97	372.88
597.39	326.07
597.811	319.04
598.232	272.23
598.652	358.83
599.073	314.36
599.494	333.09
599.914	333.09
600.334	309.68
600.755	251.17
601.175	293.3
601.595	279.26
602.015	405.64
602.436	300.32
602.856	529.69
603.276	358.83
603.696	281.6
604.115	326.07
604.535	337.77
604.955	368.2
605.375	312.02
605.794	337.77
606.214	328.41
606.634	328.41
607.053	340.11
607.473	335.43
607.892	342.45
608.311	314.36
608.731	276.91
609.15	335.43
609.569	351.81
609.988	321.38
610.407	288.62
610.826	344.79
611.245	295.64
611.664	358.83
612.083	340.11
612.501	272.23
612.92	328.41
613.339	368.2
613.757	321.38
614.176	312.02
614.594	323.73
615.013	253.51
615.431	218.4
615.85	330.75
616.268	274.57
616.686	326.07
617.104	323.73
617.522	372.88
617.94	349.47
618.358	302.66
618.776	337.77
619.194	307.34
619.612	365.85
620.03	321.38
620.447	279.26
620.865	333.09
621.282	267.55
621.7	389.26
622.117	321.38
622.535	281.6
622.952	340.11
623.369	274.57
623.787	316.7
624.204	349.47
624.621	337.77
625.038	279.26
625.455	349.47
625.872	389.26
626.289	354.15
626.706	379.9
627.123	379.9
627.539	382.24
627.956	335.43
628.373	323.73
628.789	340.11
629.206	255.85
629.622	337.77
630.038	267.55
630.455	335.43
630.871	274.57
631.287	316.7
631.703	379.9
632.12	316.7
632.536	262.87
632.952	354.15
633.368	347.13
633.783	358.83
634.199	319.04
634.615	365.85
635.031	286.28
635.446	262.87
635.862	391.6
636.277	300.32
636.693	272.23
637.108	377.56
637.524	422.03
637.939	323.73
638.354	286.28
638.77	314.36
639.185	354.15
639.6	389.26
640.015	312.02
640.43	349.47
640.845	283.94
641.259	323.73
641.674	251.17
642.089	321.38
642.504	288.62
642.918	293.3
643.333	316.7
643.747	290.96
644.162	382.24
644.576	290.96
644.991	363.51
645.405	361.17
645.819	319.04
646.233	333.09
646.647	319.04
647.061	323.73
647.475	326.07
647.889	295.64
648.303	283.94
648.717	253.51
649.131	326.07
649.545	361.17
649.958	372.88
650.372	288.62
650.785	342.45
651.199	375.22
651.612	330.75
652.026	351.81
652.439	314.36
652.852	316.7
653.266	314.36
653.679	344.79
654.092	372.88
654.505	274.57
654.918	309.68
655.331	349.47
655.744	314.36
656.156	333.09
656.569	265.21
656.982	361.17
657.394	363.51
657.807	307.34
658.22	340.11
658.632	363.51
659.044	344.79
659.457	365.85
659.869	365.85
660.281	391.6
660.693	314.36
661.106	290.96
661.518	286.28
661.93	323.73
662.342	290.96
662.754	321.38
663.165	356.49
663.577	316.7
663.989	307.34
664.401	323.73
664.812	316.7
665.224	323.73
665.635	347.13
666.047	290.96
666.458	265.21
666.869	276.91
667.281	316.7
667.692	300.32
668.103	290.96
668.514	283.94
668.925	297.98
669.336	328.41
669.747	295.64
670.158	272.23
670.569	349.47
670.979	337.77
671.39	319.04
671.801	297.98
672.211	333.09
672.622	372.88
673.032	398.62
673.443	389.26
673.853	309.68
674.263	312.02
674.674	267.55
675.084	288.62
675.494	316.7
675.904	305
676.314	316.7
676.724	321.38
677.134	351.81
677.544	361.17
677.953	326.07
678.363	356.49
678.773	382.24
679.182	335.43
679.592	246.49
680.001	323.73
680.411	309.68
680.82	276.91
681.23	314.36
681.639	326.07
682.048	312.02
682.457	319.04
682.866	307.34
683.275	260.53
683.684	365.85
684.093	279.26
684.502	305
684.911	393.94
685.32	272.23
685.728	361.17
686.137	393.94
686.546	293.3
686.954	286.28
687.363	295.64
687.771	340.11
688.179	319.04
688.588	340.11
688.996	302.66
689.404	326.07
689.812	344.79
690.22	309.68
690.628	297.98
691.036	269.89
691.444	286.28
691.852	262.87
692.26	361.17
692.667	337.77
693.075	365.85
693.483	237.13
693.89	356.49
694.298	307.34
694.705	384.58
695.112	337.77
695.52	312.02
695.927	347.13
696.334	361.17
696.741	347.13
697.148	276.91
697.555	316.7
697.962	365.85
698.369	307.34
698.776	342.45
699.183	330.75
699.59	206.7
699.996	375.22
700.403	295.64
700.81	307.34
701.216	293.3
701.623	295.64
702.029	319.04
702.435	354.15
702.842	300.32
703.248	344.79
703.654	358.83
704.06	309.68
704.466	389.26
704.872	337.77
705.278	370.54
705.684	368.2
706.09	333.09
706.496	368.2
706.901	375.22
707.307	340.11
707.712	302.66
708.118	321.38
708.523	372.88
708.929	305
709.334	326.07
709.74	326.07
710.145	312.02
710.55	244.15
710.955	326.07
711.36	342.45
711.765	286.28
712.17	307.34
712.575	333.09
712.98	918.22
713.385	340.11
713.789	321.38
714.194	351.81
714.599	316.7
715.003	314.36
715.408	316.7
715.812	368.2
716.217	269.89
716.621	309.68
717.025	321.38
717.429	305
717.833	335.43
718.238	342.45
718.642	319.04
719.046	354.15
719.449	326.07
719.853	290.96
720.257	326.07
720.661	333.09
721.065	300.32
721.468	356.49
721.872	314.36
722.275	398.62
722.679	297.98
723.082	351.81
723.485	230.1
723.889	297.98
724.292	265.21
724.695	361.17
725.098	302.66
725.501	335.43
725.904	347.13
726.307	321.38
726.71	316.7
727.113	316.7
727.516	295.64
727.918	272.23
728.321	312.02
728.724	300.32
729.126	319.04
729.529	340.11
729.931	347.13
730.333	391.6
730.736	319.04
731.138	314.36
731.54	326.07
731.942	328.41
732.344	356.49
732.746	244.15
733.148	354.15
733.55	375.22
733.952	276.91
734.354	333.09
734.756	305
735.157	309.68
735.559	347.13
735.96	354.15
736.362	307.34
736.763	316.7
737.165	314.36
737.566	333.09
737.967	356.49
738.368	412.67
738.77	328.41
739.171	307.34
739.572	312.02
739.973	323.73
740.374	356.49
740.774	281.6
741.175	286.28
741.576	344.79
741.977	307.34
742.377	319.04
742.778	295.64
743.178	283.94
743.579	305
743.979	333.09
744.379	389.26
744.78	358.83
745.18	316.7
745.58	344.79
745.98	293.3
746.38	330.75
746.78	326.07
747.18	323.73
747.58	333.09
747.98	297.98
748.38	283.94
748.779	286.28
749.179	363.51
749.578	321.38
749.978	272.23
750.377	354.15
750.777	279.26
751.176	239.47
751.575	293.3
751.975	333.09
752.374	323.73
752.773	300.32
753.172	297.98
753.571	326.07
753.97	255.85
754.369	283.94
754.768	328.41
755.166	314.36
755.565	290.96
755.964	316.7
756.362	288.62
756.761	375.22
757.159	372.88
757.558	253.51
757.956	337.77
758.354	309.68
758.753	333.09
759.151	290.96
759.549	295.64
759.947	342.45
760.345	342.45
760.743	302.66
761.141	290.96
761.539	349.47
761.936	293.3
762.334	321.38
762.732	330.75
763.129	361.17
763.527	363.51
763.924	335.43
764.322	321.38
764.719	335.43
765.117	349.47
765.514	337.77
765.911	347.13
766.308	335.43
766.705	253.51
767.102	297.98
767.499	342.45
767.896	356.49
768.293	342.45
768.69	384.58
769.086	351.81
769.483	307.34
769.88	333.09
770.276	279.26
770.673	328.41
771.069	312.02
771.466	337.77
771.862	335.43
772.258	342.45
772.654	314.36
773.05	297.98
773.447	328.41
773.843	398.62
774.239	293.3
774.634	297.98
775.03	305
775.426	234.78
775.822	279.26
776.218	293.3
776.613	347.13
777.009	330.75
777.404	342.45
777.8	351.81
778.195	312.02
778.59	295.64
778.986	293.3
779.381	354.15
779.776	307.34
780.171	316.7
780.566	232.44
780.961	316.7
781.356	295.64
781.751	234.78
782.146	276.91
782.54	319.04
782.935	351.81
783.33	288.62
783.724	309.68
784.119	330.75
784.513	272.23
784.908	335.43
785.302	365.85
785.696	267.55
786.09	372.88
786.485	342.45
786.879	375.22
787.273	300.32
787.667	363.51
788.061	361.17
788.454	302.66
788.848	305
789.242	309.68
789.636	300.32
790.029	321.38
790.423	326.07
790.816	274.57
791.21	379.9
791.603	407.98
791.997	321.38
792.39	337.77
792.783	307.34
793.176	279.26
793.569	316.7
793.962	340.11
794.355	333.09
794.748	309.68
795.141	323.73
795.534	389.26
795.927	316.7
796.319	321.38
796.712	342.45
797.105	302.66
797.497	340.11
797.89	351.81
798.282	349.47
798.674	307.34
799.067	344.79
799.459	302.66
799.851	344.79
800.243	255.85
800.635	300.32
801.027	267.55
801.419	283.94
801.811	342.45
802.203	344.79
802.594	276.91
802.986	321.38
803.378	260.53
803.769	288.62
804.161	328.41
804.552	297.98
804.944	326.07
805.335	319.04
805.726	314.36
806.118	290.96
806.509	290.96
806.9	309.68
807.291	286.28
807.682	396.28
808.073	347.13
808.464	356.49
808.855	295.64
809.245	340.11
809.636	283.94
810.027	356.49
810.417	267.55
810.808	340.11
811.198	354.15
811.589	400.96
811.979	319.04
812.369	312.02
812.759	293.3
813.15	328.41
813.54	319.04
813.93	290.96
814.32	283.94
814.71	335.43
815.1	281.6
815.489	361.17
815.879	314.36
816.269	312.02
816.658	309.68
817.048	351.81
817.438	410.33
817.827	246.49
818.216	368.2
818.606	351.81
818.995	354.15
819.384	300.32
819.773	307.34
820.163	358.83
820.552	302.66
820.941	417.35
821.33	370.54
821.718	393.94
822.107	330.75
822.496	368.2
822.885	405.64
823.273	288.62
823.662	300.32
824.05	354.15
824.439	312.02
824.827	246.49
825.216	276.91
825.604	281.6
825.992	314.36
826.38	377.56
826.768	260.53
827.156	302.66
827.544	305
827.932	302.66
828.32	330.75
828.708	323.73
829.096	386.92
829.483	349.47
829.871	354.15
830.259	265.21
830.646	354.15
831.034	307.34
831.421	358.83
831.808	276.91
832.196	321.38
832.583	295.64
832.97	267.55
833.357	386.92
833.744	340.11
834.131	274.57
834.518	354.15
834.905	335.43
835.292	344.79
835.678	269.89
836.065	307.34
836.452	314.36
836.838	300.32
837.225	319.04
837.611	328.41
837.998	328.41
838.384	246.49
838.77	347.13
839.157	323.73
839.543	337.77
839.929	234.78
840.315	293.3
840.701	323.73
841.087	335.43
841.473	281.6
841.858	328.41
842.244	232.44
842.63	307.34
843.015	295.64
843.401	370.54
843.787	295.64
844.172	328.41
844.557	281.6
844.943	246.49
845.328	297.98
845.713	241.81
846.098	342.45
846.483	319.04
846.868	293.3
847.253	365.85
847.638	305
848.023	283.94
848.408	356.49
848.793	372.88
849.177	351.81
849.562	316.7
849.947	312.02
850.331	323.73
850.715	328.41
851.1	326.07
851.484	305
851.868	340.11
852.253	340.11
852.637	333.09
853.021	314.36
853.405	372.88
853.789	326.07
854.173	326.07
854.557	279.26
854.94	326.07
855.324	305
855.708	305
856.091	361.17
856.475	356.49
856.858	328.41
857.242	302.66
857.625	335.43
858.009	288.62
858.392	248.83
858.775	290.96
859.158	326.07
859.541	370.54
859.924	328.41
860.307	349.47
860.69	276.91
861.073	290.96
861.456	307.34
861.838	351.81
862.221	340.11
862.604	358.83
862.986	337.77
863.369	300.32
863.751	312.02
864.133	312.02
864.516	340.11
864.898	305
865.28	379.9
865.662	326.07
866.044	354.15
866.426	260.53
866.808	316.7
867.19	297.98
867.572	253.51
867.954	262.87
868.336	356.49
868.717	305
869.099	281.6
869.48	290.96
869.862	333.09
870.243	337.77
870.625	283.94
871.006	267.55
871.387	276.91
871.768	312.02
872.149	328.41
872.53	274.57
872.911	321.38
873.292	354.15
873.673	288.62
874.054	295.64
874.435	330.75
874.815	358.83
875.196	319.04
875.577	309.68
875.957	307.34
876.338	335.43
876.718	354.15
877.098	370.54
877.479	225.42
877.859	290.96
878.239	309.68
878.619	272.23
878.999	293.3
879.379	253.51
879.759	239.47
880.139	347.13
880.519	333.09
880.898	297.98
881.278	309.68
881.658	297.98
882.037	417.35
882.417	307.34
882.796	323.73
883.176	239.47
883.555	342.45
883.934	330.75
884.313	333.09
884.693	335.43
885.072	344.79
885.451	330.75
885.83	344.79
886.209	279.26
886.587	305
886.966	356.49
887.345	293.3
887.724	328.41
888.102	276.91
888.481	330.75
888.859	267.55
889.238	312.02
889.616	328.41
889.994	340.11
890.373	377.56
890.751	269.89
891.129	321.38
891.507	272.23
891.885	377.56
892.263	316.7
892.641	347.13
893.019	312.02
893.396	342.45
893.774	335.43
894.152	319.04
894.529	300.32
894.907	307.34
895.284	307.34
895.662	286.28
896.039	323.73
896.416	295.64
896.794	319.04
897.171	276.91
897.548	335.43
897.925	368.2
898.302	335.43
898.679	272.23
899.056	316.7
899.433	337.77
899.809	340.11
900.186	295.64
900.563	351.81
900.939	290.96
901.316	290.96
901.692	330.75
902.069	307.34
902.445	312.02
902.821	305
903.197	290.96
903.574	335.43
903.95	295.64
904.326	293.3
904.702	321.38
905.078	351.81
905.454	309.68
905.829	330.75
906.205	293.3
906.581	302.66
906.956	288.62
907.332	323.73
907.707	297.98
908.083	302.66
908.458	293.3
908.833	230.1
909.209	340.11
909.584	323.73
909.959	354.15
910.334	251.17
910.709	330.75
911.084	297.98
911.459	297.98
911.834	379.9
912.209	393.94
912.583	340.11
912.958	323.73
913.333	365.85
913.707	340.11
914.082	337.77
914.456	316.7
914.83	349.47
915.205	314.36
915.579	288.62
915.953	323.73
916.327	295.64
916.701	269.89
917.075	283.94
917.449	319.04
917.823	372.88
918.197	349.47
918.571	323.73
918.944	297.98
919.318	290.96
919.692	347.13
920.065	269.89
920.438	344.79
920.812	314.36
921.185	319.04
921.558	319.04
921.932	244.15
922.305	295.64
922.678	269.89
923.051	290.96
923.424	305
923.797	337.77
924.17	279.26
924.542	319.04
924.915	319.04
925.288	269.89
925.661	323.73
926.033	309.68
926.406	300.32
926.778	305
927.15	337.77
927.523	302.66
927.895	305
928.267	309.68
928.639	316.7
929.011	342.45
929.383	316.7
929.755	307.34
930.127	342.45
930.499	295.64
930.871	316.7
931.242	272.23
931.614	262.87
931.986	297.98
932.357	316.7
932.729	258.19
933.1	319.04
933.471	319.04
933.843	323.73
934.214	309.68
934.585	260.53
934.956	281.6
935.327	319.04
935.698	283.94
936.069	337.77
936.44	309.68
936.811	379.9
937.182	290.96
937.552	354.15
937.923	290.96
938.293	328.41
938.664	340.11
939.034	290.96
939.405	295.64
939.775	361.17
940.145	244.15
940.516	297.98
940.886	267.55
941.256	297.98
941.626	241.81
941.996	319.04
942.366	328.41
942.735	307.34
943.105	267.55
943.475	262.87
943.845	398.62
944.214	337.77
944.584	272.23
944.953	297.98
945.323	290.96
945.692	354.15
946.061	314.36
946.43	356.49
946.8	295.64
947.169	309.68
947.538	333.09
947.907	269.89
948.276	328.41
948.645	283.94
949.013	309.68
949.382	279.26
949.751	309.68
950.119	286.28
950.488	269.89
950.857	309.68
951.225	258.19
951.593	328.41
951.962	321.38
952.33	342.45
952.698	309.68
953.066	312.02
953.434	319.04
953.802	354.15
954.17	330.75
954.538	319.04
954.906	321.38
955.274	333.09
955.642	314.36
956.009	312.02
956.377	356.49
956.744	297.98
957.112	279.26
957.479	307.34
957.847	302.66
958.214	333.09
958.581	375.22
958.948	347.13
959.315	365.85
959.683	344.79
960.05	340.11
960.416	328.41
960.783	319.04
961.15	272.23
961.517	361.17
961.884	316.7
962.25	272.23
962.617	337.77
962.983	379.9
963.35	316.7
963.716	323.73
964.082	319.04
964.449	286.28
964.815	330.75
965.181	342.45
965.547	326.07
965.913	323.73
966.279	274.57
966.645	297.98
967.011	274.57
967.377	276.91
967.742	344.79
968.108	312.02
968.474	328.41
968.839	307.34
969.205	265.21
969.57	305
969.935	316.7
970.301	309.68
970.666	305
971.031	330.75
971.396	326.07
971.761	267.55
972.126	342.45
972.491	321.38
972.856	269.89
973.221	267.55
973.586	321.38
973.95	307.34
974.315	316.7
974.679	337.77
975.044	316.7
975.408	288.62
975.773	290.96
976.137	319.04
976.501	323.73
976.866	290.96
977.23	337.77
977.594	333.09
977.958	319.04
978.322	330.75
978.686	216.06
979.049	286.28
979.413	297.98
979.777	384.58
980.141	260.53
980.504	305
980.868	321.38
981.231	337.77
981.595	319.04
981.958	290.96
982.321	349.47
982.684	349.47
983.048	347.13
983.411	375.22
983.774	328.41
984.137	326.07
984.5	358.83
984.862	375.22
985.225	375.22
985.588	290.96
985.951	300.32
986.313	321.38
986.676	333.09
987.038	295.64
987.401	361.17
987.763	328.41
988.125	368.2
988.488	349.47
988.85	358.83
989.212	297.98
989.574	314.36
989.936	321.38
990.298	358.83
990.66	349.47
991.022	328.41
991.383	283.94
991.745	293.3
992.107	288.62
992.468	340.11
992.83	272.23
993.191	316.7
993.553	283.94
993.914	328.41
994.275	293.3
994.637	276.91
994.998	333.09
995.359	297.98
995.72	323.73
996.081	279.26
996.442	335.43
996.803	302.66
997.163	333.09
997.524	297.98
997.885	319.04
998.245	314.36
998.606	344.79
998.966	265.21
999.327	309.68
999.687	281.6
1000.047	307.34
1000.408	262.87
1000.768	368.2
1001.128	281.6
1001.488	290.96
1001.848	319.04
1002.208	351.81
1002.568	326.07
1002.927	305
1003.287	323.73
1003.647	309.68
1004.007	293.3
1004.366	347.13
1004.726	316.7
1005.085	340.11
1005.444	319.04
1005.804	321.38
1006.163	262.87
1006.522	328.41
1006.881	293.3
1007.24	351.81
1007.599	279.26
1007.958	258.19
1008.317	309.68
1008.676	358.83
1009.035	344.79
1009.393	393.94
1009.752	312.02
1010.111	351.81
1010.469	372.88
1010.828	323.73
1011.186	347.13
1011.544	335.43
1011.903	297.98
1012.261	314.36
1012.619	307.34
1012.977	309.68
1013.335	262.87
1013.693	295.64
1014.051	274.57
1014.409	253.51
1014.767	319.04
1015.124	351.81
1015.482	297.98
1015.84	354.15
1016.197	267.55
1016.555	305
1016.912	302.66
1017.269	300.32
1017.627	375.22
1017.984	237.13
1018.341	335.43
1018.698	297.98
1019.055	351.81
1019.412	365.85
1019.769	293.3
1020.126	314.36
1020.483	328.41
1020.84	307.34
1021.196	305
1021.553	312.02
1021.909	302.66
1022.266	309.68
1022.622	295.64
1022.979	297.98
1023.335	354.15
1023.691	363.51
1024.047	309.68
1024.404	358.83
1024.76	276.91
1025.116	361.17
1025.472	305
1025.827	272.23
1026.183	363.51
1026.539	251.17
1026.895	326.07
1027.25	307.34
1027.606	333.09
1027.961	356.49
1028.317	328.41
1028.672	295.64
1029.028	309.68
1029.383	312.02
1029.738	258.19
1030.093	351.81
1030.448	372.88
1030.803	295.64
1031.158	297.98
1031.513	265.21
1031.868	269.89
1032.223	295.64
1032.577	283.94
1032.932	286.28
1033.287	316.7
1033.641	333.09
1033.996	340.11
1034.35	330.75
1034.704	307.34
1035.059	272.23
1035.413	330.75
1035.767	330.75
1036.121	330.75
