Data from Al_FLMS009871__893__16-17-04-425.txt Node

Date: Fri Mar 08 16:17:04 CST 2024
User: pe5414po
Spectrometer: FLMS00987
Trigger mode: 0
Integration Time (sec): 1.000000E-1
Scans to average: 1
Electric dark correction enabled: true
Nonlinearity correction enabled: false
Boxcar width: 0
XAxis mode: Wavelengths
Number of Pixels in Spectrum: 2048
>>>>>Begin Spectral Data<<<<<
188.938	-63.78
189.409	-63.78
189.879	-63.78
190.349	-138.68
190.819	-105.91
191.29	-68.46
191.76	-159.74
192.23	-73.14
192.7	-73.14
193.17	-94.21
193.64	-14.63
194.109	-54.42
194.579	-7.61
195.049	1.76
195.519	15.8
195.988	32.18
196.458	57.93
196.927	71.97
197.397	132.83
197.866	121.12
198.336	111.76
198.805	128.14
199.274	200.7
199.744	146.87
200.213	179.64
200.682	207.72
201.151	261.55
201.62	247.51
202.089	177.3
202.558	277.94
203.027	249.85
203.495	301.34
203.964	228.79
204.433	273.26
204.902	280.28
205.37	294.32
205.839	240.49
206.307	303.68
206.776	310.71
207.244	226.45
207.712	303.68
208.181	308.37
208.649	256.87
209.117	231.13
209.585	259.21
210.053	238.15
210.521	296.66
210.989	228.79
211.457	266.24
211.925	219.43
212.393	224.11
212.861	256.87
213.328	299
213.796	261.55
214.264	289.64
214.731	212.4
215.199	270.92
215.666	282.62
216.133	268.58
216.601	268.58
217.068	200.7
217.535	184.32
218.003	245.17
218.47	214.74
218.937	238.15
219.404	242.83
219.871	238.15
220.338	235.81
220.805	254.53
221.271	261.55
221.738	217.08
222.205	252.19
222.671	231.13
223.138	151.55
223.605	268.58
224.071	217.08
224.538	193.68
225.004	228.79
225.47	226.45
225.937	252.19
226.403	226.45
226.869	294.32
227.335	200.7
227.801	301.34
228.267	334.11
228.733	259.21
229.199	214.74
229.665	242.83
230.131	259.21
230.597	238.15
231.062	261.55
231.528	306.03
231.994	273.26
232.459	233.47
232.925	238.15
233.39	226.45
233.856	247.51
234.321	259.21
234.786	193.68
235.252	280.28
235.717	273.26
236.182	247.51
236.647	275.6
237.112	275.6
237.577	193.68
238.042	189
238.507	280.28
238.972	214.74
239.436	270.92
239.901	256.87
240.366	235.81
240.83	259.21
241.295	273.26
241.76	207.72
242.224	322.41
242.688	198.36
243.153	261.55
243.617	263.9
244.081	240.49
244.545	242.83
245.01	174.96
245.474	240.49
245.938	277.94
246.402	205.38
246.866	259.21
247.33	247.51
247.793	233.47
248.257	200.7
248.721	212.4
249.185	284.96
249.648	214.74
250.112	240.49
250.575	242.83
251.039	256.87
251.502	238.15
251.965	273.26
252.429	252.19
252.892	254.53
253.355	242.83
253.818	331.77
254.281	212.4
254.744	282.62
255.207	193.68
255.67	254.53
256.133	256.87
256.596	266.24
257.059	273.26
257.522	224.11
257.984	273.26
258.447	252.19
258.909	242.83
259.372	259.21
259.834	249.85
260.297	263.9
260.759	306.03
261.221	287.3
261.684	270.92
262.146	280.28
262.608	296.66
263.07	303.68
263.532	205.38
263.994	352.84
264.456	362.2
264.918	233.47
265.38	252.19
265.842	324.75
266.303	247.51
266.765	280.28
267.227	235.81
267.688	240.49
268.15	238.15
268.611	270.92
269.072	310.71
269.534	296.66
269.995	266.24
270.456	270.92
270.918	254.53
271.379	310.71
271.84	280.28
272.301	313.05
272.762	282.62
273.223	306.03
273.684	320.07
274.144	235.81
274.605	308.37
275.066	189
275.527	247.51
275.987	226.45
276.448	259.21
276.908	291.98
277.369	240.49
277.829	308.37
278.289	277.94
278.75	289.64
279.21	268.58
279.67	270.92
280.13	324.75
280.59	299
281.05	268.58
281.51	266.24
281.97	226.45
282.43	284.96
282.89	235.81
283.35	322.41
283.809	322.41
284.269	273.26
284.729	275.6
285.188	338.79
285.648	284.96
286.107	289.64
286.567	259.21
287.026	266.24
287.485	287.3
287.944	331.77
288.404	315.39
288.863	284.96
289.322	266.24
289.781	294.32
290.24	294.32
290.699	275.6
291.158	266.24
291.616	270.92
292.075	289.64
292.534	280.28
292.992	294.32
293.451	294.32
293.91	310.71
294.368	245.17
294.827	320.07
295.285	275.6
295.743	256.87
296.202	277.94
296.66	221.77
297.118	198.36
297.576	247.51
298.034	299
298.492	270.92
298.95	280.28
299.408	291.98
299.866	270.92
300.324	282.62
300.781	291.98
301.239	310.71
301.697	268.58
302.154	287.3
302.612	287.3
303.069	324.75
303.527	287.3
303.984	270.92
304.441	247.51
304.899	284.96
305.356	238.15
305.813	322.41
306.27	277.94
306.727	252.19
307.184	238.15
307.641	270.92
308.098	266.24
308.555	299
309.012	221.77
309.468	224.11
309.925	320.07
310.382	299
310.838	263.9
311.295	345.81
311.751	221.77
312.208	277.94
312.664	277.94
313.12	263.9
313.577	357.52
314.033	303.68
314.489	299
314.945	261.55
315.401	315.39
315.857	320.07
316.313	252.19
316.769	287.3
317.225	320.07
317.681	238.15
318.136	277.94
318.592	259.21
319.048	284.96
319.503	259.21
319.959	299
320.414	256.87
320.869	252.19
321.325	214.74
321.78	200.7
322.235	231.13
322.691	219.43
323.146	343.47
323.601	268.58
324.056	299
324.511	299
324.966	317.73
325.421	270.92
325.875	270.92
326.33	235.81
326.785	217.08
327.24	245.17
327.694	249.85
328.149	254.53
328.603	306.03
329.058	301.34
329.512	320.07
329.966	284.96
330.421	301.34
330.875	266.24
331.329	310.71
331.783	301.34
332.237	284.96
332.691	324.75
333.145	289.64
333.599	301.34
334.053	249.85
334.507	303.68
334.96	210.06
335.414	263.9
335.868	254.53
336.321	327.09
336.775	336.45
337.228	355.18
337.682	287.3
338.135	338.79
338.588	277.94
339.042	259.21
339.495	291.98
339.948	289.64
340.401	338.79
340.854	256.87
341.307	313.05
341.76	254.53
342.213	273.26
342.666	268.58
343.119	299
343.571	247.51
344.024	254.53
344.477	306.03
344.929	284.96
345.382	277.94
345.834	284.96
346.287	268.58
346.739	299
347.191	336.45
347.644	256.87
348.096	242.83
348.548	275.6
349	291.98
349.452	263.9
349.904	275.6
350.356	249.85
350.808	238.15
351.26	296.66
351.711	282.62
352.163	275.6
352.615	280.28
353.066	242.83
353.518	247.51
353.969	352.84
354.421	331.77
354.872	338.79
355.324	324.75
355.775	299
356.226	299
356.677	266.24
357.128	240.49
357.579	252.19
358.03	301.34
358.481	249.85
358.932	256.87
359.383	289.64
359.834	329.43
360.285	268.58
360.735	247.51
361.186	327.09
361.637	259.21
362.087	273.26
362.538	303.68
362.988	317.73
363.438	291.98
363.889	238.15
364.339	296.66
364.789	275.6
365.239	254.53
365.689	287.3
366.139	364.54
366.589	299
367.039	294.32
367.489	310.71
367.939	322.41
368.389	291.98
368.839	315.39
369.288	261.55
369.738	296.66
370.187	317.73
370.637	362.2
371.086	327.09
371.536	273.26
371.985	284.96
372.434	221.77
372.884	294.32
373.333	310.71
373.782	235.81
374.231	303.68
374.68	284.96
375.129	322.41
375.578	282.62
376.027	324.75
376.475	242.83
376.924	289.64
377.373	242.83
377.822	306.03
378.27	350.5
378.719	287.3
379.167	296.66
379.616	259.21
380.064	313.05
380.512	303.68
380.961	266.24
381.409	317.73
381.857	261.55
382.305	341.13
382.753	284.96
383.201	303.68
383.649	221.77
384.097	291.98
384.545	294.32
384.992	303.68
385.44	247.51
385.888	261.55
386.335	315.39
386.783	317.73
387.231	303.68
387.678	284.96
388.125	352.84
388.573	228.79
389.02	273.26
389.467	299
389.914	224.11
390.362	336.45
390.809	327.09
391.256	315.39
391.703	324.75
392.15	320.07
392.596	362.2
393.043	306.03
393.49	261.55
393.937	341.13
394.383	301.34
394.83	373.9
395.276	303.68
395.723	277.94
396.169	317.73
396.616	362.2
397.062	259.21
397.508	336.45
397.954	256.87
398.401	301.34
398.847	322.41
399.293	303.68
399.739	315.39
400.185	270.92
400.631	207.72
401.076	238.15
401.522	256.87
401.968	336.45
402.414	263.9
402.859	263.9
403.305	299
403.75	270.92
404.196	287.3
404.641	282.62
405.086	329.43
405.532	268.58
405.977	254.53
406.422	270.92
406.867	263.9
407.312	254.53
407.757	280.28
408.202	324.75
408.647	287.3
409.092	291.98
409.537	231.13
409.982	296.66
410.426	284.96
410.871	261.55
411.316	306.03
411.76	308.37
412.205	266.24
412.649	359.86
413.093	348.15
413.538	345.81
413.982	259.21
414.426	289.64
414.87	308.37
415.314	310.71
415.758	273.26
416.202	270.92
416.646	296.66
417.09	320.07
417.534	291.98
417.978	277.94
418.421	306.03
418.865	280.28
419.309	320.07
419.752	320.07
420.196	247.51
420.639	266.24
421.083	329.43
421.526	277.94
421.969	315.39
422.412	270.92
422.856	252.19
423.299	287.3
423.742	280.28
424.185	308.37
424.628	273.26
425.071	296.66
425.513	299
425.956	329.43
426.399	334.11
426.842	366.88
427.284	308.37
427.727	301.34
428.169	268.58
428.612	317.73
429.054	296.66
429.497	268.58
429.939	362.2
430.381	303.68
430.823	301.34
431.265	308.37
431.707	289.64
432.149	317.73
432.591	275.6
433.033	254.53
433.475	263.9
433.917	301.34
434.359	259.21
434.8	238.15
435.242	291.98
435.684	320.07
436.125	254.53
436.567	345.81
437.008	280.28
437.449	277.94
437.891	334.11
438.332	291.98
438.773	287.3
439.214	226.45
439.656	266.24
440.097	242.83
440.538	268.58
440.978	359.86
441.419	315.39
441.86	280.28
442.301	315.39
442.742	317.73
443.182	289.64
443.623	284.96
444.063	268.58
444.504	247.51
444.944	254.53
445.385	334.11
445.825	275.6
446.265	270.92
446.706	317.73
447.146	315.39
447.586	313.05
448.026	364.54
448.466	282.62
448.906	296.66
449.346	266.24
449.786	331.77
450.225	287.3
450.665	273.26
451.105	303.68
451.544	256.87
451.984	289.64
452.424	294.32
452.863	254.53
453.302	327.09
453.742	256.87
454.181	315.39
454.62	322.41
455.059	291.98
455.499	263.9
455.938	242.83
456.377	341.13
456.816	308.37
457.254	296.66
457.693	366.88
458.132	334.11
458.571	327.09
459.01	334.11
459.448	294.32
459.887	273.26
460.325	284.96
460.764	291.98
461.202	345.81
461.641	355.18
462.079	291.98
462.517	238.15
462.955	245.17
463.393	207.72
463.832	306.03
464.27	287.3
464.708	284.96
465.145	306.03
465.583	306.03
466.021	331.77
466.459	336.45
466.897	303.68
467.334	294.32
467.772	284.96
468.209	322.41
468.647	277.94
469.084	364.54
469.522	364.54
469.959	299
470.396	303.68
470.833	327.09
471.271	268.58
471.708	301.34
472.145	315.39
472.582	336.45
473.019	357.52
473.456	355.18
473.892	315.39
474.329	275.6
474.766	366.88
475.202	320.07
475.639	301.34
476.076	256.87
476.512	317.73
476.949	273.26
477.385	324.75
477.821	310.71
478.258	327.09
478.694	277.94
479.13	315.39
479.566	294.32
480.002	306.03
480.438	301.34
480.874	275.6
481.31	303.68
481.746	331.77
482.181	313.05
482.617	329.43
483.053	294.32
483.488	275.6
483.924	350.5
484.36	308.37
484.795	259.21
485.23	322.41
485.666	313.05
486.101	242.83
486.536	291.98
486.971	373.9
487.407	317.73
487.842	299
488.277	348.15
488.712	334.11
489.146	287.3
489.581	310.71
490.016	268.58
490.451	245.17
490.885	308.37
491.32	341.13
491.755	245.17
492.189	294.32
492.624	254.53
493.058	338.79
493.492	294.32
493.927	352.84
494.361	261.55
494.795	338.79
495.229	306.03
495.663	341.13
496.097	294.32
496.531	277.94
496.965	301.34
497.399	233.47
497.833	299
498.266	266.24
498.7	256.87
499.134	282.62
499.567	310.71
500.001	343.47
500.434	327.09
500.868	327.09
501.301	282.62
501.734	334.11
502.168	294.32
502.601	263.9
503.034	263.9
503.467	334.11
503.9	327.09
504.333	294.32
504.766	320.07
505.199	277.94
505.632	313.05
506.064	366.88
506.497	359.86
506.93	231.13
507.362	228.79
507.795	256.87
508.227	277.94
508.66	270.92
509.092	275.6
509.524	308.37
509.956	299
510.389	364.54
510.821	306.03
511.253	275.6
511.685	287.3
512.117	310.71
512.549	334.11
512.981	289.64
513.412	308.37
513.844	303.68
514.276	343.47
514.707	275.6
515.139	310.71
515.571	320.07
516.002	317.73
516.433	280.28
516.865	322.41
517.296	263.9
517.727	291.98
518.159	249.85
518.59	291.98
519.021	341.13
519.452	263.9
519.883	315.39
520.314	256.87
520.744	277.94
521.175	284.96
521.606	268.58
522.037	317.73
522.467	303.68
522.898	289.64
523.328	299
523.759	294.32
524.189	240.49
524.62	266.24
525.05	259.21
525.48	268.58
525.91	280.28
526.341	275.6
526.771	317.73
527.201	308.37
527.631	270.92
528.061	320.07
528.49	341.13
528.92	352.84
529.35	259.21
529.78	338.79
530.209	296.66
530.639	308.37
531.068	364.54
531.498	341.13
531.927	338.79
532.357	313.05
532.786	291.98
533.215	282.62
533.644	266.24
534.074	240.49
534.503	289.64
534.932	291.98
535.361	277.94
535.79	289.64
536.218	284.96
536.647	282.62
537.076	296.66
537.505	308.37
537.933	324.75
538.362	266.24
538.79	268.58
539.219	322.41
539.647	273.26
540.076	313.05
540.504	299
540.932	327.09
541.36	317.73
541.788	306.03
542.217	303.68
542.645	263.9
543.073	282.62
543.5	259.21
543.928	355.18
544.356	294.32
544.784	291.98
545.211	291.98
545.639	313.05
546.067	268.58
546.494	359.86
546.922	324.75
547.349	287.3
547.776	270.92
548.204	341.13
548.631	299
549.058	313.05
549.485	280.28
549.912	268.58
550.339	261.55
550.766	324.75
551.193	247.51
551.62	268.58
552.047	233.47
552.474	277.94
552.9	261.55
553.327	261.55
553.754	322.41
554.18	324.75
554.607	317.73
555.033	217.08
555.459	306.03
555.886	341.13
556.312	224.11
556.738	291.98
557.164	306.03
557.59	261.55
558.016	331.77
558.442	315.39
558.868	371.56
559.294	331.77
559.72	268.58
560.145	303.68
560.571	383.26
560.997	294.32
561.422	238.15
561.848	336.45
562.273	331.77
562.699	273.26
563.124	270.92
563.549	322.41
563.974	291.98
564.4	294.32
564.825	310.71
565.25	231.13
565.675	336.45
566.1	193.68
566.525	270.92
566.95	310.71
567.374	294.32
567.799	310.71
568.224	341.13
568.648	357.52
569.073	273.26
569.497	289.64
569.922	287.3
570.346	317.73
570.771	273.26
571.195	320.07
571.619	310.71
572.043	341.13
572.467	263.9
572.891	357.52
573.315	263.9
573.739	277.94
574.163	294.32
574.587	306.03
575.011	306.03
575.435	277.94
575.858	303.68
576.282	289.64
576.705	289.64
577.129	336.45
577.552	294.32
577.976	313.05
578.399	282.62
578.822	296.66
579.245	315.39
579.669	373.9
580.092	308.37
580.515	334.11
580.938	289.64
581.361	359.86
581.784	301.34
582.206	310.71
582.629	294.32
583.052	259.21
583.474	266.24
583.897	315.39
584.32	282.62
584.742	336.45
585.165	242.83
585.587	294.32
586.009	303.68
586.431	277.94
586.854	212.4
587.276	315.39
587.698	252.19
588.12	308.37
588.542	308.37
588.964	308.37
589.386	331.77
589.807	263.9
590.229	273.26
590.651	287.3
591.073	334.11
591.494	289.64
591.916	301.34
592.337	324.75
592.759	322.41
593.18	327.09
593.601	343.47
594.022	287.3
594.444	284.96
594.865	322.41
595.286	240.49
595.707	331.77
596.128	355.18
596.549	336.45
596.97	275.6
597.39	256.87
597.811	284.96
598.232	310.71
598.652	334.11
599.073	289.64
599.494	317.73
599.914	280.28
600.334	277.94
600.755	411.35
601.175	362.2
601.595	282.62
602.015	212.4
602.436	261.55
602.856	338.79
603.276	280.28
603.696	212.4
604.115	327.09
604.535	329.43
604.955	320.07
605.375	315.39
605.794	303.68
606.214	329.43
606.634	277.94
607.053	306.03
607.473	303.68
607.892	336.45
608.311	324.75
608.731	299
609.15	331.77
609.569	284.96
609.988	217.08
610.407	322.41
610.826	343.47
611.245	331.77
611.664	256.87
612.083	291.98
612.501	313.05
612.92	303.68
613.339	289.64
613.757	336.45
614.176	324.75
614.594	247.51
615.013	303.68
615.431	273.26
615.85	310.71
616.268	270.92
616.686	313.05
617.104	284.96
617.522	282.62
617.94	324.75
618.358	268.58
618.776	299
619.194	224.11
619.612	282.62
620.03	280.28
620.447	219.43
620.865	291.98
621.282	362.2
621.7	282.62
622.117	282.62
622.535	317.73
622.952	315.39
623.369	317.73
623.787	287.3
624.204	268.58
624.621	306.03
625.038	228.79
625.455	268.58
625.872	266.24
626.289	313.05
626.706	317.73
627.123	355.18
627.539	270.92
627.956	242.83
628.373	350.5
628.789	306.03
629.206	291.98
629.622	315.39
630.038	301.34
630.455	284.96
630.871	369.22
631.287	245.17
631.703	294.32
632.12	324.75
632.536	270.92
632.952	294.32
633.368	235.81
633.783	284.96
634.199	261.55
634.615	263.9
635.031	327.09
635.446	263.9
635.862	294.32
636.277	315.39
636.693	380.92
637.108	320.07
637.524	343.47
637.939	341.13
638.354	308.37
638.77	233.47
639.185	334.11
639.6	303.68
640.015	336.45
640.43	273.26
640.845	235.81
641.259	299
641.674	280.28
642.089	291.98
642.504	296.66
642.918	287.3
643.333	315.39
643.747	338.79
644.162	277.94
644.576	383.26
644.991	322.41
645.405	350.5
645.819	249.85
646.233	369.22
646.647	263.9
647.061	317.73
647.475	308.37
647.889	303.68
648.303	299
648.717	315.39
649.131	329.43
649.545	287.3
649.958	228.79
650.372	282.62
650.785	280.28
651.199	291.98
651.612	294.32
652.026	313.05
652.439	324.75
652.852	324.75
653.266	310.71
653.679	294.32
654.092	294.32
654.505	261.55
654.918	313.05
655.331	310.71
655.744	303.68
656.156	266.24
656.569	249.85
656.982	341.13
657.394	301.34
657.807	331.77
658.22	238.15
658.632	294.32
659.044	252.19
659.457	254.53
659.869	284.96
660.281	341.13
660.693	303.68
661.106	259.21
661.518	268.58
661.93	270.92
662.342	341.13
662.754	261.55
663.165	317.73
663.577	280.28
663.989	329.43
664.401	322.41
664.812	380.92
665.224	273.26
665.635	315.39
666.047	254.53
666.458	303.68
666.869	336.45
667.281	310.71
667.692	294.32
668.103	306.03
668.514	191.34
668.925	320.07
669.336	249.85
669.747	284.96
670.158	261.55
670.569	280.28
670.979	268.58
671.39	280.28
671.801	322.41
672.211	329.43
672.622	287.3
673.032	280.28
673.443	277.94
673.853	266.24
674.263	273.26
674.674	289.64
675.084	268.58
675.494	350.5
675.904	266.24
676.314	217.08
676.724	301.34
677.134	303.68
677.544	275.6
677.953	284.96
678.363	254.53
678.773	291.98
679.182	280.28
679.592	294.32
680.001	289.64
680.411	329.43
680.82	277.94
681.23	231.13
681.639	256.87
682.048	212.4
682.457	287.3
682.866	280.28
683.275	261.55
683.684	303.68
684.093	308.37
684.502	313.05
684.911	324.75
685.32	315.39
685.728	294.32
686.137	329.43
686.546	313.05
686.954	266.24
687.363	247.51
687.771	228.79
688.179	268.58
688.588	284.96
688.996	289.64
689.404	308.37
689.812	299
690.22	322.41
690.628	359.86
691.036	301.34
691.444	310.71
691.852	324.75
692.26	275.6
692.667	355.18
693.075	291.98
693.483	362.2
693.89	308.37
694.298	331.77
694.705	282.62
695.112	268.58
695.52	242.83
695.927	310.71
696.334	303.68
696.741	263.9
697.148	224.11
697.555	348.15
697.962	259.21
698.369	284.96
698.776	296.66
699.183	259.21
699.59	343.47
699.996	196.02
700.403	275.6
700.81	214.74
701.216	275.6
701.623	317.73
702.029	306.03
702.435	327.09
702.842	301.34
703.248	275.6
703.654	306.03
704.06	303.68
704.466	287.3
704.872	310.71
705.278	261.55
705.684	270.92
706.09	289.64
706.496	294.32
706.901	277.94
707.307	277.94
707.712	352.84
708.118	301.34
708.523	373.9
708.929	256.87
709.334	280.28
709.74	238.15
710.145	287.3
710.55	287.3
710.955	313.05
711.36	306.03
711.765	336.45
712.17	327.09
712.575	313.05
712.98	846.69
713.385	299
713.789	277.94
714.194	334.11
714.599	303.68
715.003	327.09
715.408	315.39
715.812	303.68
716.217	350.5
716.621	317.73
717.025	362.2
717.429	294.32
717.833	308.37
718.238	270.92
718.642	324.75
719.046	242.83
719.449	313.05
719.853	273.26
720.257	282.62
720.661	238.15
721.065	249.85
721.468	345.81
721.872	212.4
722.275	291.98
722.679	299
723.082	317.73
723.485	306.03
723.889	303.68
724.292	263.9
724.695	273.26
725.098	249.85
725.501	256.87
725.904	345.81
726.307	291.98
726.71	273.26
727.113	294.32
727.516	299
727.918	320.07
728.321	296.66
728.724	296.66
729.126	364.54
729.529	291.98
729.931	324.75
730.333	280.28
730.736	317.73
731.138	324.75
731.54	291.98
731.942	275.6
732.344	277.94
732.746	287.3
733.148	327.09
733.55	277.94
733.952	299
734.354	322.41
734.756	270.92
735.157	343.47
735.559	275.6
735.96	287.3
736.362	280.28
736.763	329.43
737.165	327.09
737.566	228.79
737.967	317.73
738.368	409.01
738.77	282.62
739.171	320.07
739.572	270.92
739.973	282.62
740.374	317.73
740.774	324.75
741.175	357.52
741.576	249.85
741.977	231.13
742.377	263.9
742.778	341.13
743.178	324.75
743.579	284.96
743.979	350.5
744.379	310.71
744.78	284.96
745.18	247.51
745.58	284.96
745.98	238.15
746.38	306.03
746.78	317.73
747.18	322.41
747.58	284.96
747.98	299
748.38	303.68
748.779	310.71
749.179	327.09
749.578	341.13
749.978	254.53
750.377	275.6
750.777	263.9
751.176	263.9
751.575	280.28
751.975	329.43
752.374	256.87
752.773	263.9
753.172	324.75
753.571	245.17
753.97	338.79
754.369	341.13
754.768	291.98
755.166	308.37
755.565	306.03
755.964	273.26
756.362	270.92
756.761	301.34
757.159	207.72
757.558	284.96
757.956	282.62
758.354	310.71
758.753	291.98
759.151	315.39
759.549	266.24
759.947	226.45
760.345	268.58
760.743	282.62
761.141	303.68
761.539	299
761.936	315.39
762.334	275.6
762.732	282.62
763.129	317.73
763.527	273.26
763.924	317.73
764.322	327.09
764.719	282.62
765.117	301.34
765.514	306.03
765.911	357.52
766.308	259.21
766.705	282.62
767.102	310.71
767.499	256.87
767.896	231.13
768.293	247.51
768.69	254.53
769.086	263.9
769.483	284.96
769.88	303.68
770.276	266.24
770.673	334.11
771.069	348.15
771.466	261.55
771.862	284.96
772.258	350.5
772.654	270.92
773.05	263.9
773.447	263.9
773.843	299
774.239	247.51
774.634	254.53
775.03	334.11
775.426	259.21
775.822	320.07
776.218	280.28
776.613	268.58
777.009	303.68
777.404	341.13
777.8	277.94
778.195	329.43
778.59	256.87
778.986	322.41
779.381	280.28
779.776	313.05
780.171	287.3
780.566	364.54
780.961	275.6
781.356	310.71
781.751	322.41
782.146	238.15
782.54	291.98
782.935	294.32
783.33	291.98
783.724	303.68
784.119	308.37
784.513	282.62
784.908	266.24
785.302	282.62
785.696	331.77
786.09	287.3
786.485	273.26
786.879	284.96
787.273	282.62
787.667	308.37
788.061	252.19
788.454	301.34
788.848	327.09
789.242	338.79
789.636	291.98
790.029	287.3
790.423	268.58
790.816	291.98
791.21	263.9
791.603	310.71
791.997	313.05
792.39	284.96
792.783	343.47
793.176	263.9
793.569	301.34
793.962	252.19
794.355	303.68
794.748	280.28
795.141	254.53
795.534	329.43
795.927	343.47
796.319	299
796.712	287.3
797.105	376.24
797.497	329.43
797.89	327.09
798.282	245.17
798.674	313.05
799.067	315.39
799.459	263.9
799.851	315.39
800.243	315.39
800.635	247.51
801.027	238.15
801.419	306.03
801.811	313.05
802.203	247.51
802.594	256.87
802.986	238.15
803.378	270.92
803.769	270.92
804.161	303.68
804.552	284.96
804.944	308.37
805.335	334.11
805.726	277.94
806.118	280.28
806.509	284.96
806.9	263.9
807.291	322.41
807.682	238.15
808.073	291.98
808.464	289.64
808.855	320.07
809.245	210.06
809.636	252.19
810.027	329.43
810.417	338.79
810.808	329.43
811.198	242.83
811.589	235.81
811.979	352.84
812.369	409.01
812.759	291.98
813.15	268.58
813.54	301.34
813.93	299
814.32	289.64
814.71	301.34
815.1	299
815.489	287.3
815.879	277.94
816.269	263.9
816.658	263.9
817.048	306.03
817.438	247.51
817.827	284.96
818.216	254.53
818.606	226.45
818.995	256.87
819.384	242.83
819.773	261.55
820.163	310.71
820.552	306.03
820.941	238.15
821.33	320.07
821.718	245.17
822.107	268.58
822.496	261.55
822.885	322.41
823.273	301.34
823.662	254.53
824.05	331.77
824.439	268.58
824.827	252.19
825.216	240.49
825.604	348.15
825.992	219.43
826.38	266.24
826.768	287.3
827.156	284.96
827.544	338.79
827.932	289.64
828.32	317.73
828.708	303.68
829.096	313.05
829.483	231.13
829.871	320.07
830.259	306.03
830.646	252.19
831.034	327.09
831.421	303.68
831.808	315.39
832.196	336.45
832.583	320.07
832.97	268.58
833.357	252.19
833.744	317.73
834.131	315.39
834.518	315.39
834.905	411.35
835.292	231.13
835.678	329.43
836.065	303.68
836.452	313.05
836.838	277.94
837.225	313.05
837.611	315.39
837.998	294.32
838.384	284.96
838.77	308.37
839.157	313.05
839.543	308.37
839.929	270.92
840.315	256.87
840.701	310.71
841.087	313.05
841.473	310.71
841.858	235.81
842.244	252.19
842.63	217.08
843.015	303.68
843.401	357.52
843.787	338.79
844.172	343.47
844.557	240.49
844.943	270.92
845.328	324.75
845.713	263.9
846.098	270.92
846.483	289.64
846.868	198.36
847.253	303.68
847.638	291.98
848.023	343.47
848.408	245.17
848.793	310.71
849.177	336.45
849.562	231.13
849.947	266.24
850.331	310.71
850.715	249.85
851.1	310.71
851.484	322.41
851.868	299
852.253	301.34
852.637	289.64
853.021	277.94
853.405	289.64
853.789	282.62
854.173	259.21
854.557	348.15
854.94	294.32
855.324	320.07
855.708	221.77
856.091	289.64
856.475	343.47
856.858	350.5
857.242	263.9
857.625	266.24
858.009	231.13
858.392	331.77
858.775	308.37
859.158	329.43
859.541	284.96
859.924	341.13
860.307	341.13
860.69	338.79
861.073	334.11
861.456	303.68
861.838	308.37
862.221	336.45
862.604	310.71
862.986	345.81
863.369	303.68
863.751	315.39
864.133	296.66
864.516	268.58
864.898	315.39
865.28	289.64
865.662	252.19
866.044	308.37
866.426	280.28
866.808	256.87
867.19	268.58
867.572	277.94
867.954	310.71
868.336	315.39
868.717	294.32
869.099	275.6
869.48	242.83
869.862	273.26
870.243	299
870.625	238.15
871.006	275.6
871.387	235.81
871.768	259.21
872.149	277.94
872.53	294.32
872.911	270.92
873.292	329.43
873.673	266.24
874.054	238.15
874.435	247.51
874.815	291.98
875.196	324.75
875.577	313.05
875.957	322.41
876.338	294.32
876.718	291.98
877.098	327.09
877.479	275.6
877.859	247.51
878.239	313.05
878.619	287.3
878.999	231.13
879.379	284.96
879.759	308.37
880.139	270.92
880.519	289.64
880.898	228.79
881.278	275.6
881.658	296.66
882.037	320.07
882.417	268.58
882.796	313.05
883.176	238.15
883.555	270.92
883.934	301.34
884.313	275.6
884.693	289.64
885.072	256.87
885.451	315.39
885.83	291.98
886.209	256.87
886.587	306.03
886.966	383.26
887.345	299
887.724	329.43
888.102	238.15
888.481	359.86
888.859	231.13
889.238	306.03
889.616	268.58
889.994	247.51
890.373	247.51
890.751	317.73
891.129	270.92
891.507	284.96
891.885	256.87
892.263	303.68
892.641	245.17
893.019	338.79
893.396	369.22
893.774	289.64
894.152	299
894.529	310.71
894.907	320.07
895.284	299
895.662	296.66
896.039	315.39
896.416	296.66
896.794	268.58
897.171	371.56
897.548	280.28
897.925	299
898.302	317.73
898.679	308.37
899.056	341.13
899.433	268.58
899.809	329.43
900.186	277.94
900.563	296.66
900.939	350.5
901.316	303.68
901.692	245.17
902.069	289.64
902.445	308.37
902.821	341.13
903.197	270.92
903.574	273.26
903.95	231.13
904.326	287.3
904.702	238.15
905.078	263.9
905.454	310.71
905.829	284.96
906.205	322.41
906.581	331.77
906.956	291.98
907.332	306.03
907.707	256.87
908.083	327.09
908.458	261.55
908.833	273.26
909.209	313.05
909.584	261.55
909.959	231.13
910.334	268.58
910.709	296.66
911.084	266.24
911.459	254.53
911.834	270.92
912.209	308.37
912.583	303.68
912.958	294.32
913.333	287.3
913.707	296.66
914.082	310.71
914.456	256.87
914.83	294.32
915.205	294.32
915.579	327.09
915.953	245.17
916.327	289.64
916.701	275.6
917.075	284.96
917.449	268.58
917.823	245.17
918.197	259.21
918.571	327.09
918.944	313.05
919.318	214.74
919.692	306.03
920.065	275.6
920.438	268.58
920.812	331.77
921.185	362.2
921.558	275.6
921.932	280.28
922.305	266.24
922.678	280.28
923.051	345.81
923.424	266.24
923.797	296.66
924.17	275.6
924.542	277.94
924.915	277.94
925.288	294.32
925.661	303.68
926.033	284.96
926.406	233.47
926.778	284.96
927.15	275.6
927.523	331.77
927.895	331.77
928.267	282.62
928.639	256.87
929.011	270.92
929.383	308.37
929.755	280.28
930.127	277.94
930.499	242.83
930.871	296.66
931.242	291.98
931.614	245.17
931.986	284.96
932.357	287.3
932.729	289.64
933.1	226.45
933.471	291.98
933.843	252.19
934.214	317.73
934.585	296.66
934.956	245.17
935.327	282.62
935.698	249.85
936.069	291.98
936.44	303.68
936.811	338.79
937.182	306.03
937.552	252.19
937.923	343.47
938.293	210.06
938.664	273.26
939.034	303.68
939.405	277.94
939.775	261.55
940.145	224.11
940.516	249.85
940.886	299
941.256	228.79
941.626	268.58
941.996	310.71
942.366	270.92
942.735	259.21
943.105	308.37
943.475	327.09
943.845	320.07
944.214	282.62
944.584	275.6
944.953	221.77
945.323	343.47
945.692	334.11
946.061	306.03
946.43	345.81
946.8	308.37
947.169	308.37
947.538	299
947.907	289.64
948.276	324.75
948.645	338.79
949.013	273.26
949.382	306.03
949.751	338.79
950.119	280.28
950.488	306.03
950.857	301.34
951.225	299
951.593	245.17
951.962	296.66
952.33	280.28
952.698	315.39
953.066	306.03
953.434	306.03
953.802	317.73
954.17	254.53
954.538	322.41
954.906	247.51
955.274	266.24
955.642	254.53
956.009	301.34
956.377	331.77
956.744	289.64
957.112	317.73
957.479	291.98
957.847	320.07
958.214	270.92
958.581	273.26
958.948	320.07
959.315	282.62
959.683	277.94
960.05	240.49
960.416	263.9
960.783	268.58
961.15	291.98
961.517	350.5
961.884	303.68
962.25	277.94
962.617	270.92
962.983	268.58
963.35	331.77
963.716	313.05
964.082	294.32
964.449	366.88
964.815	317.73
965.181	299
965.547	247.51
965.913	299
966.279	263.9
966.645	320.07
967.011	282.62
967.377	280.28
967.742	324.75
968.108	231.13
968.474	273.26
968.839	320.07
969.205	231.13
969.57	284.96
969.935	289.64
970.301	277.94
970.666	277.94
971.031	299
971.396	252.19
971.761	324.75
972.126	280.28
972.491	275.6
972.856	287.3
973.221	277.94
973.586	256.87
973.95	217.08
974.315	308.37
974.679	256.87
975.044	252.19
975.408	280.28
975.773	249.85
976.137	306.03
976.501	317.73
976.866	306.03
977.23	291.98
977.594	303.68
977.958	308.37
978.322	291.98
978.686	299
979.049	320.07
979.413	275.6
979.777	254.53
980.141	348.15
980.504	352.84
980.868	254.53
981.231	256.87
981.595	282.62
981.958	306.03
982.321	275.6
982.684	301.34
983.048	327.09
983.411	245.17
983.774	270.92
984.137	294.32
984.5	301.34
984.862	348.15
985.225	287.3
985.588	343.47
985.951	303.68
986.313	254.53
986.676	268.58
987.038	233.47
987.401	256.87
987.763	299
988.125	254.53
988.488	345.81
988.85	282.62
989.212	331.77
989.574	306.03
989.936	296.66
990.298	263.9
990.66	301.34
991.022	313.05
991.383	266.24
991.745	280.28
992.107	296.66
992.468	254.53
992.83	261.55
993.191	317.73
993.553	306.03
993.914	256.87
994.275	268.58
994.637	320.07
994.998	343.47
995.359	294.32
995.72	313.05
996.081	280.28
996.442	277.94
996.803	336.45
997.163	341.13
997.524	313.05
997.885	352.84
998.245	210.06
998.606	268.58
998.966	308.37
999.327	303.68
999.687	242.83
1000.047	355.18
1000.408	266.24
1000.768	338.79
1001.128	322.41
1001.488	287.3
1001.848	315.39
1002.208	331.77
1002.568	287.3
1002.927	308.37
1003.287	289.64
1003.647	266.24
1004.007	294.32
1004.366	280.28
1004.726	277.94
1005.085	249.85
1005.444	327.09
1005.804	266.24
1006.163	273.26
1006.522	270.92
1006.881	313.05
1007.24	338.79
1007.599	284.96
1007.958	254.53
1008.317	310.71
1008.676	214.74
1009.035	315.39
1009.393	336.45
1009.752	287.3
1010.111	301.34
1010.469	282.62
1010.828	284.96
1011.186	249.85
1011.544	270.92
1011.903	268.58
1012.261	291.98
1012.619	233.47
1012.977	270.92
1013.335	282.62
1013.693	299
1014.051	221.77
1014.409	357.52
1014.767	254.53
1015.124	291.98
1015.482	324.75
1015.84	266.24
1016.197	376.24
1016.555	324.75
1016.912	315.39
1017.269	317.73
1017.627	284.96
1017.984	306.03
1018.341	289.64
1018.698	317.73
1019.055	287.3
1019.412	289.64
1019.769	299
1020.126	324.75
1020.483	291.98
1020.84	266.24
1021.196	291.98
1021.553	254.53
1021.909	359.86
1022.266	310.71
1022.622	336.45
1022.979	287.3
1023.335	315.39
1023.691	256.87
1024.047	291.98
1024.404	282.62
1024.76	308.37
1025.116	242.83
1025.472	299
1025.827	263.9
1026.183	320.07
1026.539	277.94
1026.895	235.81
1027.25	273.26
1027.606	291.98
1027.961	254.53
1028.317	252.19
1028.672	268.58
1029.028	334.11
1029.383	235.81
1029.738	320.07
1030.093	282.62
1030.448	308.37
1030.803	233.47
1031.158	287.3
1031.513	315.39
1031.868	259.21
1032.223	287.3
1032.577	296.66
1032.932	289.64
1033.287	373.9
1033.641	289.64
1033.996	280.28
1034.35	266.24
1034.704	310.71
1035.059	263.9
1035.413	315.39
1035.767	315.39
1036.121	315.39
