Data from Al_FLMS009871__967__16-20-57-819.txt Node

Date: Fri Mar 08 16:20:57 CST 2024
User: pe5414po
Spectrometer: FLMS00987
Trigger mode: 0
Integration Time (sec): 1.000000E-1
Scans to average: 1
Electric dark correction enabled: true
Nonlinearity correction enabled: false
Boxcar width: 0
XAxis mode: Wavelengths
Number of Pixels in Spectrum: 2048
>>>>>Begin Spectral Data<<<<<
188.938	-104.74
189.409	-104.74
189.879	-104.74
190.349	-53.25
190.819	-109.42
191.29	-135.17
191.76	-83.67
192.23	-118.78
192.7	-76.65
193.17	-53.25
193.64	-53.25
194.109	-4.1
194.579	-1.76
195.049	61.44
195.519	-6.44
195.988	7.61
196.458	49.74
196.927	112.93
197.397	91.87
197.866	124.63
198.336	84.84
198.805	82.5
199.274	145.7
199.744	164.42
200.213	157.4
200.682	220.6
201.151	229.96
201.62	204.21
202.089	190.17
202.558	262.73
203.027	246.34
203.495	236.98
203.964	262.73
204.433	321.24
204.902	276.77
205.37	260.38
205.839	241.66
206.307	309.54
206.776	251.02
207.244	358.69
207.712	300.17
208.181	253.36
208.649	272.09
209.117	337.62
209.585	307.2
210.053	276.77
210.521	290.81
210.989	300.17
211.457	262.73
211.925	281.45
212.393	307.2
212.861	229.96
213.328	239.32
213.796	281.45
214.264	225.28
214.731	253.36
215.199	260.38
215.666	251.02
216.133	201.87
216.601	220.6
217.068	262.73
217.535	304.85
218.003	253.36
218.47	241.66
218.937	283.79
219.404	178.47
219.871	222.94
220.338	248.68
220.805	234.64
221.271	288.47
221.738	248.68
222.205	244
222.671	269.75
223.138	229.96
223.605	258.04
224.071	194.85
224.538	248.68
225.004	220.6
225.47	222.94
225.937	269.75
226.403	220.6
226.869	180.81
227.335	279.11
227.801	281.45
228.267	267.41
228.733	279.11
229.199	232.3
229.665	262.73
230.131	253.36
230.597	260.38
231.062	290.81
231.528	215.91
231.994	197.19
232.459	272.09
232.925	234.64
233.39	272.09
233.856	323.58
234.321	262.73
234.786	215.91
235.252	290.81
235.717	234.64
236.182	302.51
236.647	272.09
237.112	229.96
237.577	234.64
238.042	211.23
238.507	222.94
238.972	281.45
239.436	288.47
239.901	332.94
240.366	269.75
240.83	253.36
241.295	234.64
241.76	300.17
242.224	269.75
242.688	178.47
243.153	290.81
243.617	272.09
244.081	267.41
244.545	272.09
245.01	281.45
245.474	258.04
245.938	300.17
246.402	190.17
246.866	272.09
247.33	332.94
247.793	265.07
248.257	286.13
248.721	321.24
249.185	281.45
249.648	349.32
250.112	208.89
250.575	260.38
251.039	241.66
251.502	304.85
251.965	222.94
252.429	185.49
252.892	206.55
253.355	281.45
253.818	297.83
254.281	286.13
254.744	272.09
255.207	159.74
255.67	281.45
256.133	262.73
256.596	236.98
257.059	295.49
257.522	276.77
257.984	300.17
258.447	286.13
258.909	251.02
259.372	265.07
259.834	297.83
260.297	253.36
260.759	241.66
261.221	267.41
261.684	297.83
262.146	262.73
262.608	346.98
263.07	276.77
263.532	307.2
263.994	309.54
264.456	267.41
264.918	300.17
265.38	241.66
265.842	201.87
266.303	262.73
266.765	302.51
267.227	314.22
267.688	286.13
268.15	274.43
268.611	262.73
269.072	227.62
269.534	302.51
269.995	283.79
270.456	260.38
270.918	304.85
271.379	321.24
271.84	279.11
272.301	288.47
272.762	323.58
273.223	321.24
273.684	279.11
274.144	262.73
274.605	290.81
275.066	344.64
275.527	279.11
275.987	187.83
276.448	215.91
276.908	295.49
277.369	309.54
277.829	183.15
278.289	309.54
278.75	286.13
279.21	307.2
279.67	262.73
280.13	293.15
280.59	314.22
281.05	260.38
281.51	234.64
281.97	309.54
282.43	227.62
282.89	307.2
283.35	248.68
283.809	253.36
284.269	370.39
284.729	236.98
285.188	281.45
285.648	279.11
286.107	300.17
286.567	307.2
287.026	311.88
287.485	290.81
287.944	342.3
288.404	239.32
288.863	258.04
289.322	311.88
289.781	281.45
290.24	307.2
290.699	274.43
291.158	232.3
291.616	293.15
292.075	304.85
292.534	295.49
292.992	288.47
293.451	239.32
293.91	227.62
294.368	330.6
294.827	316.56
295.285	244
295.743	293.15
296.202	265.07
296.66	241.66
297.118	220.6
297.576	262.73
298.034	293.15
298.492	279.11
298.95	286.13
299.408	316.56
299.866	323.58
300.324	246.34
300.781	281.45
301.239	288.47
301.697	267.41
302.154	241.66
302.612	255.7
303.069	304.85
303.527	281.45
303.984	335.28
304.441	248.68
304.899	265.07
305.356	321.24
305.813	281.45
306.27	248.68
306.727	325.92
307.184	260.38
307.641	321.24
308.098	239.32
308.555	255.7
309.012	229.96
309.468	248.68
309.925	330.6
310.382	269.75
310.838	354.01
311.295	321.24
311.751	288.47
312.208	316.56
312.664	295.49
313.12	300.17
313.577	297.83
314.033	304.85
314.489	300.17
314.945	302.51
315.401	304.85
315.857	220.6
316.313	288.47
316.769	276.77
317.225	279.11
317.681	316.56
318.136	302.51
318.592	258.04
319.048	288.47
319.503	272.09
319.959	290.81
320.414	274.43
320.869	293.15
321.325	290.81
321.78	234.64
322.235	309.54
322.691	260.38
323.146	279.11
323.601	206.55
324.056	328.26
324.511	215.91
324.966	267.41
325.421	281.45
325.875	304.85
326.33	295.49
326.785	337.62
327.24	236.98
327.694	234.64
328.149	344.64
328.603	330.6
329.058	272.09
329.512	283.79
329.966	314.22
330.421	304.85
330.875	302.51
331.329	309.54
331.783	293.15
332.237	311.88
332.691	288.47
333.145	307.2
333.599	253.36
334.053	269.75
334.507	241.66
334.96	332.94
335.414	290.81
335.868	351.67
336.321	318.9
336.775	309.54
337.228	297.83
337.682	258.04
338.135	279.11
338.588	318.9
339.042	300.17
339.495	342.3
339.948	307.2
340.401	258.04
340.854	272.09
341.307	295.49
341.76	260.38
342.213	234.64
342.666	344.64
343.119	351.67
343.571	246.34
344.024	328.26
344.477	309.54
344.929	342.3
345.382	251.02
345.834	302.51
346.287	286.13
346.739	262.73
347.191	274.43
347.644	286.13
348.096	251.02
348.548	260.38
349	304.85
349.452	339.96
349.904	269.75
350.356	304.85
350.808	314.22
351.26	283.79
351.711	218.25
352.163	337.62
352.615	339.96
353.066	283.79
353.518	302.51
353.969	279.11
354.421	304.85
354.872	269.75
355.324	307.2
355.775	302.51
356.226	272.09
356.677	288.47
357.128	290.81
357.579	300.17
358.03	297.83
358.481	304.85
358.932	318.9
359.383	351.67
359.834	253.36
360.285	281.45
360.735	279.11
361.186	332.94
361.637	288.47
362.087	295.49
362.538	290.81
362.988	300.17
363.438	302.51
363.889	239.32
364.339	260.38
364.789	295.49
365.239	328.26
365.689	232.3
366.139	279.11
366.589	281.45
367.039	330.6
367.489	309.54
367.939	337.62
368.389	286.13
368.839	300.17
369.288	255.7
369.738	295.49
370.187	272.09
370.637	311.88
371.086	379.75
371.536	316.56
371.985	236.98
372.434	276.77
372.884	251.02
373.333	297.83
373.782	295.49
374.231	279.11
374.68	288.47
375.129	239.32
375.578	337.62
376.027	283.79
376.475	384.43
376.924	276.77
377.373	325.92
377.822	309.54
378.27	335.28
378.719	346.98
379.167	339.96
379.616	281.45
380.064	281.45
380.512	318.9
380.961	300.17
381.409	316.56
381.857	272.09
382.305	281.45
382.753	328.26
383.201	248.68
383.649	272.09
384.097	300.17
384.545	309.54
384.992	272.09
385.44	344.64
385.888	314.22
386.335	332.94
386.783	314.22
387.231	258.04
387.678	262.73
388.125	236.98
388.573	363.37
389.02	274.43
389.467	372.73
389.914	262.73
390.362	302.51
390.809	300.17
391.256	316.56
391.703	281.45
392.15	272.09
392.596	288.47
393.043	258.04
393.49	290.81
393.937	309.54
394.383	267.41
394.83	281.45
395.276	288.47
395.723	304.85
396.169	239.32
396.616	377.41
397.062	346.98
397.508	314.22
397.954	307.2
398.401	302.51
398.847	349.32
399.293	314.22
399.739	307.2
400.185	412.52
400.631	316.56
401.076	204.21
401.522	321.24
401.968	309.54
402.414	290.81
402.859	304.85
403.305	328.26
403.75	316.56
404.196	281.45
404.641	272.09
405.086	297.83
405.532	337.62
405.977	295.49
406.422	276.77
406.867	332.94
407.312	300.17
407.757	267.41
408.202	171.44
408.647	260.38
409.092	246.34
409.537	286.13
409.982	311.88
410.426	311.88
410.871	281.45
411.316	330.6
411.76	307.2
412.205	269.75
412.649	325.92
413.093	309.54
413.538	363.37
413.982	286.13
414.426	281.45
414.87	272.09
415.314	356.35
415.758	295.49
416.202	358.69
416.646	304.85
417.09	342.3
417.534	356.35
417.978	307.2
418.421	222.94
418.865	307.2
419.309	325.92
419.752	239.32
420.196	337.62
420.639	211.23
421.083	346.98
421.526	295.49
421.969	260.38
422.412	276.77
422.856	335.28
423.299	262.73
423.742	330.6
424.185	318.9
424.628	288.47
425.071	295.49
425.513	286.13
425.956	227.62
426.399	323.58
426.842	300.17
427.284	265.07
427.727	293.15
428.169	265.07
428.612	344.64
429.054	281.45
429.497	293.15
429.939	325.92
430.381	321.24
430.823	276.77
431.265	258.04
431.707	330.6
432.149	342.3
432.591	302.51
433.033	316.56
433.475	297.83
433.917	325.92
434.359	279.11
434.8	316.56
435.242	379.75
435.684	342.3
436.125	309.54
436.567	332.94
437.008	225.28
437.449	222.94
437.891	368.05
438.332	295.49
438.773	311.88
439.214	365.71
439.656	309.54
440.097	255.7
440.538	344.64
440.978	349.32
441.419	346.98
441.86	281.45
442.301	335.28
442.742	267.41
443.182	330.6
443.623	332.94
444.063	356.35
444.504	290.81
444.944	302.51
445.385	302.51
445.825	232.3
446.265	300.17
446.706	258.04
447.146	354.01
447.586	316.56
448.026	361.03
448.466	295.49
448.906	311.88
449.346	295.49
449.786	234.64
450.225	354.01
450.665	246.34
451.105	274.43
451.544	260.38
451.984	323.58
452.424	286.13
452.863	236.98
453.302	358.69
453.742	286.13
454.181	283.79
454.62	307.2
455.059	339.96
455.499	279.11
455.938	274.43
456.377	251.02
456.816	384.43
457.254	297.83
457.693	281.45
458.132	255.7
458.571	276.77
459.01	300.17
459.448	295.49
459.887	342.3
460.325	260.38
460.764	283.79
461.202	290.81
461.641	288.47
462.079	307.2
462.517	304.85
462.955	335.28
463.393	309.54
463.832	318.9
464.27	248.68
464.708	279.11
465.145	267.41
465.583	276.77
466.021	276.77
466.459	344.64
466.897	342.3
467.334	279.11
467.772	302.51
468.209	302.51
468.647	300.17
469.084	325.92
469.522	356.35
469.959	288.47
470.396	279.11
470.833	351.67
471.271	309.54
471.708	286.13
472.145	323.58
472.582	290.81
473.019	325.92
473.456	267.41
473.892	321.24
474.329	269.75
474.766	332.94
475.202	281.45
475.639	339.96
476.076	283.79
476.512	290.81
476.949	321.24
477.385	295.49
477.821	269.75
478.258	297.83
478.694	286.13
479.13	321.24
479.566	241.66
480.002	281.45
480.438	342.3
480.874	297.83
481.31	339.96
481.746	328.26
482.181	290.81
482.617	283.79
483.053	328.26
483.488	274.43
483.924	281.45
484.36	375.07
484.795	265.07
485.23	342.3
485.666	325.92
486.101	356.35
486.536	253.36
486.971	288.47
487.407	316.56
487.842	342.3
488.277	300.17
488.712	304.85
489.146	300.17
489.581	286.13
490.016	325.92
490.451	346.98
490.885	255.7
491.32	342.3
491.755	269.75
492.189	300.17
492.624	328.26
493.058	274.43
493.492	255.7
493.927	328.26
494.361	328.26
494.795	361.03
495.229	288.47
495.663	358.69
496.097	295.49
496.531	318.9
496.965	325.92
497.399	351.67
497.833	316.56
498.266	330.6
498.7	370.39
499.134	286.13
499.567	349.32
500.001	309.54
500.434	279.11
500.868	274.43
501.301	269.75
501.734	293.15
502.168	332.94
502.601	332.94
503.034	283.79
503.467	393.8
503.9	321.24
504.333	297.83
504.766	279.11
505.199	330.6
505.632	262.73
506.064	307.2
506.497	229.96
506.93	300.17
507.362	297.83
507.795	314.22
508.227	337.62
508.66	293.15
509.092	253.36
509.524	295.49
509.956	274.43
510.389	272.09
510.821	316.56
511.253	370.39
511.685	251.02
512.117	274.43
512.549	300.17
512.981	286.13
513.412	325.92
513.844	332.94
514.276	325.92
514.707	318.9
515.139	288.47
515.571	365.71
516.002	279.11
516.433	309.54
516.865	300.17
517.296	318.9
517.727	328.26
518.159	295.49
518.59	295.49
519.021	351.67
519.452	300.17
519.883	272.09
520.314	311.88
520.744	325.92
521.175	316.56
521.606	379.75
522.037	323.58
522.467	265.07
522.898	295.49
523.328	286.13
523.759	246.34
524.189	335.28
524.62	293.15
525.05	372.73
525.48	325.92
525.91	288.47
526.341	346.98
526.771	316.56
527.201	234.64
527.631	304.85
528.061	361.03
528.49	192.51
528.92	276.77
529.35	286.13
529.78	279.11
530.209	354.01
530.639	297.83
531.068	297.83
531.498	311.88
531.927	304.85
532.357	244
532.786	300.17
533.215	346.98
533.644	246.34
534.074	279.11
534.503	267.41
534.932	262.73
535.361	295.49
535.79	335.28
536.218	318.9
536.647	288.47
537.076	351.67
537.505	330.6
537.933	304.85
538.362	281.45
538.79	346.98
539.219	255.7
539.647	265.07
540.076	293.15
540.504	290.81
540.932	295.49
541.36	302.51
541.788	307.2
542.217	255.7
542.645	239.32
543.073	293.15
543.5	316.56
543.928	332.94
544.356	255.7
544.784	293.15
545.211	227.62
545.639	244
546.067	349.32
546.494	339.96
546.922	321.24
547.349	321.24
547.776	323.58
548.204	377.41
548.631	241.66
549.058	265.07
549.485	321.24
549.912	321.24
550.339	316.56
550.766	309.54
551.193	222.94
551.62	288.47
552.047	307.2
552.474	323.58
552.9	304.85
553.327	328.26
553.754	356.35
554.18	323.58
554.607	354.01
555.033	283.79
555.459	300.17
555.886	346.98
556.312	274.43
556.738	309.54
557.164	354.01
557.59	281.45
558.016	286.13
558.442	251.02
558.868	272.09
559.294	351.67
559.72	276.77
560.145	377.41
560.571	314.22
560.997	318.9
561.422	251.02
561.848	255.7
562.273	255.7
562.699	297.83
563.124	361.03
563.549	281.45
563.974	325.92
564.4	274.43
564.825	295.49
565.25	288.47
565.675	328.26
566.1	300.17
566.525	260.38
566.95	236.98
567.374	258.04
567.799	281.45
568.224	290.81
568.648	300.17
569.073	283.79
569.497	330.6
569.922	300.17
570.346	276.77
570.771	220.6
571.195	335.28
571.619	302.51
572.043	253.36
572.467	307.2
572.891	339.96
573.315	337.62
573.739	316.56
574.163	314.22
574.587	253.36
575.011	293.15
575.435	332.94
575.858	309.54
576.282	283.79
576.705	314.22
577.129	316.56
577.552	227.62
577.976	332.94
578.399	293.15
578.822	302.51
579.245	365.71
579.669	297.83
580.092	297.83
580.515	251.02
580.938	288.47
581.361	332.94
581.784	300.17
582.206	281.45
582.629	281.45
583.052	328.26
583.474	307.2
583.897	281.45
584.32	351.67
584.742	318.9
585.165	365.71
585.587	375.07
586.009	356.35
586.431	344.64
586.854	281.45
587.276	253.36
587.698	286.13
588.12	272.09
588.542	304.85
588.964	342.3
589.386	323.58
589.807	279.11
590.229	356.35
590.651	321.24
591.073	344.64
591.494	260.38
591.916	332.94
592.337	244
592.759	251.02
593.18	318.9
593.601	258.04
594.022	288.47
594.444	356.35
594.865	323.58
595.286	365.71
595.707	316.56
596.128	318.9
596.549	337.62
596.97	274.43
597.39	346.98
597.811	286.13
598.232	346.98
598.652	342.3
599.073	358.69
599.494	323.58
599.914	279.11
600.334	318.9
600.755	316.56
601.175	232.3
601.595	288.47
602.015	318.9
602.436	323.58
602.856	435.92
603.276	253.36
603.696	262.73
604.115	309.54
604.535	297.83
604.955	363.37
605.375	295.49
605.794	318.9
606.214	332.94
606.634	356.35
607.053	295.49
607.473	293.15
607.892	370.39
608.311	297.83
608.731	286.13
609.15	358.69
609.569	339.96
609.988	321.24
610.407	309.54
610.826	316.56
611.245	354.01
611.664	349.32
612.083	227.62
612.501	281.45
612.92	248.68
613.339	276.77
613.757	297.83
614.176	316.56
614.594	258.04
615.013	297.83
615.431	255.7
615.85	276.77
616.268	286.13
616.686	335.28
617.104	286.13
617.522	330.6
617.94	325.92
618.358	325.92
618.776	229.96
619.194	288.47
619.612	265.07
620.03	342.3
620.447	286.13
620.865	293.15
621.282	332.94
621.7	354.01
622.117	363.37
622.535	307.2
622.952	325.92
623.369	255.7
623.787	300.17
624.204	309.54
624.621	304.85
625.038	318.9
625.455	330.6
625.872	295.49
626.289	290.81
626.706	335.28
627.123	253.36
627.539	330.6
627.956	260.38
628.373	309.54
628.789	314.22
629.206	300.17
629.622	265.07
630.038	290.81
630.455	244
630.871	227.62
631.287	323.58
631.703	293.15
632.12	300.17
632.536	258.04
632.952	307.2
633.368	316.56
633.783	307.2
634.199	328.26
634.615	311.88
635.031	300.17
635.446	290.81
635.862	286.13
636.277	304.85
636.693	311.88
637.108	281.45
637.524	328.26
637.939	251.02
638.354	288.47
638.77	330.6
639.185	314.22
639.6	328.26
640.015	253.36
640.43	248.68
640.845	368.05
641.259	368.05
641.674	281.45
642.089	267.41
642.504	251.02
642.918	349.32
643.333	269.75
643.747	295.49
644.162	232.3
644.576	346.98
644.991	251.02
645.405	379.75
645.819	274.43
646.233	286.13
646.647	304.85
647.061	286.13
647.475	232.3
647.889	349.32
648.303	283.79
648.717	269.75
649.131	311.88
649.545	290.81
649.958	283.79
650.372	321.24
650.785	351.67
651.199	297.83
651.612	276.77
652.026	349.32
652.439	302.51
652.852	321.24
653.266	304.85
653.679	382.09
654.092	368.05
654.505	339.96
654.918	302.51
655.331	368.05
655.744	328.26
656.156	213.57
656.569	321.24
656.982	316.56
657.394	297.83
657.807	281.45
658.22	318.9
658.632	321.24
659.044	323.58
659.457	300.17
659.869	286.13
660.281	267.41
660.693	297.83
661.106	279.11
661.518	267.41
661.93	279.11
662.342	335.28
662.754	323.58
663.165	318.9
663.577	307.2
663.989	323.58
664.401	328.26
664.812	283.79
665.224	258.04
665.635	318.9
666.047	288.47
666.458	272.09
666.869	302.51
667.281	288.47
667.692	267.41
668.103	267.41
668.514	300.17
668.925	297.83
669.336	309.54
669.747	316.56
670.158	283.79
670.569	328.26
670.979	309.54
671.39	253.36
671.801	356.35
672.211	260.38
672.622	300.17
673.032	215.91
673.443	244
673.853	267.41
674.263	234.64
674.674	318.9
675.084	361.03
675.494	314.22
675.904	293.15
676.314	300.17
676.724	276.77
677.134	288.47
677.544	307.2
677.953	293.15
678.363	239.32
678.773	325.92
679.182	351.67
679.592	346.98
680.001	316.56
680.411	302.51
680.82	346.98
681.23	288.47
681.639	225.28
682.048	328.26
682.457	335.28
682.866	295.49
683.275	244
683.684	300.17
684.093	300.17
684.502	276.77
684.911	358.69
685.32	304.85
685.728	290.81
686.137	304.85
686.546	297.83
686.954	372.73
687.363	311.88
687.771	309.54
688.179	279.11
688.588	258.04
688.996	290.81
689.404	344.64
689.812	281.45
690.22	300.17
690.628	311.88
691.036	262.73
691.444	318.9
691.852	314.22
692.26	272.09
692.667	297.83
693.075	229.96
693.483	342.3
693.89	368.05
694.298	323.58
694.705	248.68
695.112	325.92
695.52	274.43
695.927	297.83
696.334	288.47
696.741	325.92
697.148	281.45
697.555	288.47
697.962	290.81
698.369	328.26
698.776	304.85
699.183	300.17
699.59	304.85
699.996	290.81
700.403	234.64
700.81	297.83
701.216	272.09
701.623	335.28
702.029	318.9
702.435	314.22
702.842	295.49
703.248	281.45
703.654	253.36
704.06	258.04
704.466	288.47
704.872	311.88
705.278	384.43
705.684	276.77
706.09	325.92
706.496	309.54
706.901	288.47
707.307	300.17
707.712	330.6
708.118	309.54
708.523	286.13
708.929	351.67
709.334	337.62
709.74	321.24
710.145	300.17
710.55	335.28
710.955	288.47
711.36	314.22
711.765	311.88
712.17	393.8
712.575	286.13
712.98	674.66
713.385	335.28
713.789	330.6
714.194	314.22
714.599	349.32
715.003	314.22
715.408	318.9
715.812	265.07
716.217	288.47
716.621	302.51
717.025	344.64
717.429	248.68
717.833	344.64
718.238	290.81
718.642	279.11
719.046	351.67
719.449	279.11
719.853	286.13
720.257	304.85
720.661	314.22
721.065	279.11
721.468	300.17
721.872	302.51
722.275	325.92
722.679	269.75
723.082	267.41
723.485	286.13
723.889	288.47
724.292	276.77
724.695	300.17
725.098	302.51
725.501	265.07
725.904	276.77
726.307	330.6
726.71	314.22
727.113	232.3
727.516	302.51
727.918	283.79
728.321	269.75
728.724	208.89
729.126	356.35
729.529	255.7
729.931	311.88
730.333	304.85
730.736	269.75
731.138	328.26
731.54	316.56
731.942	269.75
732.344	330.6
732.746	337.62
733.148	281.45
733.55	258.04
733.952	276.77
734.354	269.75
734.756	304.85
735.157	318.9
735.559	316.56
735.96	330.6
736.362	375.07
736.763	251.02
737.165	300.17
737.566	309.54
737.967	293.15
738.368	361.03
738.77	300.17
739.171	239.32
739.572	342.3
739.973	321.24
740.374	293.15
740.774	281.45
741.175	274.43
741.576	316.56
741.977	269.75
742.377	316.56
742.778	370.39
743.178	269.75
743.579	318.9
743.979	332.94
744.379	290.81
744.78	279.11
745.18	328.26
745.58	318.9
745.98	293.15
746.38	309.54
746.78	314.22
747.18	304.85
747.58	225.28
747.98	279.11
748.38	290.81
748.779	339.96
749.179	222.94
749.578	323.58
749.978	281.45
750.377	351.67
750.777	279.11
751.176	332.94
751.575	274.43
751.975	346.98
752.374	372.73
752.773	300.17
753.172	269.75
753.571	316.56
753.97	342.3
754.369	328.26
754.768	304.85
755.166	356.35
755.565	361.03
755.964	297.83
756.362	318.9
756.761	311.88
757.159	267.41
757.558	293.15
757.956	328.26
758.354	361.03
758.753	274.43
759.151	321.24
759.549	349.32
759.947	295.49
760.345	335.28
760.743	288.47
761.141	283.79
761.539	302.51
761.936	316.56
762.334	318.9
762.732	351.67
763.129	260.38
763.527	293.15
763.924	361.03
764.322	370.39
764.719	339.96
765.117	346.98
765.514	354.01
765.911	349.32
766.308	293.15
766.705	293.15
767.102	290.81
767.499	225.28
767.896	321.24
768.293	222.94
768.69	297.83
769.086	370.39
769.483	267.41
769.88	297.83
770.276	361.03
770.673	290.81
771.069	311.88
771.466	335.28
771.862	262.73
772.258	330.6
772.654	328.26
773.05	330.6
773.447	262.73
773.843	361.03
774.239	330.6
774.634	318.9
775.03	302.51
775.426	239.32
775.822	274.43
776.218	302.51
776.613	234.64
777.009	288.47
777.404	372.73
777.8	288.47
778.195	349.32
778.59	328.26
778.986	375.07
779.381	267.41
779.776	314.22
780.171	302.51
780.566	309.54
780.961	346.98
781.356	382.09
781.751	199.53
782.146	283.79
782.54	229.96
782.935	318.9
783.33	328.26
783.724	297.83
784.119	325.92
784.513	274.43
784.908	272.09
785.302	314.22
785.696	267.41
786.09	239.32
786.485	260.38
786.879	323.58
787.273	297.83
787.667	372.73
788.061	316.56
788.454	342.3
788.848	330.6
789.242	332.94
789.636	276.77
790.029	295.49
790.423	208.89
790.816	255.7
791.21	283.79
791.603	274.43
791.997	293.15
792.39	265.07
792.783	269.75
793.176	265.07
793.569	335.28
793.962	339.96
794.355	297.83
794.748	342.3
795.141	358.69
795.534	290.81
795.927	321.24
796.319	290.81
796.712	283.79
797.105	321.24
797.497	361.03
797.89	321.24
798.282	253.36
798.674	363.37
799.067	354.01
799.459	325.92
799.851	288.47
800.243	309.54
800.635	253.36
801.027	309.54
801.419	314.22
801.811	290.81
802.203	229.96
802.594	267.41
802.986	314.22
803.378	283.79
803.769	300.17
804.161	325.92
804.552	307.2
804.944	293.15
805.335	302.51
805.726	225.28
806.118	295.49
806.509	262.73
806.9	293.15
807.291	321.24
807.682	304.85
808.073	307.2
808.464	290.81
808.855	316.56
809.245	307.2
809.636	232.3
810.027	295.49
810.417	262.73
810.808	295.49
811.198	272.09
811.589	323.58
811.979	325.92
812.369	286.13
812.759	283.79
813.15	295.49
813.54	321.24
813.93	286.13
814.32	251.02
814.71	269.75
815.1	302.51
815.489	330.6
815.879	269.75
816.269	351.67
816.658	267.41
817.048	330.6
817.438	274.43
817.827	300.17
818.216	251.02
818.606	265.07
818.995	344.64
819.384	283.79
819.773	304.85
820.163	295.49
820.552	274.43
820.941	323.58
821.33	316.56
821.718	293.15
822.107	279.11
822.496	279.11
822.885	293.15
823.273	314.22
823.662	269.75
824.05	304.85
824.439	300.17
824.827	354.01
825.216	335.28
825.604	361.03
825.992	288.47
826.38	342.3
826.768	314.22
827.156	262.73
827.544	307.2
827.932	304.85
828.32	354.01
828.708	368.05
829.096	290.81
829.483	272.09
829.871	302.51
830.259	309.54
830.646	227.62
831.034	300.17
831.421	281.45
831.808	330.6
832.196	281.45
832.583	307.2
832.97	295.49
833.357	300.17
833.744	265.07
834.131	248.68
834.518	290.81
834.905	330.6
835.292	337.62
835.678	297.83
836.065	368.05
836.452	309.54
836.838	297.83
837.225	304.85
837.611	276.77
837.998	241.66
838.384	262.73
838.77	225.28
839.157	255.7
839.543	293.15
839.929	309.54
840.315	346.98
840.701	309.54
841.087	251.02
841.473	316.56
841.858	244
842.244	342.3
842.63	262.73
843.015	328.26
843.401	365.71
843.787	258.04
844.172	307.2
844.557	290.81
844.943	328.26
845.328	309.54
845.713	260.38
846.098	295.49
846.483	234.64
846.868	295.49
847.253	295.49
847.638	276.77
848.023	274.43
848.408	281.45
848.793	302.51
849.177	227.62
849.562	288.47
849.947	297.83
850.331	281.45
850.715	321.24
851.1	307.2
851.484	290.81
851.868	342.3
852.253	304.85
852.637	269.75
853.021	290.81
853.405	389.11
853.789	316.56
854.173	297.83
854.557	286.13
854.94	300.17
855.324	321.24
855.708	300.17
856.091	229.96
856.475	325.92
856.858	286.13
857.242	260.38
857.625	318.9
858.009	279.11
858.392	248.68
858.775	265.07
859.158	239.32
859.541	290.81
859.924	272.09
860.307	297.83
860.69	265.07
861.073	316.56
861.456	295.49
861.838	300.17
862.221	300.17
862.604	372.73
862.986	300.17
863.369	307.2
863.751	276.77
864.133	267.41
864.516	248.68
864.898	304.85
865.28	295.49
865.662	283.79
866.044	269.75
866.426	236.98
866.808	321.24
867.19	311.88
867.572	274.43
867.954	258.04
868.336	311.88
868.717	321.24
869.099	321.24
869.48	316.56
869.862	283.79
870.243	293.15
870.625	241.66
871.006	255.7
871.387	262.73
871.768	316.56
872.149	283.79
872.53	295.49
872.911	283.79
873.292	253.36
873.673	272.09
874.054	316.56
874.435	283.79
874.815	251.02
875.196	253.36
875.577	258.04
875.957	234.64
876.338	288.47
876.718	318.9
877.098	318.9
877.479	213.57
877.859	351.67
878.239	272.09
878.619	309.54
878.999	309.54
879.379	262.73
879.759	311.88
880.139	356.35
880.519	234.64
880.898	314.22
881.278	258.04
881.658	293.15
882.037	276.77
882.417	286.13
882.796	311.88
883.176	279.11
883.555	269.75
883.934	363.37
884.313	307.2
884.693	297.83
885.072	304.85
885.451	309.54
885.83	234.64
886.209	314.22
886.587	375.07
886.966	335.28
887.345	286.13
887.724	272.09
888.102	302.51
888.481	337.62
888.859	375.07
889.238	288.47
889.616	258.04
889.994	274.43
890.373	253.36
890.751	206.55
891.129	244
891.507	293.15
891.885	255.7
892.263	314.22
892.641	300.17
893.019	272.09
893.396	255.7
893.774	288.47
894.152	372.73
894.529	309.54
894.907	281.45
895.284	307.2
895.662	272.09
896.039	290.81
896.416	314.22
896.794	295.49
897.171	244
897.548	323.58
897.925	276.77
898.302	293.15
898.679	325.92
899.056	304.85
899.433	302.51
899.809	274.43
900.186	302.51
900.563	295.49
900.939	293.15
901.316	274.43
901.692	325.92
902.069	260.38
902.445	325.92
902.821	274.43
903.197	316.56
903.574	281.45
903.95	281.45
904.326	244
904.702	246.34
905.078	304.85
905.454	290.81
905.829	281.45
906.205	244
906.581	302.51
906.956	265.07
907.332	300.17
907.707	309.54
908.083	267.41
908.458	307.2
908.833	307.2
909.209	300.17
909.584	262.73
909.959	302.51
910.334	258.04
910.709	314.22
911.084	276.77
911.459	244
911.834	279.11
912.209	311.88
912.583	279.11
912.958	321.24
913.333	286.13
913.707	309.54
914.082	339.96
914.456	342.3
914.83	283.79
915.205	265.07
915.579	290.81
915.953	302.51
916.327	288.47
916.701	260.38
917.075	269.75
917.449	295.49
917.823	400.82
918.197	342.3
918.571	295.49
918.944	314.22
919.318	288.47
919.692	304.85
920.065	265.07
920.438	307.2
920.812	316.56
921.185	295.49
921.558	288.47
921.932	297.83
922.305	337.62
922.678	318.9
923.051	246.34
923.424	318.9
923.797	267.41
924.17	300.17
924.542	286.13
924.915	297.83
925.288	239.32
925.661	283.79
926.033	300.17
926.406	283.79
926.778	290.81
927.15	339.96
927.523	302.51
927.895	290.81
928.267	354.01
928.639	281.45
929.011	274.43
929.383	297.83
929.755	300.17
930.127	300.17
930.499	304.85
930.871	354.01
931.242	304.85
931.614	290.81
931.986	295.49
932.357	321.24
932.729	267.41
933.1	358.69
933.471	286.13
933.843	325.92
934.214	288.47
934.585	279.11
934.956	302.51
935.327	283.79
935.698	253.36
936.069	281.45
936.44	267.41
936.811	293.15
937.182	283.79
937.552	272.09
937.923	309.54
938.293	321.24
938.664	293.15
939.034	279.11
939.405	304.85
939.775	276.77
940.145	293.15
940.516	232.3
940.886	267.41
941.256	241.66
941.626	232.3
941.996	302.51
942.366	304.85
942.735	321.24
943.105	323.58
943.475	295.49
943.845	335.28
944.214	246.34
944.584	232.3
944.953	330.6
945.323	265.07
945.692	295.49
946.061	349.32
946.43	328.26
946.8	349.32
947.169	297.83
947.538	251.02
947.907	382.09
948.276	332.94
948.645	283.79
949.013	328.26
949.382	304.85
949.751	253.36
950.119	260.38
950.488	349.32
950.857	276.77
951.225	251.02
951.593	290.81
951.962	304.85
952.33	335.28
952.698	293.15
953.066	258.04
953.434	234.64
953.802	293.15
954.17	272.09
954.538	293.15
954.906	297.83
955.274	323.58
955.642	297.83
956.009	220.6
956.377	274.43
956.744	361.03
957.112	316.56
957.479	290.81
957.847	302.51
958.214	344.64
958.581	251.02
958.948	323.58
959.315	346.98
959.683	330.6
960.05	290.81
960.416	328.26
960.783	330.6
961.15	290.81
961.517	269.75
961.884	328.26
962.25	239.32
962.617	293.15
962.983	295.49
963.35	295.49
963.716	239.32
964.082	302.51
964.449	363.37
964.815	274.43
965.181	302.51
965.547	349.32
965.913	307.2
966.279	309.54
966.645	354.01
967.011	344.64
967.377	251.02
967.742	248.68
968.108	332.94
968.474	346.98
968.839	253.36
969.205	300.17
969.57	363.37
969.935	265.07
970.301	323.58
970.666	304.85
971.031	323.58
971.396	300.17
971.761	288.47
972.126	335.28
972.491	274.43
972.856	279.11
973.221	318.9
973.586	304.85
973.95	295.49
974.315	265.07
974.679	276.77
975.044	272.09
975.408	344.64
975.773	339.96
976.137	283.79
976.501	335.28
976.866	304.85
977.23	332.94
977.594	260.38
977.958	302.51
978.322	314.22
978.686	283.79
979.049	297.83
979.413	229.96
979.777	302.51
980.141	227.62
980.504	386.77
980.868	318.9
981.231	316.56
981.595	232.3
981.958	302.51
982.321	302.51
982.684	272.09
983.048	286.13
983.411	286.13
983.774	279.11
984.137	339.96
984.5	300.17
984.862	251.02
985.225	316.56
985.588	309.54
985.951	288.47
986.313	290.81
986.676	248.68
987.038	248.68
987.401	290.81
987.763	290.81
988.125	361.03
988.488	269.75
988.85	283.79
989.212	304.85
989.574	314.22
989.936	330.6
990.298	258.04
990.66	251.02
991.022	316.56
991.383	251.02
991.745	307.2
992.107	279.11
992.468	258.04
992.83	300.17
993.191	314.22
993.553	309.54
993.914	244
994.275	269.75
994.637	342.3
994.998	293.15
995.359	290.81
995.72	323.58
996.081	290.81
996.442	297.83
996.803	283.79
997.163	272.09
997.524	255.7
997.885	262.73
998.245	290.81
998.606	302.51
998.966	295.49
999.327	283.79
999.687	262.73
1000.047	272.09
1000.408	330.6
1000.768	269.75
1001.128	265.07
1001.488	267.41
1001.848	290.81
1002.208	349.32
1002.568	267.41
1002.927	246.34
1003.287	260.38
1003.647	318.9
1004.007	283.79
1004.366	269.75
1004.726	344.64
1005.085	337.62
1005.444	295.49
1005.804	283.79
1006.163	290.81
1006.522	318.9
1006.881	361.03
1007.24	274.43
1007.599	283.79
1007.958	239.32
1008.317	300.17
1008.676	344.64
1009.035	339.96
1009.393	316.56
1009.752	307.2
1010.111	318.9
1010.469	309.54
1010.828	274.43
1011.186	323.58
1011.544	304.85
1011.903	309.54
1012.261	309.54
1012.619	316.56
1012.977	283.79
1013.335	321.24
1013.693	323.58
1014.051	290.81
1014.409	267.41
1014.767	297.83
1015.124	302.51
1015.482	302.51
1015.84	318.9
1016.197	339.96
1016.555	276.77
1016.912	307.2
1017.269	325.92
1017.627	300.17
1017.984	358.69
1018.341	307.2
1018.698	248.68
1019.055	295.49
1019.412	267.41
1019.769	265.07
1020.126	314.22
1020.483	283.79
1020.84	321.24
1021.196	283.79
1021.553	311.88
1021.909	265.07
1022.266	354.01
1022.622	283.79
1022.979	330.6
1023.335	297.83
1023.691	260.38
1024.047	290.81
1024.404	279.11
1024.76	363.37
1025.116	351.67
1025.472	258.04
1025.827	286.13
1026.183	187.83
1026.539	295.49
1026.895	269.75
1027.25	293.15
1027.606	325.92
1027.961	290.81
1028.317	269.75
1028.672	328.26
1029.028	222.94
1029.383	272.09
1029.738	225.28
1030.093	267.41
1030.448	262.73
1030.803	365.71
1031.158	281.45
1031.513	389.11
1031.868	330.6
1032.223	262.73
1032.577	272.09
1032.932	323.58
1033.287	293.15
1033.641	330.6
1033.996	295.49
1034.35	262.73
1034.704	274.43
1035.059	321.24
1035.413	330.6
1035.767	330.6
1036.121	330.6
