Data from Al_FLMS009871__960__16-20-57-118.txt Node

Date: Fri Mar 08 16:20:57 CST 2024
User: pe5414po
Spectrometer: FLMS00987
Trigger mode: 0
Integration Time (sec): 1.000000E-1
Scans to average: 1
Electric dark correction enabled: true
Nonlinearity correction enabled: false
Boxcar width: 0
XAxis mode: Wavelengths
Number of Pixels in Spectrum: 2048
>>>>>Begin Spectral Data<<<<<
188.938	-53.25
189.409	-53.25
189.879	-53.25
190.349	-151.55
190.819	-53.25
191.29	-81.33
191.76	-130.48
192.23	-132.83
192.7	-102.4
193.17	-43.89
193.64	-39.2
194.109	2.93
194.579	-60.27
195.049	35.69
195.519	54.42
195.988	33.35
196.458	21.65
196.927	84.84
197.397	145.7
197.866	98.89
198.336	112.93
198.805	91.87
199.274	148.04
199.744	145.7
200.213	244
200.682	157.4
201.151	164.42
201.62	253.36
202.089	258.04
202.558	204.21
203.027	206.55
203.495	215.91
203.964	246.34
204.433	328.26
204.902	276.77
205.37	236.98
205.839	232.3
206.307	274.43
206.776	307.2
207.244	267.41
207.712	274.43
208.181	295.49
208.649	293.15
209.117	300.17
209.585	281.45
210.053	260.38
210.521	258.04
210.989	293.15
211.457	330.6
211.925	311.88
212.393	215.91
212.861	253.36
213.328	349.32
213.796	307.2
214.264	269.75
214.731	302.51
215.199	307.2
215.666	246.34
216.133	229.96
216.601	248.68
217.068	297.83
217.535	215.91
218.003	265.07
218.47	225.28
218.937	220.6
219.404	272.09
219.871	288.47
220.338	222.94
220.805	222.94
221.271	197.19
221.738	269.75
222.205	248.68
222.671	253.36
223.138	234.64
223.605	246.34
224.071	164.42
224.538	145.7
225.004	236.98
225.47	236.98
225.937	222.94
226.403	211.23
226.869	281.45
227.335	251.02
227.801	316.56
228.267	248.68
228.733	248.68
229.199	213.57
229.665	272.09
230.131	276.77
230.597	206.55
231.062	220.6
231.528	229.96
231.994	274.43
232.459	253.36
232.925	199.53
233.39	258.04
233.856	267.41
234.321	288.47
234.786	316.56
235.252	246.34
235.717	211.23
236.182	281.45
236.647	295.49
237.112	234.64
237.577	265.07
238.042	244
238.507	251.02
238.972	272.09
239.436	302.51
239.901	288.47
240.366	349.32
240.83	229.96
241.295	232.3
241.76	255.7
242.224	290.81
242.688	297.83
243.153	276.77
243.617	342.3
244.081	251.02
244.545	316.56
245.01	300.17
245.474	276.77
245.938	225.28
246.402	276.77
246.866	304.85
247.33	288.47
247.793	234.64
248.257	269.75
248.721	276.77
249.185	281.45
249.648	318.9
250.112	227.62
250.575	253.36
251.039	248.68
251.502	255.7
251.965	321.24
252.429	251.02
252.892	265.07
253.355	211.23
253.818	194.85
254.281	283.79
254.744	234.64
255.207	232.3
255.67	234.64
256.133	220.6
256.596	316.56
257.059	283.79
257.522	286.13
257.984	307.2
258.447	290.81
258.909	290.81
259.372	302.51
259.834	276.77
260.297	276.77
260.759	321.24
261.221	279.11
261.684	293.15
262.146	272.09
262.608	328.26
263.07	293.15
263.532	276.77
263.994	283.79
264.456	265.07
264.918	288.47
265.38	227.62
265.842	272.09
266.303	260.38
266.765	293.15
267.227	262.73
267.688	246.34
268.15	265.07
268.611	253.36
269.072	297.83
269.534	241.66
269.995	288.47
270.456	232.3
270.918	246.34
271.379	272.09
271.84	286.13
272.301	253.36
272.762	304.85
273.223	302.51
273.684	269.75
274.144	281.45
274.605	274.43
275.066	309.54
275.527	321.24
275.987	300.17
276.448	255.7
276.908	274.43
277.369	274.43
277.829	325.92
278.289	283.79
278.75	274.43
279.21	297.83
279.67	316.56
280.13	286.13
280.59	265.07
281.05	232.3
281.51	314.22
281.97	281.45
282.43	290.81
282.89	232.3
283.35	258.04
283.809	314.22
284.269	269.75
284.729	208.89
285.188	248.68
285.648	328.26
286.107	309.54
286.567	337.62
287.026	302.51
287.485	328.26
287.944	325.92
288.404	321.24
288.863	246.34
289.322	227.62
289.781	260.38
290.24	267.41
290.699	316.56
291.158	302.51
291.616	274.43
292.075	281.45
292.534	267.41
292.992	300.17
293.451	307.2
293.91	288.47
294.368	283.79
294.827	323.58
295.285	283.79
295.743	239.32
296.202	318.9
296.66	325.92
297.118	309.54
297.576	283.79
298.034	267.41
298.492	293.15
298.95	318.9
299.408	335.28
299.866	279.11
300.324	314.22
300.781	335.28
301.239	288.47
301.697	220.6
302.154	295.49
302.612	267.41
303.069	309.54
303.527	314.22
303.984	318.9
304.441	281.45
304.899	290.81
305.356	297.83
305.813	267.41
306.27	344.64
306.727	204.21
307.184	260.38
307.641	206.55
308.098	300.17
308.555	300.17
309.012	309.54
309.468	337.62
309.925	335.28
310.382	344.64
310.838	293.15
311.295	255.7
311.751	265.07
312.208	262.73
312.664	337.62
313.12	297.83
313.577	321.24
314.033	316.56
314.489	302.51
314.945	316.56
315.401	248.68
315.857	307.2
316.313	258.04
316.769	274.43
317.225	281.45
317.681	258.04
318.136	276.77
318.592	314.22
319.048	283.79
319.503	283.79
319.959	276.77
320.414	323.58
320.869	300.17
321.325	354.01
321.78	279.11
322.235	318.9
322.691	300.17
323.146	325.92
323.601	225.28
324.056	229.96
324.511	325.92
324.966	232.3
325.421	225.28
325.875	269.75
326.33	318.9
326.785	295.49
327.24	295.49
327.694	358.69
328.149	332.94
328.603	279.11
329.058	286.13
329.512	267.41
329.966	236.98
330.421	314.22
330.875	262.73
331.329	328.26
331.783	281.45
332.237	283.79
332.691	323.58
333.145	358.69
333.599	311.88
334.053	269.75
334.507	330.6
334.96	323.58
335.414	241.66
335.868	283.79
336.321	267.41
336.775	241.66
337.228	290.81
337.682	300.17
338.135	274.43
338.588	346.98
339.042	276.77
339.495	349.32
339.948	307.2
340.401	330.6
340.854	316.56
341.307	272.09
341.76	307.2
342.213	290.81
342.666	307.2
343.119	234.64
343.571	321.24
344.024	309.54
344.477	293.15
344.929	248.68
345.382	274.43
345.834	358.69
346.287	311.88
346.739	190.17
347.191	300.17
347.644	251.02
348.096	269.75
348.548	283.79
349	279.11
349.452	293.15
349.904	295.49
350.356	332.94
350.808	325.92
351.26	248.68
351.711	335.28
352.163	239.32
352.615	323.58
353.066	295.49
353.518	253.36
353.969	314.22
354.421	365.71
354.872	314.22
355.324	346.98
355.775	302.51
356.226	342.3
356.677	293.15
357.128	253.36
357.579	354.01
358.03	307.2
358.481	290.81
358.932	293.15
359.383	269.75
359.834	286.13
360.285	300.17
360.735	232.3
361.186	283.79
361.637	328.26
362.087	290.81
362.538	349.32
362.988	318.9
363.438	316.56
363.889	330.6
364.339	354.01
364.789	307.2
365.239	288.47
365.689	356.35
366.139	330.6
366.589	337.62
367.039	262.73
367.489	309.54
367.939	354.01
368.389	330.6
368.839	297.83
369.288	330.6
369.738	288.47
370.187	225.28
370.637	274.43
371.086	323.58
371.536	330.6
371.985	295.49
372.434	358.69
372.884	302.51
373.333	286.13
373.782	265.07
374.231	295.49
374.68	293.15
375.129	325.92
375.578	239.32
376.027	288.47
376.475	323.58
376.924	302.51
377.373	272.09
377.822	332.94
378.27	300.17
378.719	304.85
379.167	316.56
379.616	316.56
380.064	314.22
380.512	321.24
380.961	309.54
381.409	318.9
381.857	332.94
382.305	258.04
382.753	302.51
383.201	330.6
383.649	405.5
384.097	304.85
384.545	295.49
384.992	297.83
385.44	339.96
385.888	307.2
386.335	337.62
386.783	286.13
387.231	342.3
387.678	339.96
388.125	328.26
388.573	279.11
389.02	225.28
389.467	267.41
389.914	265.07
390.362	307.2
390.809	332.94
391.256	325.92
391.703	276.77
392.15	241.66
392.596	300.17
393.043	314.22
393.49	342.3
393.937	304.85
394.383	267.41
394.83	325.92
395.276	258.04
395.723	262.73
396.169	361.03
396.616	323.58
397.062	300.17
397.508	253.36
397.954	260.38
398.401	300.17
398.847	328.26
399.293	260.38
399.739	260.38
400.185	304.85
400.631	330.6
401.076	297.83
401.522	346.98
401.968	300.17
402.414	267.41
402.859	349.32
403.305	337.62
403.75	316.56
404.196	265.07
404.641	356.35
405.086	368.05
405.532	251.02
405.977	234.64
406.422	311.88
406.867	330.6
407.312	335.28
407.757	290.81
408.202	236.98
408.647	246.34
409.092	321.24
409.537	379.75
409.982	325.92
410.426	307.2
410.871	302.51
411.316	316.56
411.76	337.62
412.205	300.17
412.649	337.62
413.093	311.88
413.538	272.09
413.982	236.98
414.426	265.07
414.87	279.11
415.314	279.11
415.758	311.88
416.202	302.51
416.646	335.28
417.09	323.58
417.534	309.54
417.978	302.51
418.421	335.28
418.865	281.45
419.309	286.13
419.752	288.47
420.196	297.83
420.639	323.58
421.083	302.51
421.526	295.49
421.969	328.26
422.412	295.49
422.856	262.73
423.299	311.88
423.742	290.81
424.185	293.15
424.628	342.3
425.071	325.92
425.513	236.98
425.956	307.2
426.399	339.96
426.842	323.58
427.284	318.9
427.727	344.64
428.169	309.54
428.612	358.69
429.054	258.04
429.497	321.24
429.939	286.13
430.381	293.15
430.823	297.83
431.265	272.09
431.707	307.2
432.149	295.49
432.591	325.92
433.033	300.17
433.475	307.2
433.917	272.09
434.359	351.67
434.8	332.94
435.242	321.24
435.684	356.35
436.125	288.47
436.567	351.67
437.008	361.03
437.449	316.56
437.891	325.92
438.332	300.17
438.773	309.54
439.214	403.16
439.656	295.49
440.097	323.58
440.538	316.56
440.978	307.2
441.419	307.2
441.86	375.07
442.301	323.58
442.742	276.77
443.182	300.17
443.623	314.22
444.063	307.2
444.504	318.9
444.944	346.98
445.385	363.37
445.825	309.54
446.265	351.67
446.706	307.2
447.146	321.24
447.586	318.9
448.026	288.47
448.466	314.22
448.906	323.58
449.346	325.92
449.786	307.2
450.225	361.03
450.665	337.62
451.105	337.62
451.544	211.23
451.984	290.81
452.424	290.81
452.863	293.15
453.302	330.6
453.742	309.54
454.181	274.43
454.62	297.83
455.059	293.15
455.499	274.43
455.938	335.28
456.377	265.07
456.816	281.45
457.254	325.92
457.693	396.14
458.132	323.58
458.571	307.2
459.01	330.6
459.448	328.26
459.887	208.89
460.325	342.3
460.764	267.41
461.202	339.96
461.641	293.15
462.079	358.69
462.517	304.85
462.955	365.71
463.393	283.79
463.832	302.51
464.27	354.01
464.708	281.45
465.145	349.32
465.583	358.69
466.021	274.43
466.459	309.54
466.897	330.6
467.334	246.34
467.772	269.75
468.209	349.32
468.647	311.88
469.084	222.94
469.522	363.37
469.959	323.58
470.396	316.56
470.833	321.24
471.271	295.49
471.708	295.49
472.145	323.58
472.582	346.98
473.019	321.24
473.456	332.94
473.892	332.94
474.329	318.9
474.766	330.6
475.202	297.83
475.639	281.45
476.076	309.54
476.512	358.69
476.949	321.24
477.385	258.04
477.821	321.24
478.258	293.15
478.694	330.6
479.13	297.83
479.566	276.77
480.002	283.79
480.438	288.47
480.874	293.15
481.31	281.45
481.746	286.13
482.181	344.64
482.617	286.13
483.053	349.32
483.488	288.47
483.924	365.71
484.36	342.3
484.795	290.81
485.23	274.43
485.666	346.98
486.101	344.64
486.536	337.62
486.971	279.11
487.407	311.88
487.842	246.34
488.277	314.22
488.712	269.75
489.146	332.94
489.581	311.88
490.016	321.24
490.451	332.94
490.885	197.19
491.32	328.26
491.755	222.94
492.189	325.92
492.624	304.85
493.058	358.69
493.492	325.92
493.927	351.67
494.361	276.77
494.795	272.09
495.229	297.83
495.663	295.49
496.097	281.45
496.531	295.49
496.965	288.47
497.399	281.45
497.833	309.54
498.266	279.11
498.7	323.58
499.134	342.3
499.567	354.01
500.001	283.79
500.434	253.36
500.868	272.09
501.301	300.17
501.734	267.41
502.168	288.47
502.601	288.47
503.034	368.05
503.467	358.69
503.9	323.58
504.333	361.03
504.766	365.71
505.199	302.51
505.632	321.24
506.064	309.54
506.497	244
506.93	283.79
507.362	307.2
507.795	255.7
508.227	297.83
508.66	279.11
509.092	321.24
509.524	332.94
509.956	222.94
510.389	314.22
510.821	346.98
511.253	316.56
511.685	314.22
512.117	304.85
512.549	351.67
512.981	325.92
513.412	262.73
513.844	286.13
514.276	244
514.707	332.94
515.139	248.68
515.571	283.79
516.002	272.09
516.433	293.15
516.865	323.58
517.296	300.17
517.727	363.37
518.159	293.15
518.59	311.88
519.021	337.62
519.452	293.15
519.883	332.94
520.314	335.28
520.744	311.88
521.175	283.79
521.606	325.92
522.037	300.17
522.467	318.9
522.898	344.64
523.328	274.43
523.759	258.04
524.189	307.2
524.62	302.51
525.05	234.64
525.48	316.56
525.91	276.77
526.341	276.77
526.771	302.51
527.201	297.83
527.631	248.68
528.061	281.45
528.49	342.3
528.92	255.7
529.35	286.13
529.78	314.22
530.209	349.32
530.639	314.22
531.068	293.15
531.498	318.9
531.927	281.45
532.357	293.15
532.786	262.73
533.215	288.47
533.644	321.24
534.074	321.24
534.503	269.75
534.932	349.32
535.361	342.3
535.79	307.2
536.218	307.2
536.647	337.62
537.076	265.07
537.505	281.45
537.933	262.73
538.362	342.3
538.79	316.56
539.219	339.96
539.647	274.43
540.076	293.15
540.504	370.39
540.932	262.73
541.36	279.11
541.788	302.51
542.217	339.96
542.645	314.22
543.073	283.79
543.5	318.9
543.928	339.96
544.356	311.88
544.784	332.94
545.211	330.6
545.639	316.56
546.067	297.83
546.494	288.47
546.922	379.75
547.349	274.43
547.776	286.13
548.204	314.22
548.631	272.09
549.058	267.41
549.485	307.2
549.912	276.77
550.339	262.73
550.766	269.75
551.193	267.41
551.62	253.36
552.047	309.54
552.474	386.77
552.9	262.73
553.327	314.22
553.754	339.96
554.18	279.11
554.607	283.79
555.033	307.2
555.459	365.71
555.886	279.11
556.312	328.26
556.738	297.83
557.164	328.26
557.59	255.7
558.016	328.26
558.442	311.88
558.868	309.54
559.294	372.73
559.72	279.11
560.145	321.24
560.571	311.88
560.997	311.88
561.422	267.41
561.848	370.39
562.273	311.88
562.699	382.09
563.124	321.24
563.549	332.94
563.974	295.49
564.4	316.56
564.825	361.03
565.25	279.11
565.675	295.49
566.1	342.3
566.525	417.2
566.95	309.54
567.374	286.13
567.799	328.26
568.224	290.81
568.648	370.39
569.073	316.56
569.497	365.71
569.922	279.11
570.346	307.2
570.771	304.85
571.195	239.32
571.619	321.24
572.043	337.62
572.467	314.22
572.891	314.22
573.315	356.35
573.739	344.64
574.163	321.24
574.587	300.17
575.011	281.45
575.435	321.24
575.858	318.9
576.282	288.47
576.705	321.24
577.129	307.2
577.552	349.32
577.976	349.32
578.399	351.67
578.822	321.24
579.245	328.26
579.669	311.88
580.092	325.92
580.515	300.17
580.938	335.28
581.361	288.47
581.784	302.51
582.206	258.04
582.629	311.88
583.052	309.54
583.474	286.13
583.897	358.69
584.32	258.04
584.742	321.24
585.165	339.96
585.587	342.3
586.009	311.88
586.431	286.13
586.854	288.47
587.276	311.88
587.698	328.26
588.12	274.43
588.542	356.35
588.964	258.04
589.386	363.37
589.807	321.24
590.229	251.02
590.651	265.07
591.073	300.17
591.494	290.81
591.916	297.83
592.337	281.45
592.759	302.51
593.18	274.43
593.601	325.92
594.022	276.77
594.444	255.7
594.865	293.15
595.286	330.6
595.707	314.22
596.128	281.45
596.549	311.88
596.97	316.56
597.39	316.56
597.811	290.81
598.232	288.47
598.652	279.11
599.073	318.9
599.494	384.43
599.914	269.75
600.334	281.45
600.755	267.41
601.175	316.56
601.595	302.51
602.015	281.45
602.436	307.2
602.856	398.48
603.276	267.41
603.696	330.6
604.115	297.83
604.535	314.22
604.955	351.67
605.375	290.81
605.794	377.41
606.214	272.09
606.634	276.77
607.053	346.98
607.473	330.6
607.892	255.7
608.311	283.79
608.731	295.49
609.15	349.32
609.569	255.7
609.988	288.47
610.407	330.6
610.826	337.62
611.245	316.56
611.664	358.69
612.083	286.13
612.501	316.56
612.92	288.47
613.339	309.54
613.757	302.51
614.176	276.77
614.594	304.85
615.013	314.22
615.431	316.56
615.85	269.75
616.268	309.54
616.686	318.9
617.104	379.75
617.522	234.64
617.94	295.49
618.358	274.43
618.776	396.14
619.194	318.9
619.612	265.07
620.03	337.62
620.447	330.6
620.865	283.79
621.282	260.38
621.7	302.51
622.117	269.75
622.535	335.28
622.952	269.75
623.369	300.17
623.787	316.56
624.204	314.22
624.621	272.09
625.038	272.09
625.455	325.92
625.872	323.58
626.289	318.9
626.706	274.43
627.123	241.66
627.539	332.94
627.956	309.54
628.373	288.47
628.789	246.34
629.206	290.81
629.622	318.9
630.038	274.43
630.455	267.41
630.871	321.24
631.287	344.64
631.703	321.24
632.12	307.2
632.536	332.94
632.952	311.88
633.368	365.71
633.783	339.96
634.199	314.22
634.615	337.62
635.031	307.2
635.446	265.07
635.862	335.28
636.277	309.54
636.693	260.38
637.108	300.17
637.524	311.88
637.939	276.77
638.354	321.24
638.77	332.94
639.185	321.24
639.6	297.83
640.015	309.54
640.43	297.83
640.845	286.13
641.259	316.56
641.674	318.9
642.089	265.07
642.504	295.49
642.918	239.32
643.333	295.49
643.747	302.51
644.162	316.56
644.576	351.67
644.991	304.85
645.405	295.49
645.819	241.66
646.233	295.49
646.647	290.81
647.061	300.17
647.475	225.28
647.889	323.58
648.303	314.22
648.717	316.56
649.131	335.28
649.545	307.2
649.958	290.81
650.372	304.85
650.785	267.41
651.199	286.13
651.612	300.17
652.026	307.2
652.439	323.58
652.852	276.77
653.266	318.9
653.679	330.6
654.092	314.22
654.505	290.81
654.918	318.9
655.331	274.43
655.744	260.38
656.156	304.85
656.569	288.47
656.982	232.3
657.394	297.83
657.807	276.77
658.22	290.81
658.632	244
659.044	323.58
659.457	309.54
659.869	290.81
660.281	335.28
660.693	269.75
661.106	253.36
661.518	293.15
661.93	251.02
662.342	314.22
662.754	342.3
663.165	311.88
663.577	339.96
663.989	309.54
664.401	276.77
664.812	258.04
665.224	297.83
665.635	288.47
666.047	255.7
666.458	253.36
666.869	272.09
667.281	276.77
667.692	295.49
668.103	321.24
668.514	311.88
668.925	339.96
669.336	262.73
669.747	342.3
670.158	349.32
670.569	288.47
670.979	377.41
671.39	260.38
671.801	332.94
672.211	344.64
672.622	286.13
673.032	335.28
673.443	276.77
673.853	267.41
674.263	286.13
674.674	281.45
675.084	304.85
675.494	276.77
675.904	267.41
676.314	304.85
676.724	213.57
677.134	272.09
677.544	314.22
677.953	295.49
678.363	346.98
678.773	304.85
679.182	283.79
679.592	379.75
680.001	323.58
680.411	269.75
680.82	244
681.23	279.11
681.639	290.81
682.048	272.09
682.457	300.17
682.866	330.6
683.275	328.26
683.684	307.2
684.093	311.88
684.502	274.43
684.911	382.09
685.32	265.07
685.728	328.26
686.137	279.11
686.546	293.15
686.954	272.09
687.363	396.14
687.771	246.34
688.179	276.77
688.588	316.56
688.996	321.24
689.404	251.02
689.812	288.47
690.22	309.54
690.628	370.39
691.036	311.88
691.444	304.85
691.852	356.35
692.26	236.98
692.667	323.58
693.075	265.07
693.483	328.26
693.89	274.43
694.298	283.79
694.705	384.43
695.112	358.69
695.52	321.24
695.927	283.79
696.334	325.92
696.741	274.43
697.148	335.28
697.555	325.92
697.962	246.34
698.369	309.54
698.776	330.6
699.183	272.09
699.59	253.36
699.996	354.01
700.403	269.75
700.81	363.37
701.216	265.07
701.623	339.96
702.029	318.9
702.435	356.35
702.842	267.41
703.248	218.25
703.654	311.88
704.06	274.43
704.466	330.6
704.872	290.81
705.278	325.92
705.684	330.6
706.09	344.64
706.496	349.32
706.901	293.15
707.307	314.22
707.712	325.92
708.118	253.36
708.523	302.51
708.929	363.37
709.334	229.96
709.74	389.11
710.145	335.28
710.55	344.64
710.955	248.68
711.36	206.55
711.765	267.41
712.17	281.45
712.575	300.17
712.98	829.13
713.385	311.88
713.789	253.36
714.194	316.56
714.599	293.15
715.003	267.41
715.408	335.28
715.812	321.24
716.217	281.45
716.621	316.56
717.025	365.71
717.429	323.58
717.833	339.96
718.238	297.83
718.642	342.3
719.046	339.96
719.449	328.26
719.853	339.96
720.257	258.04
720.661	309.54
721.065	288.47
721.468	283.79
721.872	311.88
722.275	290.81
722.679	302.51
723.082	290.81
723.485	358.69
723.889	325.92
724.292	330.6
724.695	302.51
725.098	344.64
725.501	293.15
725.904	290.81
726.307	344.64
726.71	260.38
727.113	267.41
727.516	330.6
727.918	255.7
728.321	342.3
728.724	276.77
729.126	304.85
729.529	311.88
729.931	269.75
730.333	314.22
730.736	300.17
731.138	332.94
731.54	274.43
731.942	290.81
732.344	300.17
732.746	325.92
733.148	300.17
733.55	311.88
733.952	339.96
734.354	283.79
734.756	346.98
735.157	339.96
735.559	279.11
735.96	335.28
736.362	279.11
736.763	354.01
737.165	283.79
737.566	323.58
737.967	361.03
738.368	314.22
738.77	309.54
739.171	283.79
739.572	309.54
739.973	290.81
740.374	314.22
740.774	293.15
741.175	269.75
741.576	260.38
741.977	339.96
742.377	290.81
742.778	344.64
743.178	281.45
743.579	290.81
743.979	349.32
744.379	316.56
744.78	267.41
745.18	251.02
745.58	349.32
745.98	260.38
746.38	356.35
746.78	290.81
747.18	258.04
747.58	260.38
747.98	342.3
748.38	354.01
748.779	293.15
749.179	295.49
749.578	290.81
749.978	286.13
750.377	281.45
750.777	302.51
751.176	295.49
751.575	358.69
751.975	272.09
752.374	199.53
752.773	279.11
753.172	286.13
753.571	316.56
753.97	288.47
754.369	269.75
754.768	337.62
755.166	370.39
755.565	300.17
755.964	318.9
756.362	351.67
756.761	316.56
757.159	318.9
757.558	279.11
757.956	293.15
758.354	295.49
758.753	323.58
759.151	232.3
759.549	272.09
759.947	246.34
760.345	346.98
760.743	384.43
761.141	248.68
761.539	354.01
761.936	279.11
762.334	260.38
762.732	311.88
763.129	272.09
763.527	267.41
763.924	328.26
764.322	314.22
764.719	283.79
765.117	311.88
765.514	304.85
765.911	274.43
766.308	281.45
766.705	251.02
767.102	297.83
767.499	309.54
767.896	232.3
768.293	344.64
768.69	304.85
769.086	332.94
769.483	358.69
769.88	304.85
770.276	276.77
770.673	248.68
771.069	262.73
771.466	363.37
771.862	342.3
772.258	290.81
772.654	290.81
773.05	288.47
773.447	323.58
773.843	262.73
774.239	377.41
774.634	339.96
775.03	318.9
775.426	290.81
775.822	307.2
776.218	274.43
776.613	265.07
777.009	236.98
777.404	260.38
777.8	225.28
778.195	297.83
778.59	330.6
778.986	321.24
779.381	295.49
779.776	335.28
780.171	262.73
780.566	311.88
780.961	283.79
781.356	332.94
781.751	290.81
782.146	372.73
782.54	311.88
782.935	269.75
783.33	267.41
783.724	255.7
784.119	244
784.513	297.83
784.908	328.26
785.302	281.45
785.696	288.47
786.09	279.11
786.485	272.09
786.879	288.47
787.273	325.92
787.667	318.9
788.061	272.09
788.454	288.47
788.848	309.54
789.242	248.68
789.636	251.02
790.029	241.66
790.423	309.54
790.816	316.56
791.21	332.94
791.603	229.96
791.997	309.54
792.39	265.07
792.783	267.41
793.176	272.09
793.569	281.45
793.962	265.07
794.355	274.43
794.748	351.67
795.141	311.88
795.534	330.6
795.927	302.51
796.319	349.32
796.712	332.94
797.105	283.79
797.497	265.07
797.89	269.75
798.282	311.88
798.674	267.41
799.067	297.83
799.459	293.15
799.851	272.09
800.243	335.28
800.635	258.04
801.027	267.41
801.419	330.6
801.811	311.88
802.203	281.45
802.594	276.77
802.986	300.17
803.378	335.28
803.769	255.7
804.161	330.6
804.552	239.32
804.944	265.07
805.335	295.49
805.726	311.88
806.118	274.43
806.509	262.73
806.9	302.51
807.291	351.67
807.682	283.79
808.073	246.34
808.464	316.56
808.855	311.88
809.245	304.85
809.636	297.83
810.027	269.75
810.417	248.68
810.808	288.47
811.198	276.77
811.589	318.9
811.979	295.49
812.369	332.94
812.759	281.45
813.15	328.26
813.54	302.51
813.93	295.49
814.32	342.3
814.71	302.51
815.1	269.75
815.489	321.24
815.879	295.49
816.269	328.26
816.658	311.88
817.048	328.26
817.438	283.79
817.827	314.22
818.216	311.88
818.606	260.38
818.995	246.34
819.384	302.51
819.773	272.09
820.163	279.11
820.552	281.45
820.941	311.88
821.33	293.15
821.718	260.38
822.107	323.58
822.496	325.92
822.885	279.11
823.273	321.24
823.662	272.09
824.05	258.04
824.439	304.85
824.827	258.04
825.216	321.24
825.604	241.66
825.992	272.09
826.38	239.32
826.768	300.17
827.156	325.92
827.544	314.22
827.932	293.15
828.32	304.85
828.708	307.2
829.096	309.54
829.483	337.62
829.871	279.11
830.259	379.75
830.646	370.39
831.034	297.83
831.421	283.79
831.808	286.13
832.196	276.77
832.583	281.45
832.97	276.77
833.357	335.28
833.744	239.32
834.131	290.81
834.518	335.28
834.905	342.3
835.292	342.3
835.678	351.67
836.065	349.32
836.452	337.62
836.838	262.73
837.225	281.45
837.611	272.09
837.998	354.01
838.384	274.43
838.77	260.38
839.157	288.47
839.543	293.15
839.929	342.3
840.315	283.79
840.701	272.09
841.087	337.62
841.473	311.88
841.858	244
842.244	251.02
842.63	391.45
843.015	339.96
843.401	677
843.787	307.2
844.172	356.35
844.557	258.04
844.943	335.28
845.328	251.02
845.713	309.54
846.098	246.34
846.483	304.85
846.868	328.26
847.253	323.58
847.638	274.43
848.023	227.62
848.408	234.64
848.793	325.92
849.177	290.81
849.562	297.83
849.947	293.15
850.331	321.24
850.715	304.85
851.1	335.28
851.484	300.17
851.868	288.47
852.253	302.51
852.637	290.81
853.021	323.58
853.405	265.07
853.789	276.77
854.173	232.3
854.557	307.2
854.94	290.81
855.324	330.6
855.708	286.13
856.091	323.58
856.475	300.17
856.858	297.83
857.242	325.92
857.625	272.09
858.009	323.58
858.392	297.83
858.775	309.54
859.158	244
859.541	288.47
859.924	281.45
860.307	309.54
860.69	335.28
861.073	349.32
861.456	281.45
861.838	293.15
862.221	297.83
862.604	290.81
862.986	288.47
863.369	297.83
863.751	251.02
864.133	244
864.516	325.92
864.898	234.64
865.28	215.91
865.662	337.62
866.044	293.15
866.426	300.17
866.808	274.43
867.19	358.69
867.572	288.47
867.954	283.79
868.336	349.32
868.717	302.51
869.099	283.79
869.48	290.81
869.862	283.79
870.243	307.2
870.625	297.83
871.006	274.43
871.387	344.64
871.768	265.07
872.149	323.58
872.53	342.3
872.911	274.43
873.292	342.3
873.673	330.6
874.054	332.94
874.435	384.43
874.815	311.88
875.196	300.17
875.577	293.15
875.957	323.58
876.338	339.96
876.718	293.15
877.098	260.38
877.479	302.51
877.859	281.45
878.239	236.98
878.619	335.28
878.999	314.22
879.379	283.79
879.759	255.7
880.139	269.75
880.519	342.3
880.898	346.98
881.278	265.07
881.658	330.6
882.037	258.04
882.417	267.41
882.796	269.75
883.176	255.7
883.555	297.83
883.934	346.98
884.313	267.41
884.693	309.54
885.072	358.69
885.451	281.45
885.83	321.24
886.209	337.62
886.587	279.11
886.966	316.56
887.345	269.75
887.724	274.43
888.102	344.64
888.481	318.9
888.859	314.22
889.238	346.98
889.616	260.38
889.994	314.22
890.373	354.01
890.751	389.11
891.129	316.56
891.507	239.32
891.885	346.98
892.263	323.58
892.641	276.77
893.019	304.85
893.396	290.81
893.774	344.64
894.152	300.17
894.529	262.73
894.907	286.13
895.284	316.56
895.662	295.49
896.039	344.64
896.416	293.15
896.794	295.49
897.171	342.3
897.548	314.22
897.925	295.49
898.302	265.07
898.679	276.77
899.056	244
899.433	300.17
899.809	300.17
900.186	307.2
900.563	337.62
900.939	265.07
901.316	279.11
901.692	335.28
902.069	309.54
902.445	279.11
902.821	302.51
903.197	337.62
903.574	323.58
903.95	260.38
904.326	346.98
904.702	269.75
905.078	302.51
905.454	356.35
905.829	286.13
906.205	274.43
906.581	332.94
906.956	227.62
907.332	316.56
907.707	328.26
908.083	307.2
908.458	267.41
908.833	246.34
909.209	328.26
909.584	358.69
909.959	248.68
910.334	300.17
910.709	274.43
911.084	232.3
911.459	293.15
911.834	281.45
912.209	307.2
912.583	283.79
912.958	337.62
913.333	297.83
913.707	302.51
914.082	300.17
914.456	339.96
914.83	391.45
915.205	314.22
915.579	316.56
915.953	316.56
916.327	260.38
916.701	337.62
917.075	337.62
917.449	267.41
917.823	332.94
918.197	323.58
918.571	236.98
918.944	274.43
919.318	234.64
919.692	309.54
920.065	309.54
920.438	227.62
920.812	255.7
921.185	293.15
921.558	246.34
921.932	293.15
922.305	358.69
922.678	279.11
923.051	316.56
923.424	307.2
923.797	279.11
924.17	330.6
924.542	300.17
924.915	323.58
925.288	323.58
925.661	262.73
926.033	363.37
926.406	260.38
926.778	295.49
927.15	258.04
927.523	325.92
927.895	290.81
928.267	318.9
928.639	290.81
929.011	300.17
929.383	309.54
929.755	311.88
930.127	283.79
930.499	246.34
930.871	344.64
931.242	269.75
931.614	325.92
931.986	302.51
932.357	354.01
932.729	248.68
933.1	262.73
933.471	229.96
933.843	368.05
934.214	262.73
934.585	346.98
934.956	363.37
935.327	234.64
935.698	255.7
936.069	297.83
936.44	269.75
936.811	267.41
937.182	302.51
937.552	330.6
937.923	309.54
938.293	290.81
938.664	253.36
939.034	297.83
939.405	297.83
939.775	288.47
940.145	279.11
940.516	311.88
940.886	328.26
941.256	318.9
941.626	290.81
941.996	295.49
942.366	311.88
942.735	279.11
943.105	297.83
943.475	265.07
943.845	290.81
944.214	283.79
944.584	286.13
944.953	332.94
945.323	307.2
945.692	297.83
946.061	307.2
946.43	356.35
946.8	337.62
947.169	286.13
947.538	286.13
947.907	258.04
948.276	293.15
948.645	241.66
949.013	276.77
949.382	286.13
949.751	346.98
950.119	251.02
950.488	253.36
950.857	295.49
951.225	318.9
951.593	302.51
951.962	267.41
952.33	279.11
952.698	342.3
953.066	316.56
953.434	325.92
953.802	318.9
954.17	281.45
954.538	267.41
954.906	314.22
955.274	318.9
955.642	307.2
956.009	316.56
956.377	351.67
956.744	272.09
957.112	302.51
957.479	295.49
957.847	304.85
958.214	346.98
958.581	335.28
958.948	288.47
959.315	286.13
959.683	281.45
960.05	255.7
960.416	276.77
960.783	323.58
961.15	244
961.517	321.24
961.884	251.02
962.25	314.22
962.617	281.45
962.983	288.47
963.35	293.15
963.716	300.17
964.082	281.45
964.449	260.38
964.815	239.32
965.181	288.47
965.547	339.96
965.913	279.11
966.279	272.09
966.645	272.09
967.011	290.81
967.377	307.2
967.742	332.94
968.108	335.28
968.474	311.88
968.839	279.11
969.205	309.54
969.57	295.49
969.935	309.54
970.301	307.2
970.666	234.64
971.031	311.88
971.396	258.04
971.761	293.15
972.126	342.3
972.491	297.83
972.856	279.11
973.221	276.77
973.586	222.94
973.95	253.36
974.315	239.32
974.679	337.62
975.044	258.04
975.408	295.49
975.773	269.75
976.137	239.32
976.501	279.11
976.866	262.73
977.23	342.3
977.594	314.22
977.958	342.3
978.322	276.77
978.686	307.2
979.049	244
979.413	318.9
979.777	309.54
980.141	267.41
980.504	356.35
980.868	297.83
981.231	283.79
981.595	274.43
981.958	276.77
982.321	246.34
982.684	342.3
983.048	354.01
983.411	302.51
983.774	258.04
984.137	274.43
984.5	290.81
984.862	286.13
985.225	293.15
985.588	346.98
985.951	344.64
986.313	274.43
986.676	290.81
987.038	344.64
987.401	297.83
987.763	239.32
988.125	316.56
988.488	358.69
988.85	304.85
989.212	304.85
989.574	300.17
989.936	300.17
990.298	321.24
990.66	229.96
991.022	281.45
991.383	255.7
991.745	311.88
992.107	344.64
992.468	197.19
992.83	321.24
993.191	321.24
993.553	246.34
993.914	346.98
994.275	246.34
994.637	311.88
994.998	265.07
995.359	251.02
995.72	325.92
996.081	246.34
996.442	372.73
996.803	339.96
997.163	365.71
997.524	300.17
997.885	354.01
998.245	342.3
998.606	372.73
998.966	302.51
999.327	302.51
999.687	332.94
1000.047	286.13
1000.408	318.9
1000.768	321.24
1001.128	307.2
1001.488	244
1001.848	337.62
1002.208	302.51
1002.568	283.79
1002.927	281.45
1003.287	241.66
1003.647	297.83
1004.007	339.96
1004.366	321.24
1004.726	260.38
1005.085	272.09
1005.444	286.13
1005.804	279.11
1006.163	279.11
1006.522	248.68
1006.881	354.01
1007.24	332.94
1007.599	281.45
1007.958	286.13
1008.317	318.9
1008.676	267.41
1009.035	300.17
1009.393	293.15
1009.752	290.81
1010.111	288.47
1010.469	290.81
1010.828	246.34
1011.186	260.38
1011.544	354.01
1011.903	225.28
1012.261	297.83
1012.619	274.43
1012.977	281.45
1013.335	239.32
1013.693	255.7
1014.051	351.67
1014.409	330.6
1014.767	293.15
1015.124	262.73
1015.482	335.28
1015.84	309.54
1016.197	325.92
1016.555	297.83
1016.912	260.38
1017.269	337.62
1017.627	279.11
1017.984	304.85
1018.341	300.17
1018.698	290.81
1019.055	274.43
1019.412	267.41
1019.769	309.54
1020.126	311.88
1020.483	269.75
1020.84	265.07
1021.196	309.54
1021.553	321.24
1021.909	241.66
1022.266	295.49
1022.622	246.34
1022.979	335.28
1023.335	297.83
1023.691	272.09
1024.047	323.58
1024.404	283.79
1024.76	323.58
1025.116	276.77
1025.472	311.88
1025.827	290.81
1026.183	311.88
1026.539	267.41
1026.895	351.67
1027.25	325.92
1027.606	330.6
1027.961	246.34
1028.317	272.09
1028.672	300.17
1029.028	300.17
1029.383	363.37
1029.738	213.57
1030.093	335.28
1030.448	302.51
1030.803	274.43
1031.158	309.54
1031.513	309.54
1031.868	328.26
1032.223	307.2
1032.577	288.47
1032.932	321.24
1033.287	265.07
1033.641	297.83
1033.996	239.32
1034.35	286.13
1034.704	335.28
1035.059	279.11
1035.413	295.49
1035.767	295.49
1036.121	295.49
