Data from Al_FLMS009871__974__16-20-58-519.txt Node

Date: Fri Mar 08 16:20:58 CST 2024
User: pe5414po
Spectrometer: FLMS00987
Trigger mode: 0
Integration Time (sec): 1.000000E-1
Scans to average: 1
Electric dark correction enabled: true
Nonlinearity correction enabled: false
Boxcar width: 0
XAxis mode: Wavelengths
Number of Pixels in Spectrum: 2048
>>>>>Begin Spectral Data<<<<<
188.938	-77.53
189.409	-77.53
189.879	-77.53
190.349	-140.72
190.819	-89.23
191.29	-84.55
191.76	-37.74
192.23	-77.53
192.7	-105.62
193.17	-37.74
193.64	-58.81
194.109	-49.44
194.579	-28.38
195.049	-14.34
195.519	-26.04
195.988	18.43
196.458	51.2
196.927	86.31
197.397	107.37
197.866	109.71
198.336	147.16
198.805	149.5
199.274	231.42
199.744	243.12
200.213	275.89
200.682	191.63
201.151	273.55
201.62	233.76
202.089	245.46
202.558	261.85
203.027	294.61
203.495	245.46
203.964	329.72
204.433	320.36
204.902	282.91
205.37	289.93
205.839	343.77
206.307	348.45
206.776	339.09
207.244	320.36
207.712	296.96
208.181	327.38
208.649	278.23
209.117	278.23
209.585	282.91
210.053	294.61
210.521	296.96
210.989	261.85
211.457	383.56
211.925	250.14
212.393	294.61
212.861	271.21
213.328	278.23
213.796	311
214.264	327.38
214.731	341.43
215.199	236.1
215.666	299.3
216.133	222.06
216.601	329.72
217.068	271.21
217.535	296.96
218.003	315.68
218.47	280.57
218.937	278.23
219.404	264.19
219.871	346.11
220.338	261.85
220.805	282.91
221.271	308.66
221.738	334.4
222.205	264.19
222.671	222.06
223.138	320.36
223.605	264.19
224.071	210.36
224.538	245.46
225.004	308.66
225.47	217.38
225.937	320.36
226.403	261.85
226.869	217.38
227.335	254.83
227.801	273.55
228.267	306.32
228.733	245.46
229.199	301.64
229.665	268.87
230.131	282.91
230.597	322.7
231.062	236.1
231.528	282.91
231.994	294.61
232.459	292.27
232.925	257.17
233.39	306.32
233.856	264.19
234.321	280.57
234.786	226.74
235.252	243.12
235.717	313.34
236.182	273.55
236.647	282.91
237.112	282.91
237.577	282.91
238.042	336.74
238.507	287.59
238.972	273.55
239.436	254.83
239.901	282.91
240.366	273.55
240.83	341.43
241.295	287.59
241.76	273.55
242.224	236.1
242.688	282.91
243.153	285.25
243.617	205.67
244.081	226.74
244.545	325.04
245.01	287.59
245.474	346.11
245.938	287.59
246.402	254.83
246.866	299.3
247.33	303.98
247.793	301.64
248.257	271.21
248.721	325.04
249.185	329.72
249.648	261.85
250.112	259.51
250.575	217.38
251.039	275.89
251.502	259.51
251.965	292.27
252.429	275.89
252.892	250.14
253.355	285.25
253.818	280.57
254.281	320.36
254.744	336.74
255.207	266.53
255.67	336.74
256.133	292.27
256.596	334.4
257.059	320.36
257.522	271.21
257.984	301.64
258.447	329.72
258.909	289.93
259.372	292.27
259.834	311
260.297	301.64
260.759	273.55
261.221	334.4
261.684	311
262.146	301.64
262.608	320.36
263.07	245.46
263.532	313.34
263.994	315.68
264.456	343.77
264.918	287.59
265.38	268.87
265.842	252.49
266.303	261.85
266.765	280.57
267.227	271.21
267.688	299.3
268.15	259.51
268.611	329.72
269.072	311
269.534	301.64
269.995	254.83
270.456	271.21
270.918	329.72
271.379	315.68
271.84	339.09
272.301	311
272.762	306.32
273.223	245.46
273.684	294.61
274.144	287.59
274.605	343.77
275.066	280.57
275.527	245.46
275.987	275.89
276.448	247.8
276.908	322.7
277.369	320.36
277.829	273.55
278.289	275.89
278.75	355.47
279.21	336.74
279.67	325.04
280.13	320.36
280.59	336.74
281.05	311
281.51	315.68
281.97	289.93
282.43	282.91
282.89	301.64
283.35	282.91
283.809	257.17
284.269	357.81
284.729	222.06
285.188	325.04
285.648	343.77
286.107	299.3
286.567	362.49
287.026	285.25
287.485	322.7
287.944	341.43
288.404	301.64
288.863	299.3
289.322	299.3
289.781	252.49
290.24	299.3
290.699	292.27
291.158	315.68
291.616	306.32
292.075	301.64
292.534	264.19
292.992	231.42
293.451	308.66
293.91	313.34
294.368	320.36
294.827	315.68
295.285	327.38
295.743	315.68
296.202	266.53
296.66	311
297.118	318.02
297.576	381.21
298.034	318.02
298.492	313.34
298.95	343.77
299.408	287.59
299.866	336.74
300.324	357.81
300.781	346.11
301.239	275.89
301.697	266.53
302.154	254.83
302.612	306.32
303.069	348.45
303.527	243.12
303.984	303.98
304.441	325.04
304.899	294.61
305.356	278.23
305.813	315.68
306.27	252.49
306.727	280.57
307.184	322.7
307.641	261.85
308.098	224.4
308.555	343.77
309.012	339.09
309.468	275.89
309.925	325.04
310.382	325.04
310.838	303.98
311.295	268.87
311.751	303.98
312.208	299.3
312.664	261.85
313.12	322.7
313.577	318.02
314.033	271.21
314.489	315.68
314.945	296.96
315.401	243.12
315.857	339.09
316.313	325.04
316.769	313.34
317.225	318.02
317.681	385.9
318.136	339.09
318.592	355.47
319.048	374.19
319.503	343.77
319.959	292.27
320.414	325.04
320.869	376.53
321.325	301.64
321.78	299.3
322.235	278.23
322.691	238.44
323.146	245.46
323.601	395.26
324.056	311
324.511	318.02
324.966	332.06
325.421	348.45
325.875	268.87
326.33	273.55
326.785	334.4
327.24	299.3
327.694	268.87
328.149	332.06
328.603	301.64
329.058	346.11
329.512	325.04
329.966	308.66
330.421	341.43
330.875	334.4
331.329	348.45
331.783	388.24
332.237	362.49
332.691	294.61
333.145	299.3
333.599	296.96
334.053	332.06
334.507	318.02
334.96	322.7
335.414	264.19
335.868	322.7
336.321	378.87
336.775	343.77
337.228	341.43
337.682	315.68
338.135	327.38
338.588	392.92
339.042	332.06
339.495	336.74
339.948	327.38
340.401	315.68
340.854	395.26
341.307	364.83
341.76	376.53
342.213	254.83
342.666	322.7
343.119	334.4
343.571	311
344.024	301.64
344.477	282.91
344.929	289.93
345.382	350.79
345.834	325.04
346.287	311
346.739	362.49
347.191	320.36
347.644	364.83
348.096	332.06
348.548	362.49
349	411.64
349.452	367.17
349.904	348.45
350.356	299.3
350.808	327.38
351.26	348.45
351.711	268.87
352.163	329.72
352.615	334.4
353.066	371.85
353.518	329.72
353.969	332.06
354.421	325.04
354.872	346.11
355.324	332.06
355.775	296.96
356.226	289.93
356.677	280.57
357.128	353.13
357.579	364.83
358.03	346.11
358.481	353.13
358.932	348.45
359.383	257.17
359.834	343.77
360.285	339.09
360.735	327.38
361.186	292.27
361.637	303.98
362.087	327.38
362.538	362.49
362.988	329.72
363.438	311
363.889	308.66
364.339	339.09
364.789	308.66
365.239	320.36
365.689	348.45
366.139	376.53
366.589	325.04
367.039	301.64
367.489	357.81
367.939	292.27
368.389	339.09
368.839	318.02
369.288	287.59
369.738	339.09
370.187	320.36
370.637	390.58
371.086	268.87
371.536	378.87
371.985	348.45
372.434	296.96
372.884	285.25
373.333	364.83
373.782	350.79
374.231	339.09
374.68	336.74
375.129	346.11
375.578	301.64
376.027	318.02
376.475	315.68
376.924	357.81
377.373	357.81
377.822	325.04
378.27	339.09
378.719	308.66
379.167	306.32
379.616	329.72
380.064	308.66
380.512	404.62
380.961	306.32
381.409	313.34
381.857	306.32
382.305	292.27
382.753	311
383.201	327.38
383.649	308.66
384.097	313.34
384.545	311
384.992	343.77
385.44	367.17
385.888	348.45
386.335	350.79
386.783	292.27
387.231	355.47
387.678	282.91
388.125	301.64
388.573	261.85
389.02	292.27
389.467	320.36
389.914	329.72
390.362	343.77
390.809	296.96
391.256	362.49
391.703	268.87
392.15	315.68
392.596	257.17
393.043	294.61
393.49	280.57
393.937	266.53
394.383	346.11
394.83	294.61
395.276	294.61
395.723	311
396.169	364.83
396.616	301.64
397.062	336.74
397.508	313.34
397.954	348.45
398.401	301.64
398.847	339.09
399.293	329.72
399.739	299.3
400.185	306.32
400.631	381.21
401.076	315.68
401.522	367.17
401.968	339.09
402.414	289.93
402.859	336.74
403.305	285.25
403.75	329.72
404.196	381.21
404.641	362.49
405.086	385.9
405.532	318.02
405.977	381.21
406.422	341.43
406.867	318.02
407.312	250.14
407.757	339.09
408.202	364.83
408.647	294.61
409.092	311
409.537	243.12
409.982	325.04
410.426	325.04
410.871	378.87
411.316	353.13
411.76	343.77
412.205	350.79
412.649	346.11
413.093	303.98
413.538	336.74
413.982	350.79
414.426	299.3
414.87	320.36
415.314	303.98
415.758	254.83
416.202	435.05
416.646	329.72
417.09	357.81
417.534	341.43
417.978	385.9
418.421	346.11
418.865	413.98
419.309	404.62
419.752	392.92
420.196	315.68
420.639	353.13
421.083	357.81
421.526	329.72
421.969	311
422.412	350.79
422.856	364.83
423.299	334.4
423.742	315.68
424.185	306.32
424.628	336.74
425.071	292.27
425.513	308.66
425.956	285.25
426.399	341.43
426.842	301.64
427.284	348.45
427.727	301.64
428.169	355.47
428.612	332.06
429.054	339.09
429.497	339.09
429.939	315.68
430.381	343.77
430.823	355.47
431.265	381.21
431.707	296.96
432.149	313.34
432.591	364.83
433.033	343.77
433.475	355.47
433.917	303.98
434.359	332.06
434.8	399.94
435.242	332.06
435.684	428.03
436.125	322.7
436.567	280.57
437.008	350.79
437.449	275.89
437.891	327.38
438.332	341.43
438.773	329.72
439.214	280.57
439.656	299.3
440.097	334.4
440.538	243.12
440.978	329.72
441.419	311
441.86	296.96
442.301	341.43
442.742	357.81
443.182	306.32
443.623	343.77
444.063	280.57
444.504	294.61
444.944	339.09
445.385	374.19
445.825	299.3
446.265	334.4
446.706	299.3
447.146	311
447.586	292.27
448.026	320.36
448.466	369.51
448.906	357.81
449.346	399.94
449.786	325.04
450.225	311
450.665	280.57
451.105	306.32
451.544	332.06
451.984	313.34
452.424	348.45
452.863	301.64
453.302	364.83
453.742	430.37
454.181	318.02
454.62	287.59
455.059	357.81
455.499	362.49
455.938	381.21
456.377	385.9
456.816	346.11
457.254	278.23
457.693	327.38
458.132	360.15
458.571	320.36
459.01	371.85
459.448	364.83
459.887	301.64
460.325	313.34
460.764	292.27
461.202	322.7
461.641	315.68
462.079	278.23
462.517	303.98
462.955	343.77
463.393	327.38
463.832	327.38
464.27	350.79
464.708	364.83
465.145	322.7
465.583	320.36
466.021	320.36
466.459	350.79
466.897	329.72
467.334	346.11
467.772	315.68
468.209	334.4
468.647	350.79
469.084	362.49
469.522	357.81
469.959	402.28
470.396	336.74
470.833	303.98
471.271	364.83
471.708	390.58
472.145	320.36
472.582	301.64
473.019	275.89
473.456	306.32
473.892	346.11
474.329	432.71
474.766	306.32
475.202	313.34
475.639	364.83
476.076	329.72
476.512	301.64
476.949	308.66
477.385	364.83
477.821	381.21
478.258	353.13
478.694	320.36
479.13	250.14
479.566	278.23
480.002	360.15
480.438	332.06
480.874	320.36
481.31	322.7
481.746	332.06
482.181	374.19
482.617	336.74
483.053	343.77
483.488	374.19
483.924	350.79
484.36	348.45
484.795	334.4
485.23	308.66
485.666	325.04
486.101	350.79
486.536	339.09
486.971	308.66
487.407	353.13
487.842	350.79
488.277	308.66
488.712	320.36
489.146	311
489.581	378.87
490.016	346.11
490.451	390.58
490.885	329.72
491.32	348.45
491.755	336.74
492.189	334.4
492.624	392.92
493.058	329.72
493.492	315.68
493.927	325.04
494.361	275.89
494.795	334.4
495.229	334.4
495.663	355.47
496.097	318.02
496.531	341.43
496.965	318.02
497.399	416.32
497.833	311
498.266	315.68
498.7	332.06
499.134	325.04
499.567	261.85
500.001	353.13
500.434	322.7
500.868	280.57
501.301	350.79
501.734	315.68
502.168	318.02
502.601	318.02
503.034	376.53
503.467	378.87
503.9	332.06
504.333	329.72
504.766	367.17
505.199	296.96
505.632	257.17
506.064	336.74
506.497	292.27
506.93	343.77
507.362	369.51
507.795	294.61
508.227	301.64
508.66	362.49
509.092	360.15
509.524	261.85
509.956	374.19
510.389	348.45
510.821	355.47
511.253	308.66
511.685	385.9
512.117	334.4
512.549	268.87
512.981	315.68
513.412	287.59
513.844	292.27
514.276	360.15
514.707	346.11
515.139	313.34
515.571	327.38
516.002	325.04
516.433	327.38
516.865	325.04
517.296	322.7
517.727	325.04
518.159	336.74
518.59	311
519.021	243.12
519.452	341.43
519.883	388.24
520.314	357.81
520.744	357.81
521.175	357.81
521.606	332.06
522.037	332.06
522.467	334.4
522.898	320.36
523.328	334.4
523.759	346.11
524.189	313.34
524.62	294.61
525.05	390.58
525.48	332.06
525.91	296.96
526.341	341.43
526.771	299.3
527.201	341.43
527.631	341.43
528.061	341.43
528.49	341.43
528.92	371.85
529.35	285.25
529.78	364.83
530.209	341.43
530.639	313.34
531.068	313.34
531.498	341.43
531.927	381.21
532.357	275.89
532.786	318.02
533.215	313.34
533.644	378.87
534.074	336.74
534.503	275.89
534.932	348.45
535.361	355.47
535.79	289.93
536.218	315.68
536.647	392.92
537.076	320.36
537.505	353.13
537.933	339.09
538.362	327.38
538.79	367.17
539.219	334.4
539.647	364.83
540.076	348.45
540.504	306.32
540.932	339.09
541.36	327.38
541.788	320.36
542.217	390.58
542.645	402.28
543.073	282.91
543.5	320.36
543.928	423.34
544.356	303.98
544.784	357.81
545.211	371.85
545.639	362.49
546.067	339.09
546.494	318.02
546.922	348.45
547.349	299.3
547.776	289.93
548.204	240.78
548.631	334.4
549.058	320.36
549.485	320.36
549.912	245.46
550.339	318.02
550.766	336.74
551.193	306.32
551.62	325.04
552.047	367.17
552.474	320.36
552.9	334.4
553.327	308.66
553.754	294.61
554.18	385.9
554.607	334.4
555.033	346.11
555.459	339.09
555.886	285.25
556.312	306.32
556.738	355.47
557.164	236.1
557.59	296.96
558.016	360.15
558.442	336.74
558.868	343.77
559.294	315.68
559.72	318.02
560.145	327.38
560.571	343.77
560.997	332.06
561.422	261.85
561.848	287.59
562.273	376.53
562.699	308.66
563.124	378.87
563.549	362.49
563.974	294.61
564.4	362.49
564.825	339.09
565.25	308.66
565.675	322.7
566.1	318.02
566.525	332.06
566.95	301.64
567.374	334.4
567.799	318.02
568.224	264.19
568.648	261.85
569.073	367.17
569.497	322.7
569.922	320.36
570.346	334.4
570.771	311
571.195	357.81
571.619	322.7
572.043	348.45
572.467	327.38
572.891	334.4
573.315	353.13
573.739	308.66
574.163	278.23
574.587	287.59
575.011	374.19
575.435	364.83
575.858	353.13
576.282	341.43
576.705	303.98
577.129	315.68
577.552	329.72
577.976	313.34
578.399	289.93
578.822	378.87
579.245	355.47
579.669	362.49
580.092	322.7
580.515	320.36
580.938	318.02
581.361	320.36
581.784	364.83
582.206	336.74
582.629	278.23
583.052	329.72
583.474	320.36
583.897	292.27
584.32	329.72
584.742	294.61
585.165	348.45
585.587	325.04
586.009	334.4
586.431	348.45
586.854	303.98
587.276	301.64
587.698	350.79
588.12	294.61
588.542	334.4
588.964	369.51
589.386	339.09
589.807	336.74
590.229	275.89
590.651	341.43
591.073	327.38
591.494	282.91
591.916	399.94
592.337	336.74
592.759	327.38
593.18	325.04
593.601	311
594.022	294.61
594.444	348.45
594.865	296.96
595.286	318.02
595.707	311
596.128	392.92
596.549	343.77
596.97	350.79
597.39	357.81
597.811	278.23
598.232	348.45
598.652	294.61
599.073	369.51
599.494	292.27
599.914	322.7
600.334	339.09
600.755	388.24
601.175	308.66
601.595	254.83
602.015	308.66
602.436	320.36
602.856	449.09
603.276	212.7
603.696	343.77
604.115	287.59
604.535	381.21
604.955	357.81
605.375	350.79
605.794	275.89
606.214	332.06
606.634	327.38
607.053	348.45
607.473	378.87
607.892	350.79
608.311	308.66
608.731	320.36
609.15	329.72
609.569	322.7
609.988	303.98
610.407	268.87
610.826	320.36
611.245	353.13
611.664	355.47
612.083	355.47
612.501	313.34
612.92	343.77
613.339	378.87
613.757	301.64
614.176	334.4
614.594	430.37
615.013	346.11
615.431	266.53
615.85	325.04
616.268	322.7
616.686	367.17
617.104	334.4
617.522	336.74
617.94	332.06
618.358	332.06
618.776	353.13
619.194	294.61
619.612	306.32
620.03	341.43
620.447	364.83
620.865	350.79
621.282	364.83
621.7	383.56
622.117	341.43
622.535	325.04
622.952	285.25
623.369	348.45
623.787	353.13
624.204	299.3
624.621	364.83
625.038	322.7
625.455	390.58
625.872	332.06
626.289	376.53
626.706	287.59
627.123	322.7
627.539	224.4
627.956	332.06
628.373	348.45
628.789	346.11
629.206	364.83
629.622	334.4
630.038	355.47
630.455	325.04
630.871	339.09
631.287	348.45
631.703	303.98
632.12	306.32
632.536	266.53
632.952	376.53
633.368	362.49
633.783	346.11
634.199	346.11
634.615	313.34
635.031	371.85
635.446	275.89
635.862	339.09
636.277	320.36
636.693	346.11
637.108	336.74
637.524	360.15
637.939	329.72
638.354	306.32
638.77	325.04
639.185	320.36
639.6	303.98
640.015	390.58
640.43	402.28
640.845	280.57
641.259	315.68
641.674	303.98
642.089	369.51
642.504	282.91
642.918	334.4
643.333	289.93
643.747	308.66
644.162	350.79
644.576	371.85
644.991	322.7
645.405	399.94
645.819	315.68
646.233	299.3
646.647	369.51
647.061	327.38
647.475	294.61
647.889	336.74
648.303	376.53
648.717	327.38
649.131	357.81
649.545	289.93
649.958	371.85
650.372	395.26
650.785	315.68
651.199	296.96
651.612	353.13
652.026	327.38
652.439	353.13
652.852	355.47
653.266	243.12
653.679	247.8
654.092	315.68
654.505	318.02
654.918	385.9
655.331	334.4
655.744	327.38
656.156	285.25
656.569	325.04
656.982	306.32
657.394	299.3
657.807	306.32
658.22	336.74
658.632	355.47
659.044	350.79
659.457	339.09
659.869	425.68
660.281	367.17
660.693	474.84
661.106	360.15
661.518	301.64
661.93	332.06
662.342	320.36
662.754	318.02
663.165	350.79
663.577	311
663.989	360.15
664.401	264.19
664.812	320.36
665.224	332.06
665.635	264.19
666.047	378.87
666.458	287.59
666.869	292.27
667.281	416.32
667.692	320.36
668.103	374.19
668.514	327.38
668.925	278.23
669.336	303.98
669.747	362.49
670.158	320.36
670.569	264.19
670.979	318.02
671.39	350.79
671.801	280.57
672.211	292.27
672.622	395.26
673.032	371.85
673.443	266.53
673.853	339.09
674.263	264.19
674.674	320.36
675.084	322.7
675.494	299.3
675.904	292.27
676.314	301.64
676.724	371.85
677.134	318.02
677.544	343.77
677.953	353.13
678.363	334.4
678.773	332.06
679.182	353.13
679.592	369.51
680.001	350.79
680.411	341.43
680.82	364.83
681.23	318.02
681.639	332.06
682.048	294.61
682.457	303.98
682.866	376.53
683.275	334.4
683.684	341.43
684.093	332.06
684.502	261.85
684.911	357.81
685.32	322.7
685.728	350.79
686.137	364.83
686.546	362.49
686.954	264.19
687.363	285.25
687.771	308.66
688.179	357.81
688.588	346.11
688.996	357.81
689.404	346.11
689.812	315.68
690.22	315.68
690.628	264.19
691.036	315.68
691.444	362.49
691.852	378.87
692.26	327.38
692.667	404.62
693.075	322.7
693.483	378.87
693.89	360.15
694.298	348.45
694.705	315.68
695.112	318.02
695.52	346.11
695.927	247.8
696.334	362.49
696.741	322.7
697.148	348.45
697.555	296.96
697.962	346.11
698.369	280.57
698.776	360.15
699.183	362.49
699.59	355.47
699.996	357.81
700.403	282.91
700.81	378.87
701.216	341.43
701.623	371.85
702.029	348.45
702.435	381.21
702.842	341.43
703.248	294.61
703.654	308.66
704.06	353.13
704.466	336.74
704.872	355.47
705.278	406.96
705.684	268.87
706.09	341.43
706.496	282.91
706.901	278.23
707.307	421
707.712	374.19
708.118	294.61
708.523	376.53
708.929	369.51
709.334	325.04
709.74	353.13
710.145	360.15
710.55	362.49
710.955	350.79
711.36	261.85
711.765	402.28
712.17	341.43
712.575	350.79
712.98	879.75
713.385	343.77
713.789	348.45
714.194	336.74
714.599	313.34
715.003	334.4
715.408	303.98
715.812	339.09
716.217	296.96
716.621	346.11
717.025	318.02
717.429	383.56
717.833	306.32
718.238	336.74
718.642	371.85
719.046	348.45
719.449	282.91
719.853	318.02
720.257	334.4
720.661	341.43
721.065	245.46
721.468	296.96
721.872	320.36
722.275	327.38
722.679	313.34
723.082	329.72
723.485	374.19
723.889	287.59
724.292	343.77
724.695	341.43
725.098	329.72
725.501	296.96
725.904	318.02
726.307	341.43
726.71	350.79
727.113	301.64
727.516	322.7
727.918	334.4
728.321	364.83
728.724	322.7
729.126	353.13
729.529	332.06
729.931	346.11
730.333	282.91
730.736	275.89
731.138	336.74
731.54	364.83
731.942	329.72
732.344	385.9
732.746	374.19
733.148	334.4
733.55	268.87
733.952	306.32
734.354	367.17
734.756	362.49
735.157	322.7
735.559	318.02
735.96	374.19
736.362	311
736.763	364.83
737.165	318.02
737.566	329.72
737.967	395.26
738.368	381.21
738.77	371.85
739.171	306.32
739.572	339.09
739.973	311
740.374	411.64
740.774	303.98
741.175	392.92
741.576	367.17
741.977	334.4
742.377	268.87
742.778	378.87
743.178	343.77
743.579	367.17
743.979	327.38
744.379	346.11
744.78	303.98
745.18	341.43
745.58	292.27
745.98	282.91
746.38	311
746.78	336.74
747.18	275.89
747.58	325.04
747.98	296.96
748.38	325.04
748.779	306.32
749.179	341.43
749.578	369.51
749.978	355.47
750.377	383.56
750.777	318.02
751.176	406.96
751.575	406.96
751.975	311
752.374	343.77
752.773	306.32
753.172	275.89
753.571	406.96
753.97	353.13
754.369	271.21
754.768	360.15
755.166	369.51
755.565	318.02
755.964	266.53
756.362	371.85
756.761	257.17
757.159	271.21
757.558	357.81
757.956	364.83
758.354	355.47
758.753	266.53
759.151	287.59
759.549	250.14
759.947	325.04
760.345	334.4
760.743	318.02
761.141	346.11
761.539	374.19
761.936	322.7
762.334	364.83
762.732	301.64
763.129	334.4
763.527	348.45
763.924	346.11
764.322	320.36
764.719	329.72
765.117	318.02
765.514	315.68
765.911	390.58
766.308	287.59
766.705	296.96
767.102	282.91
767.499	322.7
767.896	322.7
768.293	360.15
768.69	355.47
769.086	320.36
769.483	350.79
769.88	369.51
770.276	369.51
770.673	240.78
771.069	376.53
771.466	374.19
771.862	318.02
772.258	336.74
772.654	280.57
773.05	325.04
773.447	348.45
773.843	367.17
774.239	278.23
774.634	325.04
775.03	350.79
775.426	292.27
775.822	268.87
776.218	308.66
776.613	364.83
777.009	397.6
777.404	278.23
777.8	322.7
778.195	273.55
778.59	362.49
778.986	313.34
779.381	336.74
779.776	303.98
780.171	334.4
780.566	285.25
780.961	299.3
781.356	348.45
781.751	332.06
782.146	383.56
782.54	308.66
782.935	357.81
783.33	371.85
783.724	350.79
784.119	296.96
784.513	320.36
784.908	334.4
785.302	318.02
785.696	299.3
786.09	360.15
786.485	287.59
786.879	285.25
787.273	395.26
787.667	320.36
788.061	327.38
788.454	318.02
788.848	336.74
789.242	287.59
789.636	287.59
790.029	306.32
790.423	329.72
790.816	348.45
791.21	336.74
791.603	313.34
791.997	350.79
792.39	353.13
792.783	353.13
793.176	353.13
793.569	308.66
793.962	360.15
794.355	308.66
794.748	383.56
795.141	341.43
795.534	315.68
795.927	360.15
796.319	353.13
796.712	343.77
797.105	364.83
797.497	308.66
797.89	332.06
798.282	257.17
798.674	303.98
799.067	315.68
799.459	334.4
799.851	303.98
800.243	285.25
800.635	360.15
801.027	285.25
801.419	299.3
801.811	261.85
802.203	322.7
802.594	308.66
802.986	341.43
803.378	311
803.769	320.36
804.161	369.51
804.552	325.04
804.944	271.21
805.335	367.17
805.726	259.51
806.118	332.06
806.509	336.74
806.9	353.13
807.291	268.87
807.682	364.83
808.073	336.74
808.464	311
808.855	355.47
809.245	336.74
809.636	339.09
810.027	315.68
810.417	390.58
810.808	311
811.198	376.53
811.589	306.32
811.979	350.79
812.369	280.57
812.759	301.64
813.15	334.4
813.54	355.47
813.93	313.34
814.32	311
814.71	353.13
815.1	308.66
815.489	292.27
815.879	271.21
816.269	311
816.658	341.43
817.048	306.32
817.438	367.17
817.827	301.64
818.216	357.81
818.606	341.43
818.995	341.43
819.384	357.81
819.773	353.13
820.163	329.72
820.552	360.15
820.941	327.38
821.33	362.49
821.718	346.11
822.107	301.64
822.496	303.98
822.885	371.85
823.273	360.15
823.662	343.77
824.05	301.64
824.439	388.24
824.827	355.47
825.216	303.98
825.604	303.98
825.992	311
826.38	238.44
826.768	296.96
827.156	294.61
827.544	294.61
827.932	292.27
828.32	346.11
828.708	294.61
829.096	275.89
829.483	350.79
829.871	334.4
830.259	371.85
830.646	336.74
831.034	336.74
831.421	332.06
831.808	303.98
832.196	289.93
832.583	231.42
832.97	292.27
833.357	360.15
833.744	322.7
834.131	348.45
834.518	402.28
834.905	301.64
835.292	364.83
835.678	322.7
836.065	311
836.452	343.77
836.838	250.14
837.225	301.64
837.611	294.61
837.998	334.4
838.384	392.92
838.77	336.74
839.157	315.68
839.543	313.34
839.929	243.12
840.315	315.68
840.701	301.64
841.087	364.83
841.473	378.87
841.858	343.77
842.244	318.02
842.63	329.72
843.015	334.4
843.401	397.6
843.787	308.66
844.172	353.13
844.557	348.45
844.943	294.61
845.328	271.21
845.713	320.36
846.098	336.74
846.483	339.09
846.868	299.3
847.253	268.87
847.638	348.45
848.023	325.04
848.408	385.9
848.793	292.27
849.177	285.25
849.562	395.26
849.947	327.38
850.331	278.23
850.715	348.45
851.1	350.79
851.484	320.36
851.868	343.77
852.253	346.11
852.637	282.91
853.021	332.06
853.405	296.96
853.789	332.06
854.173	329.72
854.557	343.77
854.94	336.74
855.324	327.38
855.708	322.7
856.091	320.36
856.475	378.87
856.858	371.85
857.242	339.09
857.625	355.47
858.009	357.81
858.392	364.83
858.775	280.57
859.158	311
859.541	287.59
859.924	268.87
860.307	287.59
860.69	343.77
861.073	329.72
861.456	318.02
861.838	416.32
862.221	388.24
862.604	322.7
862.986	348.45
863.369	287.59
863.751	346.11
864.133	318.02
864.516	364.83
864.898	315.68
865.28	308.66
865.662	264.19
866.044	278.23
866.426	381.21
866.808	299.3
867.19	311
867.572	311
867.954	275.89
868.336	350.79
868.717	278.23
869.099	320.36
869.48	325.04
869.862	275.89
870.243	289.93
870.625	303.98
871.006	334.4
871.387	313.34
871.768	318.02
872.149	362.49
872.53	346.11
872.911	360.15
873.292	313.34
873.673	320.36
874.054	252.49
874.435	282.91
874.815	285.25
875.196	308.66
875.577	353.13
875.957	343.77
876.338	325.04
876.718	341.43
877.098	390.58
877.479	247.8
877.859	383.56
878.239	280.57
878.619	327.38
878.999	327.38
879.379	355.47
879.759	315.68
880.139	296.96
880.519	404.62
880.898	287.59
881.278	334.4
881.658	280.57
882.037	243.12
882.417	409.3
882.796	341.43
883.176	294.61
883.555	320.36
883.934	362.49
884.313	289.93
884.693	294.61
885.072	289.93
885.451	339.09
885.83	280.57
886.209	296.96
886.587	285.25
886.966	325.04
887.345	301.64
887.724	301.64
888.102	313.34
888.481	332.06
888.859	308.66
889.238	348.45
889.616	367.17
889.994	308.66
890.373	369.51
890.751	320.36
891.129	353.13
891.507	268.87
891.885	278.23
892.263	289.93
892.641	296.96
893.019	275.89
893.396	285.25
893.774	402.28
894.152	315.68
894.529	350.79
894.907	332.06
895.284	303.98
895.662	306.32
896.039	350.79
896.416	346.11
896.794	313.34
897.171	299.3
897.548	332.06
897.925	350.79
898.302	292.27
898.679	332.06
899.056	292.27
899.433	332.06
899.809	336.74
900.186	287.59
900.563	313.34
900.939	385.9
901.316	308.66
901.692	343.77
902.069	322.7
902.445	383.56
902.821	301.64
903.197	334.4
903.574	327.38
903.95	308.66
904.326	329.72
904.702	353.13
905.078	327.38
905.454	325.04
905.829	353.13
906.205	376.53
906.581	261.85
906.956	301.64
907.332	341.43
907.707	360.15
908.083	287.59
908.458	306.32
908.833	320.36
909.209	355.47
909.584	350.79
909.959	318.02
910.334	378.87
910.709	329.72
911.084	371.85
911.459	346.11
911.834	339.09
912.209	299.3
912.583	268.87
912.958	247.8
913.333	367.17
913.707	268.87
914.082	320.36
914.456	308.66
914.83	294.61
915.205	325.04
915.579	266.53
915.953	334.4
916.327	371.85
916.701	280.57
917.075	313.34
917.449	303.98
917.823	336.74
918.197	336.74
918.571	287.59
918.944	294.61
919.318	275.89
919.692	287.59
920.065	320.36
920.438	275.89
920.812	285.25
921.185	350.79
921.558	336.74
921.932	385.9
922.305	313.34
922.678	299.3
923.051	308.66
923.424	353.13
923.797	259.51
924.17	355.47
924.542	357.81
924.915	287.59
925.288	336.74
925.661	355.47
926.033	292.27
926.406	362.49
926.778	289.93
927.15	306.32
927.523	268.87
927.895	292.27
928.267	322.7
928.639	404.62
929.011	346.11
929.383	303.98
929.755	325.04
930.127	360.15
930.499	367.17
930.871	329.72
931.242	346.11
931.614	355.47
931.986	388.24
932.357	357.81
932.729	287.59
933.1	292.27
933.471	301.64
933.843	252.49
934.214	334.4
934.585	378.87
934.956	320.36
935.327	390.58
935.698	395.26
936.069	355.47
936.44	346.11
936.811	362.49
937.182	289.93
937.552	329.72
937.923	343.77
938.293	362.49
938.664	322.7
939.034	325.04
939.405	334.4
939.775	327.38
940.145	322.7
940.516	364.83
940.886	332.06
941.256	322.7
941.626	273.55
941.996	313.34
942.366	306.32
942.735	332.06
943.105	318.02
943.475	320.36
943.845	341.43
944.214	318.02
944.584	332.06
944.953	390.58
945.323	367.17
945.692	261.85
946.061	301.64
946.43	303.98
946.8	294.61
947.169	292.27
947.538	301.64
947.907	334.4
948.276	336.74
948.645	341.43
949.013	399.94
949.382	329.72
949.751	346.11
950.119	348.45
950.488	318.02
950.857	341.43
951.225	250.14
951.593	296.96
951.962	357.81
952.33	245.46
952.698	294.61
953.066	318.02
953.434	318.02
953.802	334.4
954.17	334.4
954.538	322.7
954.906	287.59
955.274	320.36
955.642	266.53
956.009	346.11
956.377	308.66
956.744	322.7
957.112	273.55
957.479	327.38
957.847	334.4
958.214	353.13
958.581	364.83
958.948	306.32
959.315	343.77
959.683	303.98
960.05	313.34
960.416	268.87
960.783	308.66
961.15	318.02
961.517	327.38
961.884	289.93
962.25	294.61
962.617	353.13
962.983	348.45
963.35	334.4
963.716	301.64
964.082	313.34
964.449	308.66
964.815	413.98
965.181	364.83
965.547	320.36
965.913	318.02
966.279	343.77
966.645	301.64
967.011	385.9
967.377	282.91
967.742	362.49
968.108	280.57
968.474	254.83
968.839	353.13
969.205	278.23
969.57	341.43
969.935	273.55
970.301	296.96
970.666	341.43
971.031	355.47
971.396	327.38
971.761	287.59
972.126	303.98
972.491	313.34
972.856	339.09
973.221	343.77
973.586	318.02
973.95	308.66
974.315	341.43
974.679	292.27
975.044	383.56
975.408	296.96
975.773	315.68
976.137	308.66
976.501	339.09
976.866	301.64
977.23	350.79
977.594	360.15
977.958	325.04
978.322	292.27
978.686	311
979.049	243.12
979.413	285.25
979.777	346.11
980.141	362.49
980.504	390.58
980.868	343.77
981.231	280.57
981.595	296.96
981.958	336.74
982.321	336.74
982.684	299.3
983.048	311
983.411	318.02
983.774	315.68
984.137	320.36
984.5	306.32
984.862	296.96
985.225	334.4
985.588	303.98
985.951	334.4
986.313	378.87
986.676	285.25
987.038	360.15
987.401	332.06
987.763	355.47
988.125	341.43
988.488	346.11
988.85	294.61
989.212	322.7
989.574	357.81
989.936	350.79
990.298	320.36
990.66	294.61
991.022	327.38
991.383	311
991.745	257.17
992.107	357.81
992.468	313.34
992.83	292.27
993.191	306.32
993.553	364.83
993.914	357.81
994.275	336.74
994.637	329.72
994.998	308.66
995.359	282.91
995.72	287.59
996.081	348.45
996.442	334.4
996.803	334.4
997.163	320.36
997.524	364.83
997.885	292.27
998.245	303.98
998.606	313.34
998.966	343.77
999.327	385.9
999.687	320.36
1000.047	318.02
1000.408	378.87
1000.768	285.25
1001.128	306.32
1001.488	325.04
1001.848	320.36
1002.208	369.51
1002.568	336.74
1002.927	346.11
1003.287	336.74
1003.647	315.68
1004.007	336.74
1004.366	362.49
1004.726	311
1005.085	357.81
1005.444	322.7
1005.804	315.68
1006.163	313.34
1006.522	362.49
1006.881	306.32
1007.24	313.34
1007.599	285.25
1007.958	341.43
1008.317	332.06
1008.676	322.7
1009.035	341.43
1009.393	336.74
1009.752	285.25
1010.111	346.11
1010.469	360.15
1010.828	318.02
1011.186	353.13
1011.544	266.53
1011.903	367.17
1012.261	332.06
1012.619	296.96
1012.977	318.02
1013.335	327.38
1013.693	362.49
1014.051	350.79
1014.409	383.56
1014.767	311
1015.124	264.19
1015.482	318.02
1015.84	364.83
1016.197	367.17
1016.555	348.45
1016.912	329.72
1017.269	306.32
1017.627	367.17
1017.984	259.51
1018.341	315.68
1018.698	353.13
1019.055	322.7
1019.412	292.27
1019.769	364.83
1020.126	327.38
1020.483	261.85
1020.84	355.47
1021.196	334.4
1021.553	348.45
1021.909	371.85
1022.266	320.36
1022.622	371.85
1022.979	266.53
1023.335	348.45
1023.691	308.66
1024.047	301.64
1024.404	280.57
1024.76	327.38
1025.116	325.04
1025.472	339.09
1025.827	259.51
1026.183	301.64
1026.539	353.13
1026.895	364.83
1027.25	325.04
1027.606	257.17
1027.961	240.78
1028.317	336.74
1028.672	301.64
1029.028	257.17
1029.383	243.12
1029.738	303.98
1030.093	250.14
1030.448	371.85
1030.803	280.57
1031.158	292.27
1031.513	313.34
1031.868	313.34
1032.223	299.3
1032.577	301.64
1032.932	287.59
1033.287	336.74
1033.641	322.7
1033.996	212.7
1034.35	268.87
1034.704	294.61
1035.059	325.04
1035.413	327.38
1035.767	327.38
1036.121	327.38
