Data from Al_FLMS009871__962__16-20-57-319.txt Node

Date: Fri Mar 08 16:20:57 CST 2024
User: pe5414po
Spectrometer: FLMS00987
Trigger mode: 0
Integration Time (sec): 1.000000E-1
Scans to average: 1
Electric dark correction enabled: true
Nonlinearity correction enabled: false
Boxcar width: 0
XAxis mode: Wavelengths
Number of Pixels in Spectrum: 2048
>>>>>Begin Spectral Data<<<<<
188.938	-101.08
189.409	-101.08
189.879	-101.08
190.349	-131.51
190.819	-73
191.29	-122.15
191.76	-124.49
192.23	-54.27
192.7	-77.68
193.17	-94.06
193.64	-16.82
194.109	-30.87
194.579	-61.29
195.049	48.71
195.519	48.71
195.988	8.92
196.458	34.67
196.927	102.54
197.397	93.18
197.866	172.76
198.336	72.12
198.805	189.14
199.274	147.01
199.744	156.38
200.213	182.12
200.682	175.1
201.151	224.25
201.62	217.23
202.089	226.59
202.558	182.12
203.027	301.49
203.495	310.85
203.964	163.4
204.433	341.28
204.902	289.79
205.37	285.11
205.839	308.51
206.307	345.96
206.776	308.51
207.244	231.27
207.712	303.83
208.181	343.62
208.649	245.32
209.117	296.81
209.585	296.81
210.053	322.56
210.521	282.77
210.989	285.11
211.457	273.4
211.925	254.68
212.393	289.79
212.861	317.87
213.328	275.74
213.796	285.11
214.264	322.56
214.731	310.85
215.199	296.81
215.666	238.3
216.133	280.43
216.601	247.66
217.068	252.34
217.535	235.96
218.003	289.79
218.47	245.32
218.937	242.98
219.404	212.55
219.871	322.56
220.338	245.32
220.805	233.61
221.271	287.45
221.738	273.4
222.205	266.38
222.671	271.06
223.138	240.64
223.605	320.21
224.071	252.34
224.538	308.51
225.004	245.32
225.47	212.55
225.937	219.57
226.403	268.72
226.869	362.34
227.335	317.87
227.801	250
228.267	336.6
228.733	240.64
229.199	278.08
229.665	245.32
230.131	254.68
230.597	287.45
231.062	245.32
231.528	250
231.994	303.83
232.459	289.79
232.925	320.21
233.39	271.06
233.856	207.87
234.321	275.74
234.786	273.4
235.252	369.37
235.717	282.77
236.182	242.98
236.647	196.17
237.112	266.38
237.577	261.7
238.042	257.02
238.507	273.4
238.972	198.51
239.436	266.38
239.901	212.55
240.366	317.87
240.83	247.66
241.295	275.74
241.76	280.43
242.224	193.83
242.688	250
243.153	299.15
243.617	299.15
244.081	278.08
244.545	264.04
245.01	268.72
245.474	264.04
245.938	273.4
246.402	315.53
246.866	205.53
247.33	301.49
247.793	228.93
248.257	280.43
248.721	207.87
249.185	324.9
249.648	303.83
250.112	214.89
250.575	278.08
251.039	303.83
251.502	287.45
251.965	191.49
252.429	306.17
252.892	315.53
253.355	322.56
253.818	292.13
254.281	266.38
254.744	315.53
255.207	264.04
255.67	308.51
256.133	294.47
256.596	303.83
257.059	268.72
257.522	322.56
257.984	306.17
258.447	350.64
258.909	285.11
259.372	296.81
259.834	317.87
260.297	306.17
260.759	341.28
261.221	313.19
261.684	217.23
262.146	278.08
262.608	278.08
263.07	294.47
263.532	313.19
263.994	327.24
264.456	278.08
264.918	250
265.38	294.47
265.842	261.7
266.303	287.45
266.765	329.58
267.227	207.87
267.688	247.66
268.15	240.64
268.611	324.9
269.072	257.02
269.534	350.64
269.995	336.6
270.456	296.81
270.918	240.64
271.379	242.98
271.84	261.7
272.301	352.98
272.762	315.53
273.223	292.13
273.684	352.98
274.144	301.49
274.605	268.72
275.066	203.19
275.527	233.61
275.987	235.96
276.448	303.83
276.908	235.96
277.369	306.17
277.829	306.17
278.289	299.15
278.75	299.15
279.21	275.74
279.67	296.81
280.13	423.2
280.59	287.45
281.05	287.45
281.51	331.92
281.97	310.85
282.43	341.28
282.89	207.87
283.35	231.27
283.809	303.83
284.269	261.7
284.729	289.79
285.188	322.56
285.648	231.27
286.107	289.79
286.567	296.81
287.026	324.9
287.485	317.87
287.944	306.17
288.404	259.36
288.863	310.85
289.322	278.08
289.781	310.85
290.24	324.9
290.699	315.53
291.158	313.19
291.616	338.94
292.075	327.24
292.534	306.17
292.992	301.49
293.451	261.7
293.91	285.11
294.368	343.62
294.827	310.85
295.285	219.57
295.743	301.49
296.202	238.3
296.66	296.81
297.118	285.11
297.576	303.83
298.034	294.47
298.492	294.47
298.95	278.08
299.408	313.19
299.866	317.87
300.324	280.43
300.781	266.38
301.239	320.21
301.697	308.51
302.154	320.21
302.612	343.62
303.069	285.11
303.527	303.83
303.984	287.45
304.441	233.61
304.899	259.36
305.356	257.02
305.813	299.15
306.27	273.4
306.727	268.72
307.184	235.96
307.641	257.02
308.098	362.34
308.555	350.64
309.012	212.55
309.468	285.11
309.925	374.05
310.382	320.21
310.838	266.38
311.295	324.9
311.751	266.38
312.208	301.49
312.664	327.24
313.12	308.51
313.577	329.58
314.033	257.02
314.489	289.79
314.945	240.64
315.401	315.53
315.857	350.64
316.313	289.79
316.769	250
317.225	324.9
317.681	357.66
318.136	257.02
318.592	282.77
319.048	268.72
319.503	268.72
319.959	317.87
320.414	355.32
320.869	275.74
321.325	357.66
321.78	282.77
322.235	310.85
322.691	329.58
323.146	299.15
323.601	331.92
324.056	364.68
324.511	266.38
324.966	289.79
325.421	306.17
325.875	327.24
326.33	320.21
326.785	341.28
327.24	296.81
327.694	259.36
328.149	306.17
328.603	261.7
329.058	345.96
329.512	287.45
329.966	306.17
330.421	273.4
330.875	334.26
331.329	315.53
331.783	240.64
332.237	310.85
332.691	257.02
333.145	287.45
333.599	348.3
334.053	287.45
334.507	308.51
334.96	299.15
335.414	320.21
335.868	345.96
336.321	250
336.775	315.53
337.228	338.94
337.682	289.79
338.135	315.53
338.588	348.3
339.042	367.03
339.495	275.74
339.948	292.13
340.401	352.98
340.854	322.56
341.307	322.56
341.76	336.6
342.213	327.24
342.666	315.53
343.119	331.92
343.571	294.47
344.024	287.45
344.477	329.58
344.929	315.53
345.382	289.79
345.834	294.47
346.287	301.49
346.739	327.24
347.191	306.17
347.644	338.94
348.096	285.11
348.548	341.28
349	250
349.452	315.53
349.904	322.56
350.356	271.06
350.808	360
351.26	301.49
351.711	264.04
352.163	327.24
352.615	240.64
353.066	327.24
353.518	355.32
353.969	341.28
354.421	310.85
354.872	287.45
355.324	348.3
355.775	189.14
356.226	289.79
356.677	322.56
357.128	221.91
357.579	303.83
358.03	196.17
358.481	381.07
358.932	308.51
359.383	287.45
359.834	303.83
360.285	329.58
360.735	324.9
361.186	348.3
361.637	334.26
362.087	308.51
362.538	317.87
362.988	352.98
363.438	397.45
363.889	278.08
364.339	324.9
364.789	338.94
365.239	329.58
365.689	360
366.139	423.2
366.589	320.21
367.039	345.96
367.489	252.34
367.939	308.51
368.389	275.74
368.839	336.6
369.288	348.3
369.738	306.17
370.187	334.26
370.637	341.28
371.086	282.77
371.536	355.32
371.985	338.94
372.434	287.45
372.884	322.56
373.333	317.87
373.782	320.21
374.231	313.19
374.68	292.13
375.129	317.87
375.578	390.43
376.027	350.64
376.475	247.66
376.924	289.79
377.373	362.34
377.822	278.08
378.27	289.79
378.719	341.28
379.167	259.36
379.616	287.45
380.064	348.3
380.512	376.39
380.961	336.6
381.409	338.94
381.857	301.49
382.305	345.96
382.753	374.05
383.201	296.81
383.649	327.24
384.097	275.74
384.545	381.07
384.992	296.81
385.44	296.81
385.888	301.49
386.335	299.15
386.783	367.03
387.231	259.36
387.678	315.53
388.125	313.19
388.573	343.62
389.02	303.83
389.467	273.4
389.914	254.68
390.362	327.24
390.809	264.04
391.256	322.56
391.703	313.19
392.15	285.11
392.596	362.34
393.043	261.7
393.49	303.83
393.937	299.15
394.383	331.92
394.83	320.21
395.276	278.08
395.723	308.51
396.169	348.3
396.616	327.24
397.062	289.79
397.508	273.4
397.954	310.85
398.401	416.18
398.847	324.9
399.293	385.75
399.739	317.87
400.185	345.96
400.631	303.83
401.076	348.3
401.522	336.6
401.968	292.13
402.414	268.72
402.859	327.24
403.305	388.09
403.75	273.4
404.196	336.6
404.641	226.59
405.086	320.21
405.532	299.15
405.977	266.38
406.422	310.85
406.867	350.64
407.312	294.47
407.757	240.64
408.202	289.79
408.647	271.06
409.092	294.47
409.537	299.15
409.982	301.49
410.426	282.77
410.871	268.72
411.316	294.47
411.76	273.4
412.205	336.6
412.649	360
413.093	264.04
413.538	299.15
413.982	294.47
414.426	292.13
414.87	275.74
415.314	285.11
415.758	329.58
416.202	275.74
416.646	280.43
417.09	294.47
417.534	392.77
417.978	336.6
418.421	299.15
418.865	343.62
419.309	378.73
419.752	287.45
420.196	320.21
420.639	282.77
421.083	329.58
421.526	313.19
421.969	338.94
422.412	331.92
422.856	369.37
423.299	285.11
423.742	238.3
424.185	285.11
424.628	289.79
425.071	294.47
425.513	322.56
425.956	322.56
426.399	308.51
426.842	338.94
427.284	289.79
427.727	303.83
428.169	317.87
428.612	320.21
429.054	317.87
429.497	273.4
429.939	336.6
430.381	310.85
430.823	289.79
431.265	348.3
431.707	313.19
432.149	320.21
432.591	322.56
433.033	357.66
433.475	378.73
433.917	257.02
434.359	280.43
434.8	313.19
435.242	341.28
435.684	308.51
436.125	317.87
436.567	282.77
437.008	374.05
437.449	317.87
437.891	268.72
438.332	352.98
438.773	299.15
439.214	287.45
439.656	324.9
440.097	371.71
440.538	203.19
440.978	296.81
441.419	264.04
441.86	296.81
442.301	273.4
442.742	282.77
443.182	310.85
443.623	360
444.063	334.26
444.504	285.11
444.944	275.74
445.385	331.92
445.825	345.96
446.265	254.68
446.706	313.19
447.146	406.81
447.586	345.96
448.026	264.04
448.466	313.19
448.906	303.83
449.346	341.28
449.786	395.11
450.225	322.56
450.665	313.19
451.105	299.15
451.544	322.56
451.984	280.43
452.424	285.11
452.863	261.7
453.302	329.58
453.742	299.15
454.181	301.49
454.62	275.74
455.059	343.62
455.499	242.98
455.938	376.39
456.377	294.47
456.816	289.79
457.254	362.34
457.693	282.77
458.132	322.56
458.571	317.87
459.01	301.49
459.448	226.59
459.887	266.38
460.325	303.83
460.764	343.62
461.202	275.74
461.641	327.24
462.079	327.24
462.517	317.87
462.955	352.98
463.393	355.32
463.832	296.81
464.27	273.4
464.708	338.94
465.145	306.17
465.583	357.66
466.021	306.17
466.459	322.56
466.897	271.06
467.334	348.3
467.772	242.98
468.209	329.58
468.647	303.83
469.084	301.49
469.522	271.06
469.959	320.21
470.396	308.51
470.833	322.56
471.271	364.68
471.708	320.21
472.145	299.15
472.582	329.58
473.019	266.38
473.456	292.13
473.892	299.15
474.329	268.72
474.766	341.28
475.202	313.19
475.639	327.24
476.076	306.17
476.512	315.53
476.949	299.15
477.385	345.96
477.821	324.9
478.258	329.58
478.694	343.62
479.13	362.34
479.566	376.39
480.002	334.26
480.438	317.87
480.874	334.26
481.31	306.17
481.746	355.32
482.181	324.9
482.617	367.03
483.053	306.17
483.488	324.9
483.924	362.34
484.36	310.85
484.795	271.06
485.23	310.85
485.666	324.9
486.101	278.08
486.536	294.47
486.971	273.4
487.407	322.56
487.842	334.26
488.277	357.66
488.712	294.47
489.146	341.28
489.581	294.47
490.016	273.4
490.451	299.15
490.885	341.28
491.32	313.19
491.755	341.28
492.189	383.41
492.624	310.85
493.058	331.92
493.492	317.87
493.927	299.15
494.361	292.13
494.795	299.15
495.229	317.87
495.663	367.03
496.097	329.58
496.531	299.15
496.965	352.98
497.399	352.98
497.833	266.38
498.266	285.11
498.7	268.72
499.134	338.94
499.567	292.13
500.001	317.87
500.434	247.66
500.868	348.3
501.301	374.05
501.734	317.87
502.168	357.66
502.601	322.56
503.034	378.73
503.467	352.98
503.9	338.94
504.333	285.11
504.766	285.11
505.199	303.83
505.632	334.26
506.064	322.56
506.497	271.06
506.93	299.15
507.362	308.51
507.795	343.62
508.227	341.28
508.66	310.85
509.092	348.3
509.524	320.21
509.956	282.77
510.389	294.47
510.821	350.64
511.253	271.06
511.685	331.92
512.117	280.43
512.549	261.7
512.981	383.41
513.412	254.68
513.844	369.37
514.276	343.62
514.707	357.66
515.139	315.53
515.571	285.11
516.002	317.87
516.433	320.21
516.865	336.6
517.296	320.21
517.727	336.6
518.159	315.53
518.59	420.86
519.021	376.39
519.452	313.19
519.883	329.58
520.314	357.66
520.744	371.71
521.175	285.11
521.606	299.15
522.037	331.92
522.467	317.87
522.898	306.17
523.328	261.7
523.759	320.21
524.189	331.92
524.62	306.17
525.05	324.9
525.48	306.17
525.91	364.68
526.341	308.51
526.771	381.07
527.201	306.17
527.631	348.3
528.061	296.81
528.49	268.72
528.92	268.72
529.35	259.36
529.78	313.19
530.209	343.62
530.639	301.49
531.068	231.27
531.498	362.34
531.927	364.68
532.357	367.03
532.786	374.05
533.215	324.9
533.644	268.72
534.074	320.21
534.503	252.34
534.932	287.45
535.361	329.58
535.79	320.21
536.218	294.47
536.647	329.58
537.076	334.26
537.505	285.11
537.933	331.92
538.362	327.24
538.79	303.83
539.219	306.17
539.647	322.56
540.076	299.15
540.504	315.53
540.932	285.11
541.36	343.62
541.788	299.15
542.217	292.13
542.645	310.85
543.073	289.79
543.5	334.26
543.928	329.58
544.356	331.92
544.784	360
545.211	390.43
545.639	306.17
546.067	331.92
546.494	317.87
546.922	275.74
547.349	245.32
547.776	301.49
548.204	285.11
548.631	278.08
549.058	299.15
549.485	299.15
549.912	313.19
550.339	257.02
550.766	273.4
551.193	348.3
551.62	254.68
552.047	327.24
552.474	331.92
552.9	299.15
553.327	350.64
553.754	252.34
554.18	259.36
554.607	317.87
555.033	287.45
555.459	331.92
555.886	320.21
556.312	343.62
556.738	320.21
557.164	268.72
557.59	341.28
558.016	289.79
558.442	343.62
558.868	308.51
559.294	324.9
559.72	308.51
560.145	315.53
560.571	329.58
560.997	329.58
561.422	278.08
561.848	310.85
562.273	315.53
562.699	336.6
563.124	327.24
563.549	301.49
563.974	317.87
564.4	264.04
564.825	334.26
565.25	352.98
565.675	303.83
566.1	235.96
566.525	289.79
566.95	381.07
567.374	315.53
567.799	303.83
568.224	327.24
568.648	310.85
569.073	264.04
569.497	357.66
569.922	317.87
570.346	278.08
570.771	313.19
571.195	303.83
571.619	345.96
572.043	348.3
572.467	296.81
572.891	327.24
573.315	266.38
573.739	287.45
574.163	327.24
574.587	301.49
575.011	338.94
575.435	224.25
575.858	348.3
576.282	306.17
576.705	233.61
577.129	317.87
577.552	320.21
577.976	317.87
578.399	292.13
578.822	324.9
579.245	371.71
579.669	299.15
580.092	254.68
580.515	308.51
580.938	338.94
581.361	292.13
581.784	268.72
582.206	257.02
582.629	338.94
583.052	266.38
583.474	341.28
583.897	338.94
584.32	233.61
584.742	331.92
585.165	341.28
585.587	355.32
586.009	303.83
586.431	268.72
586.854	317.87
587.276	294.47
587.698	287.45
588.12	271.06
588.542	310.85
588.964	324.9
589.386	261.7
589.807	264.04
590.229	296.81
590.651	266.38
591.073	273.4
591.494	282.77
591.916	322.56
592.337	296.81
592.759	275.74
593.18	294.47
593.601	289.79
594.022	285.11
594.444	264.04
594.865	322.56
595.286	322.56
595.707	409.15
596.128	294.47
596.549	257.02
596.97	313.19
597.39	331.92
597.811	310.85
598.232	285.11
598.652	257.02
599.073	322.56
599.494	378.73
599.914	317.87
600.334	285.11
600.755	299.15
601.175	294.47
601.595	289.79
602.015	292.13
602.436	294.47
602.856	441.92
603.276	303.83
603.696	301.49
604.115	280.43
604.535	294.47
604.955	299.15
605.375	350.64
605.794	285.11
606.214	324.9
606.634	313.19
607.053	338.94
607.473	285.11
607.892	303.83
608.311	367.03
608.731	313.19
609.15	280.43
609.569	303.83
609.988	317.87
610.407	317.87
610.826	252.34
611.245	324.9
611.664	303.83
612.083	306.17
612.501	235.96
612.92	367.03
613.339	287.45
613.757	266.38
614.176	315.53
614.594	336.6
615.013	285.11
615.431	282.77
615.85	369.37
616.268	301.49
616.686	343.62
617.104	322.56
617.522	322.56
617.94	322.56
618.358	327.24
618.776	348.3
619.194	289.79
619.612	303.83
620.03	271.06
620.447	329.58
620.865	261.7
621.282	320.21
621.7	299.15
622.117	292.13
622.535	294.47
622.952	245.32
623.369	252.34
623.787	282.77
624.204	331.92
624.621	299.15
625.038	289.79
625.455	338.94
625.872	364.68
626.289	360
626.706	320.21
627.123	268.72
627.539	280.43
627.956	273.4
628.373	317.87
628.789	327.24
629.206	259.36
629.622	362.34
630.038	289.79
630.455	268.72
630.871	352.98
631.287	334.26
631.703	310.85
632.12	324.9
632.536	390.43
632.952	348.3
633.368	310.85
633.783	322.56
634.199	343.62
634.615	329.58
635.031	397.45
635.446	271.06
635.862	247.66
636.277	338.94
636.693	317.87
637.108	294.47
637.524	395.11
637.939	360
638.354	308.51
638.77	273.4
639.185	322.56
639.6	257.02
640.015	294.47
640.43	320.21
640.845	327.24
641.259	313.19
641.674	341.28
642.089	303.83
642.504	345.96
642.918	278.08
643.333	299.15
643.747	341.28
644.162	257.02
644.576	329.58
644.991	282.77
645.405	301.49
645.819	322.56
646.233	313.19
646.647	257.02
647.061	289.79
647.475	280.43
647.889	285.11
648.303	238.3
648.717	317.87
649.131	292.13
649.545	301.49
649.958	336.6
650.372	350.64
650.785	273.4
651.199	345.96
651.612	289.79
652.026	250
652.439	317.87
652.852	261.7
653.266	287.45
653.679	278.08
654.092	292.13
654.505	310.85
654.918	338.94
655.331	329.58
655.744	310.85
656.156	345.96
656.569	299.15
656.982	266.38
657.394	308.51
657.807	313.19
658.22	264.04
658.632	310.85
659.044	360
659.457	348.3
659.869	294.47
660.281	341.28
660.693	280.43
661.106	345.96
661.518	313.19
661.93	275.74
662.342	313.19
662.754	264.04
663.165	371.71
663.577	271.06
663.989	299.15
664.401	303.83
664.812	341.28
665.224	240.64
665.635	315.53
666.047	348.3
666.458	294.47
666.869	345.96
667.281	310.85
667.692	315.53
668.103	331.92
668.514	313.19
668.925	310.85
669.336	303.83
669.747	306.17
670.158	299.15
670.569	341.28
670.979	308.51
671.39	271.06
671.801	357.66
672.211	296.81
672.622	327.24
673.032	306.17
673.443	296.81
673.853	242.98
674.263	301.49
674.674	324.9
675.084	329.58
675.494	324.9
675.904	338.94
676.314	275.74
676.724	324.9
677.134	299.15
677.544	320.21
677.953	336.6
678.363	388.09
678.773	334.26
679.182	287.45
679.592	294.47
680.001	310.85
680.411	313.19
680.82	310.85
681.23	282.77
681.639	388.09
682.048	383.41
682.457	238.3
682.866	341.28
683.275	345.96
683.684	294.47
684.093	343.62
684.502	299.15
684.911	317.87
685.32	301.49
685.728	369.37
686.137	334.26
686.546	329.58
686.954	320.21
687.363	345.96
687.771	271.06
688.179	329.58
688.588	313.19
688.996	327.24
689.404	278.08
689.812	301.49
690.22	397.45
690.628	303.83
691.036	296.81
691.444	273.4
691.852	331.92
692.26	313.19
692.667	360
693.075	371.71
693.483	294.47
693.89	308.51
694.298	308.51
694.705	355.32
695.112	357.66
695.52	238.3
695.927	282.77
696.334	357.66
696.741	296.81
697.148	294.47
697.555	308.51
697.962	313.19
698.369	355.32
698.776	320.21
699.183	355.32
699.59	296.81
699.996	271.06
700.403	245.32
700.81	341.28
701.216	334.26
701.623	301.49
702.029	287.45
702.435	294.47
702.842	327.24
703.248	301.49
703.654	280.43
704.06	287.45
704.466	327.24
704.872	315.53
705.278	275.74
705.684	287.45
706.09	282.77
706.496	315.53
706.901	324.9
707.307	327.24
707.712	296.81
708.118	271.06
708.523	329.58
708.929	306.17
709.334	296.81
709.74	287.45
710.145	310.85
710.55	322.56
710.955	362.34
711.36	324.9
711.765	315.53
712.17	336.6
712.575	383.41
712.98	816.41
713.385	381.07
713.789	338.94
714.194	315.53
714.599	348.3
715.003	308.51
715.408	352.98
715.812	257.02
716.217	315.53
716.621	313.19
717.025	367.03
717.429	324.9
717.833	228.93
718.238	357.66
718.642	317.87
719.046	317.87
719.449	315.53
719.853	303.83
720.257	308.51
720.661	409.15
721.065	320.21
721.468	329.58
721.872	327.24
722.275	338.94
722.679	240.64
723.082	336.6
723.485	317.87
723.889	287.45
724.292	331.92
724.695	264.04
725.098	282.77
725.501	362.34
725.904	385.75
726.307	350.64
726.71	341.28
727.113	331.92
727.516	292.13
727.918	308.51
728.321	299.15
728.724	364.68
729.126	331.92
729.529	294.47
729.931	310.85
730.333	296.81
730.736	320.21
731.138	313.19
731.54	317.87
731.942	303.83
732.344	287.45
732.746	285.11
733.148	299.15
733.55	371.71
733.952	308.51
734.354	306.17
734.756	275.74
735.157	282.77
735.559	324.9
735.96	301.49
736.362	273.4
736.763	271.06
737.165	327.24
737.566	315.53
737.967	317.87
738.368	345.96
738.77	296.81
739.171	268.72
739.572	310.85
739.973	338.94
740.374	301.49
740.774	292.13
741.175	278.08
741.576	280.43
741.977	280.43
742.377	331.92
742.778	308.51
743.178	320.21
743.579	278.08
743.979	362.34
744.379	285.11
744.78	310.85
745.18	322.56
745.58	338.94
745.98	315.53
746.38	336.6
746.78	369.37
747.18	294.47
747.58	294.47
747.98	273.4
748.38	250
748.779	317.87
749.179	327.24
749.578	275.74
749.978	317.87
750.377	334.26
750.777	296.81
751.176	250
751.575	266.38
751.975	296.81
752.374	287.45
752.773	357.66
753.172	338.94
753.571	261.7
753.97	296.81
754.369	245.32
754.768	299.15
755.166	299.15
755.565	385.75
755.964	343.62
756.362	299.15
756.761	320.21
757.159	296.81
757.558	317.87
757.956	390.43
758.354	371.71
758.753	416.18
759.151	273.4
759.549	296.81
759.947	338.94
760.345	287.45
760.743	360
761.141	285.11
761.539	310.85
761.936	261.7
762.334	292.13
762.732	299.15
763.129	322.56
763.527	350.64
763.924	357.66
764.322	322.56
764.719	282.77
765.117	294.47
765.514	285.11
765.911	350.64
766.308	275.74
766.705	317.87
767.102	322.56
767.499	233.61
767.896	261.7
768.293	285.11
768.69	329.58
769.086	280.43
769.483	334.26
769.88	273.4
770.276	317.87
770.673	317.87
771.069	385.75
771.466	343.62
771.862	317.87
772.258	207.87
772.654	287.45
773.05	285.11
773.447	292.13
773.843	292.13
774.239	275.74
774.634	329.58
775.03	341.28
775.426	317.87
775.822	266.38
776.218	364.68
776.613	303.83
777.009	303.83
777.404	334.26
777.8	285.11
778.195	268.72
778.59	360
778.986	257.02
779.381	338.94
779.776	331.92
780.171	292.13
780.566	285.11
780.961	294.47
781.356	331.92
781.751	327.24
782.146	331.92
782.54	308.51
782.935	219.57
783.33	303.83
783.724	273.4
784.119	299.15
784.513	264.04
784.908	345.96
785.302	299.15
785.696	294.47
786.09	376.39
786.485	350.64
786.879	250
787.273	334.26
787.667	331.92
788.061	299.15
788.454	275.74
788.848	310.85
789.242	301.49
789.636	285.11
790.029	348.3
790.423	280.43
790.816	322.56
791.21	261.7
791.603	242.98
791.997	331.92
792.39	381.07
792.783	345.96
793.176	301.49
793.569	334.26
793.962	294.47
794.355	348.3
794.748	315.53
795.141	374.05
795.534	296.81
795.927	299.15
796.319	331.92
796.712	301.49
797.105	315.53
797.497	348.3
797.89	296.81
798.282	247.66
798.674	303.83
799.067	324.9
799.459	266.38
799.851	324.9
800.243	294.47
800.635	294.47
801.027	320.21
801.419	257.02
801.811	310.85
802.203	275.74
802.594	252.34
802.986	313.19
803.378	322.56
803.769	252.34
804.161	317.87
804.552	273.4
804.944	308.51
805.335	289.79
805.726	320.21
806.118	338.94
806.509	308.51
806.9	306.17
807.291	376.39
807.682	303.83
808.073	313.19
808.464	315.53
808.855	381.07
809.245	303.83
809.636	271.06
810.027	294.47
810.417	301.49
810.808	320.21
811.198	355.32
811.589	282.77
811.979	331.92
812.369	313.19
812.759	317.87
813.15	310.85
813.54	322.56
813.93	313.19
814.32	341.28
814.71	306.17
815.1	285.11
815.489	308.51
815.879	303.83
816.269	317.87
816.658	362.34
817.048	280.43
817.438	268.72
817.827	313.19
818.216	301.49
818.606	315.53
818.995	310.85
819.384	259.36
819.773	327.24
820.163	303.83
820.552	348.3
820.941	280.43
821.33	371.71
821.718	292.13
822.107	303.83
822.496	317.87
822.885	264.04
823.273	381.07
823.662	360
824.05	317.87
824.439	278.08
824.827	364.68
825.216	282.77
825.604	233.61
825.992	245.32
826.38	287.45
826.768	306.17
827.156	369.37
827.544	292.13
827.932	327.24
828.32	301.49
828.708	329.58
829.096	299.15
829.483	322.56
829.871	381.07
830.259	322.56
830.646	252.34
831.034	367.03
831.421	331.92
831.808	324.9
832.196	308.51
832.583	315.53
832.97	322.56
833.357	317.87
833.744	259.36
834.131	320.21
834.518	352.98
834.905	299.15
835.292	235.96
835.678	301.49
836.065	289.79
836.452	310.85
836.838	292.13
837.225	303.83
837.611	341.28
837.998	329.58
838.384	308.51
838.77	327.24
839.157	299.15
839.543	336.6
839.929	331.92
840.315	367.03
840.701	362.34
841.087	287.45
841.473	259.36
841.858	360
842.244	257.02
842.63	273.4
843.015	282.77
843.401	310.85
843.787	285.11
844.172	252.34
844.557	322.56
844.943	388.09
845.328	285.11
845.713	383.41
846.098	264.04
846.483	331.92
846.868	280.43
847.253	214.89
847.638	306.17
848.023	322.56
848.408	327.24
848.793	278.08
849.177	301.49
849.562	324.9
849.947	299.15
850.331	315.53
850.715	334.26
851.1	317.87
851.484	329.58
851.868	310.85
852.253	273.4
852.637	268.72
853.021	320.21
853.405	378.73
853.789	355.32
854.173	345.96
854.557	348.3
854.94	294.47
855.324	285.11
855.708	315.53
856.091	371.71
856.475	345.96
856.858	294.47
857.242	350.64
857.625	320.21
858.009	301.49
858.392	329.58
858.775	252.34
859.158	313.19
859.541	275.74
859.924	308.51
860.307	308.51
860.69	324.9
861.073	289.79
861.456	360
861.838	376.39
862.221	301.49
862.604	287.45
862.986	357.66
863.369	317.87
863.751	308.51
864.133	327.24
864.516	306.17
864.898	261.7
865.28	324.9
865.662	268.72
866.044	324.9
866.426	329.58
866.808	273.4
867.19	278.08
867.572	329.58
867.954	329.58
868.336	369.37
868.717	299.15
869.099	287.45
869.48	247.66
869.862	299.15
870.243	383.41
870.625	343.62
871.006	315.53
871.387	247.66
871.768	315.53
872.149	348.3
872.53	343.62
872.911	301.49
873.292	369.37
873.673	320.21
874.054	294.47
874.435	357.66
874.815	364.68
875.196	345.96
875.577	275.74
875.957	303.83
876.338	350.64
876.718	334.26
877.098	259.36
877.479	317.87
877.859	331.92
878.239	350.64
878.619	264.04
878.999	334.26
879.379	301.49
879.759	289.79
880.139	294.47
880.519	308.51
880.898	324.9
881.278	317.87
881.658	329.58
882.037	280.43
882.417	320.21
882.796	292.13
883.176	362.34
883.555	299.15
883.934	310.85
884.313	327.24
884.693	280.43
885.072	315.53
885.451	334.26
885.83	242.98
886.209	221.91
886.587	334.26
886.966	278.08
887.345	399.79
887.724	301.49
888.102	259.36
888.481	334.26
888.859	259.36
889.238	301.49
889.616	308.51
889.994	259.36
890.373	282.77
890.751	296.81
891.129	285.11
891.507	329.58
891.885	268.72
892.263	303.83
892.641	329.58
893.019	275.74
893.396	280.43
893.774	357.66
894.152	313.19
894.529	331.92
894.907	350.64
895.284	301.49
895.662	331.92
896.039	289.79
896.416	275.74
896.794	360
897.171	308.51
897.548	308.51
897.925	320.21
898.302	322.56
898.679	285.11
899.056	310.85
899.433	334.26
899.809	322.56
900.186	275.74
900.563	331.92
900.939	369.37
901.316	287.45
901.692	345.96
902.069	350.64
902.445	313.19
902.821	336.6
903.197	320.21
903.574	282.77
903.95	331.92
904.326	289.79
904.702	348.3
905.078	303.83
905.454	294.47
905.829	317.87
906.205	282.77
906.581	271.06
906.956	252.34
907.332	285.11
907.707	287.45
908.083	247.66
908.458	282.77
908.833	296.81
909.209	313.19
909.584	371.71
909.959	299.15
910.334	285.11
910.709	306.17
911.084	275.74
911.459	301.49
911.834	292.13
912.209	308.51
912.583	306.17
912.958	303.83
913.333	266.38
913.707	308.51
914.082	287.45
914.456	320.21
914.83	308.51
915.205	322.56
915.579	282.77
915.953	282.77
916.327	261.7
916.701	273.4
917.075	341.28
917.449	313.19
917.823	355.32
918.197	301.49
918.571	275.74
918.944	247.66
919.318	280.43
919.692	320.21
920.065	299.15
920.438	289.79
920.812	327.24
921.185	273.4
921.558	336.6
921.932	310.85
922.305	268.72
922.678	264.04
923.051	303.83
923.424	324.9
923.797	303.83
924.17	315.53
924.542	364.68
924.915	228.93
925.288	264.04
925.661	261.7
926.033	334.26
926.406	301.49
926.778	313.19
927.15	336.6
927.523	250
927.895	301.49
928.267	261.7
928.639	322.56
929.011	324.9
929.383	296.81
929.755	266.38
930.127	343.62
930.499	252.34
930.871	231.27
931.242	348.3
931.614	238.3
931.986	301.49
932.357	306.17
932.729	367.03
933.1	350.64
933.471	345.96
933.843	238.3
934.214	296.81
934.585	331.92
934.956	233.61
935.327	245.32
935.698	271.06
936.069	245.32
936.44	313.19
936.811	371.71
937.182	280.43
937.552	338.94
937.923	257.02
938.293	331.92
938.664	282.77
939.034	306.17
939.405	317.87
939.775	308.51
940.145	280.43
940.516	289.79
940.886	245.32
941.256	217.23
941.626	329.58
941.996	348.3
942.366	362.34
942.735	252.34
943.105	317.87
943.475	289.79
943.845	327.24
944.214	287.45
944.584	301.49
944.953	254.68
945.323	250
945.692	282.77
946.061	362.34
946.43	374.05
946.8	238.3
947.169	324.9
947.538	308.51
947.907	287.45
948.276	395.11
948.645	313.19
949.013	324.9
949.382	362.34
949.751	296.81
950.119	313.19
950.488	336.6
950.857	240.64
951.225	296.81
951.593	310.85
951.962	331.92
952.33	292.13
952.698	324.9
953.066	268.72
953.434	285.11
953.802	313.19
954.17	336.6
954.538	264.04
954.906	273.4
955.274	247.66
955.642	285.11
956.009	362.34
956.377	336.6
956.744	271.06
957.112	210.21
957.479	289.79
957.847	250
958.214	287.45
958.581	329.58
958.948	313.19
959.315	324.9
959.683	343.62
960.05	212.55
960.416	289.79
960.783	308.51
961.15	343.62
961.517	282.77
961.884	287.45
962.25	301.49
962.617	292.13
962.983	292.13
963.35	308.51
963.716	264.04
964.082	345.96
964.449	308.51
964.815	271.06
965.181	306.17
965.547	350.64
965.913	282.77
966.279	306.17
966.645	296.81
967.011	334.26
967.377	322.56
967.742	308.51
968.108	343.62
968.474	273.4
968.839	329.58
969.205	350.64
969.57	268.72
969.935	235.96
970.301	233.61
970.666	294.47
971.031	317.87
971.396	306.17
971.761	303.83
972.126	296.81
972.491	313.19
972.856	315.53
973.221	301.49
973.586	355.32
973.95	324.9
974.315	331.92
974.679	278.08
975.044	317.87
975.408	296.81
975.773	329.58
976.137	313.19
976.501	282.77
976.866	287.45
977.23	352.98
977.594	280.43
977.958	313.19
978.322	299.15
978.686	268.72
979.049	315.53
979.413	226.59
979.777	322.56
980.141	329.58
980.504	315.53
980.868	278.08
981.231	317.87
981.595	327.24
981.958	313.19
982.321	292.13
982.684	301.49
983.048	320.21
983.411	240.64
983.774	261.7
984.137	233.61
984.5	336.6
984.862	252.34
985.225	324.9
985.588	315.53
985.951	306.17
986.313	376.39
986.676	292.13
987.038	315.53
987.401	343.62
987.763	343.62
988.125	299.15
988.488	299.15
988.85	334.26
989.212	315.53
989.574	301.49
989.936	306.17
990.298	231.27
990.66	362.34
991.022	338.94
991.383	271.06
991.745	287.45
992.107	306.17
992.468	320.21
992.83	313.19
993.191	254.68
993.553	329.58
993.914	310.85
994.275	289.79
994.637	355.32
994.998	303.83
995.359	280.43
995.72	271.06
996.081	282.77
996.442	310.85
996.803	228.93
997.163	292.13
997.524	287.45
997.885	228.93
998.245	322.56
998.606	317.87
998.966	271.06
999.327	292.13
999.687	313.19
1000.047	336.6
1000.408	278.08
1000.768	334.26
1001.128	308.51
1001.488	303.83
1001.848	254.68
1002.208	231.27
1002.568	306.17
1002.927	254.68
1003.287	285.11
1003.647	313.19
1004.007	245.32
1004.366	278.08
1004.726	317.87
1005.085	275.74
1005.444	299.15
1005.804	341.28
1006.163	301.49
1006.522	348.3
1006.881	242.98
1007.24	320.21
1007.599	308.51
1007.958	341.28
1008.317	289.79
1008.676	287.45
1009.035	341.28
1009.393	268.72
1009.752	345.96
1010.111	301.49
1010.469	324.9
1010.828	285.11
1011.186	343.62
1011.544	334.26
1011.903	275.74
1012.261	296.81
1012.619	355.32
1012.977	329.58
1013.335	273.4
1013.693	261.7
1014.051	235.96
1014.409	278.08
1014.767	345.96
1015.124	322.56
1015.482	315.53
1015.84	308.51
1016.197	343.62
1016.555	329.58
1016.912	285.11
1017.269	310.85
1017.627	320.21
1017.984	264.04
1018.341	322.56
1018.698	261.7
1019.055	336.6
1019.412	341.28
1019.769	303.83
1020.126	331.92
1020.483	357.66
1020.84	301.49
1021.196	374.05
1021.553	341.28
1021.909	313.19
1022.266	280.43
1022.622	247.66
1022.979	301.49
1023.335	341.28
1023.691	266.38
1024.047	324.9
1024.404	336.6
1024.76	271.06
1025.116	271.06
1025.472	275.74
1025.827	264.04
1026.183	320.21
1026.539	268.72
1026.895	324.9
1027.25	303.83
1027.606	308.51
1027.961	252.34
1028.317	310.85
1028.672	348.3
1029.028	345.96
1029.383	367.03
1029.738	292.13
1030.093	275.74
1030.448	303.83
1030.803	357.66
1031.158	271.06
1031.513	313.19
1031.868	308.51
1032.223	327.24
1032.577	345.96
1032.932	320.21
1033.287	289.79
1033.641	334.26
1033.996	287.45
1034.35	352.98
1034.704	317.87
1035.059	273.4
1035.413	273.4
1035.767	273.4
1036.121	273.4
