Data from Al_FLMS009871__977__16-20-58-819.txt Node

Date: Fri Mar 08 16:20:58 CST 2024
User: pe5414po
Spectrometer: FLMS00987
Trigger mode: 0
Integration Time (sec): 1.000000E-1
Scans to average: 1
Electric dark correction enabled: true
Nonlinearity correction enabled: false
Boxcar width: 0
XAxis mode: Wavelengths
Number of Pixels in Spectrum: 2048
>>>>>Begin Spectral Data<<<<<
188.938	-29.55
189.409	-29.55
189.879	-29.55
190.349	-130.19
190.819	-123.17
191.29	-144.24
191.76	-48.27
192.23	-48.27
192.7	-111.47
193.17	-88.06
193.64	-38.91
194.109	-78.7
194.579	19.6
195.049	-31.89
195.519	7.9
195.988	10.24
196.458	21.94
196.927	108.54
197.397	167.06
197.866	155.35
198.336	99.18
198.805	115.56
199.274	134.29
199.744	220.89
200.213	185.78
200.682	251.32
201.151	153.01
201.62	213.87
202.089	185.78
202.558	206.84
203.027	248.97
203.495	274.72
203.964	225.57
204.433	342.6
204.902	286.42
205.37	302.81
205.839	284.08
206.307	300.47
206.776	307.49
207.244	321.53
207.712	326.21
208.181	279.4
208.649	225.57
209.117	230.25
209.585	363.66
210.053	281.74
210.521	239.61
210.989	277.06
211.457	307.49
211.925	300.47
212.393	272.38
212.861	349.62
213.328	274.72
213.796	286.42
214.264	300.47
214.731	263.02
215.199	288.76
215.666	284.08
216.133	279.4
216.601	295.79
217.068	277.06
217.535	263.02
218.003	307.49
218.47	272.38
218.937	284.08
219.404	377.7
219.871	300.47
220.338	328.55
220.805	263.02
221.271	265.36
221.738	241.95
222.205	314.51
222.671	248.97
223.138	305.15
223.605	321.53
224.071	286.42
224.538	321.53
225.004	246.63
225.47	293.44
225.937	293.44
226.403	288.76
226.869	265.36
227.335	270.04
227.801	335.57
228.267	256
228.733	314.51
229.199	302.81
229.665	239.61
230.131	328.55
230.597	274.72
231.062	256
231.528	284.08
231.994	326.21
232.459	342.6
232.925	270.04
233.39	368.34
233.856	316.85
234.321	263.02
234.786	232.59
235.252	291.1
235.717	307.49
236.182	253.66
236.647	295.79
237.112	263.02
237.577	295.79
238.042	263.02
238.507	263.02
238.972	312.17
239.436	239.61
239.901	298.13
240.366	248.97
240.83	291.1
241.295	232.59
241.76	330.89
242.224	370.68
242.688	241.95
243.153	305.15
243.617	239.61
244.081	274.72
244.545	260.68
245.01	361.32
245.474	288.76
245.938	344.94
246.402	298.13
246.866	305.15
247.33	241.95
247.793	333.23
248.257	286.42
248.721	272.38
249.185	288.76
249.648	323.87
250.112	298.13
250.575	241.95
251.039	305.15
251.502	319.19
251.965	270.04
252.429	258.34
252.892	300.47
253.355	279.4
253.818	272.38
254.281	267.7
254.744	265.36
255.207	309.83
255.67	351.96
256.133	300.47
256.596	246.63
257.059	218.55
257.522	328.55
257.984	293.44
258.447	253.66
258.909	307.49
259.372	246.63
259.834	328.55
260.297	260.68
260.759	319.19
261.221	309.83
261.684	298.13
262.146	309.83
262.608	281.74
263.07	263.02
263.532	244.29
263.994	295.79
264.456	333.23
264.918	351.96
265.38	300.47
265.842	263.02
266.303	274.72
266.765	302.81
267.227	260.68
267.688	281.74
268.15	263.02
268.611	293.44
269.072	298.13
269.534	309.83
269.995	291.1
270.456	337.91
270.918	274.72
271.379	319.19
271.84	263.02
272.301	272.38
272.762	309.83
273.223	354.3
273.684	309.83
274.144	305.15
274.605	370.68
275.066	314.51
275.527	323.87
275.987	333.23
276.448	298.13
276.908	321.53
277.369	270.04
277.829	284.08
278.289	302.81
278.75	314.51
279.21	335.57
279.67	291.1
280.13	302.81
280.59	232.59
281.05	358.98
281.51	366
281.97	291.1
282.43	312.17
282.89	281.74
283.35	279.4
283.809	356.64
284.269	342.6
284.729	302.81
285.188	314.51
285.648	291.1
286.107	328.55
286.567	330.89
287.026	279.4
287.485	274.72
287.944	351.96
288.404	253.66
288.863	265.36
289.322	239.61
289.781	340.26
290.24	307.49
290.699	309.83
291.158	330.89
291.616	256
292.075	298.13
292.534	356.64
292.992	309.83
293.451	316.85
293.91	340.26
294.368	333.23
294.827	286.42
295.285	267.7
295.743	277.06
296.202	312.17
296.66	270.04
297.118	363.66
297.576	312.17
298.034	307.49
298.492	373.02
298.95	319.19
299.408	234.93
299.866	330.89
300.324	305.15
300.781	323.87
301.239	309.83
301.697	323.87
302.154	344.94
302.612	358.98
303.069	321.53
303.527	291.1
303.984	340.26
304.441	295.79
304.899	293.44
305.356	335.57
305.813	356.64
306.27	288.76
306.727	284.08
307.184	293.44
307.641	319.19
308.098	244.29
308.555	319.19
309.012	321.53
309.468	232.59
309.925	295.79
310.382	333.23
310.838	305.15
311.295	349.62
311.751	291.1
312.208	284.08
312.664	256
313.12	307.49
313.577	298.13
314.033	291.1
314.489	344.94
314.945	284.08
315.401	323.87
315.857	286.42
316.313	295.79
316.769	333.23
317.225	274.72
317.681	335.57
318.136	330.89
318.592	340.26
319.048	349.62
319.503	363.66
319.959	305.15
320.414	298.13
320.869	349.62
321.325	270.04
321.78	351.96
322.235	288.76
322.691	291.1
323.146	288.76
323.601	314.51
324.056	340.26
324.511	319.19
324.966	267.7
325.421	286.42
325.875	293.44
326.33	260.68
326.785	347.28
327.24	307.49
327.694	284.08
328.149	354.3
328.603	309.83
329.058	267.7
329.512	305.15
329.966	298.13
330.421	248.97
330.875	295.79
331.329	358.98
331.783	321.53
332.237	295.79
332.691	344.94
333.145	321.53
333.599	284.08
334.053	293.44
334.507	335.57
334.96	366
335.414	373.02
335.868	312.17
336.321	340.26
336.775	333.23
337.228	351.96
337.682	286.42
338.135	223.23
338.588	354.3
339.042	316.85
339.495	349.62
339.948	326.21
340.401	356.64
340.854	394.09
341.307	398.77
341.76	298.13
342.213	337.91
342.666	305.15
343.119	291.1
343.571	335.57
344.024	370.68
344.477	333.23
344.929	340.26
345.382	323.87
345.834	305.15
346.287	312.17
346.739	293.44
347.191	354.3
347.644	316.85
348.096	340.26
348.548	340.26
349	349.62
349.452	323.87
349.904	263.02
350.356	354.3
350.808	368.34
351.26	312.17
351.711	279.4
352.163	347.28
352.615	366
353.066	316.85
353.518	335.57
353.969	281.74
354.421	239.61
354.872	277.06
355.324	337.91
355.775	281.74
356.226	244.29
356.677	354.3
357.128	302.81
357.579	295.79
358.03	337.91
358.481	380.04
358.932	239.61
359.383	298.13
359.834	293.44
360.285	267.7
360.735	260.68
361.186	274.72
361.637	309.83
362.087	256
362.538	330.89
362.988	347.28
363.438	344.94
363.889	337.91
364.339	387.07
364.789	312.17
365.239	291.1
365.689	342.6
366.139	295.79
366.589	307.49
367.039	312.17
367.489	314.51
367.939	335.57
368.389	335.57
368.839	319.19
369.288	307.49
369.738	288.76
370.187	403.45
370.637	319.19
371.086	281.74
371.536	286.42
371.985	370.68
372.434	281.74
372.884	291.1
373.333	333.23
373.782	256
374.231	321.53
374.68	258.34
375.129	366
375.578	335.57
376.027	279.4
376.475	326.21
376.924	363.66
377.373	347.28
377.822	272.38
378.27	267.7
378.719	314.51
379.167	356.64
379.616	356.64
380.064	272.38
380.512	326.21
380.961	298.13
381.409	342.6
381.857	380.04
382.305	291.1
382.753	333.23
383.201	319.19
383.649	358.98
384.097	358.98
384.545	291.1
384.992	330.89
385.44	342.6
385.888	387.07
386.335	298.13
386.783	300.47
387.231	344.94
387.678	279.4
388.125	284.08
388.573	389.41
389.02	337.91
389.467	295.79
389.914	323.87
390.362	326.21
390.809	382.39
391.256	286.42
391.703	358.98
392.15	335.57
392.596	281.74
393.043	295.79
393.49	312.17
393.937	307.49
394.383	319.19
394.83	309.83
395.276	335.57
395.723	321.53
396.169	305.15
396.616	305.15
397.062	277.06
397.508	309.83
397.954	312.17
398.401	293.44
398.847	307.49
399.293	298.13
399.739	281.74
400.185	326.21
400.631	368.34
401.076	281.74
401.522	305.15
401.968	394.09
402.414	314.51
402.859	307.49
403.305	286.42
403.75	307.49
404.196	239.61
404.641	330.89
405.086	384.73
405.532	293.44
405.977	258.34
406.422	256
406.867	307.49
407.312	305.15
407.757	344.94
408.202	316.85
408.647	354.3
409.092	323.87
409.537	312.17
409.982	300.47
410.426	351.96
410.871	347.28
411.316	284.08
411.76	377.7
412.205	342.6
412.649	330.89
413.093	314.51
413.538	349.62
413.982	368.34
414.426	373.02
414.87	373.02
415.314	298.13
415.758	335.57
416.202	340.26
416.646	220.89
417.09	356.64
417.534	342.6
417.978	291.1
418.421	293.44
418.865	293.44
419.309	295.79
419.752	373.02
420.196	347.28
420.639	377.7
421.083	340.26
421.526	344.94
421.969	277.06
422.412	263.02
422.856	363.66
423.299	363.66
423.742	319.19
424.185	340.26
424.628	333.23
425.071	351.96
425.513	309.83
425.956	295.79
426.399	302.81
426.842	307.49
427.284	354.3
427.727	305.15
428.169	312.17
428.612	354.3
429.054	342.6
429.497	380.04
429.939	265.36
430.381	335.57
430.823	389.41
431.265	326.21
431.707	316.85
432.149	274.72
432.591	309.83
433.033	349.62
433.475	263.02
433.917	305.15
434.359	396.43
434.8	277.06
435.242	349.62
435.684	300.47
436.125	373.02
436.567	344.94
437.008	340.26
437.449	298.13
437.891	333.23
438.332	337.91
438.773	291.1
439.214	373.02
439.656	323.87
440.097	340.26
440.538	300.47
440.978	323.87
441.419	319.19
441.86	307.49
442.301	270.04
442.742	305.15
443.182	349.62
443.623	305.15
444.063	356.64
444.504	258.34
444.944	298.13
445.385	284.08
445.825	312.17
446.265	295.79
446.706	302.81
447.146	384.73
447.586	293.44
448.026	340.26
448.466	326.21
448.906	349.62
449.346	286.42
449.786	293.44
450.225	326.21
450.665	319.19
451.105	443.24
451.544	363.66
451.984	312.17
452.424	333.23
452.863	295.79
453.302	349.62
453.742	408.13
454.181	316.85
454.62	368.34
455.059	227.91
455.499	288.76
455.938	284.08
456.377	356.64
456.816	321.53
457.254	326.21
457.693	281.74
458.132	298.13
458.571	291.1
459.01	270.04
459.448	305.15
459.887	314.51
460.325	333.23
460.764	356.64
461.202	272.38
461.641	349.62
462.079	316.85
462.517	302.81
462.955	337.91
463.393	347.28
463.832	330.89
464.27	319.19
464.708	279.4
465.145	347.28
465.583	328.55
466.021	321.53
466.459	370.68
466.897	361.32
467.334	328.55
467.772	267.7
468.209	307.49
468.647	288.76
469.084	312.17
469.522	380.04
469.959	387.07
470.396	389.41
470.833	323.87
471.271	307.49
471.708	373.02
472.145	377.7
472.582	377.7
473.019	335.57
473.456	291.1
473.892	309.83
474.329	354.3
474.766	293.44
475.202	281.74
475.639	323.87
476.076	323.87
476.512	361.32
476.949	405.79
477.385	300.47
477.821	284.08
478.258	298.13
478.694	251.32
479.13	340.26
479.566	351.96
480.002	298.13
480.438	347.28
480.874	380.04
481.31	218.55
481.746	326.21
482.181	305.15
482.617	356.64
483.053	293.44
483.488	330.89
483.924	309.83
484.36	330.89
484.795	281.74
485.23	340.26
485.666	326.21
486.101	351.96
486.536	307.49
486.971	342.6
487.407	335.57
487.842	267.7
488.277	363.66
488.712	328.55
489.146	321.53
489.581	281.74
490.016	340.26
490.451	281.74
490.885	398.77
491.32	344.94
491.755	319.19
492.189	312.17
492.624	323.87
493.058	326.21
493.492	366
493.927	431.54
494.361	349.62
494.795	330.89
495.229	305.15
495.663	361.32
496.097	333.23
496.531	321.53
496.965	312.17
497.399	246.63
497.833	330.89
498.266	401.11
498.7	363.66
499.134	335.57
499.567	302.81
500.001	349.62
500.434	277.06
500.868	370.68
501.301	291.1
501.734	316.85
502.168	312.17
502.601	316.85
503.034	274.72
503.467	342.6
503.9	323.87
504.333	302.81
504.766	370.68
505.199	447.92
505.632	354.3
506.064	326.21
506.497	363.66
506.93	382.39
507.362	319.19
507.795	323.87
508.227	305.15
508.66	361.32
509.092	361.32
509.524	248.97
509.956	321.53
510.389	298.13
510.821	293.44
511.253	302.81
511.685	326.21
512.117	298.13
512.549	305.15
512.981	326.21
513.412	340.26
513.844	319.19
514.276	328.55
514.707	340.26
515.139	314.51
515.571	321.53
516.002	300.47
516.433	319.19
516.865	326.21
517.296	368.34
517.727	340.26
518.159	333.23
518.59	319.19
519.021	337.91
519.452	316.85
519.883	330.89
520.314	307.49
520.744	263.02
521.175	319.19
521.606	267.7
522.037	354.3
522.467	253.66
522.898	314.51
523.328	305.15
523.759	335.57
524.189	384.73
524.62	295.79
525.05	284.08
525.48	330.89
525.91	351.96
526.341	314.51
526.771	340.26
527.201	330.89
527.631	293.44
528.061	340.26
528.49	293.44
528.92	377.7
529.35	358.98
529.78	307.49
530.209	335.57
530.639	358.98
531.068	321.53
531.498	298.13
531.927	337.91
532.357	309.83
532.786	349.62
533.215	316.85
533.644	314.51
534.074	375.36
534.503	314.51
534.932	330.89
535.361	384.73
535.79	307.49
536.218	272.38
536.647	373.02
537.076	307.49
537.505	300.47
537.933	319.19
538.362	337.91
538.79	347.28
539.219	351.96
539.647	323.87
540.076	319.19
540.504	389.41
540.932	319.19
541.36	293.44
541.788	377.7
542.217	333.23
542.645	316.85
543.073	333.23
543.5	349.62
543.928	340.26
544.356	354.3
544.784	309.83
545.211	312.17
545.639	302.81
546.067	373.02
546.494	337.91
546.922	300.47
547.349	344.94
547.776	335.57
548.204	319.19
548.631	314.51
549.058	333.23
549.485	291.1
549.912	281.74
550.339	323.87
550.766	293.44
551.193	382.39
551.62	351.96
552.047	342.6
552.474	373.02
552.9	354.3
553.327	370.68
553.754	312.17
554.18	274.72
554.607	309.83
555.033	323.87
555.459	298.13
555.886	293.44
556.312	368.34
556.738	319.19
557.164	382.39
557.59	319.19
558.016	340.26
558.442	293.44
558.868	328.55
559.294	314.51
559.72	347.28
560.145	358.98
560.571	344.94
560.997	272.38
561.422	326.21
561.848	347.28
562.273	358.98
562.699	394.09
563.124	286.42
563.549	351.96
563.974	305.15
564.4	298.13
564.825	323.87
565.25	321.53
565.675	251.32
566.1	288.76
566.525	314.51
566.95	312.17
567.374	312.17
567.799	305.15
568.224	263.02
568.648	288.76
569.073	302.81
569.497	293.44
569.922	321.53
570.346	337.91
570.771	286.42
571.195	298.13
571.619	358.98
572.043	298.13
572.467	389.41
572.891	391.75
573.315	380.04
573.739	312.17
574.163	300.47
574.587	326.21
575.011	319.19
575.435	340.26
575.858	316.85
576.282	398.77
576.705	314.51
577.129	309.83
577.552	302.81
577.976	277.06
578.399	270.04
578.822	330.89
579.245	342.6
579.669	358.98
580.092	288.76
580.515	351.96
580.938	387.07
581.361	340.26
581.784	358.98
582.206	370.68
582.629	312.17
583.052	307.49
583.474	363.66
583.897	330.89
584.32	293.44
584.742	284.08
585.165	366
585.587	286.42
586.009	326.21
586.431	260.68
586.854	326.21
587.276	319.19
587.698	279.4
588.12	263.02
588.542	225.57
588.964	380.04
589.386	323.87
589.807	337.91
590.229	281.74
590.651	277.06
591.073	279.4
591.494	326.21
591.916	272.38
592.337	323.87
592.759	340.26
593.18	394.09
593.601	380.04
594.022	286.42
594.444	330.89
594.865	326.21
595.286	323.87
595.707	288.76
596.128	312.17
596.549	335.57
596.97	328.55
597.39	344.94
597.811	291.1
598.232	340.26
598.652	314.51
599.073	356.64
599.494	286.42
599.914	337.91
600.334	316.85
600.755	316.85
601.175	361.32
601.595	312.17
602.015	305.15
602.436	319.19
602.856	384.73
603.276	298.13
603.696	396.43
604.115	302.81
604.535	356.64
604.955	295.79
605.375	398.77
605.794	377.7
606.214	326.21
606.634	314.51
607.053	316.85
607.473	321.53
607.892	377.7
608.311	366
608.731	270.04
609.15	286.42
609.569	307.49
609.988	330.89
610.407	333.23
610.826	314.51
611.245	330.89
611.664	351.96
612.083	321.53
612.501	284.08
612.92	321.53
613.339	274.72
613.757	401.11
614.176	326.21
614.594	354.3
615.013	340.26
615.431	284.08
615.85	366
616.268	323.87
616.686	323.87
617.104	344.94
617.522	344.94
617.94	380.04
618.358	298.13
618.776	298.13
619.194	305.15
619.612	319.19
620.03	265.36
620.447	319.19
620.865	272.38
621.282	382.39
621.7	337.91
622.117	344.94
622.535	309.83
622.952	239.61
623.369	314.51
623.787	361.32
624.204	277.06
624.621	314.51
625.038	316.85
625.455	288.76
625.872	316.85
626.289	298.13
626.706	368.34
627.123	403.45
627.539	356.64
627.956	319.19
628.373	263.02
628.789	307.49
629.206	286.42
629.622	351.96
630.038	347.28
630.455	361.32
630.871	337.91
631.287	326.21
631.703	354.3
632.12	333.23
632.536	330.89
632.952	277.06
633.368	347.28
633.783	300.47
634.199	321.53
634.615	284.08
635.031	312.17
635.446	337.91
635.862	305.15
636.277	401.11
636.693	382.39
637.108	321.53
637.524	328.55
637.939	316.85
638.354	314.51
638.77	267.7
639.185	288.76
639.6	356.64
640.015	277.06
640.43	326.21
640.845	396.43
641.259	323.87
641.674	380.04
642.089	312.17
642.504	408.13
642.918	330.89
643.333	382.39
643.747	293.44
644.162	321.53
644.576	340.26
644.991	335.57
645.405	342.6
645.819	288.76
646.233	344.94
646.647	344.94
647.061	319.19
647.475	354.3
647.889	305.15
648.303	309.83
648.717	314.51
649.131	328.55
649.545	337.91
649.958	302.81
650.372	347.28
650.785	340.26
651.199	291.1
651.612	366
652.026	316.85
652.439	258.34
652.852	354.3
653.266	300.47
653.679	370.68
654.092	361.32
654.505	316.85
654.918	361.32
655.331	337.91
655.744	377.7
656.156	326.21
656.569	319.19
656.982	284.08
657.394	291.1
657.807	396.43
658.22	314.51
658.632	309.83
659.044	288.76
659.457	253.66
659.869	387.07
660.281	358.98
660.693	300.47
661.106	380.04
661.518	286.42
661.93	344.94
662.342	298.13
662.754	281.74
663.165	330.89
663.577	326.21
663.989	366
664.401	361.32
664.812	333.23
665.224	321.53
665.635	309.83
666.047	328.55
666.458	335.57
666.869	321.53
667.281	316.85
667.692	366
668.103	248.97
668.514	277.06
668.925	274.72
669.336	295.79
669.747	309.83
670.158	335.57
670.569	354.3
670.979	307.49
671.39	265.36
671.801	323.87
672.211	361.32
672.622	319.19
673.032	366
673.443	270.04
673.853	349.62
674.263	396.43
674.674	342.6
675.084	323.87
675.494	286.42
675.904	293.44
676.314	251.32
676.724	382.39
677.134	307.49
677.544	330.89
677.953	340.26
678.363	366
678.773	323.87
679.182	314.51
679.592	368.34
680.001	326.21
680.411	370.68
680.82	284.08
681.23	302.81
681.639	377.7
682.048	361.32
682.457	377.7
682.866	330.89
683.275	340.26
683.684	340.26
684.093	410.47
684.502	354.3
684.911	363.66
685.32	349.62
685.728	330.89
686.137	286.42
686.546	370.68
686.954	305.15
687.363	373.02
687.771	344.94
688.179	382.39
688.588	302.81
688.996	330.89
689.404	300.47
689.812	366
690.22	314.51
690.628	326.21
691.036	307.49
691.444	319.19
691.852	309.83
692.26	335.57
692.667	347.28
693.075	408.13
693.483	351.96
693.89	258.34
694.298	267.7
694.705	305.15
695.112	340.26
695.52	307.49
695.927	335.57
696.334	349.62
696.741	340.26
697.148	349.62
697.555	305.15
697.962	277.06
698.369	307.49
698.776	302.81
699.183	335.57
699.59	288.76
699.996	279.4
700.403	286.42
700.81	307.49
701.216	309.83
701.623	328.55
702.029	323.87
702.435	321.53
702.842	314.51
703.248	291.1
703.654	337.91
704.06	279.4
704.466	368.34
704.872	368.34
705.278	356.64
705.684	361.32
706.09	295.79
706.496	363.66
706.901	316.85
707.307	230.25
707.712	307.49
708.118	293.44
708.523	337.91
708.929	305.15
709.334	349.62
709.74	337.91
710.145	316.85
710.55	305.15
710.955	377.7
711.36	340.26
711.765	351.96
712.17	323.87
712.575	312.17
712.98	808.36
713.385	293.44
713.789	358.98
714.194	316.85
714.599	344.94
715.003	354.3
715.408	307.49
715.812	349.62
716.217	347.28
716.621	300.47
717.025	314.51
717.429	333.23
717.833	274.72
718.238	319.19
718.642	281.74
719.046	302.81
719.449	260.68
719.853	293.44
720.257	305.15
720.661	347.28
721.065	316.85
721.468	291.1
721.872	344.94
722.275	335.57
722.679	253.66
723.082	323.87
723.485	305.15
723.889	267.7
724.292	319.19
724.695	305.15
725.098	307.49
725.501	251.32
725.904	326.21
726.307	258.34
726.71	321.53
727.113	380.04
727.516	333.23
727.918	319.19
728.321	316.85
728.724	321.53
729.126	401.11
729.529	363.66
729.931	323.87
730.333	342.6
730.736	354.3
731.138	300.47
731.54	291.1
731.942	312.17
732.344	321.53
732.746	323.87
733.148	351.96
733.55	281.74
733.952	293.44
734.354	335.57
734.756	265.36
735.157	330.89
735.559	342.6
735.96	321.53
736.362	356.64
736.763	349.62
737.165	330.89
737.566	344.94
737.967	298.13
738.368	384.73
738.77	307.49
739.171	330.89
739.572	281.74
739.973	361.32
740.374	314.51
740.774	333.23
741.175	302.81
741.576	305.15
741.977	232.59
742.377	312.17
742.778	316.85
743.178	368.34
743.579	330.89
743.979	328.55
744.379	274.72
744.78	347.28
745.18	349.62
745.58	326.21
745.98	319.19
746.38	270.04
746.78	314.51
747.18	293.44
747.58	272.38
747.98	277.06
748.38	300.47
748.779	256
749.179	288.76
749.578	370.68
749.978	307.49
750.377	328.55
750.777	321.53
751.176	291.1
751.575	349.62
751.975	314.51
752.374	328.55
752.773	279.4
753.172	319.19
753.571	312.17
753.97	274.72
754.369	305.15
754.768	328.55
755.166	342.6
755.565	340.26
755.964	387.07
756.362	354.3
756.761	366
757.159	358.98
757.558	358.98
757.956	349.62
758.354	267.7
758.753	314.51
759.151	363.66
759.549	354.3
759.947	288.76
760.345	349.62
760.743	344.94
761.141	300.47
761.539	361.32
761.936	323.87
762.334	302.81
762.732	305.15
763.129	333.23
763.527	321.53
763.924	298.13
764.322	316.85
764.719	358.98
765.117	302.81
765.514	274.72
765.911	403.45
766.308	314.51
766.705	209.19
767.102	307.49
767.499	270.04
767.896	361.32
768.293	218.55
768.69	312.17
769.086	295.79
769.483	375.36
769.88	270.04
770.276	307.49
770.673	330.89
771.069	293.44
771.466	272.38
771.862	291.1
772.258	272.38
772.654	330.89
773.05	274.72
773.447	291.1
773.843	267.7
774.239	361.32
774.634	293.44
775.03	326.21
775.426	281.74
775.822	354.3
776.218	321.53
776.613	382.39
777.009	267.7
777.404	314.51
777.8	328.55
778.195	387.07
778.59	267.7
778.986	274.72
779.381	377.7
779.776	314.51
780.171	326.21
780.566	274.72
780.961	265.36
781.356	330.89
781.751	265.36
782.146	291.1
782.54	354.3
782.935	326.21
783.33	340.26
783.724	321.53
784.119	408.13
784.513	361.32
784.908	361.32
785.302	307.49
785.696	387.07
786.09	326.21
786.485	354.3
786.879	288.76
787.273	337.91
787.667	340.26
788.061	356.64
788.454	300.47
788.848	333.23
789.242	309.83
789.636	326.21
790.029	323.87
790.423	291.1
790.816	274.72
791.21	305.15
791.603	277.06
791.997	349.62
792.39	351.96
792.783	312.17
793.176	288.76
793.569	298.13
793.962	368.34
794.355	260.68
794.748	321.53
795.141	291.1
795.534	351.96
795.927	316.85
796.319	295.79
796.712	363.66
797.105	281.74
797.497	316.85
797.89	309.83
798.282	335.57
798.674	244.29
799.067	234.93
799.459	314.51
799.851	319.19
800.243	333.23
800.635	291.1
801.027	263.02
801.419	241.95
801.811	277.06
802.203	330.89
802.594	309.83
802.986	375.36
803.378	314.51
803.769	330.89
804.161	284.08
804.552	342.6
804.944	239.61
805.335	321.53
805.726	354.3
806.118	312.17
806.509	335.57
806.9	363.66
807.291	270.04
807.682	328.55
808.073	293.44
808.464	263.02
808.855	323.87
809.245	351.96
809.636	319.19
810.027	284.08
810.417	277.06
810.808	330.89
811.198	335.57
811.589	295.79
811.979	326.21
812.369	321.53
812.759	265.36
813.15	300.47
813.54	316.85
813.93	356.64
814.32	274.72
814.71	316.85
815.1	248.97
815.489	272.38
815.879	333.23
816.269	335.57
816.658	333.23
817.048	344.94
817.438	333.23
817.827	382.39
818.216	309.83
818.606	363.66
818.995	347.28
819.384	340.26
819.773	314.51
820.163	328.55
820.552	380.04
820.941	277.06
821.33	344.94
821.718	279.4
822.107	314.51
822.496	284.08
822.885	265.36
823.273	319.19
823.662	295.79
824.05	302.81
824.439	321.53
824.827	312.17
825.216	323.87
825.604	349.62
825.992	284.08
826.38	302.81
826.768	316.85
827.156	218.55
827.544	307.49
827.932	321.53
828.32	358.98
828.708	347.28
829.096	307.49
829.483	319.19
829.871	335.57
830.259	265.36
830.646	328.55
831.034	370.68
831.421	267.7
831.808	305.15
832.196	344.94
832.583	356.64
832.97	330.89
833.357	288.76
833.744	363.66
834.131	272.38
834.518	394.09
834.905	373.02
835.292	295.79
835.678	319.19
836.065	286.42
836.452	305.15
836.838	412.81
837.225	401.11
837.611	286.42
837.998	321.53
838.384	260.68
838.77	314.51
839.157	337.91
839.543	312.17
839.929	298.13
840.315	408.13
840.701	330.89
841.087	258.34
841.473	307.49
841.858	328.55
842.244	279.4
842.63	284.08
843.015	270.04
843.401	412.81
843.787	314.51
844.172	281.74
844.557	237.27
844.943	375.36
845.328	253.66
845.713	321.53
846.098	309.83
846.483	246.63
846.868	319.19
847.253	234.93
847.638	340.26
848.023	323.87
848.408	321.53
848.793	314.51
849.177	337.91
849.562	387.07
849.947	284.08
850.331	321.53
850.715	293.44
851.1	314.51
851.484	288.76
851.868	241.95
852.253	382.39
852.637	307.49
853.021	396.43
853.405	305.15
853.789	291.1
854.173	347.28
854.557	309.83
854.94	256
855.324	330.89
855.708	366
856.091	291.1
856.475	286.42
856.858	312.17
857.242	251.32
857.625	342.6
858.009	244.29
858.392	270.04
858.775	293.44
859.158	328.55
859.541	316.85
859.924	277.06
860.307	333.23
860.69	284.08
861.073	337.91
861.456	389.41
861.838	368.34
862.221	335.57
862.604	340.26
862.986	351.96
863.369	321.53
863.751	312.17
864.133	291.1
864.516	302.81
864.898	335.57
865.28	302.81
865.662	270.04
866.044	347.28
866.426	312.17
866.808	366
867.19	335.57
867.572	347.28
867.954	319.19
868.336	307.49
868.717	342.6
869.099	305.15
869.48	314.51
869.862	309.83
870.243	319.19
870.625	382.39
871.006	298.13
871.387	279.4
871.768	323.87
872.149	309.83
872.53	277.06
872.911	337.91
873.292	314.51
873.673	368.34
874.054	314.51
874.435	279.4
874.815	328.55
875.196	307.49
875.577	382.39
875.957	312.17
876.338	319.19
876.718	394.09
877.098	342.6
877.479	295.79
877.859	349.62
878.239	248.97
878.619	333.23
878.999	349.62
879.379	326.21
879.759	326.21
880.139	340.26
880.519	298.13
880.898	358.98
881.278	277.06
881.658	351.96
882.037	298.13
882.417	370.68
882.796	340.26
883.176	387.07
883.555	312.17
883.934	366
884.313	321.53
884.693	316.85
885.072	335.57
885.451	373.02
885.83	314.51
886.209	330.89
886.587	309.83
886.966	384.73
887.345	366
887.724	340.26
888.102	321.53
888.481	319.19
888.859	319.19
889.238	267.7
889.616	270.04
889.994	330.89
890.373	295.79
890.751	337.91
891.129	354.3
891.507	239.61
891.885	344.94
892.263	302.81
892.641	347.28
893.019	295.79
893.396	344.94
893.774	351.96
894.152	274.72
894.529	305.15
894.907	344.94
895.284	286.42
895.662	293.44
896.039	312.17
896.416	312.17
896.794	281.74
897.171	330.89
897.548	335.57
897.925	241.95
898.302	284.08
898.679	319.19
899.056	344.94
899.433	314.51
899.809	300.47
900.186	279.4
900.563	323.87
900.939	323.87
901.316	312.17
901.692	258.34
902.069	295.79
902.445	344.94
902.821	340.26
903.197	321.53
903.574	363.66
903.95	354.3
904.326	370.68
904.702	270.04
905.078	340.26
905.454	272.38
905.829	370.68
906.205	354.3
906.581	337.91
906.956	344.94
907.332	347.28
907.707	279.4
908.083	319.19
908.458	291.1
908.833	291.1
909.209	295.79
909.584	305.15
909.959	272.38
910.334	375.36
910.709	323.87
911.084	335.57
911.459	307.49
911.834	319.19
912.209	370.68
912.583	279.4
912.958	375.36
913.333	305.15
913.707	267.7
914.082	293.44
914.456	314.51
914.83	328.55
915.205	330.89
915.579	279.4
915.953	260.68
916.327	363.66
916.701	384.73
917.075	260.68
917.449	267.7
917.823	305.15
918.197	300.47
918.571	305.15
918.944	309.83
919.318	288.76
919.692	335.57
920.065	370.68
920.438	330.89
920.812	347.28
921.185	272.38
921.558	234.93
921.932	340.26
922.305	312.17
922.678	300.47
923.051	351.96
923.424	337.91
923.797	387.07
924.17	298.13
924.542	333.23
924.915	288.76
925.288	281.74
925.661	330.89
926.033	277.06
926.406	373.02
926.778	300.47
927.15	323.87
927.523	307.49
927.895	330.89
928.267	277.06
928.639	305.15
929.011	307.49
929.383	305.15
929.755	312.17
930.127	312.17
930.499	284.08
930.871	234.93
931.242	298.13
931.614	321.53
931.986	349.62
932.357	302.81
932.729	258.34
933.1	305.15
933.471	307.49
933.843	279.4
934.214	284.08
934.585	316.85
934.956	302.81
935.327	309.83
935.698	356.64
936.069	302.81
936.44	281.74
936.811	293.44
937.182	314.51
937.552	281.74
937.923	344.94
938.293	351.96
938.664	335.57
939.034	312.17
939.405	323.87
939.775	291.1
940.145	284.08
940.516	342.6
940.886	335.57
941.256	316.85
941.626	277.06
941.996	340.26
942.366	335.57
942.735	319.19
943.105	380.04
943.475	321.53
943.845	307.49
944.214	347.28
944.584	272.38
944.953	368.34
945.323	307.49
945.692	281.74
946.061	323.87
946.43	309.83
946.8	279.4
947.169	305.15
947.538	272.38
947.907	307.49
948.276	328.55
948.645	281.74
949.013	307.49
949.382	351.96
949.751	291.1
950.119	389.41
950.488	319.19
950.857	333.23
951.225	270.04
951.593	342.6
951.962	279.4
952.33	305.15
952.698	274.72
953.066	323.87
953.434	279.4
953.802	253.66
954.17	307.49
954.538	335.57
954.906	354.3
955.274	347.28
955.642	319.19
956.009	347.28
956.377	305.15
956.744	356.64
957.112	291.1
957.479	267.7
957.847	244.29
958.214	274.72
958.581	361.32
958.948	305.15
959.315	387.07
959.683	333.23
960.05	274.72
960.416	330.89
960.783	354.3
961.15	368.34
961.517	265.36
961.884	349.62
962.25	265.36
962.617	375.36
962.983	373.02
963.35	335.57
963.716	270.04
964.082	279.4
964.449	398.77
964.815	281.74
965.181	300.47
965.547	366
965.913	347.28
966.279	312.17
966.645	291.1
967.011	351.96
967.377	281.74
967.742	375.36
968.108	307.49
968.474	328.55
968.839	321.53
969.205	272.38
969.57	291.1
969.935	370.68
970.301	319.19
970.666	265.36
971.031	323.87
971.396	305.15
971.761	354.3
972.126	300.47
972.491	293.44
972.856	298.13
973.221	298.13
973.586	305.15
973.95	319.19
974.315	340.26
974.679	309.83
975.044	323.87
975.408	293.44
975.773	263.02
976.137	368.34
976.501	300.47
976.866	330.89
977.23	307.49
977.594	291.1
977.958	298.13
978.322	347.28
978.686	330.89
979.049	356.64
979.413	267.7
979.777	305.15
980.141	286.42
980.504	270.04
980.868	309.83
981.231	232.59
981.595	307.49
981.958	307.49
982.321	277.06
982.684	230.25
983.048	305.15
983.411	328.55
983.774	309.83
984.137	373.02
984.5	293.44
984.862	321.53
985.225	351.96
985.588	309.83
985.951	342.6
986.313	307.49
986.676	405.79
987.038	260.68
987.401	295.79
987.763	335.57
988.125	370.68
988.488	340.26
988.85	295.79
989.212	302.81
989.574	300.47
989.936	363.66
990.298	256
990.66	256
991.022	246.63
991.383	314.51
991.745	342.6
992.107	349.62
992.468	340.26
992.83	274.72
993.191	377.7
993.553	293.44
993.914	344.94
994.275	293.44
994.637	321.53
994.998	284.08
995.359	321.53
995.72	323.87
996.081	330.89
996.442	288.76
996.803	349.62
997.163	344.94
997.524	237.27
997.885	330.89
998.245	234.93
998.606	330.89
998.966	277.06
999.327	298.13
999.687	298.13
1000.047	291.1
1000.408	288.76
1000.768	288.76
1001.128	291.1
1001.488	337.91
1001.848	295.79
1002.208	281.74
1002.568	328.55
1002.927	342.6
1003.287	328.55
1003.647	316.85
1004.007	356.64
1004.366	258.34
1004.726	335.57
1005.085	286.42
1005.444	323.87
1005.804	263.02
1006.163	232.59
1006.522	319.19
1006.881	354.3
1007.24	279.4
1007.599	333.23
1007.958	295.79
1008.317	319.19
1008.676	328.55
1009.035	328.55
1009.393	326.21
1009.752	340.26
1010.111	347.28
1010.469	366
1010.828	347.28
1011.186	319.19
1011.544	307.49
1011.903	305.15
1012.261	248.97
1012.619	375.36
1012.977	361.32
1013.335	366
1013.693	298.13
1014.051	312.17
1014.409	361.32
1014.767	382.39
1015.124	281.74
1015.482	408.13
1015.84	321.53
1016.197	326.21
1016.555	333.23
1016.912	286.42
1017.269	298.13
1017.627	340.26
1017.984	366
1018.341	316.85
1018.698	284.08
1019.055	319.19
1019.412	326.21
1019.769	389.41
1020.126	295.79
1020.483	270.04
1020.84	319.19
1021.196	361.32
1021.553	326.21
1021.909	288.76
1022.266	277.06
1022.622	300.47
1022.979	377.7
1023.335	319.19
1023.691	361.32
1024.047	344.94
1024.404	337.91
1024.76	270.04
1025.116	272.38
1025.472	326.21
1025.827	314.51
1026.183	281.74
1026.539	281.74
1026.895	319.19
1027.25	253.66
1027.606	279.4
1027.961	286.42
1028.317	328.55
1028.672	323.87
1029.028	328.55
1029.383	244.29
1029.738	251.32
1030.093	300.47
1030.448	279.4
1030.803	314.51
1031.158	333.23
1031.513	295.79
1031.868	295.79
1032.223	309.83
1032.577	284.08
1032.932	288.76
1033.287	316.85
1033.641	284.08
1033.996	319.19
1034.35	307.49
1034.704	314.51
1035.059	291.1
1035.413	316.85
1035.767	316.85
1036.121	316.85
