Data from Al_FLMS009871__978__16-20-58-919.txt Node

Date: Fri Mar 08 16:20:58 CST 2024
User: pe5414po
Spectrometer: FLMS00987
Trigger mode: 0
Integration Time (sec): 1.000000E-1
Scans to average: 1
Electric dark correction enabled: true
Nonlinearity correction enabled: false
Boxcar width: 0
XAxis mode: Wavelengths
Number of Pixels in Spectrum: 2048
>>>>>Begin Spectral Data<<<<<
188.938	-108.83
189.409	-108.83
189.879	-108.83
190.349	-111.18
190.819	-148.62
191.29	-143.94
191.76	-127.56
192.23	-113.52
192.7	-111.18
193.17	-31.6
193.64	-29.26
194.109	-22.24
194.579	-52.66
195.049	24.58
195.519	129.9
195.988	17.55
196.458	40.96
196.927	80.75
197.397	97.13
197.866	153.31
198.336	87.77
198.805	122.88
199.274	153.31
199.744	216.5
200.213	179.05
200.682	202.46
201.151	197.78
201.62	202.46
202.089	230.54
202.558	216.5
203.027	284.38
203.495	282.03
203.964	242.25
204.433	265.65
204.902	291.4
205.37	267.99
205.839	267.99
206.307	321.82
206.776	235.22
207.244	296.08
207.712	303.1
208.181	335.87
208.649	253.95
209.117	296.08
209.585	335.87
210.053	277.35
210.521	270.33
210.989	263.31
211.457	326.5
211.925	256.29
212.393	232.88
212.861	223.52
213.328	310.12
213.796	303.1
214.264	244.59
214.731	326.5
215.199	317.14
215.666	239.9
216.133	319.48
216.601	230.54
217.068	228.2
217.535	289.06
218.003	279.69
218.47	253.95
218.937	284.38
219.404	291.4
219.871	260.97
220.338	256.29
220.805	314.8
221.271	235.22
221.738	286.72
222.205	256.29
222.671	235.22
223.138	307.78
223.605	314.8
224.071	265.65
224.538	235.22
225.004	225.86
225.47	228.2
225.937	293.74
226.403	263.31
226.869	267.99
227.335	244.59
227.801	291.4
228.267	314.8
228.733	249.27
229.199	284.38
229.665	366.29
230.131	282.03
230.597	279.69
231.062	275.01
231.528	272.67
231.994	310.12
232.459	253.95
232.925	232.88
233.39	230.54
233.856	225.86
234.321	314.8
234.786	253.95
235.252	246.93
235.717	270.33
236.182	277.35
236.647	289.06
237.112	291.4
237.577	277.35
238.042	242.25
238.507	289.06
238.972	265.65
239.436	267.99
239.901	209.48
240.366	284.38
240.83	312.46
241.295	230.54
241.76	345.23
242.224	272.67
242.688	305.44
243.153	263.31
243.617	303.1
244.081	298.42
244.545	333.53
245.01	312.46
245.474	296.08
245.938	249.27
246.402	321.82
246.866	265.65
247.33	300.76
247.793	214.16
248.257	270.33
248.721	235.22
249.185	244.59
249.648	267.99
250.112	246.93
250.575	270.33
251.039	291.4
251.502	338.21
251.965	275.01
252.429	249.27
252.892	270.33
253.355	253.95
253.818	211.82
254.281	342.89
254.744	303.1
255.207	270.33
255.67	333.53
256.133	326.5
256.596	279.69
257.059	300.76
257.522	275.01
257.984	275.01
258.447	321.82
258.909	279.69
259.372	244.59
259.834	221.18
260.297	258.63
260.759	310.12
261.221	293.74
261.684	305.44
262.146	293.74
262.608	275.01
263.07	263.31
263.532	352.25
263.994	260.97
264.456	286.72
264.918	296.08
265.38	324.16
265.842	363.95
266.303	293.74
266.765	335.87
267.227	293.74
267.688	293.74
268.15	275.01
268.611	267.99
269.072	228.2
269.534	258.63
269.995	197.78
270.456	249.27
270.918	335.87
271.379	300.76
271.84	345.23
272.301	333.53
272.762	345.23
273.223	331.19
273.684	263.31
274.144	303.1
274.605	265.65
275.066	326.5
275.527	296.08
275.987	296.08
276.448	356.93
276.908	305.44
277.369	312.46
277.829	232.88
278.289	303.1
278.75	282.03
279.21	279.69
279.67	263.31
280.13	331.19
280.59	319.48
281.05	314.8
281.51	326.5
281.97	258.63
282.43	370.97
282.89	291.4
283.35	293.74
283.809	284.38
284.269	293.74
284.729	260.97
285.188	244.59
285.648	328.85
286.107	272.67
286.567	328.85
287.026	242.25
287.485	272.67
287.944	319.48
288.404	282.03
288.863	249.27
289.322	307.78
289.781	267.99
290.24	296.08
290.699	328.85
291.158	424.81
291.616	284.38
292.075	228.2
292.534	317.14
292.992	328.85
293.451	328.85
293.91	272.67
294.368	324.16
294.827	303.1
295.285	267.99
295.743	342.89
296.202	272.67
296.66	363.95
297.118	366.29
297.576	242.25
298.034	279.69
298.492	263.31
298.95	303.1
299.408	282.03
299.866	200.12
300.324	298.42
300.781	328.85
301.239	310.12
301.697	375.66
302.154	249.27
302.612	256.29
303.069	333.53
303.527	277.35
303.984	263.31
304.441	321.82
304.899	342.89
305.356	331.19
305.813	317.14
306.27	286.72
306.727	333.53
307.184	246.93
307.641	347.57
308.098	373.32
308.555	326.5
309.012	275.01
309.468	263.31
309.925	314.8
310.382	303.1
310.838	298.42
311.295	370.97
311.751	225.86
312.208	237.56
312.664	286.72
313.12	293.74
313.577	326.5
314.033	333.53
314.489	282.03
314.945	279.69
315.401	258.63
315.857	303.1
316.313	289.06
316.769	272.67
317.225	321.82
317.681	284.38
318.136	314.8
318.592	284.38
319.048	314.8
319.503	272.67
319.959	324.16
320.414	289.06
320.869	300.76
321.325	317.14
321.78	258.63
322.235	331.19
322.691	326.5
323.146	296.08
323.601	331.19
324.056	326.5
324.511	258.63
324.966	298.42
325.421	363.95
325.875	342.89
326.33	289.06
326.785	349.91
327.24	260.97
327.694	303.1
328.149	340.55
328.603	326.5
329.058	263.31
329.512	321.82
329.966	338.21
330.421	333.53
330.875	317.14
331.329	267.99
331.783	305.44
332.237	361.61
332.691	317.14
333.145	335.87
333.599	298.42
334.053	307.78
334.507	289.06
334.96	349.91
335.414	326.5
335.868	345.23
336.321	317.14
336.775	312.46
337.228	286.72
337.682	368.63
338.135	392.04
338.588	279.69
339.042	324.16
339.495	270.33
339.948	272.67
340.401	321.82
340.854	293.74
341.307	293.74
341.76	307.78
342.213	286.72
342.666	352.25
343.119	333.53
343.571	352.25
344.024	289.06
344.477	279.69
344.929	359.27
345.382	270.33
345.834	298.42
346.287	293.74
346.739	293.74
347.191	296.08
347.644	331.19
348.096	331.19
348.548	370.97
349	291.4
349.452	317.14
349.904	300.76
350.356	282.03
350.808	340.55
351.26	352.25
351.711	340.55
352.163	319.48
352.615	338.21
353.066	333.53
353.518	335.87
353.969	324.16
354.421	296.08
354.872	263.31
355.324	326.5
355.775	307.78
356.226	298.42
356.677	331.19
357.128	324.16
357.579	298.42
358.03	307.78
358.481	260.97
358.932	286.72
359.383	340.55
359.834	349.91
360.285	317.14
360.735	312.46
361.186	303.1
361.637	342.89
362.087	361.61
362.538	312.46
362.988	300.76
363.438	291.4
363.889	321.82
364.339	260.97
364.789	263.31
365.239	296.08
365.689	296.08
366.139	300.76
366.589	359.27
367.039	352.25
367.489	298.42
367.939	293.74
368.389	361.61
368.839	286.72
369.288	312.46
369.738	340.55
370.187	352.25
370.637	279.69
371.086	345.23
371.536	324.16
371.985	319.48
372.434	317.14
372.884	312.46
373.333	265.65
373.782	317.14
374.231	328.85
374.68	260.97
375.129	328.85
375.578	267.99
376.027	307.78
376.475	291.4
376.924	298.42
377.373	310.12
377.822	317.14
378.27	345.23
378.719	314.8
379.167	279.69
379.616	319.48
380.064	326.5
380.512	303.1
380.961	340.55
381.409	363.95
381.857	356.93
382.305	317.14
382.753	282.03
383.201	324.16
383.649	401.4
384.097	333.53
384.545	275.01
384.992	319.48
385.44	284.38
385.888	289.06
386.335	335.87
386.783	296.08
387.231	338.21
387.678	310.12
388.125	270.33
388.573	359.27
389.02	307.78
389.467	347.57
389.914	324.16
390.362	321.82
390.809	370.97
391.256	326.5
391.703	314.8
392.15	340.55
392.596	347.57
393.043	275.01
393.49	317.14
393.937	284.38
394.383	300.76
394.83	366.29
395.276	300.76
395.723	321.82
396.169	310.12
396.616	300.76
397.062	282.03
397.508	347.57
397.954	296.08
398.401	267.99
398.847	319.48
399.293	366.29
399.739	272.67
400.185	303.1
400.631	284.38
401.076	333.53
401.522	319.48
401.968	347.57
402.414	328.85
402.859	300.76
403.305	312.46
403.75	230.54
404.196	333.53
404.641	328.85
405.086	314.8
405.532	324.16
405.977	307.78
406.422	317.14
406.867	380.34
407.312	326.5
407.757	303.1
408.202	349.91
408.647	335.87
409.092	303.1
409.537	293.74
409.982	352.25
410.426	389.7
410.871	359.27
411.316	286.72
411.76	342.89
412.205	321.82
412.649	307.78
413.093	324.16
413.538	340.55
413.982	284.38
414.426	324.16
414.87	307.78
415.314	260.97
415.758	319.48
416.202	324.16
416.646	260.97
417.09	354.59
417.534	378
417.978	310.12
418.421	317.14
418.865	326.5
419.309	317.14
419.752	324.16
420.196	366.29
420.639	354.59
421.083	270.33
421.526	289.06
421.969	335.87
422.412	333.53
422.856	363.95
423.299	345.23
423.742	284.38
424.185	326.5
424.628	396.72
425.071	387.36
425.513	293.74
425.956	314.8
426.399	326.5
426.842	356.93
427.284	310.12
427.727	300.76
428.169	260.97
428.612	293.74
429.054	356.93
429.497	305.44
429.939	300.76
430.381	307.78
430.823	333.53
431.265	375.66
431.707	326.5
432.149	277.35
432.591	326.5
433.033	354.59
433.475	310.12
433.917	354.59
434.359	340.55
434.8	392.04
435.242	321.82
435.684	310.12
436.125	368.63
436.567	324.16
437.008	359.27
437.449	319.48
437.891	310.12
438.332	324.16
438.773	326.5
439.214	324.16
439.656	286.72
440.097	328.85
440.538	345.23
440.978	317.14
441.419	420.13
441.86	298.42
442.301	216.5
442.742	326.5
443.182	293.74
443.623	354.59
444.063	265.65
444.504	319.48
444.944	368.63
445.385	352.25
445.825	303.1
446.265	338.21
446.706	333.53
447.146	277.35
447.586	321.82
448.026	394.38
448.466	310.12
448.906	340.55
449.346	335.87
449.786	272.67
450.225	352.25
450.665	305.44
451.105	291.4
451.544	289.06
451.984	282.03
452.424	307.78
452.863	256.29
453.302	328.85
453.742	340.55
454.181	333.53
454.62	368.63
455.059	319.48
455.499	267.99
455.938	277.35
456.377	317.14
456.816	310.12
457.254	267.99
457.693	303.1
458.132	340.55
458.571	317.14
459.01	300.76
459.448	317.14
459.887	338.21
460.325	361.61
460.764	345.23
461.202	314.8
461.641	284.38
462.079	347.57
462.517	312.46
462.955	317.14
463.393	312.46
463.832	328.85
464.27	333.53
464.708	324.16
465.145	307.78
465.583	347.57
466.021	366.29
466.459	303.1
466.897	317.14
467.334	368.63
467.772	211.82
468.209	352.25
468.647	333.53
469.084	303.1
469.522	310.12
469.959	331.19
470.396	279.69
470.833	275.01
471.271	366.29
471.708	319.48
472.145	375.66
472.582	349.91
473.019	305.44
473.456	370.97
473.892	286.72
474.329	375.66
474.766	356.93
475.202	359.27
475.639	275.01
476.076	303.1
476.512	385.02
476.949	324.16
477.385	356.93
477.821	296.08
478.258	328.85
478.694	338.21
479.13	303.1
479.566	310.12
480.002	349.91
480.438	361.61
480.874	267.99
481.31	328.85
481.746	286.72
482.181	361.61
482.617	293.74
483.053	265.65
483.488	291.4
483.924	331.19
484.36	359.27
484.795	310.12
485.23	286.72
485.666	296.08
486.101	305.44
486.536	328.85
486.971	333.53
487.407	246.93
487.842	331.19
488.277	279.69
488.712	319.48
489.146	335.87
489.581	352.25
490.016	319.48
490.451	359.27
490.885	333.53
491.32	317.14
491.755	307.78
492.189	314.8
492.624	310.12
493.058	378
493.492	317.14
493.927	345.23
494.361	270.33
494.795	338.21
495.229	366.29
495.663	340.55
496.097	265.65
496.531	317.14
496.965	319.48
497.399	305.44
497.833	324.16
498.266	333.53
498.7	331.19
499.134	277.35
499.567	317.14
500.001	349.91
500.434	204.8
500.868	347.57
501.301	321.82
501.734	345.23
502.168	356.93
502.601	256.29
503.034	305.44
503.467	300.76
503.9	340.55
504.333	328.85
504.766	310.12
505.199	312.46
505.632	296.08
506.064	319.48
506.497	342.89
506.93	291.4
507.362	305.44
507.795	349.91
508.227	300.76
508.66	326.5
509.092	324.16
509.524	326.5
509.956	324.16
510.389	319.48
510.821	317.14
511.253	317.14
511.685	335.87
512.117	335.87
512.549	286.72
512.981	298.42
513.412	270.33
513.844	340.55
514.276	354.59
514.707	392.04
515.139	303.1
515.571	270.33
516.002	310.12
516.433	378
516.865	321.82
517.296	272.67
517.727	298.42
518.159	352.25
518.59	338.21
519.021	310.12
519.452	314.8
519.883	321.82
520.314	289.06
520.744	286.72
521.175	328.85
521.606	298.42
522.037	277.35
522.467	326.5
522.898	326.5
523.328	328.85
523.759	298.42
524.189	326.5
524.62	373.32
525.05	251.61
525.48	356.93
525.91	420.13
526.341	246.93
526.771	317.14
527.201	284.38
527.631	347.57
528.061	317.14
528.49	319.48
528.92	363.95
529.35	305.44
529.78	282.03
530.209	317.14
530.639	277.35
531.068	317.14
531.498	307.78
531.927	310.12
532.357	373.32
532.786	312.46
533.215	410.76
533.644	373.32
534.074	328.85
534.503	345.23
534.932	310.12
535.361	260.97
535.79	321.82
536.218	375.66
536.647	331.19
537.076	333.53
537.505	354.59
537.933	333.53
538.362	310.12
538.79	314.8
539.219	279.69
539.647	363.95
540.076	307.78
540.504	356.93
540.932	335.87
541.36	256.29
541.788	335.87
542.217	312.46
542.645	319.48
543.073	298.42
543.5	333.53
543.928	289.06
544.356	328.85
544.784	319.48
545.211	340.55
545.639	363.95
546.067	378
546.494	300.76
546.922	328.85
547.349	319.48
547.776	321.82
548.204	286.72
548.631	296.08
549.058	328.85
549.485	324.16
549.912	347.57
550.339	307.78
550.766	321.82
551.193	272.67
551.62	321.82
552.047	324.16
552.474	251.61
552.9	310.12
553.327	347.57
553.754	310.12
554.18	312.46
554.607	378
555.033	244.59
555.459	314.8
555.886	296.08
556.312	338.21
556.738	305.44
557.164	305.44
557.59	303.1
558.016	303.1
558.442	324.16
558.868	345.23
559.294	340.55
559.72	300.76
560.145	375.66
560.571	382.68
560.997	312.46
561.422	319.48
561.848	300.76
562.273	324.16
562.699	340.55
563.124	300.76
563.549	333.53
563.974	333.53
564.4	326.5
564.825	300.76
565.25	385.02
565.675	354.59
566.1	335.87
566.525	335.87
566.95	417.79
567.374	319.48
567.799	326.5
568.224	303.1
568.648	363.95
569.073	293.74
569.497	356.93
569.922	303.1
570.346	399.06
570.771	345.23
571.195	338.21
571.619	291.4
572.043	314.8
572.467	335.87
572.891	317.14
573.315	328.85
573.739	356.93
574.163	312.46
574.587	331.19
575.011	363.95
575.435	385.02
575.858	319.48
576.282	305.44
576.705	338.21
577.129	289.06
577.552	300.76
577.976	310.12
578.399	368.63
578.822	296.08
579.245	321.82
579.669	300.76
580.092	310.12
580.515	286.72
580.938	265.65
581.361	296.08
581.784	282.03
582.206	263.31
582.629	312.46
583.052	291.4
583.474	340.55
583.897	352.25
584.32	300.76
584.742	314.8
585.165	277.35
585.587	352.25
586.009	317.14
586.431	310.12
586.854	275.01
587.276	335.87
587.698	340.55
588.12	359.27
588.542	305.44
588.964	277.35
589.386	312.46
589.807	338.21
590.229	389.7
590.651	331.19
591.073	349.91
591.494	342.89
591.916	253.95
592.337	345.23
592.759	230.54
593.18	310.12
593.601	335.87
594.022	291.4
594.444	335.87
594.865	331.19
595.286	333.53
595.707	303.1
596.128	338.21
596.549	335.87
596.97	314.8
597.39	392.04
597.811	342.89
598.232	366.29
598.652	279.69
599.073	396.72
599.494	354.59
599.914	270.33
600.334	342.89
600.755	317.14
601.175	296.08
601.595	303.1
602.015	317.14
602.436	335.87
602.856	448.21
603.276	321.82
603.696	338.21
604.115	349.91
604.535	368.63
604.955	321.82
605.375	286.72
605.794	333.53
606.214	319.48
606.634	385.02
607.053	305.44
607.473	321.82
607.892	289.06
608.311	366.29
608.731	291.4
609.15	279.69
609.569	328.85
609.988	373.32
610.407	258.63
610.826	272.67
611.245	270.33
611.664	370.97
612.083	396.72
612.501	293.74
612.92	272.67
613.339	359.27
613.757	307.78
614.176	342.89
614.594	310.12
615.013	291.4
615.431	296.08
615.85	312.46
616.268	307.78
616.686	296.08
617.104	338.21
617.522	303.1
617.94	249.27
618.358	270.33
618.776	279.69
619.194	282.03
619.612	342.89
620.03	326.5
620.447	345.23
620.865	382.68
621.282	296.08
621.7	349.91
622.117	331.19
622.535	307.78
622.952	321.82
623.369	321.82
623.787	258.63
624.204	394.38
624.621	270.33
625.038	239.9
625.455	338.21
625.872	298.42
626.289	333.53
626.706	340.55
627.123	307.78
627.539	347.57
627.956	275.01
628.373	321.82
628.789	314.8
629.206	307.78
629.622	356.93
630.038	333.53
630.455	286.72
630.871	321.82
631.287	387.36
631.703	333.53
632.12	307.78
632.536	354.59
632.952	352.25
633.368	380.34
633.783	331.19
634.199	326.5
634.615	335.87
635.031	307.78
635.446	307.78
635.862	314.8
636.277	382.68
636.693	340.55
637.108	326.5
637.524	331.19
637.939	331.19
638.354	349.91
638.77	324.16
639.185	392.04
639.6	286.72
640.015	324.16
640.43	338.21
640.845	326.5
641.259	340.55
641.674	378
642.089	335.87
642.504	277.35
642.918	293.74
643.333	324.16
643.747	277.35
644.162	275.01
644.576	335.87
644.991	305.44
645.405	279.69
645.819	303.1
646.233	333.53
646.647	424.81
647.061	307.78
647.475	275.01
647.889	328.85
648.303	312.46
648.717	291.4
649.131	289.06
649.545	328.85
649.958	305.44
650.372	319.48
650.785	267.99
651.199	270.33
651.612	394.38
652.026	363.95
652.439	380.34
652.852	326.5
653.266	307.78
653.679	305.44
654.092	345.23
654.505	331.19
654.918	293.74
655.331	363.95
655.744	340.55
656.156	275.01
656.569	263.31
656.982	249.27
657.394	321.82
657.807	352.25
658.22	319.48
658.632	324.16
659.044	303.1
659.457	272.67
659.869	359.27
660.281	305.44
660.693	242.25
661.106	324.16
661.518	370.97
661.93	338.21
662.342	251.61
662.754	317.14
663.165	317.14
663.577	331.19
663.989	347.57
664.401	307.78
664.812	363.95
665.224	354.59
665.635	253.95
666.047	338.21
666.458	317.14
666.869	312.46
667.281	349.91
667.692	282.03
668.103	347.57
668.514	345.23
668.925	310.12
669.336	272.67
669.747	338.21
670.158	291.4
670.569	345.23
670.979	272.67
671.39	296.08
671.801	324.16
672.211	356.93
672.622	293.74
673.032	328.85
673.443	335.87
673.853	246.93
674.263	356.93
674.674	347.57
675.084	338.21
675.494	317.14
675.904	352.25
676.314	314.8
676.724	347.57
677.134	324.16
677.544	349.91
677.953	279.69
678.363	345.23
678.773	347.57
679.182	307.78
679.592	347.57
680.001	354.59
680.411	331.19
680.82	249.27
681.23	289.06
681.639	300.76
682.048	312.46
682.457	272.67
682.866	345.23
683.275	298.42
683.684	225.86
684.093	286.72
684.502	375.66
684.911	303.1
685.32	303.1
685.728	272.67
686.137	335.87
686.546	272.67
686.954	328.85
687.363	305.44
687.771	352.25
688.179	307.78
688.588	291.4
688.996	310.12
689.404	293.74
689.812	321.82
690.22	270.33
690.628	314.8
691.036	300.76
691.444	310.12
691.852	300.76
692.26	321.82
692.667	363.95
693.075	305.44
693.483	375.66
693.89	333.53
694.298	385.02
694.705	298.42
695.112	303.1
695.52	324.16
695.927	260.97
696.334	333.53
696.741	303.1
697.148	347.57
697.555	368.63
697.962	340.55
698.369	303.1
698.776	324.16
699.183	291.4
699.59	310.12
699.996	305.44
700.403	385.02
700.81	293.74
701.216	267.99
701.623	347.57
702.029	312.46
702.435	324.16
702.842	370.97
703.248	321.82
703.654	272.67
704.06	375.66
704.466	331.19
704.872	326.5
705.278	291.4
705.684	272.67
706.09	356.93
706.496	300.76
706.901	345.23
707.307	277.35
707.712	310.12
708.118	314.8
708.523	352.25
708.929	279.69
709.334	289.06
709.74	314.8
710.145	289.06
710.55	345.23
710.955	326.5
711.36	335.87
711.765	246.93
712.17	251.61
712.575	321.82
712.98	855.47
713.385	363.95
713.789	375.66
714.194	289.06
714.599	324.16
715.003	375.66
715.408	289.06
715.812	253.95
716.217	275.01
716.621	279.69
717.025	305.44
717.429	307.78
717.833	310.12
718.238	296.08
718.642	326.5
719.046	326.5
719.449	373.32
719.853	342.89
720.257	298.42
720.661	293.74
721.065	373.32
721.468	303.1
721.872	335.87
722.275	317.14
722.679	352.25
723.082	284.38
723.485	305.44
723.889	345.23
724.292	317.14
724.695	321.82
725.098	370.97
725.501	279.69
725.904	331.19
726.307	340.55
726.71	272.67
727.113	326.5
727.516	307.78
727.918	347.57
728.321	333.53
728.724	361.61
729.126	335.87
729.529	303.1
729.931	324.16
730.333	321.82
730.736	246.93
731.138	298.42
731.54	310.12
731.942	293.74
732.344	333.53
732.746	305.44
733.148	321.82
733.55	291.4
733.952	333.53
734.354	307.78
734.756	251.61
735.157	235.22
735.559	338.21
735.96	349.91
736.362	359.27
736.763	289.06
737.165	239.9
737.566	333.53
737.967	366.29
738.368	328.85
738.77	326.5
739.171	321.82
739.572	298.42
739.973	324.16
740.374	286.72
740.774	289.06
741.175	286.72
741.576	387.36
741.977	298.42
742.377	275.01
742.778	298.42
743.178	349.91
743.579	356.93
743.979	340.55
744.379	319.48
744.78	331.19
745.18	286.72
745.58	375.66
745.98	375.66
746.38	347.57
746.78	291.4
747.18	359.27
747.58	277.35
747.98	342.89
748.38	338.21
748.779	324.16
749.179	338.21
749.578	326.5
749.978	251.61
750.377	282.03
750.777	251.61
751.176	338.21
751.575	321.82
751.975	256.29
752.374	314.8
752.773	265.65
753.172	324.16
753.571	258.63
753.97	366.29
754.369	317.14
754.768	286.72
755.166	331.19
755.565	335.87
755.964	305.44
756.362	359.27
756.761	284.38
757.159	305.44
757.558	354.59
757.956	331.19
758.354	300.76
758.753	277.35
759.151	279.69
759.549	326.5
759.947	328.85
760.345	333.53
760.743	265.65
761.141	331.19
761.539	373.32
761.936	347.57
762.334	251.61
762.732	305.44
763.129	333.53
763.527	307.78
763.924	324.16
764.322	317.14
764.719	307.78
765.117	251.61
765.514	331.19
765.911	317.14
766.308	303.1
766.705	298.42
767.102	340.55
767.499	314.8
767.896	293.74
768.293	310.12
768.69	321.82
769.086	333.53
769.483	340.55
769.88	342.89
770.276	314.8
770.673	370.97
771.069	284.38
771.466	342.89
771.862	312.46
772.258	345.23
772.654	326.5
773.05	249.27
773.447	326.5
773.843	324.16
774.239	321.82
774.634	345.23
775.03	303.1
775.426	368.63
775.822	312.46
776.218	300.76
776.613	321.82
777.009	286.72
777.404	347.57
777.8	328.85
778.195	324.16
778.59	319.48
778.986	392.04
779.381	328.85
779.776	291.4
780.171	270.33
780.566	338.21
780.961	246.93
781.356	314.8
781.751	291.4
782.146	326.5
782.54	296.08
782.935	300.76
783.33	223.52
783.724	319.48
784.119	307.78
784.513	312.46
784.908	314.8
785.302	279.69
785.696	300.76
786.09	298.42
786.485	314.8
786.879	392.04
787.273	289.06
787.667	263.31
788.061	359.27
788.454	279.69
788.848	298.42
789.242	410.76
789.636	314.8
790.029	286.72
790.423	354.59
790.816	237.56
791.21	345.23
791.603	373.32
791.997	354.59
792.39	359.27
792.783	375.66
793.176	331.19
793.569	368.63
793.962	326.5
794.355	333.53
794.748	286.72
795.141	324.16
795.534	356.93
795.927	326.5
796.319	275.01
796.712	359.27
797.105	307.78
797.497	253.95
797.89	303.1
798.282	296.08
798.674	305.44
799.067	298.42
799.459	366.29
799.851	267.99
800.243	345.23
800.635	359.27
801.027	293.74
801.419	310.12
801.811	312.46
802.203	392.04
802.594	291.4
802.986	319.48
803.378	338.21
803.769	258.63
804.161	340.55
804.552	361.61
804.944	291.4
805.335	324.16
805.726	270.33
806.118	324.16
806.509	345.23
806.9	267.99
807.291	293.74
807.682	312.46
808.073	293.74
808.464	335.87
808.855	317.14
809.245	305.44
809.636	338.21
810.027	272.67
810.417	289.06
810.808	359.27
811.198	373.32
811.589	296.08
811.979	319.48
812.369	303.1
812.759	239.9
813.15	237.56
813.54	368.63
813.93	328.85
814.32	324.16
814.71	359.27
815.1	324.16
815.489	305.44
815.879	272.67
816.269	368.63
816.658	319.48
817.048	312.46
817.438	312.46
817.827	310.12
818.216	338.21
818.606	310.12
818.995	342.89
819.384	352.25
819.773	300.76
820.163	370.97
820.552	267.99
820.941	321.82
821.33	373.32
821.718	305.44
822.107	298.42
822.496	284.38
822.885	310.12
823.273	326.5
823.662	359.27
824.05	410.76
824.439	277.35
824.827	282.03
825.216	275.01
825.604	314.8
825.992	279.69
826.38	335.87
826.768	286.72
827.156	305.44
827.544	340.55
827.932	303.1
828.32	270.33
828.708	270.33
829.096	363.95
829.483	296.08
829.871	324.16
830.259	317.14
830.646	303.1
831.034	293.74
831.421	246.93
831.808	354.59
832.196	335.87
832.583	310.12
832.97	314.8
833.357	389.7
833.744	312.46
834.131	326.5
834.518	347.57
834.905	303.1
835.292	345.23
835.678	333.53
836.065	331.19
836.452	394.38
836.838	305.44
837.225	331.19
837.611	340.55
837.998	324.16
838.384	305.44
838.77	326.5
839.157	338.21
839.543	310.12
839.929	293.74
840.315	359.27
840.701	303.1
841.087	314.8
841.473	389.7
841.858	258.63
842.244	258.63
842.63	352.25
843.015	312.46
843.401	410.76
843.787	298.42
844.172	303.1
844.557	326.5
844.943	375.66
845.328	251.61
845.713	242.25
846.098	296.08
846.483	298.42
846.868	282.03
847.253	321.82
847.638	340.55
848.023	293.74
848.408	284.38
848.793	305.44
849.177	314.8
849.562	291.4
849.947	282.03
850.331	282.03
850.715	373.32
851.1	307.78
851.484	300.76
851.868	342.89
852.253	286.72
852.637	260.97
853.021	326.5
853.405	272.67
853.789	331.19
854.173	317.14
854.557	293.74
854.94	326.5
855.324	300.76
855.708	366.29
856.091	228.2
856.475	277.35
856.858	298.42
857.242	272.67
857.625	328.85
858.009	267.99
858.392	321.82
858.775	275.01
859.158	394.38
859.541	338.21
859.924	307.78
860.307	342.89
860.69	305.44
861.073	253.95
861.456	277.35
861.838	275.01
862.221	303.1
862.604	279.69
862.986	342.89
863.369	331.19
863.751	310.12
864.133	370.97
864.516	368.63
864.898	331.19
865.28	300.76
865.662	380.34
866.044	340.55
866.426	333.53
866.808	370.97
867.19	314.8
867.572	265.65
867.954	286.72
868.336	284.38
868.717	275.01
869.099	256.29
869.48	328.85
869.862	289.06
870.243	310.12
870.625	370.97
871.006	352.25
871.387	291.4
871.768	335.87
872.149	282.03
872.53	260.97
872.911	279.69
873.292	286.72
873.673	349.91
874.054	300.76
874.435	326.5
874.815	293.74
875.196	326.5
875.577	253.95
875.957	319.48
876.338	307.78
876.718	300.76
877.098	363.95
877.479	253.95
877.859	324.16
878.239	275.01
878.619	286.72
878.999	293.74
879.379	324.16
879.759	204.8
880.139	380.34
880.519	265.65
880.898	272.67
881.278	326.5
881.658	312.46
882.037	340.55
882.417	328.85
882.796	333.53
883.176	289.06
883.555	291.4
883.934	319.48
884.313	267.99
884.693	354.59
885.072	326.5
885.451	282.03
885.83	338.21
886.209	331.19
886.587	312.46
886.966	265.65
887.345	244.59
887.724	338.21
888.102	305.44
888.481	310.12
888.859	300.76
889.238	338.21
889.616	305.44
889.994	307.78
890.373	296.08
890.751	347.57
891.129	282.03
891.507	340.55
891.885	260.97
892.263	265.65
892.641	305.44
893.019	291.4
893.396	235.22
893.774	293.74
894.152	347.57
894.529	340.55
894.907	221.18
895.284	324.16
895.662	286.72
896.039	389.7
896.416	338.21
896.794	317.14
897.171	345.23
897.548	265.65
897.925	359.27
898.302	338.21
898.679	321.82
899.056	237.56
899.433	263.31
899.809	300.76
900.186	272.67
900.563	324.16
900.939	347.57
901.316	282.03
901.692	370.97
902.069	291.4
902.445	298.42
902.821	277.35
903.197	300.76
903.574	246.93
903.95	347.57
904.326	298.42
904.702	312.46
905.078	249.27
905.454	342.89
905.829	324.16
906.205	293.74
906.581	375.66
906.956	317.14
907.332	345.23
907.707	307.78
908.083	277.35
908.458	342.89
908.833	312.46
909.209	279.69
909.584	317.14
909.959	251.61
910.334	345.23
910.709	300.76
911.084	335.87
911.459	335.87
911.834	349.91
912.209	312.46
912.583	291.4
912.958	363.95
913.333	246.93
913.707	267.99
914.082	328.85
914.456	291.4
914.83	293.74
915.205	305.44
915.579	275.01
915.953	328.85
916.327	361.61
916.701	314.8
917.075	284.38
917.449	277.35
917.823	296.08
918.197	284.38
918.571	260.97
918.944	328.85
919.318	354.59
919.692	335.87
920.065	305.44
920.438	265.65
920.812	263.31
921.185	284.38
921.558	260.97
921.932	293.74
922.305	253.95
922.678	324.16
923.051	310.12
923.424	340.55
923.797	305.44
924.17	342.89
924.542	279.69
924.915	272.67
925.288	267.99
925.661	298.42
926.033	232.88
926.406	298.42
926.778	258.63
927.15	387.36
927.523	284.38
927.895	270.33
928.267	312.46
928.639	284.38
929.011	338.21
929.383	310.12
929.755	256.29
930.127	352.25
930.499	258.63
930.871	361.61
931.242	361.61
931.614	305.44
931.986	307.78
932.357	275.01
932.729	284.38
933.1	331.19
933.471	392.04
933.843	392.04
934.214	282.03
934.585	286.72
934.956	324.16
935.327	312.46
935.698	275.01
936.069	305.44
936.44	307.78
936.811	354.59
937.182	291.4
937.552	258.63
937.923	317.14
938.293	265.65
938.664	293.74
939.034	282.03
939.405	317.14
939.775	298.42
940.145	296.08
940.516	291.4
940.886	375.66
941.256	368.63
941.626	321.82
941.996	293.74
942.366	277.35
942.735	361.61
943.105	333.53
943.475	296.08
943.845	310.12
944.214	260.97
944.584	293.74
944.953	246.93
945.323	275.01
945.692	277.35
946.061	345.23
946.43	314.8
946.8	356.93
947.169	216.5
947.538	284.38
947.907	284.38
948.276	312.46
948.645	300.76
949.013	375.66
949.382	253.95
949.751	314.8
950.119	296.08
950.488	282.03
950.857	328.85
951.225	291.4
951.593	354.59
951.962	237.56
952.33	286.72
952.698	375.66
953.066	333.53
953.434	331.19
953.802	328.85
954.17	331.19
954.538	347.57
954.906	284.38
955.274	338.21
955.642	291.4
956.009	324.16
956.377	305.44
956.744	277.35
957.112	324.16
957.479	305.44
957.847	284.38
958.214	331.19
958.581	279.69
958.948	331.19
959.315	331.19
959.683	310.12
960.05	286.72
960.416	340.55
960.783	328.85
961.15	347.57
961.517	263.31
961.884	279.69
962.25	328.85
962.617	324.16
962.983	305.44
963.35	389.7
963.716	270.33
964.082	282.03
964.449	303.1
964.815	349.91
965.181	270.33
965.547	335.87
965.913	328.85
966.279	263.31
966.645	324.16
967.011	270.33
967.377	363.95
967.742	310.12
968.108	319.48
968.474	307.78
968.839	354.59
969.205	284.38
969.57	370.97
969.935	300.76
970.301	317.14
970.666	331.19
971.031	267.99
971.396	312.46
971.761	249.27
972.126	378
972.491	291.4
972.856	265.65
973.221	310.12
973.586	321.82
973.95	286.72
974.315	328.85
974.679	239.9
975.044	319.48
975.408	244.59
975.773	284.38
976.137	319.48
976.501	373.32
976.866	328.85
977.23	277.35
977.594	333.53
977.958	272.67
978.322	284.38
978.686	291.4
979.049	340.55
979.413	331.19
979.777	300.76
980.141	263.31
980.504	286.72
980.868	328.85
981.231	258.63
981.595	286.72
981.958	356.93
982.321	251.61
982.684	253.95
983.048	321.82
983.411	289.06
983.774	310.12
984.137	326.5
984.5	253.95
984.862	389.7
985.225	321.82
985.588	324.16
985.951	317.14
986.313	319.48
986.676	331.19
987.038	324.16
987.401	289.06
987.763	326.5
988.125	296.08
988.488	300.76
988.85	354.59
989.212	246.93
989.574	279.69
989.936	335.87
990.298	277.35
990.66	321.82
991.022	296.08
991.383	298.42
991.745	326.5
992.107	321.82
992.468	300.76
992.83	312.46
993.191	190.75
993.553	312.46
993.914	314.8
994.275	333.53
994.637	338.21
994.998	286.72
995.359	282.03
995.72	246.93
996.081	289.06
996.442	300.76
996.803	354.59
997.163	338.21
997.524	328.85
997.885	354.59
998.245	310.12
998.606	340.55
998.966	314.8
999.327	370.97
999.687	321.82
1000.047	291.4
1000.408	310.12
1000.768	378
1001.128	317.14
1001.488	286.72
1001.848	300.76
1002.208	328.85
1002.568	361.61
1002.927	317.14
1003.287	275.01
1003.647	361.61
1004.007	277.35
1004.366	223.52
1004.726	246.93
1005.085	310.12
1005.444	260.97
1005.804	307.78
1006.163	345.23
1006.522	286.72
1006.881	249.27
1007.24	378
1007.599	298.42
1007.958	321.82
1008.317	378
1008.676	260.97
1009.035	338.21
1009.393	340.55
1009.752	305.44
1010.111	300.76
1010.469	345.23
1010.828	328.85
1011.186	296.08
1011.544	289.06
1011.903	239.9
1012.261	265.65
1012.619	263.31
1012.977	331.19
1013.335	392.04
1013.693	284.38
1014.051	338.21
1014.409	352.25
1014.767	305.44
1015.124	312.46
1015.482	333.53
1015.84	282.03
1016.197	289.06
1016.555	335.87
1016.912	324.16
1017.269	298.42
1017.627	296.08
1017.984	289.06
1018.341	246.93
1018.698	312.46
1019.055	321.82
1019.412	289.06
1019.769	321.82
1020.126	338.21
1020.483	291.4
1020.84	375.66
1021.196	312.46
1021.553	296.08
1021.909	305.44
1022.266	239.9
1022.622	300.76
1022.979	296.08
1023.335	289.06
1023.691	321.82
1024.047	321.82
1024.404	361.61
1024.76	340.55
1025.116	270.33
1025.472	258.63
1025.827	305.44
1026.183	265.65
1026.539	394.38
1026.895	340.55
1027.25	303.1
1027.606	345.23
1027.961	296.08
1028.317	291.4
1028.672	267.99
1029.028	296.08
1029.383	349.91
1029.738	331.19
1030.093	385.02
1030.448	312.46
1030.803	317.14
1031.158	258.63
1031.513	324.16
1031.868	272.67
1032.223	296.08
1032.577	307.78
1032.932	275.01
1033.287	204.8
1033.641	356.93
1033.996	331.19
1034.35	359.27
1034.704	347.57
1035.059	289.06
1035.413	319.48
1035.767	319.48
1036.121	319.48
