Data from Al_FLMS009871__965__16-20-57-619.txt Node

Date: Fri Mar 08 16:20:57 CST 2024
User: pe5414po
Spectrometer: FLMS00987
Trigger mode: 0
Integration Time (sec): 1.000000E-1
Scans to average: 1
Electric dark correction enabled: true
Nonlinearity correction enabled: false
Boxcar width: 0
XAxis mode: Wavelengths
Number of Pixels in Spectrum: 2048
>>>>>Begin Spectral Data<<<<<
188.938	-31.89
189.409	-31.89
189.879	-31.89
190.349	-132.53
190.819	-109.13
191.29	-132.53
191.76	-113.81
192.23	-29.55
192.7	-55.3
193.17	-24.87
193.64	-31.89
194.109	-55.3
194.579	-13.17
195.049	-13.17
195.519	-1.46
195.988	35.99
196.458	-13.17
196.927	64.07
197.397	92.16
197.866	155.35
198.336	136.63
198.805	120.25
199.274	145.99
199.744	225.57
200.213	185.78
200.682	293.44
201.151	169.4
201.62	190.46
202.089	291.1
202.558	248.97
203.027	260.68
203.495	248.97
203.964	265.36
204.433	234.93
204.902	213.87
205.37	328.55
205.839	354.3
206.307	246.63
206.776	291.1
207.244	291.1
207.712	281.74
208.181	309.83
208.649	256
209.117	291.1
209.585	309.83
210.053	314.51
210.521	375.36
210.989	354.3
211.457	328.55
211.925	248.97
212.393	284.08
212.861	267.7
213.328	295.79
213.796	220.89
214.264	279.4
214.731	251.32
215.199	256
215.666	199.82
216.133	326.21
216.601	314.51
217.068	253.66
217.535	260.68
218.003	181.1
218.47	253.66
218.937	246.63
219.404	291.1
219.871	291.1
220.338	316.85
220.805	253.66
221.271	251.32
221.738	286.42
222.205	248.97
222.671	258.34
223.138	295.79
223.605	234.93
224.071	270.04
224.538	246.63
225.004	302.81
225.47	270.04
225.937	295.79
226.403	244.29
226.869	270.04
227.335	218.55
227.801	244.29
228.267	279.4
228.733	216.21
229.199	267.7
229.665	265.36
230.131	272.38
230.597	314.51
231.062	244.29
231.528	298.13
231.994	265.36
232.459	295.79
232.925	246.63
233.39	244.29
233.856	333.23
234.321	284.08
234.786	232.59
235.252	256
235.717	291.1
236.182	354.3
236.647	237.27
237.112	281.74
237.577	316.85
238.042	291.1
238.507	225.57
238.972	293.44
239.436	248.97
239.901	267.7
240.366	263.02
240.83	281.74
241.295	246.63
241.76	260.68
242.224	344.94
242.688	202.16
243.153	305.15
243.617	312.17
244.081	272.38
244.545	281.74
245.01	251.32
245.474	307.49
245.938	312.17
246.402	300.47
246.866	281.74
247.33	253.66
247.793	281.74
248.257	246.63
248.721	281.74
249.185	286.42
249.648	248.97
250.112	267.7
250.575	265.36
251.039	351.96
251.502	251.32
251.965	288.76
252.429	260.68
252.892	260.68
253.355	284.08
253.818	333.23
254.281	248.97
254.744	314.51
255.207	333.23
255.67	307.49
256.133	265.36
256.596	270.04
257.059	213.87
257.522	284.08
257.984	263.02
258.447	284.08
258.909	319.19
259.372	277.06
259.834	288.76
260.297	258.34
260.759	241.95
261.221	309.83
261.684	256
262.146	286.42
262.608	312.17
263.07	263.02
263.532	295.79
263.994	312.17
264.456	246.63
264.918	307.49
265.38	253.66
265.842	312.17
266.303	270.04
266.765	293.44
267.227	253.66
267.688	319.19
268.15	288.76
268.611	239.61
269.072	218.55
269.534	258.34
269.995	192.8
270.456	220.89
270.918	274.72
271.379	251.32
271.84	241.95
272.301	302.81
272.762	256
273.223	274.72
273.684	234.93
274.144	272.38
274.605	284.08
275.066	265.36
275.527	312.17
275.987	272.38
276.448	263.02
276.908	312.17
277.369	330.89
277.829	344.94
278.289	314.51
278.75	277.06
279.21	302.81
279.67	349.62
280.13	291.1
280.59	270.04
281.05	307.49
281.51	321.53
281.97	274.72
282.43	281.74
282.89	248.97
283.35	267.7
283.809	349.62
284.269	302.81
284.729	337.91
285.188	302.81
285.648	302.81
286.107	321.53
286.567	274.72
287.026	356.64
287.485	321.53
287.944	316.85
288.404	279.4
288.863	260.68
289.322	314.51
289.781	307.49
290.24	314.51
290.699	314.51
291.158	286.42
291.616	302.81
292.075	267.7
292.534	279.4
292.992	260.68
293.451	298.13
293.91	321.53
294.368	241.95
294.827	351.96
295.285	281.74
295.743	347.28
296.202	349.62
296.66	263.02
297.118	312.17
297.576	366
298.034	295.79
298.492	298.13
298.95	239.61
299.408	274.72
299.866	234.93
300.324	293.44
300.781	319.19
301.239	284.08
301.697	298.13
302.154	272.38
302.612	284.08
303.069	314.51
303.527	302.81
303.984	314.51
304.441	263.02
304.899	302.81
305.356	256
305.813	260.68
306.27	270.04
306.727	281.74
307.184	284.08
307.641	284.08
308.098	295.79
308.555	305.15
309.012	323.87
309.468	279.4
309.925	335.57
310.382	270.04
310.838	246.63
311.295	302.81
311.751	286.42
312.208	328.55
312.664	309.83
313.12	358.98
313.577	312.17
314.033	260.68
314.489	295.79
314.945	328.55
315.401	335.57
315.857	354.3
316.313	342.6
316.769	349.62
317.225	333.23
317.681	342.6
318.136	295.79
318.592	241.95
319.048	279.4
319.503	293.44
319.959	302.81
320.414	265.36
320.869	295.79
321.325	230.25
321.78	312.17
322.235	246.63
322.691	256
323.146	307.49
323.601	227.91
324.056	298.13
324.511	316.85
324.966	274.72
325.421	253.66
325.875	237.27
326.33	295.79
326.785	370.68
327.24	256
327.694	319.19
328.149	298.13
328.603	274.72
329.058	321.53
329.512	298.13
329.966	295.79
330.421	305.15
330.875	298.13
331.329	354.3
331.783	319.19
332.237	354.3
332.691	373.02
333.145	295.79
333.599	328.55
334.053	286.42
334.507	403.45
334.96	300.47
335.414	298.13
335.868	333.23
336.321	316.85
336.775	342.6
337.228	328.55
337.682	342.6
338.135	265.36
338.588	375.36
339.042	321.53
339.495	337.91
339.948	298.13
340.401	326.21
340.854	291.1
341.307	293.44
341.76	323.87
342.213	394.09
342.666	291.1
343.119	295.79
343.571	288.76
344.024	293.44
344.477	342.6
344.929	328.55
345.382	293.44
345.834	295.79
346.287	335.57
346.739	246.63
347.191	314.51
347.644	293.44
348.096	298.13
348.548	309.83
349	288.76
349.452	330.89
349.904	288.76
350.356	342.6
350.808	319.19
351.26	361.32
351.711	246.63
352.163	281.74
352.615	293.44
353.066	263.02
353.518	270.04
353.969	312.17
354.421	253.66
354.872	241.95
355.324	328.55
355.775	291.1
356.226	307.49
356.677	319.19
357.128	347.28
357.579	342.6
358.03	333.23
358.481	305.15
358.932	305.15
359.383	333.23
359.834	335.57
360.285	265.36
360.735	377.7
361.186	284.08
361.637	298.13
362.087	291.1
362.538	270.04
362.988	293.44
363.438	391.75
363.889	366
364.339	319.19
364.789	309.83
365.239	284.08
365.689	337.91
366.139	244.29
366.589	328.55
367.039	328.55
367.489	312.17
367.939	323.87
368.389	314.51
368.839	337.91
369.288	366
369.738	302.81
370.187	316.85
370.637	270.04
371.086	314.51
371.536	286.42
371.985	330.89
372.434	286.42
372.884	277.06
373.333	344.94
373.782	326.21
374.231	265.36
374.68	326.21
375.129	330.89
375.578	309.83
376.027	309.83
376.475	302.81
376.924	300.47
377.373	340.26
377.822	333.23
378.27	314.51
378.719	265.36
379.167	314.51
379.616	298.13
380.064	298.13
380.512	279.4
380.961	316.85
381.409	274.72
381.857	277.06
382.305	337.91
382.753	347.28
383.201	305.15
383.649	302.81
384.097	326.21
384.545	300.47
384.992	370.68
385.44	312.17
385.888	335.57
386.335	347.28
386.783	216.21
387.231	302.81
387.678	307.49
388.125	314.51
388.573	291.1
389.02	263.02
389.467	312.17
389.914	314.51
390.362	321.53
390.809	328.55
391.256	314.51
391.703	246.63
392.15	270.04
392.596	312.17
393.043	309.83
393.49	349.62
393.937	335.57
394.383	351.96
394.83	391.75
395.276	333.23
395.723	307.49
396.169	286.42
396.616	330.89
397.062	295.79
397.508	279.4
397.954	342.6
398.401	265.36
398.847	335.57
399.293	307.49
399.739	333.23
400.185	293.44
400.631	256
401.076	328.55
401.522	309.83
401.968	270.04
402.414	335.57
402.859	274.72
403.305	295.79
403.75	323.87
404.196	305.15
404.641	286.42
405.086	293.44
405.532	321.53
405.977	293.44
406.422	279.4
406.867	312.17
407.312	330.89
407.757	241.95
408.202	363.66
408.647	328.55
409.092	358.98
409.537	326.21
409.982	258.34
410.426	277.06
410.871	380.04
411.316	293.44
411.76	323.87
412.205	307.49
412.649	312.17
413.093	330.89
413.538	349.62
413.982	335.57
414.426	319.19
414.87	326.21
415.314	316.85
415.758	307.49
416.202	342.6
416.646	309.83
417.09	366
417.534	366
417.978	305.15
418.421	330.89
418.865	295.79
419.309	319.19
419.752	351.96
420.196	354.3
420.639	330.89
421.083	298.13
421.526	328.55
421.969	330.89
422.412	328.55
422.856	363.66
423.299	323.87
423.742	342.6
424.185	358.98
424.628	286.42
425.071	291.1
425.513	326.21
425.956	312.17
426.399	354.3
426.842	298.13
427.284	314.51
427.727	295.79
428.169	293.44
428.612	258.34
429.054	305.15
429.497	241.95
429.939	312.17
430.381	312.17
430.823	284.08
431.265	270.04
431.707	309.83
432.149	326.21
432.591	391.75
433.033	270.04
433.475	277.06
433.917	277.06
434.359	244.29
434.8	323.87
435.242	295.79
435.684	316.85
436.125	316.85
436.567	291.1
437.008	316.85
437.449	340.26
437.891	258.34
438.332	234.93
438.773	328.55
439.214	333.23
439.656	354.3
440.097	307.49
440.538	342.6
440.978	295.79
441.419	424.51
441.86	323.87
442.301	319.19
442.742	354.3
443.182	312.17
443.623	256
444.063	260.68
444.504	263.02
444.944	263.02
445.385	335.57
445.825	321.53
446.265	314.51
446.706	300.47
447.146	323.87
447.586	305.15
448.026	410.47
448.466	265.36
448.906	272.38
449.346	335.57
449.786	326.21
450.225	291.1
450.665	330.89
451.105	286.42
451.544	225.57
451.984	305.15
452.424	351.96
452.863	288.76
453.302	293.44
453.742	356.64
454.181	358.98
454.62	293.44
455.059	375.36
455.499	377.7
455.938	351.96
456.377	363.66
456.816	382.39
457.254	319.19
457.693	335.57
458.132	344.94
458.571	361.32
459.01	319.19
459.448	333.23
459.887	263.02
460.325	314.51
460.764	358.98
461.202	263.02
461.641	335.57
462.079	328.55
462.517	363.66
462.955	316.85
463.393	351.96
463.832	258.34
464.27	281.74
464.708	356.64
465.145	319.19
465.583	354.3
466.021	344.94
466.459	305.15
466.897	305.15
467.334	347.28
467.772	281.74
468.209	277.06
468.647	307.49
469.084	349.62
469.522	248.97
469.959	342.6
470.396	354.3
470.833	300.47
471.271	246.63
471.708	265.36
472.145	363.66
472.582	366
473.019	380.04
473.456	340.26
473.892	326.21
474.329	295.79
474.766	342.6
475.202	241.95
475.639	373.02
476.076	323.87
476.512	340.26
476.949	298.13
477.385	305.15
477.821	328.55
478.258	288.76
478.694	256
479.13	328.55
479.566	358.98
480.002	314.51
480.438	248.97
480.874	316.85
481.31	267.7
481.746	241.95
482.181	368.34
482.617	326.21
483.053	305.15
483.488	307.49
483.924	337.91
484.36	373.02
484.795	319.19
485.23	265.36
485.666	272.38
486.101	398.77
486.536	337.91
486.971	347.28
487.407	302.81
487.842	356.64
488.277	344.94
488.712	300.47
489.146	258.34
489.581	279.4
490.016	408.13
490.451	333.23
490.885	309.83
491.32	284.08
491.755	277.06
492.189	321.53
492.624	368.34
493.058	314.51
493.492	382.39
493.927	349.62
494.361	279.4
494.795	293.44
495.229	326.21
495.663	286.42
496.097	274.72
496.531	291.1
496.965	298.13
497.399	300.47
497.833	326.21
498.266	274.72
498.7	286.42
499.134	347.28
499.567	361.32
500.001	291.1
500.434	298.13
500.868	363.66
501.301	281.74
501.734	293.44
502.168	300.47
502.601	347.28
503.034	323.87
503.467	300.47
503.9	246.63
504.333	295.79
504.766	277.06
505.199	377.7
505.632	281.74
506.064	354.3
506.497	237.27
506.93	312.17
507.362	307.49
507.795	305.15
508.227	342.6
508.66	316.85
509.092	363.66
509.524	333.23
509.956	335.57
510.389	330.89
510.821	328.55
511.253	314.51
511.685	354.3
512.117	309.83
512.549	260.68
512.981	337.91
513.412	302.81
513.844	366
514.276	305.15
514.707	300.47
515.139	380.04
515.571	274.72
516.002	300.47
516.433	368.34
516.865	291.1
517.296	307.49
517.727	298.13
518.159	253.66
518.59	293.44
519.021	328.55
519.452	319.19
519.883	267.7
520.314	333.23
520.744	293.44
521.175	295.79
521.606	356.64
522.037	284.08
522.467	316.85
522.898	330.89
523.328	251.32
523.759	361.32
524.189	312.17
524.62	323.87
525.05	335.57
525.48	319.19
525.91	288.76
526.341	340.26
526.771	298.13
527.201	295.79
527.631	319.19
528.061	323.87
528.49	288.76
528.92	356.64
529.35	354.3
529.78	333.23
530.209	368.34
530.639	281.74
531.068	305.15
531.498	347.28
531.927	312.17
532.357	274.72
532.786	361.32
533.215	349.62
533.644	281.74
534.074	349.62
534.503	302.81
534.932	349.62
535.361	340.26
535.79	248.97
536.218	326.21
536.647	340.26
537.076	340.26
537.505	302.81
537.933	302.81
538.362	291.1
538.79	312.17
539.219	293.44
539.647	274.72
540.076	316.85
540.504	309.83
540.932	330.89
541.36	284.08
541.788	316.85
542.217	333.23
542.645	300.47
543.073	256
543.5	335.57
543.928	347.28
544.356	330.89
544.784	244.29
545.211	260.68
545.639	342.6
546.067	337.91
546.494	326.21
546.922	267.7
547.349	356.64
547.776	265.36
548.204	328.55
548.631	309.83
549.058	405.79
549.485	361.32
549.912	312.17
550.339	291.1
550.766	351.96
551.193	326.21
551.62	363.66
552.047	274.72
552.474	295.79
552.9	293.44
553.327	309.83
553.754	272.38
554.18	373.02
554.607	335.57
555.033	279.4
555.459	328.55
555.886	366
556.312	394.09
556.738	309.83
557.164	295.79
557.59	267.7
558.016	347.28
558.442	347.28
558.868	267.7
559.294	302.81
559.72	284.08
560.145	309.83
560.571	351.96
560.997	326.21
561.422	354.3
561.848	284.08
562.273	277.06
562.699	349.62
563.124	323.87
563.549	361.32
563.974	307.49
564.4	279.4
564.825	270.04
565.25	373.02
565.675	391.75
566.1	291.1
566.525	248.97
566.95	305.15
567.374	263.02
567.799	342.6
568.224	291.1
568.648	293.44
569.073	265.36
569.497	342.6
569.922	279.4
570.346	277.06
570.771	316.85
571.195	241.95
571.619	330.89
572.043	314.51
572.467	335.57
572.891	309.83
573.315	323.87
573.739	340.26
574.163	284.08
574.587	281.74
575.011	291.1
575.435	335.57
575.858	340.26
576.282	302.81
576.705	309.83
577.129	328.55
577.552	286.42
577.976	340.26
578.399	354.3
578.822	314.51
579.245	351.96
579.669	326.21
580.092	256
580.515	216.21
580.938	373.02
581.361	265.36
581.784	309.83
582.206	256
582.629	263.02
583.052	342.6
583.474	293.44
583.897	351.96
584.32	284.08
584.742	295.79
585.165	293.44
585.587	274.72
586.009	307.49
586.431	330.89
586.854	307.49
587.276	321.53
587.698	419.83
588.12	375.36
588.542	326.21
588.964	300.47
589.386	326.21
589.807	314.51
590.229	309.83
590.651	291.1
591.073	328.55
591.494	323.87
591.916	312.17
592.337	333.23
592.759	328.55
593.18	305.15
593.601	307.49
594.022	335.57
594.444	279.4
594.865	375.36
595.286	377.7
595.707	356.64
596.128	305.15
596.549	286.42
596.97	351.96
597.39	316.85
597.811	314.51
598.232	373.02
598.652	307.49
599.073	312.17
599.494	309.83
599.914	232.59
600.334	305.15
600.755	286.42
601.175	340.26
601.595	305.15
602.015	333.23
602.436	279.4
602.856	396.43
603.276	335.57
603.696	293.44
604.115	363.66
604.535	277.06
604.955	354.3
605.375	277.06
605.794	288.76
606.214	342.6
606.634	256
607.053	300.47
607.473	358.98
607.892	366
608.311	316.85
608.731	298.13
609.15	356.64
609.569	326.21
609.988	314.51
610.407	314.51
610.826	356.64
611.245	263.02
611.664	295.79
612.083	270.04
612.501	284.08
612.92	286.42
613.339	267.7
613.757	377.7
614.176	323.87
614.594	340.26
615.013	302.81
615.431	312.17
615.85	326.21
616.268	279.4
616.686	279.4
617.104	321.53
617.522	344.94
617.94	323.87
618.358	319.19
618.776	281.74
619.194	340.26
619.612	286.42
620.03	344.94
620.447	258.34
620.865	319.19
621.282	326.21
621.7	330.89
622.117	319.19
622.535	396.43
622.952	244.29
623.369	263.02
623.787	382.39
624.204	263.02
624.621	270.04
625.038	220.89
625.455	258.34
625.872	277.06
626.289	380.04
626.706	309.83
627.123	340.26
627.539	302.81
627.956	298.13
628.373	288.76
628.789	333.23
629.206	363.66
629.622	344.94
630.038	258.34
630.455	337.91
630.871	307.49
631.287	300.47
631.703	267.7
632.12	312.17
632.536	309.83
632.952	361.32
633.368	234.93
633.783	373.02
634.199	312.17
634.615	277.06
635.031	358.98
635.446	347.28
635.862	295.79
636.277	270.04
636.693	326.21
637.108	344.94
637.524	305.15
637.939	288.76
638.354	234.93
638.77	328.55
639.185	384.73
639.6	260.68
640.015	319.19
640.43	295.79
640.845	286.42
641.259	295.79
641.674	300.47
642.089	319.19
642.504	284.08
642.918	316.85
643.333	307.49
643.747	361.32
644.162	295.79
644.576	321.53
644.991	300.47
645.405	398.77
645.819	307.49
646.233	274.72
646.647	330.89
647.061	272.38
647.475	288.76
647.889	314.51
648.303	307.49
648.717	307.49
649.131	366
649.545	351.96
649.958	321.53
650.372	277.06
650.785	314.51
651.199	323.87
651.612	279.4
652.026	288.76
652.439	298.13
652.852	307.49
653.266	256
653.679	323.87
654.092	286.42
654.505	319.19
654.918	323.87
655.331	246.63
655.744	363.66
656.156	363.66
656.569	305.15
656.982	316.85
657.394	270.04
657.807	300.47
658.22	277.06
658.632	349.62
659.044	277.06
659.457	258.34
659.869	300.47
660.281	298.13
660.693	349.62
661.106	293.44
661.518	284.08
661.93	272.38
662.342	333.23
662.754	284.08
663.165	265.36
663.577	312.17
663.989	291.1
664.401	307.49
664.812	307.49
665.224	387.07
665.635	298.13
666.047	319.19
666.458	337.91
666.869	295.79
667.281	227.91
667.692	342.6
668.103	323.87
668.514	309.83
668.925	274.72
669.336	312.17
669.747	316.85
670.158	321.53
670.569	286.42
670.979	321.53
671.39	326.21
671.801	328.55
672.211	312.17
672.622	298.13
673.032	330.89
673.443	248.97
673.853	305.15
674.263	293.44
674.674	347.28
675.084	363.66
675.494	199.82
675.904	302.81
676.314	330.89
676.724	286.42
677.134	309.83
677.544	330.89
677.953	344.94
678.363	288.76
678.773	447.92
679.182	281.74
679.592	335.57
680.001	295.79
680.411	351.96
680.82	314.51
681.23	309.83
681.639	337.91
682.048	321.53
682.457	373.02
682.866	293.44
683.275	281.74
683.684	305.15
684.093	368.34
684.502	328.55
684.911	256
685.32	295.79
685.728	298.13
686.137	405.79
686.546	291.1
686.954	340.26
687.363	251.32
687.771	342.6
688.179	344.94
688.588	347.28
688.996	312.17
689.404	286.42
689.812	387.07
690.22	295.79
690.628	286.42
691.036	326.21
691.444	316.85
691.852	349.62
692.26	340.26
692.667	321.53
693.075	309.83
693.483	375.36
693.89	288.76
694.298	307.49
694.705	270.04
695.112	300.47
695.52	314.51
695.927	342.6
696.334	351.96
696.741	314.51
697.148	305.15
697.555	241.95
697.962	288.76
698.369	358.98
698.776	358.98
699.183	298.13
699.59	328.55
699.996	305.15
700.403	312.17
700.81	288.76
701.216	295.79
701.623	258.34
702.029	302.81
702.435	330.89
702.842	398.77
703.248	316.85
703.654	270.04
704.06	260.68
704.466	330.89
704.872	256
705.278	286.42
705.684	309.83
706.09	281.74
706.496	293.44
706.901	368.34
707.307	316.85
707.712	286.42
708.118	272.38
708.523	340.26
708.929	298.13
709.334	323.87
709.74	288.76
710.145	309.83
710.55	288.76
710.955	342.6
711.36	354.3
711.765	281.74
712.17	239.61
712.575	267.7
712.98	742.83
713.385	314.51
713.789	277.06
714.194	330.89
714.599	302.81
715.003	274.72
715.408	279.4
715.812	349.62
716.217	354.3
716.621	241.95
717.025	349.62
717.429	305.15
717.833	321.53
718.238	267.7
718.642	305.15
719.046	307.49
719.449	293.44
719.853	312.17
720.257	316.85
720.661	307.49
721.065	263.02
721.468	358.98
721.872	246.63
722.275	328.55
722.679	309.83
723.082	384.73
723.485	316.85
723.889	288.76
724.292	286.42
724.695	356.64
725.098	342.6
725.501	328.55
725.904	281.74
726.307	321.53
726.71	323.87
727.113	316.85
727.516	281.74
727.918	351.96
728.321	326.21
728.724	344.94
729.126	347.28
729.529	295.79
729.931	274.72
730.333	267.7
730.736	380.04
731.138	328.55
731.54	237.27
731.942	330.89
732.344	279.4
732.746	344.94
733.148	239.61
733.55	354.3
733.952	349.62
734.354	323.87
734.756	337.91
735.157	270.04
735.559	267.7
735.96	298.13
736.362	321.53
736.763	319.19
737.165	319.19
737.566	307.49
737.967	323.87
738.368	358.98
738.77	305.15
739.171	277.06
739.572	309.83
739.973	274.72
740.374	298.13
740.774	288.76
741.175	251.32
741.576	267.7
741.977	288.76
742.377	300.47
742.778	295.79
743.178	356.64
743.579	298.13
743.979	323.87
744.379	309.83
744.78	223.23
745.18	258.34
745.58	305.15
745.98	279.4
746.38	323.87
746.78	277.06
747.18	312.17
747.58	274.72
747.98	309.83
748.38	387.07
748.779	270.04
749.179	321.53
749.578	288.76
749.978	305.15
750.377	358.98
750.777	328.55
751.176	335.57
751.575	337.91
751.975	326.21
752.374	260.68
752.773	244.29
753.172	281.74
753.571	319.19
753.97	291.1
754.369	333.23
754.768	234.93
755.166	356.64
755.565	300.47
755.964	323.87
756.362	335.57
756.761	351.96
757.159	319.19
757.558	295.79
757.956	274.72
758.354	380.04
758.753	349.62
759.151	291.1
759.549	260.68
759.947	312.17
760.345	246.63
760.743	344.94
761.141	366
761.539	319.19
761.936	298.13
762.334	316.85
762.732	309.83
763.129	295.79
763.527	263.02
763.924	328.55
764.322	351.96
764.719	258.34
765.117	382.39
765.514	333.23
765.911	314.51
766.308	312.17
766.705	298.13
767.102	333.23
767.499	260.68
767.896	330.89
768.293	302.81
768.69	291.1
769.086	284.08
769.483	281.74
769.88	227.91
770.276	368.34
770.673	309.83
771.069	335.57
771.466	291.1
771.862	246.63
772.258	335.57
772.654	272.38
773.05	234.93
773.447	314.51
773.843	298.13
774.239	281.74
774.634	272.38
775.03	258.34
775.426	284.08
775.822	300.47
776.218	323.87
776.613	211.53
777.009	373.02
777.404	298.13
777.8	347.28
778.195	312.17
778.59	340.26
778.986	384.73
779.381	291.1
779.776	305.15
780.171	330.89
780.566	265.36
780.961	300.47
781.356	291.1
781.751	284.08
782.146	284.08
782.54	373.02
782.935	244.29
783.33	305.15
783.724	302.81
784.119	340.26
784.513	319.19
784.908	253.66
785.302	326.21
785.696	270.04
786.09	284.08
786.485	286.42
786.879	333.23
787.273	277.06
787.667	272.38
788.061	349.62
788.454	344.94
788.848	293.44
789.242	284.08
789.636	267.7
790.029	340.26
790.423	272.38
790.816	302.81
791.21	307.49
791.603	302.81
791.997	326.21
792.39	370.68
792.783	302.81
793.176	230.25
793.569	330.89
793.962	277.06
794.355	382.39
794.748	256
795.141	284.08
795.534	330.89
795.927	363.66
796.319	323.87
796.712	373.02
797.105	312.17
797.497	312.17
797.89	328.55
798.282	349.62
798.674	291.1
799.067	312.17
799.459	279.4
799.851	417.49
800.243	340.26
800.635	314.51
801.027	265.36
801.419	263.02
801.811	321.53
802.203	279.4
802.594	241.95
802.986	330.89
803.378	281.74
803.769	279.4
804.161	342.6
804.552	305.15
804.944	279.4
805.335	305.15
805.726	380.04
806.118	260.68
806.509	307.49
806.9	347.28
807.291	358.98
807.682	312.17
808.073	323.87
808.464	361.32
808.855	300.47
809.245	274.72
809.636	316.85
810.027	368.34
810.417	298.13
810.808	286.42
811.198	354.3
811.589	263.02
811.979	288.76
812.369	281.74
812.759	401.11
813.15	342.6
813.54	328.55
813.93	319.19
814.32	347.28
814.71	300.47
815.1	246.63
815.489	286.42
815.879	305.15
816.269	333.23
816.658	323.87
817.048	316.85
817.438	302.81
817.827	260.68
818.216	312.17
818.606	312.17
818.995	351.96
819.384	274.72
819.773	277.06
820.163	298.13
820.552	265.36
820.941	288.76
821.33	298.13
821.718	330.89
822.107	253.66
822.496	307.49
822.885	342.6
823.273	263.02
823.662	302.81
824.05	305.15
824.439	305.15
824.827	288.76
825.216	337.91
825.604	349.62
825.992	316.85
826.38	349.62
826.768	277.06
827.156	253.66
827.544	246.63
827.932	337.91
828.32	316.85
828.708	293.44
829.096	263.02
829.483	321.53
829.871	309.83
830.259	281.74
830.646	354.3
831.034	309.83
831.421	354.3
831.808	272.38
832.196	239.61
832.583	347.28
832.97	277.06
833.357	258.34
833.744	230.25
834.131	316.85
834.518	300.47
834.905	284.08
835.292	279.4
835.678	298.13
836.065	291.1
836.452	351.96
836.838	298.13
837.225	337.91
837.611	281.74
837.998	295.79
838.384	293.44
838.77	319.19
839.157	323.87
839.543	328.55
839.929	260.68
840.315	270.04
840.701	323.87
841.087	288.76
841.473	333.23
841.858	347.28
842.244	305.15
842.63	349.62
843.015	342.6
843.401	307.49
843.787	309.83
844.172	335.57
844.557	274.72
844.943	321.53
845.328	309.83
845.713	328.55
846.098	295.79
846.483	330.89
846.868	293.44
847.253	281.74
847.638	263.02
848.023	330.89
848.408	288.76
848.793	293.44
849.177	248.97
849.562	263.02
849.947	256
850.331	323.87
850.715	340.26
851.1	316.85
851.484	323.87
851.868	302.81
852.253	293.44
852.637	302.81
853.021	305.15
853.405	256
853.789	270.04
854.173	265.36
854.557	298.13
854.94	321.53
855.324	302.81
855.708	286.42
856.091	330.89
856.475	281.74
856.858	288.76
857.242	293.44
857.625	307.49
858.009	344.94
858.392	291.1
858.775	300.47
859.158	302.81
859.541	323.87
859.924	319.19
860.307	309.83
860.69	305.15
861.073	344.94
861.456	326.21
861.838	225.57
862.221	295.79
862.604	316.85
862.986	239.61
863.369	267.7
863.751	347.28
864.133	330.89
864.516	337.91
864.898	312.17
865.28	284.08
865.662	309.83
866.044	326.21
866.426	356.64
866.808	321.53
867.19	232.59
867.572	342.6
867.954	323.87
868.336	244.29
868.717	340.26
869.099	319.19
869.48	335.57
869.862	298.13
870.243	351.96
870.625	274.72
871.006	309.83
871.387	333.23
871.768	309.83
872.149	307.49
872.53	232.59
872.911	286.42
873.292	358.98
873.673	319.19
874.054	300.47
874.435	333.23
874.815	284.08
875.196	349.62
875.577	328.55
875.957	267.7
876.338	335.57
876.718	307.49
877.098	326.21
877.479	333.23
877.859	298.13
878.239	342.6
878.619	342.6
878.999	323.87
879.379	307.49
879.759	300.47
880.139	302.81
880.519	279.4
880.898	284.08
881.278	351.96
881.658	333.23
882.037	307.49
882.417	333.23
882.796	307.49
883.176	265.36
883.555	321.53
883.934	286.42
884.313	354.3
884.693	314.51
885.072	326.21
885.451	340.26
885.83	302.81
886.209	225.57
886.587	340.26
886.966	319.19
887.345	330.89
887.724	293.44
888.102	305.15
888.481	270.04
888.859	319.19
889.238	312.17
889.616	344.94
889.994	265.36
890.373	277.06
890.751	281.74
891.129	284.08
891.507	295.79
891.885	270.04
892.263	302.81
892.641	380.04
893.019	241.95
893.396	312.17
893.774	314.51
894.152	335.57
894.529	288.76
894.907	291.1
895.284	312.17
895.662	274.72
896.039	384.73
896.416	333.23
896.794	295.79
897.171	237.27
897.548	344.94
897.925	300.47
898.302	312.17
898.679	316.85
899.056	307.49
899.433	328.55
899.809	319.19
900.186	326.21
900.563	309.83
900.939	309.83
901.316	281.74
901.692	347.28
902.069	281.74
902.445	366
902.821	277.06
903.197	277.06
903.574	295.79
903.95	286.42
904.326	319.19
904.702	298.13
905.078	344.94
905.454	349.62
905.829	293.44
906.205	305.15
906.581	319.19
906.956	356.64
907.332	298.13
907.707	321.53
908.083	326.21
908.458	328.55
908.833	300.47
909.209	263.02
909.584	307.49
909.959	291.1
910.334	319.19
910.709	328.55
911.084	295.79
911.459	305.15
911.834	351.96
912.209	319.19
912.583	258.34
912.958	330.89
913.333	312.17
913.707	256
914.082	277.06
914.456	237.27
914.83	237.27
915.205	302.81
915.579	293.44
915.953	312.17
916.327	288.76
916.701	298.13
917.075	265.36
917.449	354.3
917.823	298.13
918.197	394.09
918.571	291.1
918.944	223.23
919.318	267.7
919.692	305.15
920.065	333.23
920.438	258.34
920.812	337.91
921.185	307.49
921.558	293.44
921.932	335.57
922.305	288.76
922.678	253.66
923.051	337.91
923.424	316.85
923.797	347.28
924.17	328.55
924.542	267.7
924.915	286.42
925.288	253.66
925.661	319.19
926.033	309.83
926.406	246.63
926.778	288.76
927.15	300.47
927.523	267.7
927.895	295.79
928.267	330.89
928.639	281.74
929.011	295.79
929.383	312.17
929.755	288.76
930.127	270.04
930.499	347.28
930.871	330.89
931.242	307.49
931.614	328.55
931.986	309.83
932.357	319.19
932.729	284.08
933.1	333.23
933.471	272.38
933.843	286.42
934.214	314.51
934.585	312.17
934.956	270.04
935.327	309.83
935.698	335.57
936.069	358.98
936.44	246.63
936.811	323.87
937.182	300.47
937.552	281.74
937.923	316.85
938.293	284.08
938.664	284.08
939.034	277.06
939.405	347.28
939.775	291.1
940.145	265.36
940.516	344.94
940.886	284.08
941.256	323.87
941.626	272.38
941.996	298.13
942.366	263.02
942.735	246.63
943.105	293.44
943.475	389.41
943.845	305.15
944.214	342.6
944.584	312.17
944.953	293.44
945.323	340.26
945.692	321.53
946.061	302.81
946.43	293.44
946.8	321.53
947.169	274.72
947.538	284.08
947.907	293.44
948.276	279.4
948.645	288.76
949.013	284.08
949.382	326.21
949.751	354.3
950.119	333.23
950.488	380.04
950.857	312.17
951.225	323.87
951.593	277.06
951.962	335.57
952.33	288.76
952.698	288.76
953.066	288.76
953.434	232.59
953.802	309.83
954.17	309.83
954.538	356.64
954.906	244.29
955.274	291.1
955.642	291.1
956.009	291.1
956.377	333.23
956.744	286.42
957.112	253.66
957.479	347.28
957.847	337.91
958.214	288.76
958.581	340.26
958.948	333.23
959.315	291.1
959.683	300.47
960.05	305.15
960.416	302.81
960.783	340.26
961.15	281.74
961.517	244.29
961.884	326.21
962.25	335.57
962.617	298.13
962.983	253.66
963.35	272.38
963.716	328.55
964.082	347.28
964.449	333.23
964.815	314.51
965.181	319.19
965.547	295.79
965.913	295.79
966.279	232.59
966.645	237.27
967.011	295.79
967.377	373.02
967.742	284.08
968.108	356.64
968.474	340.26
968.839	293.44
969.205	323.87
969.57	284.08
969.935	314.51
970.301	232.59
970.666	316.85
971.031	288.76
971.396	316.85
971.761	326.21
972.126	263.02
972.491	370.68
972.856	267.7
973.221	253.66
973.586	300.47
973.95	291.1
974.315	363.66
974.679	279.4
975.044	347.28
975.408	300.47
975.773	291.1
976.137	258.34
976.501	295.79
976.866	300.47
977.23	361.32
977.594	291.1
977.958	288.76
978.322	293.44
978.686	305.15
979.049	330.89
979.413	300.47
979.777	291.1
980.141	298.13
980.504	340.26
980.868	312.17
981.231	263.02
981.595	267.7
981.958	333.23
982.321	288.76
982.684	279.4
983.048	272.38
983.411	288.76
983.774	288.76
984.137	314.51
984.5	333.23
984.862	328.55
985.225	328.55
985.588	380.04
985.951	307.49
986.313	288.76
986.676	267.7
987.038	295.79
987.401	321.53
987.763	277.06
988.125	305.15
988.488	302.81
988.85	293.44
989.212	298.13
989.574	288.76
989.936	335.57
990.298	260.68
990.66	312.17
991.022	230.25
991.383	309.83
991.745	356.64
992.107	295.79
992.468	312.17
992.83	344.94
993.191	305.15
993.553	234.93
993.914	307.49
994.275	316.85
994.637	281.74
994.998	321.53
995.359	267.7
995.72	300.47
996.081	253.66
996.442	337.91
996.803	326.21
997.163	302.81
997.524	305.15
997.885	314.51
998.245	347.28
998.606	295.79
998.966	302.81
999.327	307.49
999.687	312.17
1000.047	309.83
1000.408	349.62
1000.768	382.39
1001.128	347.28
1001.488	293.44
1001.848	337.91
1002.208	312.17
1002.568	300.47
1002.927	248.97
1003.287	302.81
1003.647	319.19
1004.007	312.17
1004.366	305.15
1004.726	298.13
1005.085	330.89
1005.444	286.42
1005.804	368.34
1006.163	330.89
1006.522	375.36
1006.881	298.13
1007.24	270.04
1007.599	326.21
1007.958	274.72
1008.317	295.79
1008.676	380.04
1009.035	216.21
1009.393	375.36
1009.752	335.57
1010.111	302.81
1010.469	330.89
1010.828	323.87
1011.186	319.19
1011.544	291.1
1011.903	354.3
1012.261	326.21
1012.619	326.21
1012.977	337.91
1013.335	281.74
1013.693	295.79
1014.051	281.74
1014.409	286.42
1014.767	248.97
1015.124	342.6
1015.482	288.76
1015.84	314.51
1016.197	284.08
1016.555	302.81
1016.912	368.34
1017.269	277.06
1017.627	340.26
1017.984	284.08
1018.341	302.81
1018.698	284.08
1019.055	340.26
1019.412	321.53
1019.769	312.17
1020.126	316.85
1020.483	260.68
1020.84	307.49
1021.196	354.3
1021.553	302.81
1021.909	319.19
1022.266	333.23
1022.622	291.1
1022.979	239.61
1023.335	293.44
1023.691	309.83
1024.047	288.76
1024.404	305.15
1024.76	241.95
1025.116	260.68
1025.472	300.47
1025.827	300.47
1026.183	391.75
1026.539	356.64
1026.895	300.47
1027.25	234.93
1027.606	281.74
1027.961	314.51
1028.317	230.25
1028.672	314.51
1029.028	300.47
1029.383	333.23
1029.738	307.49
1030.093	302.81
1030.448	284.08
1030.803	211.53
1031.158	326.21
1031.513	272.38
1031.868	302.81
1032.223	279.4
1032.577	279.4
1032.932	319.19
1033.287	277.06
1033.641	316.85
1033.996	337.91
1034.35	272.38
1034.704	291.1
1035.059	335.57
1035.413	328.55
1035.767	328.55
1036.121	328.55
