Data from Al_FLMS009871__970__16-20-58-119.txt Node

Date: Fri Mar 08 16:20:58 CST 2024
User: pe5414po
Spectrometer: FLMS00987
Trigger mode: 0
Integration Time (sec): 1.000000E-1
Scans to average: 1
Electric dark correction enabled: true
Nonlinearity correction enabled: false
Boxcar width: 0
XAxis mode: Wavelengths
Number of Pixels in Spectrum: 2048
>>>>>Begin Spectral Data<<<<<
188.938	-100.5
189.409	-100.5
189.879	-100.5
190.349	-95.82
190.819	-53.69
191.29	-56.03
191.76	-53.69
192.23	-39.64
192.7	-133.26
193.17	-65.39
193.64	-72.41
194.109	-51.35
194.579	-11.56
195.049	-11.56
195.519	11.85
195.988	32.91
196.458	56.32
196.927	72.7
197.397	91.43
197.866	56.32
198.336	173.35
198.805	152.28
199.274	142.92
199.744	161.64
200.213	161.64
200.682	196.75
201.151	168.66
201.62	192.07
202.089	262.29
202.558	215.48
203.027	273.99
203.495	231.86
203.964	234.2
204.433	278.67
204.902	199.09
205.37	262.29
205.839	320.8
206.307	306.76
206.776	311.44
207.244	262.29
207.712	288.03
208.181	285.69
208.649	259.95
209.117	290.37
209.585	362.93
210.053	264.63
210.521	276.33
210.989	316.12
211.457	241.22
211.925	302.08
212.393	276.33
212.861	313.78
213.328	245.9
213.796	227.18
214.264	323.14
214.731	262.29
215.199	299.73
215.666	295.05
216.133	290.37
216.601	271.65
217.068	241.22
217.535	306.76
218.003	210.79
218.47	255.26
218.937	217.82
219.404	255.26
219.871	288.03
220.338	309.1
220.805	262.29
221.271	266.97
221.738	252.92
222.205	292.71
222.671	213.14
223.138	259.95
223.605	248.24
224.071	227.18
224.538	266.97
225.004	259.95
225.47	259.95
225.937	276.33
226.403	248.24
226.869	313.78
227.335	222.5
227.801	208.45
228.267	281.01
228.733	206.11
229.199	309.1
229.665	367.61
230.131	271.65
230.597	278.67
231.062	231.86
231.528	306.76
231.994	248.24
232.459	231.86
232.925	185.05
233.39	302.08
233.856	236.54
234.321	252.92
234.786	288.03
235.252	213.14
235.717	224.84
236.182	285.69
236.647	250.58
237.112	222.5
237.577	269.31
238.042	189.73
238.507	299.73
238.972	255.26
239.436	297.39
239.901	231.86
240.366	313.78
240.83	208.45
241.295	252.92
241.76	302.08
242.224	241.22
242.688	248.24
243.153	285.69
243.617	302.08
244.081	318.46
244.545	273.99
245.01	290.37
245.474	290.37
245.938	248.24
246.402	297.39
246.866	295.05
247.33	264.63
247.793	231.86
248.257	271.65
248.721	245.9
249.185	262.29
249.648	271.65
250.112	311.44
250.575	283.35
251.039	271.65
251.502	208.45
251.965	264.63
252.429	234.2
252.892	290.37
253.355	264.63
253.818	309.1
254.281	262.29
254.744	348.89
255.207	250.58
255.67	285.69
256.133	292.71
256.596	236.54
257.059	252.92
257.522	245.9
257.984	266.97
258.447	271.65
258.909	248.24
259.372	302.08
259.834	266.97
260.297	295.05
260.759	288.03
261.221	304.42
261.684	295.05
262.146	295.05
262.608	360.59
263.07	297.39
263.532	323.14
263.994	266.97
264.456	369.95
264.918	285.69
265.38	264.63
265.842	271.65
266.303	266.97
266.765	271.65
267.227	309.1
267.688	276.33
268.15	283.35
268.611	257.61
269.072	255.26
269.534	339.52
269.995	318.46
270.456	238.88
270.918	271.65
271.379	257.61
271.84	295.05
272.301	259.95
272.762	285.69
273.223	250.58
273.684	276.33
274.144	266.97
274.605	306.76
275.066	257.61
275.527	302.08
275.987	299.73
276.448	295.05
276.908	353.57
277.369	285.69
277.829	238.88
278.289	241.22
278.75	318.46
279.21	292.71
279.67	295.05
280.13	327.82
280.59	358.25
281.05	306.76
281.51	318.46
281.97	304.42
282.43	292.71
282.89	285.69
283.35	334.84
283.809	269.31
284.269	295.05
284.729	266.97
285.188	313.78
285.648	311.44
286.107	227.18
286.567	351.23
287.026	271.65
287.485	337.18
287.944	257.61
288.404	360.59
288.863	271.65
289.322	311.44
289.781	231.86
290.24	295.05
290.699	304.42
291.158	334.84
291.616	248.24
292.075	339.52
292.534	262.29
292.992	271.65
293.451	288.03
293.91	290.37
294.368	257.61
294.827	297.39
295.285	288.03
295.743	273.99
296.202	180.37
296.66	304.42
297.118	306.76
297.576	288.03
298.034	266.97
298.492	262.29
298.95	295.05
299.408	320.8
299.866	334.84
300.324	346.55
300.781	320.8
301.239	360.59
301.697	266.97
302.154	273.99
302.612	330.16
303.069	281.01
303.527	281.01
303.984	304.42
304.441	327.82
304.899	285.69
305.356	302.08
305.813	245.9
306.27	299.73
306.727	334.84
307.184	290.37
307.641	309.1
308.098	332.5
308.555	264.63
309.012	325.48
309.468	320.8
309.925	358.25
310.382	290.37
310.838	369.95
311.295	325.48
311.751	290.37
312.208	238.88
312.664	273.99
313.12	309.1
313.577	297.39
314.033	264.63
314.489	285.69
314.945	290.37
315.401	320.8
315.857	297.39
316.313	262.29
316.769	365.27
317.225	353.57
317.681	285.69
318.136	325.48
318.592	250.58
319.048	339.52
319.503	245.9
319.959	238.88
320.414	292.71
320.869	302.08
321.325	299.73
321.78	276.33
322.235	388.68
322.691	271.65
323.146	360.59
323.601	362.93
324.056	295.05
324.511	299.73
324.966	302.08
325.421	313.78
325.875	203.77
326.33	313.78
326.785	344.21
327.24	285.69
327.694	318.46
328.149	348.89
328.603	332.5
329.058	292.71
329.512	299.73
329.966	325.48
330.421	285.69
330.875	276.33
331.329	309.1
331.783	358.25
332.237	255.26
332.691	295.05
333.145	332.5
333.599	231.86
334.053	262.29
334.507	337.18
334.96	271.65
335.414	332.5
335.868	302.08
336.321	255.26
336.775	306.76
337.228	278.67
337.682	290.37
338.135	318.46
338.588	304.42
339.042	362.93
339.495	288.03
339.948	316.12
340.401	311.44
340.854	355.91
341.307	255.26
341.76	320.8
342.213	236.54
342.666	299.73
343.119	236.54
343.571	271.65
344.024	346.55
344.477	365.27
344.929	395.7
345.382	290.37
345.834	334.84
346.287	334.84
346.739	259.95
347.191	327.82
347.644	334.84
348.096	320.8
348.548	288.03
349	348.89
349.452	292.71
349.904	325.48
350.356	327.82
350.808	311.44
351.26	327.82
351.711	313.78
352.163	288.03
352.615	344.21
353.066	257.61
353.518	297.39
353.969	285.69
354.421	334.84
354.872	316.12
355.324	295.05
355.775	330.16
356.226	271.65
356.677	339.52
357.128	302.08
357.579	285.69
358.03	337.18
358.481	330.16
358.932	327.82
359.383	313.78
359.834	304.42
360.285	288.03
360.735	266.97
361.186	292.71
361.637	327.82
362.087	318.46
362.538	339.52
362.988	323.14
363.438	304.42
363.889	353.57
364.339	297.39
364.789	369.95
365.239	323.14
365.689	327.82
366.139	302.08
366.589	358.25
367.039	313.78
367.489	299.73
367.939	288.03
368.389	257.61
368.839	346.55
369.288	374.63
369.738	292.71
370.187	320.8
370.637	276.33
371.086	264.63
371.536	283.35
371.985	355.91
372.434	351.23
372.884	309.1
373.333	271.65
373.782	290.37
374.231	222.5
374.68	369.95
375.129	259.95
375.578	255.26
376.027	255.26
376.475	330.16
376.924	290.37
377.373	297.39
377.822	290.37
378.27	341.86
378.719	332.5
379.167	320.8
379.616	292.71
380.064	297.39
380.512	252.92
380.961	323.14
381.409	332.5
381.857	252.92
382.305	245.9
382.753	250.58
383.201	285.69
383.649	318.46
384.097	311.44
384.545	309.1
384.992	311.44
385.44	346.55
385.888	292.71
386.335	299.73
386.783	344.21
387.231	327.82
387.678	306.76
388.125	309.1
388.573	316.12
389.02	269.31
389.467	311.44
389.914	297.39
390.362	269.31
390.809	255.26
391.256	269.31
391.703	341.86
392.15	273.99
392.596	288.03
393.043	309.1
393.49	344.21
393.937	337.18
394.383	337.18
394.83	372.29
395.276	297.39
395.723	297.39
396.169	269.31
396.616	311.44
397.062	306.76
397.508	264.63
397.954	264.63
398.401	339.52
398.847	304.42
399.293	297.39
399.739	332.5
400.185	304.42
400.631	285.69
401.076	285.69
401.522	288.03
401.968	313.78
402.414	220.16
402.859	393.36
403.305	365.27
403.75	283.35
404.196	257.61
404.641	276.33
405.086	227.18
405.532	376.97
405.977	295.05
406.422	309.1
406.867	276.33
407.312	327.82
407.757	266.97
408.202	327.82
408.647	311.44
409.092	290.37
409.537	339.52
409.982	323.14
410.426	288.03
410.871	369.95
411.316	306.76
411.76	285.69
412.205	332.5
412.649	236.54
413.093	337.18
413.538	302.08
413.982	271.65
414.426	290.37
414.87	276.33
415.314	311.44
415.758	360.59
416.202	344.21
416.646	320.8
417.09	290.37
417.534	299.73
417.978	365.27
418.421	362.93
418.865	318.46
419.309	288.03
419.752	339.52
420.196	283.35
420.639	264.63
421.083	278.67
421.526	306.76
421.969	266.97
422.412	262.29
422.856	309.1
423.299	292.71
423.742	269.31
424.185	313.78
424.628	283.35
425.071	297.39
425.513	290.37
425.956	325.48
426.399	323.14
426.842	215.48
427.284	320.8
427.727	241.22
428.169	236.54
428.612	313.78
429.054	367.61
429.497	290.37
429.939	213.14
430.381	281.01
430.823	262.29
431.265	309.1
431.707	273.99
432.149	264.63
432.591	283.35
433.033	311.44
433.475	264.63
433.917	309.1
434.359	304.42
434.8	341.86
435.242	290.37
435.684	327.82
436.125	344.21
436.567	332.5
437.008	290.37
437.449	334.84
437.891	316.12
438.332	245.9
438.773	327.82
439.214	231.86
439.656	269.31
440.097	278.67
440.538	295.05
440.978	320.8
441.419	306.76
441.86	334.84
442.301	259.95
442.742	248.24
443.182	388.68
443.623	325.48
444.063	302.08
444.504	376.97
444.944	257.61
445.385	290.37
445.825	353.57
446.265	337.18
446.706	304.42
447.146	257.61
447.586	334.84
448.026	391.02
448.466	339.52
448.906	379.31
449.346	337.18
449.786	320.8
450.225	334.84
450.665	299.73
451.105	304.42
451.544	250.58
451.984	252.92
452.424	353.57
452.863	306.76
453.302	285.69
453.742	302.08
454.181	348.89
454.62	306.76
455.059	353.57
455.499	318.46
455.938	281.01
456.377	355.91
456.816	306.76
457.254	311.44
457.693	306.76
458.132	273.99
458.571	306.76
459.01	367.61
459.448	332.5
459.887	278.67
460.325	257.61
460.764	339.52
461.202	295.05
461.641	332.5
462.079	344.21
462.517	229.52
462.955	281.01
463.393	355.91
463.832	337.18
464.27	259.95
464.708	290.37
465.145	325.48
465.583	283.35
466.021	311.44
466.459	330.16
466.897	288.03
467.334	376.97
467.772	346.55
468.209	290.37
468.647	281.01
469.084	302.08
469.522	351.23
469.959	320.8
470.396	330.16
470.833	297.39
471.271	341.86
471.708	309.1
472.145	304.42
472.582	309.1
473.019	348.89
473.456	318.46
473.892	292.71
474.329	341.86
474.766	348.89
475.202	206.11
475.639	306.76
476.076	327.82
476.512	346.55
476.949	304.42
477.385	334.84
477.821	320.8
478.258	259.95
478.694	325.48
479.13	337.18
479.566	334.84
480.002	332.5
480.438	269.31
480.874	311.44
481.31	269.31
481.746	278.67
482.181	299.73
482.617	353.57
483.053	271.65
483.488	316.12
483.924	292.71
484.36	278.67
484.795	325.48
485.23	297.39
485.666	306.76
486.101	313.78
486.536	288.03
486.971	273.99
487.407	344.21
487.842	372.29
488.277	351.23
488.712	334.84
489.146	313.78
489.581	325.48
490.016	320.8
490.451	309.1
490.885	306.76
491.32	285.69
491.755	344.21
492.189	276.33
492.624	302.08
493.058	255.26
493.492	346.55
493.927	330.16
494.361	323.14
494.795	327.82
495.229	369.95
495.663	297.39
496.097	313.78
496.531	318.46
496.965	316.12
497.399	304.42
497.833	292.71
498.266	360.59
498.7	344.21
499.134	259.95
499.567	290.37
500.001	309.1
500.434	266.97
500.868	330.16
501.301	320.8
501.734	334.84
502.168	330.16
502.601	327.82
503.034	355.91
503.467	341.86
503.9	292.71
504.333	313.78
504.766	292.71
505.199	344.21
505.632	327.82
506.064	318.46
506.497	360.59
506.93	341.86
507.362	306.76
507.795	353.57
508.227	297.39
508.66	327.82
509.092	262.29
509.524	348.89
509.956	334.84
510.389	297.39
510.821	241.22
511.253	334.84
511.685	295.05
512.117	250.58
512.549	236.54
512.981	283.35
513.412	259.95
513.844	337.18
514.276	283.35
514.707	318.46
515.139	281.01
515.571	306.76
516.002	241.22
516.433	271.65
516.865	311.44
517.296	316.12
517.727	297.39
518.159	292.71
518.59	330.16
519.021	365.27
519.452	302.08
519.883	255.26
520.314	196.75
520.744	351.23
521.175	278.67
521.606	304.42
522.037	299.73
522.467	311.44
522.898	351.23
523.328	325.48
523.759	248.24
524.189	255.26
524.62	285.69
525.05	290.37
525.48	302.08
525.91	304.42
526.341	299.73
526.771	313.78
527.201	302.08
527.631	323.14
528.061	318.46
528.49	292.71
528.92	351.23
529.35	360.59
529.78	266.97
530.209	330.16
530.639	290.37
531.068	262.29
531.498	318.46
531.927	299.73
532.357	295.05
532.786	311.44
533.215	283.35
533.644	264.63
534.074	325.48
534.503	327.82
534.932	295.05
535.361	323.14
535.79	332.5
536.218	330.16
536.647	292.71
537.076	290.37
537.505	271.65
537.933	276.33
538.362	341.86
538.79	355.91
539.219	302.08
539.647	320.8
540.076	299.73
540.504	327.82
540.932	353.57
541.36	313.78
541.788	309.1
542.217	278.67
542.645	288.03
543.073	339.52
543.5	318.46
543.928	344.21
544.356	302.08
544.784	297.39
545.211	393.36
545.639	339.52
546.067	358.25
546.494	299.73
546.922	306.76
547.349	311.44
547.776	383.99
548.204	323.14
548.631	339.52
549.058	339.52
549.485	351.23
549.912	288.03
550.339	337.18
550.766	309.1
551.193	248.24
551.62	257.61
552.047	288.03
552.474	288.03
552.9	311.44
553.327	313.78
553.754	285.69
554.18	283.35
554.607	302.08
555.033	323.14
555.459	318.46
555.886	257.61
556.312	412.08
556.738	285.69
557.164	238.88
557.59	288.03
558.016	276.33
558.442	316.12
558.868	332.5
559.294	355.91
559.72	316.12
560.145	262.29
560.571	306.76
560.997	318.46
561.422	302.08
561.848	344.21
562.273	292.71
562.699	362.93
563.124	325.48
563.549	295.05
563.974	292.71
564.4	323.14
564.825	372.29
565.25	358.25
565.675	327.82
566.1	281.01
566.525	388.68
566.95	330.16
567.374	295.05
567.799	325.48
568.224	250.58
568.648	346.55
569.073	295.05
569.497	299.73
569.922	320.8
570.346	283.35
570.771	316.12
571.195	313.78
571.619	297.39
572.043	262.29
572.467	304.42
572.891	227.18
573.315	346.55
573.739	325.48
574.163	203.77
574.587	341.86
575.011	243.56
575.435	376.97
575.858	339.52
576.282	306.76
576.705	337.18
577.129	306.76
577.552	271.65
577.976	299.73
578.399	297.39
578.822	283.35
579.245	316.12
579.669	348.89
580.092	358.25
580.515	283.35
580.938	290.37
581.361	320.8
581.784	285.69
582.206	309.1
582.629	295.05
583.052	306.76
583.474	290.37
583.897	318.46
584.32	376.97
584.742	337.18
585.165	292.71
585.587	292.71
586.009	250.58
586.431	262.29
586.854	264.63
587.276	276.33
587.698	266.97
588.12	288.03
588.542	339.52
588.964	318.46
589.386	266.97
589.807	346.55
590.229	306.76
590.651	295.05
591.073	283.35
591.494	285.69
591.916	348.89
592.337	306.76
592.759	276.33
593.18	290.37
593.601	337.18
594.022	313.78
594.444	306.76
594.865	341.86
595.286	245.9
595.707	306.76
596.128	332.5
596.549	353.57
596.97	327.82
597.39	327.82
597.811	273.99
598.232	299.73
598.652	316.12
599.073	297.39
599.494	292.71
599.914	295.05
600.334	278.67
600.755	325.48
601.175	255.26
601.595	271.65
602.015	304.42
602.436	344.21
602.856	386.33
603.276	313.78
603.696	330.16
604.115	327.82
604.535	348.89
604.955	304.42
605.375	332.5
605.794	252.92
606.214	330.16
606.634	290.37
607.053	318.46
607.473	295.05
607.892	339.52
608.311	290.37
608.731	334.84
609.15	297.39
609.569	285.69
609.988	327.82
610.407	320.8
610.826	302.08
611.245	297.39
611.664	327.82
612.083	278.67
612.501	304.42
612.92	281.01
613.339	297.39
613.757	292.71
614.176	292.71
614.594	309.1
615.013	288.03
615.431	292.71
615.85	299.73
616.268	285.69
616.686	311.44
617.104	288.03
617.522	323.14
617.94	353.57
618.358	337.18
618.776	290.37
619.194	283.35
619.612	355.91
620.03	292.71
620.447	283.35
620.865	353.57
621.282	215.48
621.7	288.03
622.117	341.86
622.535	341.86
622.952	227.18
623.369	297.39
623.787	302.08
624.204	346.55
624.621	285.69
625.038	407.4
625.455	306.76
625.872	332.5
626.289	358.25
626.706	313.78
627.123	365.27
627.539	330.16
627.956	309.1
628.373	290.37
628.789	369.95
629.206	334.84
629.622	313.78
630.038	273.99
630.455	269.31
630.871	281.01
631.287	325.48
631.703	309.1
632.12	355.91
632.536	381.65
632.952	283.35
633.368	288.03
633.783	278.67
634.199	311.44
634.615	330.16
635.031	295.05
635.446	283.35
635.862	362.93
636.277	299.73
636.693	295.05
637.108	337.18
637.524	351.23
637.939	348.89
638.354	273.99
638.77	327.82
639.185	302.08
639.6	276.33
640.015	355.91
640.43	299.73
640.845	245.9
641.259	379.31
641.674	351.23
642.089	334.84
642.504	302.08
642.918	285.69
643.333	341.86
643.747	271.65
644.162	259.95
644.576	341.86
644.991	290.37
645.405	337.18
645.819	292.71
646.233	273.99
646.647	252.92
647.061	245.9
647.475	297.39
647.889	309.1
648.303	257.61
648.717	255.26
649.131	229.52
649.545	269.31
649.958	302.08
650.372	309.1
650.785	290.37
651.199	318.46
651.612	217.82
652.026	295.05
652.439	306.76
652.852	306.76
653.266	288.03
653.679	313.78
654.092	360.59
654.505	320.8
654.918	339.52
655.331	334.84
655.744	313.78
656.156	295.05
656.569	309.1
656.982	332.5
657.394	358.25
657.807	337.18
658.22	374.63
658.632	381.65
659.044	323.14
659.457	224.84
659.869	245.9
660.281	334.84
660.693	288.03
661.106	309.1
661.518	292.71
661.93	327.82
662.342	325.48
662.754	334.84
663.165	269.31
663.577	281.01
663.989	348.89
664.401	353.57
664.812	273.99
665.224	330.16
665.635	311.44
666.047	285.69
666.458	367.61
666.869	276.33
667.281	393.36
667.692	318.46
668.103	318.46
668.514	304.42
668.925	365.27
669.336	325.48
669.747	330.16
670.158	381.65
670.569	271.65
670.979	348.89
671.39	339.52
671.801	346.55
672.211	348.89
672.622	264.63
673.032	299.73
673.443	332.5
673.853	269.31
674.263	276.33
674.674	309.1
675.084	339.52
675.494	341.86
675.904	311.44
676.314	318.46
676.724	278.67
677.134	355.91
677.544	281.01
677.953	323.14
678.363	311.44
678.773	405.06
679.182	292.71
679.592	320.8
680.001	304.42
680.411	337.18
680.82	341.86
681.23	295.05
681.639	276.33
682.048	332.5
682.457	348.89
682.866	290.37
683.275	299.73
683.684	281.01
684.093	327.82
684.502	313.78
684.911	344.21
685.32	269.31
685.728	362.93
686.137	297.39
686.546	295.05
686.954	372.29
687.363	297.39
687.771	306.76
688.179	386.33
688.588	313.78
688.996	283.35
689.404	297.39
689.812	292.71
690.22	304.42
690.628	243.56
691.036	304.42
691.444	320.8
691.852	318.46
692.26	374.63
692.667	353.57
693.075	304.42
693.483	290.37
693.89	311.44
694.298	311.44
694.705	269.31
695.112	360.59
695.52	316.12
695.927	313.78
696.334	313.78
696.741	250.58
697.148	337.18
697.555	259.95
697.962	318.46
698.369	337.18
698.776	330.16
699.183	339.52
699.59	264.63
699.996	302.08
700.403	348.89
700.81	276.33
701.216	318.46
701.623	327.82
702.029	309.1
702.435	285.69
702.842	252.92
703.248	320.8
703.654	348.89
704.06	358.25
704.466	318.46
704.872	325.48
705.278	304.42
705.684	295.05
706.09	337.18
706.496	269.31
706.901	273.99
707.307	332.5
707.712	271.65
708.118	334.84
708.523	316.12
708.929	313.78
709.334	341.86
709.74	264.63
710.145	269.31
710.55	269.31
710.955	252.92
711.36	290.37
711.765	276.33
712.17	269.31
712.575	311.44
712.98	849.76
713.385	316.12
713.789	318.46
714.194	302.08
714.599	309.1
715.003	330.16
715.408	362.93
715.812	245.9
716.217	290.37
716.621	264.63
717.025	299.73
717.429	316.12
717.833	337.18
718.238	325.48
718.642	271.65
719.046	353.57
719.449	316.12
719.853	288.03
720.257	311.44
720.661	306.76
721.065	339.52
721.468	316.12
721.872	278.67
722.275	351.23
722.679	278.67
723.082	355.91
723.485	311.44
723.889	316.12
724.292	309.1
724.695	306.76
725.098	344.21
725.501	234.2
725.904	231.86
726.307	311.44
726.71	306.76
727.113	330.16
727.516	367.61
727.918	302.08
728.321	341.86
728.724	283.35
729.126	281.01
729.529	341.86
729.931	299.73
730.333	383.99
730.736	285.69
731.138	330.16
731.54	351.23
731.942	320.8
732.344	292.71
732.746	266.97
733.148	323.14
733.55	337.18
733.952	276.33
734.354	276.33
734.756	313.78
735.157	337.18
735.559	292.71
735.96	299.73
736.362	276.33
736.763	346.55
737.165	358.25
737.566	266.97
737.967	250.58
738.368	276.33
738.77	353.57
739.171	257.61
739.572	257.61
739.973	325.48
740.374	327.82
740.774	283.35
741.175	351.23
741.576	323.14
741.977	273.99
742.377	316.12
742.778	295.05
743.178	341.86
743.579	346.55
743.979	252.92
744.379	292.71
744.78	318.46
745.18	346.55
745.58	297.39
745.98	288.03
746.38	341.86
746.78	302.08
747.18	311.44
747.58	316.12
747.98	325.48
748.38	351.23
748.779	323.14
749.179	318.46
749.578	302.08
749.978	269.31
750.377	281.01
750.777	295.05
751.176	306.76
751.575	332.5
751.975	292.71
752.374	330.16
752.773	337.18
753.172	264.63
753.571	313.78
753.97	257.61
754.369	271.65
754.768	273.99
755.166	309.1
755.565	355.91
755.964	337.18
756.362	334.84
756.761	252.92
757.159	358.25
757.558	316.12
757.956	292.71
758.354	302.08
758.753	269.31
759.151	304.42
759.549	283.35
759.947	332.5
760.345	346.55
760.743	255.26
761.141	365.27
761.539	309.1
761.936	257.61
762.334	358.25
762.732	271.65
763.129	288.03
763.527	292.71
763.924	337.18
764.322	295.05
764.719	288.03
765.117	311.44
765.514	351.23
765.911	297.39
766.308	379.31
766.705	316.12
767.102	285.69
767.499	304.42
767.896	339.52
768.293	304.42
768.69	316.12
769.086	318.46
769.483	313.78
769.88	299.73
770.276	332.5
770.673	376.97
771.069	362.93
771.466	313.78
771.862	334.84
772.258	295.05
772.654	351.23
773.05	334.84
773.447	252.92
773.843	288.03
774.239	341.86
774.634	332.5
775.03	302.08
775.426	231.86
775.822	288.03
776.218	388.68
776.613	355.91
777.009	323.14
777.404	250.58
777.8	278.67
778.195	257.61
778.59	339.52
778.986	337.18
779.381	227.18
779.776	264.63
780.171	276.33
780.566	318.46
780.961	334.84
781.356	210.79
781.751	285.69
782.146	327.82
782.54	306.76
782.935	316.12
783.33	337.18
783.724	262.29
784.119	325.48
784.513	306.76
784.908	330.16
785.302	302.08
785.696	353.57
786.09	288.03
786.485	320.8
786.879	341.86
787.273	290.37
787.667	302.08
788.061	358.25
788.454	257.61
788.848	299.73
789.242	316.12
789.636	337.18
790.029	323.14
790.423	262.29
790.816	283.35
791.21	344.21
791.603	297.39
791.997	304.42
792.39	339.52
792.783	304.42
793.176	302.08
793.569	250.58
793.962	299.73
794.355	285.69
794.748	337.18
795.141	276.33
795.534	278.67
795.927	330.16
796.319	323.14
796.712	292.71
797.105	355.91
797.497	306.76
797.89	290.37
798.282	318.46
798.674	281.01
799.067	255.26
799.459	259.95
799.851	362.93
800.243	283.35
800.635	302.08
801.027	318.46
801.419	306.76
801.811	311.44
802.203	309.1
802.594	327.82
802.986	292.71
803.378	302.08
803.769	271.65
804.161	278.67
804.552	306.76
804.944	266.97
805.335	318.46
805.726	259.95
806.118	297.39
806.509	353.57
806.9	313.78
807.291	273.99
807.682	297.39
808.073	320.8
808.464	292.71
808.855	295.05
809.245	327.82
809.636	339.52
810.027	234.2
810.417	323.14
810.808	276.33
811.198	283.35
811.589	276.33
811.979	306.76
812.369	285.69
812.759	262.29
813.15	309.1
813.54	281.01
813.93	264.63
814.32	304.42
814.71	362.93
815.1	255.26
815.489	288.03
815.879	281.01
816.269	276.33
816.658	348.89
817.048	295.05
817.438	259.95
817.827	288.03
818.216	295.05
818.606	337.18
818.995	252.92
819.384	302.08
819.773	222.5
820.163	285.69
820.552	325.48
820.941	311.44
821.33	224.84
821.718	339.52
822.107	309.1
822.496	269.31
822.885	290.37
823.273	358.25
823.662	257.61
824.05	288.03
824.439	311.44
824.827	292.71
825.216	346.55
825.604	327.82
825.992	269.31
826.38	281.01
826.768	304.42
827.156	227.18
827.544	367.61
827.932	245.9
828.32	292.71
828.708	309.1
829.096	318.46
829.483	365.27
829.871	290.37
830.259	290.37
830.646	278.67
831.034	348.89
831.421	353.57
831.808	259.95
832.196	278.67
832.583	255.26
832.97	313.78
833.357	376.97
833.744	339.52
834.131	306.76
834.518	346.55
834.905	323.14
835.292	299.73
835.678	271.65
836.065	269.31
836.452	320.8
836.838	332.5
837.225	250.58
837.611	334.84
837.998	316.12
838.384	304.42
838.77	304.42
839.157	236.54
839.543	278.67
839.929	320.8
840.315	276.33
840.701	299.73
841.087	299.73
841.473	306.76
841.858	374.63
842.244	323.14
842.63	316.12
843.015	278.67
843.401	320.8
843.787	292.71
844.172	313.78
844.557	316.12
844.943	334.84
845.328	290.37
845.713	248.24
846.098	252.92
846.483	325.48
846.868	325.48
847.253	306.76
847.638	281.01
848.023	288.03
848.408	320.8
848.793	339.52
849.177	311.44
849.562	306.76
849.947	297.39
850.331	295.05
850.715	365.27
851.1	323.14
851.484	311.44
851.868	255.26
852.253	318.46
852.637	334.84
853.021	215.48
853.405	327.82
853.789	281.01
854.173	259.95
854.557	273.99
854.94	311.44
855.324	353.57
855.708	330.16
856.091	245.9
856.475	285.69
856.858	327.82
857.242	306.76
857.625	365.27
858.009	271.65
858.392	299.73
858.775	292.71
859.158	330.16
859.541	334.84
859.924	245.9
860.307	306.76
860.69	309.1
861.073	299.73
861.456	269.31
861.838	313.78
862.221	339.52
862.604	311.44
862.986	269.31
863.369	316.12
863.751	285.69
864.133	295.05
864.516	276.33
864.898	334.84
865.28	231.86
865.662	299.73
866.044	252.92
866.426	332.5
866.808	348.89
867.19	325.48
867.572	325.48
867.954	376.97
868.336	266.97
868.717	281.01
869.099	339.52
869.48	278.67
869.862	323.14
870.243	383.99
870.625	297.39
871.006	252.92
871.387	325.48
871.768	281.01
872.149	283.35
872.53	316.12
872.911	297.39
873.292	334.84
873.673	297.39
874.054	309.1
874.435	264.63
874.815	306.76
875.196	297.39
875.577	255.26
875.957	297.39
876.338	266.97
876.718	297.39
877.098	255.26
877.479	304.42
877.859	288.03
878.239	290.37
878.619	325.48
878.999	313.78
879.379	355.91
879.759	283.35
880.139	339.52
880.519	269.31
880.898	295.05
881.278	339.52
881.658	346.55
882.037	313.78
882.417	292.71
882.796	309.1
883.176	313.78
883.555	264.63
883.934	369.95
884.313	313.78
884.693	306.76
885.072	281.01
885.451	355.91
885.83	332.5
886.209	304.42
886.587	362.93
886.966	297.39
887.345	306.76
887.724	304.42
888.102	281.01
888.481	292.71
888.859	283.35
889.238	292.71
889.616	285.69
889.994	330.16
890.373	304.42
890.751	304.42
891.129	369.95
891.507	332.5
891.885	360.59
892.263	281.01
892.641	323.14
893.019	318.46
893.396	252.92
893.774	271.65
894.152	316.12
894.529	318.46
894.907	273.99
895.284	306.76
895.662	316.12
896.039	344.21
896.416	245.9
896.794	337.18
897.171	348.89
897.548	297.39
897.925	264.63
898.302	276.33
898.679	330.16
899.056	313.78
899.433	348.89
899.809	248.24
900.186	295.05
900.563	271.65
900.939	323.14
901.316	309.1
901.692	295.05
902.069	281.01
902.445	273.99
902.821	276.33
903.197	344.21
903.574	276.33
903.95	339.52
904.326	337.18
904.702	337.18
905.078	273.99
905.454	365.27
905.829	290.37
906.205	297.39
906.581	302.08
906.956	299.73
907.332	348.89
907.707	320.8
908.083	264.63
908.458	341.86
908.833	278.67
909.209	341.86
909.584	290.37
909.959	271.65
910.334	318.46
910.709	306.76
911.084	276.33
911.459	311.44
911.834	245.9
912.209	302.08
912.583	302.08
912.958	290.37
913.333	257.61
913.707	304.42
914.082	323.14
914.456	327.82
914.83	334.84
915.205	276.33
915.579	402.72
915.953	285.69
916.327	316.12
916.701	320.8
917.075	281.01
917.449	292.71
917.823	318.46
918.197	320.8
918.571	271.65
918.944	292.71
919.318	327.82
919.692	372.29
920.065	243.56
920.438	292.71
920.812	248.24
921.185	241.22
921.558	330.16
921.932	292.71
922.305	271.65
922.678	318.46
923.051	241.22
923.424	266.97
923.797	285.69
924.17	297.39
924.542	297.39
924.915	372.29
925.288	299.73
925.661	299.73
926.033	288.03
926.406	334.84
926.778	353.57
927.15	306.76
927.523	353.57
927.895	255.26
928.267	269.31
928.639	278.67
929.011	297.39
929.383	180.37
929.755	341.86
930.127	348.89
930.499	264.63
930.871	259.95
931.242	346.55
931.614	337.18
931.986	383.99
932.357	229.52
932.729	297.39
933.1	306.76
933.471	264.63
933.843	348.89
934.214	323.14
934.585	348.89
934.956	264.63
935.327	323.14
935.698	341.86
936.069	271.65
936.44	285.69
936.811	295.05
937.182	281.01
937.552	215.48
937.923	353.57
938.293	299.73
938.664	266.97
939.034	334.84
939.405	306.76
939.775	288.03
940.145	320.8
940.516	290.37
940.886	283.35
941.256	320.8
941.626	273.99
941.996	337.18
942.366	362.93
942.735	257.61
943.105	351.23
943.475	285.69
943.845	273.99
944.214	250.58
944.584	323.14
944.953	313.78
945.323	285.69
945.692	281.01
946.061	344.21
946.43	304.42
946.8	355.91
947.169	266.97
947.538	311.44
947.907	278.67
948.276	271.65
948.645	330.16
949.013	309.1
949.382	257.61
949.751	334.84
950.119	278.67
950.488	187.39
950.857	320.8
951.225	299.73
951.593	269.31
951.962	320.8
952.33	222.5
952.698	295.05
953.066	273.99
953.434	316.12
953.802	337.18
954.17	316.12
954.538	295.05
954.906	313.78
955.274	353.57
955.642	348.89
956.009	367.61
956.377	327.82
956.744	313.78
957.112	273.99
957.479	271.65
957.847	337.18
958.214	302.08
958.581	346.55
958.948	262.29
959.315	302.08
959.683	255.26
960.05	266.97
960.416	320.8
960.783	288.03
961.15	257.61
961.517	304.42
961.884	327.82
962.25	309.1
962.617	259.95
962.983	262.29
963.35	295.05
963.716	348.89
964.082	339.52
964.449	273.99
964.815	264.63
965.181	360.59
965.547	369.95
965.913	271.65
966.279	369.95
966.645	285.69
967.011	285.69
967.377	313.78
967.742	334.84
968.108	271.65
968.474	285.69
968.839	243.56
969.205	304.42
969.57	320.8
969.935	302.08
970.301	327.82
970.666	381.65
971.031	257.61
971.396	318.46
971.761	224.84
972.126	334.84
972.491	199.09
972.856	323.14
973.221	255.26
973.586	273.99
973.95	259.95
974.315	285.69
974.679	266.97
975.044	281.01
975.408	285.69
975.773	278.67
976.137	243.56
976.501	276.33
976.866	273.99
977.23	262.29
977.594	283.35
977.958	334.84
978.322	309.1
978.686	281.01
979.049	292.71
979.413	313.78
979.777	292.71
980.141	316.12
980.504	278.67
980.868	234.2
981.231	327.82
981.595	295.05
981.958	316.12
982.321	264.63
982.684	311.44
983.048	264.63
983.411	360.59
983.774	306.76
984.137	285.69
984.5	229.52
984.862	309.1
985.225	295.05
985.588	386.33
985.951	290.37
986.313	313.78
986.676	269.31
987.038	365.27
987.401	337.18
987.763	353.57
988.125	290.37
988.488	325.48
988.85	259.95
989.212	311.44
989.574	334.84
989.936	311.44
990.298	316.12
990.66	311.44
991.022	281.01
991.383	273.99
991.745	262.29
992.107	330.16
992.468	323.14
992.83	273.99
993.191	341.86
993.553	302.08
993.914	276.33
994.275	304.42
994.637	309.1
994.998	285.69
995.359	327.82
995.72	295.05
996.081	304.42
996.442	264.63
996.803	313.78
997.163	278.67
997.524	313.78
997.885	327.82
998.245	290.37
998.606	337.18
998.966	316.12
999.327	309.1
999.687	278.67
1000.047	259.95
1000.408	236.54
1000.768	306.76
1001.128	273.99
1001.488	330.16
1001.848	283.35
1002.208	341.86
1002.568	288.03
1002.927	379.31
1003.287	309.1
1003.647	355.91
1004.007	295.05
1004.366	325.48
1004.726	304.42
1005.085	269.31
1005.444	283.35
1005.804	299.73
1006.163	283.35
1006.522	318.46
1006.881	292.71
1007.24	257.61
1007.599	245.9
1007.958	313.78
1008.317	250.58
1008.676	332.5
1009.035	346.55
1009.393	398.04
1009.752	290.37
1010.111	302.08
1010.469	271.65
1010.828	311.44
1011.186	243.56
1011.544	273.99
1011.903	285.69
1012.261	330.16
1012.619	271.65
1012.977	306.76
1013.335	281.01
1013.693	327.82
1014.051	318.46
1014.409	353.57
1014.767	316.12
1015.124	320.8
1015.482	325.48
1015.84	367.61
1016.197	372.29
1016.555	330.16
1016.912	271.65
1017.269	325.48
1017.627	309.1
1017.984	297.39
1018.341	318.46
1018.698	278.67
1019.055	278.67
1019.412	316.12
1019.769	273.99
1020.126	306.76
1020.483	269.31
1020.84	288.03
1021.196	231.86
1021.553	369.95
1021.909	330.16
1022.266	320.8
1022.622	292.71
1022.979	316.12
1023.335	341.86
1023.691	299.73
1024.047	290.37
1024.404	271.65
1024.76	325.48
1025.116	285.69
1025.472	344.21
1025.827	245.9
1026.183	292.71
1026.539	292.71
1026.895	304.42
1027.25	320.8
1027.606	271.65
1027.961	285.69
1028.317	360.59
1028.672	281.01
1029.028	332.5
1029.383	259.95
1029.738	346.55
1030.093	299.73
1030.448	245.9
1030.803	346.55
1031.158	320.8
1031.513	344.21
1031.868	330.16
1032.223	299.73
1032.577	320.8
1032.932	309.1
1033.287	255.26
1033.641	365.27
1033.996	273.99
1034.35	318.46
1034.704	330.16
1035.059	304.42
1035.413	316.12
1035.767	316.12
1036.121	316.12
