Data from Al_FLMS009871__964__16-20-57-519.txt Node

Date: Fri Mar 08 16:20:57 CST 2024
User: pe5414po
Spectrometer: FLMS00987
Trigger mode: 0
Integration Time (sec): 1.000000E-1
Scans to average: 1
Electric dark correction enabled: true
Nonlinearity correction enabled: false
Boxcar width: 0
XAxis mode: Wavelengths
Number of Pixels in Spectrum: 2048
>>>>>Begin Spectral Data<<<<<
188.938	-89.38
189.409	-89.38
189.879	-89.38
190.349	-105.76
190.819	-58.95
191.29	-164.28
191.76	-105.76
192.23	-42.57
192.7	4.24
193.17	-37.89
193.64	-75.34
194.109	-37.89
194.579	-0.44
195.049	-33.21
195.519	-30.87
195.988	34.67
196.458	95.52
196.927	1.9
197.397	102.54
197.866	163.4
198.336	125.95
198.805	151.7
199.274	184.46
199.744	123.61
200.213	228.93
200.682	289.79
201.151	306.17
201.62	336.6
202.089	292.13
202.558	392.77
203.027	357.66
203.495	341.28
203.964	371.71
204.433	371.71
204.902	395.11
205.37	418.52
205.839	406.81
206.307	341.28
206.776	434.9
207.244	381.07
207.712	528.52
208.181	388.09
208.649	500.44
209.117	533.2
209.585	505.12
210.053	472.35
210.521	594.06
210.989	556.61
211.457	661.93
211.925	708.74
212.393	814.07
212.861	818.75
213.328	692.36
213.796	640.87
214.264	603.42
214.731	484.05
215.199	500.44
215.666	516.82
216.133	636.19
216.601	678.32
217.068	823.43
217.535	898.33
218.003	1013.01
218.47	1144.08
218.937	1113.66
219.404	961.52
219.871	905.35
220.338	984.93
220.805	970.88
221.271	783.64
221.738	701.72
222.205	757.89
222.671	718.11
223.138	888.96
223.605	1062.16
224.071	924.07
224.538	816.41
225.004	734.49
225.47	853.86
225.937	1015.35
226.403	1043.44
226.869	863.22
227.335	598.74
227.801	572.99
228.267	519.16
228.733	551.93
229.199	535.54
229.665	530.86
230.131	512.14
230.597	580.01
231.062	572.99
231.528	563.63
231.994	495.75
232.459	519.16
232.925	413.84
233.39	498.1
233.856	493.41
234.321	516.82
234.786	645.55
235.252	938.12
235.717	1467.08
236.182	2017.1
236.647	2183.28
237.112	1612.19
237.577	1111.32
238.042	678.32
238.507	603.42
238.972	507.46
239.436	582.35
239.901	598.74
240.366	528.52
240.83	448.94
241.295	540.22
241.76	446.6
242.224	413.84
242.688	491.07
243.153	526.18
243.617	533.2
244.081	467.67
244.545	432.56
245.01	430.22
245.474	455.97
245.938	540.22
246.402	615.12
246.866	619.8
247.33	690.02
247.793	683
248.257	537.88
248.721	481.71
249.185	493.41
249.648	500.44
250.112	596.4
250.575	547.25
251.039	561.29
251.502	603.42
251.965	533.2
252.429	533.2
252.892	523.84
253.355	521.5
253.818	495.75
254.281	530.86
254.744	638.53
255.207	713.42
255.67	949.82
256.133	1289.2
256.596	1698.79
257.059	1832.2
257.522	1584.1
257.984	1127.7
258.447	921.73
258.909	935.78
259.372	940.46
259.834	956.84
260.297	757.89
260.759	739.17
261.221	802.36
261.684	926.41
262.146	1523.25
262.608	1808.8
263.07	1541.97
263.532	1211.96
263.994	891.31
264.456	996.63
264.918	886.62
265.38	1010.67
265.842	926.41
266.303	783.64
266.765	565.97
267.227	495.75
267.688	446.6
268.15	507.46
268.611	514.48
269.072	495.75
269.534	498.1
269.995	547.25
270.456	582.35
270.918	624.48
271.379	530.86
271.84	535.54
272.301	509.8
272.762	512.14
273.223	537.88
273.684	486.39
274.144	591.72
274.605	654.91
275.066	729.81
275.527	683
275.987	699.38
276.448	675.98
276.908	746.19
277.369	928.75
277.829	1340.69
278.289	2747.35
278.75	4888.94
279.21	6688.81
279.67	6705.2
280.13	4987.24
280.59	3398.02
281.05	2740.33
281.51	2274.56
281.97	1593.47
282.43	888.96
282.89	629.17
283.35	594.06
283.809	615.12
284.269	671.29
284.729	895.99
285.188	881.94
285.648	692.36
286.107	584.7
286.567	533.2
287.026	537.88
287.485	605.76
287.944	591.72
288.404	626.82
288.863	638.53
289.322	668.95
289.781	650.23
290.24	624.48
290.699	549.59
291.158	624.48
291.616	640.87
292.075	692.36
292.534	828.11
292.992	907.69
293.451	959.18
293.91	865.56
294.368	821.09
294.827	664.27
295.285	577.67
295.743	472.35
296.202	458.31
296.66	495.75
297.118	465.33
297.576	477.03
298.034	523.84
298.492	418.52
298.95	455.97
299.408	434.9
299.866	362.34
300.324	437.24
300.781	486.39
301.239	467.67
301.697	523.84
302.154	462.99
302.612	523.84
303.069	530.86
303.527	530.86
303.984	591.72
304.441	594.06
304.899	690.02
305.356	785.98
305.813	804.71
306.27	760.24
306.727	968.54
307.184	1731.56
307.641	2726.29
308.098	3943.36
308.555	4935.75
309.012	5115.97
309.468	4425.51
309.925	2276.9
310.382	881.94
310.838	568.31
311.295	509.8
311.751	547.25
312.208	484.05
312.664	498.1
313.12	528.52
313.577	420.86
314.033	467.67
314.489	505.12
314.945	554.27
315.401	551.93
315.857	521.5
316.313	484.05
316.769	437.24
317.225	395.11
317.681	460.65
318.136	462.99
318.592	402.13
319.048	491.07
319.503	484.05
319.959	460.65
320.414	425.54
320.869	413.84
321.325	425.54
321.78	388.09
322.235	451.28
322.691	416.18
323.146	432.56
323.601	500.44
324.056	617.46
324.511	811.73
324.966	879.6
325.421	760.24
325.875	565.97
326.33	530.86
326.785	631.51
327.24	830.45
327.694	821.09
328.149	673.64
328.603	561.29
329.058	537.88
329.512	439.58
329.966	430.22
330.421	479.37
330.875	465.33
331.329	444.26
331.783	413.84
332.237	460.65
332.691	451.28
333.145	491.07
333.599	575.33
334.053	521.5
334.507	587.04
334.96	540.22
335.414	505.12
335.868	636.19
336.321	631.51
336.775	622.14
337.228	664.27
337.682	563.63
338.135	558.95
338.588	528.52
339.042	439.58
339.495	395.11
339.948	413.84
340.401	406.81
340.854	397.45
341.307	484.05
341.76	432.56
342.213	418.52
342.666	472.35
343.119	462.99
343.571	462.99
344.024	502.78
344.477	411.5
344.929	448.94
345.382	472.35
345.834	434.9
346.287	486.39
346.739	474.69
347.191	432.56
347.644	491.07
348.096	430.22
348.548	446.6
349	430.22
349.452	446.6
349.904	425.54
350.356	437.24
350.808	472.35
351.26	521.5
351.711	444.26
352.163	542.57
352.615	514.48
353.066	556.61
353.518	514.48
353.969	514.48
354.421	484.05
354.872	512.14
355.324	514.48
355.775	568.31
356.226	591.72
356.677	729.81
357.128	968.54
357.579	1345.37
358.03	2335.42
358.481	3863.79
358.932	4350.62
359.383	3252.91
359.834	2583.51
360.285	2728.63
360.735	2424.36
361.186	1956.25
361.637	1506.87
362.087	914.71
362.538	612.78
362.988	507.46
363.438	544.91
363.889	544.91
364.339	495.75
364.789	500.44
365.239	554.27
365.689	563.63
366.139	540.22
366.589	498.1
367.039	402.13
367.489	493.41
367.939	465.33
368.389	514.48
368.839	526.18
369.288	582.35
369.738	594.06
370.187	757.89
370.637	774.28
371.086	853.86
371.536	895.99
371.985	781.3
372.434	596.4
372.884	505.12
373.333	549.59
373.782	537.88
374.231	533.2
374.68	500.44
375.129	582.35
375.578	458.31
376.027	514.48
376.475	479.37
376.924	430.22
377.373	460.65
377.822	465.33
378.27	479.37
378.719	465.33
379.167	484.05
379.616	455.97
380.064	495.75
380.512	540.22
380.961	565.97
381.409	462.99
381.857	486.39
382.305	652.57
382.753	659.59
383.201	767.26
383.649	757.89
384.097	797.68
384.545	636.19
384.992	631.51
385.44	591.72
385.888	558.95
386.335	675.98
386.783	629.17
387.231	561.29
387.678	587.04
388.125	580.01
388.573	549.59
389.02	516.82
389.467	493.41
389.914	481.71
390.362	526.18
390.809	542.57
391.256	568.31
391.703	575.33
392.15	505.12
392.596	582.35
393.043	741.51
393.49	1146.42
393.937	2204.35
394.383	3568.88
394.83	4350.62
395.276	3475.26
395.723	3337.17
396.169	4984.9
396.616	5338.32
397.062	3271.63
397.508	1354.73
397.954	720.45
398.401	584.7
398.847	540.22
399.293	697.04
399.739	551.93
400.185	544.91
400.631	509.8
401.076	505.12
401.522	528.52
401.968	498.1
402.414	521.5
402.859	500.44
403.305	577.67
403.75	706.4
404.196	713.42
404.641	570.65
405.086	612.78
405.532	697.04
405.977	729.81
406.422	741.51
406.867	629.17
407.312	608.1
407.757	645.55
408.202	582.35
408.647	563.63
409.092	465.33
409.537	512.14
409.982	521.5
410.426	554.27
410.871	591.72
411.316	519.16
411.76	565.97
412.205	547.25
412.649	601.08
413.093	587.04
413.538	617.46
413.982	687.68
414.426	762.58
414.87	732.15
415.314	874.92
415.758	919.39
416.202	856.2
416.646	753.21
417.09	685.34
417.534	776.62
417.978	750.87
418.421	636.19
418.865	584.7
419.309	502.78
419.752	521.5
420.196	540.22
420.639	521.5
421.083	467.67
421.526	481.71
421.969	519.16
422.412	509.8
422.856	514.48
423.299	530.86
423.742	565.97
424.185	570.65
424.628	430.22
425.071	488.73
425.513	472.35
425.956	472.35
426.399	479.37
426.842	470.01
427.284	446.6
427.727	462.99
428.169	486.39
428.612	446.6
429.054	437.24
429.497	444.26
429.939	448.94
430.381	395.11
430.823	434.9
431.265	448.94
431.707	458.31
432.149	409.15
432.591	427.88
433.033	430.22
433.475	460.65
433.917	479.37
434.359	472.35
434.8	491.07
435.242	455.97
435.684	474.69
436.125	432.56
436.567	444.26
437.008	458.31
437.449	462.99
437.891	448.94
438.332	498.1
438.773	439.58
439.214	437.24
439.656	462.99
440.097	427.88
440.538	498.1
440.978	470.01
441.419	505.12
441.86	467.67
442.301	481.71
442.742	563.63
443.182	530.86
443.623	558.95
444.063	596.4
444.504	603.42
444.944	643.21
445.385	683
445.825	584.7
446.265	692.36
446.706	912.37
447.146	1080.89
447.586	1204.94
448.026	1431.97
448.466	1673.04
448.906	1427.29
449.346	996.63
449.786	987.27
450.225	895.99
450.665	884.28
451.105	1062.16
451.544	1375.8
451.984	1427.29
452.424	1441.33
452.863	1530.27
453.302	1993.7
453.742	1935.18
454.181	1375.8
454.62	928.75
455.059	659.59
455.499	554.27
455.938	622.14
456.377	465.33
456.816	451.28
457.254	425.54
457.693	484.05
458.132	402.13
458.571	467.67
459.01	437.24
459.448	467.67
459.887	533.2
460.325	544.91
460.764	460.65
461.202	575.33
461.641	479.37
462.079	493.41
462.517	568.31
462.955	558.95
463.393	519.16
463.832	596.4
464.27	533.2
464.708	636.19
465.145	626.82
465.583	612.78
466.021	589.38
466.459	741.51
466.897	1031.74
467.334	928.75
467.772	570.65
468.209	549.59
468.647	479.37
469.084	516.82
469.522	498.1
469.959	427.88
470.396	467.67
470.833	512.14
471.271	535.54
471.708	474.69
472.145	505.12
472.582	521.5
473.019	467.67
473.456	470.01
473.892	434.9
474.329	427.88
474.766	406.81
475.202	371.71
475.639	470.01
476.076	448.94
476.512	453.63
476.949	411.5
477.385	430.22
477.821	455.97
478.258	488.73
478.694	439.58
479.13	502.78
479.566	530.86
480.002	523.84
480.438	427.88
480.874	521.5
481.31	491.07
481.746	462.99
482.181	484.05
482.617	537.88
483.053	448.94
483.488	523.84
483.924	444.26
484.36	528.52
484.795	505.12
485.23	615.12
485.666	558.95
486.101	608.1
486.536	636.19
486.971	722.79
487.407	580.01
487.842	561.29
488.277	479.37
488.712	516.82
489.146	549.59
489.581	516.82
490.016	470.01
490.451	479.37
490.885	474.69
491.32	514.48
491.755	526.18
492.189	526.18
492.624	493.41
493.058	472.35
493.492	479.37
493.927	512.14
494.361	526.18
494.795	439.58
495.229	439.58
495.663	544.91
496.097	519.16
496.531	484.05
496.965	451.28
497.399	516.82
497.833	507.46
498.266	477.03
498.7	453.63
499.134	516.82
499.567	535.54
500.001	652.57
500.434	802.36
500.868	963.86
501.301	844.49
501.734	736.83
502.168	650.23
502.601	509.8
503.034	507.46
503.467	526.18
503.9	444.26
504.333	467.67
504.766	509.8
505.199	516.82
505.632	549.59
506.064	453.63
506.497	526.18
506.93	509.8
507.362	493.41
507.795	495.75
508.227	500.44
508.66	470.01
509.092	589.38
509.524	523.84
509.956	512.14
510.389	514.48
510.821	465.33
511.253	526.18
511.685	446.6
512.117	537.88
512.549	493.41
512.981	556.61
513.412	544.91
513.844	514.48
514.276	537.88
514.707	556.61
515.139	509.8
515.571	591.72
516.002	535.54
516.433	617.46
516.865	626.82
517.296	608.1
517.727	694.7
518.159	680.66
518.59	722.79
519.021	746.19
519.452	661.93
519.883	535.54
520.314	519.16
520.744	540.22
521.175	594.06
521.606	626.82
522.037	512.14
522.467	589.38
522.898	565.97
523.328	528.52
523.759	554.27
524.189	556.61
524.62	484.05
525.05	481.71
525.48	594.06
525.91	577.67
526.341	664.27
526.771	580.01
527.201	636.19
527.631	697.04
528.061	711.08
528.49	839.81
528.92	966.2
529.35	1172.17
529.78	2733.31
530.209	12715.69
530.639	30824.42
531.068	47154.33
531.498	63032.53
531.927	63032.53
532.357	63032.53
532.786	63032.53
533.215	63032.53
533.644	33059.63
534.074	11833.31
534.503	4816.38
534.932	2333.08
535.361	1331.33
535.79	1092.59
536.218	867.9
536.647	762.58
537.076	652.57
537.505	601.08
537.933	584.7
538.362	481.71
538.79	505.12
539.219	556.61
539.647	451.28
540.076	528.52
540.504	462.99
540.932	441.92
541.36	430.22
541.788	413.84
542.217	495.75
542.645	453.63
543.073	446.6
543.5	395.11
543.928	502.78
544.356	395.11
544.784	364.68
545.211	430.22
545.639	381.07
546.067	453.63
546.494	432.56
546.922	455.97
547.349	460.65
547.776	486.39
548.204	439.58
548.631	423.2
549.058	416.18
549.485	446.6
549.912	404.47
550.339	413.84
550.766	437.24
551.193	444.26
551.62	467.67
552.047	437.24
552.474	418.52
552.9	411.5
553.327	430.22
553.754	446.6
554.18	458.31
554.607	444.26
555.033	484.05
555.459	437.24
555.886	383.41
556.312	441.92
556.738	453.63
557.164	486.39
557.59	369.37
558.016	441.92
558.442	465.33
558.868	547.25
559.294	498.1
559.72	622.14
560.145	694.7
560.571	668.95
560.997	561.29
561.422	498.1
561.848	514.48
562.273	413.84
562.699	406.81
563.124	470.01
563.549	441.92
563.974	399.79
564.4	404.47
564.825	416.18
565.25	371.71
565.675	446.6
566.1	467.67
566.525	479.37
566.95	500.44
567.374	528.52
567.799	612.78
568.224	619.8
568.648	675.98
569.073	692.36
569.497	912.37
569.922	1211.96
570.346	1579.42
570.771	1378.14
571.195	952.16
571.619	720.45
572.043	631.51
572.467	720.45
572.891	1041.1
573.315	898.33
573.739	619.8
574.163	434.9
574.587	460.65
575.011	446.6
575.435	437.24
575.858	418.52
576.282	430.22
576.705	399.79
577.129	378.73
577.552	453.63
577.976	453.63
578.399	427.88
578.822	388.09
579.245	416.18
579.669	369.37
580.092	425.54
580.515	355.32
580.938	388.09
581.361	369.37
581.784	341.28
582.206	383.41
582.629	409.15
583.052	345.96
583.474	378.73
583.897	374.05
584.32	381.07
584.742	355.32
585.165	352.98
585.587	350.64
586.009	395.11
586.431	430.22
586.854	446.6
587.276	327.24
587.698	439.58
588.12	395.11
588.542	367.03
588.964	411.5
589.386	441.92
589.807	418.52
590.229	423.2
590.651	385.75
591.073	409.15
591.494	352.98
591.916	374.05
592.337	427.88
592.759	418.52
593.18	425.54
593.601	462.99
594.022	399.79
594.444	341.28
594.865	467.67
595.286	374.05
595.707	453.63
596.128	420.86
596.549	383.41
596.97	348.3
597.39	427.88
597.811	392.77
598.232	385.75
598.652	441.92
599.073	315.53
599.494	402.13
599.914	432.56
600.334	385.75
600.755	418.52
601.175	411.5
601.595	404.47
602.015	432.56
602.436	409.15
602.856	495.75
603.276	301.49
603.696	357.66
604.115	381.07
604.535	406.81
604.955	367.03
605.375	338.94
605.794	404.47
606.214	378.73
606.634	341.28
607.053	348.3
607.473	385.75
607.892	371.71
608.311	388.09
608.731	345.96
609.15	348.3
609.569	446.6
609.988	416.18
610.407	345.96
610.826	338.94
611.245	437.24
611.664	406.81
612.083	392.77
612.501	320.21
612.92	390.43
613.339	341.28
613.757	406.81
614.176	423.2
614.594	296.81
615.013	388.09
615.431	313.19
615.85	360
616.268	348.3
616.686	425.54
617.104	467.67
617.522	425.54
617.94	402.13
618.358	465.33
618.776	448.94
619.194	418.52
619.612	392.77
620.03	437.24
620.447	402.13
620.865	437.24
621.282	430.22
621.7	437.24
622.117	505.12
622.535	493.41
622.952	537.88
623.369	624.48
623.787	776.62
624.204	881.94
624.621	846.84
625.038	945.14
625.455	903.01
625.872	713.42
626.289	549.59
626.706	556.61
627.123	465.33
627.539	360
627.956	418.52
628.373	388.09
628.789	425.54
629.206	406.81
629.622	388.09
630.038	397.45
630.455	341.28
630.871	331.92
631.287	416.18
631.703	369.37
632.12	374.05
632.536	369.37
632.952	350.64
633.368	341.28
633.783	308.51
634.199	441.92
634.615	378.73
635.031	341.28
635.446	397.45
635.862	301.49
636.277	362.34
636.693	374.05
637.108	345.96
637.524	345.96
637.939	320.21
638.354	308.51
638.77	367.03
639.185	413.84
639.6	338.94
640.015	367.03
640.43	395.11
640.845	329.58
641.259	362.34
641.674	357.66
642.089	376.39
642.504	334.26
642.918	324.9
643.333	322.56
643.747	367.03
644.162	334.26
644.576	378.73
644.991	341.28
645.405	411.5
645.819	399.79
646.233	383.41
646.647	378.73
647.061	336.6
647.475	395.11
647.889	355.32
648.303	348.3
648.717	336.6
649.131	404.47
649.545	338.94
649.958	348.3
650.372	362.34
650.785	367.03
651.199	376.39
651.612	376.39
652.026	334.26
652.439	378.73
652.852	381.07
653.266	292.13
653.679	395.11
654.092	425.54
654.505	453.63
654.918	533.2
655.331	549.59
655.744	558.95
656.156	594.06
656.569	851.52
656.982	895.99
657.394	795.34
657.807	598.74
658.22	580.01
658.632	507.46
659.044	392.77
659.457	399.79
659.869	385.75
660.281	404.47
660.693	399.79
661.106	362.34
661.518	350.64
661.93	362.34
662.342	362.34
662.754	397.45
663.165	345.96
663.577	350.64
663.989	420.86
664.401	280.43
664.812	345.96
665.224	324.9
665.635	350.64
666.047	367.03
666.458	343.62
666.869	367.03
667.281	350.64
667.692	430.22
668.103	413.84
668.514	350.64
668.925	376.39
669.336	364.68
669.747	329.58
670.158	352.98
670.569	350.64
670.979	273.4
671.39	348.3
671.801	385.75
672.211	397.45
672.622	345.96
673.032	390.43
673.443	413.84
673.853	371.71
674.263	294.47
674.674	324.9
675.084	345.96
675.494	376.39
675.904	331.92
676.314	294.47
676.724	313.19
677.134	320.21
677.544	367.03
677.953	355.32
678.363	327.24
678.773	378.73
679.182	381.07
679.592	334.26
680.001	292.13
680.411	371.71
680.82	341.28
681.23	360
681.639	392.77
682.048	381.07
682.457	378.73
682.866	331.92
683.275	392.77
683.684	352.98
684.093	416.18
684.502	397.45
684.911	420.86
685.32	371.71
685.728	360
686.137	322.56
686.546	369.37
686.954	371.71
687.363	345.96
687.771	360
688.179	341.28
688.588	275.74
688.996	360
689.404	310.85
689.812	299.15
690.22	360
690.628	388.09
691.036	336.6
691.444	310.85
691.852	334.26
692.26	350.64
692.667	317.87
693.075	320.21
693.483	390.43
693.89	341.28
694.298	355.32
694.705	329.58
695.112	306.17
695.52	317.87
695.927	364.68
696.334	371.71
696.741	376.39
697.148	317.87
697.555	268.72
697.962	441.92
698.369	285.11
698.776	334.26
699.183	357.66
699.59	341.28
699.996	395.11
700.403	406.81
700.81	317.87
701.216	399.79
701.623	364.68
702.029	306.17
702.435	308.51
702.842	381.07
703.248	374.05
703.654	427.88
704.06	458.31
704.466	582.35
704.872	570.65
705.278	554.27
705.684	448.94
706.09	516.82
706.496	498.1
706.901	432.56
707.307	446.6
707.712	301.49
708.118	292.13
708.523	329.58
708.929	315.53
709.334	313.19
709.74	306.17
710.145	371.71
710.55	287.45
710.955	313.19
711.36	257.02
711.765	322.56
712.17	360
712.575	322.56
712.98	828.11
713.385	355.32
713.789	331.92
714.194	317.87
714.599	280.43
715.003	317.87
715.408	385.75
715.812	336.6
716.217	352.98
716.621	367.03
717.025	367.03
717.429	315.53
717.833	334.26
718.238	313.19
718.642	287.45
719.046	292.13
719.449	289.79
719.853	336.6
720.257	289.79
720.661	308.51
721.065	273.4
721.468	320.21
721.872	357.66
722.275	371.71
722.679	348.3
723.082	296.81
723.485	367.03
723.889	362.34
724.292	327.24
724.695	310.85
725.098	360
725.501	376.39
725.904	317.87
726.307	357.66
726.71	324.9
727.113	331.92
727.516	348.3
727.918	306.17
728.321	250
728.724	350.64
729.126	289.79
729.529	310.85
729.931	308.51
730.333	392.77
730.736	299.15
731.138	315.53
731.54	310.85
731.942	343.62
732.344	296.81
732.746	306.17
733.148	350.64
733.55	348.3
733.952	327.24
734.354	280.43
734.756	383.41
735.157	266.38
735.559	334.26
735.96	334.26
736.362	357.66
736.763	348.3
737.165	402.13
737.566	313.19
737.967	294.47
738.368	352.98
738.77	343.62
739.171	329.58
739.572	336.6
739.973	378.73
740.374	299.15
740.774	341.28
741.175	338.94
741.576	306.17
741.977	392.77
742.377	324.9
742.778	378.73
743.178	343.62
743.579	336.6
743.979	287.45
744.379	303.83
744.78	360
745.18	397.45
745.58	371.71
745.98	285.11
746.38	360
746.78	397.45
747.18	378.73
747.58	383.41
747.98	425.54
748.38	322.56
748.779	308.51
749.179	317.87
749.578	287.45
749.978	313.19
750.377	341.28
750.777	352.98
751.176	287.45
751.575	336.6
751.975	350.64
752.374	397.45
752.773	327.24
753.172	374.05
753.571	334.26
753.97	336.6
754.369	261.7
754.768	348.3
755.166	310.85
755.565	271.06
755.964	329.58
756.362	343.62
756.761	329.58
757.159	367.03
757.558	357.66
757.956	343.62
758.354	383.41
758.753	399.79
759.151	324.9
759.549	320.21
759.947	308.51
760.345	278.08
760.743	402.13
761.141	345.96
761.539	348.3
761.936	390.43
762.334	336.6
762.732	348.3
763.129	395.11
763.527	306.17
763.924	317.87
764.322	348.3
764.719	348.3
765.117	278.08
765.514	308.51
765.911	367.03
766.308	278.08
766.705	343.62
767.102	299.15
767.499	399.79
767.896	357.66
768.293	289.79
768.69	341.28
769.086	367.03
769.483	336.6
769.88	310.85
770.276	306.17
770.673	378.73
771.069	367.03
771.466	282.77
771.862	306.17
772.258	341.28
772.654	317.87
773.05	301.49
773.447	306.17
773.843	360
774.239	308.51
774.634	357.66
775.03	254.68
775.426	397.45
775.822	392.77
776.218	357.66
776.613	362.34
777.009	367.03
777.404	420.86
777.8	385.75
778.195	310.85
778.59	388.09
778.986	324.9
779.381	315.53
779.776	348.3
780.171	371.71
780.566	345.96
780.961	303.83
781.356	308.51
781.751	315.53
782.146	317.87
782.54	287.45
782.935	327.24
783.33	268.72
783.724	294.47
784.119	315.53
784.513	364.68
784.908	348.3
785.302	261.7
785.696	308.51
786.09	308.51
786.485	324.9
786.879	329.58
787.273	362.34
787.667	296.81
788.061	343.62
788.454	303.83
788.848	292.13
789.242	266.38
789.636	388.09
790.029	331.92
790.423	266.38
790.816	362.34
791.21	294.47
791.603	266.38
791.997	341.28
792.39	327.24
792.783	303.83
793.176	350.64
793.569	322.56
793.962	331.92
794.355	320.21
794.748	289.79
795.141	360
795.534	317.87
795.927	331.92
796.319	310.85
796.712	315.53
797.105	364.68
797.497	343.62
797.89	327.24
798.282	310.85
798.674	331.92
799.067	404.47
799.459	299.15
799.851	273.4
800.243	367.03
800.635	355.32
801.027	324.9
801.419	348.3
801.811	301.49
802.203	268.72
802.594	310.85
802.986	313.19
803.378	343.62
803.769	310.85
804.161	299.15
804.552	343.62
804.944	285.11
805.335	331.92
805.726	287.45
806.118	287.45
806.509	285.11
806.9	383.41
807.291	327.24
807.682	327.24
808.073	271.06
808.464	369.37
808.855	245.32
809.245	292.13
809.636	324.9
810.027	329.58
810.417	299.15
810.808	301.49
811.198	264.04
811.589	238.3
811.979	301.49
812.369	301.49
812.759	324.9
813.15	404.47
813.54	275.74
813.93	296.81
814.32	338.94
814.71	299.15
815.1	348.3
815.489	369.37
815.879	303.83
816.269	352.98
816.658	292.13
817.048	306.17
817.438	420.86
817.827	336.6
818.216	327.24
818.606	292.13
818.995	336.6
819.384	315.53
819.773	329.58
820.163	334.26
820.552	385.75
820.941	329.58
821.33	336.6
821.718	357.66
822.107	294.47
822.496	282.77
822.885	292.13
823.273	371.71
823.662	315.53
824.05	369.37
824.439	306.17
824.827	343.62
825.216	303.83
825.604	327.24
825.992	350.64
826.38	364.68
826.768	369.37
827.156	308.51
827.544	338.94
827.932	313.19
828.32	348.3
828.708	322.56
829.096	324.9
829.483	338.94
829.871	313.19
830.259	310.85
830.646	285.11
831.034	308.51
831.421	385.75
831.808	280.43
832.196	296.81
832.583	350.64
832.97	282.77
833.357	338.94
833.744	395.11
834.131	331.92
834.518	299.15
834.905	278.08
835.292	324.9
835.678	278.08
836.065	345.96
836.452	367.03
836.838	355.32
837.225	294.47
837.611	308.51
837.998	235.96
838.384	301.49
838.77	352.98
839.157	238.3
839.543	306.17
839.929	329.58
840.315	287.45
840.701	378.73
841.087	331.92
841.473	317.87
841.858	306.17
842.244	331.92
842.63	341.28
843.015	299.15
843.401	390.43
843.787	336.6
844.172	285.11
844.557	303.83
844.943	278.08
845.328	303.83
845.713	352.98
846.098	308.51
846.483	327.24
846.868	360
847.253	313.19
847.638	285.11
848.023	306.17
848.408	352.98
848.793	299.15
849.177	374.05
849.562	303.83
849.947	425.54
850.331	355.32
850.715	310.85
851.1	250
851.484	313.19
851.868	383.41
852.253	296.81
852.637	343.62
853.021	308.51
853.405	294.47
853.789	357.66
854.173	327.24
854.557	294.47
854.94	259.36
855.324	327.24
855.708	343.62
856.091	315.53
856.475	355.32
856.858	317.87
857.242	362.34
857.625	313.19
858.009	299.15
858.392	371.71
858.775	329.58
859.158	322.56
859.541	252.34
859.924	352.98
860.307	336.6
860.69	310.85
861.073	280.43
861.456	320.21
861.838	402.13
862.221	334.26
862.604	301.49
862.986	310.85
863.369	352.98
863.751	367.03
864.133	289.79
864.516	348.3
864.898	357.66
865.28	322.56
865.662	245.32
866.044	343.62
866.426	329.58
866.808	282.77
867.19	350.64
867.572	371.71
867.954	303.83
868.336	324.9
868.717	399.79
869.099	430.22
869.48	285.11
869.862	383.41
870.243	317.87
870.625	257.02
871.006	357.66
871.387	336.6
871.768	329.58
872.149	338.94
872.53	299.15
872.911	287.45
873.292	310.85
873.673	381.07
874.054	310.85
874.435	278.08
874.815	294.47
875.196	338.94
875.577	271.06
875.957	306.17
876.338	313.19
876.718	299.15
877.098	338.94
877.479	268.72
877.859	374.05
878.239	360
878.619	282.77
878.999	301.49
879.379	355.32
879.759	273.4
880.139	341.28
880.519	357.66
880.898	357.66
881.278	334.26
881.658	273.4
882.037	360
882.417	334.26
882.796	296.81
883.176	261.7
883.555	320.21
883.934	285.11
884.313	280.43
884.693	322.56
885.072	301.49
885.451	306.17
885.83	308.51
886.209	357.66
886.587	303.83
886.966	324.9
887.345	317.87
887.724	409.15
888.102	367.03
888.481	388.09
888.859	355.32
889.238	357.66
889.616	317.87
889.994	385.75
890.373	350.64
890.751	329.58
891.129	362.34
891.507	371.71
891.885	268.72
892.263	317.87
892.641	329.58
893.019	257.02
893.396	341.28
893.774	378.73
894.152	334.26
894.529	254.68
894.907	317.87
895.284	350.64
895.662	289.79
896.039	280.43
896.416	324.9
896.794	278.08
897.171	313.19
897.548	292.13
897.925	334.26
898.302	299.15
898.679	369.37
899.056	355.32
899.433	306.17
899.809	308.51
900.186	334.26
900.563	350.64
900.939	362.34
901.316	336.6
901.692	306.17
902.069	322.56
902.445	345.96
902.821	266.38
903.197	278.08
903.574	402.13
903.95	383.41
904.326	338.94
904.702	374.05
905.078	285.11
905.454	268.72
905.829	324.9
906.205	310.85
906.581	315.53
906.956	350.64
907.332	406.81
907.707	257.02
908.083	278.08
908.458	322.56
908.833	299.15
909.209	360
909.584	378.73
909.959	299.15
910.334	299.15
910.709	320.21
911.084	299.15
911.459	308.51
911.834	329.58
912.209	315.53
912.583	287.45
912.958	264.04
913.333	296.81
913.707	268.72
914.082	360
914.456	303.83
914.83	320.21
915.205	252.34
915.579	294.47
915.953	233.61
916.327	242.98
916.701	348.3
917.075	287.45
917.449	308.51
917.823	301.49
918.197	338.94
918.571	315.53
918.944	331.92
919.318	301.49
919.692	301.49
920.065	329.58
920.438	322.56
920.812	331.92
921.185	357.66
921.558	320.21
921.932	320.21
922.305	228.93
922.678	280.43
923.051	390.43
923.424	296.81
923.797	329.58
924.17	345.96
924.542	329.58
924.915	247.66
925.288	313.19
925.661	273.4
926.033	310.85
926.406	334.26
926.778	313.19
927.15	369.37
927.523	348.3
927.895	352.98
928.267	331.92
928.639	285.11
929.011	275.74
929.383	301.49
929.755	341.28
930.127	360
930.499	313.19
930.871	317.87
931.242	324.9
931.614	345.96
931.986	364.68
932.357	322.56
932.729	324.9
933.1	285.11
933.471	390.43
933.843	320.21
934.214	303.83
934.585	327.24
934.956	266.38
935.327	247.66
935.698	259.36
936.069	345.96
936.44	329.58
936.811	322.56
937.182	327.24
937.552	331.92
937.923	282.77
938.293	320.21
938.664	303.83
939.034	278.08
939.405	374.05
939.775	250
940.145	329.58
940.516	252.34
940.886	378.73
941.256	306.17
941.626	308.51
941.996	296.81
942.366	329.58
942.735	294.47
943.105	331.92
943.475	348.3
943.845	350.64
944.214	278.08
944.584	322.56
944.953	355.32
945.323	320.21
945.692	275.74
946.061	341.28
946.43	261.7
946.8	310.85
947.169	268.72
947.538	308.51
947.907	299.15
948.276	371.71
948.645	254.68
949.013	355.32
949.382	334.26
949.751	292.13
950.119	252.34
950.488	306.17
950.857	352.98
951.225	345.96
951.593	320.21
951.962	254.68
952.33	317.87
952.698	331.92
953.066	306.17
953.434	334.26
953.802	320.21
954.17	231.27
954.538	364.68
954.906	285.11
955.274	299.15
955.642	273.4
956.009	327.24
956.377	292.13
956.744	317.87
957.112	301.49
957.479	329.58
957.847	282.77
958.214	310.85
958.581	310.85
958.948	296.81
959.315	264.04
959.683	306.17
960.05	315.53
960.416	301.49
960.783	247.66
961.15	268.72
961.517	350.64
961.884	341.28
962.25	292.13
962.617	350.64
962.983	331.92
963.35	360
963.716	261.7
964.082	287.45
964.449	327.24
964.815	308.51
965.181	355.32
965.547	338.94
965.913	280.43
966.279	385.75
966.645	235.96
967.011	287.45
967.377	273.4
967.742	268.72
968.108	292.13
968.474	395.11
968.839	271.06
969.205	292.13
969.57	350.64
969.935	320.21
970.301	390.43
970.666	329.58
971.031	329.58
971.396	360
971.761	362.34
972.126	299.15
972.491	343.62
972.856	235.96
973.221	303.83
973.586	280.43
973.95	282.77
974.315	308.51
974.679	348.3
975.044	303.83
975.408	245.32
975.773	268.72
976.137	362.34
976.501	367.03
976.866	285.11
977.23	292.13
977.594	341.28
977.958	327.24
978.322	278.08
978.686	369.37
979.049	264.04
979.413	289.79
979.777	306.17
980.141	252.34
980.504	308.51
980.868	324.9
981.231	324.9
981.595	369.37
981.958	301.49
982.321	306.17
982.684	308.51
983.048	369.37
983.411	336.6
983.774	231.27
984.137	261.7
984.5	310.85
984.862	280.43
985.225	362.34
985.588	322.56
985.951	343.62
986.313	268.72
986.676	292.13
987.038	336.6
987.401	294.47
987.763	374.05
988.125	317.87
988.488	310.85
988.85	235.96
989.212	303.83
989.574	315.53
989.936	343.62
990.298	273.4
990.66	324.9
991.022	303.83
991.383	294.47
991.745	294.47
992.107	259.36
992.468	364.68
992.83	322.56
993.191	350.64
993.553	313.19
993.914	313.19
994.275	282.77
994.637	313.19
994.998	341.28
995.359	289.79
995.72	355.32
996.081	292.13
996.442	397.45
996.803	308.51
997.163	399.79
997.524	259.36
997.885	352.98
998.245	350.64
998.606	282.77
998.966	327.24
999.327	294.47
999.687	261.7
1000.047	280.43
1000.408	296.81
1000.768	338.94
1001.128	327.24
1001.488	324.9
1001.848	282.77
1002.208	378.73
1002.568	329.58
1002.927	301.49
1003.287	317.87
1003.647	334.26
1004.007	331.92
1004.366	296.81
1004.726	338.94
1005.085	306.17
1005.444	299.15
1005.804	275.74
1006.163	327.24
1006.522	306.17
1006.881	397.45
1007.24	292.13
1007.599	345.96
1007.958	310.85
1008.317	336.6
1008.676	364.68
1009.035	292.13
1009.393	357.66
1009.752	395.11
1010.111	371.71
1010.469	381.07
1010.828	282.77
1011.186	278.08
1011.544	221.91
1011.903	285.11
1012.261	350.64
1012.619	306.17
1012.977	345.96
1013.335	378.73
1013.693	341.28
1014.051	331.92
1014.409	360
1014.767	273.4
1015.124	317.87
1015.482	369.37
1015.84	360
1016.197	271.06
1016.555	273.4
1016.912	264.04
1017.269	308.51
1017.627	233.61
1017.984	296.81
1018.341	334.26
1018.698	320.21
1019.055	310.85
1019.412	301.49
1019.769	285.11
1020.126	383.41
1020.483	348.3
1020.84	362.34
1021.196	292.13
1021.553	336.6
1021.909	306.17
1022.266	310.85
1022.622	238.3
1022.979	306.17
1023.335	310.85
1023.691	313.19
1024.047	385.75
1024.404	266.38
1024.76	303.83
1025.116	301.49
1025.472	327.24
1025.827	287.45
1026.183	313.19
1026.539	317.87
1026.895	268.72
1027.25	315.53
1027.606	360
1027.961	289.79
1028.317	310.85
1028.672	280.43
1029.028	299.15
1029.383	345.96
1029.738	357.66
1030.093	329.58
1030.448	259.36
1030.803	282.77
1031.158	226.59
1031.513	310.85
1031.868	203.19
1032.223	350.64
1032.577	338.94
1032.932	301.49
1033.287	334.26
1033.641	261.7
1033.996	247.66
1034.35	329.58
1034.704	320.21
1035.059	364.68
1035.413	343.62
1035.767	343.62
1036.121	343.62
