Data from Al_FLMS009871__976__16-20-58-719.txt Node

Date: Fri Mar 08 16:20:58 CST 2024
User: pe5414po
Spectrometer: FLMS00987
Trigger mode: 0
Integration Time (sec): 1.000000E-1
Scans to average: 1
Electric dark correction enabled: true
Nonlinearity correction enabled: false
Boxcar width: 0
XAxis mode: Wavelengths
Number of Pixels in Spectrum: 2048
>>>>>Begin Spectral Data<<<<<
188.938	-43.3
189.409	-43.3
189.879	-43.3
190.349	-80.75
190.819	-113.52
191.29	-118.2
191.76	-69.05
192.23	-90.11
192.7	-104.15
193.17	-69.05
193.64	-43.3
194.109	-94.79
194.579	64.36
195.049	52.66
195.519	36.28
195.988	12.87
196.458	62.02
196.927	85.43
197.397	45.64
197.866	127.56
198.336	101.81
198.805	157.99
199.274	155.65
199.744	183.73
200.213	214.16
200.682	225.86
201.151	216.5
201.62	223.52
202.089	176.71
202.558	314.8
203.027	211.82
203.495	272.67
203.964	338.21
204.433	291.4
204.902	312.46
205.37	289.06
205.839	310.12
206.307	380.34
206.776	338.21
207.244	251.61
207.712	267.99
208.181	272.67
208.649	270.33
209.117	310.12
209.585	272.67
210.053	256.29
210.521	282.03
210.989	258.63
211.457	267.99
211.925	356.93
212.393	307.78
212.861	342.89
213.328	293.74
213.796	251.61
214.264	277.35
214.731	296.08
215.199	275.01
215.666	289.06
216.133	310.12
216.601	298.42
217.068	307.78
217.535	326.5
218.003	263.31
218.47	319.48
218.937	272.67
219.404	314.8
219.871	207.14
220.338	324.16
220.805	300.76
221.271	267.99
221.738	307.78
222.205	263.31
222.671	218.84
223.138	300.76
223.605	246.93
224.071	272.67
224.538	263.31
225.004	260.97
225.47	286.72
225.937	246.93
226.403	230.54
226.869	193.09
227.335	338.21
227.801	279.69
228.267	307.78
228.733	298.42
229.199	307.78
229.665	296.08
230.131	235.22
230.597	267.99
231.062	267.99
231.528	239.9
231.994	284.38
232.459	375.66
232.925	223.52
233.39	214.16
233.856	218.84
234.321	293.74
234.786	300.76
235.252	249.27
235.717	314.8
236.182	275.01
236.647	265.65
237.112	272.67
237.577	181.39
238.042	275.01
238.507	303.1
238.972	345.23
239.436	282.03
239.901	293.74
240.366	289.06
240.83	209.48
241.295	253.95
241.76	296.08
242.224	270.33
242.688	314.8
243.153	265.65
243.617	286.72
244.081	293.74
244.545	370.97
245.01	289.06
245.474	317.14
245.938	279.69
246.402	312.46
246.866	307.78
247.33	305.44
247.793	319.48
248.257	328.85
248.721	265.65
249.185	314.8
249.648	265.65
250.112	310.12
250.575	291.4
251.039	312.46
251.502	275.01
251.965	256.29
252.429	314.8
252.892	324.16
253.355	307.78
253.818	312.46
254.281	307.78
254.744	270.33
255.207	340.55
255.67	249.27
256.133	321.82
256.596	314.8
257.059	310.12
257.522	312.46
257.984	312.46
258.447	307.78
258.909	279.69
259.372	296.08
259.834	293.74
260.297	237.56
260.759	361.61
261.221	282.03
261.684	293.74
262.146	331.19
262.608	251.61
263.07	251.61
263.532	230.54
263.994	232.88
264.456	293.74
264.918	235.22
265.38	235.22
265.842	293.74
266.303	211.82
266.765	270.33
267.227	267.99
267.688	300.76
268.15	289.06
268.611	279.69
269.072	258.63
269.534	289.06
269.995	314.8
270.456	342.89
270.918	291.4
271.379	284.38
271.84	282.03
272.301	260.97
272.762	279.69
273.223	267.99
273.684	214.16
274.144	300.76
274.605	239.9
275.066	314.8
275.527	260.97
275.987	310.12
276.448	277.35
276.908	317.14
277.369	289.06
277.829	239.9
278.289	328.85
278.75	303.1
279.21	296.08
279.67	272.67
280.13	303.1
280.59	347.57
281.05	363.95
281.51	289.06
281.97	267.99
282.43	279.69
282.89	286.72
283.35	267.99
283.809	310.12
284.269	326.5
284.729	272.67
285.188	265.65
285.648	279.69
286.107	277.35
286.567	319.48
287.026	263.31
287.485	298.42
287.944	366.29
288.404	251.61
288.863	324.16
289.322	263.31
289.781	310.12
290.24	253.95
290.699	352.25
291.158	345.23
291.616	342.89
292.075	389.7
292.534	300.76
292.992	312.46
293.451	310.12
293.91	307.78
294.368	321.82
294.827	324.16
295.285	312.46
295.743	300.76
296.202	267.99
296.66	265.65
297.118	214.16
297.576	312.46
298.034	291.4
298.492	251.61
298.95	275.01
299.408	253.95
299.866	317.14
300.324	305.44
300.781	380.34
301.239	363.95
301.697	277.35
302.154	310.12
302.612	382.68
303.069	307.78
303.527	342.89
303.984	289.06
304.441	338.21
304.899	286.72
305.356	333.53
305.813	303.1
306.27	282.03
306.727	310.12
307.184	317.14
307.641	345.23
308.098	331.19
308.555	291.4
309.012	272.67
309.468	347.57
309.925	328.85
310.382	270.33
310.838	267.99
311.295	403.74
311.751	356.93
312.208	286.72
312.664	291.4
313.12	284.38
313.577	230.54
314.033	310.12
314.489	251.61
314.945	356.93
315.401	312.46
315.857	190.75
316.313	258.63
316.769	267.99
317.225	305.44
317.681	307.78
318.136	246.93
318.592	289.06
319.048	354.59
319.503	331.19
319.959	216.5
320.414	270.33
320.869	361.61
321.325	244.59
321.78	317.14
322.235	347.57
322.691	282.03
323.146	349.91
323.601	235.22
324.056	300.76
324.511	277.35
324.966	324.16
325.421	331.19
325.875	333.53
326.33	342.89
326.785	326.5
327.24	354.59
327.694	312.46
328.149	279.69
328.603	246.93
329.058	282.03
329.512	328.85
329.966	279.69
330.421	328.85
330.875	317.14
331.329	375.66
331.783	310.12
332.237	324.16
332.691	272.67
333.145	314.8
333.599	375.66
334.053	300.76
334.507	345.23
334.96	361.61
335.414	303.1
335.868	328.85
336.321	310.12
336.775	305.44
337.228	312.46
337.682	298.42
338.135	310.12
338.588	333.53
339.042	340.55
339.495	279.69
339.948	324.16
340.401	375.66
340.854	298.42
341.307	326.5
341.76	310.12
342.213	237.56
342.666	282.03
343.119	305.44
343.571	333.53
344.024	282.03
344.477	284.38
344.929	333.53
345.382	368.63
345.834	242.25
346.287	249.27
346.739	326.5
347.191	303.1
347.644	317.14
348.096	277.35
348.548	363.95
349	249.27
349.452	279.69
349.904	338.21
350.356	275.01
350.808	375.66
351.26	275.01
351.711	347.57
352.163	296.08
352.615	392.04
353.066	370.97
353.518	307.78
353.969	282.03
354.421	298.42
354.872	282.03
355.324	284.38
355.775	296.08
356.226	338.21
356.677	314.8
357.128	370.97
357.579	293.74
358.03	265.65
358.481	324.16
358.932	321.82
359.383	331.19
359.834	307.78
360.285	345.23
360.735	298.42
361.186	284.38
361.637	275.01
362.087	296.08
362.538	277.35
362.988	324.16
363.438	284.38
363.889	317.14
364.339	275.01
364.789	223.52
365.239	218.84
365.689	303.1
366.139	291.4
366.589	335.87
367.039	300.76
367.489	312.46
367.939	335.87
368.389	328.85
368.839	263.31
369.288	291.4
369.738	246.93
370.187	324.16
370.637	296.08
371.086	324.16
371.536	333.53
371.985	321.82
372.434	345.23
372.884	279.69
373.333	270.33
373.782	284.38
374.231	298.42
374.68	361.61
375.129	333.53
375.578	282.03
376.027	326.5
376.475	239.9
376.924	340.55
377.373	349.91
377.822	328.85
378.27	366.29
378.719	265.65
379.167	363.95
379.616	368.63
380.064	249.27
380.512	380.34
380.961	307.78
381.409	338.21
381.857	335.87
382.305	368.63
382.753	368.63
383.201	370.97
383.649	296.08
384.097	300.76
384.545	340.55
384.992	251.61
385.44	307.78
385.888	284.38
386.335	394.38
386.783	293.74
387.231	361.61
387.678	352.25
388.125	265.65
388.573	319.48
389.02	317.14
389.467	359.27
389.914	448.21
390.362	312.46
390.809	314.8
391.256	324.16
391.703	312.46
392.15	324.16
392.596	275.01
393.043	284.38
393.49	298.42
393.937	312.46
394.383	326.5
394.83	359.27
395.276	335.87
395.723	263.31
396.169	260.97
396.616	380.34
397.062	289.06
397.508	296.08
397.954	319.48
398.401	258.63
398.847	340.55
399.293	310.12
399.739	335.87
400.185	352.25
400.631	317.14
401.076	378
401.522	366.29
401.968	300.76
402.414	279.69
402.859	328.85
403.305	340.55
403.75	319.48
404.196	342.89
404.641	370.97
405.086	361.61
405.532	326.5
405.977	399.06
406.422	349.91
406.867	317.14
407.312	275.01
407.757	314.8
408.202	303.1
408.647	279.69
409.092	291.4
409.537	378
409.982	317.14
410.426	317.14
410.871	286.72
411.316	333.53
411.76	317.14
412.205	352.25
412.649	300.76
413.093	349.91
413.538	354.59
413.982	267.99
414.426	298.42
414.87	286.72
415.314	303.1
415.758	356.93
416.202	298.42
416.646	338.21
417.09	363.95
417.534	279.69
417.978	389.7
418.421	324.16
418.865	333.53
419.309	310.12
419.752	272.67
420.196	317.14
420.639	326.5
421.083	312.46
421.526	282.03
421.969	347.57
422.412	352.25
422.856	342.89
423.299	349.91
423.742	286.72
424.185	324.16
424.628	312.46
425.071	289.06
425.513	373.32
425.956	312.46
426.399	331.19
426.842	335.87
427.284	272.67
427.727	380.34
428.169	331.19
428.612	303.1
429.054	361.61
429.497	277.35
429.939	349.91
430.381	317.14
430.823	293.74
431.265	354.59
431.707	354.59
432.149	307.78
432.591	333.53
433.033	378
433.475	328.85
433.917	356.93
434.359	300.76
434.8	293.74
435.242	321.82
435.684	366.29
436.125	370.97
436.567	347.57
437.008	331.19
437.449	326.5
437.891	342.89
438.332	275.01
438.773	356.93
439.214	270.33
439.656	282.03
440.097	331.19
440.538	335.87
440.978	370.97
441.419	347.57
441.86	361.61
442.301	293.74
442.742	361.61
443.182	354.59
443.623	333.53
444.063	340.55
444.504	349.91
444.944	303.1
445.385	291.4
445.825	345.23
446.265	293.74
446.706	340.55
447.146	340.55
447.586	258.63
448.026	338.21
448.466	326.5
448.906	312.46
449.346	303.1
449.786	331.19
450.225	328.85
450.665	370.97
451.105	331.19
451.544	368.63
451.984	298.42
452.424	333.53
452.863	284.38
453.302	317.14
453.742	363.95
454.181	342.89
454.62	326.5
455.059	284.38
455.499	324.16
455.938	319.48
456.377	312.46
456.816	296.08
457.254	289.06
457.693	396.72
458.132	286.72
458.571	289.06
459.01	349.91
459.448	333.53
459.887	349.91
460.325	326.5
460.764	282.03
461.202	275.01
461.641	378
462.079	345.23
462.517	272.67
462.955	347.57
463.393	284.38
463.832	317.14
464.27	413.1
464.708	305.44
465.145	328.85
465.583	345.23
466.021	328.85
466.459	319.48
466.897	279.69
467.334	413.1
467.772	385.02
468.209	366.29
468.647	338.21
469.084	347.57
469.522	352.25
469.959	333.53
470.396	380.34
470.833	310.12
471.271	352.25
471.708	298.42
472.145	349.91
472.582	349.91
473.019	296.08
473.456	317.14
473.892	375.66
474.329	382.68
474.766	373.32
475.202	326.5
475.639	314.8
476.076	394.38
476.512	328.85
476.949	375.66
477.385	328.85
477.821	260.97
478.258	366.29
478.694	319.48
479.13	277.35
479.566	286.72
480.002	333.53
480.438	342.89
480.874	310.12
481.31	265.65
481.746	331.19
482.181	298.42
482.617	293.74
483.053	352.25
483.488	265.65
483.924	321.82
484.36	356.93
484.795	354.59
485.23	303.1
485.666	260.97
486.101	251.61
486.536	305.44
486.971	263.31
487.407	335.87
487.842	310.12
488.277	291.4
488.712	349.91
489.146	324.16
489.581	370.97
490.016	310.12
490.451	249.27
490.885	392.04
491.32	354.59
491.755	317.14
492.189	263.31
492.624	345.23
493.058	314.8
493.492	300.76
493.927	296.08
494.361	249.27
494.795	328.85
495.229	335.87
495.663	375.66
496.097	354.59
496.531	354.59
496.965	300.76
497.399	324.16
497.833	338.21
498.266	361.61
498.7	296.08
499.134	277.35
499.567	321.82
500.001	338.21
500.434	359.27
500.868	354.59
501.301	284.38
501.734	279.69
502.168	310.12
502.601	293.74
503.034	300.76
503.467	312.46
503.9	356.93
504.333	328.85
504.766	321.82
505.199	305.44
505.632	232.88
506.064	366.29
506.497	282.03
506.93	359.27
507.362	401.4
507.795	361.61
508.227	375.66
508.66	314.8
509.092	373.32
509.524	333.53
509.956	326.5
510.389	305.44
510.821	284.38
511.253	342.89
511.685	335.87
512.117	319.48
512.549	382.68
512.981	303.1
513.412	349.91
513.844	328.85
514.276	356.93
514.707	361.61
515.139	335.87
515.571	321.82
516.002	221.18
516.433	333.53
516.865	326.5
517.296	277.35
517.727	340.55
518.159	415.45
518.59	349.91
519.021	305.44
519.452	340.55
519.883	378
520.314	335.87
520.744	359.27
521.175	331.19
521.606	246.93
522.037	284.38
522.467	277.35
522.898	359.27
523.328	317.14
523.759	312.46
524.189	298.42
524.62	307.78
525.05	275.01
525.48	347.57
525.91	340.55
526.341	342.89
526.771	356.93
527.201	298.42
527.631	333.53
528.061	363.95
528.49	232.88
528.92	300.76
529.35	282.03
529.78	256.29
530.209	338.21
530.639	385.02
531.068	296.08
531.498	375.66
531.927	345.23
532.357	403.74
532.786	305.44
533.215	279.69
533.644	324.16
534.074	300.76
534.503	300.76
534.932	354.59
535.361	370.97
535.79	410.76
536.218	347.57
536.647	249.27
537.076	300.76
537.505	354.59
537.933	291.4
538.362	324.16
538.79	354.59
539.219	286.72
539.647	385.02
540.076	356.93
540.504	298.42
540.932	300.76
541.36	345.23
541.788	277.35
542.217	361.61
542.645	328.85
543.073	342.89
543.5	314.8
543.928	326.5
544.356	331.19
544.784	380.34
545.211	345.23
545.639	289.06
546.067	338.21
546.494	354.59
546.922	307.78
547.349	296.08
547.776	314.8
548.204	413.1
548.631	342.89
549.058	361.61
549.485	317.14
549.912	303.1
550.339	338.21
550.766	289.06
551.193	321.82
551.62	324.16
552.047	289.06
552.474	356.93
552.9	300.76
553.327	242.25
553.754	307.78
554.18	366.29
554.607	375.66
555.033	342.89
555.459	333.53
555.886	310.12
556.312	403.74
556.738	286.72
557.164	237.56
557.59	326.5
558.016	272.67
558.442	291.4
558.868	279.69
559.294	242.25
559.72	305.44
560.145	319.48
560.571	291.4
560.997	333.53
561.422	347.57
561.848	340.55
562.273	333.53
562.699	328.85
563.124	354.59
563.549	338.21
563.974	326.5
564.4	340.55
564.825	277.35
565.25	300.76
565.675	286.72
566.1	263.31
566.525	321.82
566.95	345.23
567.374	361.61
567.799	284.38
568.224	328.85
568.648	298.42
569.073	314.8
569.497	298.42
569.922	317.14
570.346	347.57
570.771	338.21
571.195	312.46
571.619	356.93
572.043	347.57
572.467	305.44
572.891	305.44
573.315	298.42
573.739	296.08
574.163	324.16
574.587	289.06
575.011	345.23
575.435	333.53
575.858	359.27
576.282	331.19
576.705	333.53
577.129	328.85
577.552	335.87
577.976	218.84
578.399	326.5
578.822	335.87
579.245	272.67
579.669	324.16
580.092	354.59
580.515	305.44
580.938	319.48
581.361	291.4
581.784	326.5
582.206	286.72
582.629	382.68
583.052	310.12
583.474	272.67
583.897	356.93
584.32	321.82
584.742	310.12
585.165	333.53
585.587	277.35
586.009	394.38
586.431	312.46
586.854	267.99
587.276	317.14
587.698	420.13
588.12	356.93
588.542	368.63
588.964	312.46
589.386	235.22
589.807	342.89
590.229	296.08
590.651	298.42
591.073	359.27
591.494	314.8
591.916	317.14
592.337	345.23
592.759	277.35
593.18	345.23
593.601	340.55
594.022	319.48
594.444	333.53
594.865	298.42
595.286	272.67
595.707	317.14
596.128	366.29
596.549	354.59
596.97	352.25
597.39	296.08
597.811	352.25
598.232	352.25
598.652	291.4
599.073	298.42
599.494	289.06
599.914	298.42
600.334	382.68
600.755	328.85
601.175	300.76
601.595	277.35
602.015	300.76
602.436	263.31
602.856	399.06
603.276	333.53
603.696	368.63
604.115	324.16
604.535	413.1
604.955	340.55
605.375	345.23
605.794	298.42
606.214	293.74
606.634	333.53
607.053	331.19
607.473	375.66
607.892	324.16
608.311	331.19
608.731	284.38
609.15	298.42
609.569	282.03
609.988	392.04
610.407	289.06
610.826	275.01
611.245	338.21
611.664	310.12
612.083	356.93
612.501	380.34
612.92	312.46
613.339	263.31
613.757	342.89
614.176	300.76
614.594	293.74
615.013	335.87
615.431	319.48
615.85	265.65
616.268	277.35
616.686	303.1
617.104	347.57
617.522	300.76
617.94	359.27
618.358	284.38
618.776	275.01
619.194	324.16
619.612	328.85
620.03	303.1
620.447	317.14
620.865	317.14
621.282	331.19
621.7	342.89
622.117	321.82
622.535	338.21
622.952	319.48
623.369	340.55
623.787	378
624.204	368.63
624.621	328.85
625.038	291.4
625.455	359.27
625.872	331.19
626.289	349.91
626.706	389.7
627.123	272.67
627.539	340.55
627.956	293.74
628.373	335.87
628.789	293.74
629.206	282.03
629.622	265.65
630.038	298.42
630.455	338.21
630.871	284.38
631.287	314.8
631.703	293.74
632.12	333.53
632.536	263.31
632.952	340.55
633.368	368.63
633.783	321.82
634.199	303.1
634.615	338.21
635.031	340.55
635.446	303.1
635.862	298.42
636.277	368.63
636.693	375.66
637.108	326.5
637.524	354.59
637.939	385.02
638.354	321.82
638.77	305.44
639.185	314.8
639.6	291.4
640.015	338.21
640.43	331.19
640.845	387.36
641.259	335.87
641.674	324.16
642.089	347.57
642.504	289.06
642.918	349.91
643.333	347.57
643.747	340.55
644.162	328.85
644.576	244.59
644.991	354.59
645.405	366.29
645.819	387.36
646.233	272.67
646.647	305.44
647.061	282.03
647.475	342.89
647.889	275.01
648.303	324.16
648.717	293.74
649.131	314.8
649.545	354.59
649.958	368.63
650.372	242.25
650.785	345.23
651.199	321.82
651.612	263.31
652.026	307.78
652.439	253.95
652.852	296.08
653.266	275.01
653.679	300.76
654.092	314.8
654.505	319.48
654.918	303.1
655.331	345.23
655.744	342.89
656.156	340.55
656.569	296.08
656.982	307.78
657.394	324.16
657.807	289.06
658.22	289.06
658.632	387.36
659.044	291.4
659.457	368.63
659.869	310.12
660.281	319.48
660.693	260.97
661.106	263.31
661.518	312.46
661.93	314.8
662.342	305.44
662.754	244.59
663.165	300.76
663.577	303.1
663.989	349.91
664.401	378
664.812	324.16
665.224	347.57
665.635	237.56
666.047	312.46
666.458	270.33
666.869	293.74
667.281	319.48
667.692	279.69
668.103	307.78
668.514	296.08
668.925	312.46
669.336	310.12
669.747	324.16
670.158	356.93
670.569	378
670.979	340.55
671.39	380.34
671.801	349.91
672.211	258.63
672.622	373.32
673.032	406.08
673.443	293.74
673.853	270.33
674.263	368.63
674.674	253.95
675.084	260.97
675.494	307.78
675.904	328.85
676.314	237.56
676.724	356.93
677.134	277.35
677.544	277.35
677.953	342.89
678.363	354.59
678.773	403.74
679.182	246.93
679.592	340.55
680.001	279.69
680.411	324.16
680.82	310.12
681.23	345.23
681.639	293.74
682.048	347.57
682.457	298.42
682.866	319.48
683.275	291.4
683.684	303.1
684.093	300.76
684.502	286.72
684.911	263.31
685.32	296.08
685.728	307.78
686.137	286.72
686.546	298.42
686.954	352.25
687.363	284.38
687.771	342.89
688.179	317.14
688.588	342.89
688.996	345.23
689.404	279.69
689.812	349.91
690.22	394.38
690.628	307.78
691.036	347.57
691.444	338.21
691.852	275.01
692.26	300.76
692.667	305.44
693.075	328.85
693.483	342.89
693.89	331.19
694.298	305.44
694.705	349.91
695.112	296.08
695.52	293.74
695.927	303.1
696.334	345.23
696.741	340.55
697.148	349.91
697.555	354.59
697.962	349.91
698.369	310.12
698.776	354.59
699.183	335.87
699.59	282.03
699.996	378
700.403	328.85
700.81	305.44
701.216	282.03
701.623	296.08
702.029	303.1
702.435	305.44
702.842	354.59
703.248	333.53
703.654	317.14
704.06	354.59
704.466	345.23
704.872	338.21
705.278	265.65
705.684	300.76
706.09	310.12
706.496	263.31
706.901	356.93
707.307	256.29
707.712	328.85
708.118	296.08
708.523	282.03
708.929	305.44
709.334	326.5
709.74	333.53
710.145	340.55
710.55	352.25
710.955	326.5
711.36	352.25
711.765	359.27
712.17	345.23
712.575	331.19
712.98	806.31
713.385	368.63
713.789	345.23
714.194	314.8
714.599	335.87
715.003	282.03
715.408	265.65
715.812	272.67
716.217	340.55
716.621	291.4
717.025	277.35
717.429	331.19
717.833	361.61
718.238	265.65
718.642	267.99
719.046	345.23
719.449	293.74
719.853	340.55
720.257	279.69
720.661	392.04
721.065	328.85
721.468	335.87
721.872	284.38
722.275	296.08
722.679	352.25
723.082	333.53
723.485	296.08
723.889	251.61
724.292	279.69
724.695	317.14
725.098	331.19
725.501	368.63
725.904	277.35
726.307	319.48
726.71	342.89
727.113	317.14
727.516	270.33
727.918	284.38
728.321	253.95
728.724	289.06
729.126	328.85
729.529	370.97
729.931	387.36
730.333	235.22
730.736	286.72
731.138	286.72
731.54	368.63
731.942	326.5
732.344	300.76
732.746	293.74
733.148	303.1
733.55	312.46
733.952	333.53
734.354	305.44
734.756	340.55
735.157	321.82
735.559	345.23
735.96	321.82
736.362	326.5
736.763	298.42
737.165	307.78
737.566	328.85
737.967	312.46
738.368	324.16
738.77	296.08
739.171	291.4
739.572	310.12
739.973	260.97
740.374	359.27
740.774	321.82
741.175	324.16
741.576	291.4
741.977	333.53
742.377	368.63
742.778	298.42
743.178	270.33
743.579	328.85
743.979	326.5
744.379	321.82
744.78	282.03
745.18	314.8
745.58	366.29
745.98	342.89
746.38	326.5
746.78	314.8
747.18	256.29
747.58	296.08
747.98	312.46
748.38	314.8
748.779	340.55
749.179	256.29
749.578	312.46
749.978	359.27
750.377	349.91
750.777	335.87
751.176	326.5
751.575	335.87
751.975	284.38
752.374	349.91
752.773	338.21
753.172	305.44
753.571	375.66
753.97	303.1
754.369	293.74
754.768	361.61
755.166	378
755.565	314.8
755.964	345.23
756.362	321.82
756.761	373.32
757.159	392.04
757.558	363.95
757.956	347.57
758.354	410.76
758.753	310.12
759.151	300.76
759.549	230.54
759.947	286.72
760.345	333.53
760.743	305.44
761.141	324.16
761.539	317.14
761.936	363.95
762.334	293.74
762.732	265.65
763.129	298.42
763.527	380.34
763.924	338.21
764.322	345.23
764.719	312.46
765.117	328.85
765.514	265.65
765.911	310.12
766.308	296.08
766.705	363.95
767.102	291.4
767.499	317.14
767.896	319.48
768.293	340.55
768.69	361.61
769.086	286.72
769.483	394.38
769.88	338.21
770.276	359.27
770.673	340.55
771.069	345.23
771.466	314.8
771.862	356.93
772.258	289.06
772.654	368.63
773.05	328.85
773.447	326.5
773.843	300.76
774.239	267.99
774.634	293.74
775.03	296.08
775.426	361.61
775.822	319.48
776.218	275.01
776.613	307.78
777.009	340.55
777.404	359.27
777.8	333.53
778.195	321.82
778.59	324.16
778.986	307.78
779.381	293.74
779.776	335.87
780.171	307.78
780.566	368.63
780.961	310.12
781.356	410.76
781.751	338.21
782.146	347.57
782.54	378
782.935	305.44
783.33	258.63
783.724	333.53
784.119	291.4
784.513	284.38
784.908	260.97
785.302	368.63
785.696	321.82
786.09	291.4
786.485	303.1
786.879	319.48
787.273	270.33
787.667	275.01
788.061	328.85
788.454	349.91
788.848	356.93
789.242	310.12
789.636	317.14
790.029	310.12
790.423	312.46
790.816	244.59
791.21	277.35
791.603	314.8
791.997	333.53
792.39	270.33
792.783	342.89
793.176	326.5
793.569	312.46
793.962	293.74
794.355	356.93
794.748	317.14
795.141	319.48
795.534	303.1
795.927	307.78
796.319	328.85
796.712	356.93
797.105	305.44
797.497	275.01
797.89	356.93
798.282	277.35
798.674	319.48
799.067	256.29
799.459	270.33
799.851	361.61
800.243	382.68
800.635	399.06
801.027	331.19
801.419	366.29
801.811	368.63
802.203	277.35
802.594	345.23
802.986	289.06
803.378	314.8
803.769	331.19
804.161	246.93
804.552	366.29
804.944	356.93
805.335	340.55
805.726	331.19
806.118	303.1
806.509	300.76
806.9	244.59
807.291	303.1
807.682	340.55
808.073	312.46
808.464	352.25
808.855	361.61
809.245	303.1
809.636	307.78
810.027	345.23
810.417	401.4
810.808	392.04
811.198	317.14
811.589	352.25
811.979	328.85
812.369	305.44
812.759	342.89
813.15	305.44
813.54	331.19
813.93	319.48
814.32	303.1
814.71	293.74
815.1	387.36
815.489	349.91
815.879	310.12
816.269	303.1
816.658	293.74
817.048	298.42
817.438	345.23
817.827	328.85
818.216	303.1
818.606	321.82
818.995	333.53
819.384	375.66
819.773	338.21
820.163	293.74
820.552	335.87
820.941	331.19
821.33	328.85
821.718	389.7
822.107	382.68
822.496	370.97
822.885	373.32
823.273	291.4
823.662	378
824.05	338.21
824.439	368.63
824.827	319.48
825.216	347.57
825.604	298.42
825.992	314.8
826.38	387.36
826.768	267.99
827.156	314.8
827.544	314.8
827.932	246.93
828.32	331.19
828.708	363.95
829.096	307.78
829.483	331.19
829.871	331.19
830.259	349.91
830.646	370.97
831.034	305.44
831.421	293.74
831.808	326.5
832.196	298.42
832.583	335.87
832.97	303.1
833.357	303.1
833.744	328.85
834.131	296.08
834.518	314.8
834.905	331.19
835.292	275.01
835.678	385.02
836.065	326.5
836.452	298.42
836.838	298.42
837.225	331.19
837.611	296.08
837.998	375.66
838.384	333.53
838.77	342.89
839.157	363.95
839.543	242.25
839.929	338.21
840.315	321.82
840.701	349.91
841.087	296.08
841.473	389.7
841.858	370.97
842.244	251.61
842.63	307.78
843.015	270.33
843.401	349.91
843.787	317.14
844.172	352.25
844.557	286.72
844.943	333.53
845.328	345.23
845.713	342.89
846.098	349.91
846.483	326.5
846.868	317.14
847.253	375.66
847.638	335.87
848.023	303.1
848.408	305.44
848.793	286.72
849.177	286.72
849.562	342.89
849.947	392.04
850.331	335.87
850.715	275.01
851.1	396.72
851.484	340.55
851.868	361.61
852.253	282.03
852.637	293.74
853.021	298.42
853.405	265.65
853.789	237.56
854.173	310.12
854.557	345.23
854.94	291.4
855.324	359.27
855.708	293.74
856.091	310.12
856.475	352.25
856.858	314.8
857.242	303.1
857.625	307.78
858.009	347.57
858.392	359.27
858.775	349.91
859.158	363.95
859.541	277.35
859.924	370.97
860.307	307.78
860.69	303.1
861.073	328.85
861.456	331.19
861.838	331.19
862.221	291.4
862.604	317.14
862.986	389.7
863.369	331.19
863.751	312.46
864.133	380.34
864.516	338.21
864.898	363.95
865.28	289.06
865.662	293.74
866.044	284.38
866.426	324.16
866.808	282.03
867.19	380.34
867.572	298.42
867.954	289.06
868.336	345.23
868.717	319.48
869.099	298.42
869.48	267.99
869.862	333.53
870.243	272.67
870.625	291.4
871.006	305.44
871.387	232.88
871.768	331.19
872.149	314.8
872.53	300.76
872.911	303.1
873.292	277.35
873.673	321.82
874.054	378
874.435	314.8
874.815	331.19
875.196	387.36
875.577	270.33
875.957	349.91
876.338	242.25
876.718	340.55
877.098	326.5
877.479	366.29
877.859	340.55
878.239	277.35
878.619	354.59
878.999	333.53
879.379	319.48
879.759	251.61
880.139	331.19
880.519	310.12
880.898	363.95
881.278	385.02
881.658	282.03
882.037	265.65
882.417	310.12
882.796	253.95
883.176	291.4
883.555	356.93
883.934	331.19
884.313	244.59
884.693	267.99
885.072	361.61
885.451	342.89
885.83	345.23
886.209	282.03
886.587	312.46
886.966	363.95
887.345	345.23
887.724	305.44
888.102	272.67
888.481	298.42
888.859	300.76
889.238	319.48
889.616	331.19
889.994	319.48
890.373	286.72
890.751	291.4
891.129	356.93
891.507	312.46
891.885	291.4
892.263	303.1
892.641	356.93
893.019	324.16
893.396	335.87
893.774	352.25
894.152	321.82
894.529	342.89
894.907	270.33
895.284	282.03
895.662	317.14
896.039	345.23
896.416	289.06
896.794	235.22
897.171	267.99
897.548	291.4
897.925	286.72
898.302	282.03
898.679	249.27
899.056	303.1
899.433	338.21
899.809	317.14
900.186	291.4
900.563	349.91
900.939	331.19
901.316	389.7
901.692	277.35
902.069	342.89
902.445	345.23
902.821	303.1
903.197	312.46
903.574	293.74
903.95	265.65
904.326	244.59
904.702	373.32
905.078	317.14
905.454	275.01
905.829	279.69
906.205	230.54
906.581	380.34
906.956	267.99
907.332	363.95
907.707	300.76
908.083	218.84
908.458	246.93
908.833	284.38
909.209	342.89
909.584	352.25
909.959	326.5
910.334	326.5
910.709	312.46
911.084	289.06
911.459	289.06
911.834	296.08
912.209	291.4
912.583	275.01
912.958	324.16
913.333	305.44
913.707	321.82
914.082	403.74
914.456	303.1
914.83	326.5
915.205	293.74
915.579	340.55
915.953	333.53
916.327	260.97
916.701	342.89
917.075	228.2
917.449	307.78
917.823	326.5
918.197	314.8
918.571	265.65
918.944	317.14
919.318	291.4
919.692	291.4
920.065	354.59
920.438	317.14
920.812	314.8
921.185	319.48
921.558	286.72
921.932	328.85
922.305	277.35
922.678	289.06
923.051	342.89
923.424	275.01
923.797	319.48
924.17	331.19
924.542	258.63
924.915	326.5
925.288	298.42
925.661	291.4
926.033	293.74
926.406	326.5
926.778	333.53
927.15	272.67
927.523	249.27
927.895	284.38
928.267	300.76
928.639	317.14
929.011	249.27
929.383	279.69
929.755	303.1
930.127	305.44
930.499	324.16
930.871	340.55
931.242	267.99
931.614	307.78
931.986	373.32
932.357	289.06
932.729	232.88
933.1	326.5
933.471	267.99
933.843	305.44
934.214	324.16
934.585	338.21
934.956	399.06
935.327	340.55
935.698	331.19
936.069	335.87
936.44	319.48
936.811	321.82
937.182	279.69
937.552	307.78
937.923	249.27
938.293	347.57
938.664	303.1
939.034	375.66
939.405	394.38
939.775	340.55
940.145	296.08
940.516	331.19
940.886	310.12
941.256	272.67
941.626	275.01
941.996	312.46
942.366	359.27
942.735	342.89
943.105	375.66
943.475	307.78
943.845	303.1
944.214	321.82
944.584	340.55
944.953	366.29
945.323	328.85
945.692	298.42
946.061	289.06
946.43	289.06
946.8	352.25
947.169	258.63
947.538	338.21
947.907	300.76
948.276	314.8
948.645	246.93
949.013	340.55
949.382	342.89
949.751	282.03
950.119	340.55
950.488	312.46
950.857	345.23
951.225	387.36
951.593	361.61
951.962	326.5
952.33	312.46
952.698	324.16
953.066	275.01
953.434	312.46
953.802	324.16
954.17	279.69
954.538	326.5
954.906	228.2
955.274	265.65
955.642	317.14
956.009	314.8
956.377	338.21
956.744	303.1
957.112	340.55
957.479	328.85
957.847	265.65
958.214	300.76
958.581	345.23
958.948	335.87
959.315	338.21
959.683	326.5
960.05	263.31
960.416	282.03
960.783	272.67
961.15	342.89
961.517	347.57
961.884	366.29
962.25	333.53
962.617	324.16
962.983	345.23
963.35	314.8
963.716	310.12
964.082	260.97
964.449	359.27
964.815	239.9
965.181	298.42
965.547	319.48
965.913	375.66
966.279	303.1
966.645	345.23
967.011	286.72
967.377	375.66
967.742	347.57
968.108	298.42
968.474	263.31
968.839	335.87
969.205	267.99
969.57	338.21
969.935	328.85
970.301	328.85
970.666	352.25
971.031	307.78
971.396	310.12
971.761	314.8
972.126	319.48
972.491	298.42
972.856	267.99
973.221	282.03
973.586	303.1
973.95	380.34
974.315	333.53
974.679	326.5
975.044	342.89
975.408	378
975.773	298.42
976.137	312.46
976.501	347.57
976.866	307.78
977.23	275.01
977.594	282.03
977.958	335.87
978.322	286.72
978.686	342.89
979.049	270.33
979.413	366.29
979.777	319.48
980.141	326.5
980.504	317.14
980.868	300.76
981.231	291.4
981.595	324.16
981.958	403.74
982.321	352.25
982.684	277.35
983.048	216.5
983.411	373.32
983.774	291.4
984.137	279.69
984.5	387.36
984.862	328.85
985.225	366.29
985.588	366.29
985.951	310.12
986.313	307.78
986.676	296.08
987.038	291.4
987.401	380.34
987.763	324.16
988.125	356.93
988.488	345.23
988.85	328.85
989.212	289.06
989.574	284.38
989.936	282.03
990.298	305.44
990.66	263.31
991.022	272.67
991.383	368.63
991.745	286.72
992.107	270.33
992.468	286.72
992.83	310.12
993.191	326.5
993.553	303.1
993.914	225.86
994.275	270.33
994.637	324.16
994.998	300.76
995.359	284.38
995.72	328.85
996.081	319.48
996.442	396.72
996.803	324.16
997.163	345.23
997.524	305.44
997.885	328.85
998.245	331.19
998.606	237.56
998.966	272.67
999.327	298.42
999.687	314.8
1000.047	270.33
1000.408	298.42
1000.768	370.97
1001.128	366.29
1001.488	251.61
1001.848	328.85
1002.208	272.67
1002.568	335.87
1002.927	291.4
1003.287	267.99
1003.647	342.89
1004.007	375.66
1004.366	328.85
1004.726	389.7
1005.085	307.78
1005.444	335.87
1005.804	267.99
1006.163	305.44
1006.522	270.33
1006.881	300.76
1007.24	324.16
1007.599	326.5
1007.958	289.06
1008.317	347.57
1008.676	272.67
1009.035	298.42
1009.393	319.48
1009.752	277.35
1010.111	338.21
1010.469	282.03
1010.828	263.31
1011.186	221.18
1011.544	246.93
1011.903	291.4
1012.261	314.8
1012.619	310.12
1012.977	354.59
1013.335	317.14
1013.693	272.67
1014.051	321.82
1014.409	319.48
1014.767	277.35
1015.124	319.48
1015.482	347.57
1015.84	326.5
1016.197	352.25
1016.555	317.14
1016.912	225.86
1017.269	338.21
1017.627	305.44
1017.984	326.5
1018.341	328.85
1018.698	296.08
1019.055	249.27
1019.412	265.65
1019.769	244.59
1020.126	310.12
1020.483	293.74
1020.84	242.25
1021.196	331.19
1021.553	300.76
1021.909	370.97
1022.266	354.59
1022.622	277.35
1022.979	349.91
1023.335	328.85
1023.691	284.38
1024.047	361.61
1024.404	307.78
1024.76	279.69
1025.116	296.08
1025.472	359.27
1025.827	317.14
1026.183	282.03
1026.539	291.4
1026.895	340.55
1027.25	303.1
1027.606	324.16
1027.961	324.16
1028.317	300.76
1028.672	307.78
1029.028	359.27
1029.383	275.01
1029.738	293.74
1030.093	267.99
1030.448	342.89
1030.803	335.87
1031.158	363.95
1031.513	298.42
1031.868	260.97
1032.223	298.42
1032.577	296.08
1032.932	328.85
1033.287	296.08
1033.641	300.76
1033.996	296.08
1034.35	303.1
1034.704	305.44
1035.059	368.63
1035.413	239.9
1035.767	239.9
1036.121	239.9
