Data from Al_FLMS009871__517__14-38-39-727.txt Node

Date: Fri Mar 08 14:38:39 CST 2024
User: pe5414po
Spectrometer: FLMS00987
Trigger mode: 0
Integration Time (sec): 1.000000E-1
Scans to average: 1
Electric dark correction enabled: true
Nonlinearity correction enabled: false
Boxcar width: 0
XAxis mode: Wavelengths
Number of Pixels in Spectrum: 2048
>>>>>Begin Spectral Data<<<<<
188.938	-90.11
189.409	-90.11
189.879	-90.11
190.349	-76.07
190.819	-64.36
191.29	-141.6
191.76	-87.77
192.23	-78.41
192.7	-101.81
193.17	-45.64
193.64	-83.09
194.109	-24.58
194.579	8.19
195.049	1.17
195.519	38.62
195.988	10.53
196.458	59.68
196.927	62.02
197.397	38.62
197.866	155.65
198.336	188.41
198.805	148.62
199.274	129.9
199.744	193.09
200.213	176.71
200.682	183.73
201.151	179.05
201.62	244.59
202.089	265.65
202.558	277.35
203.027	242.25
203.495	352.25
203.964	239.9
204.433	284.38
204.902	242.25
205.37	253.95
205.839	293.74
206.307	232.88
206.776	312.46
207.244	342.89
207.712	282.03
208.181	298.42
208.649	296.08
209.117	251.61
209.585	284.38
210.053	277.35
210.521	225.86
210.989	321.82
211.457	258.63
211.925	251.61
212.393	289.06
212.861	249.27
213.328	289.06
213.796	279.69
214.264	291.4
214.731	305.44
215.199	303.1
215.666	258.63
216.133	160.33
216.601	319.48
217.068	256.29
217.535	289.06
218.003	289.06
218.47	249.27
218.937	291.4
219.404	223.52
219.871	286.72
220.338	253.95
220.805	260.97
221.271	225.86
221.738	253.95
222.205	195.43
222.671	258.63
223.138	282.03
223.605	263.31
224.071	328.85
224.538	258.63
225.004	321.82
225.47	230.54
225.937	314.8
226.403	296.08
226.869	284.38
227.335	298.42
227.801	326.5
228.267	270.33
228.733	242.25
229.199	270.33
229.665	235.22
230.131	300.76
230.597	253.95
231.062	244.59
231.528	277.35
231.994	319.48
232.459	235.22
232.925	230.54
233.39	207.14
233.856	289.06
234.321	202.46
234.786	333.53
235.252	265.65
235.717	249.27
236.182	282.03
236.647	298.42
237.112	195.43
237.577	275.01
238.042	265.65
238.507	277.35
238.972	244.59
239.436	272.67
239.901	307.78
240.366	335.87
240.83	251.61
241.295	282.03
241.76	249.27
242.224	300.76
242.688	310.12
243.153	263.31
243.617	319.48
244.081	260.97
244.545	207.14
245.01	249.27
245.474	286.72
245.938	282.03
246.402	258.63
246.866	267.99
247.33	303.1
247.793	284.38
248.257	230.54
248.721	303.1
249.185	321.82
249.648	303.1
250.112	293.74
250.575	298.42
251.039	232.88
251.502	251.61
251.965	200.12
252.429	242.25
252.892	291.4
253.355	286.72
253.818	225.86
254.281	270.33
254.744	319.48
255.207	239.9
255.67	284.38
256.133	244.59
256.596	328.85
257.059	272.67
257.522	256.29
257.984	289.06
258.447	300.76
258.909	282.03
259.372	319.48
259.834	307.78
260.297	328.85
260.759	314.8
261.221	314.8
261.684	258.63
262.146	211.82
262.608	282.03
263.07	289.06
263.532	279.69
263.994	279.69
264.456	354.59
264.918	221.18
265.38	249.27
265.842	296.08
266.303	282.03
266.765	286.72
267.227	331.19
267.688	303.1
268.15	279.69
268.611	328.85
269.072	246.93
269.534	251.61
269.995	223.52
270.456	319.48
270.918	249.27
271.379	284.38
271.84	267.99
272.301	235.22
272.762	277.35
273.223	256.29
273.684	331.19
274.144	270.33
274.605	338.21
275.066	246.93
275.527	275.01
275.987	246.93
276.448	305.44
276.908	338.21
277.369	335.87
277.829	349.91
278.289	275.01
278.75	331.19
279.21	375.66
279.67	300.76
280.13	260.97
280.59	275.01
281.05	293.74
281.51	352.25
281.97	296.08
282.43	221.18
282.89	289.06
283.35	307.78
283.809	265.65
284.269	293.74
284.729	284.38
285.188	291.4
285.648	324.16
286.107	331.19
286.567	289.06
287.026	293.74
287.485	286.72
287.944	326.5
288.404	246.93
288.863	249.27
289.322	321.82
289.781	275.01
290.24	267.99
290.699	303.1
291.158	340.55
291.616	265.65
292.075	326.5
292.534	289.06
292.992	312.46
293.451	293.74
293.91	251.61
294.368	352.25
294.827	277.35
295.285	312.46
295.743	335.87
296.202	272.67
296.66	270.33
297.118	270.33
297.576	326.5
298.034	347.57
298.492	282.03
298.95	300.76
299.408	324.16
299.866	319.48
300.324	272.67
300.781	282.03
301.239	263.31
301.697	289.06
302.154	267.99
302.612	296.08
303.069	366.29
303.527	305.44
303.984	300.76
304.441	251.61
304.899	345.23
305.356	267.99
305.813	312.46
306.27	305.44
306.727	352.25
307.184	263.31
307.641	270.33
308.098	260.97
308.555	335.87
309.012	270.33
309.468	239.9
309.925	300.76
310.382	300.76
310.838	305.44
311.295	263.31
311.751	345.23
312.208	267.99
312.664	239.9
313.12	326.5
313.577	263.31
314.033	370.97
314.489	270.33
314.945	293.74
315.401	277.35
315.857	314.8
316.313	331.19
316.769	282.03
317.225	284.38
317.681	321.82
318.136	256.29
318.592	317.14
319.048	338.21
319.503	303.1
319.959	317.14
320.414	270.33
320.869	263.31
321.325	253.95
321.78	289.06
322.235	291.4
322.691	249.27
323.146	328.85
323.601	342.89
324.056	300.76
324.511	272.67
324.966	321.82
325.421	291.4
325.875	256.29
326.33	300.76
326.785	305.44
327.24	317.14
327.694	310.12
328.149	359.27
328.603	296.08
329.058	331.19
329.512	347.57
329.966	263.31
330.421	251.61
330.875	321.82
331.329	307.78
331.783	291.4
332.237	366.29
332.691	324.16
333.145	326.5
333.599	352.25
334.053	333.53
334.507	282.03
334.96	298.42
335.414	338.21
335.868	331.19
336.321	312.46
336.775	296.08
337.228	305.44
337.682	413.1
338.135	317.14
338.588	265.65
339.042	349.91
339.495	321.82
339.948	333.53
340.401	314.8
340.854	331.19
341.307	317.14
341.76	270.33
342.213	396.72
342.666	312.46
343.119	345.23
343.571	305.44
344.024	385.02
344.477	289.06
344.929	331.19
345.382	286.72
345.834	265.65
346.287	333.53
346.739	305.44
347.191	335.87
347.644	303.1
348.096	312.46
348.548	335.87
349	340.55
349.452	352.25
349.904	289.06
350.356	307.78
350.808	338.21
351.26	303.1
351.711	303.1
352.163	328.85
352.615	277.35
353.066	338.21
353.518	335.87
353.969	321.82
354.421	319.48
354.872	307.78
355.324	286.72
355.775	342.89
356.226	251.61
356.677	291.4
357.128	305.44
357.579	345.23
358.03	335.87
358.481	300.76
358.932	310.12
359.383	326.5
359.834	338.21
360.285	314.8
360.735	342.89
361.186	277.35
361.637	342.89
362.087	291.4
362.538	270.33
362.988	340.55
363.438	307.78
363.889	354.59
364.339	291.4
364.789	291.4
365.239	298.42
365.689	342.89
366.139	328.85
366.589	333.53
367.039	338.21
367.489	366.29
367.939	232.88
368.389	361.61
368.839	317.14
369.288	310.12
369.738	300.76
370.187	239.9
370.637	265.65
371.086	258.63
371.536	282.03
371.985	370.97
372.434	312.46
372.884	289.06
373.333	298.42
373.782	338.21
374.231	340.55
374.68	335.87
375.129	310.12
375.578	296.08
376.027	310.12
376.475	265.65
376.924	305.44
377.373	310.12
377.822	321.82
378.27	361.61
378.719	326.5
379.167	363.95
379.616	267.99
380.064	303.1
380.512	312.46
380.961	324.16
381.409	286.72
381.857	242.25
382.305	345.23
382.753	345.23
383.201	284.38
383.649	275.01
384.097	324.16
384.545	366.29
384.992	291.4
385.44	270.33
385.888	298.42
386.335	293.74
386.783	310.12
387.231	310.12
387.678	319.48
388.125	300.76
388.573	260.97
389.02	305.44
389.467	310.12
389.914	249.27
390.362	333.53
390.809	272.67
391.256	326.5
391.703	352.25
392.15	312.46
392.596	312.46
393.043	230.54
393.49	305.44
393.937	256.29
394.383	303.1
394.83	293.74
395.276	368.63
395.723	298.42
396.169	321.82
396.616	298.42
397.062	270.33
397.508	303.1
397.954	338.21
398.401	204.8
398.847	277.35
399.293	347.57
399.739	349.91
400.185	347.57
400.631	338.21
401.076	275.01
401.522	319.48
401.968	265.65
402.414	286.72
402.859	338.21
403.305	298.42
403.75	375.66
404.196	307.78
404.641	289.06
405.086	300.76
405.532	277.35
405.977	319.48
406.422	286.72
406.867	319.48
407.312	300.76
407.757	279.69
408.202	328.85
408.647	242.25
409.092	338.21
409.537	239.9
409.982	286.72
410.426	300.76
410.871	319.48
411.316	319.48
411.76	331.19
412.205	260.97
412.649	310.12
413.093	305.44
413.538	314.8
413.982	317.14
414.426	338.21
414.87	347.57
415.314	321.82
415.758	317.14
416.202	324.16
416.646	305.44
417.09	319.48
417.534	378
417.978	300.76
418.421	317.14
418.865	317.14
419.309	342.89
419.752	331.19
420.196	291.4
420.639	342.89
421.083	314.8
421.526	303.1
421.969	326.5
422.412	328.85
422.856	354.59
423.299	303.1
423.742	279.69
424.185	361.61
424.628	352.25
425.071	296.08
425.513	260.97
425.956	324.16
426.399	335.87
426.842	298.42
427.284	317.14
427.727	286.72
428.169	270.33
428.612	296.08
429.054	277.35
429.497	286.72
429.939	279.69
430.381	300.76
430.823	326.5
431.265	303.1
431.707	349.91
432.149	352.25
432.591	333.53
433.033	333.53
433.475	260.97
433.917	246.93
434.359	326.5
434.8	321.82
435.242	340.55
435.684	263.31
436.125	349.91
436.567	300.76
437.008	368.63
437.449	265.65
437.891	347.57
438.332	303.1
438.773	300.76
439.214	275.01
439.656	284.38
440.097	305.44
440.538	284.38
440.978	305.44
441.419	256.29
441.86	340.55
442.301	307.78
442.742	307.78
443.182	275.01
443.623	260.97
444.063	340.55
444.504	296.08
444.944	300.76
445.385	289.06
445.825	328.85
446.265	312.46
446.706	312.46
447.146	385.02
447.586	282.03
448.026	338.21
448.466	340.55
448.906	396.72
449.346	291.4
449.786	286.72
450.225	310.12
450.665	335.87
451.105	326.5
451.544	319.48
451.984	321.82
452.424	230.54
452.863	291.4
453.302	282.03
453.742	296.08
454.181	345.23
454.62	354.59
455.059	249.27
455.499	296.08
455.938	331.19
456.377	352.25
456.816	300.76
457.254	321.82
457.693	293.74
458.132	321.82
458.571	312.46
459.01	375.66
459.448	354.59
459.887	321.82
460.325	307.78
460.764	312.46
461.202	356.93
461.641	286.72
462.079	293.74
462.517	272.67
462.955	303.1
463.393	338.21
463.832	298.42
464.27	326.5
464.708	375.66
465.145	284.38
465.583	380.34
466.021	291.4
466.459	314.8
466.897	300.76
467.334	307.78
467.772	312.46
468.209	347.57
468.647	331.19
469.084	249.27
469.522	338.21
469.959	279.69
470.396	333.53
470.833	275.01
471.271	331.19
471.708	319.48
472.145	272.67
472.582	317.14
473.019	359.27
473.456	251.61
473.892	305.44
474.329	328.85
474.766	305.44
475.202	368.63
475.639	403.74
476.076	298.42
476.512	286.72
476.949	345.23
477.385	326.5
477.821	338.21
478.258	333.53
478.694	289.06
479.13	282.03
479.566	258.63
480.002	319.48
480.438	284.38
480.874	342.89
481.31	286.72
481.746	303.1
482.181	333.53
482.617	387.36
483.053	354.59
483.488	275.01
483.924	368.63
484.36	331.19
484.795	317.14
485.23	338.21
485.666	340.55
486.101	317.14
486.536	289.06
486.971	272.67
487.407	286.72
487.842	321.82
488.277	366.29
488.712	282.03
489.146	282.03
489.581	307.78
490.016	256.29
490.451	319.48
490.885	324.16
491.32	328.85
491.755	300.76
492.189	326.5
492.624	314.8
493.058	270.33
493.492	347.57
493.927	296.08
494.361	267.99
494.795	312.46
495.229	310.12
495.663	310.12
496.097	251.61
496.531	275.01
496.965	284.38
497.399	324.16
497.833	282.03
498.266	324.16
498.7	312.46
499.134	345.23
499.567	340.55
500.001	253.95
500.434	359.27
500.868	368.63
501.301	328.85
501.734	284.38
502.168	314.8
502.601	335.87
503.034	317.14
503.467	291.4
503.9	275.01
504.333	321.82
504.766	296.08
505.199	314.8
505.632	324.16
506.064	331.19
506.497	378
506.93	331.19
507.362	349.91
507.795	289.06
508.227	354.59
508.66	307.78
509.092	363.95
509.524	284.38
509.956	314.8
510.389	319.48
510.821	356.93
511.253	319.48
511.685	345.23
512.117	279.69
512.549	239.9
512.981	324.16
513.412	314.8
513.844	333.53
514.276	333.53
514.707	373.32
515.139	307.78
515.571	298.42
516.002	326.5
516.433	382.68
516.865	328.85
517.296	314.8
517.727	296.08
518.159	324.16
518.59	328.85
519.021	324.16
519.452	256.29
519.883	373.32
520.314	321.82
520.744	305.44
521.175	279.69
521.606	298.42
522.037	361.61
522.467	321.82
522.898	340.55
523.328	310.12
523.759	263.31
524.189	303.1
524.62	340.55
525.05	284.38
525.48	310.12
525.91	319.48
526.341	298.42
526.771	293.74
527.201	340.55
527.631	277.35
528.061	333.53
528.49	319.48
528.92	289.06
529.35	242.25
529.78	326.5
530.209	270.33
530.639	310.12
531.068	314.8
531.498	356.93
531.927	296.08
532.357	305.44
532.786	314.8
533.215	303.1
533.644	253.95
534.074	321.82
534.503	303.1
534.932	303.1
535.361	359.27
535.79	333.53
536.218	312.46
536.647	321.82
537.076	331.19
537.505	354.59
537.933	340.55
538.362	303.1
538.79	293.74
539.219	279.69
539.647	328.85
540.076	335.87
540.504	284.38
540.932	289.06
541.36	324.16
541.788	300.76
542.217	342.89
542.645	289.06
543.073	305.44
543.5	270.33
543.928	282.03
544.356	284.38
544.784	291.4
545.211	307.78
545.639	338.21
546.067	310.12
546.494	335.87
546.922	249.27
547.349	338.21
547.776	282.03
548.204	305.44
548.631	267.99
549.058	265.65
549.485	296.08
549.912	389.7
550.339	317.14
550.766	321.82
551.193	312.46
551.62	275.01
552.047	331.19
552.474	267.99
552.9	331.19
553.327	298.42
553.754	335.87
554.18	298.42
554.607	345.23
555.033	359.27
555.459	282.03
555.886	272.67
556.312	389.7
556.738	263.31
557.164	326.5
557.59	310.12
558.016	324.16
558.442	275.01
558.868	310.12
559.294	310.12
559.72	296.08
560.145	307.78
560.571	307.78
560.997	267.99
561.422	328.85
561.848	317.14
562.273	366.29
562.699	324.16
563.124	340.55
563.549	333.53
563.974	272.67
564.4	221.18
564.825	289.06
565.25	345.23
565.675	326.5
566.1	310.12
566.525	251.61
566.95	305.44
567.374	305.44
567.799	314.8
568.224	291.4
568.648	333.53
569.073	392.04
569.497	260.97
569.922	317.14
570.346	300.76
570.771	326.5
571.195	328.85
571.619	305.44
572.043	305.44
572.467	324.16
572.891	361.61
573.315	333.53
573.739	335.87
574.163	331.19
574.587	307.78
575.011	275.01
575.435	335.87
575.858	282.03
576.282	237.56
576.705	314.8
577.129	284.38
577.552	277.35
577.976	253.95
578.399	331.19
578.822	317.14
579.245	321.82
579.669	279.69
580.092	300.76
580.515	289.06
580.938	267.99
581.361	303.1
581.784	305.44
582.206	319.48
582.629	319.48
583.052	340.55
583.474	354.59
583.897	368.63
584.32	380.34
584.742	333.53
585.165	279.69
585.587	338.21
586.009	275.01
586.431	359.27
586.854	279.69
587.276	333.53
587.698	282.03
588.12	293.74
588.542	349.91
588.964	277.35
589.386	317.14
589.807	361.61
590.229	321.82
590.651	293.74
591.073	256.29
591.494	267.99
591.916	340.55
592.337	279.69
592.759	354.59
593.18	303.1
593.601	307.78
594.022	246.93
594.444	324.16
594.865	314.8
595.286	270.33
595.707	361.61
596.128	289.06
596.549	345.23
596.97	312.46
597.39	296.08
597.811	289.06
598.232	296.08
598.652	324.16
599.073	317.14
599.494	326.5
599.914	286.72
600.334	363.95
600.755	401.4
601.175	235.22
601.595	314.8
602.015	312.46
602.436	282.03
602.856	431.83
603.276	314.8
603.696	289.06
604.115	284.38
604.535	305.44
604.955	300.76
605.375	265.65
605.794	328.85
606.214	354.59
606.634	349.91
607.053	366.29
607.473	354.59
607.892	356.93
608.311	272.67
608.731	293.74
609.15	310.12
609.569	319.48
609.988	310.12
610.407	296.08
610.826	218.84
611.245	324.16
611.664	328.85
612.083	324.16
612.501	289.06
612.92	317.14
613.339	331.19
613.757	282.03
614.176	345.23
614.594	319.48
615.013	333.53
615.431	279.69
615.85	235.22
616.268	300.76
616.686	366.29
617.104	284.38
617.522	356.93
617.94	296.08
618.358	291.4
618.776	338.21
619.194	265.65
619.612	267.99
620.03	312.46
620.447	305.44
620.865	296.08
621.282	270.33
621.7	293.74
622.117	335.87
622.535	307.78
622.952	354.59
623.369	394.38
623.787	387.36
624.204	258.63
624.621	300.76
625.038	328.85
625.455	380.34
625.872	307.78
626.289	312.46
626.706	282.03
627.123	361.61
627.539	349.91
627.956	328.85
628.373	260.97
628.789	249.27
629.206	331.19
629.622	307.78
630.038	282.03
630.455	296.08
630.871	289.06
631.287	331.19
631.703	375.66
632.12	277.35
632.536	317.14
632.952	342.89
633.368	265.65
633.783	291.4
634.199	359.27
634.615	328.85
635.031	373.32
635.446	293.74
635.862	314.8
636.277	256.29
636.693	328.85
637.108	338.21
637.524	387.36
637.939	279.69
638.354	284.38
638.77	328.85
639.185	352.25
639.6	363.95
640.015	300.76
640.43	293.74
640.845	370.97
641.259	293.74
641.674	314.8
642.089	267.99
642.504	270.33
642.918	289.06
643.333	279.69
643.747	340.55
644.162	307.78
644.576	282.03
644.991	342.89
645.405	389.7
645.819	303.1
646.233	342.89
646.647	282.03
647.061	298.42
647.475	340.55
647.889	275.01
648.303	321.82
648.717	249.27
649.131	263.31
649.545	307.78
649.958	303.1
650.372	331.19
650.785	260.97
651.199	263.31
651.612	267.99
652.026	284.38
652.439	349.91
652.852	361.61
653.266	319.48
653.679	326.5
654.092	345.23
654.505	303.1
654.918	349.91
655.331	319.48
655.744	286.72
656.156	305.44
656.569	326.5
656.982	275.01
657.394	305.44
657.807	289.06
658.22	293.74
658.632	314.8
659.044	354.59
659.457	265.65
659.869	282.03
660.281	349.91
660.693	345.23
661.106	314.8
661.518	284.38
661.93	328.85
662.342	340.55
662.754	296.08
663.165	331.19
663.577	349.91
663.989	305.44
664.401	298.42
664.812	307.78
665.224	354.59
665.635	345.23
666.047	345.23
666.458	291.4
666.869	291.4
667.281	366.29
667.692	328.85
668.103	366.29
668.514	375.66
668.925	314.8
669.336	333.53
669.747	305.44
670.158	239.9
670.569	300.76
670.979	242.25
671.39	289.06
671.801	279.69
672.211	265.65
672.622	385.02
673.032	328.85
673.443	314.8
673.853	296.08
674.263	284.38
674.674	282.03
675.084	319.48
675.494	298.42
675.904	363.95
676.314	270.33
676.724	366.29
677.134	328.85
677.544	338.21
677.953	305.44
678.363	314.8
678.773	333.53
679.182	272.67
679.592	342.89
680.001	275.01
680.411	228.2
680.82	298.42
681.23	314.8
681.639	345.23
682.048	289.06
682.457	326.5
682.866	277.35
683.275	284.38
683.684	333.53
684.093	361.61
684.502	277.35
684.911	223.52
685.32	307.78
685.728	289.06
686.137	298.42
686.546	354.59
686.954	305.44
687.363	324.16
687.771	296.08
688.179	277.35
688.588	282.03
688.996	363.95
689.404	303.1
689.812	284.38
690.22	232.88
690.628	296.08
691.036	319.48
691.444	340.55
691.852	321.82
692.26	352.25
692.667	284.38
693.075	300.76
693.483	289.06
693.89	265.65
694.298	293.74
694.705	359.27
695.112	347.57
695.52	244.59
695.927	321.82
696.334	331.19
696.741	228.2
697.148	328.85
697.555	314.8
697.962	312.46
698.369	298.42
698.776	340.55
699.183	328.85
699.59	242.25
699.996	321.82
700.403	305.44
700.81	298.42
701.216	333.53
701.623	282.03
702.029	321.82
702.435	359.27
702.842	291.4
703.248	331.19
703.654	277.35
704.06	359.27
704.466	331.19
704.872	328.85
705.278	284.38
705.684	340.55
706.09	275.01
706.496	373.32
706.901	319.48
707.307	298.42
707.712	260.97
708.118	359.27
708.523	310.12
708.929	338.21
709.334	314.8
709.74	319.48
710.145	345.23
710.55	249.27
710.955	333.53
711.36	307.78
711.765	244.59
712.17	366.29
712.575	307.78
712.98	911.64
713.385	356.93
713.789	267.99
714.194	338.21
714.599	253.95
715.003	321.82
715.408	249.27
715.812	293.74
716.217	333.53
716.621	272.67
717.025	406.08
717.429	382.68
717.833	307.78
718.238	298.42
718.642	207.14
719.046	317.14
719.449	291.4
719.853	239.9
720.257	272.67
720.661	296.08
721.065	305.44
721.468	225.86
721.872	293.74
722.275	347.57
722.679	303.1
723.082	293.74
723.485	263.31
723.889	345.23
724.292	314.8
724.695	321.82
725.098	382.68
725.501	296.08
725.904	272.67
726.307	284.38
726.71	317.14
727.113	380.34
727.516	317.14
727.918	291.4
728.321	279.69
728.724	314.8
729.126	326.5
729.529	352.25
729.931	253.95
730.333	328.85
730.736	317.14
731.138	352.25
731.54	284.38
731.942	347.57
732.344	338.21
732.746	324.16
733.148	345.23
733.55	378
733.952	310.12
734.354	253.95
734.756	275.01
735.157	333.53
735.559	303.1
735.96	333.53
736.362	370.97
736.763	289.06
737.165	340.55
737.566	246.93
737.967	289.06
738.368	349.91
738.77	305.44
739.171	317.14
739.572	275.01
739.973	333.53
740.374	349.91
740.774	354.59
741.175	296.08
741.576	354.59
741.977	232.88
742.377	312.46
742.778	324.16
743.178	242.25
743.579	282.03
743.979	286.72
744.379	368.63
744.78	279.69
745.18	356.93
745.58	324.16
745.98	317.14
746.38	289.06
746.78	272.67
747.18	328.85
747.58	345.23
747.98	235.22
748.38	328.85
748.779	338.21
749.179	305.44
749.578	314.8
749.978	291.4
750.377	352.25
750.777	319.48
751.176	354.59
751.575	321.82
751.975	263.31
752.374	321.82
752.773	310.12
753.172	296.08
753.571	354.59
753.97	333.53
754.369	298.42
754.768	272.67
755.166	242.25
755.565	333.53
755.964	335.87
756.362	338.21
756.761	347.57
757.159	338.21
757.558	307.78
757.956	296.08
758.354	380.34
758.753	282.03
759.151	235.22
759.549	342.89
759.947	289.06
760.345	335.87
760.743	253.95
761.141	249.27
761.539	303.1
761.936	305.44
762.334	380.34
762.732	324.16
763.129	321.82
763.527	307.78
763.924	293.74
764.322	293.74
764.719	279.69
765.117	317.14
765.514	333.53
765.911	307.78
766.308	317.14
766.705	296.08
767.102	286.72
767.499	307.78
767.896	342.89
768.293	319.48
768.69	363.95
769.086	242.25
769.483	305.44
769.88	340.55
770.276	314.8
770.673	370.97
771.069	338.21
771.466	260.97
771.862	289.06
772.258	256.29
772.654	335.87
773.05	356.93
773.447	366.29
773.843	389.7
774.239	298.42
774.634	253.95
775.03	310.12
775.426	263.31
775.822	284.38
776.218	300.76
776.613	338.21
777.009	277.35
777.404	272.67
777.8	312.46
778.195	296.08
778.59	324.16
778.986	293.74
779.381	300.76
779.776	321.82
780.171	275.01
780.566	406.08
780.961	284.38
781.356	319.48
781.751	298.42
782.146	321.82
782.54	303.1
782.935	373.32
783.33	300.76
783.724	277.35
784.119	279.69
784.513	293.74
784.908	310.12
785.302	328.85
785.696	354.59
786.09	310.12
786.485	321.82
786.879	338.21
787.273	267.99
787.667	310.12
788.061	296.08
788.454	363.95
788.848	291.4
789.242	321.82
789.636	282.03
790.029	293.74
790.423	314.8
790.816	263.31
791.21	331.19
791.603	356.93
791.997	312.46
792.39	345.23
792.783	310.12
793.176	293.74
793.569	258.63
793.962	307.78
794.355	324.16
794.748	347.57
795.141	265.65
795.534	326.5
795.927	342.89
796.319	293.74
796.712	352.25
797.105	321.82
797.497	356.93
797.89	326.5
798.282	363.95
798.674	200.12
799.067	307.78
799.459	235.22
799.851	347.57
800.243	296.08
800.635	246.93
801.027	267.99
801.419	310.12
801.811	253.95
802.203	303.1
802.594	335.87
802.986	363.95
803.378	333.53
803.769	296.08
804.161	321.82
804.552	324.16
804.944	300.76
805.335	378
805.726	345.23
806.118	312.46
806.509	321.82
806.9	352.25
807.291	349.91
807.682	319.48
808.073	279.69
808.464	312.46
808.855	293.74
809.245	284.38
809.636	249.27
810.027	333.53
810.417	303.1
810.808	232.88
811.198	298.42
811.589	289.06
811.979	326.5
812.369	321.82
812.759	286.72
813.15	319.48
813.54	249.27
813.93	300.76
814.32	218.84
814.71	321.82
815.1	282.03
815.489	349.91
815.879	272.67
816.269	378
816.658	340.55
817.048	328.85
817.438	331.19
817.827	277.35
818.216	363.95
818.606	298.42
818.995	300.76
819.384	303.1
819.773	340.55
820.163	305.44
820.552	319.48
820.941	333.53
821.33	321.82
821.718	260.97
822.107	289.06
822.496	286.72
822.885	284.38
823.273	298.42
823.662	310.12
824.05	263.31
824.439	293.74
824.827	349.91
825.216	328.85
825.604	319.48
825.992	300.76
826.38	307.78
826.768	251.61
827.156	286.72
827.544	342.89
827.932	333.53
828.32	267.99
828.708	230.54
829.096	321.82
829.483	279.69
829.871	373.32
830.259	289.06
830.646	331.19
831.034	335.87
831.421	333.53
831.808	310.12
832.196	305.44
832.583	303.1
832.97	249.27
833.357	349.91
833.744	310.12
834.131	275.01
834.518	312.46
834.905	307.78
835.292	307.78
835.678	296.08
836.065	340.55
836.452	246.93
836.838	291.4
837.225	338.21
837.611	232.88
837.998	237.56
838.384	303.1
838.77	324.16
839.157	305.44
839.543	282.03
839.929	349.91
840.315	293.74
840.701	321.82
841.087	307.78
841.473	296.08
841.858	289.06
842.244	265.65
842.63	335.87
843.015	300.76
843.401	373.32
843.787	305.44
844.172	270.33
844.557	314.8
844.943	324.16
845.328	361.61
845.713	293.74
846.098	296.08
846.483	321.82
846.868	321.82
847.253	293.74
847.638	354.59
848.023	331.19
848.408	345.23
848.793	298.42
849.177	312.46
849.562	296.08
849.947	317.14
850.331	333.53
850.715	305.44
851.1	321.82
851.484	326.5
851.868	296.08
852.253	303.1
852.637	279.69
853.021	265.65
853.405	253.95
853.789	256.29
854.173	326.5
854.557	291.4
854.94	260.97
855.324	310.12
855.708	307.78
856.091	249.27
856.475	263.31
856.858	305.44
857.242	347.57
857.625	356.93
858.009	321.82
858.392	300.76
858.775	373.32
859.158	263.31
859.541	286.72
859.924	312.46
860.307	403.74
860.69	225.86
861.073	310.12
861.456	326.5
861.838	246.93
862.221	230.54
862.604	296.08
862.986	375.66
863.369	258.63
863.751	307.78
864.133	251.61
864.516	256.29
864.898	347.57
865.28	293.74
865.662	249.27
866.044	310.12
866.426	260.97
866.808	319.48
867.19	223.52
867.572	293.74
867.954	305.44
868.336	314.8
868.717	310.12
869.099	342.89
869.48	284.38
869.862	270.33
870.243	275.01
870.625	352.25
871.006	312.46
871.387	303.1
871.768	347.57
872.149	321.82
872.53	289.06
872.911	307.78
873.292	279.69
873.673	286.72
874.054	335.87
874.435	347.57
874.815	305.44
875.196	324.16
875.577	298.42
875.957	230.54
876.338	314.8
876.718	331.19
877.098	284.38
877.479	356.93
877.859	382.68
878.239	335.87
878.619	298.42
878.999	260.97
879.379	305.44
879.759	347.57
880.139	286.72
880.519	291.4
880.898	342.89
881.278	260.97
881.658	305.44
882.037	312.46
882.417	244.59
882.796	335.87
883.176	338.21
883.555	284.38
883.934	307.78
884.313	253.95
884.693	328.85
885.072	286.72
885.451	260.97
885.83	296.08
886.209	258.63
886.587	296.08
886.966	289.06
887.345	356.93
887.724	359.27
888.102	298.42
888.481	284.38
888.859	342.89
889.238	324.16
889.616	303.1
889.994	286.72
890.373	354.59
890.751	270.33
891.129	312.46
891.507	321.82
891.885	303.1
892.263	310.12
892.641	263.31
893.019	275.01
893.396	256.29
893.774	298.42
894.152	221.18
894.529	291.4
894.907	284.38
895.284	284.38
895.662	286.72
896.039	298.42
896.416	225.86
896.794	303.1
897.171	298.42
897.548	303.1
897.925	356.93
898.302	310.12
898.679	284.38
899.056	305.44
899.433	289.06
899.809	286.72
900.186	324.16
900.563	359.27
900.939	321.82
901.316	272.67
901.692	237.56
902.069	326.5
902.445	345.23
902.821	331.19
903.197	277.35
903.574	298.42
903.95	286.72
904.326	352.25
904.702	293.74
905.078	354.59
905.454	338.21
905.829	321.82
906.205	303.1
906.581	279.69
906.956	291.4
907.332	239.9
907.707	289.06
908.083	270.33
908.458	235.22
908.833	286.72
909.209	345.23
909.584	286.72
909.959	244.59
910.334	267.99
910.709	317.14
911.084	300.76
911.459	359.27
911.834	300.76
912.209	298.42
912.583	300.76
912.958	296.08
913.333	359.27
913.707	296.08
914.082	319.48
914.456	277.35
914.83	317.14
915.205	368.63
915.579	307.78
915.953	300.76
916.327	298.42
916.701	305.44
917.075	312.46
917.449	319.48
917.823	324.16
918.197	296.08
918.571	303.1
918.944	359.27
919.318	310.12
919.692	298.42
920.065	317.14
920.438	307.78
920.812	265.65
921.185	333.53
921.558	380.34
921.932	267.99
922.305	267.99
922.678	298.42
923.051	275.01
923.424	340.55
923.797	340.55
924.17	298.42
924.542	342.89
924.915	321.82
925.288	359.27
925.661	279.69
926.033	272.67
926.406	279.69
926.778	237.56
927.15	289.06
927.523	277.35
927.895	296.08
928.267	296.08
928.639	289.06
929.011	333.53
929.383	293.74
929.755	312.46
930.127	298.42
930.499	282.03
930.871	312.46
931.242	317.14
931.614	298.42
931.986	239.9
932.357	296.08
932.729	260.97
933.1	300.76
933.471	352.25
933.843	293.74
934.214	284.38
934.585	333.53
934.956	342.89
935.327	289.06
935.698	246.93
936.069	270.33
936.44	321.82
936.811	321.82
937.182	328.85
937.552	354.59
937.923	305.44
938.293	303.1
938.664	293.74
939.034	244.59
939.405	300.76
939.775	232.88
940.145	298.42
940.516	349.91
940.886	319.48
941.256	267.99
941.626	263.31
941.996	258.63
942.366	359.27
942.735	282.03
943.105	223.52
943.475	258.63
943.845	345.23
944.214	312.46
944.584	314.8
944.953	319.48
945.323	223.52
945.692	389.7
946.061	354.59
946.43	303.1
946.8	333.53
947.169	267.99
947.538	331.19
947.907	258.63
948.276	298.42
948.645	293.74
949.013	289.06
949.382	349.91
949.751	293.74
950.119	370.97
950.488	363.95
950.857	235.22
951.225	256.29
951.593	335.87
951.962	279.69
952.33	314.8
952.698	272.67
953.066	354.59
953.434	277.35
953.802	300.76
954.17	260.97
954.538	361.61
954.906	319.48
955.274	321.82
955.642	282.03
956.009	310.12
956.377	359.27
956.744	272.67
957.112	321.82
957.479	305.44
957.847	310.12
958.214	312.46
958.581	352.25
958.948	303.1
959.315	345.23
959.683	291.4
960.05	214.16
960.416	354.59
960.783	307.78
961.15	291.4
961.517	338.21
961.884	263.31
962.25	272.67
962.617	282.03
962.983	328.85
963.35	286.72
963.716	352.25
964.082	310.12
964.449	263.31
964.815	282.03
965.181	284.38
965.547	298.42
965.913	282.03
966.279	300.76
966.645	328.85
967.011	303.1
967.377	305.44
967.742	389.7
968.108	324.16
968.474	300.76
968.839	335.87
969.205	373.32
969.57	298.42
969.935	307.78
970.301	347.57
970.666	310.12
971.031	300.76
971.396	296.08
971.761	305.44
972.126	282.03
972.491	314.8
972.856	352.25
973.221	275.01
973.586	307.78
973.95	328.85
974.315	265.65
974.679	317.14
975.044	331.19
975.408	314.8
975.773	277.35
976.137	363.95
976.501	314.8
976.866	331.19
977.23	312.46
977.594	354.59
977.958	253.95
978.322	279.69
978.686	270.33
979.049	317.14
979.413	314.8
979.777	333.53
980.141	272.67
980.504	347.57
980.868	319.48
981.231	321.82
981.595	265.65
981.958	296.08
982.321	291.4
982.684	300.76
983.048	331.19
983.411	260.97
983.774	265.65
984.137	333.53
984.5	300.76
984.862	270.33
985.225	352.25
985.588	237.56
985.951	312.46
986.313	305.44
986.676	300.76
987.038	363.95
987.401	275.01
987.763	256.29
988.125	279.69
988.488	305.44
988.85	342.89
989.212	293.74
989.574	293.74
989.936	333.53
990.298	387.36
990.66	312.46
991.022	289.06
991.383	279.69
991.745	312.46
992.107	317.14
992.468	335.87
992.83	333.53
993.191	310.12
993.553	349.91
993.914	277.35
994.275	347.57
994.637	359.27
994.998	314.8
995.359	373.32
995.72	331.19
996.081	300.76
996.442	363.95
996.803	317.14
997.163	258.63
997.524	270.33
997.885	347.57
998.245	328.85
998.606	328.85
998.966	228.2
999.327	314.8
999.687	347.57
1000.047	338.21
1000.408	272.67
1000.768	307.78
1001.128	373.32
1001.488	296.08
1001.848	272.67
1002.208	328.85
1002.568	272.67
1002.927	328.85
1003.287	270.33
1003.647	310.12
1004.007	277.35
1004.366	328.85
1004.726	314.8
1005.085	267.99
1005.444	328.85
1005.804	326.5
1006.163	249.27
1006.522	270.33
1006.881	331.19
1007.24	286.72
1007.599	282.03
1007.958	265.65
1008.317	324.16
1008.676	260.97
1009.035	289.06
1009.393	277.35
1009.752	260.97
1010.111	307.78
1010.469	277.35
1010.828	385.02
1011.186	317.14
1011.544	282.03
1011.903	305.44
1012.261	298.42
1012.619	277.35
1012.977	356.93
1013.335	282.03
1013.693	331.19
1014.051	347.57
1014.409	279.69
1014.767	352.25
1015.124	347.57
1015.482	289.06
1015.84	300.76
1016.197	300.76
1016.555	326.5
1016.912	286.72
1017.269	328.85
1017.627	356.93
1017.984	253.95
1018.341	291.4
1018.698	307.78
1019.055	319.48
1019.412	314.8
1019.769	324.16
1020.126	310.12
1020.483	239.9
1020.84	267.99
1021.196	289.06
1021.553	289.06
1021.909	310.12
1022.266	345.23
1022.622	251.61
1022.979	338.21
1023.335	385.02
1023.691	296.08
1024.047	282.03
1024.404	366.29
1024.76	305.44
1025.116	300.76
1025.472	251.61
1025.827	305.44
1026.183	263.31
1026.539	326.5
1026.895	338.21
1027.25	333.53
1027.606	331.19
1027.961	291.4
1028.317	300.76
1028.672	347.57
1029.028	270.33
1029.383	284.38
1029.738	324.16
1030.093	282.03
1030.448	300.76
1030.803	291.4
1031.158	251.61
1031.513	312.46
1031.868	310.12
1032.223	282.03
1032.577	319.48
1032.932	272.67
1033.287	298.42
1033.641	253.95
1033.996	272.67
1034.35	338.21
1034.704	286.72
1035.059	286.72
1035.413	286.72
1035.767	286.72
1036.121	286.72
