Data from Al_FLMS009871__502__14-38-38-227.txt Node

Date: Fri Mar 08 14:38:38 CST 2024
User: pe5414po
Spectrometer: FLMS00987
Trigger mode: 0
Integration Time (sec): 1.000000E-1
Scans to average: 1
Electric dark correction enabled: true
Nonlinearity correction enabled: false
Boxcar width: 0
XAxis mode: Wavelengths
Number of Pixels in Spectrum: 2048
>>>>>Begin Spectral Data<<<<<
188.938	-75.34
189.409	-75.34
189.879	-75.34
190.349	-145.55
190.819	-89.38
191.29	-61.29
191.76	-108.1
192.23	-61.29
192.7	-82.36
193.17	-12.14
193.64	-44.91
194.109	-58.95
194.579	29.99
195.049	-47.25
195.519	-2.78
195.988	13.6
196.458	62.76
196.927	41.69
197.397	93.18
197.866	62.76
198.336	175.1
198.805	114.25
199.274	203.19
199.744	200.85
200.213	165.74
200.682	179.78
201.151	186.8
201.62	179.78
202.089	250
202.558	231.27
203.027	252.34
203.495	257.02
203.964	289.79
204.433	273.4
204.902	292.13
205.37	350.64
205.839	287.45
206.307	280.43
206.776	317.87
207.244	294.47
207.712	282.77
208.181	306.17
208.649	294.47
209.117	331.92
209.585	296.81
210.053	303.83
210.521	301.49
210.989	245.32
211.457	273.4
211.925	301.49
212.393	320.21
212.861	233.61
213.328	303.83
213.796	275.74
214.264	280.43
214.731	294.47
215.199	336.6
215.666	310.85
216.133	207.87
216.601	294.47
217.068	282.77
217.535	247.66
218.003	285.11
218.47	261.7
218.937	268.72
219.404	261.7
219.871	306.17
220.338	278.08
220.805	242.98
221.271	310.85
221.738	261.7
222.205	306.17
222.671	250
223.138	210.21
223.605	289.79
224.071	271.06
224.538	250
225.004	268.72
225.47	282.77
225.937	303.83
226.403	252.34
226.869	254.68
227.335	287.45
227.801	317.87
228.267	193.83
228.733	247.66
229.199	266.38
229.665	282.77
230.131	224.25
230.597	240.64
231.062	315.53
231.528	264.04
231.994	271.06
232.459	252.34
232.925	301.49
233.39	264.04
233.856	224.25
234.321	308.51
234.786	275.74
235.252	252.34
235.717	275.74
236.182	303.83
236.647	261.7
237.112	259.36
237.577	275.74
238.042	268.72
238.507	292.13
238.972	275.74
239.436	301.49
239.901	338.94
240.366	264.04
240.83	219.57
241.295	264.04
241.76	247.66
242.224	271.06
242.688	261.7
243.153	278.08
243.617	285.11
244.081	268.72
244.545	285.11
245.01	280.43
245.474	306.17
245.938	320.21
246.402	268.72
246.866	268.72
247.33	294.47
247.793	334.26
248.257	233.61
248.721	235.96
249.185	240.64
249.648	273.4
250.112	240.64
250.575	242.98
251.039	214.89
251.502	324.9
251.965	271.06
252.429	235.96
252.892	341.28
253.355	303.83
253.818	292.13
254.281	364.68
254.744	303.83
255.207	282.77
255.67	231.27
256.133	317.87
256.596	205.53
257.059	287.45
257.522	242.98
257.984	268.72
258.447	271.06
258.909	299.15
259.372	259.36
259.834	285.11
260.297	254.68
260.759	289.79
261.221	275.74
261.684	278.08
262.146	315.53
262.608	257.02
263.07	247.66
263.532	301.49
263.994	334.26
264.456	301.49
264.918	259.36
265.38	296.81
265.842	261.7
266.303	226.59
266.765	266.38
267.227	334.26
267.688	306.17
268.15	261.7
268.611	308.51
269.072	306.17
269.534	306.17
269.995	264.04
270.456	294.47
270.918	224.25
271.379	296.81
271.84	264.04
272.301	327.24
272.762	250
273.223	266.38
273.684	235.96
274.144	313.19
274.605	261.7
275.066	301.49
275.527	334.26
275.987	210.21
276.448	292.13
276.908	266.38
277.369	345.96
277.829	264.04
278.289	282.77
278.75	233.61
279.21	203.19
279.67	299.15
280.13	285.11
280.59	303.83
281.05	327.24
281.51	301.49
281.97	242.98
282.43	278.08
282.89	306.17
283.35	317.87
283.809	257.02
284.269	238.3
284.729	320.21
285.188	324.9
285.648	266.38
286.107	254.68
286.567	221.91
287.026	322.56
287.485	273.4
287.944	268.72
288.404	317.87
288.863	306.17
289.322	273.4
289.781	322.56
290.24	245.32
290.699	313.19
291.158	287.45
291.616	280.43
292.075	273.4
292.534	308.51
292.992	357.66
293.451	306.17
293.91	331.92
294.368	285.11
294.827	341.28
295.285	247.66
295.743	296.81
296.202	324.9
296.66	231.27
297.118	278.08
297.576	334.26
298.034	334.26
298.492	301.49
298.95	338.94
299.408	292.13
299.866	301.49
300.324	301.49
300.781	336.6
301.239	350.64
301.697	303.83
302.154	289.79
302.612	317.87
303.069	322.56
303.527	301.49
303.984	254.68
304.441	214.89
304.899	285.11
305.356	240.64
305.813	294.47
306.27	294.47
306.727	257.02
307.184	278.08
307.641	306.17
308.098	250
308.555	329.58
309.012	264.04
309.468	329.58
309.925	315.53
310.382	287.45
310.838	257.02
311.295	317.87
311.751	308.51
312.208	259.36
312.664	348.3
313.12	287.45
313.577	285.11
314.033	360
314.489	245.32
314.945	299.15
315.401	282.77
315.857	310.85
316.313	296.81
316.769	303.83
317.225	266.38
317.681	341.28
318.136	285.11
318.592	292.13
319.048	273.4
319.503	273.4
319.959	329.58
320.414	329.58
320.869	280.43
321.325	289.79
321.78	336.6
322.235	303.83
322.691	303.83
323.146	271.06
323.601	341.28
324.056	355.32
324.511	282.77
324.966	273.4
325.421	317.87
325.875	343.62
326.33	308.51
326.785	336.6
327.24	327.24
327.694	275.74
328.149	296.81
328.603	345.96
329.058	299.15
329.512	289.79
329.966	278.08
330.421	343.62
330.875	341.28
331.329	303.83
331.783	313.19
332.237	310.85
332.691	273.4
333.145	259.36
333.599	259.36
334.053	310.85
334.507	303.83
334.96	289.79
335.414	287.45
335.868	357.66
336.321	303.83
336.775	315.53
337.228	327.24
337.682	320.21
338.135	317.87
338.588	343.62
339.042	301.49
339.495	336.6
339.948	336.6
340.401	317.87
340.854	310.85
341.307	313.19
341.76	313.19
342.213	308.51
342.666	271.06
343.119	294.47
343.571	282.77
344.024	324.9
344.477	257.02
344.929	317.87
345.382	264.04
345.834	242.98
346.287	301.49
346.739	278.08
347.191	303.83
347.644	261.7
348.096	345.96
348.548	299.15
349	240.64
349.452	306.17
349.904	299.15
350.356	331.92
350.808	275.74
351.26	301.49
351.711	264.04
352.163	257.02
352.615	301.49
353.066	315.53
353.518	257.02
353.969	308.51
354.421	315.53
354.872	303.83
355.324	310.85
355.775	348.3
356.226	378.73
356.677	320.21
357.128	338.94
357.579	266.38
358.03	271.06
358.481	273.4
358.932	327.24
359.383	271.06
359.834	371.71
360.285	313.19
360.735	294.47
361.186	331.92
361.637	336.6
362.087	240.64
362.538	240.64
362.988	320.21
363.438	296.81
363.889	313.19
364.339	296.81
364.789	334.26
365.239	313.19
365.689	320.21
366.139	296.81
366.589	315.53
367.039	259.36
367.489	334.26
367.939	313.19
368.389	334.26
368.839	329.58
369.288	306.17
369.738	264.04
370.187	329.58
370.637	292.13
371.086	369.37
371.536	273.4
371.985	257.02
372.434	360
372.884	369.37
373.333	315.53
373.782	331.92
374.231	282.77
374.68	343.62
375.129	324.9
375.578	348.3
376.027	287.45
376.475	285.11
376.924	310.85
377.373	315.53
377.822	303.83
378.27	315.53
378.719	338.94
379.167	331.92
379.616	329.58
380.064	315.53
380.512	320.21
380.961	271.06
381.409	334.26
381.857	317.87
382.305	287.45
382.753	336.6
383.201	303.83
383.649	334.26
384.097	336.6
384.545	334.26
384.992	303.83
385.44	306.17
385.888	296.81
386.335	275.74
386.783	287.45
387.231	287.45
387.678	259.36
388.125	282.77
388.573	385.75
389.02	268.72
389.467	292.13
389.914	320.21
390.362	355.32
390.809	294.47
391.256	306.17
391.703	238.3
392.15	327.24
392.596	289.79
393.043	264.04
393.49	324.9
393.937	371.71
394.383	322.56
394.83	350.64
395.276	355.32
395.723	306.17
396.169	268.72
396.616	287.45
397.062	287.45
397.508	341.28
397.954	320.21
398.401	338.94
398.847	315.53
399.293	268.72
399.739	306.17
400.185	336.6
400.631	317.87
401.076	329.58
401.522	292.13
401.968	292.13
402.414	336.6
402.859	289.79
403.305	289.79
403.75	355.32
404.196	355.32
404.641	275.74
405.086	261.7
405.532	228.93
405.977	313.19
406.422	261.7
406.867	334.26
407.312	275.74
407.757	385.75
408.202	357.66
408.647	313.19
409.092	320.21
409.537	348.3
409.982	261.7
410.426	345.96
410.871	338.94
411.316	266.38
411.76	360
412.205	303.83
412.649	257.02
413.093	303.83
413.538	315.53
413.982	240.64
414.426	320.21
414.87	259.36
415.314	292.13
415.758	324.9
416.202	278.08
416.646	294.47
417.09	278.08
417.534	322.56
417.978	292.13
418.421	287.45
418.865	306.17
419.309	287.45
419.752	301.49
420.196	350.64
420.639	324.9
421.083	301.49
421.526	310.85
421.969	317.87
422.412	296.81
422.856	315.53
423.299	247.66
423.742	331.92
424.185	374.05
424.628	278.08
425.071	254.68
425.513	282.77
425.956	343.62
426.399	289.79
426.842	259.36
427.284	322.56
427.727	299.15
428.169	278.08
428.612	313.19
429.054	273.4
429.497	348.3
429.939	294.47
430.381	334.26
430.823	334.26
431.265	280.43
431.707	289.79
432.149	348.3
432.591	357.66
433.033	254.68
433.475	294.47
433.917	345.96
434.359	322.56
434.8	299.15
435.242	341.28
435.684	381.07
436.125	303.83
436.567	329.58
437.008	313.19
437.449	343.62
437.891	324.9
438.332	352.98
438.773	266.38
439.214	338.94
439.656	334.26
440.097	348.3
440.538	310.85
440.978	329.58
441.419	317.87
441.86	245.32
442.301	294.47
442.742	331.92
443.182	355.32
443.623	275.74
444.063	327.24
444.504	329.58
444.944	292.13
445.385	285.11
445.825	292.13
446.265	289.79
446.706	341.28
447.146	322.56
447.586	292.13
448.026	303.83
448.466	322.56
448.906	348.3
449.346	259.36
449.786	317.87
450.225	287.45
450.665	338.94
451.105	285.11
451.544	390.43
451.984	345.96
452.424	329.58
452.863	266.38
453.302	287.45
453.742	292.13
454.181	303.83
454.62	289.79
455.059	292.13
455.499	296.81
455.938	331.92
456.377	334.26
456.816	271.06
457.254	369.37
457.693	343.62
458.132	334.26
458.571	371.71
459.01	360
459.448	329.58
459.887	264.04
460.325	329.58
460.764	301.49
461.202	212.55
461.641	313.19
462.079	308.51
462.517	294.47
462.955	308.51
463.393	278.08
463.832	315.53
464.27	308.51
464.708	315.53
465.145	350.64
465.583	301.49
466.021	367.03
466.459	242.98
466.897	324.9
467.334	306.17
467.772	345.96
468.209	331.92
468.647	341.28
469.084	292.13
469.522	348.3
469.959	280.43
470.396	306.17
470.833	329.58
471.271	327.24
471.708	322.56
472.145	303.83
472.582	338.94
473.019	271.06
473.456	303.83
473.892	259.36
474.329	315.53
474.766	350.64
475.202	285.11
475.639	282.77
476.076	329.58
476.512	329.58
476.949	282.77
477.385	268.72
477.821	388.09
478.258	303.83
478.694	285.11
479.13	289.79
479.566	320.21
480.002	310.85
480.438	287.45
480.874	278.08
481.31	331.92
481.746	233.61
482.181	285.11
482.617	338.94
483.053	296.81
483.488	273.4
483.924	289.79
484.36	296.81
484.795	266.38
485.23	273.4
485.666	308.51
486.101	299.15
486.536	259.36
486.971	357.66
487.407	271.06
487.842	289.79
488.277	303.83
488.712	254.68
489.146	299.15
489.581	355.32
490.016	289.79
490.451	282.77
490.885	308.51
491.32	355.32
491.755	294.47
492.189	355.32
492.624	336.6
493.058	327.24
493.492	266.38
493.927	324.9
494.361	308.51
494.795	331.92
495.229	308.51
495.663	329.58
496.097	357.66
496.531	322.56
496.965	371.71
497.399	317.87
497.833	299.15
498.266	294.47
498.7	343.62
499.134	264.04
499.567	360
500.001	350.64
500.434	324.9
500.868	362.34
501.301	271.06
501.734	278.08
502.168	268.72
502.601	338.94
503.034	301.49
503.467	233.61
503.9	334.26
504.333	324.9
504.766	252.34
505.199	322.56
505.632	271.06
506.064	264.04
506.497	310.85
506.93	322.56
507.362	357.66
507.795	313.19
508.227	345.96
508.66	285.11
509.092	287.45
509.524	313.19
509.956	320.21
510.389	294.47
510.821	357.66
511.253	362.34
511.685	278.08
512.117	275.74
512.549	376.39
512.981	336.6
513.412	329.58
513.844	301.49
514.276	334.26
514.707	369.37
515.139	308.51
515.571	266.38
516.002	383.41
516.433	329.58
516.865	268.72
517.296	280.43
517.727	348.3
518.159	458.31
518.59	341.28
519.021	254.68
519.452	252.34
519.883	285.11
520.314	327.24
520.744	301.49
521.175	331.92
521.606	355.32
522.037	301.49
522.467	289.79
522.898	355.32
523.328	315.53
523.759	271.06
524.189	308.51
524.62	275.74
525.05	360
525.48	320.21
525.91	266.38
526.341	341.28
526.771	306.17
527.201	324.9
527.631	327.24
528.061	301.49
528.49	390.43
528.92	315.53
529.35	315.53
529.78	303.83
530.209	303.83
530.639	278.08
531.068	296.81
531.498	324.9
531.927	376.39
532.357	278.08
532.786	329.58
533.215	306.17
533.644	343.62
534.074	285.11
534.503	292.13
534.932	285.11
535.361	268.72
535.79	259.36
536.218	292.13
536.647	313.19
537.076	310.85
537.505	273.4
537.933	324.9
538.362	317.87
538.79	273.4
539.219	303.83
539.647	331.92
540.076	306.17
540.504	303.83
540.932	247.66
541.36	245.32
541.788	315.53
542.217	329.58
542.645	292.13
543.073	352.98
543.5	308.51
543.928	320.21
544.356	294.47
544.784	322.56
545.211	273.4
545.639	261.7
546.067	294.47
546.494	329.58
546.922	352.98
547.349	275.74
547.776	360
548.204	259.36
548.631	313.19
549.058	348.3
549.485	310.85
549.912	324.9
550.339	352.98
550.766	310.85
551.193	360
551.62	308.51
552.047	306.17
552.474	343.62
552.9	294.47
553.327	362.34
553.754	350.64
554.18	301.49
554.607	343.62
555.033	338.94
555.459	324.9
555.886	334.26
556.312	280.43
556.738	343.62
557.164	327.24
557.59	409.15
558.016	296.81
558.442	317.87
558.868	273.4
559.294	313.19
559.72	320.21
560.145	381.07
560.571	285.11
560.997	289.79
561.422	273.4
561.848	331.92
562.273	301.49
562.699	315.53
563.124	257.02
563.549	336.6
563.974	324.9
564.4	317.87
564.825	264.04
565.25	324.9
565.675	322.56
566.1	315.53
566.525	289.79
566.95	364.68
567.374	296.81
567.799	352.98
568.224	292.13
568.648	247.66
569.073	294.47
569.497	348.3
569.922	287.45
570.346	341.28
570.771	292.13
571.195	306.17
571.619	360
572.043	292.13
572.467	334.26
572.891	303.83
573.315	315.53
573.739	385.75
574.163	350.64
574.587	352.98
575.011	292.13
575.435	282.77
575.858	364.68
576.282	338.94
576.705	306.17
577.129	280.43
577.552	313.19
577.976	350.64
578.399	247.66
578.822	362.34
579.245	350.64
579.669	287.45
580.092	268.72
580.515	306.17
580.938	306.17
581.361	334.26
581.784	352.98
582.206	250
582.629	292.13
583.052	357.66
583.474	362.34
583.897	334.26
584.32	250
584.742	299.15
585.165	299.15
585.587	296.81
586.009	367.03
586.431	343.62
586.854	355.32
587.276	294.47
587.698	338.94
588.12	313.19
588.542	334.26
588.964	360
589.386	334.26
589.807	360
590.229	315.53
590.651	324.9
591.073	334.26
591.494	296.81
591.916	367.03
592.337	273.4
592.759	259.36
593.18	292.13
593.601	301.49
594.022	392.77
594.444	327.24
594.865	250
595.286	266.38
595.707	299.15
596.128	364.68
596.549	336.6
596.97	338.94
597.39	292.13
597.811	313.19
598.232	308.51
598.652	238.3
599.073	285.11
599.494	247.66
599.914	324.9
600.334	294.47
600.755	324.9
601.175	310.85
601.595	292.13
602.015	362.34
602.436	343.62
602.856	474.69
603.276	327.24
603.696	322.56
604.115	348.3
604.535	329.58
604.955	334.26
605.375	308.51
605.794	273.4
606.214	313.19
606.634	331.92
607.053	338.94
607.473	369.37
607.892	280.43
608.311	296.81
608.731	292.13
609.15	275.74
609.569	278.08
609.988	266.38
610.407	273.4
610.826	355.32
611.245	259.36
611.664	367.03
612.083	273.4
612.501	355.32
612.92	322.56
613.339	338.94
613.757	275.74
614.176	331.92
614.594	350.64
615.013	324.9
615.431	247.66
615.85	301.49
616.268	306.17
616.686	324.9
617.104	273.4
617.522	301.49
617.94	289.79
618.358	338.94
618.776	296.81
619.194	233.61
619.612	317.87
620.03	242.98
620.447	285.11
620.865	315.53
621.282	360
621.7	299.15
622.117	345.96
622.535	306.17
622.952	310.85
623.369	250
623.787	280.43
624.204	313.19
624.621	334.26
625.038	364.68
625.455	306.17
625.872	294.47
626.289	268.72
626.706	273.4
627.123	280.43
627.539	343.62
627.956	254.68
628.373	296.81
628.789	341.28
629.206	345.96
629.622	338.94
630.038	308.51
630.455	301.49
630.871	367.03
631.287	345.96
631.703	257.02
632.12	275.74
632.536	327.24
632.952	327.24
633.368	336.6
633.783	352.98
634.199	306.17
634.615	331.92
635.031	285.11
635.446	280.43
635.862	348.3
636.277	338.94
636.693	296.81
637.108	306.17
637.524	364.68
637.939	313.19
638.354	350.64
638.77	292.13
639.185	320.21
639.6	341.28
640.015	324.9
640.43	231.27
640.845	308.51
641.259	299.15
641.674	315.53
642.089	329.58
642.504	282.77
642.918	261.7
643.333	252.34
643.747	217.23
644.162	294.47
644.576	317.87
644.991	317.87
645.405	355.32
645.819	345.96
646.233	320.21
646.647	303.83
647.061	266.38
647.475	303.83
647.889	322.56
648.303	327.24
648.717	306.17
649.131	310.85
649.545	348.3
649.958	292.13
650.372	271.06
650.785	306.17
651.199	313.19
651.612	303.83
652.026	299.15
652.439	341.28
652.852	296.81
653.266	282.77
653.679	343.62
654.092	322.56
654.505	348.3
654.918	343.62
655.331	294.47
655.744	254.68
656.156	273.4
656.569	308.51
656.982	362.34
657.394	385.75
657.807	275.74
658.22	355.32
658.632	331.92
659.044	264.04
659.457	266.38
659.869	301.49
660.281	308.51
660.693	329.58
661.106	308.51
661.518	315.53
661.93	257.02
662.342	285.11
662.754	313.19
663.165	369.37
663.577	324.9
663.989	324.9
664.401	371.71
664.812	315.53
665.224	329.58
665.635	329.58
666.047	310.85
666.458	296.81
666.869	301.49
667.281	280.43
667.692	345.96
668.103	345.96
668.514	320.21
668.925	336.6
669.336	313.19
669.747	327.24
670.158	322.56
670.569	327.24
670.979	345.96
671.39	320.21
671.801	341.28
672.211	287.45
672.622	294.47
673.032	285.11
673.443	303.83
673.853	371.71
674.263	348.3
674.674	292.13
675.084	338.94
675.494	338.94
675.904	315.53
676.314	341.28
676.724	336.6
677.134	303.83
677.544	360
677.953	324.9
678.363	310.85
678.773	350.64
679.182	329.58
679.592	292.13
680.001	296.81
680.411	261.7
680.82	301.49
681.23	345.96
681.639	280.43
682.048	231.27
682.457	341.28
682.866	313.19
683.275	299.15
683.684	317.87
684.093	367.03
684.502	315.53
684.911	348.3
685.32	364.68
685.728	313.19
686.137	322.56
686.546	296.81
686.954	308.51
687.363	327.24
687.771	306.17
688.179	292.13
688.588	315.53
688.996	294.47
689.404	285.11
689.812	324.9
690.22	355.32
690.628	352.98
691.036	264.04
691.444	329.58
691.852	320.21
692.26	327.24
692.667	329.58
693.075	299.15
693.483	317.87
693.89	322.56
694.298	313.19
694.705	369.37
695.112	327.24
695.52	364.68
695.927	301.49
696.334	310.85
696.741	278.08
697.148	275.74
697.555	299.15
697.962	322.56
698.369	336.6
698.776	334.26
699.183	235.96
699.59	313.19
699.996	273.4
700.403	303.83
700.81	301.49
701.216	322.56
701.623	306.17
702.029	322.56
702.435	296.81
702.842	345.96
703.248	292.13
703.654	310.85
704.06	264.04
704.466	310.85
704.872	289.79
705.278	285.11
705.684	271.06
706.09	261.7
706.496	350.64
706.901	331.92
707.307	273.4
707.712	317.87
708.118	327.24
708.523	338.94
708.929	320.21
709.334	271.06
709.74	280.43
710.145	308.51
710.55	322.56
710.955	317.87
711.36	247.66
711.765	355.32
712.17	383.41
712.575	348.3
712.98	865.56
713.385	352.98
713.789	303.83
714.194	317.87
714.599	219.57
715.003	278.08
715.408	306.17
715.812	320.21
716.217	285.11
716.621	310.85
717.025	273.4
717.429	287.45
717.833	294.47
718.238	315.53
718.642	341.28
719.046	360
719.449	329.58
719.853	259.36
720.257	329.58
720.661	292.13
721.065	287.45
721.468	327.24
721.872	301.49
722.275	327.24
722.679	289.79
723.082	338.94
723.485	322.56
723.889	266.38
724.292	355.32
724.695	280.43
725.098	285.11
725.501	301.49
725.904	334.26
726.307	285.11
726.71	261.7
727.113	282.77
727.516	238.3
727.918	381.07
728.321	338.94
728.724	313.19
729.126	280.43
729.529	334.26
729.931	324.9
730.333	331.92
730.736	306.17
731.138	327.24
731.54	306.17
731.942	324.9
732.344	301.49
732.746	273.4
733.148	360
733.55	338.94
733.952	343.62
734.354	341.28
734.756	364.68
735.157	334.26
735.559	285.11
735.96	329.58
736.362	362.34
736.763	299.15
737.165	296.81
737.566	343.62
737.967	355.32
738.368	338.94
738.77	313.19
739.171	367.03
739.572	287.45
739.973	308.51
740.374	369.37
740.774	278.08
741.175	294.47
741.576	301.49
741.977	266.38
742.377	381.07
742.778	282.77
743.178	334.26
743.579	303.83
743.979	409.15
744.379	362.34
744.78	341.28
745.18	334.26
745.58	357.66
745.98	282.77
746.38	324.9
746.78	259.36
747.18	367.03
747.58	331.92
747.98	275.74
748.38	385.75
748.779	329.58
749.179	308.51
749.578	306.17
749.978	292.13
750.377	299.15
750.777	303.83
751.176	294.47
751.575	306.17
751.975	331.92
752.374	294.47
752.773	282.77
753.172	268.72
753.571	362.34
753.97	306.17
754.369	310.85
754.768	364.68
755.166	362.34
755.565	320.21
755.964	324.9
756.362	331.92
756.761	275.74
757.159	306.17
757.558	345.96
757.956	282.77
758.354	329.58
758.753	287.45
759.151	287.45
759.549	341.28
759.947	299.15
760.345	355.32
760.743	343.62
761.141	306.17
761.539	292.13
761.936	331.92
762.334	350.64
762.732	301.49
763.129	310.85
763.527	280.43
763.924	343.62
764.322	352.98
764.719	271.06
765.117	350.64
765.514	345.96
765.911	324.9
766.308	301.49
766.705	308.51
767.102	357.66
767.499	271.06
767.896	329.58
768.293	289.79
768.69	280.43
769.086	271.06
769.483	303.83
769.88	280.43
770.276	303.83
770.673	360
771.069	360
771.466	334.26
771.862	383.41
772.258	357.66
772.654	301.49
773.05	376.39
773.447	362.34
773.843	378.73
774.239	327.24
774.634	308.51
775.03	336.6
775.426	278.08
775.822	292.13
776.218	322.56
776.613	303.83
777.009	257.02
777.404	324.9
777.8	294.47
778.195	310.85
778.59	334.26
778.986	301.49
779.381	381.07
779.776	282.77
780.171	294.47
780.566	273.4
780.961	355.32
781.356	310.85
781.751	331.92
782.146	320.21
782.54	261.7
782.935	313.19
783.33	252.34
783.724	320.21
784.119	345.96
784.513	285.11
784.908	329.58
785.302	350.64
785.696	308.51
786.09	294.47
786.485	315.53
786.879	327.24
787.273	352.98
787.667	336.6
788.061	301.49
788.454	348.3
788.848	327.24
789.242	329.58
789.636	341.28
790.029	345.96
790.423	327.24
790.816	303.83
791.21	331.92
791.603	278.08
791.997	238.3
792.39	285.11
792.783	282.77
793.176	301.49
793.569	324.9
793.962	320.21
794.355	292.13
794.748	299.15
795.141	313.19
795.534	315.53
795.927	303.83
796.319	355.32
796.712	275.74
797.105	301.49
797.497	306.17
797.89	352.98
798.282	355.32
798.674	324.9
799.067	331.92
799.459	362.34
799.851	310.85
800.243	327.24
800.635	287.45
801.027	259.36
801.419	329.58
801.811	308.51
802.203	313.19
802.594	296.81
802.986	343.62
803.378	327.24
803.769	317.87
804.161	264.04
804.552	292.13
804.944	376.39
805.335	313.19
805.726	299.15
806.118	317.87
806.509	313.19
806.9	303.83
807.291	362.34
807.682	275.74
808.073	280.43
808.464	338.94
808.855	320.21
809.245	371.71
809.636	320.21
810.027	331.92
810.417	289.79
810.808	313.19
811.198	273.4
811.589	299.15
811.979	264.04
812.369	364.68
812.759	282.77
813.15	303.83
813.54	294.47
813.93	327.24
814.32	313.19
814.71	294.47
815.1	259.36
815.489	329.58
815.879	299.15
816.269	287.45
816.658	329.58
817.048	292.13
817.438	317.87
817.827	336.6
818.216	306.17
818.606	252.34
818.995	289.79
819.384	299.15
819.773	355.32
820.163	259.36
820.552	289.79
820.941	341.28
821.33	331.92
821.718	317.87
822.107	329.58
822.496	322.56
822.885	334.26
823.273	315.53
823.662	280.43
824.05	383.41
824.439	282.77
824.827	324.9
825.216	296.81
825.604	322.56
825.992	364.68
826.38	294.47
826.768	226.59
827.156	315.53
827.544	306.17
827.932	299.15
828.32	381.07
828.708	308.51
829.096	268.72
829.483	310.85
829.871	322.56
830.259	259.36
830.646	224.25
831.034	409.15
831.421	271.06
831.808	329.58
832.196	292.13
832.583	317.87
832.97	254.68
833.357	317.87
833.744	345.96
834.131	327.24
834.518	336.6
834.905	275.74
835.292	355.32
835.678	233.61
836.065	303.83
836.452	238.3
836.838	296.81
837.225	280.43
837.611	317.87
837.998	273.4
838.384	338.94
838.77	278.08
839.157	285.11
839.543	350.64
839.929	336.6
840.315	360
840.701	310.85
841.087	343.62
841.473	296.81
841.858	313.19
842.244	287.45
842.63	294.47
843.015	306.17
843.401	376.39
843.787	334.26
844.172	362.34
844.557	296.81
844.943	226.59
845.328	289.79
845.713	273.4
846.098	329.58
846.483	292.13
846.868	247.66
847.253	299.15
847.638	308.51
848.023	299.15
848.408	364.68
848.793	315.53
849.177	336.6
849.562	336.6
849.947	360
850.331	355.32
850.715	287.45
851.1	294.47
851.484	341.28
851.868	254.68
852.253	294.47
852.637	296.81
853.021	301.49
853.405	329.58
853.789	280.43
854.173	292.13
854.557	296.81
854.94	294.47
855.324	317.87
855.708	322.56
856.091	275.74
856.475	329.58
856.858	352.98
857.242	271.06
857.625	315.53
858.009	324.9
858.392	247.66
858.775	315.53
859.158	317.87
859.541	334.26
859.924	329.58
860.307	264.04
860.69	259.36
861.073	285.11
861.456	352.98
861.838	355.32
862.221	336.6
862.604	343.62
862.986	348.3
863.369	292.13
863.751	238.3
864.133	266.38
864.516	315.53
864.898	303.83
865.28	322.56
865.662	367.03
866.044	292.13
866.426	315.53
866.808	310.85
867.19	381.07
867.572	280.43
867.954	388.09
868.336	264.04
868.717	247.66
869.099	240.64
869.48	280.43
869.862	320.21
870.243	289.79
870.625	301.49
871.006	371.71
871.387	266.38
871.768	294.47
872.149	378.73
872.53	308.51
872.911	245.32
873.292	352.98
873.673	306.17
874.054	310.85
874.435	299.15
874.815	322.56
875.196	390.43
875.577	376.39
875.957	308.51
876.338	327.24
876.718	329.58
877.098	245.32
877.479	350.64
877.859	266.38
878.239	345.96
878.619	336.6
878.999	341.28
879.379	310.85
879.759	226.59
880.139	317.87
880.519	322.56
880.898	329.58
881.278	252.34
881.658	210.21
882.037	355.32
882.417	296.81
882.796	308.51
883.176	285.11
883.555	301.49
883.934	331.92
884.313	320.21
884.693	317.87
885.072	315.53
885.451	350.64
885.83	264.04
886.209	271.06
886.587	294.47
886.966	254.68
887.345	343.62
887.724	294.47
888.102	313.19
888.481	235.96
888.859	336.6
889.238	296.81
889.616	324.9
889.994	296.81
890.373	257.02
890.751	336.6
891.129	301.49
891.507	292.13
891.885	301.49
892.263	282.77
892.641	317.87
893.019	303.83
893.396	303.83
893.774	271.06
894.152	388.09
894.529	345.96
894.907	371.71
895.284	278.08
895.662	317.87
896.039	287.45
896.416	317.87
896.794	273.4
897.171	292.13
897.548	294.47
897.925	338.94
898.302	308.51
898.679	322.56
899.056	242.98
899.433	273.4
899.809	317.87
900.186	303.83
900.563	259.36
900.939	331.92
901.316	271.06
901.692	280.43
902.069	315.53
902.445	278.08
902.821	282.77
903.197	336.6
903.574	303.83
903.95	334.26
904.326	296.81
904.702	271.06
905.078	294.47
905.454	338.94
905.829	320.21
906.205	278.08
906.581	266.38
906.956	334.26
907.332	322.56
907.707	313.19
908.083	310.85
908.458	320.21
908.833	338.94
909.209	348.3
909.584	310.85
909.959	327.24
910.334	341.28
910.709	364.68
911.084	341.28
911.459	317.87
911.834	331.92
912.209	320.21
912.583	280.43
912.958	273.4
913.333	313.19
913.707	395.11
914.082	313.19
914.456	313.19
914.83	383.41
915.205	282.77
915.579	331.92
915.953	362.34
916.327	301.49
916.701	252.34
917.075	308.51
917.449	296.81
917.823	250
918.197	285.11
918.571	345.96
918.944	341.28
919.318	301.49
919.692	329.58
920.065	282.77
920.438	392.77
920.812	343.62
921.185	289.79
921.558	271.06
921.932	331.92
922.305	345.96
922.678	352.98
923.051	331.92
923.424	289.79
923.797	343.62
924.17	374.05
924.542	315.53
924.915	310.85
925.288	317.87
925.661	292.13
926.033	261.7
926.406	310.85
926.778	289.79
927.15	275.74
927.523	336.6
927.895	294.47
928.267	261.7
928.639	313.19
929.011	310.85
929.383	331.92
929.755	315.53
930.127	322.56
930.499	306.17
930.871	308.51
931.242	296.81
931.614	287.45
931.986	324.9
932.357	310.85
932.729	327.24
933.1	282.77
933.471	296.81
933.843	301.49
934.214	341.28
934.585	294.47
934.956	322.56
935.327	320.21
935.698	266.38
936.069	292.13
936.44	310.85
936.811	292.13
937.182	336.6
937.552	357.66
937.923	313.19
938.293	308.51
938.664	369.37
939.034	252.34
939.405	322.56
939.775	324.9
940.145	233.61
940.516	264.04
940.886	308.51
941.256	264.04
941.626	348.3
941.996	350.64
942.366	271.06
942.735	313.19
943.105	327.24
943.475	355.32
943.845	240.64
944.214	345.96
944.584	352.98
944.953	289.79
945.323	322.56
945.692	296.81
946.061	317.87
946.43	296.81
946.8	271.06
947.169	235.96
947.538	273.4
947.907	275.74
948.276	381.07
948.645	289.79
949.013	374.05
949.382	322.56
949.751	306.17
950.119	320.21
950.488	303.83
950.857	299.15
951.225	329.58
951.593	268.72
951.962	322.56
952.33	343.62
952.698	336.6
953.066	280.43
953.434	301.49
953.802	231.27
954.17	343.62
954.538	322.56
954.906	327.24
955.274	341.28
955.642	367.03
956.009	273.4
956.377	301.49
956.744	294.47
957.112	320.21
957.479	303.83
957.847	317.87
958.214	416.18
958.581	352.98
958.948	280.43
959.315	324.9
959.683	294.47
960.05	292.13
960.416	329.58
960.783	327.24
961.15	329.58
961.517	310.85
961.884	214.89
962.25	299.15
962.617	345.96
962.983	299.15
963.35	266.38
963.716	299.15
964.082	369.37
964.449	317.87
964.815	383.41
965.181	315.53
965.547	327.24
965.913	320.21
966.279	317.87
966.645	275.74
967.011	240.64
967.377	257.02
967.742	275.74
968.108	247.66
968.474	301.49
968.839	292.13
969.205	315.53
969.57	296.81
969.935	250
970.301	275.74
970.666	247.66
971.031	296.81
971.396	245.32
971.761	306.17
972.126	217.23
972.491	329.58
972.856	315.53
973.221	275.74
973.586	343.62
973.95	285.11
974.315	317.87
974.679	357.66
975.044	273.4
975.408	310.85
975.773	343.62
976.137	322.56
976.501	317.87
976.866	336.6
977.23	247.66
977.594	282.77
977.958	292.13
978.322	303.83
978.686	313.19
979.049	343.62
979.413	327.24
979.777	360
980.141	320.21
980.504	306.17
980.868	250
981.231	271.06
981.595	292.13
981.958	313.19
982.321	338.94
982.684	310.85
983.048	345.96
983.411	303.83
983.774	329.58
984.137	336.6
984.5	275.74
984.862	345.96
985.225	334.26
985.588	275.74
985.951	360
986.313	334.26
986.676	299.15
987.038	254.68
987.401	310.85
987.763	324.9
988.125	320.21
988.488	308.51
988.85	303.83
989.212	275.74
989.574	310.85
989.936	331.92
990.298	303.83
990.66	287.45
991.022	357.66
991.383	252.34
991.745	221.91
992.107	324.9
992.468	306.17
992.83	331.92
993.191	299.15
993.553	315.53
993.914	273.4
994.275	362.34
994.637	329.58
994.998	280.43
995.359	282.77
995.72	336.6
996.081	259.36
996.442	303.83
996.803	285.11
997.163	355.32
997.524	303.83
997.885	296.81
998.245	315.53
998.606	254.68
998.966	317.87
999.327	348.3
999.687	296.81
1000.047	320.21
1000.408	289.79
1000.768	285.11
1001.128	317.87
1001.488	315.53
1001.848	345.96
1002.208	327.24
1002.568	357.66
1002.927	322.56
1003.287	292.13
1003.647	369.37
1004.007	327.24
1004.366	252.34
1004.726	348.3
1005.085	345.96
1005.444	296.81
1005.804	313.19
1006.163	327.24
1006.522	355.32
1006.881	308.51
1007.24	273.4
1007.599	367.03
1007.958	313.19
1008.317	313.19
1008.676	219.57
1009.035	397.45
1009.393	289.79
1009.752	245.32
1010.111	315.53
1010.469	348.3
1010.828	320.21
1011.186	285.11
1011.544	280.43
1011.903	357.66
1012.261	378.73
1012.619	317.87
1012.977	343.62
1013.335	242.98
1013.693	317.87
1014.051	240.64
1014.409	289.79
1014.767	264.04
1015.124	266.38
1015.482	350.64
1015.84	245.32
1016.197	327.24
1016.555	280.43
1016.912	334.26
1017.269	217.23
1017.627	280.43
1017.984	285.11
1018.341	266.38
1018.698	371.71
1019.055	285.11
1019.412	257.02
1019.769	287.45
1020.126	315.53
1020.483	334.26
1020.84	348.3
1021.196	301.49
1021.553	362.34
1021.909	334.26
1022.266	352.98
1022.622	247.66
1022.979	303.83
1023.335	320.21
1023.691	306.17
1024.047	282.77
1024.404	264.04
1024.76	301.49
1025.116	238.3
1025.472	315.53
1025.827	228.93
1026.183	280.43
1026.539	224.25
1026.895	268.72
1027.25	362.34
1027.606	306.17
1027.961	303.83
1028.317	341.28
1028.672	329.58
1029.028	357.66
1029.383	306.17
1029.738	329.58
1030.093	310.85
1030.448	350.64
1030.803	313.19
1031.158	301.49
1031.513	313.19
1031.868	280.43
1032.223	296.81
1032.577	320.21
1032.932	345.96
1033.287	329.58
1033.641	317.87
1033.996	320.21
1034.35	345.96
1034.704	257.02
1035.059	261.7
1035.413	280.43
1035.767	280.43
1036.121	280.43
