Data from Al_FLMS009871__511__14-38-39-129.txt Node

Date: Fri Mar 08 14:38:39 CST 2024
User: pe5414po
Spectrometer: FLMS00987
Trigger mode: 0
Integration Time (sec): 1.000000E-1
Scans to average: 1
Electric dark correction enabled: true
Nonlinearity correction enabled: false
Boxcar width: 0
XAxis mode: Wavelengths
Number of Pixels in Spectrum: 2048
>>>>>Begin Spectral Data<<<<<
188.938	-116.15
189.409	-116.15
189.879	-116.15
190.349	-116.15
190.819	-109.13
191.29	-69.34
191.76	-55.3
192.23	-59.98
192.7	-59.98
193.17	-41.25
193.64	-74.02
194.109	-6.14
194.579	-41.25
195.049	-97.42
195.519	0.88
195.988	82.8
196.458	24.28
196.927	145.99
197.397	57.05
197.866	124.93
198.336	68.75
198.805	160.03
199.274	131.95
199.744	190.46
200.213	206.84
200.682	174.08
201.151	190.46
201.62	199.82
202.089	291.1
202.558	237.27
203.027	267.7
203.495	272.38
203.964	253.66
204.433	340.26
204.902	286.42
205.37	319.19
205.839	279.4
206.307	279.4
206.776	286.42
207.244	272.38
207.712	302.81
208.181	237.27
208.649	274.72
209.117	314.51
209.585	363.66
210.053	267.7
210.521	248.97
210.989	319.19
211.457	286.42
211.925	260.68
212.393	337.91
212.861	305.15
213.328	284.08
213.796	258.34
214.264	232.59
214.731	246.63
215.199	253.66
215.666	333.23
216.133	309.83
216.601	307.49
217.068	263.02
217.535	284.08
218.003	309.83
218.47	349.62
218.937	232.59
219.404	284.08
219.871	244.29
220.338	312.17
220.805	305.15
221.271	218.55
221.738	295.79
222.205	185.78
222.671	314.51
223.138	248.97
223.605	225.57
224.071	234.93
224.538	260.68
225.004	267.7
225.47	281.74
225.937	241.95
226.403	270.04
226.869	312.17
227.335	216.21
227.801	279.4
228.267	265.36
228.733	251.32
229.199	234.93
229.665	279.4
230.131	270.04
230.597	272.38
231.062	274.72
231.528	232.59
231.994	274.72
232.459	316.85
232.925	227.91
233.39	239.61
233.856	302.81
234.321	244.29
234.786	298.13
235.252	206.84
235.717	258.34
236.182	314.51
236.647	307.49
237.112	270.04
237.577	246.63
238.042	192.8
238.507	286.42
238.972	246.63
239.436	284.08
239.901	309.83
240.366	305.15
240.83	258.34
241.295	263.02
241.76	230.25
242.224	213.87
242.688	263.02
243.153	253.66
243.617	227.91
244.081	244.29
244.545	335.57
245.01	251.32
245.474	270.04
245.938	291.1
246.402	270.04
246.866	218.55
247.33	260.68
247.793	284.08
248.257	307.49
248.721	241.95
249.185	295.79
249.648	293.44
250.112	281.74
250.575	321.53
251.039	293.44
251.502	286.42
251.965	248.97
252.429	316.85
252.892	305.15
253.355	356.64
253.818	272.38
254.281	314.51
254.744	321.53
255.207	225.57
255.67	209.19
256.133	312.17
256.596	220.89
257.059	291.1
257.522	284.08
257.984	300.47
258.447	291.1
258.909	342.6
259.372	284.08
259.834	263.02
260.297	284.08
260.759	293.44
261.221	267.7
261.684	281.74
262.146	321.53
262.608	309.83
263.07	295.79
263.532	309.83
263.994	265.36
264.456	305.15
264.918	288.76
265.38	248.97
265.842	293.44
266.303	248.97
266.765	234.93
267.227	279.4
267.688	230.25
268.15	281.74
268.611	239.61
269.072	302.81
269.534	298.13
269.995	295.79
270.456	302.81
270.918	248.97
271.379	272.38
271.84	298.13
272.301	295.79
272.762	291.1
273.223	234.93
273.684	279.4
274.144	270.04
274.605	277.06
275.066	284.08
275.527	358.98
275.987	274.72
276.448	270.04
276.908	291.1
277.369	281.74
277.829	295.79
278.289	333.23
278.75	316.85
279.21	246.63
279.67	274.72
280.13	239.61
280.59	314.51
281.05	260.68
281.51	281.74
281.97	225.57
282.43	277.06
282.89	305.15
283.35	293.44
283.809	344.94
284.269	302.81
284.729	234.93
285.188	263.02
285.648	309.83
286.107	302.81
286.567	319.19
287.026	260.68
287.485	270.04
287.944	307.49
288.404	319.19
288.863	293.44
289.322	321.53
289.781	340.26
290.24	373.02
290.699	302.81
291.158	309.83
291.616	244.29
292.075	253.66
292.534	279.4
292.992	291.1
293.451	279.4
293.91	232.59
294.368	246.63
294.827	241.95
295.285	302.81
295.743	288.76
296.202	382.39
296.66	277.06
297.118	237.27
297.576	319.19
298.034	293.44
298.492	284.08
298.95	281.74
299.408	291.1
299.866	335.57
300.324	347.28
300.781	323.87
301.239	354.3
301.697	321.53
302.154	316.85
302.612	312.17
303.069	314.51
303.527	246.63
303.984	248.97
304.441	307.49
304.899	277.06
305.356	263.02
305.813	319.19
306.27	342.6
306.727	293.44
307.184	300.47
307.641	330.89
308.098	330.89
308.555	258.34
309.012	323.87
309.468	270.04
309.925	272.38
310.382	286.42
310.838	225.57
311.295	323.87
311.751	251.32
312.208	251.32
312.664	244.29
313.12	181.1
313.577	328.55
314.033	349.62
314.489	279.4
314.945	312.17
315.401	281.74
315.857	330.89
316.313	323.87
316.769	316.85
317.225	305.15
317.681	293.44
318.136	295.79
318.592	263.02
319.048	256
319.503	291.1
319.959	225.57
320.414	277.06
320.869	284.08
321.325	328.55
321.78	326.21
322.235	349.62
322.691	337.91
323.146	356.64
323.601	293.44
324.056	316.85
324.511	253.66
324.966	307.49
325.421	298.13
325.875	309.83
326.33	312.17
326.785	321.53
327.24	227.91
327.694	284.08
328.149	307.49
328.603	281.74
329.058	314.51
329.512	328.55
329.966	295.79
330.421	293.44
330.875	344.94
331.329	267.7
331.783	344.94
332.237	305.15
332.691	361.32
333.145	284.08
333.599	361.32
334.053	321.53
334.507	342.6
334.96	263.02
335.414	305.15
335.868	248.97
336.321	337.91
336.775	300.47
337.228	288.76
337.682	323.87
338.135	309.83
338.588	335.57
339.042	368.34
339.495	330.89
339.948	319.19
340.401	340.26
340.854	340.26
341.307	323.87
341.76	300.47
342.213	326.21
342.666	295.79
343.119	347.28
343.571	305.15
344.024	284.08
344.477	284.08
344.929	337.91
345.382	340.26
345.834	342.6
346.287	351.96
346.739	300.47
347.191	270.04
347.644	328.55
348.096	230.25
348.548	342.6
349	237.27
349.452	298.13
349.904	274.72
350.356	295.79
350.808	277.06
351.26	253.66
351.711	288.76
352.163	328.55
352.615	305.15
353.066	342.6
353.518	279.4
353.969	330.89
354.421	326.21
354.872	319.19
355.324	277.06
355.775	330.89
356.226	319.19
356.677	298.13
357.128	391.75
357.579	337.91
358.03	309.83
358.481	307.49
358.932	344.94
359.383	326.21
359.834	312.17
360.285	330.89
360.735	307.49
361.186	298.13
361.637	251.32
362.087	300.47
362.538	319.19
362.988	298.13
363.438	284.08
363.889	218.55
364.339	307.49
364.789	284.08
365.239	330.89
365.689	309.83
366.139	342.6
366.589	307.49
367.039	253.66
367.489	314.51
367.939	302.81
368.389	342.6
368.839	274.72
369.288	302.81
369.738	309.83
370.187	337.91
370.637	314.51
371.086	319.19
371.536	309.83
371.985	312.17
372.434	312.17
372.884	314.51
373.333	270.04
373.782	260.68
374.231	258.34
374.68	277.06
375.129	295.79
375.578	321.53
376.027	302.81
376.475	281.74
376.924	267.7
377.373	314.51
377.822	328.55
378.27	281.74
378.719	293.44
379.167	267.7
379.616	337.91
380.064	316.85
380.512	274.72
380.961	248.97
381.409	323.87
381.857	284.08
382.305	288.76
382.753	272.38
383.201	375.36
383.649	300.47
384.097	370.68
384.545	298.13
384.992	270.04
385.44	312.17
385.888	368.34
386.335	347.28
386.783	330.89
387.231	321.53
387.678	305.15
388.125	281.74
388.573	349.62
389.02	300.47
389.467	314.51
389.914	309.83
390.362	321.53
390.809	291.1
391.256	316.85
391.703	361.32
392.15	335.57
392.596	300.47
393.043	316.85
393.49	340.26
393.937	309.83
394.383	312.17
394.83	312.17
395.276	265.36
395.723	356.64
396.169	293.44
396.616	239.61
397.062	361.32
397.508	319.19
397.954	316.85
398.401	305.15
398.847	328.55
399.293	356.64
399.739	288.76
400.185	298.13
400.631	403.45
401.076	330.89
401.522	358.98
401.968	302.81
402.414	274.72
402.859	251.32
403.305	328.55
403.75	323.87
404.196	309.83
404.641	314.51
405.086	391.75
405.532	270.04
405.977	267.7
406.422	265.36
406.867	328.55
407.312	279.4
407.757	316.85
408.202	342.6
408.647	305.15
409.092	293.44
409.537	326.21
409.982	284.08
410.426	286.42
410.871	337.91
411.316	328.55
411.76	316.85
412.205	286.42
412.649	319.19
413.093	326.21
413.538	312.17
413.982	321.53
414.426	309.83
414.87	326.21
415.314	274.72
415.758	286.42
416.202	319.19
416.646	377.7
417.09	307.49
417.534	328.55
417.978	253.66
418.421	270.04
418.865	337.91
419.309	260.68
419.752	330.89
420.196	321.53
420.639	330.89
421.083	288.76
421.526	316.85
421.969	281.74
422.412	351.96
422.856	277.06
423.299	368.34
423.742	335.57
424.185	321.53
424.628	309.83
425.071	361.32
425.513	347.28
425.956	321.53
426.399	314.51
426.842	298.13
427.284	342.6
427.727	288.76
428.169	342.6
428.612	286.42
429.054	302.81
429.497	309.83
429.939	326.21
430.381	253.66
430.823	319.19
431.265	356.64
431.707	298.13
432.149	298.13
432.591	307.49
433.033	326.21
433.475	298.13
433.917	312.17
434.359	288.76
434.8	316.85
435.242	344.94
435.684	354.3
436.125	295.79
436.567	340.26
437.008	274.72
437.449	251.32
437.891	344.94
438.332	361.32
438.773	319.19
439.214	319.19
439.656	298.13
440.097	373.02
440.538	333.23
440.978	340.26
441.419	293.44
441.86	312.17
442.301	284.08
442.742	333.23
443.182	286.42
443.623	309.83
444.063	314.51
444.504	314.51
444.944	319.19
445.385	323.87
445.825	251.32
446.265	309.83
446.706	253.66
447.146	344.94
447.586	366
448.026	312.17
448.466	349.62
448.906	312.17
449.346	298.13
449.786	330.89
450.225	384.73
450.665	319.19
451.105	300.47
451.544	358.98
451.984	323.87
452.424	358.98
452.863	330.89
453.302	401.11
453.742	361.32
454.181	351.96
454.62	333.23
455.059	305.15
455.499	354.3
455.938	323.87
456.377	300.47
456.816	333.23
457.254	323.87
457.693	344.94
458.132	319.19
458.571	382.39
459.01	356.64
459.448	277.06
459.887	326.21
460.325	256
460.764	298.13
461.202	326.21
461.641	300.47
462.079	260.68
462.517	342.6
462.955	335.57
463.393	330.89
463.832	396.43
464.27	288.76
464.708	323.87
465.145	363.66
465.583	286.42
466.021	319.19
466.459	354.3
466.897	361.32
467.334	312.17
467.772	337.91
468.209	335.57
468.647	321.53
469.084	300.47
469.522	342.6
469.959	335.57
470.396	373.02
470.833	351.96
471.271	335.57
471.708	323.87
472.145	288.76
472.582	321.53
473.019	356.64
473.456	321.53
473.892	314.51
474.329	302.81
474.766	337.91
475.202	298.13
475.639	319.19
476.076	408.13
476.512	258.34
476.949	307.49
477.385	349.62
477.821	335.57
478.258	351.96
478.694	370.68
479.13	335.57
479.566	291.1
480.002	330.89
480.438	314.51
480.874	333.23
481.31	288.76
481.746	307.49
482.181	347.28
482.617	263.02
483.053	319.19
483.488	284.08
483.924	288.76
484.36	251.32
484.795	354.3
485.23	298.13
485.666	347.28
486.101	316.85
486.536	330.89
486.971	340.26
487.407	307.49
487.842	326.21
488.277	349.62
488.712	258.34
489.146	328.55
489.581	312.17
490.016	326.21
490.451	309.83
490.885	328.55
491.32	335.57
491.755	309.83
492.189	349.62
492.624	349.62
493.058	373.02
493.492	321.53
493.927	340.26
494.361	291.1
494.795	295.79
495.229	349.62
495.663	314.51
496.097	300.47
496.531	326.21
496.965	286.42
497.399	347.28
497.833	323.87
498.266	335.57
498.7	321.53
499.134	305.15
499.567	298.13
500.001	333.23
500.434	354.3
500.868	351.96
501.301	351.96
501.734	288.76
502.168	366
502.601	293.44
503.034	239.61
503.467	342.6
503.9	387.07
504.333	340.26
504.766	398.77
505.199	309.83
505.632	263.02
506.064	328.55
506.497	239.61
506.93	314.51
507.362	279.4
507.795	260.68
508.227	382.39
508.66	333.23
509.092	286.42
509.524	293.44
509.956	288.76
510.389	298.13
510.821	333.23
511.253	361.32
511.685	328.55
512.117	405.79
512.549	344.94
512.981	309.83
513.412	277.06
513.844	284.08
514.276	314.51
514.707	363.66
515.139	288.76
515.571	328.55
516.002	337.91
516.433	328.55
516.865	293.44
517.296	316.85
517.727	270.04
518.159	363.66
518.59	344.94
519.021	319.19
519.452	316.85
519.883	270.04
520.314	340.26
520.744	344.94
521.175	349.62
521.606	312.17
522.037	316.85
522.467	305.15
522.898	265.36
523.328	328.55
523.759	309.83
524.189	363.66
524.62	319.19
525.05	309.83
525.48	312.17
525.91	330.89
526.341	307.49
526.771	321.53
527.201	330.89
527.631	328.55
528.061	286.42
528.49	312.17
528.92	220.89
529.35	342.6
529.78	298.13
530.209	295.79
530.639	347.28
531.068	267.7
531.498	389.41
531.927	340.26
532.357	370.68
532.786	246.63
533.215	347.28
533.644	309.83
534.074	351.96
534.503	333.23
534.932	300.47
535.361	288.76
535.79	302.81
536.218	295.79
536.647	295.79
537.076	302.81
537.505	293.44
537.933	323.87
538.362	309.83
538.79	314.51
539.219	300.47
539.647	351.96
540.076	300.47
540.504	298.13
540.932	305.15
541.36	251.32
541.788	295.79
542.217	321.53
542.645	288.76
543.073	300.47
543.5	321.53
543.928	328.55
544.356	333.23
544.784	298.13
545.211	302.81
545.639	328.55
546.067	260.68
546.494	351.96
546.922	330.89
547.349	305.15
547.776	354.3
548.204	274.72
548.631	347.28
549.058	356.64
549.485	319.19
549.912	312.17
550.339	351.96
550.766	312.17
551.193	401.11
551.62	330.89
552.047	267.7
552.474	337.91
552.9	305.15
553.327	256
553.754	328.55
554.18	366
554.607	298.13
555.033	291.1
555.459	277.06
555.886	405.79
556.312	326.21
556.738	251.32
557.164	363.66
557.59	351.96
558.016	309.83
558.442	330.89
558.868	288.76
559.294	363.66
559.72	309.83
560.145	307.49
560.571	291.1
560.997	377.7
561.422	312.17
561.848	284.08
562.273	293.44
562.699	330.89
563.124	342.6
563.549	319.19
563.974	319.19
564.4	342.6
564.825	328.55
565.25	328.55
565.675	377.7
566.1	373.02
566.525	309.83
566.95	335.57
567.374	284.08
567.799	319.19
568.224	316.85
568.648	274.72
569.073	241.95
569.497	342.6
569.922	274.72
570.346	335.57
570.771	291.1
571.195	251.32
571.619	323.87
572.043	342.6
572.467	274.72
572.891	307.49
573.315	354.3
573.739	314.51
574.163	305.15
574.587	323.87
575.011	368.34
575.435	330.89
575.858	342.6
576.282	300.47
576.705	272.38
577.129	361.32
577.552	351.96
577.976	351.96
578.399	415.15
578.822	326.21
579.245	333.23
579.669	333.23
580.092	272.38
580.515	300.47
580.938	288.76
581.361	309.83
581.784	300.47
582.206	288.76
582.629	241.95
583.052	293.44
583.474	344.94
583.897	307.49
584.32	284.08
584.742	284.08
585.165	323.87
585.587	279.4
586.009	316.85
586.431	361.32
586.854	337.91
587.276	291.1
587.698	293.44
588.12	326.21
588.542	286.42
588.964	415.15
589.386	302.81
589.807	319.19
590.229	279.4
590.651	323.87
591.073	361.32
591.494	267.7
591.916	265.36
592.337	279.4
592.759	333.23
593.18	314.51
593.601	314.51
594.022	272.38
594.444	344.94
594.865	281.74
595.286	337.91
595.707	361.32
596.128	321.53
596.549	284.08
596.97	358.98
597.39	330.89
597.811	300.47
598.232	361.32
598.652	216.21
599.073	300.47
599.494	291.1
599.914	302.81
600.334	309.83
600.755	363.66
601.175	321.53
601.595	373.02
602.015	295.79
602.436	387.07
602.856	438.56
603.276	253.66
603.696	335.57
604.115	337.91
604.535	333.23
604.955	326.21
605.375	316.85
605.794	279.4
606.214	321.53
606.634	342.6
607.053	241.95
607.473	293.44
607.892	260.68
608.311	342.6
608.731	319.19
609.15	326.21
609.569	370.68
609.988	358.98
610.407	351.96
610.826	340.26
611.245	270.04
611.664	267.7
612.083	286.42
612.501	347.28
612.92	347.28
613.339	340.26
613.757	300.47
614.176	267.7
614.594	293.44
615.013	363.66
615.431	328.55
615.85	279.4
616.268	295.79
616.686	333.23
617.104	326.21
617.522	307.49
617.94	260.68
618.358	267.7
618.776	361.32
619.194	363.66
619.612	288.76
620.03	368.34
620.447	309.83
620.865	267.7
621.282	330.89
621.7	349.62
622.117	384.73
622.535	302.81
622.952	323.87
623.369	366
623.787	370.68
624.204	265.36
624.621	309.83
625.038	291.1
625.455	344.94
625.872	319.19
626.289	323.87
626.706	288.76
627.123	335.57
627.539	307.49
627.956	298.13
628.373	248.97
628.789	326.21
629.206	302.81
629.622	358.98
630.038	298.13
630.455	314.51
630.871	298.13
631.287	234.93
631.703	314.51
632.12	302.81
632.536	277.06
632.952	293.44
633.368	302.81
633.783	323.87
634.199	300.47
634.615	281.74
635.031	295.79
635.446	319.19
635.862	277.06
636.277	340.26
636.693	279.4
637.108	286.42
637.524	410.47
637.939	295.79
638.354	356.64
638.77	321.53
639.185	333.23
639.6	340.26
640.015	300.47
640.43	284.08
640.845	258.34
641.259	244.29
641.674	291.1
642.089	312.17
642.504	295.79
642.918	277.06
643.333	260.68
643.747	279.4
644.162	342.6
644.576	333.23
644.991	244.29
645.405	312.17
645.819	312.17
646.233	333.23
646.647	328.55
647.061	391.75
647.475	319.19
647.889	328.55
648.303	277.06
648.717	307.49
649.131	288.76
649.545	265.36
649.958	302.81
650.372	295.79
650.785	288.76
651.199	340.26
651.612	300.47
652.026	253.66
652.439	356.64
652.852	335.57
653.266	342.6
653.679	288.76
654.092	377.7
654.505	358.98
654.918	246.63
655.331	356.64
655.744	298.13
656.156	309.83
656.569	366
656.982	277.06
657.394	354.3
657.807	293.44
658.22	321.53
658.632	358.98
659.044	309.83
659.457	241.95
659.869	300.47
660.281	333.23
660.693	272.38
661.106	349.62
661.518	288.76
661.93	340.26
662.342	366
662.754	349.62
663.165	366
663.577	302.81
663.989	319.19
664.401	354.3
664.812	384.73
665.224	316.85
665.635	323.87
666.047	307.49
666.458	330.89
666.869	326.21
667.281	349.62
667.692	356.64
668.103	335.57
668.514	272.38
668.925	307.49
669.336	347.28
669.747	349.62
670.158	326.21
670.569	316.85
670.979	298.13
671.39	298.13
671.801	347.28
672.211	288.76
672.622	223.23
673.032	316.85
673.443	321.53
673.853	382.39
674.263	312.17
674.674	344.94
675.084	293.44
675.494	291.1
675.904	316.85
676.314	309.83
676.724	298.13
677.134	267.7
677.544	326.21
677.953	349.62
678.363	368.34
678.773	354.3
679.182	380.04
679.592	265.36
680.001	394.09
680.411	305.15
680.82	302.81
681.23	323.87
681.639	314.51
682.048	265.36
682.457	337.91
682.866	342.6
683.275	309.83
683.684	328.55
684.093	347.28
684.502	335.57
684.911	277.06
685.32	279.4
685.728	312.17
686.137	316.85
686.546	284.08
686.954	281.74
687.363	349.62
687.771	267.7
688.179	368.34
688.588	351.96
688.996	330.89
689.404	295.79
689.812	342.6
690.22	347.28
690.628	314.51
691.036	286.42
691.444	337.91
691.852	314.51
692.26	354.3
692.667	351.96
693.075	272.38
693.483	340.26
693.89	300.47
694.298	321.53
694.705	375.36
695.112	307.49
695.52	328.55
695.927	298.13
696.334	234.93
696.741	312.17
697.148	251.32
697.555	321.53
697.962	312.17
698.369	321.53
698.776	380.04
699.183	354.3
699.59	258.34
699.996	305.15
700.403	314.51
700.81	286.42
701.216	279.4
701.623	300.47
702.029	272.38
702.435	281.74
702.842	356.64
703.248	326.21
703.654	298.13
704.06	321.53
704.466	316.85
704.872	293.44
705.278	274.72
705.684	223.23
706.09	351.96
706.496	326.21
706.901	361.32
707.307	319.19
707.712	358.98
708.118	263.02
708.523	321.53
708.929	333.23
709.334	279.4
709.74	305.15
710.145	326.21
710.55	291.1
710.955	328.55
711.36	256
711.765	248.97
712.17	284.08
712.575	256
712.98	850.49
713.385	295.79
713.789	384.73
714.194	305.15
714.599	277.06
715.003	312.17
715.408	253.66
715.812	326.21
716.217	328.55
716.621	291.1
717.025	319.19
717.429	288.76
717.833	302.81
718.238	284.08
718.642	274.72
719.046	298.13
719.449	312.17
719.853	328.55
720.257	281.74
720.661	328.55
721.065	354.3
721.468	342.6
721.872	335.57
722.275	340.26
722.679	316.85
723.082	335.57
723.485	286.42
723.889	316.85
724.292	319.19
724.695	298.13
725.098	382.39
725.501	342.6
725.904	302.81
726.307	321.53
726.71	270.04
727.113	373.02
727.516	309.83
727.918	328.55
728.321	361.32
728.724	279.4
729.126	321.53
729.529	307.49
729.931	330.89
730.333	300.47
730.736	321.53
731.138	319.19
731.54	326.21
731.942	277.06
732.344	293.44
732.746	286.42
733.148	312.17
733.55	251.32
733.952	323.87
734.354	309.83
734.756	281.74
735.157	263.02
735.559	335.57
735.96	300.47
736.362	279.4
736.763	237.27
737.165	335.57
737.566	256
737.967	279.4
738.368	279.4
738.77	328.55
739.171	326.21
739.572	356.64
739.973	307.49
740.374	274.72
740.774	312.17
741.175	316.85
741.576	316.85
741.977	246.63
742.377	328.55
742.778	277.06
743.178	279.4
743.579	349.62
743.979	366
744.379	274.72
744.78	333.23
745.18	312.17
745.58	319.19
745.98	312.17
746.38	300.47
746.78	356.64
747.18	314.51
747.58	354.3
747.98	333.23
748.38	302.81
748.779	312.17
749.179	300.47
749.578	298.13
749.978	314.51
750.377	281.74
750.777	333.23
751.176	302.81
751.575	335.57
751.975	272.38
752.374	260.68
752.773	291.1
753.172	309.83
753.571	321.53
753.97	326.21
754.369	279.4
754.768	340.26
755.166	288.76
755.565	380.04
755.964	321.53
756.362	358.98
756.761	337.91
757.159	312.17
757.558	263.02
757.956	319.19
758.354	347.28
758.753	265.36
759.151	333.23
759.549	344.94
759.947	302.81
760.345	293.44
760.743	309.83
761.141	347.28
761.539	330.89
761.936	342.6
762.334	281.74
762.732	302.81
763.129	349.62
763.527	333.23
763.924	333.23
764.322	279.4
764.719	230.25
765.117	291.1
765.514	300.47
765.911	305.15
766.308	344.94
766.705	295.79
767.102	307.49
767.499	316.85
767.896	309.83
768.293	321.53
768.69	323.87
769.086	349.62
769.483	274.72
769.88	335.57
770.276	323.87
770.673	328.55
771.069	314.51
771.466	277.06
771.862	321.53
772.258	263.02
772.654	330.89
773.05	319.19
773.447	342.6
773.843	291.1
774.239	321.53
774.634	305.15
775.03	312.17
775.426	300.47
775.822	326.21
776.218	267.7
776.613	272.38
777.009	319.19
777.404	279.4
777.8	307.49
778.195	333.23
778.59	316.85
778.986	293.44
779.381	316.85
779.776	298.13
780.171	342.6
780.566	223.23
780.961	291.1
781.356	358.98
781.751	316.85
782.146	263.02
782.54	298.13
782.935	279.4
783.33	323.87
783.724	335.57
784.119	316.85
784.513	270.04
784.908	293.44
785.302	305.15
785.696	358.98
786.09	354.3
786.485	284.08
786.879	328.55
787.273	323.87
787.667	281.74
788.061	298.13
788.454	305.15
788.848	349.62
789.242	277.06
789.636	312.17
790.029	312.17
790.423	277.06
790.816	286.42
791.21	300.47
791.603	295.79
791.997	216.21
792.39	314.51
792.783	361.32
793.176	298.13
793.569	272.38
793.962	344.94
794.355	347.28
794.748	319.19
795.141	321.53
795.534	307.49
795.927	260.68
796.319	307.49
796.712	284.08
797.105	342.6
797.497	354.3
797.89	335.57
798.282	312.17
798.674	258.34
799.067	286.42
799.459	340.26
799.851	316.85
800.243	351.96
800.635	375.36
801.027	366
801.419	286.42
801.811	302.81
802.203	366
802.594	279.4
802.986	312.17
803.378	342.6
803.769	272.38
804.161	358.98
804.552	330.89
804.944	300.47
805.335	356.64
805.726	279.4
806.118	295.79
806.509	309.83
806.9	340.26
807.291	307.49
807.682	298.13
808.073	323.87
808.464	344.94
808.855	333.23
809.245	382.39
809.636	340.26
810.027	267.7
810.417	326.21
810.808	361.32
811.198	307.49
811.589	351.96
811.979	319.19
812.369	321.53
812.759	295.79
813.15	256
813.54	286.42
813.93	241.95
814.32	291.1
814.71	328.55
815.1	323.87
815.489	356.64
815.879	391.75
816.269	312.17
816.658	358.98
817.048	323.87
817.438	326.21
817.827	373.02
818.216	337.91
818.606	323.87
818.995	267.7
819.384	321.53
819.773	279.4
820.163	241.95
820.552	300.47
820.941	309.83
821.33	323.87
821.718	298.13
822.107	312.17
822.496	316.85
822.885	316.85
823.273	309.83
823.662	335.57
824.05	323.87
824.439	312.17
824.827	284.08
825.216	251.32
825.604	307.49
825.992	300.47
826.38	281.74
826.768	263.02
827.156	279.4
827.544	307.49
827.932	335.57
828.32	307.49
828.708	354.3
829.096	335.57
829.483	265.36
829.871	316.85
830.259	330.89
830.646	316.85
831.034	298.13
831.421	314.51
831.808	335.57
832.196	305.15
832.583	363.66
832.97	335.57
833.357	366
833.744	270.04
834.131	328.55
834.518	382.39
834.905	340.26
835.292	237.27
835.678	284.08
836.065	302.81
836.452	340.26
836.838	305.15
837.225	305.15
837.611	305.15
837.998	263.02
838.384	295.79
838.77	300.47
839.157	309.83
839.543	277.06
839.929	284.08
840.315	220.89
840.701	307.49
841.087	316.85
841.473	295.79
841.858	319.19
842.244	267.7
842.63	284.08
843.015	349.62
843.401	347.28
843.787	270.04
844.172	319.19
844.557	258.34
844.943	267.7
845.328	358.98
845.713	274.72
846.098	302.81
846.483	300.47
846.868	323.87
847.253	319.19
847.638	333.23
848.023	370.68
848.408	298.13
848.793	328.55
849.177	288.76
849.562	281.74
849.947	333.23
850.331	302.81
850.715	326.21
851.1	293.44
851.484	316.85
851.868	309.83
852.253	234.93
852.637	307.49
853.021	263.02
853.405	335.57
853.789	326.21
854.173	293.44
854.557	396.43
854.94	232.59
855.324	312.17
855.708	363.66
856.091	366
856.475	333.23
856.858	265.36
857.242	319.19
857.625	316.85
858.009	274.72
858.392	244.29
858.775	263.02
859.158	312.17
859.541	321.53
859.924	375.36
860.307	321.53
860.69	316.85
861.073	277.06
861.456	267.7
861.838	321.53
862.221	267.7
862.604	288.76
862.986	291.1
863.369	314.51
863.751	286.42
864.133	253.66
864.516	302.81
864.898	377.7
865.28	281.74
865.662	323.87
866.044	288.76
866.426	305.15
866.808	333.23
867.19	293.44
867.572	267.7
867.954	298.13
868.336	230.25
868.717	314.51
869.099	253.66
869.48	366
869.862	321.53
870.243	309.83
870.625	295.79
871.006	307.49
871.387	344.94
871.768	314.51
872.149	298.13
872.53	314.51
872.911	321.53
873.292	293.44
873.673	323.87
874.054	321.53
874.435	328.55
874.815	356.64
875.196	342.6
875.577	328.55
875.957	342.6
876.338	279.4
876.718	330.89
877.098	342.6
877.479	302.81
877.859	300.47
878.239	302.81
878.619	258.34
878.999	281.74
879.379	328.55
879.759	284.08
880.139	333.23
880.519	305.15
880.898	335.57
881.278	302.81
881.658	291.1
882.037	314.51
882.417	258.34
882.796	298.13
883.176	309.83
883.555	274.72
883.934	314.51
884.313	337.91
884.693	298.13
885.072	307.49
885.451	305.15
885.83	319.19
886.209	223.23
886.587	274.72
886.966	312.17
887.345	248.97
887.724	326.21
888.102	274.72
888.481	309.83
888.859	337.91
889.238	253.66
889.616	237.27
889.994	309.83
890.373	335.57
890.751	274.72
891.129	312.17
891.507	281.74
891.885	284.08
892.263	288.76
892.641	314.51
893.019	272.38
893.396	335.57
893.774	328.55
894.152	340.26
894.529	277.06
894.907	265.36
895.284	270.04
895.662	316.85
896.039	337.91
896.416	305.15
896.794	300.47
897.171	340.26
897.548	335.57
897.925	288.76
898.302	286.42
898.679	321.53
899.056	286.42
899.433	260.68
899.809	321.53
900.186	314.51
900.563	281.74
900.939	300.47
901.316	288.76
901.692	314.51
902.069	375.36
902.445	335.57
902.821	298.13
903.197	326.21
903.574	281.74
903.95	307.49
904.326	307.49
904.702	335.57
905.078	321.53
905.454	307.49
905.829	354.3
906.205	312.17
906.581	265.36
906.956	253.66
907.332	270.04
907.707	270.04
908.083	267.7
908.458	333.23
908.833	256
909.209	307.49
909.584	298.13
909.959	319.19
910.334	295.79
910.709	286.42
911.084	260.68
911.459	358.98
911.834	246.63
912.209	333.23
912.583	295.79
912.958	293.44
913.333	263.02
913.707	295.79
914.082	277.06
914.456	314.51
914.83	291.1
915.205	302.81
915.579	328.55
915.953	347.28
916.327	253.66
916.701	270.04
917.075	272.38
917.449	260.68
917.823	316.85
918.197	326.21
918.571	326.21
918.944	260.68
919.318	340.26
919.692	302.81
920.065	377.7
920.438	260.68
920.812	349.62
921.185	295.79
921.558	366
921.932	361.32
922.305	368.34
922.678	375.36
923.051	300.47
923.424	246.63
923.797	375.36
924.17	361.32
924.542	260.68
924.915	274.72
925.288	314.51
925.661	330.89
926.033	333.23
926.406	349.62
926.778	286.42
927.15	267.7
927.523	263.02
927.895	319.19
928.267	356.64
928.639	291.1
929.011	258.34
929.383	293.44
929.755	302.81
930.127	284.08
930.499	227.91
930.871	323.87
931.242	291.1
931.614	314.51
931.986	351.96
932.357	291.1
932.729	291.1
933.1	279.4
933.471	286.42
933.843	309.83
934.214	274.72
934.585	284.08
934.956	340.26
935.327	305.15
935.698	363.66
936.069	300.47
936.44	300.47
936.811	295.79
937.182	366
937.552	316.85
937.923	316.85
938.293	293.44
938.664	305.15
939.034	312.17
939.405	279.4
939.775	358.98
940.145	314.51
940.516	333.23
940.886	337.91
941.256	298.13
941.626	375.36
941.996	314.51
942.366	272.38
942.735	302.81
943.105	288.76
943.475	209.19
943.845	366
944.214	298.13
944.584	309.83
944.953	316.85
945.323	295.79
945.692	246.63
946.061	298.13
946.43	316.85
946.8	298.13
947.169	328.55
947.538	272.38
947.907	274.72
948.276	293.44
948.645	316.85
949.013	279.4
949.382	298.13
949.751	319.19
950.119	309.83
950.488	340.26
950.857	307.49
951.225	260.68
951.593	260.68
951.962	335.57
952.33	314.51
952.698	326.21
953.066	340.26
953.434	279.4
953.802	298.13
954.17	248.97
954.538	344.94
954.906	300.47
955.274	312.17
955.642	321.53
956.009	300.47
956.377	298.13
956.744	340.26
957.112	375.36
957.479	366
957.847	274.72
958.214	321.53
958.581	356.64
958.948	368.34
959.315	349.62
959.683	356.64
960.05	305.15
960.416	260.68
960.783	305.15
961.15	319.19
961.517	316.85
961.884	314.51
962.25	237.27
962.617	295.79
962.983	321.53
963.35	293.44
963.716	300.47
964.082	323.87
964.449	272.38
964.815	323.87
965.181	211.53
965.547	302.81
965.913	314.51
966.279	298.13
966.645	323.87
967.011	342.6
967.377	305.15
967.742	277.06
968.108	284.08
968.474	347.28
968.839	356.64
969.205	319.19
969.57	333.23
969.935	342.6
970.301	316.85
970.666	316.85
971.031	256
971.396	295.79
971.761	300.47
972.126	293.44
972.491	270.04
972.856	234.93
973.221	277.06
973.586	298.13
973.95	267.7
974.315	316.85
974.679	284.08
975.044	389.41
975.408	326.21
975.773	370.68
976.137	349.62
976.501	281.74
976.866	328.55
977.23	298.13
977.594	328.55
977.958	356.64
978.322	312.17
978.686	344.94
979.049	349.62
979.413	270.04
979.777	302.81
980.141	286.42
980.504	298.13
980.868	248.97
981.231	415.15
981.595	305.15
981.958	375.36
982.321	307.49
982.684	375.36
983.048	286.42
983.411	314.51
983.774	312.17
984.137	321.53
984.5	349.62
984.862	319.19
985.225	384.73
985.588	295.79
985.951	277.06
986.313	347.28
986.676	330.89
987.038	316.85
987.401	319.19
987.763	263.02
988.125	265.36
988.488	333.23
988.85	302.81
989.212	340.26
989.574	260.68
989.936	328.55
990.298	272.38
990.66	234.93
991.022	300.47
991.383	326.21
991.745	326.21
992.107	284.08
992.468	265.36
992.83	307.49
993.191	260.68
993.553	312.17
993.914	347.28
994.275	295.79
994.637	330.89
994.998	288.76
995.359	323.87
995.72	298.13
996.081	291.1
996.442	337.91
996.803	260.68
997.163	333.23
997.524	307.49
997.885	298.13
998.245	270.04
998.606	284.08
998.966	305.15
999.327	312.17
999.687	358.98
1000.047	298.13
1000.408	309.83
1000.768	258.34
1001.128	281.74
1001.488	305.15
1001.848	312.17
1002.208	298.13
1002.568	295.79
1002.927	312.17
1003.287	333.23
1003.647	244.29
1004.007	274.72
1004.366	319.19
1004.726	323.87
1005.085	291.1
1005.444	256
1005.804	305.15
1006.163	288.76
1006.522	291.1
1006.881	270.04
1007.24	337.91
1007.599	286.42
1007.958	344.94
1008.317	316.85
1008.676	246.63
1009.035	321.53
1009.393	347.28
1009.752	302.81
1010.111	312.17
1010.469	305.15
1010.828	314.51
1011.186	298.13
1011.544	337.91
1011.903	286.42
1012.261	281.74
1012.619	328.55
1012.977	344.94
1013.335	288.76
1013.693	286.42
1014.051	256
1014.409	307.49
1014.767	373.02
1015.124	321.53
1015.482	300.47
1015.84	277.06
1016.197	265.36
1016.555	237.27
1016.912	319.19
1017.269	265.36
1017.627	323.87
1017.984	314.51
1018.341	263.02
1018.698	284.08
1019.055	328.55
1019.412	272.38
1019.769	314.51
1020.126	302.81
1020.483	286.42
1020.84	288.76
1021.196	340.26
1021.553	300.47
1021.909	244.29
1022.266	286.42
1022.622	354.3
1022.979	286.42
1023.335	312.17
1023.691	279.4
1024.047	286.42
1024.404	335.57
1024.76	347.28
1025.116	295.79
1025.472	256
1025.827	300.47
1026.183	307.49
1026.539	265.36
1026.895	281.74
1027.25	286.42
1027.606	293.44
1027.961	279.4
1028.317	337.91
1028.672	251.32
1029.028	314.51
1029.383	337.91
1029.738	340.26
1030.093	321.53
1030.448	349.62
1030.803	347.28
1031.158	358.98
1031.513	314.51
1031.868	361.32
1032.223	300.47
1032.577	312.17
1032.932	333.23
1033.287	328.55
1033.641	333.23
1033.996	344.94
1034.35	333.23
1034.704	342.6
1035.059	288.76
1035.413	389.41
1035.767	389.41
1036.121	389.41
