Data from Al_FLMS009871__504__14-38-38-427.txt Node

Date: Fri Mar 08 14:38:38 CST 2024
User: pe5414po
Spectrometer: FLMS00987
Trigger mode: 0
Integration Time (sec): 1.000000E-1
Scans to average: 1
Electric dark correction enabled: true
Nonlinearity correction enabled: false
Boxcar width: 0
XAxis mode: Wavelengths
Number of Pixels in Spectrum: 2048
>>>>>Begin Spectral Data<<<<<
188.938	-43.15
189.409	-43.15
189.879	-43.15
190.349	-64.22
190.819	-66.56
191.29	-92.3
191.76	-118.05
192.23	-99.33
192.7	-71.24
193.17	-85.28
193.64	-108.69
194.109	-31.45
194.579	24.72
195.049	85.58
195.519	31.74
195.988	6
196.458	29.4
196.927	90.26
197.397	87.92
197.866	174.52
198.336	76.21
198.805	167.49
199.274	165.15
199.744	188.56
200.213	221.33
200.682	242.39
201.151	162.81
201.62	277.5
202.089	279.84
202.558	263.46
203.027	242.39
203.495	254.09
203.964	305.59
204.433	312.61
204.902	233.03
205.37	242.39
205.839	340.69
206.307	230.69
206.776	371.12
207.244	284.52
207.712	331.33
208.181	291.54
208.649	272.82
209.117	300.91
209.585	314.95
210.053	286.86
210.521	345.38
210.989	326.65
211.457	298.56
211.925	286.86
212.393	286.86
212.861	233.03
213.328	336.01
213.796	284.52
214.264	235.37
214.731	291.54
215.199	321.97
215.666	270.48
216.133	240.05
216.601	261.12
217.068	261.12
217.535	296.22
218.003	237.71
218.47	282.18
218.937	233.03
219.404	251.75
219.871	300.91
220.338	300.91
220.805	284.52
221.271	279.84
221.738	242.39
222.205	214.31
222.671	270.48
223.138	258.78
223.605	242.39
224.071	275.16
224.538	284.52
225.004	284.52
225.47	202.6
225.937	218.99
226.403	235.37
226.869	216.65
227.335	277.5
227.801	305.59
228.267	328.99
228.733	340.69
229.199	289.2
229.665	310.27
230.131	211.96
230.597	303.25
231.062	282.18
231.528	275.16
231.994	303.25
232.459	263.46
232.925	183.88
233.39	279.84
233.856	324.31
234.321	272.82
234.786	303.25
235.252	235.37
235.717	256.43
236.182	305.59
236.647	354.74
237.112	263.46
237.577	293.88
238.042	291.54
238.507	305.59
238.972	350.06
239.436	223.67
239.901	230.69
240.366	284.52
240.83	254.09
241.295	314.95
241.76	256.43
242.224	277.5
242.688	258.78
243.153	284.52
243.617	300.91
244.081	272.82
244.545	272.82
245.01	291.54
245.474	300.91
245.938	336.01
246.402	321.97
246.866	340.69
247.33	298.56
247.793	284.52
248.257	331.33
248.721	291.54
249.185	305.59
249.648	275.16
250.112	296.22
250.575	249.41
251.039	303.25
251.502	286.86
251.965	305.59
252.429	272.82
252.892	305.59
253.355	352.4
253.818	282.18
254.281	319.63
254.744	233.03
255.207	286.86
255.67	380.48
256.133	331.33
256.596	298.56
257.059	261.12
257.522	314.95
257.984	314.95
258.447	314.95
258.909	265.8
259.372	312.61
259.834	333.67
260.297	328.99
260.759	258.78
261.221	305.59
261.684	258.78
262.146	211.96
262.608	289.2
263.07	333.67
263.532	249.41
263.994	314.95
264.456	263.46
264.918	307.93
265.38	300.91
265.842	328.99
266.303	282.18
266.765	354.74
267.227	364.1
267.688	303.25
268.15	345.38
268.611	298.56
269.072	237.71
269.534	293.88
269.995	230.69
270.456	336.01
270.918	275.16
271.379	296.22
271.84	300.91
272.301	268.14
272.762	279.84
273.223	277.5
273.684	277.5
274.144	270.48
274.605	282.18
275.066	214.31
275.527	244.73
275.987	314.95
276.448	321.97
276.908	303.25
277.369	378.14
277.829	317.29
278.289	240.05
278.75	314.95
279.21	286.86
279.67	300.91
280.13	298.56
280.59	300.91
281.05	305.59
281.51	258.78
281.97	350.06
282.43	340.69
282.89	354.74
283.35	366.44
283.809	268.14
284.269	296.22
284.729	319.63
285.188	326.65
285.648	284.52
286.107	310.27
286.567	357.08
287.026	279.84
287.485	331.33
287.944	338.35
288.404	284.52
288.863	303.25
289.322	326.65
289.781	272.82
290.24	242.39
290.699	319.63
291.158	300.91
291.616	289.2
292.075	279.84
292.534	284.52
292.992	317.29
293.451	336.01
293.91	284.52
294.368	298.56
294.827	314.95
295.285	289.2
295.743	275.16
296.202	258.78
296.66	312.61
297.118	272.82
297.576	289.2
298.034	343.03
298.492	263.46
298.95	305.59
299.408	284.52
299.866	307.93
300.324	282.18
300.781	312.61
301.239	352.4
301.697	343.03
302.154	331.33
302.612	261.12
303.069	352.4
303.527	343.03
303.984	324.31
304.441	343.03
304.899	326.65
305.356	291.54
305.813	319.63
306.27	305.59
306.727	310.27
307.184	345.38
307.641	233.03
308.098	368.78
308.555	352.4
309.012	336.01
309.468	312.61
309.925	265.8
310.382	347.72
310.838	305.59
311.295	298.56
311.751	375.8
312.208	277.5
312.664	326.65
313.12	296.22
313.577	275.16
314.033	373.46
314.489	230.69
314.945	326.65
315.401	272.82
315.857	357.08
316.313	279.84
316.769	314.95
317.225	331.33
317.681	289.2
318.136	298.56
318.592	298.56
319.048	286.86
319.503	240.05
319.959	284.52
320.414	303.25
320.869	293.88
321.325	338.35
321.78	314.95
322.235	343.03
322.691	333.67
323.146	300.91
323.601	359.42
324.056	314.95
324.511	314.95
324.966	272.82
325.421	387.5
325.875	291.54
326.33	286.86
326.785	328.99
327.24	364.1
327.694	305.59
328.149	354.74
328.603	347.72
329.058	289.2
329.512	279.84
329.966	291.54
330.421	321.97
330.875	331.33
331.329	289.2
331.783	331.33
332.237	331.33
332.691	310.27
333.145	328.99
333.599	275.16
334.053	314.95
334.507	300.91
334.96	307.93
335.414	265.8
335.868	310.27
336.321	328.99
336.775	345.38
337.228	321.97
337.682	268.14
338.135	321.97
338.588	303.25
339.042	317.29
339.495	371.12
339.948	333.67
340.401	328.99
340.854	319.63
341.307	303.25
341.76	333.67
342.213	305.59
342.666	350.06
343.119	298.56
343.571	286.86
344.024	319.63
344.477	333.67
344.929	366.44
345.382	312.61
345.834	324.31
346.287	321.97
346.739	291.54
347.191	345.38
347.644	310.27
348.096	338.35
348.548	324.31
349	298.56
349.452	331.33
349.904	321.97
350.356	396.87
350.808	310.27
351.26	293.88
351.711	347.72
352.163	300.91
352.615	314.95
353.066	326.65
353.518	343.03
353.969	382.82
354.421	354.74
354.872	282.18
355.324	336.01
355.775	268.14
356.226	279.84
356.677	279.84
357.128	307.93
357.579	345.38
358.03	371.12
358.481	279.84
358.932	321.97
359.383	354.74
359.834	321.97
360.285	282.18
360.735	392.19
361.186	305.59
361.637	364.1
362.087	333.67
362.538	350.06
362.988	256.43
363.438	357.08
363.889	298.56
364.339	305.59
364.789	347.72
365.239	343.03
365.689	373.46
366.139	265.8
366.589	352.4
367.039	326.65
367.489	352.4
367.939	336.01
368.389	352.4
368.839	291.54
369.288	261.12
369.738	319.63
370.187	279.84
370.637	324.31
371.086	321.97
371.536	331.33
371.985	307.93
372.434	303.25
372.884	272.82
373.333	300.91
373.782	338.35
374.231	350.06
374.68	305.59
375.129	364.1
375.578	317.29
376.027	326.65
376.475	268.14
376.924	324.31
377.373	312.61
377.822	317.29
378.27	382.82
378.719	338.35
379.167	314.95
379.616	328.99
380.064	312.61
380.512	279.84
380.961	307.93
381.409	282.18
381.857	289.2
382.305	314.95
382.753	326.65
383.201	275.16
383.649	392.19
384.097	354.74
384.545	375.8
384.992	256.43
385.44	328.99
385.888	289.2
386.335	326.65
386.783	298.56
387.231	347.72
387.678	354.74
388.125	336.01
388.573	364.1
389.02	364.1
389.467	321.97
389.914	289.2
390.362	336.01
390.809	293.88
391.256	336.01
391.703	343.03
392.15	317.29
392.596	340.69
393.043	338.35
393.49	289.2
393.937	314.95
394.383	289.2
394.83	328.99
395.276	265.8
395.723	321.97
396.169	319.63
396.616	303.25
397.062	256.43
397.508	361.76
397.954	352.4
398.401	378.14
398.847	314.95
399.293	403.89
399.739	314.95
400.185	361.76
400.631	352.4
401.076	314.95
401.522	307.93
401.968	291.54
402.414	357.08
402.859	310.27
403.305	380.48
403.75	359.42
404.196	321.97
404.641	359.42
405.086	340.69
405.532	300.91
405.977	305.59
406.422	314.95
406.867	296.22
407.312	291.54
407.757	293.88
408.202	380.48
408.647	286.86
409.092	319.63
409.537	340.69
409.982	343.03
410.426	338.35
410.871	277.5
411.316	392.19
411.76	319.63
412.205	347.72
412.649	256.43
413.093	319.63
413.538	251.75
413.982	298.56
414.426	350.06
414.87	286.86
415.314	289.2
415.758	359.42
416.202	312.61
416.646	338.35
417.09	347.72
417.534	303.25
417.978	314.95
418.421	375.8
418.865	326.65
419.309	303.25
419.752	305.59
420.196	343.03
420.639	359.42
421.083	345.38
421.526	305.59
421.969	310.27
422.412	338.35
422.856	343.03
423.299	265.8
423.742	282.18
424.185	345.38
424.628	354.74
425.071	324.31
425.513	277.5
425.956	331.33
426.399	293.88
426.842	317.29
427.284	343.03
427.727	300.91
428.169	296.22
428.612	328.99
429.054	321.97
429.497	347.72
429.939	354.74
430.381	352.4
430.823	307.93
431.265	305.59
431.707	279.84
432.149	321.97
432.591	314.95
433.033	336.01
433.475	343.03
433.917	345.38
434.359	282.18
434.8	244.73
435.242	326.65
435.684	310.27
436.125	350.06
436.567	289.2
437.008	331.33
437.449	307.93
437.891	307.93
438.332	319.63
438.773	307.93
439.214	319.63
439.656	303.25
440.097	312.61
440.538	312.61
440.978	345.38
441.419	373.46
441.86	300.91
442.301	286.86
442.742	268.14
443.182	387.5
443.623	289.2
444.063	368.78
444.504	347.72
444.944	324.31
445.385	286.86
445.825	345.38
446.265	324.31
446.706	336.01
447.146	282.18
447.586	343.03
448.026	326.65
448.466	371.12
448.906	368.78
449.346	289.2
449.786	300.91
450.225	336.01
450.665	385.16
451.105	375.8
451.544	364.1
451.984	345.38
452.424	429.63
452.863	298.56
453.302	298.56
453.742	368.78
454.181	251.75
454.62	317.29
455.059	265.8
455.499	293.88
455.938	361.76
456.377	326.65
456.816	303.25
457.254	296.22
457.693	314.95
458.132	328.99
458.571	368.78
459.01	352.4
459.448	328.99
459.887	310.27
460.325	378.14
460.764	352.4
461.202	389.85
461.641	331.33
462.079	284.52
462.517	305.59
462.955	314.95
463.393	328.99
463.832	333.67
464.27	324.31
464.708	361.76
465.145	328.99
465.583	317.29
466.021	338.35
466.459	305.59
466.897	333.67
467.334	270.48
467.772	354.74
468.209	406.23
468.647	305.59
469.084	296.22
469.522	336.01
469.959	321.97
470.396	338.35
470.833	300.91
471.271	277.5
471.708	331.33
472.145	446.02
472.582	331.33
473.019	326.65
473.456	333.67
473.892	286.86
474.329	310.27
474.766	338.35
475.202	345.38
475.639	347.72
476.076	328.99
476.512	317.29
476.949	256.43
477.385	279.84
477.821	303.25
478.258	336.01
478.694	326.65
479.13	385.16
479.566	312.61
480.002	328.99
480.438	321.97
480.874	312.61
481.31	336.01
481.746	300.91
482.181	359.42
482.617	328.99
483.053	380.48
483.488	303.25
483.924	303.25
484.36	272.82
484.795	326.65
485.23	333.67
485.666	361.76
486.101	371.12
486.536	317.29
486.971	331.33
487.407	310.27
487.842	300.91
488.277	277.5
488.712	233.03
489.146	375.8
489.581	415.59
490.016	261.12
490.451	314.95
490.885	340.69
491.32	289.2
491.755	324.31
492.189	321.97
492.624	310.27
493.058	305.59
493.492	307.93
493.927	291.54
494.361	310.27
494.795	331.33
495.229	347.72
495.663	336.01
496.097	354.74
496.531	293.88
496.965	328.99
497.399	265.8
497.833	340.69
498.266	321.97
498.7	343.03
499.134	350.06
499.567	343.03
500.001	394.53
500.434	324.31
500.868	277.5
501.301	296.22
501.734	333.67
502.168	340.69
502.601	258.78
503.034	291.54
503.467	314.95
503.9	338.35
504.333	347.72
504.766	277.5
505.199	321.97
505.632	300.91
506.064	317.29
506.497	321.97
506.93	319.63
507.362	296.22
507.795	326.65
508.227	312.61
508.66	305.59
509.092	359.42
509.524	347.72
509.956	368.78
510.389	361.76
510.821	319.63
511.253	305.59
511.685	293.88
512.117	277.5
512.549	319.63
512.981	321.97
513.412	385.16
513.844	361.76
514.276	286.86
514.707	307.93
515.139	324.31
515.571	392.19
516.002	352.4
516.433	352.4
516.865	354.74
517.296	319.63
517.727	317.29
518.159	352.4
518.59	366.44
519.021	317.29
519.452	331.33
519.883	359.42
520.314	343.03
520.744	312.61
521.175	331.33
521.606	357.08
522.037	272.82
522.467	305.59
522.898	235.37
523.328	300.91
523.759	312.61
524.189	321.97
524.62	258.78
525.05	317.29
525.48	289.2
525.91	333.67
526.341	343.03
526.771	347.72
527.201	326.65
527.631	345.38
528.061	324.31
528.49	305.59
528.92	350.06
529.35	345.38
529.78	326.65
530.209	314.95
530.639	343.03
531.068	366.44
531.498	298.56
531.927	275.16
532.357	305.59
532.786	389.85
533.215	303.25
533.644	298.56
534.074	319.63
534.503	310.27
534.932	338.35
535.361	343.03
535.79	354.74
536.218	350.06
536.647	298.56
537.076	345.38
537.505	319.63
537.933	298.56
538.362	310.27
538.79	373.46
539.219	336.01
539.647	331.33
540.076	354.74
540.504	312.61
540.932	317.29
541.36	303.25
541.788	291.54
542.217	364.1
542.645	268.14
543.073	373.46
543.5	300.91
543.928	317.29
544.356	303.25
544.784	328.99
545.211	350.06
545.639	345.38
546.067	317.29
546.494	352.4
546.922	307.93
547.349	314.95
547.776	321.97
548.204	331.33
548.631	352.4
549.058	317.29
549.485	343.03
549.912	357.08
550.339	319.63
550.766	310.27
551.193	307.93
551.62	371.12
552.047	340.69
552.474	359.42
552.9	331.33
553.327	336.01
553.754	216.65
554.18	333.67
554.607	282.18
555.033	310.27
555.459	303.25
555.886	312.61
556.312	314.95
556.738	251.75
557.164	275.16
557.59	375.8
558.016	333.67
558.442	263.46
558.868	350.06
559.294	282.18
559.72	340.69
560.145	338.35
560.571	265.8
560.997	338.35
561.422	345.38
561.848	328.99
562.273	340.69
562.699	300.91
563.124	317.29
563.549	378.14
563.974	368.78
564.4	343.03
564.825	340.69
565.25	307.93
565.675	310.27
566.1	319.63
566.525	324.31
566.95	338.35
567.374	289.2
567.799	317.29
568.224	336.01
568.648	328.99
569.073	336.01
569.497	279.84
569.922	307.93
570.346	298.56
570.771	396.87
571.195	317.29
571.619	326.65
572.043	340.69
572.467	368.78
572.891	343.03
573.315	261.12
573.739	345.38
574.163	380.48
574.587	366.44
575.011	385.16
575.435	336.01
575.858	354.74
576.282	324.31
576.705	303.25
577.129	336.01
577.552	218.99
577.976	303.25
578.399	333.67
578.822	371.12
579.245	321.97
579.669	324.31
580.092	347.72
580.515	380.48
580.938	324.31
581.361	380.48
581.784	357.08
582.206	317.29
582.629	338.35
583.052	347.72
583.474	314.95
583.897	312.61
584.32	303.25
584.742	289.2
585.165	265.8
585.587	394.53
586.009	319.63
586.431	305.59
586.854	321.97
587.276	277.5
587.698	336.01
588.12	303.25
588.542	277.5
588.964	268.14
589.386	310.27
589.807	359.42
590.229	277.5
590.651	310.27
591.073	310.27
591.494	289.2
591.916	319.63
592.337	389.85
592.759	345.38
593.18	317.29
593.601	392.19
594.022	270.48
594.444	352.4
594.865	392.19
595.286	303.25
595.707	312.61
596.128	270.48
596.549	272.82
596.97	307.93
597.39	361.76
597.811	314.95
598.232	336.01
598.652	354.74
599.073	340.69
599.494	296.22
599.914	305.59
600.334	251.75
600.755	289.2
601.175	314.95
601.595	328.99
602.015	333.67
602.436	284.52
602.856	392.19
603.276	286.86
603.696	354.74
604.115	343.03
604.535	328.99
604.955	359.42
605.375	314.95
605.794	326.65
606.214	291.54
606.634	298.56
607.053	338.35
607.473	314.95
607.892	307.93
608.311	293.88
608.731	336.01
609.15	317.29
609.569	366.44
609.988	317.29
610.407	296.22
610.826	321.97
611.245	298.56
611.664	350.06
612.083	293.88
612.501	286.86
612.92	347.72
613.339	307.93
613.757	310.27
614.176	366.44
614.594	249.41
615.013	284.52
615.431	317.29
615.85	345.38
616.268	359.42
616.686	366.44
617.104	343.03
617.522	345.38
617.94	326.65
618.358	333.67
618.776	289.2
619.194	324.31
619.612	317.29
620.03	326.65
620.447	380.48
620.865	284.52
621.282	305.59
621.7	354.74
622.117	336.01
622.535	310.27
622.952	338.35
623.369	305.59
623.787	326.65
624.204	326.65
624.621	378.14
625.038	354.74
625.455	343.03
625.872	265.8
626.289	326.65
626.706	338.35
627.123	368.78
627.539	314.95
627.956	352.4
628.373	336.01
628.789	345.38
629.206	314.95
629.622	296.22
630.038	300.91
630.455	307.93
630.871	298.56
631.287	310.27
631.703	319.63
632.12	293.88
632.536	326.65
632.952	321.97
633.368	275.16
633.783	321.97
634.199	258.78
634.615	317.29
635.031	324.31
635.446	286.86
635.862	291.54
636.277	333.67
636.693	336.01
637.108	338.35
637.524	375.8
637.939	354.74
638.354	286.86
638.77	345.38
639.185	312.61
639.6	298.56
640.015	373.46
640.43	361.76
640.845	312.61
641.259	338.35
641.674	321.97
642.089	382.82
642.504	286.86
642.918	357.08
643.333	359.42
643.747	300.91
644.162	303.25
644.576	305.59
644.991	331.33
645.405	277.5
645.819	326.65
646.233	333.67
646.647	319.63
647.061	389.85
647.475	300.91
647.889	340.69
648.303	319.63
648.717	354.74
649.131	268.14
649.545	321.97
649.958	319.63
650.372	321.97
650.785	359.42
651.199	338.35
651.612	310.27
652.026	298.56
652.439	357.08
652.852	328.99
653.266	317.29
653.679	312.61
654.092	354.74
654.505	303.25
654.918	326.65
655.331	340.69
655.744	310.27
656.156	345.38
656.569	291.54
656.982	289.2
657.394	235.37
657.807	284.52
658.22	331.33
658.632	382.82
659.044	350.06
659.457	284.52
659.869	343.03
660.281	277.5
660.693	307.93
661.106	357.08
661.518	305.59
661.93	352.4
662.342	324.31
662.754	279.84
663.165	331.33
663.577	272.82
663.989	347.72
664.401	338.35
664.812	345.38
665.224	314.95
665.635	326.65
666.047	265.8
666.458	359.42
666.869	326.65
667.281	357.08
667.692	359.42
668.103	324.31
668.514	324.31
668.925	317.29
669.336	312.61
669.747	375.8
670.158	319.63
670.569	380.48
670.979	373.46
671.39	328.99
671.801	326.65
672.211	275.16
672.622	319.63
673.032	350.06
673.443	307.93
673.853	293.88
674.263	291.54
674.674	312.61
675.084	310.27
675.494	284.52
675.904	296.22
676.314	298.56
676.724	361.76
677.134	317.29
677.544	272.82
677.953	282.18
678.363	406.23
678.773	328.99
679.182	340.69
679.592	275.16
680.001	321.97
680.411	352.4
680.82	289.2
681.23	366.44
681.639	286.86
682.048	357.08
682.457	300.91
682.866	326.65
683.275	242.39
683.684	263.46
684.093	364.1
684.502	373.46
684.911	284.52
685.32	331.33
685.728	275.16
686.137	298.56
686.546	275.16
686.954	357.08
687.363	338.35
687.771	305.59
688.179	364.1
688.588	305.59
688.996	298.56
689.404	350.06
689.812	366.44
690.22	317.29
690.628	343.03
691.036	340.69
691.444	305.59
691.852	289.2
692.26	359.42
692.667	371.12
693.075	305.59
693.483	343.03
693.89	307.93
694.298	366.44
694.705	328.99
695.112	366.44
695.52	361.76
695.927	317.29
696.334	256.43
696.741	312.61
697.148	312.61
697.555	319.63
697.962	298.56
698.369	282.18
698.776	310.27
699.183	352.4
699.59	312.61
699.996	317.29
700.403	317.29
700.81	307.93
701.216	371.12
701.623	314.95
702.029	242.39
702.435	321.97
702.842	307.93
703.248	338.35
703.654	207.28
704.06	340.69
704.466	347.72
704.872	378.14
705.278	317.29
705.684	368.78
706.09	319.63
706.496	298.56
706.901	310.27
707.307	336.01
707.712	314.95
708.118	307.93
708.523	354.74
708.929	359.42
709.334	345.38
709.74	310.27
710.145	336.01
710.55	336.01
710.955	333.67
711.36	359.42
711.765	307.93
712.17	256.43
712.575	354.74
712.98	853.27
713.385	277.5
713.789	242.39
714.194	328.99
714.599	289.2
715.003	382.82
715.408	333.67
715.812	307.93
716.217	350.06
716.621	289.2
717.025	303.25
717.429	333.67
717.833	303.25
718.238	314.95
718.642	293.88
719.046	272.82
719.449	324.31
719.853	310.27
720.257	338.35
720.661	230.69
721.065	293.88
721.468	385.16
721.872	303.25
722.275	340.69
722.679	324.31
723.082	352.4
723.485	307.93
723.889	277.5
724.292	310.27
724.695	286.86
725.098	272.82
725.501	336.01
725.904	319.63
726.307	303.25
726.71	319.63
727.113	340.69
727.516	340.69
727.918	354.74
728.321	277.5
728.724	336.01
729.126	296.22
729.529	361.76
729.931	326.65
730.333	305.59
730.736	284.52
731.138	324.31
731.54	328.99
731.942	321.97
732.344	328.99
732.746	343.03
733.148	263.46
733.55	345.38
733.952	319.63
734.354	340.69
734.756	366.44
735.157	336.01
735.559	350.06
735.96	392.19
736.362	371.12
736.763	265.8
737.165	303.25
737.566	300.91
737.967	279.84
738.368	352.4
738.77	258.78
739.171	333.67
739.572	359.42
739.973	289.2
740.374	291.54
740.774	343.03
741.175	357.08
741.576	310.27
741.977	336.01
742.377	303.25
742.778	254.09
743.178	326.65
743.579	312.61
743.979	265.8
744.379	380.48
744.78	368.78
745.18	270.48
745.58	296.22
745.98	300.91
746.38	300.91
746.78	328.99
747.18	303.25
747.58	357.08
747.98	336.01
748.38	331.33
748.779	307.93
749.179	328.99
749.578	312.61
749.978	275.16
750.377	343.03
750.777	289.2
751.176	326.65
751.575	324.31
751.975	371.12
752.374	324.31
752.773	317.29
753.172	326.65
753.571	333.67
753.97	366.44
754.369	286.86
754.768	326.65
755.166	321.97
755.565	310.27
755.964	289.2
756.362	314.95
756.761	312.61
757.159	324.31
757.558	265.8
757.956	247.07
758.354	324.31
758.753	319.63
759.151	357.08
759.549	328.99
759.947	263.46
760.345	324.31
760.743	270.48
761.141	307.93
761.539	298.56
761.936	289.2
762.334	296.22
762.732	321.97
763.129	279.84
763.527	317.29
763.924	326.65
764.322	347.72
764.719	343.03
765.117	368.78
765.514	298.56
765.911	326.65
766.308	256.43
766.705	305.59
767.102	286.86
767.499	364.1
767.896	336.01
768.293	338.35
768.69	333.67
769.086	347.72
769.483	331.33
769.88	275.16
770.276	307.93
770.673	305.59
771.069	382.82
771.466	272.82
771.862	324.31
772.258	307.93
772.654	319.63
773.05	312.61
773.447	307.93
773.843	300.91
774.239	303.25
774.634	307.93
775.03	277.5
775.426	317.29
775.822	298.56
776.218	319.63
776.613	354.74
777.009	319.63
777.404	261.12
777.8	303.25
778.195	392.19
778.59	293.88
778.986	293.88
779.381	340.69
779.776	291.54
780.171	293.88
780.566	343.03
780.961	324.31
781.356	324.31
781.751	350.06
782.146	258.78
782.54	333.67
782.935	305.59
783.33	380.48
783.724	319.63
784.119	385.16
784.513	296.22
784.908	357.08
785.302	268.14
785.696	340.69
786.09	237.71
786.485	357.08
786.879	312.61
787.273	366.44
787.667	258.78
788.061	282.18
788.454	345.38
788.848	258.78
789.242	312.61
789.636	328.99
790.029	312.61
790.423	340.69
790.816	286.86
791.21	343.03
791.603	265.8
791.997	371.12
792.39	338.35
792.783	366.44
793.176	305.59
793.569	324.31
793.962	254.09
794.355	396.87
794.748	270.48
795.141	328.99
795.534	380.48
795.927	289.2
796.319	300.91
796.712	382.82
797.105	293.88
797.497	305.59
797.89	382.82
798.282	350.06
798.674	359.42
799.067	324.31
799.459	310.27
799.851	331.33
800.243	333.67
800.635	314.95
801.027	338.35
801.419	364.1
801.811	371.12
802.203	366.44
802.594	333.67
802.986	387.5
803.378	345.38
803.769	324.31
804.161	350.06
804.552	380.48
804.944	324.31
805.335	354.74
805.726	254.09
806.118	291.54
806.509	249.41
806.9	305.59
807.291	396.87
807.682	307.93
808.073	298.56
808.464	333.67
808.855	296.22
809.245	347.72
809.636	270.48
810.027	336.01
810.417	277.5
810.808	343.03
811.198	345.38
811.589	275.16
811.979	303.25
812.369	268.14
812.759	268.14
813.15	317.29
813.54	240.05
813.93	291.54
814.32	338.35
814.71	347.72
815.1	364.1
815.489	357.08
815.879	364.1
816.269	289.2
816.658	345.38
817.048	275.16
817.438	298.56
817.827	265.8
818.216	326.65
818.606	242.39
818.995	338.35
819.384	289.2
819.773	305.59
820.163	293.88
820.552	293.88
820.941	298.56
821.33	321.97
821.718	300.91
822.107	333.67
822.496	338.35
822.885	312.61
823.273	347.72
823.662	368.78
824.05	277.5
824.439	359.42
824.827	314.95
825.216	350.06
825.604	347.72
825.992	371.12
826.38	272.82
826.768	366.44
827.156	324.31
827.544	326.65
827.932	240.05
828.32	289.2
828.708	298.56
829.096	291.54
829.483	289.2
829.871	324.31
830.259	223.67
830.646	317.29
831.034	364.1
831.421	298.56
831.808	328.99
832.196	298.56
832.583	387.5
832.97	279.84
833.357	265.8
833.744	293.88
834.131	270.48
834.518	314.95
834.905	345.38
835.292	380.48
835.678	305.59
836.065	378.14
836.452	300.91
836.838	289.2
837.225	352.4
837.611	347.72
837.998	333.67
838.384	317.29
838.77	303.25
839.157	314.95
839.543	364.1
839.929	343.03
840.315	331.33
840.701	324.31
841.087	291.54
841.473	340.69
841.858	272.82
842.244	352.4
842.63	240.05
843.015	312.61
843.401	431.98
843.787	364.1
844.172	343.03
844.557	254.09
844.943	357.08
845.328	354.74
845.713	284.52
846.098	286.86
846.483	317.29
846.868	345.38
847.253	270.48
847.638	268.14
848.023	352.4
848.408	312.61
848.793	275.16
849.177	289.2
849.562	413.25
849.947	343.03
850.331	319.63
850.715	347.72
851.1	303.25
851.484	326.65
851.868	319.63
852.253	317.29
852.637	284.52
853.021	268.14
853.405	265.8
853.789	270.48
854.173	364.1
854.557	310.27
854.94	333.67
855.324	347.72
855.708	354.74
856.091	326.65
856.475	336.01
856.858	328.99
857.242	359.42
857.625	326.65
858.009	326.65
858.392	359.42
858.775	321.97
859.158	343.03
859.541	359.42
859.924	312.61
860.307	314.95
860.69	310.27
861.073	310.27
861.456	291.54
861.838	319.63
862.221	319.63
862.604	354.74
862.986	364.1
863.369	289.2
863.751	340.69
864.133	378.14
864.516	326.65
864.898	321.97
865.28	303.25
865.662	366.44
866.044	286.86
866.426	303.25
866.808	333.67
867.19	385.16
867.572	298.56
867.954	333.67
868.336	324.31
868.717	296.22
869.099	289.2
869.48	298.56
869.862	328.99
870.243	314.95
870.625	343.03
871.006	303.25
871.387	303.25
871.768	312.61
872.149	338.35
872.53	310.27
872.911	277.5
873.292	333.67
873.673	333.67
874.054	312.61
874.435	303.25
874.815	296.22
875.196	272.82
875.577	338.35
875.957	300.91
876.338	324.31
876.718	291.54
877.098	336.01
877.479	345.38
877.859	326.65
878.239	319.63
878.619	317.29
878.999	354.74
879.379	354.74
879.759	340.69
880.139	312.61
880.519	345.38
880.898	261.12
881.278	284.52
881.658	291.54
882.037	375.8
882.417	340.69
882.796	312.61
883.176	296.22
883.555	364.1
883.934	326.65
884.313	328.99
884.693	263.46
885.072	352.4
885.451	312.61
885.83	336.01
886.209	312.61
886.587	340.69
886.966	286.86
887.345	314.95
887.724	321.97
888.102	338.35
888.481	347.72
888.859	352.4
889.238	300.91
889.616	333.67
889.994	275.16
890.373	321.97
890.751	380.48
891.129	298.56
891.507	347.72
891.885	319.63
892.263	319.63
892.641	357.08
893.019	340.69
893.396	382.82
893.774	326.65
894.152	340.69
894.529	312.61
894.907	343.03
895.284	317.29
895.662	284.52
896.039	324.31
896.416	310.27
896.794	319.63
897.171	321.97
897.548	314.95
897.925	310.27
898.302	312.61
898.679	382.82
899.056	324.31
899.433	263.46
899.809	307.93
900.186	319.63
900.563	340.69
900.939	333.67
901.316	289.2
901.692	312.61
902.069	368.78
902.445	361.76
902.821	394.53
903.197	289.2
903.574	310.27
903.95	277.5
904.326	277.5
904.702	312.61
905.078	307.93
905.454	378.14
905.829	282.18
906.205	324.31
906.581	277.5
906.956	317.29
907.332	310.27
907.707	336.01
908.083	314.95
908.458	310.27
908.833	354.74
909.209	326.65
909.584	293.88
909.959	314.95
910.334	359.42
910.709	307.93
911.084	307.93
911.459	357.08
911.834	366.44
912.209	282.18
912.583	298.56
912.958	326.65
913.333	270.48
913.707	256.43
914.082	307.93
914.456	289.2
914.83	340.69
915.205	387.5
915.579	366.44
915.953	279.84
916.327	354.74
916.701	389.85
917.075	324.31
917.449	270.48
917.823	251.75
918.197	364.1
918.571	338.35
918.944	338.35
919.318	336.01
919.692	364.1
920.065	350.06
920.438	368.78
920.812	350.06
921.185	247.07
921.558	303.25
921.932	357.08
922.305	286.86
922.678	314.95
923.051	343.03
923.424	300.91
923.797	312.61
924.17	291.54
924.542	319.63
924.915	328.99
925.288	307.93
925.661	305.59
926.033	345.38
926.406	289.2
926.778	331.33
927.15	284.52
927.523	324.31
927.895	237.71
928.267	279.84
928.639	272.82
929.011	254.09
929.383	343.03
929.755	286.86
930.127	317.29
930.499	275.16
930.871	303.25
931.242	300.91
931.614	338.35
931.986	331.33
932.357	282.18
932.729	286.86
933.1	307.93
933.471	303.25
933.843	319.63
934.214	321.97
934.585	343.03
934.956	350.06
935.327	300.91
935.698	298.56
936.069	324.31
936.44	319.63
936.811	310.27
937.182	326.65
937.552	354.74
937.923	375.8
938.293	396.87
938.664	303.25
939.034	340.69
939.405	312.61
939.775	326.65
940.145	258.78
940.516	277.5
940.886	291.54
941.256	357.08
941.626	307.93
941.996	282.18
942.366	347.72
942.735	331.33
943.105	364.1
943.475	298.56
943.845	317.29
944.214	331.33
944.584	240.05
944.953	321.97
945.323	289.2
945.692	359.42
946.061	305.59
946.43	263.46
946.8	244.73
947.169	317.29
947.538	324.31
947.907	254.09
948.276	256.43
948.645	350.06
949.013	284.52
949.382	328.99
949.751	242.39
950.119	268.14
950.488	249.41
950.857	291.54
951.225	303.25
951.593	312.61
951.962	375.8
952.33	338.35
952.698	298.56
953.066	319.63
953.434	366.44
953.802	321.97
954.17	265.8
954.538	331.33
954.906	307.93
955.274	317.29
955.642	319.63
956.009	361.76
956.377	282.18
956.744	350.06
957.112	364.1
957.479	317.29
957.847	441.34
958.214	368.78
958.581	347.72
958.948	312.61
959.315	275.16
959.683	312.61
960.05	305.59
960.416	326.65
960.783	216.65
961.15	286.86
961.517	296.22
961.884	263.46
962.25	317.29
962.617	279.84
962.983	263.46
963.35	282.18
963.716	298.56
964.082	307.93
964.449	331.33
964.815	336.01
965.181	289.2
965.547	331.33
965.913	336.01
966.279	366.44
966.645	303.25
967.011	298.56
967.377	286.86
967.742	298.56
968.108	331.33
968.474	328.99
968.839	354.74
969.205	352.4
969.57	298.56
969.935	305.59
970.301	307.93
970.666	289.2
971.031	324.31
971.396	359.42
971.761	371.12
972.126	303.25
972.491	289.2
972.856	305.59
973.221	314.95
973.586	324.31
973.95	305.59
974.315	321.97
974.679	324.31
975.044	286.86
975.408	366.44
975.773	310.27
976.137	394.53
976.501	291.54
976.866	305.59
977.23	303.25
977.594	247.07
977.958	354.74
978.322	382.82
978.686	408.57
979.049	343.03
979.413	328.99
979.777	289.2
980.141	293.88
980.504	319.63
980.868	258.78
981.231	303.25
981.595	317.29
981.958	333.67
982.321	265.8
982.684	277.5
983.048	324.31
983.411	279.84
983.774	319.63
984.137	347.72
984.5	305.59
984.862	357.08
985.225	261.12
985.588	336.01
985.951	289.2
986.313	319.63
986.676	275.16
987.038	270.48
987.401	312.61
987.763	317.29
988.125	350.06
988.488	389.85
988.85	345.38
989.212	305.59
989.574	247.07
989.936	333.67
990.298	258.78
990.66	336.01
991.022	296.22
991.383	310.27
991.745	347.72
992.107	263.46
992.468	336.01
992.83	389.85
993.191	350.06
993.553	354.74
993.914	265.8
994.275	303.25
994.637	357.08
994.998	314.95
995.359	429.63
995.72	347.72
996.081	282.18
996.442	256.43
996.803	361.76
997.163	350.06
997.524	303.25
997.885	289.2
998.245	296.22
998.606	366.44
998.966	296.22
999.327	291.54
999.687	321.97
1000.047	263.46
1000.408	256.43
1000.768	291.54
1001.128	326.65
1001.488	296.22
1001.848	321.97
1002.208	324.31
1002.568	321.97
1002.927	293.88
1003.287	282.18
1003.647	343.03
1004.007	291.54
1004.366	357.08
1004.726	244.73
1005.085	279.84
1005.444	268.14
1005.804	317.29
1006.163	321.97
1006.522	289.2
1006.881	307.93
1007.24	282.18
1007.599	289.2
1007.958	300.91
1008.317	289.2
1008.676	186.22
1009.035	321.97
1009.393	378.14
1009.752	345.38
1010.111	317.29
1010.469	321.97
1010.828	296.22
1011.186	319.63
1011.544	359.42
1011.903	251.75
1012.261	314.95
1012.619	300.91
1012.977	331.33
1013.335	235.37
1013.693	312.61
1014.051	310.27
1014.409	326.65
1014.767	286.86
1015.124	317.29
1015.482	333.67
1015.84	293.88
1016.197	312.61
1016.555	352.4
1016.912	251.75
1017.269	291.54
1017.627	258.78
1017.984	300.91
1018.341	333.67
1018.698	317.29
1019.055	237.71
1019.412	333.67
1019.769	345.38
1020.126	328.99
1020.483	354.74
1020.84	282.18
1021.196	300.91
1021.553	345.38
1021.909	298.56
1022.266	247.07
1022.622	228.35
1022.979	312.61
1023.335	354.74
1023.691	265.8
1024.047	263.46
1024.404	305.59
1024.76	300.91
1025.116	326.65
1025.472	314.95
1025.827	396.87
1026.183	413.25
1026.539	345.38
1026.895	279.84
1027.25	314.95
1027.606	296.22
1027.961	307.93
1028.317	233.03
1028.672	284.52
1029.028	371.12
1029.383	305.59
1029.738	312.61
1030.093	364.1
1030.448	310.27
1030.803	310.27
1031.158	328.99
1031.513	333.67
1031.868	336.01
1032.223	298.56
1032.577	345.38
1032.932	378.14
1033.287	324.31
1033.641	345.38
1033.996	340.69
1034.35	336.01
1034.704	319.63
1035.059	300.91
1035.413	317.29
1035.767	317.29
1036.121	317.29
