Data from Al_FLMS009871__505__14-38-38-527.txt Node

Date: Fri Mar 08 14:38:38 CST 2024
User: pe5414po
Spectrometer: FLMS00987
Trigger mode: 0
Integration Time (sec): 1.000000E-1
Scans to average: 1
Electric dark correction enabled: true
Nonlinearity correction enabled: false
Boxcar width: 0
XAxis mode: Wavelengths
Number of Pixels in Spectrum: 2048
>>>>>Begin Spectral Data<<<<<
188.938	-115.42
189.409	-115.42
189.879	-115.42
190.349	-124.78
190.819	-87.33
191.29	-113.08
191.76	-106.06
192.23	-77.97
192.7	-28.82
193.17	-33.5
193.64	-40.52
194.109	-28.82
194.579	-10.09
195.049	-40.52
195.519	41.4
195.988	55.44
196.458	-40.52
196.927	29.7
197.397	111.61
197.866	167.79
198.336	113.95
198.805	106.93
199.274	188.85
199.744	226.3
200.213	170.13
200.682	198.21
201.151	135.02
201.62	188.85
202.089	207.58
202.558	254.39
203.027	245.02
203.495	298.86
203.964	254.39
204.433	282.47
204.902	259.07
205.37	226.3
205.839	268.43
206.307	216.94
206.776	366.73
207.244	256.73
207.712	235.66
208.181	312.9
208.649	329.28
209.117	296.52
209.585	280.13
210.053	245.02
210.521	219.28
210.989	263.75
211.457	303.54
211.925	235.66
212.393	310.56
212.861	256.73
213.328	291.84
213.796	261.41
214.264	245.02
214.731	273.11
215.199	247.37
215.666	216.94
216.133	221.62
216.601	259.07
217.068	226.3
217.535	242.68
218.003	226.3
218.47	256.73
218.937	303.54
219.404	221.62
219.871	184.17
220.338	207.58
220.805	270.77
221.271	205.24
221.738	256.73
222.205	256.73
222.671	235.66
223.138	216.94
223.605	235.66
224.071	233.32
224.538	294.18
225.004	245.02
225.47	193.53
225.937	207.58
226.403	277.79
226.869	252.05
227.335	235.66
227.801	247.37
228.267	268.43
228.733	238
229.199	296.52
229.665	333.97
230.131	214.6
230.597	247.37
231.062	294.18
231.528	247.37
231.994	228.64
232.459	343.33
232.925	317.58
233.39	181.83
233.856	181.83
234.321	280.13
234.786	303.54
235.252	291.84
235.717	247.37
236.182	209.92
236.647	240.34
237.112	247.37
237.577	207.58
238.042	252.05
238.507	228.64
238.972	247.37
239.436	261.41
239.901	263.75
240.366	277.79
240.83	289.5
241.295	326.94
241.76	315.24
242.224	273.11
242.688	252.05
243.153	287.15
243.617	216.94
244.081	298.86
244.545	245.02
245.01	245.02
245.474	209.92
245.938	287.15
246.402	273.11
246.866	249.71
247.33	235.66
247.793	275.45
248.257	303.54
248.721	282.47
249.185	284.81
249.648	301.2
250.112	256.73
250.575	261.41
251.039	310.56
251.502	270.77
251.965	263.75
252.429	242.68
252.892	245.02
253.355	254.39
253.818	273.11
254.281	301.2
254.744	221.62
255.207	291.84
255.67	305.88
256.133	287.15
256.596	291.84
257.059	233.32
257.522	296.52
257.984	275.45
258.447	223.96
258.909	282.47
259.372	254.39
259.834	340.99
260.297	284.81
260.759	259.07
261.221	291.84
261.684	221.62
262.146	345.67
262.608	242.68
263.07	205.24
263.532	273.11
263.994	261.41
264.456	329.28
264.918	305.88
265.38	301.2
265.842	249.71
266.303	263.75
266.765	273.11
267.227	303.54
267.688	226.3
268.15	369.07
268.611	291.84
269.072	268.43
269.534	275.45
269.995	230.98
270.456	294.18
270.918	296.52
271.379	209.92
271.84	261.41
272.301	294.18
272.762	270.77
273.223	294.18
273.684	252.05
274.144	282.47
274.605	252.05
275.066	343.33
275.527	308.22
275.987	249.71
276.448	277.79
276.908	235.66
277.369	317.58
277.829	282.47
278.289	266.09
278.75	303.54
279.21	305.88
279.67	263.75
280.13	268.43
280.59	345.67
281.05	280.13
281.51	289.5
281.97	249.71
282.43	270.77
282.89	268.43
283.35	371.41
283.809	268.43
284.269	289.5
284.729	268.43
285.188	294.18
285.648	289.5
286.107	303.54
286.567	160.77
287.026	317.58
287.485	322.26
287.944	305.88
288.404	247.37
288.863	324.6
289.322	296.52
289.781	247.37
290.24	308.22
290.699	284.81
291.158	298.86
291.616	294.18
292.075	294.18
292.534	235.66
292.992	191.19
293.451	291.84
293.91	219.28
294.368	247.37
294.827	310.56
295.285	345.67
295.743	245.02
296.202	280.13
296.66	294.18
297.118	301.2
297.576	245.02
298.034	221.62
298.492	249.71
298.95	345.67
299.408	291.84
299.866	291.84
300.324	322.26
300.781	392.48
301.239	305.88
301.697	315.24
302.154	310.56
302.612	298.86
303.069	319.92
303.527	312.9
303.984	275.45
304.441	301.2
304.899	226.3
305.356	296.52
305.813	256.73
306.27	261.41
306.727	268.43
307.184	357.37
307.641	270.77
308.098	326.94
308.555	240.34
309.012	289.5
309.468	249.71
309.925	333.97
310.382	305.88
310.838	270.77
311.295	305.88
311.751	223.96
312.208	280.13
312.664	284.81
313.12	240.34
313.577	284.81
314.033	343.33
314.489	254.39
314.945	294.18
315.401	308.22
315.857	284.81
316.313	289.5
316.769	273.11
317.225	322.26
317.681	301.2
318.136	303.54
318.592	296.52
319.048	319.92
319.503	284.81
319.959	254.39
320.414	312.9
320.869	238
321.325	291.84
321.78	284.81
322.235	263.75
322.691	270.77
323.146	266.09
323.601	315.24
324.056	298.86
324.511	259.07
324.966	273.11
325.421	256.73
325.875	284.81
326.33	287.15
326.785	280.13
327.24	319.92
327.694	289.5
328.149	387.8
328.603	289.5
329.058	291.84
329.512	254.39
329.966	249.71
330.421	331.62
330.875	291.84
331.329	291.84
331.783	245.02
332.237	331.62
332.691	373.75
333.145	310.56
333.599	287.15
334.053	301.2
334.507	270.77
334.96	230.98
335.414	305.88
335.868	233.32
336.321	268.43
336.775	305.88
337.228	256.73
337.682	359.71
338.135	324.6
338.588	345.67
339.042	289.5
339.495	303.54
339.948	312.9
340.401	303.54
340.854	291.84
341.307	324.6
341.76	266.09
342.213	284.81
342.666	308.22
343.119	348.01
343.571	280.13
344.024	261.41
344.477	308.22
344.929	301.2
345.382	315.24
345.834	263.75
346.287	310.56
346.739	254.39
347.191	296.52
347.644	280.13
348.096	319.92
348.548	315.24
349	296.52
349.452	280.13
349.904	305.88
350.356	296.52
350.808	312.9
351.26	326.94
351.711	329.28
352.163	340.99
352.615	350.35
353.066	350.35
353.518	268.43
353.969	226.3
354.421	261.41
354.872	242.68
355.324	256.73
355.775	261.41
356.226	273.11
356.677	315.24
357.128	277.79
357.579	280.13
358.03	291.84
358.481	291.84
358.932	331.62
359.383	270.77
359.834	310.56
360.285	263.75
360.735	343.33
361.186	284.81
361.637	315.24
362.087	319.92
362.538	343.33
362.988	322.26
363.438	317.58
363.889	284.81
364.339	305.88
364.789	284.81
365.239	275.45
365.689	319.92
366.139	308.22
366.589	317.58
367.039	303.54
367.489	261.41
367.939	296.52
368.389	305.88
368.839	287.15
369.288	317.58
369.738	301.2
370.187	303.54
370.637	312.9
371.086	322.26
371.536	296.52
371.985	305.88
372.434	298.86
372.884	317.58
373.333	373.75
373.782	298.86
374.231	298.86
374.68	380.78
375.129	273.11
375.578	315.24
376.027	315.24
376.475	324.6
376.924	312.9
377.373	319.92
377.822	275.45
378.27	289.5
378.719	369.07
379.167	312.9
379.616	324.6
380.064	298.86
380.512	324.6
380.961	266.09
381.409	280.13
381.857	298.86
382.305	315.24
382.753	331.62
383.201	294.18
383.649	348.01
384.097	291.84
384.545	303.54
384.992	326.94
385.44	322.26
385.888	301.2
386.335	287.15
386.783	289.5
387.231	324.6
387.678	280.13
388.125	268.43
388.573	350.35
389.02	301.2
389.467	275.45
389.914	315.24
390.362	308.22
390.809	336.31
391.256	310.56
391.703	303.54
392.15	317.58
392.596	324.6
393.043	333.97
393.49	287.15
393.937	378.44
394.383	366.73
394.83	280.13
395.276	340.99
395.723	340.99
396.169	369.07
396.616	315.24
397.062	305.88
397.508	275.45
397.954	294.18
398.401	345.67
398.847	298.86
399.293	280.13
399.739	317.58
400.185	308.22
400.631	324.6
401.076	268.43
401.522	305.88
401.968	273.11
402.414	287.15
402.859	261.41
403.305	294.18
403.75	261.41
404.196	333.97
404.641	331.62
405.086	319.92
405.532	312.9
405.977	277.79
406.422	298.86
406.867	298.86
407.312	291.84
407.757	317.58
408.202	247.37
408.647	324.6
409.092	296.52
409.537	254.39
409.982	226.3
410.426	340.99
410.871	247.37
411.316	340.99
411.76	287.15
412.205	357.37
412.649	331.62
413.093	350.35
413.538	331.62
413.982	247.37
414.426	254.39
414.87	326.94
415.314	336.31
415.758	252.05
416.202	383.12
416.646	305.88
417.09	333.97
417.534	301.2
417.978	287.15
418.421	343.33
418.865	331.62
419.309	340.99
419.752	305.88
420.196	308.22
420.639	303.54
421.083	340.99
421.526	289.5
421.969	340.99
422.412	310.56
422.856	383.12
423.299	312.9
423.742	348.01
424.185	228.64
424.628	221.62
425.071	268.43
425.513	280.13
425.956	282.47
426.399	322.26
426.842	284.81
427.284	317.58
427.727	282.47
428.169	263.75
428.612	378.44
429.054	308.22
429.497	310.56
429.939	287.15
430.381	310.56
430.823	345.67
431.265	291.84
431.707	245.02
432.149	303.54
432.591	273.11
433.033	282.47
433.475	291.84
433.917	324.6
434.359	252.05
434.8	305.88
435.242	305.88
435.684	362.05
436.125	270.77
436.567	362.05
437.008	261.41
437.449	284.81
437.891	312.9
438.332	324.6
438.773	308.22
439.214	273.11
439.656	223.96
440.097	326.94
440.538	242.68
440.978	287.15
441.419	329.28
441.86	324.6
442.301	310.56
442.742	310.56
443.182	284.81
443.623	249.71
444.063	383.12
444.504	324.6
444.944	254.39
445.385	294.18
445.825	303.54
446.265	310.56
446.706	303.54
447.146	371.41
447.586	326.94
448.026	303.54
448.466	212.26
448.906	294.18
449.346	284.81
449.786	235.66
450.225	205.24
450.665	303.54
451.105	289.5
451.544	359.71
451.984	343.33
452.424	282.47
452.863	280.13
453.302	240.34
453.742	308.22
454.181	364.39
454.62	315.24
455.059	277.79
455.499	326.94
455.938	310.56
456.377	376.09
456.816	233.32
457.254	242.68
457.693	263.75
458.132	282.47
458.571	249.71
459.01	273.11
459.448	315.24
459.887	315.24
460.325	273.11
460.764	317.58
461.202	296.52
461.641	355.03
462.079	345.67
462.517	352.69
462.955	282.47
463.393	261.41
463.832	235.66
464.27	301.2
464.708	331.62
465.145	338.65
465.583	268.43
466.021	296.52
466.459	263.75
466.897	298.86
467.334	291.84
467.772	364.39
468.209	219.28
468.647	263.75
469.084	343.33
469.522	291.84
469.959	366.73
470.396	350.35
470.833	291.84
471.271	345.67
471.708	329.28
472.145	301.2
472.582	242.68
473.019	348.01
473.456	268.43
473.892	282.47
474.329	277.79
474.766	319.92
475.202	296.52
475.639	270.77
476.076	254.39
476.512	369.07
476.949	305.88
477.385	223.96
477.821	315.24
478.258	301.2
478.694	331.62
479.13	331.62
479.566	291.84
480.002	280.13
480.438	273.11
480.874	308.22
481.31	275.45
481.746	282.47
482.181	310.56
482.617	282.47
483.053	305.88
483.488	252.05
483.924	287.15
484.36	268.43
484.795	324.6
485.23	322.26
485.666	291.84
486.101	308.22
486.536	284.81
486.971	336.31
487.407	280.13
487.842	259.07
488.277	268.43
488.712	252.05
489.146	348.01
489.581	305.88
490.016	340.99
490.451	336.31
490.885	315.24
491.32	282.47
491.755	326.94
492.189	350.35
492.624	324.6
493.058	326.94
493.492	362.05
493.927	329.28
494.361	303.54
494.795	298.86
495.229	305.88
495.663	294.18
496.097	291.84
496.531	289.5
496.965	301.2
497.399	280.13
497.833	303.54
498.266	291.84
498.7	324.6
499.134	357.37
499.567	287.15
500.001	270.77
500.434	310.56
500.868	228.64
501.301	301.2
501.734	355.03
502.168	390.14
502.601	301.2
503.034	270.77
503.467	315.24
503.9	287.15
504.333	331.62
504.766	305.88
505.199	301.2
505.632	308.22
506.064	275.45
506.497	312.9
506.93	280.13
507.362	315.24
507.795	357.37
508.227	266.09
508.66	266.09
509.092	305.88
509.524	266.09
509.956	226.3
510.389	336.31
510.821	289.5
511.253	261.41
511.685	289.5
512.117	348.01
512.549	329.28
512.981	273.11
513.412	315.24
513.844	305.88
514.276	338.65
514.707	371.41
515.139	333.97
515.571	317.58
516.002	340.99
516.433	319.92
516.865	298.86
517.296	238
517.727	287.15
518.159	308.22
518.59	305.88
519.021	310.56
519.452	238
519.883	284.81
520.314	352.69
520.744	317.58
521.175	338.65
521.606	289.5
522.037	280.13
522.467	317.58
522.898	296.52
523.328	296.52
523.759	338.65
524.189	226.3
524.62	310.56
525.05	298.86
525.48	336.31
525.91	296.52
526.341	263.75
526.771	319.92
527.201	277.79
527.631	291.84
528.061	261.41
528.49	315.24
528.92	296.52
529.35	345.67
529.78	277.79
530.209	362.05
530.639	322.26
531.068	322.26
531.498	357.37
531.927	280.13
532.357	294.18
532.786	247.37
533.215	373.75
533.644	333.97
534.074	343.33
534.503	308.22
534.932	317.58
535.361	343.33
535.79	317.58
536.218	280.13
536.647	291.84
537.076	329.28
537.505	252.05
537.933	291.84
538.362	343.33
538.79	273.11
539.219	263.75
539.647	301.2
540.076	305.88
540.504	280.13
540.932	333.97
541.36	343.33
541.788	329.28
542.217	322.26
542.645	301.2
543.073	252.05
543.5	270.77
543.928	329.28
544.356	247.37
544.784	319.92
545.211	282.47
545.639	273.11
546.067	287.15
546.494	289.5
546.922	282.47
547.349	282.47
547.776	333.97
548.204	280.13
548.631	319.92
549.058	362.05
549.485	296.52
549.912	345.67
550.339	296.52
550.766	319.92
551.193	355.03
551.62	373.75
552.047	324.6
552.474	308.22
552.9	230.98
553.327	245.02
553.754	296.52
554.18	326.94
554.607	329.28
555.033	331.62
555.459	362.05
555.886	308.22
556.312	273.11
556.738	380.78
557.164	331.62
557.59	280.13
558.016	310.56
558.442	319.92
558.868	247.37
559.294	280.13
559.72	301.2
560.145	305.88
560.571	329.28
560.997	284.81
561.422	305.88
561.848	310.56
562.273	247.37
562.699	277.79
563.124	322.26
563.549	312.9
563.974	319.92
564.4	298.86
564.825	284.81
565.25	383.12
565.675	331.62
566.1	310.56
566.525	315.24
566.95	308.22
567.374	362.05
567.799	312.9
568.224	259.07
568.648	308.22
569.073	319.92
569.497	326.94
569.922	280.13
570.346	303.54
570.771	254.39
571.195	329.28
571.619	301.2
572.043	291.84
572.467	322.26
572.891	263.75
573.315	277.79
573.739	305.88
574.163	310.56
574.587	280.13
575.011	259.07
575.435	266.09
575.858	322.26
576.282	324.6
576.705	287.15
577.129	308.22
577.552	247.37
577.976	340.99
578.399	275.45
578.822	359.71
579.245	319.92
579.669	303.54
580.092	280.13
580.515	364.39
580.938	294.18
581.361	245.02
581.784	340.99
582.206	263.75
582.629	324.6
583.052	326.94
583.474	310.56
583.897	312.9
584.32	338.65
584.742	275.45
585.165	296.52
585.587	301.2
586.009	308.22
586.431	287.15
586.854	345.67
587.276	308.22
587.698	352.69
588.12	282.47
588.542	294.18
588.964	348.01
589.386	343.33
589.807	289.5
590.229	338.65
590.651	252.05
591.073	287.15
591.494	303.54
591.916	268.43
592.337	287.15
592.759	301.2
593.18	289.5
593.601	261.41
594.022	275.45
594.444	326.94
594.865	357.37
595.286	259.07
595.707	357.37
596.128	289.5
596.549	291.84
596.97	357.37
597.39	280.13
597.811	287.15
598.232	268.43
598.652	305.88
599.073	333.97
599.494	282.47
599.914	312.9
600.334	331.62
600.755	322.26
601.175	322.26
601.595	329.28
602.015	331.62
602.436	256.73
602.856	425.25
603.276	294.18
603.696	376.09
604.115	298.86
604.535	336.31
604.955	298.86
605.375	355.03
605.794	305.88
606.214	319.92
606.634	338.65
607.053	352.69
607.473	315.24
607.892	284.81
608.311	366.73
608.731	296.52
609.15	289.5
609.569	289.5
609.988	256.73
610.407	273.11
610.826	303.54
611.245	348.01
611.664	329.28
612.083	284.81
612.501	282.47
612.92	312.9
613.339	333.97
613.757	212.26
614.176	289.5
614.594	319.92
615.013	284.81
615.431	261.41
615.85	383.12
616.268	348.01
616.686	343.33
617.104	322.26
617.522	305.88
617.94	319.92
618.358	362.05
618.776	252.05
619.194	326.94
619.612	336.31
620.03	371.41
620.447	331.62
620.865	301.2
621.282	254.39
621.7	301.2
622.117	359.71
622.535	317.58
622.952	287.15
623.369	240.34
623.787	259.07
624.204	298.86
624.621	291.84
625.038	298.86
625.455	247.37
625.872	256.73
626.289	259.07
626.706	315.24
627.123	277.79
627.539	308.22
627.956	340.99
628.373	308.22
628.789	322.26
629.206	256.73
629.622	324.6
630.038	205.24
630.455	362.05
630.871	340.99
631.287	284.81
631.703	298.86
632.12	343.33
632.536	289.5
632.952	294.18
633.368	266.09
633.783	315.24
634.199	275.45
634.615	343.33
635.031	340.99
635.446	312.9
635.862	345.67
636.277	280.13
636.693	303.54
637.108	233.32
637.524	350.35
637.939	333.97
638.354	273.11
638.77	275.45
639.185	277.79
639.6	345.67
640.015	308.22
640.43	287.15
640.845	312.9
641.259	280.13
641.674	315.24
642.089	287.15
642.504	298.86
642.918	331.62
643.333	310.56
643.747	298.86
644.162	261.41
644.576	273.11
644.991	312.9
645.405	296.52
645.819	254.39
646.233	216.94
646.647	315.24
647.061	280.13
647.475	336.31
647.889	291.84
648.303	338.65
648.717	289.5
649.131	343.33
649.545	301.2
649.958	212.26
650.372	301.2
650.785	263.75
651.199	280.13
651.612	319.92
652.026	355.03
652.439	305.88
652.852	291.84
653.266	296.52
653.679	338.65
654.092	352.69
654.505	284.81
654.918	291.84
655.331	247.37
655.744	282.47
656.156	270.77
656.569	289.5
656.982	268.43
657.394	326.94
657.807	366.73
658.22	305.88
658.632	319.92
659.044	312.9
659.457	315.24
659.869	357.37
660.281	331.62
660.693	301.2
661.106	298.86
661.518	247.37
661.93	310.56
662.342	322.26
662.754	296.52
663.165	287.15
663.577	289.5
663.989	291.84
664.401	308.22
664.812	331.62
665.224	317.58
665.635	352.69
666.047	296.52
666.458	301.2
666.869	280.13
667.281	338.65
667.692	326.94
668.103	284.81
668.514	273.11
668.925	310.56
669.336	310.56
669.747	249.71
670.158	289.5
670.569	301.2
670.979	291.84
671.39	352.69
671.801	355.03
672.211	268.43
672.622	249.71
673.032	324.6
673.443	284.81
673.853	296.52
674.263	242.68
674.674	284.81
675.084	298.86
675.494	298.86
675.904	322.26
676.314	296.52
676.724	298.86
677.134	296.52
677.544	291.84
677.953	289.5
678.363	275.45
678.773	277.79
679.182	317.58
679.592	319.92
680.001	315.24
680.411	266.09
680.82	261.41
681.23	277.79
681.639	357.37
682.048	284.81
682.457	252.05
682.866	263.75
683.275	331.62
683.684	254.39
684.093	284.81
684.502	329.28
684.911	319.92
685.32	322.26
685.728	310.56
686.137	336.31
686.546	296.52
686.954	310.56
687.363	326.94
687.771	305.88
688.179	319.92
688.588	275.45
688.996	198.21
689.404	240.34
689.812	308.22
690.22	235.66
690.628	303.54
691.036	333.97
691.444	303.54
691.852	329.28
692.26	366.73
692.667	289.5
693.075	322.26
693.483	284.81
693.89	245.02
694.298	319.92
694.705	301.2
695.112	326.94
695.52	308.22
695.927	301.2
696.334	254.39
696.741	273.11
697.148	235.66
697.555	240.34
697.962	315.24
698.369	315.24
698.776	277.79
699.183	319.92
699.59	326.94
699.996	303.54
700.403	303.54
700.81	369.07
701.216	277.79
701.623	333.97
702.029	284.81
702.435	331.62
702.842	308.22
703.248	266.09
703.654	322.26
704.06	326.94
704.466	298.86
704.872	282.47
705.278	317.58
705.684	317.58
706.09	338.65
706.496	362.05
706.901	371.41
707.307	296.52
707.712	310.56
708.118	315.24
708.523	350.35
708.929	270.77
709.334	303.54
709.74	305.88
710.145	326.94
710.55	242.68
710.955	329.28
711.36	289.5
711.765	303.54
712.17	282.47
712.575	338.65
712.98	891.01
713.385	352.69
713.789	322.26
714.194	301.2
714.599	291.84
715.003	291.84
715.408	350.35
715.812	312.9
716.217	305.88
716.621	305.88
717.025	319.92
717.429	270.77
717.833	308.22
718.238	336.31
718.642	317.58
719.046	235.66
719.449	287.15
719.853	352.69
720.257	291.84
720.661	333.97
721.065	319.92
721.468	252.05
721.872	312.9
722.275	240.34
722.679	322.26
723.082	310.56
723.485	277.79
723.889	275.45
724.292	331.62
724.695	350.35
725.098	315.24
725.501	242.68
725.904	256.73
726.307	322.26
726.71	256.73
727.113	298.86
727.516	338.65
727.918	326.94
728.321	284.81
728.724	331.62
729.126	245.02
729.529	273.11
729.931	277.79
730.333	317.58
730.736	308.22
731.138	352.69
731.54	259.07
731.942	238
732.344	291.84
732.746	329.28
733.148	322.26
733.55	355.03
733.952	280.13
734.354	296.52
734.756	319.92
735.157	308.22
735.559	333.97
735.96	343.33
736.362	331.62
736.763	296.52
737.165	315.24
737.566	303.54
737.967	355.03
738.368	350.35
738.77	336.31
739.171	308.22
739.572	308.22
739.973	310.56
740.374	294.18
740.774	287.15
741.175	315.24
741.576	380.78
741.977	348.01
742.377	308.22
742.778	298.86
743.178	308.22
743.579	326.94
743.979	319.92
744.379	245.02
744.78	362.05
745.18	268.43
745.58	319.92
745.98	394.82
746.38	310.56
746.78	303.54
747.18	326.94
747.58	240.34
747.98	310.56
748.38	296.52
748.779	223.96
749.179	230.98
749.578	303.54
749.978	296.52
750.377	308.22
750.777	305.88
751.176	312.9
751.575	256.73
751.975	289.5
752.374	291.84
752.773	298.86
753.172	308.22
753.571	247.37
753.97	277.79
754.369	310.56
754.768	305.88
755.166	305.88
755.565	303.54
755.964	298.86
756.362	315.24
756.761	331.62
757.159	284.81
757.558	247.37
757.956	296.52
758.354	326.94
758.753	294.18
759.151	284.81
759.549	289.5
759.947	298.86
760.345	315.24
760.743	256.73
761.141	303.54
761.539	277.79
761.936	329.28
762.334	303.54
762.732	256.73
763.129	345.67
763.527	308.22
763.924	385.46
764.322	256.73
764.719	266.09
765.117	310.56
765.514	282.47
765.911	305.88
766.308	261.41
766.705	289.5
767.102	296.52
767.499	291.84
767.896	289.5
768.293	348.01
768.69	324.6
769.086	252.05
769.483	324.6
769.88	333.97
770.276	348.01
770.673	284.81
771.069	376.09
771.466	298.86
771.862	355.03
772.258	315.24
772.654	284.81
773.05	343.33
773.447	296.52
773.843	357.37
774.239	284.81
774.634	242.68
775.03	364.39
775.426	270.77
775.822	291.84
776.218	355.03
776.613	310.56
777.009	268.43
777.404	324.6
777.8	273.11
778.195	296.52
778.59	291.84
778.986	308.22
779.381	289.5
779.776	343.33
780.171	392.48
780.566	296.52
780.961	324.6
781.356	305.88
781.751	266.09
782.146	282.47
782.54	284.81
782.935	345.67
783.33	266.09
783.724	355.03
784.119	315.24
784.513	317.58
784.908	226.3
785.302	298.86
785.696	333.97
786.09	266.09
786.485	319.92
786.879	319.92
787.273	277.79
787.667	364.39
788.061	294.18
788.454	315.24
788.848	394.82
789.242	275.45
789.636	310.56
790.029	266.09
790.423	317.58
790.816	287.15
791.21	317.58
791.603	277.79
791.997	228.64
792.39	305.88
792.783	340.99
793.176	380.78
793.569	298.86
793.962	284.81
794.355	322.26
794.748	294.18
795.141	242.68
795.534	296.52
795.927	261.41
796.319	317.58
796.712	228.64
797.105	310.56
797.497	383.12
797.89	329.28
798.282	324.6
798.674	294.18
799.067	362.05
799.459	277.79
799.851	352.69
800.243	294.18
800.635	298.86
801.027	284.81
801.419	261.41
801.811	355.03
802.203	284.81
802.594	319.92
802.986	336.31
803.378	268.43
803.769	268.43
804.161	298.86
804.552	277.79
804.944	282.47
805.335	317.58
805.726	373.75
806.118	263.75
806.509	284.81
806.9	305.88
807.291	333.97
807.682	324.6
808.073	301.2
808.464	345.67
808.855	392.48
809.245	284.81
809.636	383.12
810.027	324.6
810.417	291.84
810.808	291.84
811.198	280.13
811.589	273.11
811.979	298.86
812.369	343.33
812.759	273.11
813.15	319.92
813.54	362.05
813.93	301.2
814.32	294.18
814.71	282.47
815.1	277.79
815.489	275.45
815.879	362.05
816.269	289.5
816.658	399.5
817.048	303.54
817.438	294.18
817.827	312.9
818.216	329.28
818.606	303.54
818.995	322.26
819.384	345.67
819.773	247.37
820.163	291.84
820.552	308.22
820.941	312.9
821.33	282.47
821.718	298.86
822.107	357.37
822.496	310.56
822.885	312.9
823.273	305.88
823.662	287.15
824.05	282.47
824.439	277.79
824.827	294.18
825.216	308.22
825.604	270.77
825.992	324.6
826.38	317.58
826.768	294.18
827.156	310.56
827.544	282.47
827.932	289.5
828.32	291.84
828.708	294.18
829.096	282.47
829.483	291.84
829.871	357.37
830.259	273.11
830.646	266.09
831.034	282.47
831.421	287.15
831.808	249.71
832.196	202.9
832.583	303.54
832.97	310.56
833.357	298.86
833.744	326.94
834.131	228.64
834.518	317.58
834.905	226.3
835.292	305.88
835.678	399.5
836.065	233.32
836.452	240.34
836.838	263.75
837.225	350.35
837.611	270.77
837.998	301.2
838.384	397.16
838.77	273.11
839.157	340.99
839.543	301.2
839.929	296.52
840.315	298.86
840.701	305.88
841.087	392.48
841.473	287.15
841.858	275.45
842.244	287.15
842.63	303.54
843.015	282.47
843.401	355.03
843.787	233.32
844.172	303.54
844.557	252.05
844.943	291.84
845.328	249.71
845.713	277.79
846.098	303.54
846.483	291.84
846.868	245.02
847.253	270.77
847.638	303.54
848.023	303.54
848.408	259.07
848.793	324.6
849.177	268.43
849.562	322.26
849.947	284.81
850.331	308.22
850.715	312.9
851.1	270.77
851.484	331.62
851.868	331.62
852.253	305.88
852.637	284.81
853.021	301.2
853.405	289.5
853.789	289.5
854.173	284.81
854.557	303.54
854.94	333.97
855.324	408.86
855.708	296.52
856.091	275.45
856.475	266.09
856.858	340.99
857.242	298.86
857.625	289.5
858.009	326.94
858.392	252.05
858.775	209.92
859.158	338.65
859.541	259.07
859.924	296.52
860.307	301.2
860.69	303.54
861.073	273.11
861.456	275.45
861.838	312.9
862.221	315.24
862.604	256.73
862.986	287.15
863.369	294.18
863.751	336.31
864.133	326.94
864.516	336.31
864.898	270.77
865.28	326.94
865.662	296.52
866.044	324.6
866.426	324.6
866.808	291.84
867.19	296.52
867.572	280.13
867.954	284.81
868.336	261.41
868.717	319.92
869.099	298.86
869.48	362.05
869.862	303.54
870.243	348.01
870.625	259.07
871.006	310.56
871.387	289.5
871.768	298.86
872.149	259.07
872.53	266.09
872.911	287.15
873.292	291.84
873.673	291.84
874.054	369.07
874.435	340.99
874.815	294.18
875.196	268.43
875.577	263.75
875.957	303.54
876.338	275.45
876.718	294.18
877.098	233.32
877.479	352.69
877.859	322.26
878.239	294.18
878.619	270.77
878.999	319.92
879.379	312.9
879.759	336.31
880.139	238
880.519	305.88
880.898	371.41
881.278	312.9
881.658	296.52
882.037	284.81
882.417	280.13
882.796	303.54
883.176	266.09
883.555	298.86
883.934	340.99
884.313	282.47
884.693	326.94
885.072	219.28
885.451	287.15
885.83	252.05
886.209	301.2
886.587	305.88
886.966	331.62
887.345	275.45
887.724	273.11
888.102	282.47
888.481	340.99
888.859	280.13
889.238	303.54
889.616	245.02
889.994	254.39
890.373	298.86
890.751	324.6
891.129	298.86
891.507	254.39
891.885	291.84
892.263	310.56
892.641	275.45
893.019	282.47
893.396	329.28
893.774	343.33
894.152	291.84
894.529	266.09
894.907	291.84
895.284	277.79
895.662	312.9
896.039	277.79
896.416	247.37
896.794	273.11
897.171	252.05
897.548	294.18
897.925	331.62
898.302	289.5
898.679	343.33
899.056	305.88
899.433	280.13
899.809	270.77
900.186	333.97
900.563	308.22
900.939	303.54
901.316	301.2
901.692	291.84
902.069	280.13
902.445	301.2
902.821	256.73
903.197	305.88
903.574	287.15
903.95	263.75
904.326	259.07
904.702	336.31
905.078	359.71
905.454	322.26
905.829	273.11
906.205	331.62
906.581	291.84
906.956	280.13
907.332	308.22
907.707	301.2
908.083	238
908.458	357.37
908.833	301.2
909.209	333.97
909.584	305.88
909.959	289.5
910.334	259.07
910.709	357.37
911.084	331.62
911.459	322.26
911.834	259.07
912.209	209.92
912.583	338.65
912.958	331.62
913.333	312.9
913.707	252.05
914.082	317.58
914.456	273.11
914.83	294.18
915.205	261.41
915.579	315.24
915.953	263.75
916.327	249.71
916.701	345.67
917.075	254.39
917.449	298.86
917.823	240.34
918.197	326.94
918.571	291.84
918.944	296.52
919.318	305.88
919.692	252.05
920.065	240.34
920.438	357.37
920.812	284.81
921.185	252.05
921.558	245.02
921.932	298.86
922.305	333.97
922.678	303.54
923.051	296.52
923.424	245.02
923.797	287.15
924.17	284.81
924.542	350.35
924.915	340.99
925.288	301.2
925.661	266.09
926.033	219.28
926.406	261.41
926.778	242.68
927.15	282.47
927.523	322.26
927.895	317.58
928.267	310.56
928.639	333.97
929.011	259.07
929.383	209.92
929.755	235.66
930.127	315.24
930.499	294.18
930.871	359.71
931.242	228.64
931.614	324.6
931.986	280.13
932.357	317.58
932.729	322.26
933.1	298.86
933.471	303.54
933.843	310.56
934.214	263.75
934.585	270.77
934.956	268.43
935.327	238
935.698	287.15
936.069	226.3
936.44	263.75
936.811	308.22
937.182	238
937.552	238
937.923	315.24
938.293	301.2
938.664	254.39
939.034	256.73
939.405	298.86
939.775	308.22
940.145	259.07
940.516	352.69
940.886	280.13
941.256	291.84
941.626	333.97
941.996	256.73
942.366	280.13
942.735	305.88
943.105	343.33
943.475	275.45
943.845	303.54
944.214	277.79
944.584	303.54
944.953	266.09
945.323	294.18
945.692	331.62
946.061	294.18
946.43	322.26
946.8	275.45
947.169	336.31
947.538	280.13
947.907	336.31
948.276	252.05
948.645	312.9
949.013	301.2
949.382	352.69
949.751	310.56
950.119	305.88
950.488	270.77
950.857	254.39
951.225	289.5
951.593	268.43
951.962	308.22
952.33	357.37
952.698	235.66
953.066	273.11
953.434	261.41
953.802	291.84
954.17	282.47
954.538	282.47
954.906	245.02
955.274	287.15
955.642	296.52
956.009	287.15
956.377	338.65
956.744	399.5
957.112	289.5
957.479	275.45
957.847	322.26
958.214	305.88
958.581	275.45
958.948	282.47
959.315	322.26
959.683	322.26
960.05	289.5
960.416	298.86
960.783	277.79
961.15	280.13
961.517	280.13
961.884	245.02
962.25	235.66
962.617	242.68
962.983	348.01
963.35	362.05
963.716	287.15
964.082	380.78
964.449	305.88
964.815	319.92
965.181	387.8
965.547	294.18
965.913	270.77
966.279	322.26
966.645	357.37
967.011	247.37
967.377	383.12
967.742	254.39
968.108	308.22
968.474	193.53
968.839	308.22
969.205	319.92
969.57	254.39
969.935	259.07
970.301	280.13
970.666	263.75
971.031	282.47
971.396	380.78
971.761	350.35
972.126	296.52
972.491	291.84
972.856	324.6
973.221	308.22
973.586	223.96
973.95	252.05
974.315	329.28
974.679	340.99
975.044	277.79
975.408	333.97
975.773	273.11
976.137	259.07
976.501	209.92
976.866	308.22
977.23	280.13
977.594	324.6
977.958	322.26
978.322	214.6
978.686	310.56
979.049	268.43
979.413	266.09
979.777	312.9
980.141	324.6
980.504	352.69
980.868	298.86
981.231	284.81
981.595	261.41
981.958	294.18
982.321	317.58
982.684	305.88
983.048	266.09
983.411	315.24
983.774	228.64
984.137	282.47
984.5	242.68
984.862	233.32
985.225	303.54
985.588	252.05
985.951	277.79
986.313	319.92
986.676	221.62
987.038	298.86
987.401	277.79
987.763	228.64
988.125	291.84
988.488	308.22
988.85	249.71
989.212	308.22
989.574	303.54
989.936	277.79
990.298	287.15
990.66	303.54
991.022	338.65
991.383	303.54
991.745	364.39
992.107	294.18
992.468	275.45
992.83	240.34
993.191	275.45
993.553	319.92
993.914	275.45
994.275	209.92
994.637	303.54
994.998	350.35
995.359	305.88
995.72	336.31
996.081	280.13
996.442	350.35
996.803	280.13
997.163	298.86
997.524	343.33
997.885	319.92
998.245	256.73
998.606	301.2
998.966	287.15
999.327	261.41
999.687	259.07
1000.047	340.99
1000.408	310.56
1000.768	303.54
1001.128	263.75
1001.488	275.45
1001.848	280.13
1002.208	282.47
1002.568	284.81
1002.927	254.39
1003.287	326.94
1003.647	333.97
1004.007	259.07
1004.366	298.86
1004.726	263.75
1005.085	348.01
1005.444	298.86
1005.804	326.94
1006.163	268.43
1006.522	287.15
1006.881	305.88
1007.24	315.24
1007.599	287.15
1007.958	345.67
1008.317	214.6
1008.676	289.5
1009.035	294.18
1009.393	294.18
1009.752	268.43
1010.111	235.66
1010.469	329.28
1010.828	298.86
1011.186	242.68
1011.544	298.86
1011.903	277.79
1012.261	319.92
1012.619	315.24
1012.977	333.97
1013.335	291.84
1013.693	298.86
1014.051	352.69
1014.409	331.62
1014.767	312.9
1015.124	235.66
1015.482	291.84
1015.84	322.26
1016.197	294.18
1016.555	266.09
1016.912	268.43
1017.269	287.15
1017.627	247.37
1017.984	303.54
1018.341	303.54
1018.698	322.26
1019.055	317.58
1019.412	355.03
1019.769	312.9
1020.126	308.22
1020.483	359.71
1020.84	310.56
1021.196	282.47
1021.553	256.73
1021.909	310.56
1022.266	294.18
1022.622	249.71
1022.979	315.24
1023.335	303.54
1023.691	310.56
1024.047	350.35
1024.404	256.73
1024.76	205.24
1025.116	298.86
1025.472	245.02
1025.827	261.41
1026.183	252.05
1026.539	329.28
1026.895	324.6
1027.25	277.79
1027.606	301.2
1027.961	319.92
1028.317	249.71
1028.672	359.71
1029.028	317.58
1029.383	282.47
1029.738	329.28
1030.093	275.45
1030.448	317.58
1030.803	268.43
1031.158	263.75
1031.513	333.97
1031.868	223.96
1032.223	338.65
1032.577	308.22
1032.932	305.88
1033.287	284.81
1033.641	291.84
1033.996	301.2
1034.35	263.75
1034.704	238
1035.059	284.81
1035.413	263.75
1035.767	263.75
1036.121	263.75
