Data from Al_FLMS009871__506__14-38-38-627.txt Node

Date: Fri Mar 08 14:38:38 CST 2024
User: pe5414po
Spectrometer: FLMS00987
Trigger mode: 0
Integration Time (sec): 1.000000E-1
Scans to average: 1
Electric dark correction enabled: true
Nonlinearity correction enabled: false
Boxcar width: 0
XAxis mode: Wavelengths
Number of Pixels in Spectrum: 2048
>>>>>Begin Spectral Data<<<<<
188.938	-31.16
189.409	-31.16
189.879	-31.16
190.349	-63.93
190.819	-68.61
191.29	-84.99
191.76	-136.48
192.23	-129.46
192.7	-101.37
193.17	-61.59
193.64	-35.84
194.109	8.63
194.579	-17.12
195.049	-17.12
195.519	64.8
195.988	29.7
196.458	62.46
196.927	113.95
197.397	53.1
197.866	118.64
198.336	132.68
198.805	167.79
199.274	245.02
199.744	153.74
200.213	195.87
200.682	193.53
201.151	254.39
201.62	245.02
202.089	238
202.558	259.07
203.027	345.67
203.495	348.01
203.964	310.56
204.433	317.58
204.902	331.62
205.37	301.2
205.839	263.75
206.307	329.28
206.776	305.88
207.244	298.86
207.712	268.43
208.181	338.65
208.649	301.2
209.117	256.73
209.585	287.15
210.053	312.9
210.521	338.65
210.989	296.52
211.457	331.62
211.925	308.22
212.393	233.32
212.861	277.79
213.328	308.22
213.796	322.26
214.264	305.88
214.731	291.84
215.199	312.9
215.666	273.11
216.133	252.05
216.601	340.99
217.068	287.15
217.535	289.5
218.003	268.43
218.47	315.24
218.937	261.41
219.404	280.13
219.871	277.79
220.338	303.54
220.805	266.09
221.271	282.47
221.738	282.47
222.205	270.77
222.671	209.92
223.138	298.86
223.605	291.84
224.071	324.6
224.538	263.75
225.004	252.05
225.47	301.2
225.937	287.15
226.403	252.05
226.869	338.65
227.335	277.79
227.801	273.11
228.267	298.86
228.733	282.47
229.199	329.28
229.665	303.54
230.131	319.92
230.597	333.97
231.062	240.34
231.528	259.07
231.994	247.37
232.459	249.71
232.925	256.73
233.39	308.22
233.856	355.03
234.321	252.05
234.786	308.22
235.252	336.31
235.717	249.71
236.182	333.97
236.647	291.84
237.112	282.47
237.577	329.28
238.042	326.94
238.507	317.58
238.972	296.52
239.436	310.56
239.901	212.26
240.366	291.84
240.83	268.43
241.295	261.41
241.76	268.43
242.224	261.41
242.688	310.56
243.153	223.96
243.617	277.79
244.081	266.09
244.545	296.52
245.01	348.01
245.474	282.47
245.938	266.09
246.402	275.45
246.866	270.77
247.33	315.24
247.793	277.79
248.257	289.5
248.721	289.5
249.185	296.52
249.648	298.86
250.112	303.54
250.575	287.15
251.039	324.6
251.502	275.45
251.965	296.52
252.429	247.37
252.892	336.31
253.355	256.73
253.818	312.9
254.281	275.45
254.744	303.54
255.207	305.88
255.67	275.45
256.133	252.05
256.596	256.73
257.059	298.86
257.522	261.41
257.984	345.67
258.447	226.3
258.909	340.99
259.372	263.75
259.834	263.75
260.297	305.88
260.759	357.37
261.221	266.09
261.684	291.84
262.146	254.39
262.608	233.32
263.07	287.15
263.532	336.31
263.994	310.56
264.456	305.88
264.918	329.28
265.38	355.03
265.842	338.65
266.303	324.6
266.765	345.67
267.227	333.97
267.688	235.66
268.15	287.15
268.611	308.22
269.072	268.43
269.534	289.5
269.995	282.47
270.456	308.22
270.918	282.47
271.379	312.9
271.84	259.07
272.301	301.2
272.762	296.52
273.223	259.07
273.684	326.94
274.144	270.77
274.605	310.56
275.066	317.58
275.527	280.13
275.987	287.15
276.448	296.52
276.908	291.84
277.369	315.24
277.829	287.15
278.289	322.26
278.75	331.62
279.21	333.97
279.67	331.62
280.13	261.41
280.59	331.62
281.05	308.22
281.51	275.45
281.97	294.18
282.43	310.56
282.89	336.31
283.35	338.65
283.809	223.96
284.269	322.26
284.729	333.97
285.188	329.28
285.648	291.84
286.107	315.24
286.567	331.62
287.026	392.48
287.485	385.46
287.944	329.28
288.404	350.35
288.863	270.77
289.322	291.84
289.781	273.11
290.24	333.97
290.699	298.86
291.158	315.24
291.616	371.41
292.075	357.37
292.534	317.58
292.992	362.05
293.451	266.09
293.91	280.13
294.368	277.79
294.827	324.6
295.285	289.5
295.743	284.81
296.202	348.01
296.66	303.54
297.118	308.22
297.576	333.97
298.034	322.26
298.492	296.52
298.95	345.67
299.408	338.65
299.866	266.09
300.324	331.62
300.781	298.86
301.239	352.69
301.697	254.39
302.154	336.31
302.612	369.07
303.069	282.47
303.527	331.62
303.984	329.28
304.441	282.47
304.899	317.58
305.356	329.28
305.813	345.67
306.27	324.6
306.727	305.88
307.184	380.78
307.641	230.98
308.098	348.01
308.555	350.35
309.012	228.64
309.468	331.62
309.925	336.31
310.382	333.97
310.838	233.32
311.295	308.22
311.751	350.35
312.208	291.84
312.664	336.31
313.12	404.18
313.577	362.05
314.033	256.73
314.489	310.56
314.945	324.6
315.401	310.56
315.857	373.75
316.313	331.62
316.769	305.88
317.225	331.62
317.681	319.92
318.136	305.88
318.592	326.94
319.048	326.94
319.503	331.62
319.959	343.33
320.414	289.5
320.869	352.69
321.325	366.73
321.78	317.58
322.235	289.5
322.691	338.65
323.146	284.81
323.601	343.33
324.056	333.97
324.511	310.56
324.966	329.28
325.421	378.44
325.875	336.31
326.33	308.22
326.785	362.05
327.24	343.33
327.694	340.99
328.149	357.37
328.603	315.24
329.058	280.13
329.512	233.32
329.966	322.26
330.421	291.84
330.875	298.86
331.329	371.41
331.783	319.92
332.237	312.9
332.691	310.56
333.145	315.24
333.599	359.71
334.053	296.52
334.507	256.73
334.96	315.24
335.414	298.86
335.868	270.77
336.321	298.86
336.775	280.13
337.228	303.54
337.682	324.6
338.135	333.97
338.588	376.09
339.042	305.88
339.495	355.03
339.948	336.31
340.401	336.31
340.854	310.56
341.307	336.31
341.76	394.82
342.213	315.24
342.666	249.71
343.119	296.52
343.571	282.47
344.024	324.6
344.477	345.67
344.929	345.67
345.382	359.71
345.834	324.6
346.287	359.71
346.739	357.37
347.191	333.97
347.644	378.44
348.096	294.18
348.548	294.18
349	310.56
349.452	303.54
349.904	270.77
350.356	275.45
350.808	392.48
351.26	329.28
351.711	355.03
352.163	296.52
352.615	322.26
353.066	343.33
353.518	343.33
353.969	310.56
354.421	275.45
354.872	317.58
355.324	242.68
355.775	284.81
356.226	333.97
356.677	312.9
357.128	310.56
357.579	404.18
358.03	359.71
358.481	345.67
358.932	322.26
359.383	338.65
359.834	352.69
360.285	340.99
360.735	362.05
361.186	355.03
361.637	352.69
362.087	275.45
362.538	331.62
362.988	322.26
363.438	310.56
363.889	331.62
364.339	373.75
364.789	331.62
365.239	308.22
365.689	235.66
366.139	378.44
366.589	352.69
367.039	378.44
367.489	296.52
367.939	348.01
368.389	289.5
368.839	350.35
369.288	387.8
369.738	322.26
370.187	301.2
370.637	296.52
371.086	303.54
371.536	336.31
371.985	345.67
372.434	315.24
372.884	355.03
373.333	350.35
373.782	329.28
374.231	268.43
374.68	303.54
375.129	343.33
375.578	308.22
376.027	357.37
376.475	350.35
376.924	369.07
377.373	345.67
377.822	352.69
378.27	296.52
378.719	355.03
379.167	284.81
379.616	305.88
380.064	340.99
380.512	289.5
380.961	245.02
381.409	308.22
381.857	303.54
382.305	345.67
382.753	366.73
383.201	277.79
383.649	362.05
384.097	350.35
384.545	319.92
384.992	343.33
385.44	350.35
385.888	369.07
386.335	298.86
386.783	352.69
387.231	326.94
387.678	308.22
388.125	308.22
388.573	366.73
389.02	270.77
389.467	385.46
389.914	418.22
390.362	305.88
390.809	333.97
391.256	324.6
391.703	315.24
392.15	345.67
392.596	345.67
393.043	298.86
393.49	340.99
393.937	266.09
394.383	333.97
394.83	329.28
395.276	273.11
395.723	284.81
396.169	322.26
396.616	401.84
397.062	324.6
397.508	338.65
397.954	369.07
398.401	336.31
398.847	263.75
399.293	326.94
399.739	333.97
400.185	312.9
400.631	315.24
401.076	338.65
401.522	338.65
401.968	350.35
402.414	303.54
402.859	331.62
403.305	371.41
403.75	362.05
404.196	303.54
404.641	322.26
405.086	369.07
405.532	336.31
405.977	378.44
406.422	326.94
406.867	326.94
407.312	322.26
407.757	324.6
408.202	340.99
408.647	348.01
409.092	343.33
409.537	294.18
409.982	322.26
410.426	312.9
410.871	305.88
411.316	350.35
411.76	373.75
412.205	340.99
412.649	331.62
413.093	326.94
413.538	317.58
413.982	319.92
414.426	326.94
414.87	326.94
415.314	287.15
415.758	291.84
416.202	352.69
416.646	319.92
417.09	263.75
417.534	331.62
417.978	324.6
418.421	359.71
418.865	366.73
419.309	338.65
419.752	294.18
420.196	345.67
420.639	326.94
421.083	291.84
421.526	333.97
421.969	308.22
422.412	291.84
422.856	291.84
423.299	324.6
423.742	397.16
424.185	357.37
424.628	366.73
425.071	333.97
425.513	326.94
425.956	340.99
426.399	362.05
426.842	301.2
427.284	289.5
427.727	343.33
428.169	359.71
428.612	359.71
429.054	352.69
429.497	404.18
429.939	298.86
430.381	336.31
430.823	275.45
431.265	369.07
431.707	273.11
432.149	310.56
432.591	380.78
433.033	275.45
433.475	350.35
433.917	348.01
434.359	277.79
434.8	317.58
435.242	373.75
435.684	331.62
436.125	329.28
436.567	289.5
437.008	315.24
437.449	376.09
437.891	378.44
438.332	230.98
438.773	385.46
439.214	322.26
439.656	277.79
440.097	331.62
440.538	312.9
440.978	362.05
441.419	364.39
441.86	340.99
442.301	336.31
442.742	331.62
443.182	397.16
443.623	268.43
444.063	289.5
444.504	287.15
444.944	317.58
445.385	308.22
445.825	317.58
446.265	301.2
446.706	298.86
447.146	319.92
447.586	399.5
448.026	338.65
448.466	366.73
448.906	366.73
449.346	319.92
449.786	359.71
450.225	310.56
450.665	366.73
451.105	324.6
451.544	348.01
451.984	340.99
452.424	324.6
452.863	338.65
453.302	359.71
453.742	287.15
454.181	345.67
454.62	340.99
455.059	338.65
455.499	322.26
455.938	364.39
456.377	357.37
456.816	298.86
457.254	371.41
457.693	364.39
458.132	310.56
458.571	362.05
459.01	366.73
459.448	312.9
459.887	338.65
460.325	357.37
460.764	270.77
461.202	254.39
461.641	331.62
462.079	385.46
462.517	282.47
462.955	366.73
463.393	329.28
463.832	336.31
464.27	394.82
464.708	343.33
465.145	333.97
465.583	399.5
466.021	366.73
466.459	390.14
466.897	303.54
467.334	261.41
467.772	298.86
468.209	310.56
468.647	364.39
469.084	369.07
469.522	296.52
469.959	301.2
470.396	343.33
470.833	291.84
471.271	340.99
471.708	280.13
472.145	385.46
472.582	303.54
473.019	310.56
473.456	326.94
473.892	235.66
474.329	362.05
474.766	303.54
475.202	362.05
475.639	315.24
476.076	348.01
476.512	298.86
476.949	364.39
477.385	322.26
477.821	284.81
478.258	310.56
478.694	277.79
479.13	305.88
479.566	364.39
480.002	345.67
480.438	371.41
480.874	266.09
481.31	378.44
481.746	301.2
482.181	291.84
482.617	326.94
483.053	336.31
483.488	312.9
483.924	380.78
484.36	324.6
484.795	362.05
485.23	376.09
485.666	340.99
486.101	322.26
486.536	397.16
486.971	340.99
487.407	315.24
487.842	298.86
488.277	336.31
488.712	392.48
489.146	289.5
489.581	350.35
490.016	338.65
490.451	324.6
490.885	333.97
491.32	343.33
491.755	303.54
492.189	324.6
492.624	308.22
493.058	340.99
493.492	322.26
493.927	312.9
494.361	355.03
494.795	324.6
495.229	270.77
495.663	336.31
496.097	331.62
496.531	338.65
496.965	345.67
497.399	315.24
497.833	315.24
498.266	350.35
498.7	366.73
499.134	324.6
499.567	345.67
500.001	359.71
500.434	364.39
500.868	277.79
501.301	298.86
501.734	348.01
502.168	322.26
502.601	291.84
503.034	336.31
503.467	324.6
503.9	296.52
504.333	336.31
504.766	371.41
505.199	376.09
505.632	317.58
506.064	317.58
506.497	338.65
506.93	270.77
507.362	343.33
507.795	343.33
508.227	362.05
508.66	338.65
509.092	390.14
509.524	331.62
509.956	312.9
510.389	359.71
510.821	324.6
511.253	252.05
511.685	345.67
512.117	280.13
512.549	345.67
512.981	336.31
513.412	315.24
513.844	301.2
514.276	291.84
514.707	352.69
515.139	348.01
515.571	359.71
516.002	319.92
516.433	348.01
516.865	322.26
517.296	380.78
517.727	340.99
518.159	362.05
518.59	319.92
519.021	355.03
519.452	331.62
519.883	317.58
520.314	373.75
520.744	362.05
521.175	333.97
521.606	378.44
522.037	338.65
522.467	301.2
522.898	350.35
523.328	317.58
523.759	355.03
524.189	348.01
524.62	273.11
525.05	331.62
525.48	324.6
525.91	357.37
526.341	301.2
526.771	333.97
527.201	322.26
527.631	298.86
528.061	343.33
528.49	305.88
528.92	336.31
529.35	308.22
529.78	291.84
530.209	355.03
530.639	359.71
531.068	371.41
531.498	305.88
531.927	259.07
532.357	310.56
532.786	336.31
533.215	326.94
533.644	331.62
534.074	308.22
534.503	287.15
534.932	277.79
535.361	310.56
535.79	312.9
536.218	348.01
536.647	331.62
537.076	355.03
537.505	301.2
537.933	336.31
538.362	310.56
538.79	266.09
539.219	315.24
539.647	310.56
540.076	408.86
540.504	380.78
540.932	294.18
541.36	336.31
541.788	324.6
542.217	331.62
542.645	340.99
543.073	350.35
543.5	394.82
543.928	369.07
544.356	364.39
544.784	345.67
545.211	326.94
545.639	296.52
546.067	303.54
546.494	333.97
546.922	254.39
547.349	315.24
547.776	345.67
548.204	359.71
548.631	322.26
549.058	338.65
549.485	373.75
549.912	319.92
550.339	275.45
550.766	284.81
551.193	273.11
551.62	282.47
552.047	333.97
552.474	308.22
552.9	294.18
553.327	310.56
553.754	333.97
554.18	336.31
554.607	343.33
555.033	303.54
555.459	296.52
555.886	350.35
556.312	277.79
556.738	280.13
557.164	322.26
557.59	378.44
558.016	308.22
558.442	345.67
558.868	305.88
559.294	369.07
559.72	340.99
560.145	324.6
560.571	348.01
560.997	294.18
561.422	373.75
561.848	261.41
562.273	331.62
562.699	380.78
563.124	294.18
563.549	305.88
563.974	333.97
564.4	364.39
564.825	266.09
565.25	345.67
565.675	308.22
566.1	350.35
566.525	348.01
566.95	373.75
567.374	301.2
567.799	371.41
568.224	336.31
568.648	333.97
569.073	287.15
569.497	357.37
569.922	284.81
570.346	235.66
570.771	340.99
571.195	317.58
571.619	245.02
572.043	378.44
572.467	343.33
572.891	355.03
573.315	310.56
573.739	268.43
574.163	364.39
574.587	378.44
575.011	338.65
575.435	366.73
575.858	298.86
576.282	366.73
576.705	369.07
577.129	399.5
577.552	338.65
577.976	268.43
578.399	385.46
578.822	326.94
579.245	345.67
579.669	352.69
580.092	294.18
580.515	380.78
580.938	310.56
581.361	301.2
581.784	350.35
582.206	355.03
582.629	340.99
583.052	329.28
583.474	310.56
583.897	303.54
584.32	305.88
584.742	298.86
585.165	287.15
585.587	310.56
586.009	312.9
586.431	369.07
586.854	301.2
587.276	336.31
587.698	324.6
588.12	411.2
588.542	294.18
588.964	315.24
589.386	324.6
589.807	284.81
590.229	362.05
590.651	294.18
591.073	364.39
591.494	345.67
591.916	256.73
592.337	312.9
592.759	261.41
593.18	273.11
593.601	343.33
594.022	336.31
594.444	317.58
594.865	333.97
595.286	296.52
595.707	373.75
596.128	366.73
596.549	249.71
596.97	317.58
597.39	289.5
597.811	296.52
598.232	301.2
598.652	247.37
599.073	291.84
599.494	310.56
599.914	345.67
600.334	277.79
600.755	350.35
601.175	301.2
601.595	390.14
602.015	376.09
602.436	359.71
602.856	439.29
603.276	357.37
603.696	355.03
604.115	319.92
604.535	312.9
604.955	319.92
605.375	259.07
605.794	357.37
606.214	338.65
606.634	373.75
607.053	310.56
607.473	355.03
607.892	352.69
608.311	362.05
608.731	301.2
609.15	362.05
609.569	352.69
609.988	294.18
610.407	355.03
610.826	413.54
611.245	369.07
611.664	331.62
612.083	312.9
612.501	357.37
612.92	343.33
613.339	345.67
613.757	322.26
614.176	364.39
614.594	343.33
615.013	322.26
615.431	357.37
615.85	369.07
616.268	385.46
616.686	345.67
617.104	303.54
617.522	315.24
617.94	383.12
618.358	282.47
618.776	301.2
619.194	340.99
619.612	294.18
620.03	352.69
620.447	301.2
620.865	324.6
621.282	312.9
621.7	425.25
622.117	298.86
622.535	362.05
622.952	397.16
623.369	340.99
623.787	359.71
624.204	310.56
624.621	317.58
625.038	317.58
625.455	331.62
625.872	317.58
626.289	301.2
626.706	277.79
627.123	301.2
627.539	303.54
627.956	315.24
628.373	324.6
628.789	397.16
629.206	296.52
629.622	256.73
630.038	364.39
630.455	373.75
630.871	340.99
631.287	312.9
631.703	326.94
632.12	282.47
632.536	343.33
632.952	326.94
633.368	303.54
633.783	324.6
634.199	305.88
634.615	219.28
635.031	254.39
635.446	364.39
635.862	364.39
636.277	355.03
636.693	303.54
637.108	273.11
637.524	324.6
637.939	319.92
638.354	348.01
638.77	317.58
639.185	333.97
639.6	322.26
640.015	273.11
640.43	277.79
640.845	319.92
641.259	350.35
641.674	392.48
642.089	319.92
642.504	312.9
642.918	357.37
643.333	387.8
643.747	376.09
644.162	305.88
644.576	322.26
644.991	287.15
645.405	280.13
645.819	333.97
646.233	298.86
646.647	312.9
647.061	350.35
647.475	319.92
647.889	350.35
648.303	371.41
648.717	303.54
649.131	317.58
649.545	329.28
649.958	312.9
650.372	322.26
650.785	331.62
651.199	310.56
651.612	310.56
652.026	289.5
652.439	312.9
652.852	312.9
653.266	343.33
653.679	319.92
654.092	390.14
654.505	312.9
654.918	373.75
655.331	303.54
655.744	333.97
656.156	383.12
656.569	317.58
656.982	319.92
657.394	392.48
657.807	359.71
658.22	259.07
658.632	287.15
659.044	329.28
659.457	287.15
659.869	378.44
660.281	322.26
660.693	359.71
661.106	343.33
661.518	406.52
661.93	369.07
662.342	294.18
662.754	294.18
663.165	355.03
663.577	345.67
663.989	317.58
664.401	364.39
664.812	336.31
665.224	282.47
665.635	343.33
666.047	352.69
666.458	366.73
666.869	343.33
667.281	371.41
667.692	350.35
668.103	331.62
668.514	385.46
668.925	317.58
669.336	359.71
669.747	317.58
670.158	317.58
670.569	319.92
670.979	329.28
671.39	355.03
671.801	376.09
672.211	305.88
672.622	362.05
673.032	343.33
673.443	319.92
673.853	348.01
674.263	289.5
674.674	303.54
675.084	312.9
675.494	357.37
675.904	357.37
676.314	310.56
676.724	322.26
677.134	355.03
677.544	315.24
677.953	371.41
678.363	385.46
678.773	411.2
679.182	301.2
679.592	387.8
680.001	326.94
680.411	422.91
680.82	338.65
681.23	390.14
681.639	331.62
682.048	333.97
682.457	324.6
682.866	362.05
683.275	340.99
683.684	312.9
684.093	294.18
684.502	298.86
684.911	369.07
685.32	397.16
685.728	331.62
686.137	308.22
686.546	324.6
686.954	383.12
687.363	326.94
687.771	369.07
688.179	315.24
688.588	294.18
688.996	348.01
689.404	301.2
689.812	312.9
690.22	331.62
690.628	359.71
691.036	305.88
691.444	376.09
691.852	364.39
692.26	242.68
692.667	383.12
693.075	345.67
693.483	362.05
693.89	329.28
694.298	338.65
694.705	333.97
695.112	343.33
695.52	364.39
695.927	362.05
696.334	310.56
696.741	298.86
697.148	340.99
697.555	408.86
697.962	359.71
698.369	287.15
698.776	329.28
699.183	312.9
699.59	369.07
699.996	308.22
700.403	266.09
700.81	362.05
701.216	312.9
701.623	364.39
702.029	301.2
702.435	303.54
702.842	317.58
703.248	317.58
703.654	319.92
704.06	371.41
704.466	364.39
704.872	329.28
705.278	296.52
705.684	319.92
706.09	317.58
706.496	333.97
706.901	343.33
707.307	326.94
707.712	343.33
708.118	348.01
708.523	345.67
708.929	326.94
709.334	282.47
709.74	364.39
710.145	399.5
710.55	324.6
710.955	268.43
711.36	357.37
711.765	394.82
712.17	336.31
712.575	266.09
712.98	865.27
713.385	357.37
713.789	263.75
714.194	301.2
714.599	261.41
715.003	364.39
715.408	348.01
715.812	305.88
716.217	338.65
716.621	301.2
717.025	324.6
717.429	291.84
717.833	322.26
718.238	348.01
718.642	348.01
719.046	322.26
719.449	315.24
719.853	397.16
720.257	333.97
720.661	324.6
721.065	303.54
721.468	378.44
721.872	350.35
722.275	355.03
722.679	350.35
723.082	303.54
723.485	364.39
723.889	317.58
724.292	348.01
724.695	238
725.098	317.58
725.501	319.92
725.904	273.11
726.307	329.28
726.71	284.81
727.113	305.88
727.516	319.92
727.918	329.28
728.321	343.33
728.724	303.54
729.126	280.13
729.529	366.73
729.931	319.92
730.333	326.94
730.736	336.31
731.138	305.88
731.54	319.92
731.942	338.65
732.344	301.2
732.746	399.5
733.148	303.54
733.55	343.33
733.952	385.46
734.354	254.39
734.756	350.35
735.157	317.58
735.559	322.26
735.96	296.52
736.362	301.2
736.763	322.26
737.165	291.84
737.566	369.07
737.967	326.94
738.368	371.41
738.77	247.37
739.171	319.92
739.572	336.31
739.973	333.97
740.374	326.94
740.774	326.94
741.175	343.33
741.576	371.41
741.977	312.9
742.377	343.33
742.778	305.88
743.178	331.62
743.579	308.22
743.979	308.22
744.379	340.99
744.78	298.86
745.18	345.67
745.58	376.09
745.98	343.33
746.38	378.44
746.78	343.33
747.18	324.6
747.58	282.47
747.98	308.22
748.38	322.26
748.779	326.94
749.179	298.86
749.578	348.01
749.978	291.84
750.377	284.81
750.777	333.97
751.176	263.75
751.575	338.65
751.975	254.39
752.374	378.44
752.773	322.26
753.172	329.28
753.571	319.92
753.97	291.84
754.369	294.18
754.768	322.26
755.166	277.79
755.565	343.33
755.964	319.92
756.362	350.35
756.761	303.54
757.159	364.39
757.558	326.94
757.956	366.73
758.354	359.71
758.753	364.39
759.151	230.98
759.549	277.79
759.947	291.84
760.345	284.81
760.743	287.15
761.141	303.54
761.539	322.26
761.936	394.82
762.334	266.09
762.732	312.9
763.129	322.26
763.527	387.8
763.924	324.6
764.322	345.67
764.719	312.9
765.117	373.75
765.514	326.94
765.911	345.67
766.308	352.69
766.705	312.9
767.102	324.6
767.499	394.82
767.896	371.41
768.293	373.75
768.69	345.67
769.086	364.39
769.483	310.56
769.88	387.8
770.276	338.65
770.673	371.41
771.069	310.56
771.466	310.56
771.862	340.99
772.258	338.65
772.654	298.86
773.05	324.6
773.447	310.56
773.843	369.07
774.239	329.28
774.634	315.24
775.03	312.9
775.426	277.79
775.822	331.62
776.218	324.6
776.613	280.13
777.009	369.07
777.404	345.67
777.8	331.62
778.195	336.31
778.59	315.24
778.986	280.13
779.381	343.33
779.776	284.81
780.171	282.47
780.566	345.67
780.961	310.56
781.356	345.67
781.751	280.13
782.146	291.84
782.54	333.97
782.935	315.24
783.33	305.88
783.724	338.65
784.119	315.24
784.513	326.94
784.908	308.22
785.302	331.62
785.696	291.84
786.09	378.44
786.485	277.79
786.879	277.79
787.273	294.18
787.667	380.78
788.061	359.71
788.454	336.31
788.848	298.86
789.242	275.45
789.636	340.99
790.029	336.31
790.423	357.37
790.816	357.37
791.21	303.54
791.603	331.62
791.997	315.24
792.39	352.69
792.783	348.01
793.176	322.26
793.569	308.22
793.962	364.39
794.355	326.94
794.748	296.52
795.141	326.94
795.534	362.05
795.927	329.28
796.319	329.28
796.712	308.22
797.105	268.43
797.497	369.07
797.89	310.56
798.282	296.52
798.674	273.11
799.067	266.09
799.459	378.44
799.851	343.33
800.243	378.44
800.635	230.98
801.027	411.2
801.419	322.26
801.811	308.22
802.203	331.62
802.594	411.2
802.986	343.33
803.378	340.99
803.769	273.11
804.161	303.54
804.552	324.6
804.944	298.86
805.335	322.26
805.726	343.33
806.118	284.81
806.509	308.22
806.9	273.11
807.291	369.07
807.682	322.26
808.073	364.39
808.464	362.05
808.855	338.65
809.245	289.5
809.636	331.62
810.027	329.28
810.417	275.45
810.808	399.5
811.198	371.41
811.589	378.44
811.979	319.92
812.369	317.58
812.759	392.48
813.15	298.86
813.54	289.5
813.93	338.65
814.32	301.2
814.71	305.88
815.1	352.69
815.489	305.88
815.879	357.37
816.269	343.33
816.658	289.5
817.048	261.41
817.438	359.71
817.827	338.65
818.216	364.39
818.606	385.46
818.995	324.6
819.384	289.5
819.773	343.33
820.163	319.92
820.552	305.88
820.941	331.62
821.33	305.88
821.718	345.67
822.107	254.39
822.496	336.31
822.885	383.12
823.273	340.99
823.662	352.69
824.05	371.41
824.439	315.24
824.827	319.92
825.216	359.71
825.604	411.2
825.992	336.31
826.38	298.86
826.768	301.2
827.156	312.9
827.544	343.33
827.932	310.56
828.32	268.43
828.708	296.52
829.096	322.26
829.483	317.58
829.871	371.41
830.259	359.71
830.646	266.09
831.034	350.35
831.421	310.56
831.808	331.62
832.196	322.26
832.583	284.81
832.97	345.67
833.357	287.15
833.744	345.67
834.131	350.35
834.518	308.22
834.905	343.33
835.292	308.22
835.678	315.24
836.065	350.35
836.452	366.73
836.838	252.05
837.225	254.39
837.611	266.09
837.998	266.09
838.384	338.65
838.77	263.75
839.157	305.88
839.543	364.39
839.929	275.45
840.315	273.11
840.701	319.92
841.087	322.26
841.473	296.52
841.858	298.86
842.244	277.79
842.63	315.24
843.015	312.9
843.401	406.52
843.787	333.97
844.172	378.44
844.557	345.67
844.943	326.94
845.328	284.81
845.713	303.54
846.098	340.99
846.483	343.33
846.868	385.46
847.253	359.71
847.638	383.12
848.023	308.22
848.408	312.9
848.793	277.79
849.177	270.77
849.562	310.56
849.947	333.97
850.331	270.77
850.715	252.05
851.1	338.65
851.484	324.6
851.868	308.22
852.253	310.56
852.637	319.92
853.021	324.6
853.405	284.81
853.789	310.56
854.173	315.24
854.557	362.05
854.94	326.94
855.324	294.18
855.708	338.65
856.091	350.35
856.475	298.86
856.858	263.75
857.242	256.73
857.625	310.56
858.009	284.81
858.392	348.01
858.775	357.37
859.158	345.67
859.541	315.24
859.924	359.71
860.307	301.2
860.69	357.37
861.073	333.97
861.456	228.64
861.838	303.54
862.221	301.2
862.604	329.28
862.986	317.58
863.369	326.94
863.751	298.86
864.133	305.88
864.516	296.52
864.898	390.14
865.28	357.37
865.662	338.65
866.044	270.77
866.426	275.45
866.808	303.54
867.19	329.28
867.572	343.33
867.954	343.33
868.336	303.54
868.717	326.94
869.099	343.33
869.48	308.22
869.862	303.54
870.243	340.99
870.625	305.88
871.006	303.54
871.387	315.24
871.768	280.13
872.149	223.96
872.53	294.18
872.911	256.73
873.292	359.71
873.673	296.52
874.054	343.33
874.435	312.9
874.815	312.9
875.196	425.25
875.577	383.12
875.957	280.13
876.338	280.13
876.718	256.73
877.098	312.9
877.479	348.01
877.859	315.24
878.239	343.33
878.619	345.67
878.999	303.54
879.379	348.01
879.759	280.13
880.139	378.44
880.519	315.24
880.898	345.67
881.278	324.6
881.658	343.33
882.037	383.12
882.417	317.58
882.796	319.92
883.176	289.5
883.555	308.22
883.934	296.52
884.313	259.07
884.693	268.43
885.072	362.05
885.451	362.05
885.83	355.03
886.209	336.31
886.587	336.31
886.966	401.84
887.345	345.67
887.724	277.79
888.102	310.56
888.481	319.92
888.859	352.69
889.238	357.37
889.616	383.12
889.994	319.92
890.373	319.92
890.751	331.62
891.129	324.6
891.507	357.37
891.885	319.92
892.263	371.41
892.641	284.81
893.019	312.9
893.396	366.73
893.774	329.28
894.152	322.26
894.529	340.99
894.907	369.07
895.284	348.01
895.662	338.65
896.039	284.81
896.416	298.86
896.794	317.58
897.171	338.65
897.548	301.2
897.925	298.86
898.302	305.88
898.679	254.39
899.056	268.43
899.433	268.43
899.809	338.65
900.186	369.07
900.563	235.66
900.939	340.99
901.316	266.09
901.692	362.05
902.069	294.18
902.445	301.2
902.821	387.8
903.197	378.44
903.574	331.62
903.95	331.62
904.326	319.92
904.702	317.58
905.078	345.67
905.454	322.26
905.829	326.94
906.205	319.92
906.581	287.15
906.956	310.56
907.332	378.44
907.707	329.28
908.083	329.28
908.458	336.31
908.833	305.88
909.209	340.99
909.584	376.09
909.959	352.69
910.334	319.92
910.709	303.54
911.084	252.05
911.459	319.92
911.834	312.9
912.209	404.18
912.583	369.07
912.958	324.6
913.333	305.88
913.707	312.9
914.082	310.56
914.456	345.67
914.83	317.58
915.205	364.39
915.579	359.71
915.953	240.34
916.327	310.56
916.701	315.24
917.075	305.88
917.449	303.54
917.823	383.12
918.197	357.37
918.571	331.62
918.944	303.54
919.318	266.09
919.692	319.92
920.065	245.02
920.438	289.5
920.812	340.99
921.185	345.67
921.558	371.41
921.932	310.56
922.305	333.97
922.678	294.18
923.051	352.69
923.424	298.86
923.797	315.24
924.17	312.9
924.542	298.86
924.915	411.2
925.288	357.37
925.661	331.62
926.033	350.35
926.406	296.52
926.778	310.56
927.15	296.52
927.523	350.35
927.895	359.71
928.267	322.26
928.639	352.69
929.011	331.62
929.383	355.03
929.755	340.99
930.127	294.18
930.499	322.26
930.871	289.5
931.242	343.33
931.614	303.54
931.986	308.22
932.357	345.67
932.729	301.2
933.1	322.26
933.471	350.35
933.843	352.69
934.214	259.07
934.585	277.79
934.956	275.45
935.327	392.48
935.698	317.58
936.069	256.73
936.44	364.39
936.811	298.86
937.182	348.01
937.552	315.24
937.923	345.67
938.293	329.28
938.664	296.52
939.034	296.52
939.405	298.86
939.775	291.84
940.145	282.47
940.516	312.9
940.886	247.37
941.256	287.15
941.626	343.33
941.996	315.24
942.366	345.67
942.735	317.58
943.105	270.77
943.475	312.9
943.845	247.37
944.214	310.56
944.584	291.84
944.953	329.28
945.323	312.9
945.692	303.54
946.061	282.47
946.43	310.56
946.8	301.2
947.169	340.99
947.538	308.22
947.907	324.6
948.276	390.14
948.645	324.6
949.013	303.54
949.382	380.78
949.751	308.22
950.119	326.94
950.488	359.71
950.857	312.9
951.225	350.35
951.593	333.97
951.962	296.52
952.33	308.22
952.698	284.81
953.066	387.8
953.434	350.35
953.802	284.81
954.17	357.37
954.538	340.99
954.906	359.71
955.274	303.54
955.642	336.31
956.009	324.6
956.377	326.94
956.744	331.62
957.112	308.22
957.479	385.46
957.847	369.07
958.214	333.97
958.581	317.58
958.948	333.97
959.315	287.15
959.683	298.86
960.05	373.75
960.416	193.53
960.783	242.68
961.15	383.12
961.517	268.43
961.884	329.28
962.25	322.26
962.617	291.84
962.983	282.47
963.35	425.25
963.716	333.97
964.082	270.77
964.449	324.6
964.815	324.6
965.181	322.26
965.547	308.22
965.913	301.2
966.279	322.26
966.645	317.58
967.011	355.03
967.377	348.01
967.742	348.01
968.108	350.35
968.474	366.73
968.839	282.47
969.205	310.56
969.57	329.28
969.935	317.58
970.301	296.52
970.666	305.88
971.031	329.28
971.396	394.82
971.761	333.97
972.126	317.58
972.491	289.5
972.856	329.28
973.221	296.52
973.586	294.18
973.95	324.6
974.315	310.56
974.679	357.37
975.044	298.86
975.408	359.71
975.773	345.67
976.137	324.6
976.501	291.84
976.866	348.01
977.23	303.54
977.594	291.84
977.958	298.86
978.322	333.97
978.686	333.97
979.049	355.03
979.413	305.88
979.777	329.28
980.141	289.5
980.504	326.94
980.868	333.97
981.231	331.62
981.595	305.88
981.958	352.69
982.321	352.69
982.684	340.99
983.048	378.44
983.411	294.18
983.774	270.77
984.137	303.54
984.5	303.54
984.862	364.39
985.225	298.86
985.588	235.66
985.951	289.5
986.313	336.31
986.676	362.05
987.038	273.11
987.401	338.65
987.763	324.6
988.125	376.09
988.488	378.44
988.85	333.97
989.212	287.15
989.574	340.99
989.936	338.65
990.298	308.22
990.66	336.31
991.022	261.41
991.383	326.94
991.745	296.52
992.107	348.01
992.468	310.56
992.83	301.2
993.191	380.78
993.553	378.44
993.914	348.01
994.275	301.2
994.637	287.15
994.998	336.31
995.359	345.67
995.72	319.92
996.081	319.92
996.442	350.35
996.803	385.46
997.163	333.97
997.524	273.11
997.885	352.69
998.245	331.62
998.606	324.6
998.966	336.31
999.327	310.56
999.687	359.71
1000.047	326.94
1000.408	280.13
1000.768	324.6
1001.128	305.88
1001.488	284.81
1001.848	366.73
1002.208	305.88
1002.568	326.94
1002.927	326.94
1003.287	233.32
1003.647	296.52
1004.007	308.22
1004.366	305.88
1004.726	310.56
1005.085	315.24
1005.444	275.45
1005.804	315.24
1006.163	308.22
1006.522	259.07
1006.881	340.99
1007.24	238
1007.599	355.03
1007.958	338.65
1008.317	280.13
1008.676	298.86
1009.035	350.35
1009.393	259.07
1009.752	305.88
1010.111	376.09
1010.469	390.14
1010.828	326.94
1011.186	294.18
1011.544	322.26
1011.903	282.47
1012.261	397.16
1012.619	324.6
1012.977	331.62
1013.335	355.03
1013.693	352.69
1014.051	256.73
1014.409	289.5
1014.767	383.12
1015.124	305.88
1015.482	331.62
1015.84	284.81
1016.197	324.6
1016.555	301.2
1016.912	359.71
1017.269	303.54
1017.627	303.54
1017.984	322.26
1018.341	348.01
1018.698	312.9
1019.055	369.07
1019.412	336.31
1019.769	336.31
1020.126	329.28
1020.483	289.5
1020.84	312.9
1021.196	362.05
1021.553	263.75
1021.909	357.37
1022.266	376.09
1022.622	256.73
1022.979	280.13
1023.335	352.69
1023.691	268.43
1024.047	357.37
1024.404	331.62
1024.76	329.28
1025.116	280.13
1025.472	322.26
1025.827	319.92
1026.183	303.54
1026.539	282.47
1026.895	329.28
1027.25	317.58
1027.606	296.52
1027.961	331.62
1028.317	310.56
1028.672	315.24
1029.028	324.6
1029.383	326.94
1029.738	350.35
1030.093	287.15
1030.448	294.18
1030.803	411.2
1031.158	315.24
1031.513	308.22
1031.868	280.13
1032.223	326.94
1032.577	268.43
1032.932	317.58
1033.287	366.73
1033.641	301.2
1033.996	305.88
1034.35	340.99
1034.704	291.84
1035.059	268.43
1035.413	362.05
1035.767	362.05
1036.121	362.05
