Data from Al_FLMS009871__519__14-38-39-927.txt Node

Date: Fri Mar 08 14:38:39 CST 2024
User: pe5414po
Spectrometer: FLMS00987
Trigger mode: 0
Integration Time (sec): 1.000000E-1
Scans to average: 1
Electric dark correction enabled: true
Nonlinearity correction enabled: false
Boxcar width: 0
XAxis mode: Wavelengths
Number of Pixels in Spectrum: 2048
>>>>>Begin Spectral Data<<<<<
188.938	-55.3
189.409	-55.3
189.879	-55.3
190.349	-111.47
190.819	-50.61
191.29	-102.11
191.76	-130.19
192.23	-31.89
192.7	-74.02
193.17	-71.68
193.64	-13.17
194.109	-22.53
194.579	-48.27
195.049	33.65
195.519	28.96
195.988	31.3
196.458	64.07
196.927	73.43
197.397	82.8
197.866	80.46
198.336	99.18
198.805	138.97
199.274	82.8
199.744	185.78
200.213	223.23
200.682	176.42
201.151	274.72
201.62	279.4
202.089	204.5
202.558	251.32
203.027	204.5
203.495	230.25
203.964	307.49
204.433	246.63
204.902	246.63
205.37	223.23
205.839	284.08
206.307	246.63
206.776	295.79
207.244	225.57
207.712	284.08
208.181	239.61
208.649	314.51
209.117	241.95
209.585	286.42
210.053	267.7
210.521	288.76
210.989	241.95
211.457	321.53
211.925	241.95
212.393	270.04
212.861	284.08
213.328	241.95
213.796	239.61
214.264	241.95
214.731	237.27
215.199	244.29
215.666	260.68
216.133	335.57
216.601	288.76
217.068	305.15
217.535	295.79
218.003	279.4
218.47	298.13
218.937	237.27
219.404	284.08
219.871	251.32
220.338	270.04
220.805	232.59
221.271	211.53
221.738	244.29
222.205	251.32
222.671	232.59
223.138	232.59
223.605	223.23
224.071	248.97
224.538	227.91
225.004	256
225.47	237.27
225.937	260.68
226.403	302.81
226.869	291.1
227.335	267.7
227.801	286.42
228.267	307.49
228.733	230.25
229.199	244.29
229.665	227.91
230.131	223.23
230.597	321.53
231.062	274.72
231.528	277.06
231.994	272.38
232.459	195.14
232.925	323.87
233.39	225.57
233.856	279.4
234.321	305.15
234.786	227.91
235.252	274.72
235.717	300.47
236.182	302.81
236.647	326.21
237.112	248.97
237.577	258.34
238.042	319.19
238.507	225.57
238.972	232.59
239.436	321.53
239.901	237.27
240.366	239.61
240.83	314.51
241.295	288.76
241.76	239.61
242.224	248.97
242.688	237.27
243.153	316.85
243.617	251.32
244.081	316.85
244.545	270.04
245.01	267.7
245.474	349.62
245.938	227.91
246.402	251.32
246.866	265.36
247.33	284.08
247.793	291.1
248.257	206.84
248.721	199.82
249.185	295.79
249.648	361.32
250.112	286.42
250.575	323.87
251.039	300.47
251.502	293.44
251.965	260.68
252.429	279.4
252.892	330.89
253.355	305.15
253.818	267.7
254.281	312.17
254.744	326.21
255.207	314.51
255.67	284.08
256.133	274.72
256.596	323.87
257.059	288.76
257.522	251.32
257.984	309.83
258.447	295.79
258.909	316.85
259.372	302.81
259.834	293.44
260.297	253.66
260.759	260.68
261.221	340.26
261.684	244.29
262.146	277.06
262.608	291.1
263.07	251.32
263.532	248.97
263.994	239.61
264.456	335.57
264.918	267.7
265.38	326.21
265.842	241.95
266.303	246.63
266.765	316.85
267.227	330.89
267.688	293.44
268.15	284.08
268.611	333.23
269.072	260.68
269.534	295.79
269.995	328.55
270.456	263.02
270.918	246.63
271.379	241.95
271.84	279.4
272.301	258.34
272.762	286.42
273.223	272.38
273.684	307.49
274.144	321.53
274.605	298.13
275.066	270.04
275.527	277.06
275.987	251.32
276.448	281.74
276.908	354.3
277.369	265.36
277.829	270.04
278.289	284.08
278.75	309.83
279.21	330.89
279.67	309.83
280.13	293.44
280.59	319.19
281.05	244.29
281.51	309.83
281.97	263.02
282.43	281.74
282.89	314.51
283.35	281.74
283.809	323.87
284.269	319.19
284.729	281.74
285.188	270.04
285.648	281.74
286.107	204.5
286.567	319.19
287.026	333.23
287.485	293.44
287.944	300.47
288.404	312.17
288.863	286.42
289.322	340.26
289.781	220.89
290.24	277.06
290.699	323.87
291.158	298.13
291.616	220.89
292.075	288.76
292.534	298.13
292.992	293.44
293.451	288.76
293.91	256
294.368	302.81
294.827	241.95
295.285	286.42
295.743	288.76
296.202	291.1
296.66	272.38
297.118	265.36
297.576	302.81
298.034	232.59
298.492	272.38
298.95	300.47
299.408	295.79
299.866	197.48
300.324	335.57
300.781	281.74
301.239	314.51
301.697	298.13
302.154	305.15
302.612	298.13
303.069	300.47
303.527	316.85
303.984	330.89
304.441	307.49
304.899	335.57
305.356	291.1
305.813	293.44
306.27	300.47
306.727	330.89
307.184	265.36
307.641	277.06
308.098	225.57
308.555	305.15
309.012	305.15
309.468	286.42
309.925	251.32
310.382	291.1
310.838	302.81
311.295	330.89
311.751	354.3
312.208	246.63
312.664	389.41
313.12	328.55
313.577	258.34
314.033	302.81
314.489	263.02
314.945	344.94
315.401	305.15
315.857	340.26
316.313	337.91
316.769	342.6
317.225	344.94
317.681	358.98
318.136	248.97
318.592	272.38
319.048	288.76
319.503	330.89
319.959	267.7
320.414	265.36
320.869	272.38
321.325	293.44
321.78	263.02
322.235	288.76
322.691	319.19
323.146	272.38
323.601	356.64
324.056	309.83
324.511	316.85
324.966	230.25
325.421	178.76
325.875	342.6
326.33	281.74
326.785	307.49
327.24	312.17
327.694	342.6
328.149	279.4
328.603	263.02
329.058	293.44
329.512	263.02
329.966	302.81
330.421	274.72
330.875	305.15
331.329	281.74
331.783	342.6
332.237	347.28
332.691	314.51
333.145	344.94
333.599	309.83
334.053	298.13
334.507	337.91
334.96	265.36
335.414	307.49
335.868	351.96
336.321	330.89
336.775	244.29
337.228	319.19
337.682	312.17
338.135	326.21
338.588	333.23
339.042	328.55
339.495	291.1
339.948	333.23
340.401	344.94
340.854	377.7
341.307	267.7
341.76	375.36
342.213	321.53
342.666	265.36
343.119	305.15
343.571	344.94
344.024	286.42
344.477	263.02
344.929	295.79
345.382	373.02
345.834	274.72
346.287	354.3
346.739	263.02
347.191	284.08
347.644	279.4
348.096	337.91
348.548	265.36
349	277.06
349.452	309.83
349.904	307.49
350.356	300.47
350.808	295.79
351.26	279.4
351.711	281.74
352.163	307.49
352.615	328.55
353.066	302.81
353.518	302.81
353.969	356.64
354.421	237.27
354.872	323.87
355.324	295.79
355.775	333.23
356.226	314.51
356.677	300.47
357.128	363.66
357.579	316.85
358.03	270.04
358.481	270.04
358.932	286.42
359.383	326.21
359.834	302.81
360.285	312.17
360.735	340.26
361.186	288.76
361.637	326.21
362.087	295.79
362.538	263.02
362.988	361.32
363.438	340.26
363.889	270.04
364.339	279.4
364.789	300.47
365.239	284.08
365.689	319.19
366.139	270.04
366.589	293.44
367.039	295.79
367.489	305.15
367.939	309.83
368.389	363.66
368.839	295.79
369.288	260.68
369.738	330.89
370.187	253.66
370.637	302.81
371.086	274.72
371.536	302.81
371.985	291.1
372.434	263.02
372.884	286.42
373.333	337.91
373.782	291.1
374.231	277.06
374.68	258.34
375.129	293.44
375.578	347.28
376.027	300.47
376.475	270.04
376.924	368.34
377.373	333.23
377.822	305.15
378.27	286.42
378.719	307.49
379.167	356.64
379.616	349.62
380.064	256
380.512	312.17
380.961	241.95
381.409	333.23
381.857	333.23
382.305	239.61
382.753	300.47
383.201	344.94
383.649	270.04
384.097	279.4
384.545	330.89
384.992	286.42
385.44	321.53
385.888	302.81
386.335	340.26
386.783	342.6
387.231	330.89
387.678	314.51
388.125	309.83
388.573	342.6
389.02	349.62
389.467	291.1
389.914	321.53
390.362	277.06
390.809	284.08
391.256	319.19
391.703	206.84
392.15	342.6
392.596	302.81
393.043	286.42
393.49	342.6
393.937	319.19
394.383	321.53
394.83	333.23
395.276	349.62
395.723	307.49
396.169	309.83
396.616	263.02
397.062	335.57
397.508	309.83
397.954	330.89
398.401	281.74
398.847	347.28
399.293	326.21
399.739	356.64
400.185	309.83
400.631	295.79
401.076	305.15
401.522	340.26
401.968	319.19
402.414	333.23
402.859	330.89
403.305	373.02
403.75	333.23
404.196	375.36
404.641	251.32
405.086	333.23
405.532	312.17
405.977	218.55
406.422	333.23
406.867	354.3
407.312	316.85
407.757	295.79
408.202	347.28
408.647	288.76
409.092	312.17
409.537	270.04
409.982	279.4
410.426	258.34
410.871	312.17
411.316	314.51
411.76	368.34
412.205	307.49
412.649	307.49
413.093	281.74
413.538	316.85
413.982	230.25
414.426	335.57
414.87	279.4
415.314	239.61
415.758	312.17
416.202	260.68
416.646	274.72
417.09	302.81
417.534	298.13
417.978	337.91
418.421	260.68
418.865	272.38
419.309	356.64
419.752	270.04
420.196	328.55
420.639	218.55
421.083	361.32
421.526	263.02
421.969	274.72
422.412	277.06
422.856	333.23
423.299	335.57
423.742	286.42
424.185	281.74
424.628	270.04
425.071	326.21
425.513	330.89
425.956	316.85
426.399	300.47
426.842	373.02
427.284	326.21
427.727	314.51
428.169	302.81
428.612	319.19
429.054	307.49
429.497	363.66
429.939	298.13
430.381	333.23
430.823	258.34
431.265	298.13
431.707	335.57
432.149	363.66
432.591	312.17
433.033	265.36
433.475	298.13
433.917	340.26
434.359	251.32
434.8	314.51
435.242	295.79
435.684	298.13
436.125	291.1
436.567	312.17
437.008	344.94
437.449	246.63
437.891	274.72
438.332	347.28
438.773	239.61
439.214	265.36
439.656	319.19
440.097	323.87
440.538	295.79
440.978	316.85
441.419	323.87
441.86	323.87
442.301	312.17
442.742	302.81
443.182	270.04
443.623	307.49
444.063	368.34
444.504	314.51
444.944	291.1
445.385	344.94
445.825	358.98
446.265	319.19
446.706	251.32
447.146	248.97
447.586	298.13
448.026	309.83
448.466	263.02
448.906	354.3
449.346	326.21
449.786	363.66
450.225	319.19
450.665	337.91
451.105	241.95
451.544	307.49
451.984	293.44
452.424	281.74
452.863	333.23
453.302	358.98
453.742	373.02
454.181	333.23
454.62	263.02
455.059	330.89
455.499	309.83
455.938	270.04
456.377	316.85
456.816	347.28
457.254	281.74
457.693	347.28
458.132	302.81
458.571	251.32
459.01	281.74
459.448	366
459.887	253.66
460.325	300.47
460.764	241.95
461.202	272.38
461.641	342.6
462.079	300.47
462.517	314.51
462.955	241.95
463.393	319.19
463.832	279.4
464.27	295.79
464.708	368.34
465.145	274.72
465.583	197.48
466.021	321.53
466.459	251.32
466.897	337.91
467.334	356.64
467.772	370.68
468.209	356.64
468.647	344.94
469.084	277.06
469.522	291.1
469.959	288.76
470.396	263.02
470.833	288.76
471.271	340.26
471.708	337.91
472.145	349.62
472.582	277.06
473.019	307.49
473.456	305.15
473.892	286.42
474.329	277.06
474.766	349.62
475.202	321.53
475.639	307.49
476.076	284.08
476.512	298.13
476.949	277.06
477.385	267.7
477.821	270.04
478.258	319.19
478.694	307.49
479.13	288.76
479.566	298.13
480.002	330.89
480.438	328.55
480.874	330.89
481.31	326.21
481.746	265.36
482.181	309.83
482.617	225.57
483.053	309.83
483.488	307.49
483.924	267.7
484.36	300.47
484.795	309.83
485.23	286.42
485.666	316.85
486.101	330.89
486.536	295.79
486.971	337.91
487.407	326.21
487.842	387.07
488.277	333.23
488.712	307.49
489.146	328.55
489.581	321.53
490.016	366
490.451	302.81
490.885	302.81
491.32	277.06
491.755	286.42
492.189	291.1
492.624	342.6
493.058	225.57
493.492	265.36
493.927	363.66
494.361	281.74
494.795	298.13
495.229	403.45
495.663	286.42
496.097	223.23
496.531	337.91
496.965	312.17
497.399	281.74
497.833	330.89
498.266	270.04
498.7	314.51
499.134	319.19
499.567	337.91
500.001	314.51
500.434	279.4
500.868	330.89
501.301	347.28
501.734	314.51
502.168	335.57
502.601	274.72
503.034	342.6
503.467	323.87
503.9	298.13
504.333	349.62
504.766	337.91
505.199	377.7
505.632	251.32
506.064	335.57
506.497	366
506.93	291.1
507.362	351.96
507.795	256
508.227	330.89
508.66	295.79
509.092	337.91
509.524	373.02
509.956	309.83
510.389	286.42
510.821	293.44
511.253	314.51
511.685	293.44
512.117	277.06
512.549	335.57
512.981	286.42
513.412	330.89
513.844	309.83
514.276	237.27
514.707	340.26
515.139	302.81
515.571	309.83
516.002	351.96
516.433	337.91
516.865	370.68
517.296	342.6
517.727	342.6
518.159	326.21
518.59	314.51
519.021	237.27
519.452	312.17
519.883	293.44
520.314	368.34
520.744	330.89
521.175	309.83
521.606	244.29
522.037	267.7
522.467	328.55
522.898	337.91
523.328	319.19
523.759	272.38
524.189	288.76
524.62	295.79
525.05	277.06
525.48	272.38
525.91	370.68
526.341	321.53
526.771	316.85
527.201	321.53
527.631	323.87
528.061	307.49
528.49	366
528.92	377.7
529.35	253.66
529.78	316.85
530.209	279.4
530.639	323.87
531.068	286.42
531.498	384.73
531.927	307.49
532.357	288.76
532.786	312.17
533.215	251.32
533.644	291.1
534.074	302.81
534.503	302.81
534.932	263.02
535.361	344.94
535.79	300.47
536.218	337.91
536.647	272.38
537.076	309.83
537.505	373.02
537.933	305.15
538.362	272.38
538.79	300.47
539.219	309.83
539.647	340.26
540.076	358.98
540.504	351.96
540.932	319.19
541.36	295.79
541.788	314.51
542.217	295.79
542.645	279.4
543.073	281.74
543.5	326.21
543.928	302.81
544.356	279.4
544.784	340.26
545.211	305.15
545.639	354.3
546.067	309.83
546.494	270.04
546.922	281.74
547.349	293.44
547.776	363.66
548.204	384.73
548.631	312.17
549.058	342.6
549.485	361.32
549.912	246.63
550.339	305.15
550.766	347.28
551.193	298.13
551.62	312.17
552.047	277.06
552.474	302.81
552.9	286.42
553.327	321.53
553.754	319.19
554.18	321.53
554.607	356.64
555.033	335.57
555.459	314.51
555.886	342.6
556.312	291.1
556.738	248.97
557.164	326.21
557.59	307.49
558.016	326.21
558.442	361.32
558.868	330.89
559.294	344.94
559.72	298.13
560.145	256
560.571	293.44
560.997	234.93
561.422	302.81
561.848	274.72
562.273	272.38
562.699	384.73
563.124	333.23
563.549	281.74
563.974	333.23
564.4	309.83
564.825	337.91
565.25	284.08
565.675	272.38
566.1	298.13
566.525	370.68
566.95	272.38
567.374	305.15
567.799	380.04
568.224	265.36
568.648	288.76
569.073	370.68
569.497	288.76
569.922	302.81
570.346	309.83
570.771	270.04
571.195	335.57
571.619	316.85
572.043	295.79
572.467	319.19
572.891	288.76
573.315	265.36
573.739	284.08
574.163	288.76
574.587	300.47
575.011	335.57
575.435	291.1
575.858	319.19
576.282	335.57
576.705	323.87
577.129	260.68
577.552	351.96
577.976	323.87
578.399	298.13
578.822	284.08
579.245	340.26
579.669	302.81
580.092	326.21
580.515	293.44
580.938	272.38
581.361	286.42
581.784	281.74
582.206	335.57
582.629	328.55
583.052	277.06
583.474	288.76
583.897	333.23
584.32	387.07
584.742	300.47
585.165	288.76
585.587	298.13
586.009	330.89
586.431	328.55
586.854	323.87
587.276	354.3
587.698	363.66
588.12	300.47
588.542	337.91
588.964	312.17
589.386	293.44
589.807	260.68
590.229	323.87
590.651	267.7
591.073	295.79
591.494	328.55
591.916	349.62
592.337	321.53
592.759	288.76
593.18	274.72
593.601	281.74
594.022	263.02
594.444	277.06
594.865	256
595.286	333.23
595.707	347.28
596.128	267.7
596.549	302.81
596.97	300.47
597.39	349.62
597.811	356.64
598.232	302.81
598.652	342.6
599.073	328.55
599.494	319.19
599.914	309.83
600.334	239.61
600.755	237.27
601.175	300.47
601.595	328.55
602.015	337.91
602.436	307.49
602.856	408.13
603.276	300.47
603.696	300.47
604.115	380.04
604.535	246.63
604.955	274.72
605.375	319.19
605.794	319.19
606.214	260.68
606.634	281.74
607.053	351.96
607.473	323.87
607.892	328.55
608.311	335.57
608.731	342.6
609.15	330.89
609.569	321.53
609.988	323.87
610.407	288.76
610.826	293.44
611.245	295.79
611.664	300.47
612.083	330.89
612.501	298.13
612.92	319.19
613.339	251.32
613.757	295.79
614.176	361.32
614.594	284.08
615.013	323.87
615.431	265.36
615.85	344.94
616.268	340.26
616.686	211.53
617.104	316.85
617.522	323.87
617.94	260.68
618.358	314.51
618.776	302.81
619.194	298.13
619.612	302.81
620.03	363.66
620.447	326.21
620.865	319.19
621.282	354.3
621.7	295.79
622.117	307.49
622.535	265.36
622.952	286.42
623.369	274.72
623.787	256
624.204	316.85
624.621	291.1
625.038	330.89
625.455	366
625.872	319.19
626.289	316.85
626.706	356.64
627.123	351.96
627.539	333.23
627.956	328.55
628.373	307.49
628.789	309.83
629.206	265.36
629.622	326.21
630.038	314.51
630.455	279.4
630.871	333.23
631.287	337.91
631.703	274.72
632.12	354.3
632.536	302.81
632.952	316.85
633.368	305.15
633.783	314.51
634.199	344.94
634.615	216.21
635.031	316.85
635.446	256
635.862	354.3
636.277	274.72
636.693	351.96
637.108	316.85
637.524	351.96
637.939	274.72
638.354	295.79
638.77	363.66
639.185	312.17
639.6	284.08
640.015	342.6
640.43	349.62
640.845	284.08
641.259	370.68
641.674	277.06
642.089	321.53
642.504	277.06
642.918	300.47
643.333	288.76
643.747	340.26
644.162	267.7
644.576	293.44
644.991	328.55
645.405	302.81
645.819	347.28
646.233	270.04
646.647	319.19
647.061	291.1
647.475	286.42
647.889	333.23
648.303	260.68
648.717	300.47
649.131	333.23
649.545	344.94
649.958	316.85
650.372	373.02
650.785	272.38
651.199	298.13
651.612	316.85
652.026	340.26
652.439	340.26
652.852	309.83
653.266	330.89
653.679	312.17
654.092	323.87
654.505	272.38
654.918	370.68
655.331	281.74
655.744	370.68
656.156	298.13
656.569	314.51
656.982	256
657.394	300.47
657.807	274.72
658.22	298.13
658.632	307.49
659.044	319.19
659.457	267.7
659.869	309.83
660.281	326.21
660.693	316.85
661.106	314.51
661.518	312.17
661.93	309.83
662.342	344.94
662.754	298.13
663.165	293.44
663.577	295.79
663.989	206.84
664.401	256
664.812	321.53
665.224	333.23
665.635	321.53
666.047	319.19
666.458	272.38
666.869	253.66
667.281	265.36
667.692	337.91
668.103	305.15
668.514	267.7
668.925	309.83
669.336	272.38
669.747	323.87
670.158	284.08
670.569	340.26
670.979	309.83
671.39	333.23
671.801	349.62
672.211	305.15
672.622	295.79
673.032	337.91
673.443	232.59
673.853	244.29
674.263	321.53
674.674	316.85
675.084	323.87
675.494	265.36
675.904	389.41
676.314	295.79
676.724	335.57
677.134	284.08
677.544	309.83
677.953	344.94
678.363	321.53
678.773	354.3
679.182	277.06
679.592	286.42
680.001	321.53
680.411	300.47
680.82	335.57
681.23	256
681.639	354.3
682.048	305.15
682.457	295.79
682.866	349.62
683.275	333.23
683.684	270.04
684.093	302.81
684.502	316.85
684.911	351.96
685.32	307.49
685.728	302.81
686.137	347.28
686.546	330.89
686.954	307.49
687.363	307.49
687.771	263.02
688.179	286.42
688.588	366
688.996	340.26
689.404	284.08
689.812	323.87
690.22	316.85
690.628	263.02
691.036	361.32
691.444	309.83
691.852	321.53
692.26	316.85
692.667	230.25
693.075	241.95
693.483	277.06
693.89	305.15
694.298	293.44
694.705	246.63
695.112	330.89
695.52	358.98
695.927	358.98
696.334	300.47
696.741	305.15
697.148	248.97
697.555	319.19
697.962	323.87
698.369	319.19
698.776	265.36
699.183	199.82
699.59	277.06
699.996	270.04
700.403	319.19
700.81	389.41
701.216	295.79
701.623	387.07
702.029	330.89
702.435	417.49
702.842	316.85
703.248	368.34
703.654	337.91
704.06	272.38
704.466	316.85
704.872	232.59
705.278	286.42
705.684	272.38
706.09	319.19
706.496	307.49
706.901	316.85
707.307	246.63
707.712	314.51
708.118	356.64
708.523	358.98
708.929	312.17
709.334	258.34
709.74	251.32
710.145	277.06
710.55	323.87
710.955	291.1
711.36	344.94
711.765	274.72
712.17	316.85
712.575	293.44
712.98	927.73
713.385	396.43
713.789	328.55
714.194	302.81
714.599	291.1
715.003	328.55
715.408	277.06
715.812	244.29
716.217	286.42
716.621	286.42
717.025	328.55
717.429	354.3
717.833	281.74
718.238	330.89
718.642	293.44
719.046	263.02
719.449	213.87
719.853	328.55
720.257	342.6
720.661	216.21
721.065	263.02
721.468	302.81
721.872	286.42
722.275	284.08
722.679	286.42
723.082	286.42
723.485	258.34
723.889	288.76
724.292	291.1
724.695	326.21
725.098	274.72
725.501	335.57
725.904	251.32
726.307	333.23
726.71	368.34
727.113	277.06
727.516	349.62
727.918	298.13
728.321	312.17
728.724	351.96
729.126	321.53
729.529	337.91
729.931	335.57
730.333	347.28
730.736	302.81
731.138	239.61
731.54	309.83
731.942	307.49
732.344	319.19
732.746	361.32
733.148	340.26
733.55	305.15
733.952	256
734.354	356.64
734.756	270.04
735.157	263.02
735.559	358.98
735.96	333.23
736.362	347.28
736.763	274.72
737.165	281.74
737.566	337.91
737.967	321.53
738.368	323.87
738.77	258.34
739.171	267.7
739.572	295.79
739.973	286.42
740.374	241.95
740.774	312.17
741.175	265.36
741.576	256
741.977	368.34
742.377	284.08
742.778	253.66
743.178	323.87
743.579	314.51
743.979	351.96
744.379	305.15
744.78	305.15
745.18	335.57
745.58	354.3
745.98	330.89
746.38	363.66
746.78	241.95
747.18	340.26
747.58	302.81
747.98	263.02
748.38	326.21
748.779	307.49
749.179	342.6
749.578	309.83
749.978	300.47
750.377	387.07
750.777	260.68
751.176	241.95
751.575	314.51
751.975	281.74
752.374	328.55
752.773	312.17
753.172	373.02
753.571	298.13
753.97	351.96
754.369	351.96
754.768	291.1
755.166	307.49
755.565	363.66
755.964	344.94
756.362	293.44
756.761	281.74
757.159	274.72
757.558	321.53
757.956	265.36
758.354	263.02
758.753	291.1
759.151	309.83
759.549	300.47
759.947	300.47
760.345	394.09
760.743	281.74
761.141	328.55
761.539	337.91
761.936	300.47
762.334	291.1
762.732	300.47
763.129	295.79
763.527	319.19
763.924	408.13
764.322	286.42
764.719	319.19
765.117	312.17
765.514	291.1
765.911	265.36
766.308	288.76
766.705	333.23
767.102	351.96
767.499	230.25
767.896	267.7
768.293	251.32
768.69	326.21
769.086	298.13
769.483	354.3
769.88	326.21
770.276	344.94
770.673	270.04
771.069	298.13
771.466	382.39
771.862	321.53
772.258	270.04
772.654	302.81
773.05	307.49
773.447	241.95
773.843	225.57
774.239	340.26
774.634	305.15
775.03	312.17
775.426	274.72
775.822	347.28
776.218	267.7
776.613	251.32
777.009	286.42
777.404	277.06
777.8	277.06
778.195	373.02
778.59	251.32
778.986	326.21
779.381	288.76
779.776	279.4
780.171	326.21
780.566	302.81
780.961	260.68
781.356	256
781.751	256
782.146	307.49
782.54	277.06
782.935	293.44
783.33	277.06
783.724	277.06
784.119	251.32
784.513	265.36
784.908	263.02
785.302	284.08
785.696	274.72
786.09	288.76
786.485	333.23
786.879	286.42
787.273	314.51
787.667	267.7
788.061	326.21
788.454	307.49
788.848	288.76
789.242	387.07
789.636	298.13
790.029	302.81
790.423	326.21
790.816	288.76
791.21	253.66
791.603	260.68
791.997	267.7
792.39	298.13
792.783	274.72
793.176	291.1
793.569	237.27
793.962	256
794.355	298.13
794.748	263.02
795.141	300.47
795.534	309.83
795.927	333.23
796.319	279.4
796.712	286.42
797.105	258.34
797.497	295.79
797.89	340.26
798.282	354.3
798.674	368.34
799.067	237.27
799.459	279.4
799.851	258.34
800.243	288.76
800.635	305.15
801.027	291.1
801.419	340.26
801.811	237.27
802.203	302.81
802.594	316.85
802.986	375.36
803.378	323.87
803.769	323.87
804.161	328.55
804.552	246.63
804.944	234.93
805.335	265.36
805.726	270.04
806.118	323.87
806.509	319.19
806.9	333.23
807.291	337.91
807.682	279.4
808.073	335.57
808.464	319.19
808.855	274.72
809.245	295.79
809.636	284.08
810.027	302.81
810.417	300.47
810.808	333.23
811.198	227.91
811.589	267.7
811.979	244.29
812.369	314.51
812.759	232.59
813.15	281.74
813.54	349.62
813.93	248.97
814.32	237.27
814.71	293.44
815.1	267.7
815.489	286.42
815.879	293.44
816.269	337.91
816.658	323.87
817.048	307.49
817.438	321.53
817.827	342.6
818.216	305.15
818.606	260.68
818.995	293.44
819.384	300.47
819.773	270.04
820.163	330.89
820.552	340.26
820.941	319.19
821.33	305.15
821.718	316.85
822.107	328.55
822.496	286.42
822.885	314.51
823.273	298.13
823.662	251.32
824.05	291.1
824.439	326.21
824.827	274.72
825.216	279.4
825.604	340.26
825.992	323.87
826.38	279.4
826.768	267.7
827.156	302.81
827.544	328.55
827.932	302.81
828.32	326.21
828.708	232.59
829.096	323.87
829.483	291.1
829.871	319.19
830.259	321.53
830.646	223.23
831.034	298.13
831.421	295.79
831.808	337.91
832.196	286.42
832.583	227.91
832.97	241.95
833.357	312.17
833.744	291.1
834.131	312.17
834.518	281.74
834.905	307.49
835.292	263.02
835.678	309.83
836.065	291.1
836.452	281.74
836.838	284.08
837.225	281.74
837.611	291.1
837.998	328.55
838.384	319.19
838.77	309.83
839.157	272.38
839.543	309.83
839.929	319.19
840.315	319.19
840.701	314.51
841.087	291.1
841.473	272.38
841.858	319.19
842.244	314.51
842.63	312.17
843.015	351.96
843.401	328.55
843.787	286.42
844.172	326.21
844.557	300.47
844.943	335.57
845.328	277.06
845.713	288.76
846.098	298.13
846.483	333.23
846.868	288.76
847.253	260.68
847.638	307.49
848.023	270.04
848.408	307.49
848.793	279.4
849.177	293.44
849.562	288.76
849.947	326.21
850.331	293.44
850.715	377.7
851.1	351.96
851.484	284.08
851.868	321.53
852.253	309.83
852.637	277.06
853.021	298.13
853.405	342.6
853.789	333.23
854.173	337.91
854.557	288.76
854.94	335.57
855.324	260.68
855.708	316.85
856.091	248.97
856.475	344.94
856.858	344.94
857.242	279.4
857.625	368.34
858.009	316.85
858.392	279.4
858.775	279.4
859.158	256
859.541	342.6
859.924	298.13
860.307	373.02
860.69	340.26
861.073	328.55
861.456	246.63
861.838	237.27
862.221	316.85
862.604	366
862.986	239.61
863.369	258.34
863.751	319.19
864.133	279.4
864.516	267.7
864.898	270.04
865.28	316.85
865.662	398.77
866.044	274.72
866.426	232.59
866.808	326.21
867.19	284.08
867.572	302.81
867.954	323.87
868.336	326.21
868.717	256
869.099	337.91
869.48	300.47
869.862	312.17
870.243	326.21
870.625	300.47
871.006	277.06
871.387	244.29
871.768	295.79
872.149	288.76
872.53	220.89
872.911	326.21
873.292	253.66
873.673	279.4
874.054	260.68
874.435	256
874.815	232.59
875.196	267.7
875.577	260.68
875.957	302.81
876.338	305.15
876.718	349.62
877.098	232.59
877.479	293.44
877.859	319.19
878.239	288.76
878.619	347.28
878.999	307.49
879.379	309.83
879.759	272.38
880.139	330.89
880.519	286.42
880.898	302.81
881.278	305.15
881.658	347.28
882.037	286.42
882.417	251.32
882.796	323.87
883.176	279.4
883.555	286.42
883.934	284.08
884.313	387.07
884.693	270.04
885.072	274.72
885.451	321.53
885.83	281.74
886.209	295.79
886.587	344.94
886.966	267.7
887.345	253.66
887.724	300.47
888.102	316.85
888.481	349.62
888.859	321.53
889.238	258.34
889.616	263.02
889.994	321.53
890.373	281.74
890.751	267.7
891.129	330.89
891.507	314.51
891.885	277.06
892.263	160.03
892.641	330.89
893.019	323.87
893.396	307.49
893.774	241.95
894.152	281.74
894.529	356.64
894.907	265.36
895.284	330.89
895.662	368.34
896.039	263.02
896.416	258.34
896.794	295.79
897.171	314.51
897.548	248.97
897.925	305.15
898.302	251.32
898.679	274.72
899.056	321.53
899.433	354.3
899.809	312.17
900.186	270.04
900.563	277.06
900.939	291.1
901.316	298.13
901.692	328.55
902.069	302.81
902.445	302.81
902.821	272.38
903.197	284.08
903.574	314.51
903.95	277.06
904.326	305.15
904.702	291.1
905.078	300.47
905.454	284.08
905.829	223.23
906.205	335.57
906.581	220.89
906.956	263.02
907.332	253.66
907.707	279.4
908.083	288.76
908.458	284.08
908.833	295.79
909.209	323.87
909.584	251.32
909.959	274.72
910.334	286.42
910.709	321.53
911.084	232.59
911.459	307.49
911.834	281.74
912.209	358.98
912.583	309.83
912.958	274.72
913.333	302.81
913.707	356.64
914.082	244.29
914.456	263.02
914.83	309.83
915.205	291.1
915.579	291.1
915.953	258.34
916.327	337.91
916.701	295.79
917.075	295.79
917.449	305.15
917.823	312.17
918.197	309.83
918.571	260.68
918.944	302.81
919.318	321.53
919.692	295.79
920.065	295.79
920.438	246.63
920.812	244.29
921.185	267.7
921.558	288.76
921.932	307.49
922.305	305.15
922.678	389.41
923.051	344.94
923.424	326.21
923.797	223.23
924.17	312.17
924.542	270.04
924.915	340.26
925.288	298.13
925.661	293.44
926.033	319.19
926.406	293.44
926.778	295.79
927.15	316.85
927.523	277.06
927.895	267.7
928.267	328.55
928.639	354.3
929.011	377.7
929.383	298.13
929.755	265.36
930.127	272.38
930.499	307.49
930.871	305.15
931.242	270.04
931.614	333.23
931.986	333.23
932.357	274.72
932.729	241.95
933.1	265.36
933.471	293.44
933.843	358.98
934.214	258.34
934.585	293.44
934.956	328.55
935.327	300.47
935.698	309.83
936.069	288.76
936.44	272.38
936.811	295.79
937.182	263.02
937.552	356.64
937.923	218.55
938.293	239.61
938.664	288.76
939.034	366
939.405	263.02
939.775	314.51
940.145	241.95
940.516	358.98
940.886	314.51
941.256	319.19
941.626	354.3
941.996	312.17
942.366	234.93
942.735	326.21
943.105	314.51
943.475	358.98
943.845	314.51
944.214	244.29
944.584	316.85
944.953	312.17
945.323	319.19
945.692	326.21
946.061	300.47
946.43	302.81
946.8	281.74
947.169	295.79
947.538	265.36
947.907	286.42
948.276	234.93
948.645	286.42
949.013	279.4
949.382	281.74
949.751	256
950.119	225.57
950.488	307.49
950.857	279.4
951.225	328.55
951.593	305.15
951.962	314.51
952.33	284.08
952.698	284.08
953.066	234.93
953.434	288.76
953.802	260.68
954.17	286.42
954.538	305.15
954.906	309.83
955.274	312.17
955.642	232.59
956.009	312.17
956.377	321.53
956.744	309.83
957.112	305.15
957.479	270.04
957.847	347.28
958.214	319.19
958.581	309.83
958.948	302.81
959.315	288.76
959.683	323.87
960.05	361.32
960.416	305.15
960.783	263.02
961.15	293.44
961.517	274.72
961.884	293.44
962.25	312.17
962.617	323.87
962.983	309.83
963.35	263.02
963.716	333.23
964.082	305.15
964.449	373.02
964.815	244.29
965.181	253.66
965.547	293.44
965.913	241.95
966.279	293.44
966.645	319.19
967.011	277.06
967.377	337.91
967.742	312.17
968.108	347.28
968.474	305.15
968.839	321.53
969.205	272.38
969.57	309.83
969.935	370.68
970.301	354.3
970.666	337.91
971.031	305.15
971.396	267.7
971.761	298.13
972.126	340.26
972.491	300.47
972.856	274.72
973.221	312.17
973.586	284.08
973.95	263.02
974.315	351.96
974.679	361.32
975.044	239.61
975.408	277.06
975.773	314.51
976.137	293.44
976.501	274.72
976.866	251.32
977.23	288.76
977.594	330.89
977.958	244.29
978.322	319.19
978.686	270.04
979.049	326.21
979.413	248.97
979.777	244.29
980.141	234.93
980.504	340.26
980.868	302.81
981.231	316.85
981.595	248.97
981.958	295.79
982.321	281.74
982.684	291.1
983.048	321.53
983.411	316.85
983.774	260.68
984.137	263.02
984.5	244.29
984.862	277.06
985.225	265.36
985.588	335.57
985.951	300.47
986.313	272.38
986.676	302.81
987.038	291.1
987.401	302.81
987.763	291.1
988.125	263.02
988.488	244.29
988.85	258.34
989.212	263.02
989.574	281.74
989.936	281.74
990.298	263.02
990.66	321.53
991.022	319.19
991.383	272.38
991.745	272.38
992.107	323.87
992.468	300.47
992.83	323.87
993.191	351.96
993.553	337.91
993.914	256
994.275	230.25
994.637	321.53
994.998	260.68
995.359	267.7
995.72	258.34
996.081	326.21
996.442	248.97
996.803	284.08
997.163	298.13
997.524	270.04
997.885	246.63
998.245	326.21
998.606	342.6
998.966	316.85
999.327	279.4
999.687	277.06
1000.047	284.08
1000.408	316.85
1000.768	349.62
1001.128	241.95
1001.488	288.76
1001.848	272.38
1002.208	326.21
1002.568	286.42
1002.927	237.27
1003.287	288.76
1003.647	291.1
1004.007	316.85
1004.366	326.21
1004.726	356.64
1005.085	270.04
1005.444	305.15
1005.804	288.76
1006.163	335.57
1006.522	305.15
1006.881	312.17
1007.24	363.66
1007.599	326.21
1007.958	302.81
1008.317	335.57
1008.676	337.91
1009.035	265.36
1009.393	316.85
1009.752	295.79
1010.111	279.4
1010.469	323.87
1010.828	323.87
1011.186	260.68
1011.544	312.17
1011.903	284.08
1012.261	344.94
1012.619	288.76
1012.977	326.21
1013.335	314.51
1013.693	300.47
1014.051	363.66
1014.409	279.4
1014.767	274.72
1015.124	251.32
1015.482	295.79
1015.84	288.76
1016.197	316.85
1016.555	291.1
1016.912	270.04
1017.269	288.76
1017.627	256
1017.984	330.89
1018.341	220.89
1018.698	373.02
1019.055	270.04
1019.412	244.29
1019.769	300.47
1020.126	335.57
1020.483	265.36
1020.84	302.81
1021.196	277.06
1021.553	272.38
1021.909	288.76
1022.266	286.42
1022.622	267.7
1022.979	270.04
1023.335	314.51
1023.691	321.53
1024.047	307.49
1024.404	312.17
1024.76	298.13
1025.116	298.13
1025.472	248.97
1025.827	284.08
1026.183	295.79
1026.539	312.17
1026.895	256
1027.25	321.53
1027.606	234.93
1027.961	279.4
1028.317	333.23
1028.672	295.79
1029.028	295.79
1029.383	267.7
1029.738	293.44
1030.093	298.13
1030.448	284.08
1030.803	326.21
1031.158	185.78
1031.513	337.91
1031.868	316.85
1032.223	328.55
1032.577	312.17
1032.932	298.13
1033.287	244.29
1033.641	302.81
1033.996	295.79
1034.35	319.19
1034.704	316.85
1035.059	225.57
1035.413	333.23
1035.767	333.23
1036.121	333.23
