Data from Al_FLMS009871__510__14-38-39-027.txt Node

Date: Fri Mar 08 14:38:39 CST 2024
User: pe5414po
Spectrometer: FLMS00987
Trigger mode: 0
Integration Time (sec): 1.000000E-1
Scans to average: 1
Electric dark correction enabled: true
Nonlinearity correction enabled: false
Boxcar width: 0
XAxis mode: Wavelengths
Number of Pixels in Spectrum: 2048
>>>>>Begin Spectral Data<<<<<
188.938	-67
189.409	-67
189.879	-67
190.349	-95.08
190.819	-78.7
191.29	-69.34
191.76	-120.83
192.23	-81.04
192.7	-17.85
193.17	-113.81
193.64	-10.82
194.109	-27.21
194.579	-24.87
195.049	-27.21
195.519	38.33
195.988	14.92
196.458	10.24
196.927	82.8
197.397	127.27
197.866	127.27
198.336	92.16
198.805	117.9
199.274	136.63
199.744	106.2
200.213	218.55
200.682	216.21
201.151	256
201.62	213.87
202.089	241.95
202.558	270.04
203.027	258.34
203.495	298.13
203.964	230.25
204.433	272.38
204.902	295.79
205.37	260.68
205.839	309.83
206.307	270.04
206.776	300.47
207.244	326.21
207.712	319.19
208.181	286.42
208.649	337.91
209.117	309.83
209.585	309.83
210.053	323.87
210.521	307.49
210.989	333.23
211.457	337.91
211.925	295.79
212.393	260.68
212.861	333.23
213.328	340.26
213.796	263.02
214.264	265.36
214.731	305.15
215.199	265.36
215.666	302.81
216.133	291.1
216.601	330.89
217.068	298.13
217.535	270.04
218.003	270.04
218.47	267.7
218.937	260.68
219.404	206.84
219.871	248.97
220.338	277.06
220.805	298.13
221.271	277.06
221.738	295.79
222.205	293.44
222.671	284.08
223.138	305.15
223.605	270.04
224.071	270.04
224.538	326.21
225.004	213.87
225.47	284.08
225.937	281.74
226.403	305.15
226.869	337.91
227.335	248.97
227.801	270.04
228.267	267.7
228.733	340.26
229.199	337.91
229.665	288.76
230.131	300.47
230.597	256
231.062	279.4
231.528	281.74
231.994	253.66
232.459	267.7
232.925	251.32
233.39	225.57
233.856	258.34
234.321	286.42
234.786	265.36
235.252	347.28
235.717	267.7
236.182	298.13
236.647	246.63
237.112	284.08
237.577	295.79
238.042	321.53
238.507	323.87
238.972	279.4
239.436	260.68
239.901	330.89
240.366	227.91
240.83	237.27
241.295	309.83
241.76	319.19
242.224	256
242.688	330.89
243.153	270.04
243.617	291.1
244.081	309.83
244.545	330.89
245.01	302.81
245.474	361.32
245.938	337.91
246.402	267.7
246.866	284.08
247.33	363.66
247.793	246.63
248.257	328.55
248.721	270.04
249.185	330.89
249.648	286.42
250.112	279.4
250.575	267.7
251.039	323.87
251.502	312.17
251.965	246.63
252.429	225.57
252.892	293.44
253.355	279.4
253.818	358.98
254.281	349.62
254.744	295.79
255.207	302.81
255.67	277.06
256.133	340.26
256.596	298.13
257.059	270.04
257.522	298.13
257.984	335.57
258.447	274.72
258.909	328.55
259.372	281.74
259.834	277.06
260.297	328.55
260.759	298.13
261.221	309.83
261.684	342.6
262.146	288.76
262.608	351.96
263.07	263.02
263.532	286.42
263.994	312.17
264.456	309.83
264.918	237.27
265.38	309.83
265.842	335.57
266.303	354.3
266.765	295.79
267.227	396.43
267.688	305.15
268.15	272.38
268.611	277.06
269.072	241.95
269.534	307.49
269.995	316.85
270.456	309.83
270.918	288.76
271.379	370.68
271.84	248.97
272.301	253.66
272.762	305.15
273.223	239.61
273.684	349.62
274.144	298.13
274.605	319.19
275.066	344.94
275.527	312.17
275.987	288.76
276.448	314.51
276.908	295.79
277.369	314.51
277.829	302.81
278.289	361.32
278.75	307.49
279.21	284.08
279.67	363.66
280.13	387.07
280.59	279.4
281.05	291.1
281.51	265.36
281.97	333.23
282.43	382.39
282.89	328.55
283.35	337.91
283.809	284.08
284.269	321.53
284.729	258.34
285.188	408.13
285.648	258.34
286.107	373.02
286.567	293.44
287.026	382.39
287.485	358.98
287.944	335.57
288.404	300.47
288.863	302.81
289.322	319.19
289.781	321.53
290.24	305.15
290.699	351.96
291.158	316.85
291.616	291.1
292.075	330.89
292.534	344.94
292.992	340.26
293.451	314.51
293.91	295.79
294.368	340.26
294.827	230.25
295.285	307.49
295.743	326.21
296.202	330.89
296.66	270.04
297.118	256
297.576	295.79
298.034	314.51
298.492	270.04
298.95	347.28
299.408	232.59
299.866	265.36
300.324	279.4
300.781	314.51
301.239	314.51
301.697	305.15
302.154	241.95
302.612	309.83
303.069	274.72
303.527	279.4
303.984	312.17
304.441	206.84
304.899	337.91
305.356	330.89
305.813	333.23
306.27	326.21
306.727	337.91
307.184	342.6
307.641	288.76
308.098	387.07
308.555	351.96
309.012	286.42
309.468	321.53
309.925	323.87
310.382	344.94
310.838	302.81
311.295	335.57
311.751	349.62
312.208	321.53
312.664	389.41
313.12	344.94
313.577	300.47
314.033	265.36
314.489	293.44
314.945	298.13
315.401	309.83
315.857	333.23
316.313	260.68
316.769	302.81
317.225	319.19
317.681	291.1
318.136	293.44
318.592	319.19
319.048	302.81
319.503	300.47
319.959	319.19
320.414	330.89
320.869	319.19
321.325	312.17
321.78	286.42
322.235	328.55
322.691	302.81
323.146	370.68
323.601	349.62
324.056	288.76
324.511	370.68
324.966	298.13
325.421	312.17
325.875	382.39
326.33	366
326.785	312.17
327.24	342.6
327.694	391.75
328.149	328.55
328.603	291.1
329.058	293.44
329.512	330.89
329.966	375.36
330.421	319.19
330.875	291.1
331.329	284.08
331.783	316.85
332.237	291.1
332.691	366
333.145	300.47
333.599	312.17
334.053	323.87
334.507	319.19
334.96	370.68
335.414	286.42
335.868	284.08
336.321	316.85
336.775	253.66
337.228	349.62
337.682	354.3
338.135	368.34
338.588	286.42
339.042	380.04
339.495	293.44
339.948	319.19
340.401	284.08
340.854	312.17
341.307	368.34
341.76	307.49
342.213	291.1
342.666	340.26
343.119	326.21
343.571	321.53
344.024	305.15
344.477	300.47
344.929	298.13
345.382	328.55
345.834	256
346.287	377.7
346.739	342.6
347.191	300.47
347.644	281.74
348.096	330.89
348.548	298.13
349	293.44
349.452	319.19
349.904	314.51
350.356	316.85
350.808	234.93
351.26	246.63
351.711	314.51
352.163	302.81
352.615	366
353.066	347.28
353.518	302.81
353.969	373.02
354.421	270.04
354.872	342.6
355.324	314.51
355.775	349.62
356.226	361.32
356.677	323.87
357.128	312.17
357.579	274.72
358.03	270.04
358.481	354.3
358.932	377.7
359.383	256
359.834	349.62
360.285	295.79
360.735	272.38
361.186	326.21
361.637	302.81
362.087	368.34
362.538	368.34
362.988	342.6
363.438	253.66
363.889	391.75
364.339	373.02
364.789	288.76
365.239	246.63
365.689	370.68
366.139	347.28
366.589	281.74
367.039	319.19
367.489	298.13
367.939	312.17
368.389	333.23
368.839	366
369.288	389.41
369.738	323.87
370.187	279.4
370.637	387.07
371.086	342.6
371.536	373.02
371.985	302.81
372.434	323.87
372.884	382.39
373.333	284.08
373.782	370.68
374.231	358.98
374.68	391.75
375.129	342.6
375.578	349.62
376.027	326.21
376.475	330.89
376.924	370.68
377.373	326.21
377.822	377.7
378.27	239.61
378.719	382.39
379.167	326.21
379.616	366
380.064	354.3
380.512	326.21
380.961	272.38
381.409	356.64
381.857	328.55
382.305	281.74
382.753	319.19
383.201	291.1
383.649	356.64
384.097	370.68
384.545	333.23
384.992	309.83
385.44	375.36
385.888	347.28
386.335	363.66
386.783	335.57
387.231	291.1
387.678	347.28
388.125	319.19
388.573	375.36
389.02	295.79
389.467	286.42
389.914	319.19
390.362	384.73
390.809	319.19
391.256	326.21
391.703	335.57
392.15	328.55
392.596	337.91
393.043	337.91
393.49	375.36
393.937	342.6
394.383	323.87
394.83	347.28
395.276	323.87
395.723	314.51
396.169	298.13
396.616	316.85
397.062	319.19
397.508	270.04
397.954	344.94
398.401	384.73
398.847	351.96
399.293	333.23
399.739	272.38
400.185	398.77
400.631	305.15
401.076	373.02
401.522	307.49
401.968	328.55
402.414	326.21
402.859	373.02
403.305	328.55
403.75	295.79
404.196	342.6
404.641	319.19
405.086	412.81
405.532	412.81
405.977	288.76
406.422	330.89
406.867	286.42
407.312	309.83
407.757	291.1
408.202	356.64
408.647	302.81
409.092	358.98
409.537	300.47
409.982	309.83
410.426	328.55
410.871	344.94
411.316	321.53
411.76	342.6
412.205	356.64
412.649	319.19
413.093	309.83
413.538	330.89
413.982	312.17
414.426	347.28
414.87	314.51
415.314	389.41
415.758	373.02
416.202	358.98
416.646	333.23
417.09	382.39
417.534	274.72
417.978	333.23
418.421	330.89
418.865	312.17
419.309	300.47
419.752	358.98
420.196	377.7
420.639	354.3
421.083	349.62
421.526	323.87
421.969	316.85
422.412	321.53
422.856	333.23
423.299	302.81
423.742	312.17
424.185	347.28
424.628	363.66
425.071	344.94
425.513	288.76
425.956	391.75
426.399	366
426.842	356.64
427.284	328.55
427.727	291.1
428.169	351.96
428.612	347.28
429.054	286.42
429.497	309.83
429.939	347.28
430.381	326.21
430.823	309.83
431.265	279.4
431.707	328.55
432.149	347.28
432.591	319.19
433.033	286.42
433.475	309.83
433.917	295.79
434.359	351.96
434.8	389.41
435.242	288.76
435.684	375.36
436.125	326.21
436.567	363.66
437.008	373.02
437.449	337.91
437.891	370.68
438.332	328.55
438.773	342.6
439.214	286.42
439.656	394.09
440.097	246.63
440.538	319.19
440.978	326.21
441.419	298.13
441.86	319.19
442.301	326.21
442.742	361.32
443.182	300.47
443.623	295.79
444.063	300.47
444.504	286.42
444.944	312.17
445.385	323.87
445.825	330.89
446.265	384.73
446.706	344.94
447.146	326.21
447.586	349.62
448.026	298.13
448.466	314.51
448.906	347.28
449.346	356.64
449.786	316.85
450.225	323.87
450.665	354.3
451.105	370.68
451.544	366
451.984	328.55
452.424	321.53
452.863	412.81
453.302	312.17
453.742	323.87
454.181	314.51
454.62	307.49
455.059	277.06
455.499	316.85
455.938	293.44
456.377	358.98
456.816	361.32
457.254	424.51
457.693	319.19
458.132	293.44
458.571	321.53
459.01	326.21
459.448	284.08
459.887	314.51
460.325	344.94
460.764	349.62
461.202	314.51
461.641	270.04
462.079	288.76
462.517	328.55
462.955	321.53
463.393	326.21
463.832	333.23
464.27	351.96
464.708	291.1
465.145	321.53
465.583	314.51
466.021	326.21
466.459	237.27
466.897	319.19
467.334	330.89
467.772	316.85
468.209	300.47
468.647	335.57
469.084	319.19
469.522	344.94
469.959	263.02
470.396	366
470.833	291.1
471.271	375.36
471.708	351.96
472.145	342.6
472.582	342.6
473.019	300.47
473.456	305.15
473.892	279.4
474.329	279.4
474.766	326.21
475.202	291.1
475.639	344.94
476.076	337.91
476.512	305.15
476.949	398.77
477.385	351.96
477.821	272.38
478.258	295.79
478.694	298.13
479.13	354.3
479.566	326.21
480.002	347.28
480.438	307.49
480.874	356.64
481.31	351.96
481.746	295.79
482.181	389.41
482.617	361.32
483.053	291.1
483.488	368.34
483.924	279.4
484.36	302.81
484.795	298.13
485.23	319.19
485.666	363.66
486.101	323.87
486.536	237.27
486.971	323.87
487.407	361.32
487.842	319.19
488.277	256
488.712	288.76
489.146	293.44
489.581	373.02
490.016	337.91
490.451	363.66
490.885	380.04
491.32	340.26
491.755	333.23
492.189	281.74
492.624	333.23
493.058	391.75
493.492	340.26
493.927	340.26
494.361	351.96
494.795	307.49
495.229	361.32
495.663	340.26
496.097	312.17
496.531	340.26
496.965	375.36
497.399	377.7
497.833	373.02
498.266	415.15
498.7	387.07
499.134	314.51
499.567	270.04
500.001	323.87
500.434	349.62
500.868	387.07
501.301	312.17
501.734	361.32
502.168	316.85
502.601	368.34
503.034	358.98
503.467	419.83
503.9	302.81
504.333	323.87
504.766	382.39
505.199	354.3
505.632	342.6
506.064	363.66
506.497	340.26
506.93	272.38
507.362	323.87
507.795	321.53
508.227	319.19
508.66	349.62
509.092	267.7
509.524	344.94
509.956	316.85
510.389	370.68
510.821	344.94
511.253	391.75
511.685	267.7
512.117	328.55
512.549	307.49
512.981	319.19
513.412	375.36
513.844	363.66
514.276	347.28
514.707	333.23
515.139	300.47
515.571	291.1
516.002	323.87
516.433	286.42
516.865	340.26
517.296	319.19
517.727	300.47
518.159	363.66
518.59	354.3
519.021	298.13
519.452	314.51
519.883	356.64
520.314	328.55
520.744	319.19
521.175	375.36
521.606	344.94
522.037	328.55
522.467	333.23
522.898	281.74
523.328	291.1
523.759	300.47
524.189	361.32
524.62	354.3
525.05	366
525.48	356.64
525.91	333.23
526.341	302.81
526.771	295.79
527.201	258.34
527.631	286.42
528.061	344.94
528.49	373.02
528.92	349.62
529.35	391.75
529.78	335.57
530.209	305.15
530.639	347.28
531.068	382.39
531.498	337.91
531.927	333.23
532.357	354.3
532.786	337.91
533.215	351.96
533.644	323.87
534.074	344.94
534.503	300.47
534.932	361.32
535.361	340.26
535.79	256
536.218	323.87
536.647	356.64
537.076	307.49
537.505	358.98
537.933	349.62
538.362	326.21
538.79	319.19
539.219	394.09
539.647	298.13
540.076	298.13
540.504	337.91
540.932	370.68
541.36	370.68
541.788	291.1
542.217	319.19
542.645	366
543.073	284.08
543.5	335.57
543.928	267.7
544.356	347.28
544.784	380.04
545.211	293.44
545.639	281.74
546.067	349.62
546.494	333.23
546.922	363.66
547.349	293.44
547.776	300.47
548.204	358.98
548.631	349.62
549.058	394.09
549.485	363.66
549.912	337.91
550.339	321.53
550.766	302.81
551.193	337.91
551.62	333.23
552.047	342.6
552.474	302.81
552.9	316.85
553.327	333.23
553.754	302.81
554.18	321.53
554.607	344.94
555.033	309.83
555.459	232.59
555.886	316.85
556.312	363.66
556.738	263.02
557.164	305.15
557.59	351.96
558.016	375.36
558.442	309.83
558.868	380.04
559.294	312.17
559.72	321.53
560.145	380.04
560.571	366
560.997	326.21
561.422	307.49
561.848	293.44
562.273	349.62
562.699	300.47
563.124	375.36
563.549	323.87
563.974	340.26
564.4	321.53
564.825	323.87
565.25	300.47
565.675	354.3
566.1	307.49
566.525	321.53
566.95	330.89
567.374	366
567.799	333.23
568.224	328.55
568.648	396.43
569.073	330.89
569.497	300.47
569.922	293.44
570.346	305.15
570.771	349.62
571.195	368.34
571.619	333.23
572.043	326.21
572.467	321.53
572.891	326.21
573.315	358.98
573.739	377.7
574.163	328.55
574.587	358.98
575.011	361.32
575.435	396.43
575.858	330.89
576.282	314.51
576.705	354.3
577.129	344.94
577.552	358.98
577.976	340.26
578.399	316.85
578.822	337.91
579.245	375.36
579.669	288.76
580.092	330.89
580.515	319.19
580.938	291.1
581.361	295.79
581.784	328.55
582.206	377.7
582.629	323.87
583.052	366
583.474	382.39
583.897	384.73
584.32	391.75
584.742	405.79
585.165	300.47
585.587	328.55
586.009	351.96
586.431	323.87
586.854	298.13
587.276	342.6
587.698	337.91
588.12	312.17
588.542	265.36
588.964	319.19
589.386	312.17
589.807	300.47
590.229	344.94
590.651	354.3
591.073	309.83
591.494	358.98
591.916	300.47
592.337	412.81
592.759	342.6
593.18	277.06
593.601	326.21
594.022	370.68
594.444	328.55
594.865	307.49
595.286	326.21
595.707	295.79
596.128	326.21
596.549	319.19
596.97	305.15
597.39	277.06
597.811	326.21
598.232	328.55
598.652	319.19
599.073	358.98
599.494	326.21
599.914	286.42
600.334	319.19
600.755	342.6
601.175	288.76
601.595	300.47
602.015	419.83
602.436	323.87
602.856	419.83
603.276	319.19
603.696	323.87
604.115	291.1
604.535	377.7
604.955	286.42
605.375	272.38
605.794	363.66
606.214	328.55
606.634	330.89
607.053	335.57
607.473	408.13
607.892	314.51
608.311	295.79
608.731	335.57
609.15	333.23
609.569	330.89
609.988	340.26
610.407	387.07
610.826	375.36
611.245	377.7
611.664	358.98
612.083	382.39
612.501	335.57
612.92	328.55
613.339	363.66
613.757	358.98
614.176	356.64
614.594	328.55
615.013	314.51
615.431	342.6
615.85	340.26
616.268	375.36
616.686	342.6
617.104	279.4
617.522	237.27
617.94	349.62
618.358	300.47
618.776	307.49
619.194	361.32
619.612	335.57
620.03	293.44
620.447	291.1
620.865	281.74
621.282	288.76
621.7	380.04
622.117	358.98
622.535	328.55
622.952	370.68
623.369	366
623.787	279.4
624.204	288.76
624.621	333.23
625.038	330.89
625.455	361.32
625.872	356.64
626.289	314.51
626.706	312.17
627.123	279.4
627.539	288.76
627.956	408.13
628.373	419.83
628.789	307.49
629.206	333.23
629.622	370.68
630.038	316.85
630.455	380.04
630.871	370.68
631.287	349.62
631.703	335.57
632.12	384.73
632.536	377.7
632.952	335.57
633.368	377.7
633.783	295.79
634.199	248.97
634.615	302.81
635.031	361.32
635.446	363.66
635.862	326.21
636.277	354.3
636.693	340.26
637.108	298.13
637.524	366
637.939	337.91
638.354	300.47
638.77	312.17
639.185	337.91
639.6	337.91
640.015	300.47
640.43	286.42
640.845	293.44
641.259	295.79
641.674	356.64
642.089	356.64
642.504	340.26
642.918	204.5
643.333	340.26
643.747	366
644.162	281.74
644.576	321.53
644.991	305.15
645.405	387.07
645.819	314.51
646.233	300.47
646.647	363.66
647.061	368.34
647.475	354.3
647.889	377.7
648.303	309.83
648.717	337.91
649.131	321.53
649.545	361.32
649.958	274.72
650.372	342.6
650.785	351.96
651.199	396.43
651.612	298.13
652.026	326.21
652.439	330.89
652.852	340.26
653.266	363.66
653.679	337.91
654.092	323.87
654.505	302.81
654.918	326.21
655.331	314.51
655.744	351.96
656.156	363.66
656.569	373.02
656.982	370.68
657.394	302.81
657.807	326.21
658.22	291.1
658.632	295.79
659.044	340.26
659.457	335.57
659.869	291.1
660.281	281.74
660.693	340.26
661.106	284.08
661.518	272.38
661.93	323.87
662.342	375.36
662.754	274.72
663.165	279.4
663.577	305.15
663.989	335.57
664.401	300.47
664.812	373.02
665.224	300.47
665.635	293.44
666.047	384.73
666.458	248.97
666.869	337.91
667.281	314.51
667.692	363.66
668.103	323.87
668.514	335.57
668.925	277.06
669.336	302.81
669.747	305.15
670.158	330.89
670.569	328.55
670.979	288.76
671.39	368.34
671.801	330.89
672.211	302.81
672.622	342.6
673.032	314.51
673.443	270.04
673.853	368.34
674.263	326.21
674.674	377.7
675.084	260.68
675.494	295.79
675.904	330.89
676.314	314.51
676.724	312.17
677.134	342.6
677.544	368.34
677.953	293.44
678.363	354.3
678.773	349.62
679.182	298.13
679.592	265.36
680.001	405.79
680.411	319.19
680.82	358.98
681.23	342.6
681.639	373.02
682.048	382.39
682.457	361.32
682.866	316.85
683.275	293.44
683.684	305.15
684.093	314.51
684.502	293.44
684.911	328.55
685.32	330.89
685.728	326.21
686.137	344.94
686.546	344.94
686.954	309.83
687.363	321.53
687.771	291.1
688.179	351.96
688.588	323.87
688.996	347.28
689.404	316.85
689.812	291.1
690.22	279.4
690.628	316.85
691.036	380.04
691.444	356.64
691.852	300.47
692.26	351.96
692.667	253.66
693.075	302.81
693.483	356.64
693.89	295.79
694.298	363.66
694.705	351.96
695.112	335.57
695.52	361.32
695.927	307.49
696.334	351.96
696.741	354.3
697.148	342.6
697.555	279.4
697.962	319.19
698.369	312.17
698.776	333.23
699.183	354.3
699.59	319.19
699.996	305.15
700.403	298.13
700.81	316.85
701.216	356.64
701.623	337.91
702.029	321.53
702.435	333.23
702.842	361.32
703.248	305.15
703.654	351.96
704.06	358.98
704.466	274.72
704.872	387.07
705.278	349.62
705.684	265.36
706.09	424.51
706.496	349.62
706.901	391.75
707.307	391.75
707.712	340.26
708.118	298.13
708.523	302.81
708.929	356.64
709.334	291.1
709.74	307.49
710.145	361.32
710.55	316.85
710.955	314.51
711.36	295.79
711.765	323.87
712.17	270.04
712.575	309.83
712.98	897.3
713.385	410.47
713.789	344.94
714.194	366
714.599	319.19
715.003	384.73
715.408	328.55
715.812	295.79
716.217	305.15
716.621	356.64
717.025	328.55
717.429	323.87
717.833	312.17
718.238	335.57
718.642	361.32
719.046	370.68
719.449	335.57
719.853	293.44
720.257	337.91
720.661	321.53
721.065	302.81
721.468	351.96
721.872	312.17
722.275	319.19
722.679	326.21
723.082	298.13
723.485	354.3
723.889	298.13
724.292	328.55
724.695	342.6
725.098	305.15
725.501	384.73
725.904	314.51
726.307	281.74
726.71	330.89
727.113	326.21
727.516	328.55
727.918	260.68
728.321	328.55
728.724	279.4
729.126	277.06
729.529	333.23
729.931	356.64
730.333	295.79
730.736	253.66
731.138	237.27
731.54	293.44
731.942	314.51
732.344	344.94
732.746	337.91
733.148	363.66
733.55	368.34
733.952	340.26
734.354	263.02
734.756	384.73
735.157	314.51
735.559	377.7
735.96	330.89
736.362	328.55
736.763	314.51
737.165	298.13
737.566	279.4
737.967	368.34
738.368	286.42
738.77	288.76
739.171	291.1
739.572	314.51
739.973	293.44
740.374	307.49
740.774	323.87
741.175	314.51
741.576	274.72
741.977	349.62
742.377	351.96
742.778	293.44
743.178	279.4
743.579	340.26
743.979	373.02
744.379	321.53
744.78	293.44
745.18	342.6
745.58	354.3
745.98	333.23
746.38	279.4
746.78	326.21
747.18	274.72
747.58	300.47
747.98	312.17
748.38	337.91
748.779	333.23
749.179	288.76
749.578	347.28
749.978	298.13
750.377	295.79
750.777	307.49
751.176	319.19
751.575	375.36
751.975	286.42
752.374	316.85
752.773	333.23
753.172	333.23
753.571	291.1
753.97	396.43
754.369	277.06
754.768	326.21
755.166	349.62
755.565	319.19
755.964	373.02
756.362	316.85
756.761	351.96
757.159	330.89
757.558	361.32
757.956	342.6
758.354	384.73
758.753	302.81
759.151	302.81
759.549	354.3
759.947	335.57
760.345	305.15
760.743	265.36
761.141	307.49
761.539	333.23
761.936	366
762.334	335.57
762.732	307.49
763.129	309.83
763.527	354.3
763.924	366
764.322	305.15
764.719	375.36
765.117	295.79
765.514	333.23
765.911	314.51
766.308	358.98
766.705	281.74
767.102	387.07
767.499	326.21
767.896	354.3
768.293	298.13
768.69	333.23
769.086	354.3
769.483	351.96
769.88	356.64
770.276	347.28
770.673	340.26
771.069	347.28
771.466	293.44
771.862	375.36
772.258	291.1
772.654	307.49
773.05	314.51
773.447	335.57
773.843	323.87
774.239	244.29
774.634	295.79
775.03	279.4
775.426	361.32
775.822	335.57
776.218	342.6
776.613	373.02
777.009	333.23
777.404	387.07
777.8	366
778.195	349.62
778.59	323.87
778.986	335.57
779.381	354.3
779.776	291.1
780.171	321.53
780.566	387.07
780.961	337.91
781.356	361.32
781.751	305.15
782.146	326.21
782.54	321.53
782.935	314.51
783.33	312.17
783.724	321.53
784.119	361.32
784.513	312.17
784.908	321.53
785.302	340.26
785.696	312.17
786.09	316.85
786.485	363.66
786.879	241.95
787.273	363.66
787.667	382.39
788.061	277.06
788.454	305.15
788.848	361.32
789.242	295.79
789.636	356.64
790.029	382.39
790.423	382.39
790.816	316.85
791.21	279.4
791.603	272.38
791.997	277.06
792.39	347.28
792.783	272.38
793.176	309.83
793.569	347.28
793.962	354.3
794.355	319.19
794.748	342.6
795.141	342.6
795.534	380.04
795.927	337.91
796.319	281.74
796.712	358.98
797.105	340.26
797.497	330.89
797.89	384.73
798.282	323.87
798.674	293.44
799.067	340.26
799.459	344.94
799.851	337.91
800.243	344.94
800.635	293.44
801.027	344.94
801.419	403.45
801.811	370.68
802.203	347.28
802.594	307.49
802.986	347.28
803.378	361.32
803.769	302.81
804.161	351.96
804.552	314.51
804.944	286.42
805.335	298.13
805.726	312.17
806.118	340.26
806.509	312.17
806.9	298.13
807.291	366
807.682	340.26
808.073	330.89
808.464	330.89
808.855	305.15
809.245	351.96
809.636	363.66
810.027	326.21
810.417	326.21
810.808	270.04
811.198	279.4
811.589	295.79
811.979	370.68
812.369	295.79
812.759	295.79
813.15	319.19
813.54	344.94
813.93	368.34
814.32	307.49
814.71	316.85
815.1	323.87
815.489	351.96
815.879	330.89
816.269	281.74
816.658	389.41
817.048	302.81
817.438	307.49
817.827	279.4
818.216	295.79
818.606	312.17
818.995	377.7
819.384	337.91
819.773	309.83
820.163	312.17
820.552	293.44
820.941	330.89
821.33	319.19
821.718	351.96
822.107	302.81
822.496	335.57
822.885	326.21
823.273	319.19
823.662	298.13
824.05	340.26
824.439	342.6
824.827	267.7
825.216	272.38
825.604	347.28
825.992	298.13
826.38	321.53
826.768	391.75
827.156	342.6
827.544	314.51
827.932	286.42
828.32	302.81
828.708	281.74
829.096	321.53
829.483	312.17
829.871	284.08
830.259	335.57
830.646	281.74
831.034	270.04
831.421	302.81
831.808	340.26
832.196	300.47
832.583	351.96
832.97	305.15
833.357	293.44
833.744	284.08
834.131	305.15
834.518	321.53
834.905	246.63
835.292	298.13
835.678	321.53
836.065	307.49
836.452	293.44
836.838	326.21
837.225	295.79
837.611	363.66
837.998	309.83
838.384	349.62
838.77	323.87
839.157	321.53
839.543	277.06
839.929	305.15
840.315	274.72
840.701	298.13
841.087	354.3
841.473	288.76
841.858	340.26
842.244	326.21
842.63	319.19
843.015	263.02
843.401	300.47
843.787	340.26
844.172	281.74
844.557	323.87
844.943	342.6
845.328	314.51
845.713	321.53
846.098	342.6
846.483	344.94
846.868	298.13
847.253	330.89
847.638	312.17
848.023	307.49
848.408	375.36
848.793	356.64
849.177	312.17
849.562	265.36
849.947	305.15
850.331	277.06
850.715	319.19
851.1	326.21
851.484	340.26
851.868	326.21
852.253	368.34
852.637	375.36
853.021	342.6
853.405	307.49
853.789	230.25
854.173	326.21
854.557	328.55
854.94	246.63
855.324	342.6
855.708	288.76
856.091	333.23
856.475	375.36
856.858	312.17
857.242	396.43
857.625	286.42
858.009	349.62
858.392	342.6
858.775	316.85
859.158	377.7
859.541	358.98
859.924	288.76
860.307	335.57
860.69	286.42
861.073	358.98
861.456	312.17
861.838	295.79
862.221	295.79
862.604	302.81
862.986	344.94
863.369	307.49
863.751	256
864.133	326.21
864.516	307.49
864.898	333.23
865.28	267.7
865.662	288.76
866.044	342.6
866.426	253.66
866.808	335.57
867.19	321.53
867.572	281.74
867.954	344.94
868.336	366
868.717	333.23
869.099	270.04
869.48	323.87
869.862	333.23
870.243	328.55
870.625	335.57
871.006	309.83
871.387	330.89
871.768	293.44
872.149	347.28
872.53	384.73
872.911	300.47
873.292	335.57
873.673	293.44
874.054	272.38
874.435	347.28
874.815	361.32
875.196	319.19
875.577	298.13
875.957	375.36
876.338	309.83
876.718	312.17
877.098	314.51
877.479	366
877.859	408.13
878.239	319.19
878.619	316.85
878.999	302.81
879.379	361.32
879.759	377.7
880.139	295.79
880.519	281.74
880.898	358.98
881.278	312.17
881.658	326.21
882.037	293.44
882.417	347.28
882.796	316.85
883.176	354.3
883.555	263.02
883.934	307.49
884.313	305.15
884.693	309.83
885.072	239.61
885.451	267.7
885.83	347.28
886.209	335.57
886.587	305.15
886.966	288.76
887.345	335.57
887.724	333.23
888.102	323.87
888.481	382.39
888.859	351.96
889.238	337.91
889.616	326.21
889.994	251.32
890.373	309.83
890.751	321.53
891.129	375.36
891.507	351.96
891.885	394.09
892.263	300.47
892.641	284.08
893.019	337.91
893.396	340.26
893.774	319.19
894.152	356.64
894.529	312.17
894.907	394.09
895.284	344.94
895.662	291.1
896.039	375.36
896.416	340.26
896.794	328.55
897.171	347.28
897.548	314.51
897.925	234.93
898.302	274.72
898.679	319.19
899.056	314.51
899.433	335.57
899.809	342.6
900.186	330.89
900.563	291.1
900.939	373.02
901.316	347.28
901.692	340.26
902.069	321.53
902.445	337.91
902.821	366
903.197	347.28
903.574	335.57
903.95	368.34
904.326	328.55
904.702	277.06
905.078	328.55
905.454	366
905.829	260.68
906.205	347.28
906.581	321.53
906.956	305.15
907.332	277.06
907.707	351.96
908.083	267.7
908.458	307.49
908.833	316.85
909.209	358.98
909.584	321.53
909.959	284.08
910.334	286.42
910.709	328.55
911.084	312.17
911.459	293.44
911.834	382.39
912.209	358.98
912.583	347.28
912.958	321.53
913.333	284.08
913.707	263.02
914.082	330.89
914.456	319.19
914.83	302.81
915.205	330.89
915.579	342.6
915.953	344.94
916.327	309.83
916.701	340.26
917.075	387.07
917.449	307.49
917.823	342.6
918.197	323.87
918.571	382.39
918.944	387.07
919.318	319.19
919.692	298.13
920.065	335.57
920.438	356.64
920.812	284.08
921.185	333.23
921.558	263.02
921.932	337.91
922.305	337.91
922.678	274.72
923.051	321.53
923.424	319.19
923.797	361.32
924.17	333.23
924.542	312.17
924.915	316.85
925.288	351.96
925.661	316.85
926.033	335.57
926.406	279.4
926.778	319.19
927.15	316.85
927.523	342.6
927.895	403.45
928.267	342.6
928.639	281.74
929.011	333.23
929.383	312.17
929.755	272.38
930.127	284.08
930.499	370.68
930.871	368.34
931.242	330.89
931.614	319.19
931.986	316.85
932.357	288.76
932.729	330.89
933.1	293.44
933.471	366
933.843	305.15
934.214	328.55
934.585	368.34
934.956	288.76
935.327	319.19
935.698	302.81
936.069	356.64
936.44	321.53
936.811	305.15
937.182	305.15
937.552	288.76
937.923	337.91
938.293	391.75
938.664	401.11
939.034	284.08
939.405	328.55
939.775	277.06
940.145	333.23
940.516	267.7
940.886	321.53
941.256	351.96
941.626	307.49
941.996	344.94
942.366	340.26
942.735	256
943.105	321.53
943.475	337.91
943.845	394.09
944.214	363.66
944.584	321.53
944.953	298.13
945.323	323.87
945.692	258.34
946.061	314.51
946.43	321.53
946.8	291.1
947.169	330.89
947.538	288.76
947.907	274.72
948.276	307.49
948.645	361.32
949.013	354.3
949.382	291.1
949.751	349.62
950.119	333.23
950.488	335.57
950.857	314.51
951.225	333.23
951.593	330.89
951.962	368.34
952.33	342.6
952.698	358.98
953.066	373.02
953.434	340.26
953.802	326.21
954.17	265.36
954.538	344.94
954.906	342.6
955.274	270.04
955.642	286.42
956.009	302.81
956.377	305.15
956.744	387.07
957.112	314.51
957.479	279.4
957.847	270.04
958.214	330.89
958.581	316.85
958.948	335.57
959.315	328.55
959.683	323.87
960.05	382.39
960.416	319.19
960.783	328.55
961.15	267.7
961.517	288.76
961.884	351.96
962.25	361.32
962.617	361.32
962.983	377.7
963.35	351.96
963.716	293.44
964.082	270.04
964.449	293.44
964.815	241.95
965.181	307.49
965.547	302.81
965.913	305.15
966.279	260.68
966.645	291.1
967.011	337.91
967.377	274.72
967.742	312.17
968.108	356.64
968.474	375.36
968.839	305.15
969.205	330.89
969.57	326.21
969.935	248.97
970.301	356.64
970.666	358.98
971.031	316.85
971.396	366
971.761	335.57
972.126	333.23
972.491	354.3
972.856	323.87
973.221	366
973.586	309.83
973.95	321.53
974.315	337.91
974.679	358.98
975.044	267.7
975.408	305.15
975.773	330.89
976.137	272.38
976.501	274.72
976.866	307.49
977.23	340.26
977.594	391.75
977.958	281.74
978.322	358.98
978.686	314.51
979.049	321.53
979.413	356.64
979.777	370.68
980.141	358.98
980.504	307.49
980.868	265.36
981.231	333.23
981.595	316.85
981.958	316.85
982.321	347.28
982.684	358.98
983.048	373.02
983.411	295.79
983.774	347.28
984.137	342.6
984.5	298.13
984.862	314.51
985.225	349.62
985.588	314.51
985.951	251.32
986.313	328.55
986.676	340.26
987.038	330.89
987.401	377.7
987.763	384.73
988.125	384.73
988.488	354.3
988.85	326.21
989.212	326.21
989.574	272.38
989.936	305.15
990.298	351.96
990.66	380.04
991.022	244.29
991.383	286.42
991.745	312.17
992.107	387.07
992.468	284.08
992.83	277.06
993.191	373.02
993.553	293.44
993.914	321.53
994.275	312.17
994.637	401.11
994.998	323.87
995.359	321.53
995.72	321.53
996.081	312.17
996.442	230.25
996.803	316.85
997.163	279.4
997.524	335.57
997.885	340.26
998.245	330.89
998.606	333.23
998.966	305.15
999.327	309.83
999.687	354.3
1000.047	349.62
1000.408	382.39
1000.768	363.66
1001.128	323.87
1001.488	300.47
1001.848	326.21
1002.208	333.23
1002.568	342.6
1002.927	288.76
1003.287	328.55
1003.647	333.23
1004.007	279.4
1004.366	307.49
1004.726	333.23
1005.085	398.77
1005.444	387.07
1005.804	389.41
1006.163	314.51
1006.522	349.62
1006.881	326.21
1007.24	368.34
1007.599	284.08
1007.958	326.21
1008.317	279.4
1008.676	309.83
1009.035	344.94
1009.393	279.4
1009.752	422.17
1010.111	319.19
1010.469	267.7
1010.828	281.74
1011.186	277.06
1011.544	291.1
1011.903	319.19
1012.261	307.49
1012.619	366
1012.977	321.53
1013.335	370.68
1013.693	319.19
1014.051	384.73
1014.409	356.64
1014.767	330.89
1015.124	354.3
1015.482	309.83
1015.84	375.36
1016.197	370.68
1016.555	340.26
1016.912	300.47
1017.269	328.55
1017.627	291.1
1017.984	279.4
1018.341	284.08
1018.698	309.83
1019.055	361.32
1019.412	277.06
1019.769	337.91
1020.126	330.89
1020.483	309.83
1020.84	312.17
1021.196	302.81
1021.553	319.19
1021.909	321.53
1022.266	351.96
1022.622	368.34
1022.979	316.85
1023.335	328.55
1023.691	358.98
1024.047	256
1024.404	265.36
1024.76	300.47
1025.116	314.51
1025.472	349.62
1025.827	326.21
1026.183	265.36
1026.539	366
1026.895	330.89
1027.25	316.85
1027.606	347.28
1027.961	307.49
1028.317	361.32
1028.672	321.53
1029.028	328.55
1029.383	337.91
1029.738	253.66
1030.093	270.04
1030.448	368.34
1030.803	314.51
1031.158	323.87
1031.513	337.91
1031.868	323.87
1032.223	293.44
1032.577	340.26
1032.932	307.49
1033.287	319.19
1033.641	316.85
1033.996	298.13
1034.35	349.62
1034.704	286.42
1035.059	380.04
1035.413	356.64
1035.767	356.64
1036.121	356.64
