Data from Al_FLMS009871__515__14-38-39-527.txt Node

Date: Fri Mar 08 14:38:39 CST 2024
User: pe5414po
Spectrometer: FLMS00987
Trigger mode: 0
Integration Time (sec): 1.000000E-1
Scans to average: 1
Electric dark correction enabled: true
Nonlinearity correction enabled: false
Boxcar width: 0
XAxis mode: Wavelengths
Number of Pixels in Spectrum: 2048
>>>>>Begin Spectral Data<<<<<
188.938	-65.68
189.409	-65.68
189.879	-65.68
190.349	-84.41
190.819	-32.91
191.29	-58.66
191.76	-159.3
192.23	-98.45
192.7	-86.75
193.17	-70.36
193.64	53.69
194.109	-77.38
194.579	23.26
195.049	-2.49
195.519	-9.51
195.988	77.09
196.458	114.54
196.927	37.3
197.397	91.13
197.866	105.18
198.336	60.71
198.805	229.23
199.274	166.03
199.744	198.8
200.213	201.14
200.682	191.78
201.151	210.5
201.62	175.39
202.089	191.78
202.558	238.59
203.027	313.49
203.495	243.27
203.964	278.38
204.433	266.67
204.902	322.85
205.37	257.31
205.839	254.97
206.307	264.33
206.776	299.44
207.244	276.04
207.712	290.08
208.181	257.31
208.649	280.72
209.117	287.74
209.585	290.08
210.053	292.42
210.521	285.4
210.989	287.74
211.457	329.87
211.925	259.65
212.393	285.4
212.861	332.21
213.328	287.74
213.796	271.36
214.264	240.93
214.731	304.12
215.199	252.63
215.666	269.02
216.133	301.78
216.601	320.51
217.068	327.53
217.535	264.33
218.003	269.02
218.47	290.08
218.937	308.8
219.404	264.33
219.871	261.99
220.338	325.19
220.805	259.65
221.271	254.97
221.738	304.12
222.205	278.38
222.671	250.29
223.138	254.97
223.605	313.49
224.071	271.36
224.538	269.02
225.004	287.74
225.47	238.59
225.937	257.31
226.403	311.14
226.869	334.55
227.335	301.78
227.801	285.4
228.267	308.8
228.733	247.95
229.199	259.65
229.665	364.98
230.131	285.4
230.597	320.51
231.062	243.27
231.528	306.46
231.994	325.19
232.459	294.76
232.925	271.36
233.39	320.51
233.856	259.65
234.321	245.61
234.786	271.36
235.252	306.46
235.717	243.27
236.182	306.46
236.647	308.8
237.112	306.46
237.577	273.7
238.042	329.87
238.507	301.78
238.972	320.51
239.436	269.02
239.901	369.66
240.366	247.95
240.83	308.8
241.295	285.4
241.76	203.48
242.224	299.44
242.688	224.55
243.153	254.97
243.617	271.36
244.081	287.74
244.545	306.46
245.01	278.38
245.474	257.31
245.938	343.91
246.402	283.06
246.866	245.61
247.33	301.78
247.793	290.08
248.257	240.93
248.721	290.08
249.185	294.76
249.648	308.8
250.112	320.51
250.575	301.78
251.039	311.14
251.502	350.93
251.965	203.48
252.429	257.31
252.892	280.72
253.355	318.17
253.818	247.95
254.281	264.33
254.744	233.91
255.207	245.61
255.67	250.29
256.133	294.76
256.596	233.91
257.059	283.06
257.522	308.8
257.984	325.19
258.447	252.63
258.909	343.91
259.372	336.89
259.834	273.7
260.297	231.57
260.759	292.42
261.221	315.83
261.684	226.89
262.146	318.17
262.608	311.14
263.07	261.99
263.532	245.61
263.994	285.4
264.456	334.55
264.918	266.67
265.38	301.78
265.842	290.08
266.303	290.08
266.765	259.65
267.227	243.27
267.688	299.44
268.15	245.61
268.611	306.46
269.072	311.14
269.534	348.59
269.995	278.38
270.456	294.76
270.918	287.74
271.379	261.99
271.84	290.08
272.301	259.65
272.762	233.91
273.223	325.19
273.684	306.46
274.144	367.32
274.605	245.61
275.066	301.78
275.527	311.14
275.987	292.42
276.448	243.27
276.908	233.91
277.369	276.04
277.829	276.04
278.289	318.17
278.75	329.87
279.21	278.38
279.67	360.3
280.13	257.31
280.59	311.14
281.05	290.08
281.51	329.87
281.97	252.63
282.43	304.12
282.89	276.04
283.35	301.78
283.809	322.85
284.269	287.74
284.729	318.17
285.188	261.99
285.648	285.4
286.107	294.76
286.567	231.57
287.026	287.74
287.485	292.42
287.944	327.53
288.404	332.21
288.863	320.51
289.322	287.74
289.781	280.72
290.24	301.78
290.699	290.08
291.158	336.89
291.616	273.7
292.075	372
292.534	252.63
292.992	301.78
293.451	278.38
293.91	360.3
294.368	400.09
294.827	343.91
295.285	327.53
295.743	269.02
296.202	318.17
296.66	301.78
297.118	287.74
297.576	283.06
298.034	357.96
298.492	297.1
298.95	294.76
299.408	320.51
299.866	233.91
300.324	332.21
300.781	283.06
301.239	369.66
301.697	304.12
302.154	311.14
302.612	285.4
303.069	266.67
303.527	276.04
303.984	280.72
304.441	355.62
304.899	238.59
305.356	299.44
305.813	294.76
306.27	283.06
306.727	297.1
307.184	257.31
307.641	325.19
308.098	304.12
308.555	294.76
309.012	311.14
309.468	294.76
309.925	311.14
310.382	322.85
310.838	304.12
311.295	308.8
311.751	266.67
312.208	332.21
312.664	332.21
313.12	350.93
313.577	320.51
314.033	299.44
314.489	252.63
314.945	369.66
315.401	360.3
315.857	308.8
316.313	376.68
316.769	292.42
317.225	210.5
317.681	327.53
318.136	353.27
318.592	322.85
319.048	383.7
319.503	313.49
319.959	273.7
320.414	348.59
320.869	304.12
321.325	362.64
321.78	276.04
322.235	332.21
322.691	299.44
323.146	285.4
323.601	264.33
324.056	299.44
324.511	346.25
324.966	283.06
325.421	252.63
325.875	341.57
326.33	283.06
326.785	357.96
327.24	327.53
327.694	297.1
328.149	271.36
328.603	341.57
329.058	379.02
329.512	287.74
329.966	320.51
330.421	362.64
330.875	276.04
331.329	364.98
331.783	245.61
332.237	350.93
332.691	357.96
333.145	285.4
333.599	292.42
334.053	313.49
334.507	346.25
334.96	332.21
335.414	350.93
335.868	271.36
336.321	313.49
336.775	287.74
337.228	346.25
337.682	355.62
338.135	278.38
338.588	327.53
339.042	287.74
339.495	329.87
339.948	301.78
340.401	325.19
340.854	287.74
341.307	315.83
341.76	299.44
342.213	266.67
342.666	334.55
343.119	348.59
343.571	357.96
344.024	329.87
344.477	290.08
344.929	245.61
345.382	360.3
345.834	322.85
346.287	247.95
346.739	325.19
347.191	276.04
347.644	308.8
348.096	285.4
348.548	285.4
349	273.7
349.452	290.08
349.904	306.46
350.356	341.57
350.808	280.72
351.26	280.72
351.711	264.33
352.163	315.83
352.615	350.93
353.066	353.27
353.518	367.32
353.969	318.17
354.421	353.27
354.872	313.49
355.324	301.78
355.775	318.17
356.226	292.42
356.677	334.55
357.128	322.85
357.579	336.89
358.03	315.83
358.481	435.19
358.932	297.1
359.383	346.25
359.834	315.83
360.285	367.32
360.735	313.49
361.186	320.51
361.637	264.33
362.087	357.96
362.538	280.72
362.988	383.7
363.438	402.43
363.889	308.8
364.339	294.76
364.789	283.06
365.239	325.19
365.689	432.85
366.139	339.23
366.589	327.53
367.039	327.53
367.489	315.83
367.939	285.4
368.389	341.57
368.839	273.7
369.288	320.51
369.738	315.83
370.187	346.25
370.637	280.72
371.086	336.89
371.536	322.85
371.985	311.14
372.434	306.46
372.884	325.19
373.333	315.83
373.782	285.4
374.231	336.89
374.68	287.74
375.129	329.87
375.578	367.32
376.027	332.21
376.475	311.14
376.924	334.55
377.373	290.08
377.822	318.17
378.27	346.25
378.719	271.36
379.167	283.06
379.616	325.19
380.064	306.46
380.512	297.1
380.961	283.06
381.409	318.17
381.857	306.46
382.305	320.51
382.753	306.46
383.201	336.89
383.649	306.46
384.097	357.96
384.545	304.12
384.992	395.4
385.44	297.1
385.888	297.1
386.335	322.85
386.783	355.62
387.231	383.7
387.678	362.64
388.125	339.23
388.573	322.85
389.02	278.38
389.467	273.7
389.914	264.33
390.362	318.17
390.809	243.27
391.256	339.23
391.703	341.57
392.15	332.21
392.596	301.78
393.043	292.42
393.49	364.98
393.937	327.53
394.383	355.62
394.83	318.17
395.276	318.17
395.723	297.1
396.169	367.32
396.616	283.06
397.062	273.7
397.508	343.91
397.954	325.19
398.401	430.51
398.847	285.4
399.293	313.49
399.739	376.68
400.185	311.14
400.631	287.74
401.076	276.04
401.522	336.89
401.968	308.8
402.414	369.66
402.859	301.78
403.305	346.25
403.75	343.91
404.196	315.83
404.641	350.93
405.086	332.21
405.532	348.59
405.977	362.64
406.422	353.27
406.867	318.17
407.312	383.7
407.757	271.36
408.202	287.74
408.647	353.27
409.092	372
409.537	353.27
409.982	386.04
410.426	325.19
410.871	348.59
411.316	297.1
411.76	292.42
412.205	332.21
412.649	334.55
413.093	341.57
413.538	334.55
413.982	308.8
414.426	355.62
414.87	381.36
415.314	346.25
415.758	390.72
416.202	362.64
416.646	278.38
417.09	357.96
417.534	292.42
417.978	329.87
418.421	311.14
418.865	357.96
419.309	332.21
419.752	318.17
420.196	322.85
420.639	374.34
421.083	411.79
421.526	393.06
421.969	339.23
422.412	332.21
422.856	301.78
423.299	287.74
423.742	311.14
424.185	299.44
424.628	294.76
425.071	341.57
425.513	320.51
425.956	332.21
426.399	329.87
426.842	318.17
427.284	355.62
427.727	299.44
428.169	360.3
428.612	313.49
429.054	339.23
429.497	297.1
429.939	301.78
430.381	261.99
430.823	294.76
431.265	327.53
431.707	306.46
432.149	290.08
432.591	325.19
433.033	308.8
433.475	273.7
433.917	297.1
434.359	353.27
434.8	320.51
435.242	278.38
435.684	360.3
436.125	348.59
436.567	315.83
437.008	346.25
437.449	409.45
437.891	336.89
438.332	327.53
438.773	343.91
439.214	315.83
439.656	339.23
440.097	343.91
440.538	297.1
440.978	325.19
441.419	301.78
441.86	271.36
442.301	320.51
442.742	311.14
443.182	343.91
443.623	332.21
444.063	283.06
444.504	247.95
444.944	388.38
445.385	343.91
445.825	304.12
446.265	313.49
446.706	280.72
447.146	383.7
447.586	301.78
448.026	350.93
448.466	332.21
448.906	367.32
449.346	343.91
449.786	276.04
450.225	322.85
450.665	327.53
451.105	299.44
451.544	376.68
451.984	271.36
452.424	332.21
452.863	329.87
453.302	348.59
453.742	322.85
454.181	325.19
454.62	313.49
455.059	299.44
455.499	266.67
455.938	285.4
456.377	348.59
456.816	271.36
457.254	283.06
457.693	308.8
458.132	327.53
458.571	322.85
459.01	343.91
459.448	285.4
459.887	320.51
460.325	320.51
460.764	336.89
461.202	329.87
461.641	322.85
462.079	271.36
462.517	276.04
462.955	287.74
463.393	304.12
463.832	346.25
464.27	348.59
464.708	271.36
465.145	287.74
465.583	350.93
466.021	325.19
466.459	299.44
466.897	311.14
467.334	306.46
467.772	285.4
468.209	311.14
468.647	311.14
469.084	308.8
469.522	301.78
469.959	355.62
470.396	318.17
470.833	304.12
471.271	283.06
471.708	369.66
472.145	301.78
472.582	315.83
473.019	290.08
473.456	280.72
473.892	308.8
474.329	290.08
474.766	376.68
475.202	367.32
475.639	320.51
476.076	311.14
476.512	283.06
476.949	313.49
477.385	355.62
477.821	294.76
478.258	355.62
478.694	336.89
479.13	313.49
479.566	287.74
480.002	294.76
480.438	301.78
480.874	353.27
481.31	308.8
481.746	283.06
482.181	290.08
482.617	364.98
483.053	306.46
483.488	292.42
483.924	332.21
484.36	269.02
484.795	306.46
485.23	325.19
485.666	322.85
486.101	313.49
486.536	311.14
486.971	325.19
487.407	283.06
487.842	393.06
488.277	350.93
488.712	294.76
489.146	339.23
489.581	308.8
490.016	301.78
490.451	332.21
490.885	364.98
491.32	360.3
491.755	339.23
492.189	304.12
492.624	290.08
493.058	334.55
493.492	336.89
493.927	379.02
494.361	327.53
494.795	334.55
495.229	343.91
495.663	297.1
496.097	318.17
496.531	269.02
496.965	348.59
497.399	325.19
497.833	325.19
498.266	329.87
498.7	315.83
499.134	318.17
499.567	329.87
500.001	301.78
500.434	360.3
500.868	404.77
501.301	329.87
501.734	299.44
502.168	364.98
502.601	327.53
503.034	355.62
503.467	383.7
503.9	339.23
504.333	311.14
504.766	353.27
505.199	367.32
505.632	311.14
506.064	285.4
506.497	327.53
506.93	320.51
507.362	313.49
507.795	304.12
508.227	266.67
508.66	311.14
509.092	332.21
509.524	308.8
509.956	299.44
510.389	332.21
510.821	313.49
511.253	308.8
511.685	362.64
512.117	381.36
512.549	322.85
512.981	341.57
513.412	315.83
513.844	362.64
514.276	273.7
514.707	294.76
515.139	313.49
515.571	409.45
516.002	353.27
516.433	341.57
516.865	322.85
517.296	327.53
517.727	283.06
518.159	339.23
518.59	360.3
519.021	271.36
519.452	362.64
519.883	257.31
520.314	318.17
520.744	350.93
521.175	372
521.606	353.27
522.037	355.62
522.467	240.93
522.898	285.4
523.328	334.55
523.759	301.78
524.189	269.02
524.62	372
525.05	336.89
525.48	250.29
525.91	285.4
526.341	325.19
526.771	339.23
527.201	357.96
527.631	311.14
528.061	346.25
528.49	334.55
528.92	327.53
529.35	313.49
529.78	257.31
530.209	287.74
530.639	343.91
531.068	357.96
531.498	383.7
531.927	304.12
532.357	343.91
532.786	348.59
533.215	346.25
533.644	306.46
534.074	266.67
534.503	334.55
534.932	379.02
535.361	353.27
535.79	339.23
536.218	299.44
536.647	283.06
537.076	327.53
537.505	325.19
537.933	308.8
538.362	306.46
538.79	327.53
539.219	343.91
539.647	329.87
540.076	306.46
540.504	376.68
540.932	311.14
541.36	315.83
541.788	318.17
542.217	278.38
542.645	346.25
543.073	294.76
543.5	339.23
543.928	301.78
544.356	297.1
544.784	334.55
545.211	393.06
545.639	327.53
546.067	374.34
546.494	315.83
546.922	320.51
547.349	315.83
547.776	329.87
548.204	292.42
548.631	339.23
549.058	336.89
549.485	301.78
549.912	280.72
550.339	285.4
550.766	257.31
551.193	315.83
551.62	299.44
552.047	339.23
552.474	364.98
552.9	290.08
553.327	278.38
553.754	315.83
554.18	299.44
554.607	343.91
555.033	245.61
555.459	320.51
555.886	292.42
556.312	353.27
556.738	348.59
557.164	336.89
557.59	379.02
558.016	336.89
558.442	297.1
558.868	266.67
559.294	297.1
559.72	299.44
560.145	301.78
560.571	357.96
560.997	346.25
561.422	329.87
561.848	292.42
562.273	322.85
562.699	336.89
563.124	320.51
563.549	350.93
563.974	341.57
564.4	355.62
564.825	278.38
565.25	327.53
565.675	355.62
566.1	313.49
566.525	306.46
566.95	325.19
567.374	334.55
567.799	348.59
568.224	332.21
568.648	320.51
569.073	386.04
569.497	339.23
569.922	308.8
570.346	257.31
570.771	276.04
571.195	304.12
571.619	346.25
572.043	325.19
572.467	341.57
572.891	332.21
573.315	308.8
573.739	297.1
574.163	315.83
574.587	318.17
575.011	322.85
575.435	287.74
575.858	273.7
576.282	367.32
576.705	306.46
577.129	308.8
577.552	306.46
577.976	261.99
578.399	341.57
578.822	339.23
579.245	343.91
579.669	348.59
580.092	320.51
580.515	318.17
580.938	290.08
581.361	315.83
581.784	294.76
582.206	261.99
582.629	329.87
583.052	269.02
583.474	325.19
583.897	360.3
584.32	315.83
584.742	276.04
585.165	287.74
585.587	348.59
586.009	341.57
586.431	362.64
586.854	261.99
587.276	367.32
587.698	299.44
588.12	299.44
588.542	339.23
588.964	339.23
589.386	257.31
589.807	320.51
590.229	297.1
590.651	327.53
591.073	308.8
591.494	294.76
591.916	374.34
592.337	362.64
592.759	301.78
593.18	311.14
593.601	332.21
594.022	297.1
594.444	362.64
594.865	308.8
595.286	341.57
595.707	397.74
596.128	381.36
596.549	292.42
596.97	329.87
597.39	388.38
597.811	304.12
598.232	297.1
598.652	327.53
599.073	313.49
599.494	346.25
599.914	336.89
600.334	409.45
600.755	315.83
601.175	322.85
601.595	254.97
602.015	273.7
602.436	259.65
602.856	409.45
603.276	271.36
603.696	308.8
604.115	290.08
604.535	353.27
604.955	353.27
605.375	292.42
605.794	357.96
606.214	329.87
606.634	381.36
607.053	311.14
607.473	346.25
607.892	318.17
608.311	350.93
608.731	404.77
609.15	332.21
609.569	353.27
609.988	357.96
610.407	308.8
610.826	393.06
611.245	355.62
611.664	343.91
612.083	280.72
612.501	306.46
612.92	348.59
613.339	283.06
613.757	283.06
614.176	348.59
614.594	297.1
615.013	336.89
615.431	374.34
615.85	299.44
616.268	322.85
616.686	315.83
617.104	311.14
617.522	329.87
617.94	297.1
618.358	327.53
618.776	325.19
619.194	313.49
619.612	336.89
620.03	348.59
620.447	390.72
620.865	292.42
621.282	332.21
621.7	329.87
622.117	271.36
622.535	353.27
622.952	411.79
623.369	397.74
623.787	374.34
624.204	325.19
624.621	306.46
625.038	329.87
625.455	299.44
625.872	339.23
626.289	297.1
626.706	264.33
627.123	369.66
627.539	362.64
627.956	327.53
628.373	240.93
628.789	360.3
629.206	383.7
629.622	362.64
630.038	297.1
630.455	311.14
630.871	346.25
631.287	297.1
631.703	297.1
632.12	353.27
632.536	327.53
632.952	339.23
633.368	283.06
633.783	306.46
634.199	287.74
634.615	339.23
635.031	327.53
635.446	318.17
635.862	372
636.277	339.23
636.693	360.3
637.108	325.19
637.524	306.46
637.939	306.46
638.354	322.85
638.77	379.02
639.185	297.1
639.6	297.1
640.015	320.51
640.43	360.3
640.845	271.36
641.259	311.14
641.674	329.87
642.089	299.44
642.504	308.8
642.918	311.14
643.333	318.17
643.747	350.93
644.162	292.42
644.576	367.32
644.991	336.89
645.405	381.36
645.819	308.8
646.233	313.49
646.647	327.53
647.061	315.83
647.475	315.83
647.889	269.02
648.303	313.49
648.717	306.46
649.131	348.59
649.545	315.83
649.958	320.51
650.372	229.23
650.785	339.23
651.199	341.57
651.612	287.74
652.026	285.4
652.439	332.21
652.852	346.25
653.266	341.57
653.679	250.29
654.092	355.62
654.505	308.8
654.918	269.02
655.331	280.72
655.744	311.14
656.156	357.96
656.569	381.36
656.982	273.7
657.394	343.91
657.807	332.21
658.22	327.53
658.632	343.91
659.044	327.53
659.457	283.06
659.869	336.89
660.281	273.7
660.693	250.29
661.106	357.96
661.518	341.57
661.93	254.97
662.342	341.57
662.754	297.1
663.165	341.57
663.577	318.17
663.989	285.4
664.401	332.21
664.812	259.65
665.224	336.89
665.635	311.14
666.047	369.66
666.458	327.53
666.869	334.55
667.281	334.55
667.692	238.59
668.103	280.72
668.514	325.19
668.925	329.87
669.336	362.64
669.747	308.8
670.158	306.46
670.569	311.14
670.979	318.17
671.39	311.14
671.801	362.64
672.211	311.14
672.622	308.8
673.032	381.36
673.443	294.76
673.853	283.06
674.263	336.89
674.674	329.87
675.084	353.27
675.494	388.38
675.904	318.17
676.314	315.83
676.724	336.89
677.134	301.78
677.544	397.74
677.953	329.87
678.363	339.23
678.773	442.21
679.182	308.8
679.592	327.53
680.001	341.57
680.411	355.62
680.82	318.17
681.23	372
681.639	343.91
682.048	332.21
682.457	329.87
682.866	315.83
683.275	292.42
683.684	301.78
684.093	327.53
684.502	261.99
684.911	297.1
685.32	341.57
685.728	290.08
686.137	334.55
686.546	306.46
686.954	325.19
687.363	285.4
687.771	301.78
688.179	315.83
688.588	400.09
688.996	273.7
689.404	266.67
689.812	313.49
690.22	353.27
690.628	376.68
691.036	383.7
691.444	355.62
691.852	294.76
692.26	367.32
692.667	266.67
693.075	357.96
693.483	315.83
693.89	336.89
694.298	299.44
694.705	350.93
695.112	332.21
695.52	372
695.927	311.14
696.334	325.19
696.741	261.99
697.148	294.76
697.555	334.55
697.962	294.76
698.369	372
698.776	315.83
699.183	364.98
699.59	339.23
699.996	280.72
700.403	311.14
700.81	320.51
701.216	306.46
701.623	318.17
702.029	217.52
702.435	308.8
702.842	364.98
703.248	353.27
703.654	343.91
704.06	318.17
704.466	320.51
704.872	320.51
705.278	325.19
705.684	339.23
706.09	348.59
706.496	360.3
706.901	364.98
707.307	325.19
707.712	304.12
708.118	327.53
708.523	308.8
708.929	264.33
709.334	325.19
709.74	350.93
710.145	301.78
710.55	325.19
710.955	294.76
711.36	329.87
711.765	294.76
712.17	374.34
712.575	329.87
712.98	847.13
713.385	336.89
713.789	233.91
714.194	301.78
714.599	341.57
715.003	276.04
715.408	306.46
715.812	334.55
716.217	252.63
716.621	322.85
717.025	304.12
717.429	357.96
717.833	283.06
718.238	301.78
718.642	327.53
719.046	266.67
719.449	360.3
719.853	350.93
720.257	285.4
720.661	269.02
721.065	215.18
721.468	313.49
721.872	313.49
722.275	332.21
722.679	334.55
723.082	311.14
723.485	308.8
723.889	355.62
724.292	327.53
724.695	362.64
725.098	261.99
725.501	343.91
725.904	315.83
726.307	306.46
726.71	273.7
727.113	311.14
727.516	334.55
727.918	329.87
728.321	301.78
728.724	252.63
729.126	304.12
729.529	343.91
729.931	252.63
730.333	350.93
730.736	259.65
731.138	318.17
731.54	353.27
731.942	357.96
732.344	346.25
732.746	348.59
733.148	306.46
733.55	311.14
733.952	276.04
734.354	339.23
734.756	341.57
735.157	311.14
735.559	346.25
735.96	280.72
736.362	350.93
736.763	369.66
737.165	341.57
737.566	311.14
737.967	339.23
738.368	327.53
738.77	276.04
739.171	369.66
739.572	360.3
739.973	294.76
740.374	315.83
740.774	355.62
741.175	276.04
741.576	308.8
741.977	299.44
742.377	306.46
742.778	329.87
743.178	336.89
743.579	357.96
743.979	367.32
744.379	306.46
744.78	327.53
745.18	329.87
745.58	308.8
745.98	336.89
746.38	273.7
746.78	348.59
747.18	318.17
747.58	404.77
747.98	264.33
748.38	271.36
748.779	388.38
749.179	287.74
749.578	346.25
749.978	219.86
750.377	376.68
750.777	285.4
751.176	278.38
751.575	297.1
751.975	276.04
752.374	402.43
752.773	313.49
753.172	329.87
753.571	269.02
753.97	201.14
754.369	301.78
754.768	332.21
755.166	322.85
755.565	259.65
755.964	257.31
756.362	285.4
756.761	247.95
757.159	350.93
757.558	292.42
757.956	364.98
758.354	313.49
758.753	313.49
759.151	308.8
759.549	327.53
759.947	325.19
760.345	290.08
760.743	332.21
761.141	301.78
761.539	297.1
761.936	301.78
762.334	264.33
762.732	313.49
763.129	341.57
763.527	297.1
763.924	304.12
764.322	364.98
764.719	276.04
765.117	350.93
765.514	353.27
765.911	332.21
766.308	292.42
766.705	327.53
767.102	350.93
767.499	273.7
767.896	322.85
768.293	280.72
768.69	343.91
769.086	322.85
769.483	299.44
769.88	261.99
770.276	348.59
770.673	311.14
771.069	285.4
771.466	343.91
771.862	320.51
772.258	355.62
772.654	369.66
773.05	318.17
773.447	325.19
773.843	425.83
774.239	348.59
774.634	332.21
775.03	273.7
775.426	311.14
775.822	322.85
776.218	313.49
776.613	336.89
777.009	318.17
777.404	261.99
777.8	304.12
778.195	276.04
778.59	386.04
778.986	264.33
779.381	269.02
779.776	271.36
780.171	336.89
780.566	304.12
780.961	318.17
781.356	297.1
781.751	372
782.146	301.78
782.54	322.85
782.935	362.64
783.33	306.46
783.724	311.14
784.119	276.04
784.513	304.12
784.908	283.06
785.302	297.1
785.696	261.99
786.09	336.89
786.485	318.17
786.879	327.53
787.273	287.74
787.667	273.7
788.061	259.65
788.454	306.46
788.848	334.55
789.242	315.83
789.636	369.66
790.029	357.96
790.423	259.65
790.816	287.74
791.21	240.93
791.603	257.31
791.997	327.53
792.39	273.7
792.783	325.19
793.176	250.29
793.569	247.95
793.962	334.55
794.355	364.98
794.748	278.38
795.141	311.14
795.534	266.67
795.927	292.42
796.319	353.27
796.712	386.04
797.105	304.12
797.497	336.89
797.89	360.3
798.282	306.46
798.674	327.53
799.067	360.3
799.459	343.91
799.851	318.17
800.243	400.09
800.635	339.23
801.027	318.17
801.419	325.19
801.811	339.23
802.203	339.23
802.594	360.3
802.986	339.23
803.378	287.74
803.769	299.44
804.161	318.17
804.552	271.36
804.944	318.17
805.335	320.51
805.726	329.87
806.118	283.06
806.509	292.42
806.9	315.83
807.291	294.76
807.682	332.21
808.073	304.12
808.464	294.76
808.855	315.83
809.245	290.08
809.636	332.21
810.027	341.57
810.417	313.49
810.808	362.64
811.198	259.65
811.589	276.04
811.979	299.44
812.369	280.72
812.759	315.83
813.15	283.06
813.54	322.85
813.93	315.83
814.32	343.91
814.71	325.19
815.1	285.4
815.489	290.08
815.879	254.97
816.269	357.96
816.658	306.46
817.048	294.76
817.438	362.64
817.827	327.53
818.216	294.76
818.606	325.19
818.995	336.89
819.384	315.83
819.773	287.74
820.163	304.12
820.552	311.14
820.941	329.87
821.33	269.02
821.718	297.1
822.107	308.8
822.496	294.76
822.885	336.89
823.273	269.02
823.662	334.55
824.05	329.87
824.439	355.62
824.827	348.59
825.216	339.23
825.604	301.78
825.992	290.08
826.38	301.78
826.768	350.93
827.156	285.4
827.544	322.85
827.932	259.65
828.32	285.4
828.708	327.53
829.096	318.17
829.483	355.62
829.871	306.46
830.259	280.72
830.646	334.55
831.034	278.38
831.421	367.32
831.808	264.33
832.196	287.74
832.583	315.83
832.97	329.87
833.357	271.36
833.744	313.49
834.131	259.65
834.518	325.19
834.905	322.85
835.292	339.23
835.678	327.53
836.065	283.06
836.452	269.02
836.838	313.49
837.225	374.34
837.611	301.78
837.998	336.89
838.384	339.23
838.77	257.31
839.157	301.78
839.543	369.66
839.929	437.53
840.315	299.44
840.701	369.66
841.087	383.7
841.473	304.12
841.858	320.51
842.244	343.91
842.63	364.98
843.015	395.4
843.401	379.02
843.787	299.44
844.172	367.32
844.557	348.59
844.943	290.08
845.328	336.89
845.713	240.93
846.098	327.53
846.483	383.7
846.868	315.83
847.253	339.23
847.638	269.02
848.023	301.78
848.408	325.19
848.793	334.55
849.177	304.12
849.562	264.33
849.947	336.89
850.331	320.51
850.715	376.68
851.1	308.8
851.484	304.12
851.868	353.27
852.253	369.66
852.637	332.21
853.021	301.78
853.405	444.56
853.789	306.46
854.173	327.53
854.557	313.49
854.94	294.76
855.324	341.57
855.708	297.1
856.091	301.78
856.475	327.53
856.858	327.53
857.242	332.21
857.625	367.32
858.009	299.44
858.392	264.33
858.775	329.87
859.158	294.76
859.541	294.76
859.924	226.89
860.307	346.25
860.69	290.08
861.073	304.12
861.456	336.89
861.838	341.57
862.221	306.46
862.604	325.19
862.986	266.67
863.369	353.27
863.751	355.62
864.133	381.36
864.516	245.61
864.898	355.62
865.28	264.33
865.662	311.14
866.044	325.19
866.426	322.85
866.808	320.51
867.19	257.31
867.572	299.44
867.954	320.51
868.336	350.93
868.717	318.17
869.099	261.99
869.48	292.42
869.862	322.85
870.243	308.8
870.625	343.91
871.006	292.42
871.387	266.67
871.768	294.76
872.149	226.89
872.53	315.83
872.911	280.72
873.292	322.85
873.673	271.36
874.054	294.76
874.435	339.23
874.815	386.04
875.196	304.12
875.577	297.1
875.957	299.44
876.338	313.49
876.718	350.93
877.098	360.3
877.479	390.72
877.859	311.14
878.239	308.8
878.619	322.85
878.999	393.06
879.379	348.59
879.759	318.17
880.139	306.46
880.519	322.85
880.898	325.19
881.278	327.53
881.658	311.14
882.037	292.42
882.417	299.44
882.796	292.42
883.176	287.74
883.555	257.31
883.934	318.17
884.313	297.1
884.693	332.21
885.072	372
885.451	355.62
885.83	297.1
886.209	311.14
886.587	290.08
886.966	315.83
887.345	259.65
887.724	362.64
888.102	402.43
888.481	301.78
888.859	283.06
889.238	311.14
889.616	348.59
889.994	311.14
890.373	271.36
890.751	322.85
891.129	304.12
891.507	280.72
891.885	336.89
892.263	409.45
892.641	294.76
893.019	350.93
893.396	376.68
893.774	376.68
894.152	343.91
894.529	336.89
894.907	332.21
895.284	294.76
895.662	299.44
896.039	329.87
896.416	273.7
896.794	318.17
897.171	346.25
897.548	325.19
897.925	341.57
898.302	285.4
898.679	250.29
899.056	301.78
899.433	339.23
899.809	294.76
900.186	327.53
900.563	334.55
900.939	290.08
901.316	308.8
901.692	299.44
902.069	311.14
902.445	343.91
902.821	306.46
903.197	357.96
903.574	372
903.95	341.57
904.326	367.32
904.702	320.51
905.078	360.3
905.454	362.64
905.829	308.8
906.205	308.8
906.581	290.08
906.956	304.12
907.332	376.68
907.707	273.7
908.083	315.83
908.458	325.19
908.833	318.17
909.209	374.34
909.584	332.21
909.959	311.14
910.334	259.65
910.709	283.06
911.084	339.23
911.459	332.21
911.834	341.57
912.209	287.74
912.583	360.3
912.958	336.89
913.333	304.12
913.707	290.08
914.082	297.1
914.456	327.53
914.83	367.32
915.205	336.89
915.579	343.91
915.953	278.38
916.327	259.65
916.701	346.25
917.075	343.91
917.449	292.42
917.823	353.27
918.197	315.83
918.571	339.23
918.944	329.87
919.318	294.76
919.692	297.1
920.065	339.23
920.438	402.43
920.812	322.85
921.185	224.55
921.558	343.91
921.932	308.8
922.305	367.32
922.678	271.36
923.051	297.1
923.424	339.23
923.797	320.51
924.17	280.72
924.542	283.06
924.915	320.51
925.288	313.49
925.661	299.44
926.033	367.32
926.406	341.57
926.778	304.12
927.15	261.99
927.523	306.46
927.895	299.44
928.267	313.49
928.639	280.72
929.011	287.74
929.383	334.55
929.755	311.14
930.127	299.44
930.499	315.83
930.871	339.23
931.242	320.51
931.614	322.85
931.986	343.91
932.357	311.14
932.729	229.23
933.1	304.12
933.471	336.89
933.843	325.19
934.214	285.4
934.585	350.93
934.956	308.8
935.327	334.55
935.698	343.91
936.069	299.44
936.44	252.63
936.811	367.32
937.182	329.87
937.552	269.02
937.923	287.74
938.293	198.8
938.664	285.4
939.034	304.12
939.405	269.02
939.775	287.74
940.145	318.17
940.516	322.85
940.886	313.49
941.256	315.83
941.626	334.55
941.996	306.46
942.366	257.31
942.735	290.08
943.105	311.14
943.475	353.27
943.845	315.83
944.214	294.76
944.584	376.68
944.953	327.53
945.323	334.55
945.692	292.42
946.061	383.7
946.43	285.4
946.8	306.46
947.169	297.1
947.538	308.8
947.907	325.19
948.276	364.98
948.645	297.1
949.013	287.74
949.382	348.59
949.751	325.19
950.119	306.46
950.488	287.74
950.857	320.51
951.225	299.44
951.593	250.29
951.962	357.96
952.33	283.06
952.698	318.17
953.066	339.23
953.434	269.02
953.802	360.3
954.17	285.4
954.538	315.83
954.906	271.36
955.274	311.14
955.642	364.98
956.009	369.66
956.377	404.77
956.744	311.14
957.112	350.93
957.479	343.91
957.847	313.49
958.214	341.57
958.581	336.89
958.948	290.08
959.315	357.96
959.683	341.57
960.05	369.66
960.416	334.55
960.783	264.33
961.15	332.21
961.517	355.62
961.884	327.53
962.25	311.14
962.617	304.12
962.983	299.44
963.35	273.7
963.716	283.06
964.082	308.8
964.449	360.3
964.815	353.27
965.181	304.12
965.547	290.08
965.913	320.51
966.279	332.21
966.645	329.87
967.011	299.44
967.377	292.42
967.742	318.17
968.108	290.08
968.474	327.53
968.839	283.06
969.205	322.85
969.57	329.87
969.935	269.02
970.301	320.51
970.666	271.36
971.031	285.4
971.396	294.76
971.761	301.78
972.126	304.12
972.491	339.23
972.856	271.36
973.221	299.44
973.586	261.99
973.95	336.89
974.315	322.85
974.679	362.64
975.044	306.46
975.408	301.78
975.773	353.27
976.137	332.21
976.501	269.02
976.866	278.38
977.23	318.17
977.594	334.55
977.958	364.98
978.322	339.23
978.686	381.36
979.049	297.1
979.413	273.7
979.777	287.74
980.141	350.93
980.504	311.14
980.868	315.83
981.231	308.8
981.595	297.1
981.958	304.12
982.321	364.98
982.684	329.87
983.048	311.14
983.411	283.06
983.774	257.31
984.137	353.27
984.5	383.7
984.862	360.3
985.225	346.25
985.588	313.49
985.951	311.14
986.313	259.65
986.676	313.49
987.038	320.51
987.401	304.12
987.763	322.85
988.125	315.83
988.488	332.21
988.85	294.76
989.212	299.44
989.574	290.08
989.936	278.38
990.298	322.85
990.66	346.25
991.022	367.32
991.383	390.72
991.745	348.59
992.107	318.17
992.468	315.83
992.83	276.04
993.191	348.59
993.553	308.8
993.914	329.87
994.275	339.23
994.637	276.04
994.998	285.4
995.359	278.38
995.72	322.85
996.081	280.72
996.442	332.21
996.803	350.93
997.163	320.51
997.524	327.53
997.885	315.83
998.245	355.62
998.606	332.21
998.966	336.89
999.327	250.29
999.687	353.27
1000.047	372
1000.408	285.4
1000.768	273.7
1001.128	325.19
1001.488	292.42
1001.848	339.23
1002.208	369.66
1002.568	355.62
1002.927	301.78
1003.287	318.17
1003.647	388.38
1004.007	383.7
1004.366	287.74
1004.726	276.04
1005.085	362.64
1005.444	383.7
1005.804	325.19
1006.163	315.83
1006.522	318.17
1006.881	320.51
1007.24	329.87
1007.599	418.81
1007.958	329.87
1008.317	269.02
1008.676	271.36
1009.035	350.93
1009.393	376.68
1009.752	332.21
1010.111	269.02
1010.469	297.1
1010.828	294.76
1011.186	280.72
1011.544	336.89
1011.903	315.83
1012.261	301.78
1012.619	341.57
1012.977	283.06
1013.335	367.32
1013.693	343.91
1014.051	369.66
1014.409	322.85
1014.767	261.99
1015.124	290.08
1015.482	292.42
1015.84	313.49
1016.197	346.25
1016.555	320.51
1016.912	245.61
1017.269	364.98
1017.627	308.8
1017.984	231.57
1018.341	290.08
1018.698	350.93
1019.055	283.06
1019.412	367.32
1019.769	343.91
1020.126	362.64
1020.483	299.44
1020.84	308.8
1021.196	341.57
1021.553	334.55
1021.909	376.68
1022.266	292.42
1022.622	273.7
1022.979	327.53
1023.335	386.04
1023.691	318.17
1024.047	294.76
1024.404	313.49
1024.76	311.14
1025.116	341.57
1025.472	306.46
1025.827	318.17
1026.183	322.85
1026.539	336.89
1026.895	346.25
1027.25	287.74
1027.606	287.74
1027.961	364.98
1028.317	353.27
1028.672	264.33
1029.028	278.38
1029.383	357.96
1029.738	278.38
1030.093	283.06
1030.448	318.17
1030.803	250.29
1031.158	332.21
1031.513	353.27
1031.868	327.53
1032.223	254.97
1032.577	269.02
1032.932	247.95
1033.287	334.55
1033.641	325.19
1033.996	294.76
1034.35	320.51
1034.704	247.95
1035.059	306.46
1035.413	339.23
1035.767	339.23
1036.121	339.23
