Data from Al_FLMS009871__626__14-49-12-412.txt Node

Date: Fri Mar 08 14:49:12 CST 2024
User: pe5414po
Spectrometer: FLMS00987
Trigger mode: 0
Integration Time (sec): 1.000000E-1
Scans to average: 1
Electric dark correction enabled: true
Nonlinearity correction enabled: false
Boxcar width: 0
XAxis mode: Wavelengths
Number of Pixels in Spectrum: 2048
>>>>>Begin Spectral Data<<<<<
188.938	-56.76
189.409	-56.76
189.879	-56.76
190.349	-115.27
190.819	-117.61
191.29	-91.87
191.76	-115.27
192.23	-98.89
192.7	-89.53
193.17	-112.93
193.64	-16.97
194.109	4.1
194.579	-5.27
195.049	-75.48
195.519	29.84
195.988	11.12
196.458	64.95
196.927	121.12
197.397	142.19
197.866	132.83
198.336	100.06
198.805	118.78
199.274	184.32
199.744	179.64
200.213	170.27
200.682	228.79
201.151	181.98
201.62	256.87
202.089	217.08
202.558	245.17
203.027	313.05
203.495	238.15
203.964	266.24
204.433	273.26
204.902	296.66
205.37	242.83
205.839	331.77
206.307	313.05
206.776	329.43
207.244	317.73
207.712	263.9
208.181	355.18
208.649	284.96
209.117	324.75
209.585	315.39
210.053	240.49
210.521	259.21
210.989	308.37
211.457	313.05
211.925	313.05
212.393	313.05
212.861	294.32
213.328	245.17
213.796	256.87
214.264	275.6
214.731	256.87
215.199	308.37
215.666	259.21
216.133	266.24
216.601	289.64
217.068	308.37
217.535	259.21
218.003	294.32
218.47	242.83
218.937	231.13
219.404	334.11
219.871	303.68
220.338	299
220.805	235.81
221.271	200.7
221.738	242.83
222.205	242.83
222.671	231.13
223.138	263.9
223.605	275.6
224.071	207.72
224.538	310.71
225.004	266.24
225.47	277.94
225.937	261.55
226.403	310.71
226.869	254.53
227.335	266.24
227.801	261.55
228.267	306.03
228.733	263.9
229.199	189
229.665	289.64
230.131	268.58
230.597	294.32
231.062	296.66
231.528	245.17
231.994	235.81
232.459	242.83
232.925	280.28
233.39	205.38
233.856	277.94
234.321	277.94
234.786	301.34
235.252	301.34
235.717	287.3
236.182	214.74
236.647	284.96
237.112	240.49
237.577	277.94
238.042	261.55
238.507	231.13
238.972	256.87
239.436	280.28
239.901	266.24
240.366	268.58
240.83	275.6
241.295	284.96
241.76	277.94
242.224	313.05
242.688	275.6
243.153	327.09
243.617	261.55
244.081	266.24
244.545	247.51
245.01	308.37
245.474	324.75
245.938	282.62
246.402	308.37
246.866	303.68
247.33	282.62
247.793	294.32
248.257	268.58
248.721	310.71
249.185	289.64
249.648	320.07
250.112	299
250.575	345.81
251.039	306.03
251.502	310.71
251.965	273.26
252.429	273.26
252.892	282.62
253.355	313.05
253.818	240.49
254.281	282.62
254.744	287.3
255.207	273.26
255.67	233.47
256.133	350.5
256.596	320.07
257.059	280.28
257.522	207.72
257.984	287.3
258.447	261.55
258.909	282.62
259.372	306.03
259.834	277.94
260.297	373.9
260.759	301.34
261.221	306.03
261.684	261.55
262.146	261.55
262.608	306.03
263.07	310.71
263.532	303.68
263.994	268.58
264.456	348.15
264.918	308.37
265.38	203.04
265.842	317.73
266.303	261.55
266.765	301.34
267.227	348.15
267.688	275.6
268.15	324.75
268.611	310.71
269.072	235.81
269.534	357.52
269.995	275.6
270.456	308.37
270.918	249.85
271.379	320.07
271.84	310.71
272.301	261.55
272.762	263.9
273.223	280.28
273.684	324.75
274.144	282.62
274.605	348.15
275.066	240.49
275.527	329.43
275.987	280.28
276.448	291.98
276.908	334.11
277.369	317.73
277.829	296.66
278.289	334.11
278.75	282.62
279.21	284.96
279.67	287.3
280.13	322.41
280.59	308.37
281.05	315.39
281.51	266.24
281.97	327.09
282.43	303.68
282.89	338.79
283.35	289.64
283.809	303.68
284.269	291.98
284.729	364.54
285.188	310.71
285.648	291.98
286.107	308.37
286.567	296.66
287.026	306.03
287.485	310.71
287.944	249.85
288.404	254.53
288.863	270.92
289.322	299
289.781	273.26
290.24	331.77
290.699	296.66
291.158	273.26
291.616	329.43
292.075	254.53
292.534	308.37
292.992	341.13
293.451	291.98
293.91	329.43
294.368	207.72
294.827	329.43
295.285	331.77
295.743	301.34
296.202	282.62
296.66	324.75
297.118	287.3
297.576	289.64
298.034	291.98
298.492	315.39
298.95	327.09
299.408	294.32
299.866	301.34
300.324	287.3
300.781	313.05
301.239	338.79
301.697	378.58
302.154	277.94
302.612	308.37
303.069	294.32
303.527	301.34
303.984	280.28
304.441	284.96
304.899	254.53
305.356	266.24
305.813	320.07
306.27	273.26
306.727	308.37
307.184	277.94
307.641	242.83
308.098	287.3
308.555	357.52
309.012	282.62
309.468	256.87
309.925	231.13
310.382	303.68
310.838	338.79
311.295	263.9
311.751	317.73
312.208	355.18
312.664	345.81
313.12	320.07
313.577	352.84
314.033	329.43
314.489	310.71
314.945	310.71
315.401	296.66
315.857	266.24
316.313	329.43
316.769	287.3
317.225	306.03
317.681	299
318.136	247.51
318.592	324.75
319.048	345.81
319.503	261.55
319.959	306.03
320.414	247.51
320.869	294.32
321.325	287.3
321.78	306.03
322.235	336.45
322.691	289.64
323.146	317.73
323.601	369.22
324.056	289.64
324.511	217.08
324.966	324.75
325.421	315.39
325.875	275.6
326.33	320.07
326.785	291.98
327.24	317.73
327.694	345.81
328.149	242.83
328.603	329.43
329.058	226.45
329.512	343.47
329.966	310.71
330.421	277.94
330.875	287.3
331.329	263.9
331.783	317.73
332.237	371.56
332.691	341.13
333.145	294.32
333.599	259.21
334.053	291.98
334.507	280.28
334.96	289.64
335.414	369.22
335.868	331.77
336.321	315.39
336.775	259.21
337.228	277.94
337.682	308.37
338.135	299
338.588	308.37
339.042	270.92
339.495	322.41
339.948	291.98
340.401	334.11
340.854	291.98
341.307	291.98
341.76	247.51
342.213	282.62
342.666	256.87
343.119	296.66
343.571	329.43
344.024	294.32
344.477	380.92
344.929	275.6
345.382	313.05
345.834	343.47
346.287	322.41
346.739	289.64
347.191	261.55
347.644	369.22
348.096	313.05
348.548	397.31
349	366.88
349.452	399.65
349.904	252.19
350.356	247.51
350.808	275.6
351.26	301.34
351.711	373.9
352.163	348.15
352.615	378.58
353.066	280.28
353.518	263.9
353.969	348.15
354.421	320.07
354.872	284.96
355.324	301.34
355.775	291.98
356.226	282.62
356.677	296.66
357.128	275.6
357.579	282.62
358.03	324.75
358.481	287.3
358.932	266.24
359.383	308.37
359.834	277.94
360.285	313.05
360.735	355.18
361.186	317.73
361.637	315.39
362.087	294.32
362.538	331.77
362.988	320.07
363.438	301.34
363.889	322.41
364.339	420.71
364.789	322.41
365.239	301.34
365.689	310.71
366.139	341.13
366.589	296.66
367.039	322.41
367.489	291.98
367.939	357.52
368.389	336.45
368.839	303.68
369.288	294.32
369.738	291.98
370.187	338.79
370.637	376.24
371.086	266.24
371.536	373.9
371.985	287.3
372.434	249.85
372.884	380.92
373.333	294.32
373.782	376.24
374.231	308.37
374.68	341.13
375.129	294.32
375.578	252.19
376.027	348.15
376.475	306.03
376.924	313.05
377.373	322.41
377.822	409.01
378.27	268.58
378.719	247.51
379.167	294.32
379.616	364.54
380.064	303.68
380.512	313.05
380.961	378.58
381.409	345.81
381.857	306.03
382.305	327.09
382.753	238.15
383.201	280.28
383.649	296.66
384.097	378.58
384.545	291.98
384.992	284.96
385.44	282.62
385.888	331.77
386.335	345.81
386.783	343.47
387.231	369.22
387.678	301.34
388.125	317.73
388.573	301.34
389.02	364.54
389.467	303.68
389.914	273.26
390.362	263.9
390.809	315.39
391.256	277.94
391.703	355.18
392.15	324.75
392.596	306.03
393.043	284.96
393.49	350.5
393.937	376.24
394.383	299
394.83	336.45
395.276	256.87
395.723	275.6
396.169	315.39
396.616	277.94
397.062	320.07
397.508	252.19
397.954	322.41
398.401	284.96
398.847	317.73
399.293	287.3
399.739	338.79
400.185	299
400.631	336.45
401.076	296.66
401.522	355.18
401.968	329.43
402.414	301.34
402.859	352.84
403.305	308.37
403.75	334.11
404.196	343.47
404.641	240.49
405.086	294.32
405.532	268.58
405.977	387.94
406.422	364.54
406.867	387.94
407.312	322.41
407.757	345.81
408.202	369.22
408.647	291.98
409.092	299
409.537	313.05
409.982	376.24
410.426	331.77
410.871	371.56
411.316	338.79
411.76	261.55
412.205	324.75
412.649	378.58
413.093	317.73
413.538	306.03
413.982	329.43
414.426	359.86
414.87	317.73
415.314	273.26
415.758	355.18
416.202	324.75
416.646	345.81
417.09	329.43
417.534	245.17
417.978	320.07
418.421	341.13
418.865	291.98
419.309	320.07
419.752	338.79
420.196	287.3
420.639	364.54
421.083	301.34
421.526	352.84
421.969	329.43
422.412	331.77
422.856	282.62
423.299	254.53
423.742	322.41
424.185	315.39
424.628	313.05
425.071	413.69
425.513	390.28
425.956	247.51
426.399	336.45
426.842	308.37
427.284	343.47
427.727	280.28
428.169	313.05
428.612	348.15
429.054	320.07
429.497	275.6
429.939	268.58
430.381	327.09
430.823	329.43
431.265	291.98
431.707	308.37
432.149	322.41
432.591	334.11
433.033	338.79
433.475	263.9
433.917	296.66
434.359	284.96
434.8	294.32
435.242	329.43
435.684	235.81
436.125	280.28
436.567	284.96
437.008	355.18
437.449	348.15
437.891	296.66
438.332	296.66
438.773	327.09
439.214	329.43
439.656	249.85
440.097	317.73
440.538	406.67
440.978	306.03
441.419	338.79
441.86	369.22
442.301	324.75
442.742	308.37
443.182	397.31
443.623	329.43
444.063	322.41
444.504	313.05
444.944	306.03
445.385	294.32
445.825	287.3
446.265	322.41
446.706	280.28
447.146	308.37
447.586	289.64
448.026	397.31
448.466	327.09
448.906	371.56
449.346	291.98
449.786	348.15
450.225	350.5
450.665	320.07
451.105	364.54
451.544	263.9
451.984	320.07
452.424	289.64
452.863	245.17
453.302	315.39
453.742	334.11
454.181	263.9
454.62	315.39
455.059	348.15
455.499	392.62
455.938	289.64
456.377	362.2
456.816	341.13
457.254	268.58
457.693	334.11
458.132	301.34
458.571	359.86
459.01	331.77
459.448	317.73
459.887	308.37
460.325	320.07
460.764	252.19
461.202	359.86
461.641	338.79
462.079	394.97
462.517	338.79
462.955	362.2
463.393	369.22
463.832	357.52
464.27	282.62
464.708	287.3
465.145	345.81
465.583	303.68
466.021	287.3
466.459	306.03
466.897	341.13
467.334	291.98
467.772	406.67
468.209	308.37
468.647	308.37
469.084	327.09
469.522	324.75
469.959	369.22
470.396	263.9
470.833	306.03
471.271	263.9
471.708	355.18
472.145	350.5
472.582	296.66
473.019	275.6
473.456	310.71
473.892	315.39
474.329	373.9
474.766	336.45
475.202	322.41
475.639	366.88
476.076	256.87
476.512	310.71
476.949	277.94
477.385	289.64
477.821	296.66
478.258	364.54
478.694	324.75
479.13	275.6
479.566	334.11
480.002	336.45
480.438	329.43
480.874	303.68
481.31	355.18
481.746	327.09
482.181	287.3
482.617	324.75
483.053	350.5
483.488	310.71
483.924	362.2
484.36	308.37
484.795	355.18
485.23	280.28
485.666	259.21
486.101	350.5
486.536	343.47
486.971	306.03
487.407	277.94
487.842	313.05
488.277	369.22
488.712	336.45
489.146	303.68
489.581	331.77
490.016	341.13
490.451	308.37
490.885	310.71
491.32	317.73
491.755	299
492.189	284.96
492.624	287.3
493.058	334.11
493.492	357.52
493.927	249.85
494.361	355.18
494.795	266.24
495.229	303.68
495.663	306.03
496.097	331.77
496.531	310.71
496.965	345.81
497.399	270.92
497.833	345.81
498.266	322.41
498.7	301.34
499.134	254.53
499.567	324.75
500.001	352.84
500.434	359.86
500.868	268.58
501.301	366.88
501.734	303.68
502.168	341.13
502.601	303.68
503.034	284.96
503.467	320.07
503.9	350.5
504.333	284.96
504.766	345.81
505.199	313.05
505.632	329.43
506.064	313.05
506.497	341.13
506.93	277.94
507.362	289.64
507.795	362.2
508.227	373.9
508.66	373.9
509.092	355.18
509.524	352.84
509.956	313.05
510.389	291.98
510.821	371.56
511.253	310.71
511.685	327.09
512.117	322.41
512.549	301.34
512.981	275.6
513.412	291.98
513.844	310.71
514.276	289.64
514.707	357.52
515.139	313.05
515.571	287.3
516.002	320.07
516.433	324.75
516.865	362.2
517.296	317.73
517.727	322.41
518.159	348.15
518.59	313.05
519.021	284.96
519.452	296.66
519.883	299
520.314	254.53
520.744	303.68
521.175	317.73
521.606	317.73
522.037	357.52
522.467	334.11
522.898	341.13
523.328	291.98
523.759	343.47
524.189	348.15
524.62	341.13
525.05	303.68
525.48	282.62
525.91	261.55
526.341	329.43
526.771	336.45
527.201	327.09
527.631	315.39
528.061	324.75
528.49	357.52
528.92	334.11
529.35	343.47
529.78	359.86
530.209	317.73
530.639	394.97
531.068	317.73
531.498	341.13
531.927	294.32
532.357	306.03
532.786	245.17
533.215	329.43
533.644	331.77
534.074	322.41
534.503	345.81
534.932	282.62
535.361	324.75
535.79	331.77
536.218	355.18
536.647	301.34
537.076	259.21
537.505	322.41
537.933	327.09
538.362	320.07
538.79	357.52
539.219	350.5
539.647	331.77
540.076	315.39
540.504	296.66
540.932	362.2
541.36	200.7
541.788	256.87
542.217	322.41
542.645	313.05
543.073	345.81
543.5	416.03
543.928	280.28
544.356	256.87
544.784	373.9
545.211	315.39
545.639	355.18
546.067	287.3
546.494	280.28
546.922	315.39
547.349	270.92
547.776	306.03
548.204	359.86
548.631	352.84
549.058	275.6
549.485	324.75
549.912	317.73
550.339	364.54
550.766	373.9
551.193	345.81
551.62	289.64
552.047	320.07
552.474	315.39
552.9	329.43
553.327	362.2
553.754	343.47
554.18	362.2
554.607	341.13
555.033	352.84
555.459	322.41
555.886	341.13
556.312	359.86
556.738	387.94
557.164	313.05
557.59	308.37
558.016	247.51
558.442	280.28
558.868	336.45
559.294	313.05
559.72	306.03
560.145	359.86
560.571	320.07
560.997	329.43
561.422	270.92
561.848	247.51
562.273	280.28
562.699	277.94
563.124	357.52
563.549	315.39
563.974	280.28
564.4	320.07
564.825	411.35
565.25	320.07
565.675	355.18
566.1	291.98
566.525	366.88
566.95	324.75
567.374	338.79
567.799	334.11
568.224	366.88
568.648	376.24
569.073	378.58
569.497	315.39
569.922	350.5
570.346	296.66
570.771	343.47
571.195	313.05
571.619	327.09
572.043	331.77
572.467	406.67
572.891	294.32
573.315	294.32
573.739	366.88
574.163	266.24
574.587	308.37
575.011	289.64
575.435	317.73
575.858	301.34
576.282	322.41
576.705	273.26
577.129	324.75
577.552	371.56
577.976	282.62
578.399	280.28
578.822	334.11
579.245	219.43
579.669	317.73
580.092	357.52
580.515	338.79
580.938	369.22
581.361	317.73
581.784	301.34
582.206	343.47
582.629	376.24
583.052	341.13
583.474	338.79
583.897	343.47
584.32	299
584.742	315.39
585.165	327.09
585.587	277.94
586.009	308.37
586.431	268.58
586.854	299
587.276	282.62
587.698	303.68
588.12	320.07
588.542	294.32
588.964	320.07
589.386	287.3
589.807	341.13
590.229	352.84
590.651	233.47
591.073	320.07
591.494	373.9
591.916	383.26
592.337	322.41
592.759	380.92
593.18	296.66
593.601	296.66
594.022	324.75
594.444	341.13
594.865	284.96
595.286	350.5
595.707	331.77
596.128	275.6
596.549	289.64
596.97	289.64
597.39	308.37
597.811	331.77
598.232	247.51
598.652	324.75
599.073	348.15
599.494	296.66
599.914	313.05
600.334	294.32
600.755	284.96
601.175	273.26
601.595	266.24
602.015	313.05
602.436	322.41
602.856	486.25
603.276	329.43
603.696	327.09
604.115	317.73
604.535	308.37
604.955	338.79
605.375	282.62
605.794	259.21
606.214	362.2
606.634	343.47
607.053	390.28
607.473	409.01
607.892	275.6
608.311	313.05
608.731	355.18
609.15	289.64
609.569	284.96
609.988	327.09
610.407	387.94
610.826	301.34
611.245	310.71
611.664	341.13
612.083	306.03
612.501	322.41
612.92	296.66
613.339	291.98
613.757	289.64
614.176	373.9
614.594	364.54
615.013	219.43
615.431	306.03
615.85	324.75
616.268	338.79
616.686	329.43
617.104	308.37
617.522	299
617.94	313.05
618.358	231.13
618.776	282.62
619.194	310.71
619.612	287.3
620.03	303.68
620.447	364.54
620.865	338.79
621.282	268.58
621.7	341.13
622.117	299
622.535	362.2
622.952	315.39
623.369	350.5
623.787	327.09
624.204	306.03
624.621	256.87
625.038	294.32
625.455	313.05
625.872	352.84
626.289	303.68
626.706	261.55
627.123	294.32
627.539	397.31
627.956	336.45
628.373	331.77
628.789	310.71
629.206	303.68
629.622	392.62
630.038	315.39
630.455	317.73
630.871	315.39
631.287	401.99
631.703	404.33
632.12	270.92
632.536	287.3
632.952	303.68
633.368	282.62
633.783	310.71
634.199	259.21
634.615	252.19
635.031	308.37
635.446	366.88
635.862	334.11
636.277	355.18
636.693	301.34
637.108	273.26
637.524	329.43
637.939	341.13
638.354	287.3
638.77	343.47
639.185	315.39
639.6	277.94
640.015	294.32
640.43	284.96
640.845	327.09
641.259	303.68
641.674	294.32
642.089	284.96
642.504	308.37
642.918	249.85
643.333	327.09
643.747	299
644.162	345.81
644.576	306.03
644.991	303.68
645.405	301.34
645.819	329.43
646.233	334.11
646.647	299
647.061	359.86
647.475	277.94
647.889	352.84
648.303	308.37
648.717	282.62
649.131	317.73
649.545	270.92
649.958	341.13
650.372	245.17
650.785	263.9
651.199	287.3
651.612	362.2
652.026	373.9
652.439	371.56
652.852	301.34
653.266	359.86
653.679	294.32
654.092	362.2
654.505	280.28
654.918	315.39
655.331	345.81
655.744	317.73
656.156	313.05
656.569	273.26
656.982	275.6
657.394	306.03
657.807	352.84
658.22	359.86
658.632	366.88
659.044	228.79
659.457	299
659.869	336.45
660.281	336.45
660.693	343.47
661.106	289.64
661.518	320.07
661.93	362.2
662.342	418.37
662.754	261.55
663.165	315.39
663.577	324.75
663.989	383.26
664.401	313.05
664.812	301.34
665.224	345.81
665.635	336.45
666.047	287.3
666.458	317.73
666.869	334.11
667.281	310.71
667.692	277.94
668.103	355.18
668.514	277.94
668.925	308.37
669.336	334.11
669.747	238.15
670.158	273.26
670.569	317.73
670.979	320.07
671.39	294.32
671.801	308.37
672.211	310.71
672.622	338.79
673.032	310.71
673.443	317.73
673.853	268.58
674.263	301.34
674.674	296.66
675.084	334.11
675.494	348.15
675.904	359.86
676.314	371.56
676.724	266.24
677.134	341.13
677.544	306.03
677.953	341.13
678.363	284.96
678.773	345.81
679.182	270.92
679.592	331.77
680.001	350.5
680.411	313.05
680.82	329.43
681.23	329.43
681.639	350.5
682.048	336.45
682.457	345.81
682.866	277.94
683.275	357.52
683.684	294.32
684.093	310.71
684.502	245.17
684.911	373.9
685.32	282.62
685.728	331.77
686.137	282.62
686.546	291.98
686.954	338.79
687.363	310.71
687.771	303.68
688.179	334.11
688.588	291.98
688.996	334.11
689.404	296.66
689.812	359.86
690.22	303.68
690.628	338.79
691.036	345.81
691.444	317.73
691.852	299
692.26	364.54
692.667	315.39
693.075	306.03
693.483	301.34
693.89	315.39
694.298	301.34
694.705	341.13
695.112	308.37
695.52	329.43
695.927	322.41
696.334	320.07
696.741	228.79
697.148	334.11
697.555	320.07
697.962	336.45
698.369	320.07
698.776	331.77
699.183	364.54
699.59	287.3
699.996	306.03
700.403	343.47
700.81	205.38
701.216	301.34
701.623	322.41
702.029	313.05
702.435	345.81
702.842	366.88
703.248	296.66
703.654	284.96
704.06	294.32
704.466	357.52
704.872	245.17
705.278	289.64
705.684	331.77
706.09	299
706.496	320.07
706.901	277.94
707.307	277.94
707.712	284.96
708.118	263.9
708.523	362.2
708.929	355.18
709.334	284.96
709.74	359.86
710.145	306.03
710.55	336.45
710.955	287.3
711.36	308.37
711.765	303.68
712.17	308.37
712.575	277.94
712.98	781.15
713.385	362.2
713.789	294.32
714.194	259.21
714.599	331.77
715.003	355.18
715.408	317.73
715.812	383.26
716.217	369.22
716.621	350.5
717.025	334.11
717.429	291.98
717.833	324.75
718.238	331.77
718.642	336.45
719.046	266.24
719.449	306.03
719.853	383.26
720.257	359.86
720.661	268.58
721.065	313.05
721.468	313.05
721.872	263.9
722.275	331.77
722.679	327.09
723.082	270.92
723.485	252.19
723.889	352.84
724.292	303.68
724.695	268.58
725.098	277.94
725.501	259.21
725.904	369.22
726.307	313.05
726.71	308.37
727.113	327.09
727.516	336.45
727.918	327.09
728.321	336.45
728.724	273.26
729.126	301.34
729.529	282.62
729.931	296.66
730.333	348.15
730.736	315.39
731.138	282.62
731.54	324.75
731.942	289.64
732.344	324.75
732.746	331.77
733.148	334.11
733.55	266.24
733.952	329.43
734.354	392.62
734.756	336.45
735.157	336.45
735.559	350.5
735.96	296.66
736.362	296.66
736.763	329.43
737.165	310.71
737.566	327.09
737.967	401.99
738.368	327.09
738.77	296.66
739.171	320.07
739.572	249.85
739.973	287.3
740.374	296.66
740.774	313.05
741.175	324.75
741.576	289.64
741.977	275.6
742.377	299
742.778	303.68
743.178	284.96
743.579	315.39
743.979	336.45
744.379	371.56
744.78	322.41
745.18	331.77
745.58	303.68
745.98	296.66
746.38	294.32
746.78	327.09
747.18	345.81
747.58	313.05
747.98	308.37
748.38	350.5
748.779	320.07
749.179	306.03
749.578	261.55
749.978	263.9
750.377	350.5
750.777	310.71
751.176	313.05
751.575	315.39
751.975	301.34
752.374	275.6
752.773	315.39
753.172	327.09
753.571	261.55
753.97	249.85
754.369	308.37
754.768	261.55
755.166	366.88
755.565	362.2
755.964	294.32
756.362	329.43
756.761	329.43
757.159	296.66
757.558	331.77
757.956	247.51
758.354	343.47
758.753	291.98
759.151	327.09
759.549	383.26
759.947	341.13
760.345	364.54
760.743	320.07
761.141	329.43
761.539	385.6
761.936	289.64
762.334	277.94
762.732	376.24
763.129	263.9
763.527	329.43
763.924	306.03
764.322	341.13
764.719	371.56
765.117	357.52
765.514	277.94
765.911	327.09
766.308	359.86
766.705	284.96
767.102	291.98
767.499	387.94
767.896	352.84
768.293	369.22
768.69	359.86
769.086	301.34
769.483	280.28
769.88	266.24
770.276	289.64
770.673	252.19
771.069	287.3
771.466	404.33
771.862	261.55
772.258	259.21
772.654	315.39
773.05	284.96
773.447	306.03
773.843	352.84
774.239	289.64
774.634	369.22
775.03	247.51
775.426	345.81
775.822	270.92
776.218	310.71
776.613	299
777.009	266.24
777.404	338.79
777.8	343.47
778.195	334.11
778.59	282.62
778.986	299
779.381	301.34
779.776	345.81
780.171	299
780.566	301.34
780.961	320.07
781.356	306.03
781.751	287.3
782.146	263.9
782.54	320.07
782.935	306.03
783.33	261.55
783.724	299
784.119	320.07
784.513	287.3
784.908	322.41
785.302	329.43
785.696	390.28
786.09	348.15
786.485	359.86
786.879	270.92
787.273	329.43
787.667	238.15
788.061	324.75
788.454	317.73
788.848	291.98
789.242	310.71
789.636	355.18
790.029	341.13
790.423	287.3
790.816	310.71
791.21	268.58
791.603	338.79
791.997	299
792.39	336.45
792.783	352.84
793.176	284.96
793.569	259.21
793.962	273.26
794.355	291.98
794.748	359.86
795.141	303.68
795.534	313.05
795.927	357.52
796.319	291.98
796.712	294.32
797.105	261.55
797.497	266.24
797.89	249.85
798.282	301.34
798.674	256.87
799.067	362.2
799.459	289.64
799.851	336.45
800.243	277.94
800.635	327.09
801.027	313.05
801.419	334.11
801.811	343.47
802.203	266.24
802.594	306.03
802.986	266.24
803.378	317.73
803.769	313.05
804.161	322.41
804.552	284.96
804.944	322.41
805.335	273.26
805.726	299
806.118	359.86
806.509	261.55
806.9	270.92
807.291	282.62
807.682	291.98
808.073	317.73
808.464	343.47
808.855	348.15
809.245	320.07
809.636	306.03
810.027	310.71
810.417	331.77
810.808	385.6
811.198	329.43
811.589	345.81
811.979	315.39
812.369	317.73
812.759	320.07
813.15	259.21
813.54	338.79
813.93	359.86
814.32	334.11
814.71	329.43
815.1	299
815.489	301.34
815.879	294.32
816.269	308.37
816.658	338.79
817.048	306.03
817.438	282.62
817.827	327.09
818.216	301.34
818.606	338.79
818.995	303.68
819.384	315.39
819.773	338.79
820.163	306.03
820.552	315.39
820.941	289.64
821.33	345.81
821.718	320.07
822.107	242.83
822.496	313.05
822.885	357.52
823.273	310.71
823.662	343.47
824.05	315.39
824.439	303.68
824.827	207.72
825.216	320.07
825.604	242.83
825.992	299
826.38	289.64
826.768	334.11
827.156	263.9
827.544	277.94
827.932	352.84
828.32	282.62
828.708	308.37
829.096	329.43
829.483	317.73
829.871	322.41
830.259	324.75
830.646	329.43
831.034	296.66
831.421	320.07
831.808	289.64
832.196	242.83
832.583	306.03
832.97	341.13
833.357	334.11
833.744	287.3
834.131	343.47
834.518	355.18
834.905	308.37
835.292	294.32
835.678	345.81
836.065	350.5
836.452	329.43
836.838	301.34
837.225	313.05
837.611	315.39
837.998	327.09
838.384	306.03
838.77	306.03
839.157	336.45
839.543	364.54
839.929	371.56
840.315	317.73
840.701	303.68
841.087	334.11
841.473	296.66
841.858	322.41
842.244	329.43
842.63	299
843.015	303.68
843.401	537.74
843.787	308.37
844.172	366.88
844.557	306.03
844.943	303.68
845.328	289.64
845.713	282.62
846.098	306.03
846.483	308.37
846.868	308.37
847.253	301.34
847.638	348.15
848.023	331.77
848.408	329.43
848.793	348.15
849.177	277.94
849.562	291.98
849.947	313.05
850.331	357.52
850.715	324.75
851.1	266.24
851.484	329.43
851.868	275.6
852.253	301.34
852.637	313.05
853.021	308.37
853.405	231.13
853.789	299
854.173	343.47
854.557	308.37
854.94	301.34
855.324	299
855.708	334.11
856.091	317.73
856.475	287.3
856.858	348.15
857.242	301.34
857.625	280.28
858.009	413.69
858.392	322.41
858.775	324.75
859.158	296.66
859.541	320.07
859.924	357.52
860.307	299
860.69	369.22
861.073	378.58
861.456	362.2
861.838	296.66
862.221	306.03
862.604	275.6
862.986	322.41
863.369	345.81
863.751	238.15
864.133	331.77
864.516	242.83
864.898	266.24
865.28	324.75
865.662	261.55
866.044	275.6
866.426	404.33
866.808	303.68
867.19	294.32
867.572	315.39
867.954	284.96
868.336	287.3
868.717	322.41
869.099	350.5
869.48	256.87
869.862	322.41
870.243	280.28
870.625	299
871.006	355.18
871.387	308.37
871.768	331.77
872.149	320.07
872.53	329.43
872.911	291.98
873.292	413.69
873.673	299
874.054	310.71
874.435	254.53
874.815	249.85
875.196	231.13
875.577	366.88
875.957	296.66
876.338	366.88
876.718	327.09
877.098	327.09
877.479	282.62
877.859	280.28
878.239	254.53
878.619	296.66
878.999	343.47
879.379	306.03
879.759	320.07
880.139	287.3
880.519	308.37
880.898	355.18
881.278	303.68
881.658	291.98
882.037	252.19
882.417	226.45
882.796	301.34
883.176	359.86
883.555	315.39
883.934	338.79
884.313	357.52
884.693	268.58
885.072	327.09
885.451	341.13
885.83	385.6
886.209	348.15
886.587	327.09
886.966	390.28
887.345	331.77
887.724	343.47
888.102	324.75
888.481	376.24
888.859	313.05
889.238	308.37
889.616	270.92
889.994	280.28
890.373	338.79
890.751	341.13
891.129	329.43
891.507	343.47
891.885	315.39
892.263	357.52
892.641	284.96
893.019	320.07
893.396	345.81
893.774	341.13
894.152	371.56
894.529	261.55
894.907	352.84
895.284	315.39
895.662	350.5
896.039	294.32
896.416	310.71
896.794	359.86
897.171	289.64
897.548	303.68
897.925	270.92
898.302	259.21
898.679	289.64
899.056	231.13
899.433	261.55
899.809	324.75
900.186	289.64
900.563	348.15
900.939	289.64
901.316	334.11
901.692	270.92
902.069	291.98
902.445	231.13
902.821	320.07
903.197	308.37
903.574	301.34
903.95	277.94
904.326	317.73
904.702	390.28
905.078	301.34
905.454	334.11
905.829	266.24
906.205	324.75
906.581	294.32
906.956	362.2
907.332	284.96
907.707	275.6
908.083	275.6
908.458	294.32
908.833	289.64
909.209	275.6
909.584	284.96
909.959	327.09
910.334	355.18
910.709	385.6
911.084	336.45
911.459	317.73
911.834	287.3
912.209	268.58
912.583	320.07
912.958	259.21
913.333	287.3
913.707	294.32
914.082	317.73
914.456	296.66
914.83	242.83
915.205	308.37
915.579	345.81
915.953	329.43
916.327	261.55
916.701	338.79
917.075	249.85
917.449	329.43
917.823	282.62
918.197	385.6
918.571	362.2
918.944	303.68
919.318	310.71
919.692	338.79
920.065	287.3
920.438	341.13
920.812	364.54
921.185	348.15
921.558	263.9
921.932	294.32
922.305	331.77
922.678	291.98
923.051	380.92
923.424	291.98
923.797	294.32
924.17	280.28
924.542	338.79
924.915	345.81
925.288	324.75
925.661	327.09
926.033	282.62
926.406	296.66
926.778	287.3
927.15	313.05
927.523	254.53
927.895	315.39
928.267	289.64
928.639	266.24
929.011	308.37
929.383	371.56
929.755	275.6
930.127	277.94
930.499	341.13
930.871	385.6
931.242	364.54
931.614	341.13
931.986	284.96
932.357	284.96
932.729	263.9
933.1	296.66
933.471	275.6
933.843	317.73
934.214	345.81
934.585	310.71
934.956	331.77
935.327	331.77
935.698	334.11
936.069	338.79
936.44	268.58
936.811	294.32
937.182	275.6
937.552	341.13
937.923	282.62
938.293	331.77
938.664	299
939.034	303.68
939.405	238.15
939.775	310.71
940.145	378.58
940.516	324.75
940.886	359.86
941.256	233.47
941.626	348.15
941.996	364.54
942.366	284.96
942.735	350.5
943.105	277.94
943.475	334.11
943.845	343.47
944.214	266.24
944.584	364.54
944.953	280.28
945.323	369.22
945.692	299
946.061	369.22
946.43	310.71
946.8	306.03
947.169	294.32
947.538	301.34
947.907	336.45
948.276	357.52
948.645	280.28
949.013	331.77
949.382	315.39
949.751	306.03
950.119	277.94
950.488	277.94
950.857	303.68
951.225	397.31
951.593	317.73
951.962	299
952.33	355.18
952.698	294.32
953.066	275.6
953.434	329.43
953.802	301.34
954.17	315.39
954.538	313.05
954.906	359.86
955.274	357.52
955.642	301.34
956.009	378.58
956.377	350.5
956.744	336.45
957.112	334.11
957.479	362.2
957.847	322.41
958.214	261.55
958.581	357.52
958.948	327.09
959.315	327.09
959.683	331.77
960.05	287.3
960.416	296.66
960.783	287.3
961.15	334.11
961.517	252.19
961.884	331.77
962.25	327.09
962.617	331.77
962.983	294.32
963.35	240.49
963.716	284.96
964.082	320.07
964.449	303.68
964.815	317.73
965.181	336.45
965.547	270.92
965.913	334.11
966.279	284.96
966.645	315.39
967.011	306.03
967.377	320.07
967.742	284.96
968.108	294.32
968.474	350.5
968.839	289.64
969.205	320.07
969.57	322.41
969.935	345.81
970.301	322.41
970.666	296.66
971.031	357.52
971.396	313.05
971.761	329.43
972.126	331.77
972.491	327.09
972.856	296.66
973.221	289.64
973.586	249.85
973.95	275.6
974.315	334.11
974.679	322.41
975.044	301.34
975.408	331.77
975.773	355.18
976.137	224.11
976.501	322.41
976.866	296.66
977.23	294.32
977.594	366.88
977.958	320.07
978.322	322.41
978.686	233.47
979.049	336.45
979.413	348.15
979.777	324.75
980.141	313.05
980.504	334.11
980.868	287.3
981.231	287.3
981.595	313.05
981.958	299
982.321	256.87
982.684	280.28
983.048	303.68
983.411	299
983.774	306.03
984.137	327.09
984.5	301.34
984.862	294.32
985.225	352.84
985.588	341.13
985.951	287.3
986.313	320.07
986.676	299
987.038	252.19
987.401	266.24
987.763	313.05
988.125	306.03
988.488	268.58
988.85	310.71
989.212	280.28
989.574	373.9
989.936	303.68
990.298	289.64
990.66	287.3
991.022	259.21
991.383	324.75
991.745	247.51
992.107	315.39
992.468	299
992.83	336.45
993.191	303.68
993.553	331.77
993.914	261.55
994.275	334.11
994.637	343.47
994.998	350.5
995.359	303.68
995.72	249.85
996.081	350.5
996.442	299
996.803	303.68
997.163	359.86
997.524	284.96
997.885	331.77
998.245	273.26
998.606	294.32
998.966	261.55
999.327	322.41
999.687	336.45
1000.047	329.43
1000.408	284.96
1000.768	352.84
1001.128	373.9
1001.488	371.56
1001.848	282.62
1002.208	336.45
1002.568	270.92
1002.927	315.39
1003.287	308.37
1003.647	348.15
1004.007	301.34
1004.366	324.75
1004.726	327.09
1005.085	291.98
1005.444	249.85
1005.804	310.71
1006.163	313.05
1006.522	310.71
1006.881	371.56
1007.24	284.96
1007.599	334.11
1007.958	308.37
1008.317	301.34
1008.676	228.79
1009.035	317.73
1009.393	373.9
1009.752	315.39
1010.111	291.98
1010.469	266.24
1010.828	352.84
1011.186	291.98
1011.544	308.37
1011.903	296.66
1012.261	322.41
1012.619	289.64
1012.977	329.43
1013.335	320.07
1013.693	289.64
1014.051	247.51
1014.409	306.03
1014.767	277.94
1015.124	263.9
1015.482	306.03
1015.84	294.32
1016.197	369.22
1016.555	373.9
1016.912	320.07
1017.269	364.54
1017.627	364.54
1017.984	289.64
1018.341	334.11
1018.698	310.71
1019.055	291.98
1019.412	352.84
1019.769	338.79
1020.126	294.32
1020.483	329.43
1020.84	277.94
1021.196	397.31
1021.553	263.9
1021.909	322.41
1022.266	296.66
1022.622	313.05
1022.979	341.13
1023.335	338.79
1023.691	280.28
1024.047	294.32
1024.404	322.41
1024.76	303.68
1025.116	315.39
1025.472	320.07
1025.827	308.37
1026.183	294.32
1026.539	317.73
1026.895	317.73
1027.25	310.71
1027.606	357.52
1027.961	322.41
1028.317	296.66
1028.672	231.13
1029.028	282.62
1029.383	226.45
1029.738	336.45
1030.093	336.45
1030.448	322.41
1030.803	320.07
1031.158	324.75
1031.513	296.66
1031.868	273.26
1032.223	331.77
1032.577	334.11
1032.932	336.45
1033.287	313.05
1033.641	277.94
1033.996	327.09
1034.35	299
1034.704	282.62
1035.059	284.96
1035.413	270.92
1035.767	270.92
1036.121	270.92
