Data from Al_FLMS009871__633__14-49-13-112.txt Node

Date: Fri Mar 08 14:49:13 CST 2024
User: pe5414po
Spectrometer: FLMS00987
Trigger mode: 0
Integration Time (sec): 1.000000E-1
Scans to average: 1
Electric dark correction enabled: true
Nonlinearity correction enabled: false
Boxcar width: 0
XAxis mode: Wavelengths
Number of Pixels in Spectrum: 2048
>>>>>Begin Spectral Data<<<<<
188.938	-92.74
189.409	-92.74
189.879	-92.74
190.349	-151.26
190.819	-104.45
191.29	-81.04
191.76	-125.51
192.23	-64.66
192.7	-48.27
193.17	-85.72
193.64	-102.11
194.109	-74.02
194.579	-29.55
195.049	3.22
195.519	31.3
195.988	35.99
196.458	148.33
196.927	96.84
197.397	66.41
197.866	117.9
198.336	110.88
198.805	153.01
199.274	178.76
199.744	213.87
200.213	206.84
200.682	171.74
201.151	216.21
201.62	227.91
202.089	251.32
202.558	246.63
203.027	272.38
203.495	251.32
203.964	286.42
204.433	330.89
204.902	323.87
205.37	298.13
205.839	335.57
206.307	286.42
206.776	366
207.244	323.87
207.712	312.17
208.181	316.85
208.649	337.91
209.117	316.85
209.585	244.29
210.053	305.15
210.521	251.32
210.989	279.4
211.457	284.08
211.925	316.85
212.393	356.64
212.861	307.49
213.328	316.85
213.796	277.06
214.264	321.53
214.731	279.4
215.199	373.02
215.666	251.32
216.133	272.38
216.601	267.7
217.068	321.53
217.535	344.94
218.003	265.36
218.47	302.81
218.937	263.02
219.404	272.38
219.871	274.72
220.338	206.84
220.805	277.06
221.271	284.08
221.738	227.91
222.205	220.89
222.671	284.08
223.138	281.74
223.605	258.34
224.071	291.1
224.538	291.1
225.004	277.06
225.47	204.5
225.937	291.1
226.403	265.36
226.869	326.21
227.335	272.38
227.801	321.53
228.267	237.27
228.733	239.61
229.199	227.91
229.665	241.95
230.131	370.68
230.597	305.15
231.062	309.83
231.528	286.42
231.994	260.68
232.459	267.7
232.925	277.06
233.39	241.95
233.856	323.87
234.321	307.49
234.786	314.51
235.252	305.15
235.717	312.17
236.182	277.06
236.647	256
237.112	295.79
237.577	286.42
238.042	314.51
238.507	263.02
238.972	300.47
239.436	267.7
239.901	272.38
240.366	305.15
240.83	190.46
241.295	256
241.76	351.96
242.224	307.49
242.688	300.47
243.153	342.6
243.617	351.96
244.081	286.42
244.545	279.4
245.01	241.95
245.474	333.23
245.938	337.91
246.402	295.79
246.866	274.72
247.33	246.63
247.793	351.96
248.257	274.72
248.721	272.38
249.185	263.02
249.648	239.61
250.112	305.15
250.575	281.74
251.039	284.08
251.502	279.4
251.965	286.42
252.429	281.74
252.892	326.21
253.355	333.23
253.818	335.57
254.281	197.48
254.744	307.49
255.207	241.95
255.67	295.79
256.133	284.08
256.596	270.04
257.059	312.17
257.522	316.85
257.984	333.23
258.447	314.51
258.909	307.49
259.372	319.19
259.834	321.53
260.297	234.93
260.759	277.06
261.221	284.08
261.684	232.59
262.146	337.91
262.608	316.85
263.07	202.16
263.532	267.7
263.994	246.63
264.456	377.7
264.918	288.76
265.38	305.15
265.842	347.28
266.303	234.93
266.765	333.23
267.227	340.26
267.688	366
268.15	298.13
268.611	321.53
269.072	305.15
269.534	300.47
269.995	284.08
270.456	340.26
270.918	291.1
271.379	323.87
271.84	246.63
272.301	272.38
272.762	347.28
273.223	363.66
273.684	234.93
274.144	291.1
274.605	256
275.066	288.76
275.527	312.17
275.987	279.4
276.448	265.36
276.908	305.15
277.369	298.13
277.829	248.97
278.289	307.49
278.75	342.6
279.21	366
279.67	321.53
280.13	370.68
280.59	312.17
281.05	314.51
281.51	284.08
281.97	314.51
282.43	295.79
282.89	300.47
283.35	319.19
283.809	286.42
284.269	295.79
284.729	328.55
285.188	312.17
285.648	279.4
286.107	309.83
286.567	263.02
287.026	368.34
287.485	305.15
287.944	340.26
288.404	344.94
288.863	382.39
289.322	272.38
289.781	337.91
290.24	323.87
290.699	344.94
291.158	358.98
291.616	284.08
292.075	377.7
292.534	361.32
292.992	232.59
293.451	253.66
293.91	286.42
294.368	347.28
294.827	323.87
295.285	330.89
295.743	288.76
296.202	314.51
296.66	335.57
297.118	347.28
297.576	309.83
298.034	288.76
298.492	272.38
298.95	307.49
299.408	279.4
299.866	293.44
300.324	260.68
300.781	368.34
301.239	326.21
301.697	302.81
302.154	319.19
302.612	330.89
303.069	291.1
303.527	326.21
303.984	314.51
304.441	302.81
304.899	347.28
305.356	265.36
305.813	330.89
306.27	277.06
306.727	337.91
307.184	330.89
307.641	319.19
308.098	286.42
308.555	323.87
309.012	274.72
309.468	314.51
309.925	316.85
310.382	342.6
310.838	300.47
311.295	281.74
311.751	356.64
312.208	288.76
312.664	281.74
313.12	298.13
313.577	387.07
314.033	293.44
314.489	307.49
314.945	321.53
315.401	265.36
315.857	361.32
316.313	337.91
316.769	241.95
317.225	239.61
317.681	281.74
318.136	300.47
318.592	237.27
319.048	354.3
319.503	342.6
319.959	298.13
320.414	330.89
320.869	291.1
321.325	274.72
321.78	300.47
322.235	349.62
322.691	314.51
323.146	312.17
323.601	281.74
324.056	335.57
324.511	333.23
324.966	305.15
325.421	267.7
325.875	298.13
326.33	344.94
326.785	337.91
327.24	370.68
327.694	305.15
328.149	274.72
328.603	321.53
329.058	227.91
329.512	309.83
329.966	366
330.421	300.47
330.875	300.47
331.329	309.83
331.783	335.57
332.237	279.4
332.691	284.08
333.145	270.04
333.599	344.94
334.053	354.3
334.507	256
334.96	328.55
335.414	307.49
335.868	316.85
336.321	316.85
336.775	394.09
337.228	316.85
337.682	288.76
338.135	316.85
338.588	321.53
339.042	293.44
339.495	307.49
339.948	298.13
340.401	307.49
340.854	323.87
341.307	361.32
341.76	302.81
342.213	302.81
342.666	344.94
343.119	333.23
343.571	342.6
344.024	347.28
344.477	356.64
344.929	340.26
345.382	305.15
345.834	309.83
346.287	265.36
346.739	349.62
347.191	305.15
347.644	323.87
348.096	330.89
348.548	281.74
349	328.55
349.452	417.49
349.904	272.38
350.356	291.1
350.808	335.57
351.26	307.49
351.711	309.83
352.163	330.89
352.615	344.94
353.066	302.81
353.518	293.44
353.969	358.98
354.421	263.02
354.872	265.36
355.324	347.28
355.775	277.06
356.226	351.96
356.677	302.81
357.128	319.19
357.579	265.36
358.03	361.32
358.481	347.28
358.932	319.19
359.383	321.53
359.834	295.79
360.285	370.68
360.735	316.85
361.186	330.89
361.637	305.15
362.087	309.83
362.538	361.32
362.988	307.49
363.438	323.87
363.889	366
364.339	326.21
364.789	305.15
365.239	270.04
365.689	309.83
366.139	321.53
366.589	344.94
367.039	272.38
367.489	256
367.939	274.72
368.389	342.6
368.839	354.3
369.288	312.17
369.738	281.74
370.187	281.74
370.637	337.91
371.086	312.17
371.536	323.87
371.985	284.08
372.434	293.44
372.884	316.85
373.333	291.1
373.782	309.83
374.231	333.23
374.68	305.15
375.129	321.53
375.578	358.98
376.027	274.72
376.475	305.15
376.924	258.34
377.373	351.96
377.822	281.74
378.27	319.19
378.719	328.55
379.167	342.6
379.616	263.02
380.064	358.98
380.512	344.94
380.961	382.39
381.409	356.64
381.857	354.3
382.305	277.06
382.753	307.49
383.201	335.57
383.649	344.94
384.097	307.49
384.545	347.28
384.992	298.13
385.44	349.62
385.888	321.53
386.335	340.26
386.783	330.89
387.231	321.53
387.678	328.55
388.125	394.09
388.573	328.55
389.02	300.47
389.467	277.06
389.914	307.49
390.362	298.13
390.809	256
391.256	279.4
391.703	277.06
392.15	270.04
392.596	349.62
393.043	277.06
393.49	307.49
393.937	258.34
394.383	284.08
394.83	277.06
395.276	319.19
395.723	326.21
396.169	300.47
396.616	314.51
397.062	314.51
397.508	307.49
397.954	279.4
398.401	279.4
398.847	370.68
399.293	291.1
399.739	321.53
400.185	312.17
400.631	349.62
401.076	323.87
401.522	279.4
401.968	291.1
402.414	234.93
402.859	295.79
403.305	333.23
403.75	302.81
404.196	256
404.641	354.3
405.086	366
405.532	319.19
405.977	328.55
406.422	281.74
406.867	316.85
407.312	321.53
407.757	307.49
408.202	373.02
408.647	363.66
409.092	340.26
409.537	319.19
409.982	358.98
410.426	354.3
410.871	302.81
411.316	337.91
411.76	344.94
412.205	366
412.649	316.85
413.093	375.36
413.538	354.3
413.982	256
414.426	288.76
414.87	344.94
415.314	335.57
415.758	256
416.202	295.79
416.646	265.36
417.09	270.04
417.534	433.88
417.978	314.51
418.421	375.36
418.865	375.36
419.309	321.53
419.752	328.55
420.196	309.83
420.639	307.49
421.083	251.32
421.526	286.42
421.969	307.49
422.412	302.81
422.856	293.44
423.299	274.72
423.742	422.17
424.185	330.89
424.628	351.96
425.071	281.74
425.513	366
425.956	316.85
426.399	328.55
426.842	347.28
427.284	302.81
427.727	330.89
428.169	340.26
428.612	298.13
429.054	293.44
429.497	305.15
429.939	305.15
430.381	347.28
430.823	377.7
431.265	309.83
431.707	380.04
432.149	440.9
432.591	302.81
433.033	272.38
433.475	260.68
433.917	305.15
434.359	312.17
434.8	342.6
435.242	363.66
435.684	344.94
436.125	361.32
436.567	305.15
437.008	347.28
437.449	335.57
437.891	335.57
438.332	337.91
438.773	305.15
439.214	293.44
439.656	344.94
440.097	307.49
440.538	340.26
440.978	291.1
441.419	403.45
441.86	326.21
442.301	410.47
442.742	356.64
443.182	312.17
443.623	293.44
444.063	354.3
444.504	316.85
444.944	335.57
445.385	300.47
445.825	314.51
446.265	373.02
446.706	358.98
447.146	307.49
447.586	326.21
448.026	370.68
448.466	344.94
448.906	347.28
449.346	302.81
449.786	307.49
450.225	333.23
450.665	330.89
451.105	312.17
451.544	403.45
451.984	387.07
452.424	351.96
452.863	337.91
453.302	291.1
453.742	293.44
454.181	309.83
454.62	309.83
455.059	293.44
455.499	307.49
455.938	267.7
456.377	279.4
456.816	326.21
457.254	258.34
457.693	358.98
458.132	351.96
458.571	284.08
459.01	330.89
459.448	305.15
459.887	319.19
460.325	351.96
460.764	347.28
461.202	309.83
461.641	361.32
462.079	368.34
462.517	314.51
462.955	373.02
463.393	368.34
463.832	323.87
464.27	389.41
464.708	342.6
465.145	340.26
465.583	356.64
466.021	375.36
466.459	361.32
466.897	389.41
467.334	263.02
467.772	326.21
468.209	321.53
468.647	342.6
469.084	342.6
469.522	354.3
469.959	368.34
470.396	281.74
470.833	323.87
471.271	314.51
471.708	326.21
472.145	319.19
472.582	307.49
473.019	248.97
473.456	295.79
473.892	288.76
474.329	237.27
474.766	302.81
475.202	347.28
475.639	375.36
476.076	330.89
476.512	319.19
476.949	370.68
477.385	373.02
477.821	274.72
478.258	300.47
478.694	326.21
479.13	328.55
479.566	302.81
480.002	281.74
480.438	316.85
480.874	340.26
481.31	387.07
481.746	291.1
482.181	335.57
482.617	354.3
483.053	337.91
483.488	351.96
483.924	368.34
484.36	302.81
484.795	321.53
485.23	316.85
485.666	351.96
486.101	305.15
486.536	319.19
486.971	253.66
487.407	344.94
487.842	281.74
488.277	258.34
488.712	335.57
489.146	363.66
489.581	293.44
490.016	330.89
490.451	342.6
490.885	335.57
491.32	321.53
491.755	384.73
492.189	309.83
492.624	342.6
493.058	316.85
493.492	319.19
493.927	401.11
494.361	405.79
494.795	291.1
495.229	265.36
495.663	368.34
496.097	293.44
496.531	347.28
496.965	307.49
497.399	323.87
497.833	337.91
498.266	314.51
498.7	330.89
499.134	293.44
499.567	309.83
500.001	382.39
500.434	319.19
500.868	351.96
501.301	300.47
501.734	293.44
502.168	321.53
502.601	302.81
503.034	323.87
503.467	335.57
503.9	337.91
504.333	305.15
504.766	384.73
505.199	342.6
505.632	316.85
506.064	307.49
506.497	384.73
506.93	377.7
507.362	267.7
507.795	298.13
508.227	302.81
508.66	335.57
509.092	356.64
509.524	291.1
509.956	316.85
510.389	328.55
510.821	312.17
511.253	288.76
511.685	302.81
512.117	316.85
512.549	387.07
512.981	300.47
513.412	260.68
513.844	305.15
514.276	321.53
514.707	328.55
515.139	307.49
515.571	330.89
516.002	375.36
516.433	337.91
516.865	363.66
517.296	293.44
517.727	286.42
518.159	335.57
518.59	349.62
519.021	251.32
519.452	286.42
519.883	333.23
520.314	344.94
520.744	286.42
521.175	373.02
521.606	347.28
522.037	300.47
522.467	363.66
522.898	295.79
523.328	246.63
523.759	382.39
524.189	321.53
524.62	232.59
525.05	295.79
525.48	277.06
525.91	330.89
526.341	319.19
526.771	270.04
527.201	422.17
527.631	323.87
528.061	267.7
528.49	363.66
528.92	326.21
529.35	284.08
529.78	286.42
530.209	248.97
530.639	316.85
531.068	274.72
531.498	328.55
531.927	323.87
532.357	291.1
532.786	288.76
533.215	323.87
533.644	340.26
534.074	394.09
534.503	307.49
534.932	312.17
535.361	337.91
535.79	347.28
536.218	326.21
536.647	307.49
537.076	300.47
537.505	344.94
537.933	274.72
538.362	335.57
538.79	293.44
539.219	298.13
539.647	373.02
540.076	309.83
540.504	368.34
540.932	309.83
541.36	316.85
541.788	270.04
542.217	293.44
542.645	342.6
543.073	335.57
543.5	340.26
543.928	326.21
544.356	370.68
544.784	277.06
545.211	312.17
545.639	337.91
546.067	330.89
546.494	351.96
546.922	323.87
547.349	319.19
547.776	209.19
548.204	328.55
548.631	300.47
549.058	351.96
549.485	316.85
549.912	394.09
550.339	293.44
550.766	340.26
551.193	356.64
551.62	354.3
552.047	344.94
552.474	286.42
552.9	305.15
553.327	316.85
553.754	298.13
554.18	330.89
554.607	375.36
555.033	347.28
555.459	274.72
555.886	340.26
556.312	300.47
556.738	354.3
557.164	330.89
557.59	337.91
558.016	389.41
558.442	330.89
558.868	330.89
559.294	323.87
559.72	312.17
560.145	328.55
560.571	305.15
560.997	347.28
561.422	253.66
561.848	300.47
562.273	335.57
562.699	351.96
563.124	344.94
563.549	293.44
563.974	293.44
564.4	377.7
564.825	314.51
565.25	344.94
565.675	333.23
566.1	281.74
566.525	323.87
566.95	342.6
567.374	298.13
567.799	286.42
568.224	298.13
568.648	333.23
569.073	314.51
569.497	307.49
569.922	267.7
570.346	288.76
570.771	314.51
571.195	281.74
571.619	312.17
572.043	337.91
572.467	321.53
572.891	272.38
573.315	284.08
573.739	309.83
574.163	312.17
574.587	291.1
575.011	312.17
575.435	263.02
575.858	382.39
576.282	286.42
576.705	312.17
577.129	380.04
577.552	298.13
577.976	279.4
578.399	314.51
578.822	342.6
579.245	351.96
579.669	279.4
580.092	335.57
580.515	300.47
580.938	356.64
581.361	281.74
581.784	344.94
582.206	344.94
582.629	288.76
583.052	354.3
583.474	288.76
583.897	335.57
584.32	354.3
584.742	344.94
585.165	340.26
585.587	312.17
586.009	288.76
586.431	241.95
586.854	354.3
587.276	291.1
587.698	342.6
588.12	307.49
588.542	288.76
588.964	354.3
589.386	391.75
589.807	319.19
590.229	368.34
590.651	340.26
591.073	284.08
591.494	302.81
591.916	312.17
592.337	305.15
592.759	258.34
593.18	351.96
593.601	361.32
594.022	314.51
594.444	291.1
594.865	356.64
595.286	314.51
595.707	319.19
596.128	309.83
596.549	330.89
596.97	363.66
597.39	295.79
597.811	368.34
598.232	354.3
598.652	370.68
599.073	368.34
599.494	319.19
599.914	337.91
600.334	316.85
600.755	342.6
601.175	295.79
601.595	321.53
602.015	274.72
602.436	293.44
602.856	492.39
603.276	333.23
603.696	291.1
604.115	263.02
604.535	277.06
604.955	380.04
605.375	314.51
605.794	265.36
606.214	349.62
606.634	319.19
607.053	295.79
607.473	370.68
607.892	342.6
608.311	295.79
608.731	321.53
609.15	319.19
609.569	356.64
609.988	366
610.407	375.36
610.826	291.1
611.245	349.62
611.664	265.36
612.083	321.53
612.501	340.26
612.92	344.94
613.339	328.55
613.757	305.15
614.176	281.74
614.594	309.83
615.013	330.89
615.431	312.17
615.85	328.55
616.268	330.89
616.686	396.43
617.104	263.02
617.522	361.32
617.94	330.89
618.358	291.1
618.776	281.74
619.194	316.85
619.612	305.15
620.03	314.51
620.447	260.68
620.865	288.76
621.282	354.3
621.7	380.04
622.117	309.83
622.535	251.32
622.952	377.7
623.369	237.27
623.787	323.87
624.204	368.34
624.621	316.85
625.038	333.23
625.455	295.79
625.872	277.06
626.289	351.96
626.706	312.17
627.123	248.97
627.539	351.96
627.956	375.36
628.373	347.28
628.789	347.28
629.206	328.55
629.622	342.6
630.038	419.83
630.455	307.49
630.871	335.57
631.287	246.63
631.703	333.23
632.12	340.26
632.536	307.49
632.952	363.66
633.368	267.7
633.783	347.28
634.199	314.51
634.615	256
635.031	363.66
635.446	286.42
635.862	312.17
636.277	333.23
636.693	305.15
637.108	298.13
637.524	375.36
637.939	309.83
638.354	314.51
638.77	291.1
639.185	330.89
639.6	377.7
640.015	288.76
640.43	319.19
640.845	260.68
641.259	291.1
641.674	356.64
642.089	363.66
642.504	396.43
642.918	284.08
643.333	316.85
643.747	330.89
644.162	349.62
644.576	351.96
644.991	305.15
645.405	279.4
645.819	314.51
646.233	309.83
646.647	375.36
647.061	337.91
647.475	316.85
647.889	333.23
648.303	316.85
648.717	349.62
649.131	256
649.545	335.57
649.958	356.64
650.372	302.81
650.785	333.23
651.199	361.32
651.612	354.3
652.026	344.94
652.439	333.23
652.852	333.23
653.266	323.87
653.679	344.94
654.092	340.26
654.505	366
654.918	333.23
655.331	356.64
655.744	265.36
656.156	309.83
656.569	284.08
656.982	328.55
657.394	349.62
657.807	347.28
658.22	349.62
658.632	295.79
659.044	298.13
659.457	380.04
659.869	335.57
660.281	300.47
660.693	319.19
661.106	354.3
661.518	314.51
661.93	316.85
662.342	344.94
662.754	298.13
663.165	302.81
663.577	309.83
663.989	335.57
664.401	298.13
664.812	344.94
665.224	281.74
665.635	354.3
666.047	298.13
666.458	344.94
666.869	363.66
667.281	288.76
667.692	340.26
668.103	256
668.514	227.91
668.925	279.4
669.336	349.62
669.747	319.19
670.158	286.42
670.569	263.02
670.979	274.72
671.39	314.51
671.801	354.3
672.211	347.28
672.622	321.53
673.032	286.42
673.443	272.38
673.853	302.81
674.263	340.26
674.674	361.32
675.084	323.87
675.494	321.53
675.904	314.51
676.314	314.51
676.724	309.83
677.134	281.74
677.544	347.28
677.953	356.64
678.363	333.23
678.773	335.57
679.182	344.94
679.592	354.3
680.001	344.94
680.411	305.15
680.82	284.08
681.23	344.94
681.639	349.62
682.048	307.49
682.457	370.68
682.866	305.15
683.275	265.36
683.684	300.47
684.093	302.81
684.502	305.15
684.911	351.96
685.32	314.51
685.728	354.3
686.137	366
686.546	328.55
686.954	295.79
687.363	281.74
687.771	330.89
688.179	330.89
688.588	326.21
688.996	323.87
689.404	316.85
689.812	319.19
690.22	305.15
690.628	302.81
691.036	281.74
691.444	335.57
691.852	330.89
692.26	291.1
692.667	300.47
693.075	349.62
693.483	284.08
693.89	347.28
694.298	321.53
694.705	382.39
695.112	328.55
695.52	366
695.927	344.94
696.334	333.23
696.741	326.21
697.148	321.53
697.555	293.44
697.962	349.62
698.369	347.28
698.776	349.62
699.183	295.79
699.59	356.64
699.996	323.87
700.403	307.49
700.81	398.77
701.216	342.6
701.623	284.08
702.029	361.32
702.435	288.76
702.842	323.87
703.248	380.04
703.654	366
704.06	267.7
704.466	326.21
704.872	333.23
705.278	394.09
705.684	284.08
706.09	291.1
706.496	293.44
706.901	347.28
707.307	382.39
707.712	342.6
708.118	274.72
708.523	286.42
708.929	368.34
709.334	298.13
709.74	300.47
710.145	277.06
710.55	384.73
710.955	333.23
711.36	373.02
711.765	321.53
712.17	342.6
712.575	330.89
712.98	857.51
713.385	344.94
713.789	328.55
714.194	309.83
714.599	356.64
715.003	263.02
715.408	288.76
715.812	298.13
716.217	321.53
716.621	321.53
717.025	288.76
717.429	316.85
717.833	368.34
718.238	300.47
718.642	337.91
719.046	368.34
719.449	302.81
719.853	328.55
720.257	344.94
720.661	260.68
721.065	333.23
721.468	309.83
721.872	293.44
722.275	316.85
722.679	344.94
723.082	384.73
723.485	274.72
723.889	323.87
724.292	321.53
724.695	265.36
725.098	335.57
725.501	337.91
725.904	342.6
726.307	384.73
726.71	295.79
727.113	312.17
727.516	265.36
727.918	342.6
728.321	298.13
728.724	323.87
729.126	347.28
729.529	291.1
729.931	291.1
730.333	321.53
730.736	291.1
731.138	335.57
731.54	340.26
731.942	298.13
732.344	272.38
732.746	316.85
733.148	363.66
733.55	361.32
733.952	363.66
734.354	326.21
734.756	312.17
735.157	312.17
735.559	328.55
735.96	330.89
736.362	326.21
736.763	361.32
737.165	300.47
737.566	312.17
737.967	366
738.368	340.26
738.77	309.83
739.171	335.57
739.572	342.6
739.973	321.53
740.374	323.87
740.774	274.72
741.175	330.89
741.576	309.83
741.977	295.79
742.377	309.83
742.778	351.96
743.178	286.42
743.579	340.26
743.979	366
744.379	321.53
744.78	333.23
745.18	347.28
745.58	356.64
745.98	307.49
746.38	291.1
746.78	272.38
747.18	251.32
747.58	363.66
747.98	312.17
748.38	349.62
748.779	344.94
749.179	316.85
749.578	358.98
749.978	351.96
750.377	356.64
750.777	330.89
751.176	326.21
751.575	309.83
751.975	351.96
752.374	316.85
752.773	291.1
753.172	377.7
753.571	368.34
753.97	361.32
754.369	344.94
754.768	363.66
755.166	342.6
755.565	361.32
755.964	351.96
756.362	368.34
756.761	316.85
757.159	300.47
757.558	323.87
757.956	328.55
758.354	295.79
758.753	316.85
759.151	312.17
759.549	370.68
759.947	326.21
760.345	314.51
760.743	302.81
761.141	351.96
761.539	323.87
761.936	330.89
762.334	319.19
762.732	356.64
763.129	328.55
763.527	253.66
763.924	351.96
764.322	260.68
764.719	326.21
765.117	321.53
765.514	354.3
765.911	337.91
766.308	312.17
766.705	358.98
767.102	337.91
767.499	354.3
767.896	344.94
768.293	333.23
768.69	351.96
769.086	284.08
769.483	265.36
769.88	288.76
770.276	258.34
770.673	370.68
771.069	347.28
771.466	450.26
771.862	391.75
772.258	295.79
772.654	281.74
773.05	302.81
773.447	293.44
773.843	415.15
774.239	314.51
774.634	312.17
775.03	323.87
775.426	328.55
775.822	361.32
776.218	375.36
776.613	328.55
777.009	375.36
777.404	401.11
777.8	281.74
778.195	368.34
778.59	391.75
778.986	265.36
779.381	293.44
779.776	302.81
780.171	281.74
780.566	326.21
780.961	337.91
781.356	380.04
781.751	366
782.146	293.44
782.54	326.21
782.935	293.44
783.33	323.87
783.724	330.89
784.119	300.47
784.513	284.08
784.908	309.83
785.302	305.15
785.696	337.91
786.09	358.98
786.485	277.06
786.879	316.85
787.273	286.42
787.667	316.85
788.061	323.87
788.454	366
788.848	326.21
789.242	300.47
789.636	279.4
790.029	347.28
790.423	349.62
790.816	363.66
791.21	373.02
791.603	316.85
791.997	312.17
792.39	337.91
792.783	316.85
793.176	227.91
793.569	391.75
793.962	356.64
794.355	288.76
794.748	354.3
795.141	361.32
795.534	312.17
795.927	358.98
796.319	307.49
796.712	335.57
797.105	300.47
797.497	323.87
797.89	272.38
798.282	312.17
798.674	330.89
799.067	316.85
799.459	342.6
799.851	293.44
800.243	337.91
800.635	309.83
801.027	302.81
801.419	361.32
801.811	333.23
802.203	312.17
802.594	256
802.986	300.47
803.378	323.87
803.769	309.83
804.161	300.47
804.552	263.02
804.944	298.13
805.335	234.93
805.726	326.21
806.118	270.04
806.509	387.07
806.9	298.13
807.291	321.53
807.682	265.36
808.073	321.53
808.464	295.79
808.855	302.81
809.245	319.19
809.636	295.79
810.027	375.36
810.417	337.91
810.808	323.87
811.198	284.08
811.589	356.64
811.979	358.98
812.369	307.49
812.759	295.79
813.15	328.55
813.54	284.08
813.93	314.51
814.32	284.08
814.71	323.87
815.1	335.57
815.489	342.6
815.879	412.81
816.269	314.51
816.658	319.19
817.048	312.17
817.438	342.6
817.827	307.49
818.216	333.23
818.606	307.49
818.995	389.41
819.384	323.87
819.773	307.49
820.163	342.6
820.552	330.89
820.941	319.19
821.33	328.55
821.718	344.94
822.107	319.19
822.496	314.51
822.885	288.76
823.273	368.34
823.662	326.21
824.05	274.72
824.439	337.91
824.827	307.49
825.216	328.55
825.604	326.21
825.992	342.6
826.38	312.17
826.768	284.08
827.156	344.94
827.544	335.57
827.932	398.77
828.32	305.15
828.708	305.15
829.096	284.08
829.483	330.89
829.871	263.02
830.259	337.91
830.646	361.32
831.034	281.74
831.421	351.96
831.808	316.85
832.196	251.32
832.583	328.55
832.97	298.13
833.357	333.23
833.744	335.57
834.131	284.08
834.518	260.68
834.905	307.49
835.292	300.47
835.678	326.21
836.065	328.55
836.452	330.89
836.838	307.49
837.225	344.94
837.611	349.62
837.998	302.81
838.384	319.19
838.77	298.13
839.157	312.17
839.543	295.79
839.929	337.91
840.315	326.21
840.701	293.44
841.087	375.36
841.473	323.87
841.858	335.57
842.244	349.62
842.63	291.1
843.015	288.76
843.401	614.1
843.787	298.13
844.172	361.32
844.557	302.81
844.943	316.85
845.328	323.87
845.713	302.81
846.098	351.96
846.483	309.83
846.868	368.34
847.253	337.91
847.638	286.42
848.023	300.47
848.408	358.98
848.793	375.36
849.177	312.17
849.562	342.6
849.947	354.3
850.331	291.1
850.715	326.21
851.1	337.91
851.484	295.79
851.868	293.44
852.253	284.08
852.637	307.49
853.021	293.44
853.405	333.23
853.789	380.04
854.173	323.87
854.557	354.3
854.94	337.91
855.324	314.51
855.708	309.83
856.091	337.91
856.475	288.76
856.858	363.66
857.242	328.55
857.625	279.4
858.009	293.44
858.392	302.81
858.775	354.3
859.158	354.3
859.541	312.17
859.924	384.73
860.307	366
860.69	298.13
861.073	363.66
861.456	370.68
861.838	330.89
862.221	316.85
862.604	293.44
862.986	382.39
863.369	319.19
863.751	426.86
864.133	293.44
864.516	351.96
864.898	270.04
865.28	377.7
865.662	267.7
866.044	333.23
866.426	366
866.808	288.76
867.19	323.87
867.572	356.64
867.954	286.42
868.336	274.72
868.717	340.26
869.099	281.74
869.48	358.98
869.862	328.55
870.243	347.28
870.625	361.32
871.006	321.53
871.387	356.64
871.768	396.43
872.149	368.34
872.53	319.19
872.911	281.74
873.292	270.04
873.673	323.87
874.054	295.79
874.435	344.94
874.815	279.4
875.196	307.49
875.577	342.6
875.957	333.23
876.338	335.57
876.718	330.89
877.098	316.85
877.479	281.74
877.859	305.15
878.239	316.85
878.619	314.51
878.999	340.26
879.379	373.02
879.759	333.23
880.139	377.7
880.519	323.87
880.898	323.87
881.278	373.02
881.658	291.1
882.037	337.91
882.417	337.91
882.796	314.51
883.176	335.57
883.555	326.21
883.934	316.85
884.313	419.83
884.693	342.6
885.072	349.62
885.451	373.02
885.83	293.44
886.209	274.72
886.587	277.06
886.966	337.91
887.345	302.81
887.724	370.68
888.102	314.51
888.481	286.42
888.859	298.13
889.238	351.96
889.616	366
889.994	309.83
890.373	337.91
890.751	293.44
891.129	356.64
891.507	302.81
891.885	274.72
892.263	335.57
892.641	342.6
893.019	326.21
893.396	328.55
893.774	323.87
894.152	321.53
894.529	361.32
894.907	260.68
895.284	373.02
895.662	239.61
896.039	333.23
896.416	328.55
896.794	293.44
897.171	316.85
897.548	323.87
897.925	328.55
898.302	349.62
898.679	384.73
899.056	316.85
899.433	286.42
899.809	382.39
900.186	342.6
900.563	302.81
900.939	284.08
901.316	375.36
901.692	302.81
902.069	314.51
902.445	328.55
902.821	300.47
903.197	354.3
903.574	366
903.95	305.15
904.326	298.13
904.702	349.62
905.078	368.34
905.454	316.85
905.829	337.91
906.205	204.5
906.581	281.74
906.956	356.64
907.332	340.26
907.707	321.53
908.083	349.62
908.458	354.3
908.833	321.53
909.209	309.83
909.584	309.83
909.959	351.96
910.334	330.89
910.709	295.79
911.084	344.94
911.459	251.32
911.834	380.04
912.209	328.55
912.583	314.51
912.958	204.5
913.333	387.07
913.707	314.51
914.082	344.94
914.456	319.19
914.83	358.98
915.205	323.87
915.579	300.47
915.953	316.85
916.327	316.85
916.701	300.47
917.075	323.87
917.449	307.49
917.823	330.89
918.197	340.26
918.571	335.57
918.944	309.83
919.318	326.21
919.692	347.28
920.065	426.86
920.438	321.53
920.812	373.02
921.185	316.85
921.558	279.4
921.932	258.34
922.305	286.42
922.678	307.49
923.051	358.98
923.424	326.21
923.797	380.04
924.17	272.38
924.542	344.94
924.915	295.79
925.288	344.94
925.661	258.34
926.033	279.4
926.406	340.26
926.778	305.15
927.15	354.3
927.523	309.83
927.895	312.17
928.267	347.28
928.639	319.19
929.011	312.17
929.383	270.04
929.755	309.83
930.127	298.13
930.499	307.49
930.871	277.06
931.242	340.26
931.614	279.4
931.986	288.76
932.357	288.76
932.729	323.87
933.1	305.15
933.471	321.53
933.843	344.94
934.214	260.68
934.585	347.28
934.956	258.34
935.327	258.34
935.698	354.3
936.069	265.36
936.44	349.62
936.811	277.06
937.182	323.87
937.552	340.26
937.923	295.79
938.293	319.19
938.664	380.04
939.034	281.74
939.405	300.47
939.775	323.87
940.145	382.39
940.516	253.66
940.886	344.94
941.256	307.49
941.626	253.66
941.996	279.4
942.366	326.21
942.735	298.13
943.105	307.49
943.475	344.94
943.845	330.89
944.214	293.44
944.584	293.44
944.953	344.94
945.323	302.81
945.692	277.06
946.061	333.23
946.43	309.83
946.8	349.62
947.169	347.28
947.538	351.96
947.907	267.7
948.276	321.53
948.645	305.15
949.013	316.85
949.382	314.51
949.751	361.32
950.119	314.51
950.488	323.87
950.857	312.17
951.225	342.6
951.593	333.23
951.962	309.83
952.33	281.74
952.698	272.38
953.066	366
953.434	351.96
953.802	358.98
954.17	298.13
954.538	382.39
954.906	265.36
955.274	309.83
955.642	394.09
956.009	321.53
956.377	307.49
956.744	361.32
957.112	326.21
957.479	312.17
957.847	333.23
958.214	344.94
958.581	314.51
958.948	368.34
959.315	342.6
959.683	361.32
960.05	307.49
960.416	300.47
960.783	300.47
961.15	333.23
961.517	328.55
961.884	326.21
962.25	377.7
962.617	298.13
962.983	295.79
963.35	387.07
963.716	368.34
964.082	286.42
964.449	265.36
964.815	309.83
965.181	375.36
965.547	319.19
965.913	314.51
966.279	239.61
966.645	312.17
967.011	284.08
967.377	354.3
967.742	370.68
968.108	337.91
968.474	347.28
968.839	309.83
969.205	335.57
969.57	323.87
969.935	321.53
970.301	312.17
970.666	293.44
971.031	335.57
971.396	333.23
971.761	337.91
972.126	351.96
972.491	295.79
972.856	288.76
973.221	281.74
973.586	279.4
973.95	356.64
974.315	366
974.679	354.3
975.044	349.62
975.408	307.49
975.773	330.89
976.137	316.85
976.501	293.44
976.866	319.19
977.23	284.08
977.594	319.19
977.958	316.85
978.322	337.91
978.686	321.53
979.049	328.55
979.413	321.53
979.777	326.21
980.141	335.57
980.504	314.51
980.868	321.53
981.231	300.47
981.595	373.02
981.958	293.44
982.321	370.68
982.684	295.79
983.048	326.21
983.411	302.81
983.774	337.91
984.137	347.28
984.5	281.74
984.862	307.49
985.225	347.28
985.588	307.49
985.951	312.17
986.313	326.21
986.676	307.49
987.038	349.62
987.401	288.76
987.763	319.19
988.125	274.72
988.488	256
988.85	309.83
989.212	293.44
989.574	335.57
989.936	380.04
990.298	309.83
990.66	298.13
991.022	403.45
991.383	265.36
991.745	384.73
992.107	321.53
992.468	288.76
992.83	312.17
993.191	295.79
993.553	302.81
993.914	347.28
994.275	312.17
994.637	277.06
994.998	295.79
995.359	277.06
995.72	284.08
996.081	286.42
996.442	384.73
996.803	295.79
997.163	323.87
997.524	337.91
997.885	347.28
998.245	344.94
998.606	389.41
998.966	281.74
999.327	326.21
999.687	293.44
1000.047	260.68
1000.408	319.19
1000.768	335.57
1001.128	321.53
1001.488	281.74
1001.848	363.66
1002.208	302.81
1002.568	330.89
1002.927	272.38
1003.287	330.89
1003.647	293.44
1004.007	342.6
1004.366	272.38
1004.726	321.53
1005.085	342.6
1005.444	361.32
1005.804	291.1
1006.163	270.04
1006.522	263.02
1006.881	342.6
1007.24	333.23
1007.599	330.89
1007.958	340.26
1008.317	358.98
1008.676	328.55
1009.035	337.91
1009.393	333.23
1009.752	267.7
1010.111	295.79
1010.469	335.57
1010.828	349.62
1011.186	351.96
1011.544	351.96
1011.903	366
1012.261	335.57
1012.619	267.7
1012.977	323.87
1013.335	300.47
1013.693	344.94
1014.051	373.02
1014.409	319.19
1014.767	356.64
1015.124	260.68
1015.482	288.76
1015.84	377.7
1016.197	368.34
1016.555	307.49
1016.912	335.57
1017.269	387.07
1017.627	366
1017.984	328.55
1018.341	382.39
1018.698	330.89
1019.055	323.87
1019.412	335.57
1019.769	288.76
1020.126	326.21
1020.483	267.7
1020.84	272.38
1021.196	265.36
1021.553	354.3
1021.909	307.49
1022.266	258.34
1022.622	284.08
1022.979	314.51
1023.335	321.53
1023.691	298.13
1024.047	272.38
1024.404	286.42
1024.76	300.47
1025.116	342.6
1025.472	302.81
1025.827	330.89
1026.183	291.1
1026.539	326.21
1026.895	309.83
1027.25	361.32
1027.606	328.55
1027.961	251.32
1028.317	316.85
1028.672	256
1029.028	291.1
1029.383	307.49
1029.738	312.17
1030.093	330.89
1030.448	356.64
1030.803	316.85
1031.158	349.62
1031.513	309.83
1031.868	309.83
1032.223	302.81
1032.577	312.17
1032.932	309.83
1033.287	387.07
1033.641	335.57
1033.996	337.91
1034.35	263.02
1034.704	288.76
1035.059	366
1035.413	302.81
1035.767	302.81
1036.121	302.81
