Data from Al_FLMS009871__621__14-49-11-912.txt Node

Date: Fri Mar 08 14:49:11 CST 2024
User: pe5414po
Spectrometer: FLMS00987
Trigger mode: 0
Integration Time (sec): 1.000000E-1
Scans to average: 1
Electric dark correction enabled: true
Nonlinearity correction enabled: false
Boxcar width: 0
XAxis mode: Wavelengths
Number of Pixels in Spectrum: 2048
>>>>>Begin Spectral Data<<<<<
188.938	-67.44
189.409	-67.44
189.879	-67.44
190.349	-83.82
190.819	-109.57
191.29	-65.1
191.76	-116.59
192.23	-116.59
192.7	-69.78
193.17	-90.84
193.64	-97.86
194.109	-58.07
194.579	40.23
195.049	-53.39
195.519	54.27
195.988	68.31
196.458	70.65
196.927	96.4
197.397	161.94
197.866	23.84
198.336	152.57
198.805	147.89
199.274	204.07
199.744	119.81
200.213	218.11
200.682	250.88
201.151	220.45
201.62	197.04
202.089	257.9
202.558	307.05
203.027	239.17
203.495	241.51
203.964	290.67
204.433	236.83
204.902	290.67
205.37	372.58
205.839	328.11
206.307	290.67
206.776	278.96
207.244	332.79
207.712	234.49
208.181	318.75
208.649	271.94
209.117	276.62
209.585	227.47
210.053	314.07
210.521	332.79
210.989	271.94
211.457	311.73
211.925	293.01
212.393	283.64
212.861	321.09
213.328	267.26
213.796	283.64
214.264	344.5
214.731	278.96
215.199	335.14
215.666	335.14
216.133	264.92
216.601	253.22
217.068	243.85
217.535	248.54
218.003	225.13
218.47	297.69
218.937	248.54
219.404	276.62
219.871	227.47
220.338	323.43
220.805	253.22
221.271	302.37
221.738	250.88
222.205	232.15
222.671	246.2
223.138	337.48
223.605	288.32
224.071	290.67
224.538	239.17
225.004	302.37
225.47	239.17
225.937	300.03
226.403	211.09
226.869	316.41
227.335	260.24
227.801	269.6
228.267	262.58
228.733	222.79
229.199	290.67
229.665	285.98
230.131	248.54
230.597	318.75
231.062	295.35
231.528	318.75
231.994	321.09
232.459	222.79
232.925	300.03
233.39	278.96
233.856	328.11
234.321	293.01
234.786	257.9
235.252	314.07
235.717	285.98
236.182	304.71
236.647	316.41
237.112	199.38
237.577	269.6
238.042	283.64
238.507	250.88
238.972	300.03
239.436	325.77
239.901	239.17
240.366	246.2
240.83	253.22
241.295	243.85
241.76	285.98
242.224	302.37
242.688	349.18
243.153	337.48
243.617	276.62
244.081	325.77
244.545	330.45
245.01	255.56
245.474	248.54
245.938	307.05
246.402	309.39
246.866	255.56
247.33	363.22
247.793	293.01
248.257	285.98
248.721	285.98
249.185	297.69
249.648	267.26
250.112	246.2
250.575	293.01
251.039	297.69
251.502	267.26
251.965	316.41
252.429	311.73
252.892	246.2
253.355	285.98
253.818	335.14
254.281	295.35
254.744	293.01
255.207	213.43
255.67	302.37
256.133	239.17
256.596	264.92
257.059	222.79
257.522	225.13
257.984	246.2
258.447	288.32
258.909	311.73
259.372	220.45
259.834	253.22
260.297	297.69
260.759	314.07
261.221	283.64
261.684	297.69
262.146	304.71
262.608	267.26
263.07	278.96
263.532	339.82
263.994	314.07
264.456	278.96
264.918	381.95
265.38	281.3
265.842	344.5
266.303	297.69
266.765	220.45
267.227	332.79
267.688	229.81
268.15	243.85
268.611	215.77
269.072	246.2
269.534	241.51
269.995	297.69
270.456	267.26
270.918	318.75
271.379	264.92
271.84	281.3
272.301	309.39
272.762	307.05
273.223	318.75
273.684	269.6
274.144	337.48
274.605	271.94
275.066	220.45
275.527	304.71
275.987	206.41
276.448	328.11
276.908	323.43
277.369	302.37
277.829	330.45
278.289	323.43
278.75	332.79
279.21	269.6
279.67	288.32
280.13	325.77
280.59	278.96
281.05	335.14
281.51	295.35
281.97	323.43
282.43	281.3
282.89	323.43
283.35	346.84
283.809	260.24
284.269	344.5
284.729	346.84
285.188	302.37
285.648	267.26
286.107	328.11
286.567	342.16
287.026	243.85
287.485	274.28
287.944	377.27
288.404	290.67
288.863	297.69
289.322	257.9
289.781	293.01
290.24	358.54
290.699	356.2
291.158	318.75
291.616	330.45
292.075	330.45
292.534	307.05
292.992	300.03
293.451	370.24
293.91	307.05
294.368	264.92
294.827	328.11
295.285	314.07
295.743	321.09
296.202	300.03
296.66	278.96
297.118	257.9
297.576	283.64
298.034	297.69
298.492	309.39
298.95	304.71
299.408	353.86
299.866	339.82
300.324	379.61
300.781	323.43
301.239	255.56
301.697	290.67
302.154	236.83
302.612	316.41
303.069	339.82
303.527	335.14
303.984	309.39
304.441	246.2
304.899	295.35
305.356	311.73
305.813	281.3
306.27	300.03
306.727	302.37
307.184	288.32
307.641	330.45
308.098	309.39
308.555	370.24
309.012	316.41
309.468	318.75
309.925	330.45
310.382	271.94
310.838	236.83
311.295	300.03
311.751	248.54
312.208	353.86
312.664	276.62
313.12	321.09
313.577	379.61
314.033	297.69
314.489	262.58
314.945	274.28
315.401	236.83
315.857	330.45
316.313	370.24
316.769	309.39
317.225	307.05
317.681	321.09
318.136	293.01
318.592	321.09
319.048	304.71
319.503	318.75
319.959	316.41
320.414	278.96
320.869	367.9
321.325	330.45
321.78	351.52
322.235	285.98
322.691	342.16
323.146	269.6
323.601	293.01
324.056	302.37
324.511	330.45
324.966	288.32
325.421	342.16
325.875	264.92
326.33	260.24
326.785	218.11
327.24	332.79
327.694	278.96
328.149	264.92
328.603	323.43
329.058	344.5
329.512	311.73
329.966	295.35
330.421	264.92
330.875	293.01
331.329	229.81
331.783	283.64
332.237	344.5
332.691	363.22
333.145	358.54
333.599	307.05
334.053	288.32
334.507	323.43
334.96	304.71
335.414	269.6
335.868	290.67
336.321	271.94
336.775	288.32
337.228	269.6
337.682	328.11
338.135	356.2
338.588	365.56
339.042	365.56
339.495	262.58
339.948	337.48
340.401	314.07
340.854	300.03
341.307	328.11
341.76	328.11
342.213	285.98
342.666	349.18
343.119	262.58
343.571	356.2
344.024	271.94
344.477	307.05
344.929	339.82
345.382	309.39
345.834	398.33
346.287	304.71
346.739	328.11
347.191	353.86
347.644	309.39
348.096	288.32
348.548	307.05
349	290.67
349.452	290.67
349.904	356.2
350.356	388.97
350.808	328.11
351.26	300.03
351.711	248.54
352.163	314.07
352.615	321.09
353.066	300.03
353.518	304.71
353.969	283.64
354.421	307.05
354.872	321.09
355.324	384.29
355.775	283.64
356.226	325.77
356.677	281.3
357.128	330.45
357.579	304.71
358.03	307.05
358.481	356.2
358.932	300.03
359.383	297.69
359.834	363.22
360.285	257.9
360.735	403.01
361.186	281.3
361.637	271.94
362.087	323.43
362.538	311.73
362.988	370.24
363.438	318.75
363.889	374.92
364.339	316.41
364.789	353.86
365.239	311.73
365.689	285.98
366.139	342.16
366.589	271.94
367.039	262.58
367.489	330.45
367.939	278.96
368.389	330.45
368.839	314.07
369.288	374.92
369.738	363.22
370.187	285.98
370.637	419.39
371.086	278.96
371.536	314.07
371.985	332.79
372.434	311.73
372.884	360.88
373.333	285.98
373.782	321.09
374.231	321.09
374.68	353.86
375.129	330.45
375.578	283.64
376.027	293.01
376.475	302.37
376.924	342.16
377.373	297.69
377.822	344.5
378.27	311.73
378.719	325.77
379.167	288.32
379.616	285.98
380.064	318.75
380.512	335.14
380.961	318.75
381.409	309.39
381.857	283.64
382.305	332.79
382.753	356.2
383.201	328.11
383.649	337.48
384.097	363.22
384.545	293.01
384.992	300.03
385.44	328.11
385.888	351.52
386.335	281.3
386.783	250.88
387.231	332.79
387.678	323.43
388.125	381.95
388.573	309.39
389.02	374.92
389.467	278.96
389.914	353.86
390.362	318.75
390.809	314.07
391.256	300.03
391.703	323.43
392.15	323.43
392.596	365.56
393.043	358.54
393.49	257.9
393.937	363.22
394.383	311.73
394.83	384.29
395.276	288.32
395.723	353.86
396.169	384.29
396.616	307.05
397.062	318.75
397.508	332.79
397.954	290.67
398.401	295.35
398.847	314.07
399.293	374.92
399.739	316.41
400.185	318.75
400.631	302.37
401.076	297.69
401.522	332.79
401.968	328.11
402.414	356.2
402.859	316.41
403.305	290.67
403.75	363.22
404.196	365.56
404.641	370.24
405.086	393.65
405.532	314.07
405.977	281.3
406.422	337.48
406.867	316.41
407.312	285.98
407.757	278.96
408.202	314.07
408.647	262.58
409.092	346.84
409.537	293.01
409.982	360.88
410.426	293.01
410.871	337.48
411.316	323.43
411.76	321.09
412.205	250.88
412.649	330.45
413.093	300.03
413.538	288.32
413.982	316.41
414.426	295.35
414.87	297.69
415.314	304.71
415.758	295.35
416.202	328.11
416.646	321.09
417.09	342.16
417.534	260.24
417.978	311.73
418.421	323.43
418.865	344.5
419.309	353.86
419.752	304.71
420.196	367.9
420.639	330.45
421.083	318.75
421.526	356.2
421.969	250.88
422.412	297.69
422.856	274.28
423.299	328.11
423.742	304.71
424.185	332.79
424.628	318.75
425.071	208.75
425.513	271.94
425.956	363.22
426.399	316.41
426.842	365.56
427.284	297.69
427.727	337.48
428.169	328.11
428.612	281.3
429.054	370.24
429.497	262.58
429.939	342.16
430.381	295.35
430.823	285.98
431.265	311.73
431.707	285.98
432.149	335.14
432.591	367.9
433.033	335.14
433.475	330.45
433.917	288.32
434.359	290.67
434.8	316.41
435.242	379.61
435.684	353.86
436.125	332.79
436.567	290.67
437.008	271.94
437.449	344.5
437.891	300.03
438.332	344.5
438.773	323.43
439.214	309.39
439.656	276.62
440.097	346.84
440.538	285.98
440.978	372.58
441.419	356.2
441.86	330.45
442.301	318.75
442.742	293.01
443.182	285.98
443.623	351.52
444.063	307.05
444.504	360.88
444.944	321.09
445.385	307.05
445.825	358.54
446.265	304.71
446.706	325.77
447.146	321.09
447.586	384.29
448.026	335.14
448.466	302.37
448.906	384.29
449.346	330.45
449.786	276.62
450.225	285.98
450.665	311.73
451.105	346.84
451.544	372.58
451.984	344.5
452.424	255.56
452.863	307.05
453.302	332.79
453.742	332.79
454.181	290.67
454.62	288.32
455.059	337.48
455.499	391.31
455.938	325.77
456.377	300.03
456.816	337.48
457.254	351.52
457.693	337.48
458.132	300.03
458.571	328.11
459.01	276.62
459.448	325.77
459.887	360.88
460.325	281.3
460.764	285.98
461.202	227.47
461.641	285.98
462.079	283.64
462.517	328.11
462.955	367.9
463.393	335.14
463.832	344.5
464.27	264.92
464.708	295.35
465.145	344.5
465.583	346.84
466.021	337.48
466.459	335.14
466.897	293.01
467.334	356.2
467.772	337.48
468.209	332.79
468.647	257.9
469.084	363.22
469.522	342.16
469.959	323.43
470.396	311.73
470.833	307.05
471.271	332.79
471.708	316.41
472.145	321.09
472.582	316.41
473.019	323.43
473.456	307.05
473.892	309.39
474.329	321.09
474.766	374.92
475.202	236.83
475.639	360.88
476.076	365.56
476.512	311.73
476.949	309.39
477.385	325.77
477.821	363.22
478.258	314.07
478.694	363.22
479.13	290.67
479.566	300.03
480.002	285.98
480.438	358.54
480.874	300.03
481.31	342.16
481.746	332.79
482.181	283.64
482.617	339.82
483.053	314.07
483.488	307.05
483.924	325.77
484.36	269.6
484.795	274.28
485.23	325.77
485.666	365.56
486.101	290.67
486.536	276.62
486.971	344.5
487.407	257.9
487.842	295.35
488.277	356.2
488.712	344.5
489.146	304.71
489.581	358.54
490.016	283.64
490.451	281.3
490.885	318.75
491.32	344.5
491.755	330.45
492.189	307.05
492.624	393.65
493.058	370.24
493.492	351.52
493.927	311.73
494.361	314.07
494.795	318.75
495.229	316.41
495.663	311.73
496.097	349.18
496.531	325.77
496.965	323.43
497.399	290.67
497.833	307.05
498.266	377.27
498.7	384.29
499.134	349.18
499.567	370.24
500.001	295.35
500.434	330.45
500.868	304.71
501.301	293.01
501.734	325.77
502.168	363.22
502.601	353.86
503.034	321.09
503.467	330.45
503.9	328.11
504.333	342.16
504.766	285.98
505.199	325.77
505.632	330.45
506.064	318.75
506.497	363.22
506.93	339.82
507.362	328.11
507.795	335.14
508.227	374.92
508.66	360.88
509.092	288.32
509.524	314.07
509.956	365.56
510.389	328.11
510.821	278.96
511.253	351.52
511.685	302.37
512.117	304.71
512.549	267.26
512.981	370.24
513.412	260.24
513.844	297.69
514.276	344.5
514.707	344.5
515.139	325.77
515.571	351.52
516.002	346.84
516.433	337.48
516.865	365.56
517.296	346.84
517.727	274.28
518.159	370.24
518.59	300.03
519.021	351.52
519.452	342.16
519.883	391.31
520.314	246.2
520.744	314.07
521.175	330.45
521.606	330.45
522.037	431.1
522.467	260.24
522.898	339.82
523.328	321.09
523.759	321.09
524.189	318.75
524.62	309.39
525.05	414.71
525.48	278.96
525.91	307.05
526.341	342.16
526.771	384.29
527.201	349.18
527.631	342.16
528.061	356.2
528.49	316.41
528.92	356.2
529.35	325.77
529.78	288.32
530.209	262.58
530.639	370.24
531.068	318.75
531.498	379.61
531.927	314.07
532.357	290.67
532.786	302.37
533.215	332.79
533.644	367.9
534.074	302.37
534.503	393.65
534.932	372.58
535.361	344.5
535.79	325.77
536.218	353.86
536.647	370.24
537.076	356.2
537.505	356.2
537.933	304.71
538.362	323.43
538.79	335.14
539.219	346.84
539.647	309.39
540.076	339.82
540.504	316.41
540.932	295.35
541.36	356.2
541.788	309.39
542.217	278.96
542.645	262.58
543.073	311.73
543.5	346.84
543.928	370.24
544.356	379.61
544.784	295.35
545.211	241.51
545.639	290.67
546.067	358.54
546.494	307.05
546.922	344.5
547.349	271.94
547.776	239.17
548.204	363.22
548.631	332.79
549.058	360.88
549.485	342.16
549.912	335.14
550.339	314.07
550.766	339.82
551.193	325.77
551.62	321.09
552.047	281.3
552.474	283.64
552.9	344.5
553.327	276.62
553.754	335.14
554.18	267.26
554.607	330.45
555.033	388.97
555.459	288.32
555.886	318.75
556.312	335.14
556.738	302.37
557.164	321.09
557.59	271.94
558.016	314.07
558.442	346.84
558.868	330.45
559.294	330.45
559.72	337.48
560.145	325.77
560.571	318.75
560.997	278.96
561.422	367.9
561.848	323.43
562.273	285.98
562.699	351.52
563.124	285.98
563.549	377.27
563.974	307.05
564.4	311.73
564.825	311.73
565.25	227.47
565.675	377.27
566.1	295.35
566.525	339.82
566.95	325.77
567.374	297.69
567.799	339.82
568.224	339.82
568.648	363.22
569.073	384.29
569.497	276.62
569.922	190.02
570.346	344.5
570.771	370.24
571.195	323.43
571.619	311.73
572.043	316.41
572.467	318.75
572.891	335.14
573.315	358.54
573.739	344.5
574.163	346.84
574.587	285.98
575.011	281.3
575.435	278.96
575.858	225.13
576.282	276.62
576.705	339.82
577.129	346.84
577.552	267.26
577.976	309.39
578.399	264.92
578.822	297.69
579.245	323.43
579.669	288.32
580.092	365.56
580.515	325.77
580.938	304.71
581.361	311.73
581.784	370.24
582.206	314.07
582.629	417.05
583.052	297.69
583.474	325.77
583.897	307.05
584.32	344.5
584.742	269.6
585.165	342.16
585.587	257.9
586.009	351.52
586.431	318.75
586.854	384.29
587.276	293.01
587.698	311.73
588.12	349.18
588.542	295.35
588.964	332.79
589.386	297.69
589.807	339.82
590.229	321.09
590.651	321.09
591.073	339.82
591.494	356.2
591.916	391.31
592.337	367.9
592.759	321.09
593.18	321.09
593.601	271.94
594.022	309.39
594.444	293.01
594.865	321.09
595.286	311.73
595.707	351.52
596.128	351.52
596.549	269.6
596.97	311.73
597.39	311.73
597.811	297.69
598.232	353.86
598.652	314.07
599.073	363.22
599.494	363.22
599.914	332.79
600.334	309.39
600.755	367.9
601.175	342.16
601.595	365.56
602.015	293.01
602.436	267.26
602.856	414.71
603.276	311.73
603.696	337.48
604.115	349.18
604.535	274.28
604.955	316.41
605.375	344.5
605.794	332.79
606.214	297.69
606.634	250.88
607.053	356.2
607.473	398.33
607.892	307.05
608.311	365.56
608.731	290.67
609.15	328.11
609.569	297.69
609.988	388.97
610.407	328.11
610.826	281.3
611.245	309.39
611.664	337.48
612.083	283.64
612.501	290.67
612.92	304.71
613.339	346.84
613.757	328.11
614.176	278.96
614.594	314.07
615.013	353.86
615.431	365.56
615.85	328.11
616.268	323.43
616.686	349.18
617.104	309.39
617.522	346.84
617.94	276.62
618.358	241.51
618.776	297.69
619.194	342.16
619.612	300.03
620.03	344.5
620.447	304.71
620.865	365.56
621.282	293.01
621.7	337.48
622.117	360.88
622.535	330.45
622.952	337.48
623.369	264.92
623.787	342.16
624.204	307.05
624.621	344.5
625.038	323.43
625.455	302.37
625.872	321.09
626.289	300.03
626.706	295.35
627.123	269.6
627.539	288.32
627.956	325.77
628.373	262.58
628.789	269.6
629.206	281.3
629.622	290.67
630.038	253.22
630.455	332.79
630.871	370.24
631.287	323.43
631.703	253.22
632.12	346.84
632.536	288.32
632.952	307.05
633.368	344.5
633.783	323.43
634.199	318.75
634.615	360.88
635.031	351.52
635.446	295.35
635.862	260.24
636.277	342.16
636.693	307.05
637.108	349.18
637.524	363.22
637.939	318.75
638.354	325.77
638.77	300.03
639.185	372.58
639.6	276.62
640.015	323.43
640.43	323.43
640.845	332.79
641.259	285.98
641.674	293.01
642.089	250.88
642.504	307.05
642.918	367.9
643.333	316.41
643.747	330.45
644.162	290.67
644.576	314.07
644.991	264.92
645.405	328.11
645.819	208.75
646.233	276.62
646.647	293.01
647.061	353.86
647.475	304.71
647.889	353.86
648.303	325.77
648.717	255.56
649.131	304.71
649.545	283.64
649.958	356.2
650.372	318.75
650.785	335.14
651.199	311.73
651.612	283.64
652.026	290.67
652.439	271.94
652.852	285.98
653.266	330.45
653.679	227.47
654.092	346.84
654.505	253.22
654.918	325.77
655.331	288.32
655.744	321.09
656.156	304.71
656.569	281.3
656.982	257.9
657.394	262.58
657.807	325.77
658.22	405.35
658.632	332.79
659.044	302.37
659.457	323.43
659.869	314.07
660.281	349.18
660.693	358.54
661.106	307.05
661.518	264.92
661.93	372.58
662.342	321.09
662.754	330.45
663.165	398.33
663.577	349.18
663.989	304.71
664.401	316.41
664.812	367.9
665.224	377.27
665.635	316.41
666.047	353.86
666.458	304.71
666.869	353.86
667.281	288.32
667.692	332.79
668.103	332.79
668.514	344.5
668.925	243.85
669.336	328.11
669.747	316.41
670.158	274.28
670.569	346.84
670.979	342.16
671.39	314.07
671.801	309.39
672.211	302.37
672.622	253.22
673.032	400.67
673.443	367.9
673.853	346.84
674.263	325.77
674.674	346.84
675.084	351.52
675.494	316.41
675.904	374.92
676.314	309.39
676.724	346.84
677.134	293.01
677.544	374.92
677.953	332.79
678.363	379.61
678.773	337.48
679.182	386.63
679.592	318.75
680.001	321.09
680.411	288.32
680.82	290.67
681.23	372.58
681.639	304.71
682.048	335.14
682.457	374.92
682.866	365.56
683.275	337.48
683.684	246.2
684.093	323.43
684.502	374.92
684.911	384.29
685.32	332.79
685.728	297.69
686.137	293.01
686.546	356.2
686.954	332.79
687.363	307.05
687.771	243.85
688.179	307.05
688.588	323.43
688.996	349.18
689.404	370.24
689.812	281.3
690.22	295.35
690.628	349.18
691.036	363.22
691.444	325.77
691.852	276.62
692.26	335.14
692.667	330.45
693.075	314.07
693.483	300.03
693.89	283.64
694.298	253.22
694.705	325.77
695.112	330.45
695.52	379.61
695.927	311.73
696.334	332.79
696.741	262.58
697.148	302.37
697.555	339.82
697.962	264.92
698.369	274.28
698.776	351.52
699.183	297.69
699.59	353.86
699.996	260.24
700.403	274.28
700.81	353.86
701.216	271.94
701.623	276.62
702.029	346.84
702.435	372.58
702.842	356.2
703.248	267.26
703.654	297.69
704.06	300.03
704.466	276.62
704.872	267.26
705.278	325.77
705.684	304.71
706.09	318.75
706.496	325.77
706.901	302.37
707.307	365.56
707.712	316.41
708.118	267.26
708.523	295.35
708.929	283.64
709.334	332.79
709.74	300.03
710.145	288.32
710.55	325.77
710.955	372.58
711.36	278.96
711.765	285.98
712.17	295.35
712.575	328.11
712.98	833.67
713.385	384.29
713.789	330.45
714.194	363.22
714.599	356.2
715.003	360.88
715.408	253.22
715.812	307.05
716.217	328.11
716.621	365.56
717.025	335.14
717.429	379.61
717.833	351.52
718.238	271.94
718.642	342.16
719.046	323.43
719.449	339.82
719.853	297.69
720.257	365.56
720.661	367.9
721.065	321.09
721.468	297.69
721.872	370.24
722.275	285.98
722.679	293.01
723.082	297.69
723.485	328.11
723.889	335.14
724.292	288.32
724.695	288.32
725.098	351.52
725.501	281.3
725.904	318.75
726.307	342.16
726.71	257.9
727.113	353.86
727.516	356.2
727.918	328.11
728.321	311.73
728.724	349.18
729.126	220.45
729.529	356.2
729.931	295.35
730.333	297.69
730.736	278.96
731.138	250.88
731.54	285.98
731.942	264.92
732.344	314.07
732.746	332.79
733.148	328.11
733.55	269.6
733.952	311.73
734.354	353.86
734.756	250.88
735.157	300.03
735.559	323.43
735.96	381.95
736.362	304.71
736.763	314.07
737.165	332.79
737.566	349.18
737.967	314.07
738.368	349.18
738.77	269.6
739.171	311.73
739.572	297.69
739.973	218.11
740.374	293.01
740.774	276.62
741.175	395.99
741.576	290.67
741.977	330.45
742.377	367.9
742.778	353.86
743.178	344.5
743.579	290.67
743.979	339.82
744.379	349.18
744.78	318.75
745.18	360.88
745.58	309.39
745.98	330.45
746.38	325.77
746.78	309.39
747.18	325.77
747.58	295.35
747.98	353.86
748.38	304.71
748.779	323.43
749.179	309.39
749.578	330.45
749.978	384.29
750.377	330.45
750.777	316.41
751.176	328.11
751.575	307.05
751.975	314.07
752.374	358.54
752.773	332.79
753.172	285.98
753.571	271.94
753.97	278.96
754.369	321.09
754.768	339.82
755.166	349.18
755.565	253.22
755.964	314.07
756.362	339.82
756.761	325.77
757.159	321.09
757.558	346.84
757.956	335.14
758.354	325.77
758.753	248.54
759.151	339.82
759.549	276.62
759.947	290.67
760.345	370.24
760.743	302.37
761.141	274.28
761.539	321.09
761.936	309.39
762.334	367.9
762.732	311.73
763.129	353.86
763.527	293.01
763.924	351.52
764.322	330.45
764.719	363.22
765.117	309.39
765.514	316.41
765.911	353.86
766.308	339.82
766.705	309.39
767.102	332.79
767.499	323.43
767.896	332.79
768.293	339.82
768.69	276.62
769.086	232.15
769.483	363.22
769.88	302.37
770.276	372.58
770.673	321.09
771.069	309.39
771.466	309.39
771.862	288.32
772.258	328.11
772.654	297.69
773.05	314.07
773.447	295.35
773.843	295.35
774.239	332.79
774.634	300.03
775.03	321.09
775.426	335.14
775.822	358.54
776.218	307.05
776.613	323.43
777.009	372.58
777.404	262.58
777.8	255.56
778.195	285.98
778.59	297.69
778.986	253.22
779.381	388.97
779.776	330.45
780.171	297.69
780.566	370.24
780.961	300.03
781.356	363.22
781.751	264.92
782.146	370.24
782.54	330.45
782.935	262.58
783.33	342.16
783.724	297.69
784.119	367.9
784.513	321.09
784.908	351.52
785.302	283.64
785.696	285.98
786.09	307.05
786.485	316.41
786.879	339.82
787.273	307.05
787.667	302.37
788.061	365.56
788.454	314.07
788.848	260.24
789.242	318.75
789.636	255.56
790.029	262.58
790.423	335.14
790.816	267.26
791.21	285.98
791.603	311.73
791.997	281.3
792.39	285.98
792.783	358.54
793.176	250.88
793.569	321.09
793.962	290.67
794.355	288.32
794.748	293.01
795.141	295.35
795.534	335.14
795.927	262.58
796.319	332.79
796.712	339.82
797.105	293.01
797.497	295.35
797.89	318.75
798.282	363.22
798.674	381.95
799.067	297.69
799.459	250.88
799.851	342.16
800.243	323.43
800.635	295.35
801.027	290.67
801.419	356.2
801.811	232.15
802.203	288.32
802.594	264.92
802.986	328.11
803.378	346.84
803.769	332.79
804.161	290.67
804.552	311.73
804.944	281.3
805.335	332.79
805.726	264.92
806.118	337.48
806.509	339.82
806.9	295.35
807.291	330.45
807.682	325.77
808.073	346.84
808.464	339.82
808.855	283.64
809.245	274.28
809.636	314.07
810.027	304.71
810.417	302.37
810.808	232.15
811.198	321.09
811.589	419.39
811.979	297.69
812.369	307.05
812.759	356.2
813.15	349.18
813.54	332.79
813.93	285.98
814.32	290.67
814.71	356.2
815.1	363.22
815.489	363.22
815.879	311.73
816.269	379.61
816.658	360.88
817.048	262.58
817.438	342.16
817.827	367.9
818.216	297.69
818.606	307.05
818.995	365.56
819.384	339.82
819.773	363.22
820.163	323.43
820.552	337.48
820.941	295.35
821.33	316.41
821.718	360.88
822.107	283.64
822.496	332.79
822.885	330.45
823.273	295.35
823.662	283.64
824.05	325.77
824.439	311.73
824.827	321.09
825.216	311.73
825.604	330.45
825.992	300.03
826.38	344.5
826.768	307.05
827.156	367.9
827.544	339.82
827.932	304.71
828.32	328.11
828.708	304.71
829.096	293.01
829.483	255.56
829.871	264.92
830.259	323.43
830.646	325.77
831.034	293.01
831.421	325.77
831.808	297.69
832.196	278.96
832.583	304.71
832.97	307.05
833.357	346.84
833.744	295.35
834.131	318.75
834.518	311.73
834.905	304.71
835.292	323.43
835.678	349.18
836.065	285.98
836.452	311.73
836.838	293.01
837.225	316.41
837.611	335.14
837.998	293.01
838.384	260.24
838.77	269.6
839.157	295.35
839.543	384.29
839.929	302.37
840.315	290.67
840.701	323.43
841.087	293.01
841.473	318.75
841.858	297.69
842.244	281.3
842.63	335.14
843.015	283.64
843.401	608.98
843.787	276.62
844.172	346.84
844.557	309.39
844.943	335.14
845.328	346.84
845.713	264.92
846.098	314.07
846.483	318.75
846.868	290.67
847.253	337.48
847.638	372.58
848.023	363.22
848.408	332.79
848.793	342.16
849.177	267.26
849.562	328.11
849.947	262.58
850.331	358.54
850.715	349.18
851.1	307.05
851.484	229.81
851.868	318.75
852.253	367.9
852.637	255.56
853.021	337.48
853.405	283.64
853.789	281.3
854.173	293.01
854.557	349.18
854.94	384.29
855.324	274.28
855.708	267.26
856.091	269.6
856.475	363.22
856.858	323.43
857.242	311.73
857.625	330.45
858.009	276.62
858.392	323.43
858.775	325.77
859.158	283.64
859.541	363.22
859.924	344.5
860.307	321.09
860.69	323.43
861.073	353.86
861.456	403.01
861.838	271.94
862.221	283.64
862.604	358.54
862.986	281.3
863.369	318.75
863.751	318.75
864.133	325.77
864.516	278.96
864.898	323.43
865.28	300.03
865.662	379.61
866.044	267.26
866.426	290.67
866.808	297.69
867.19	304.71
867.572	307.05
867.954	311.73
868.336	328.11
868.717	337.48
869.099	321.09
869.48	318.75
869.862	321.09
870.243	267.26
870.625	360.88
871.006	274.28
871.387	281.3
871.768	302.37
872.149	377.27
872.53	297.69
872.911	344.5
873.292	332.79
873.673	278.96
874.054	293.01
874.435	281.3
874.815	300.03
875.196	293.01
875.577	271.94
875.957	353.86
876.338	314.07
876.718	295.35
877.098	325.77
877.479	290.67
877.859	346.84
878.239	339.82
878.619	307.05
878.999	276.62
879.379	300.03
879.759	360.88
880.139	288.32
880.519	300.03
880.898	297.69
881.278	370.24
881.658	325.77
882.037	337.48
882.417	304.71
882.796	285.98
883.176	353.86
883.555	328.11
883.934	365.56
884.313	250.88
884.693	363.22
885.072	248.54
885.451	337.48
885.83	276.62
886.209	285.98
886.587	332.79
886.966	325.77
887.345	304.71
887.724	302.37
888.102	302.37
888.481	339.82
888.859	328.11
889.238	339.82
889.616	293.01
889.994	297.69
890.373	269.6
890.751	328.11
891.129	274.28
891.507	297.69
891.885	304.71
892.263	276.62
892.641	262.58
893.019	278.96
893.396	295.35
893.774	335.14
894.152	321.09
894.529	365.56
894.907	332.79
895.284	330.45
895.662	290.67
896.039	363.22
896.416	332.79
896.794	278.96
897.171	246.2
897.548	346.84
897.925	356.2
898.302	335.14
898.679	285.98
899.056	330.45
899.433	285.98
899.809	290.67
900.186	351.52
900.563	335.14
900.939	288.32
901.316	358.54
901.692	346.84
902.069	260.24
902.445	332.79
902.821	276.62
903.197	302.37
903.574	356.2
903.95	300.03
904.326	339.82
904.702	325.77
905.078	297.69
905.454	360.88
905.829	248.54
906.205	297.69
906.581	239.17
906.956	248.54
907.332	302.37
907.707	367.9
908.083	323.43
908.458	316.41
908.833	283.64
909.209	335.14
909.584	232.15
909.959	241.51
910.334	290.67
910.709	353.86
911.084	295.35
911.459	276.62
911.834	285.98
912.209	211.09
912.583	290.67
912.958	316.41
913.333	297.69
913.707	278.96
914.082	311.73
914.456	271.94
914.83	290.67
915.205	300.03
915.579	267.26
915.953	344.5
916.327	318.75
916.701	276.62
917.075	337.48
917.449	246.2
917.823	271.94
918.197	314.07
918.571	297.69
918.944	262.58
919.318	264.92
919.692	351.52
920.065	321.09
920.438	356.2
920.812	342.16
921.185	321.09
921.558	311.73
921.932	307.05
922.305	276.62
922.678	222.79
923.051	269.6
923.424	321.09
923.797	332.79
924.17	335.14
924.542	346.84
924.915	290.67
925.288	307.05
925.661	358.54
926.033	342.16
926.406	276.62
926.778	342.16
927.15	309.39
927.523	344.5
927.895	311.73
928.267	311.73
928.639	236.83
929.011	346.84
929.383	318.75
929.755	377.27
930.127	321.09
930.499	278.96
930.871	332.79
931.242	337.48
931.614	241.51
931.986	208.75
932.357	328.11
932.729	264.92
933.1	285.98
933.471	318.75
933.843	283.64
934.214	314.07
934.585	321.09
934.956	344.5
935.327	276.62
935.698	274.28
936.069	316.41
936.44	321.09
936.811	239.17
937.182	311.73
937.552	246.2
937.923	290.67
938.293	311.73
938.664	325.77
939.034	316.41
939.405	302.37
939.775	243.85
940.145	297.69
940.516	281.3
940.886	267.26
941.256	307.05
941.626	318.75
941.996	309.39
942.366	243.85
942.735	377.27
943.105	295.35
943.475	271.94
943.845	290.67
944.214	271.94
944.584	307.05
944.953	222.79
945.323	267.26
945.692	356.2
946.061	351.52
946.43	328.11
946.8	276.62
947.169	325.77
947.538	374.92
947.907	325.77
948.276	365.56
948.645	311.73
949.013	295.35
949.382	262.58
949.751	356.2
950.119	304.71
950.488	278.96
950.857	264.92
951.225	304.71
951.593	346.84
951.962	330.45
952.33	285.98
952.698	372.58
953.066	307.05
953.434	257.9
953.802	307.05
954.17	358.54
954.538	323.43
954.906	323.43
955.274	311.73
955.642	225.13
956.009	236.83
956.377	344.5
956.744	264.92
957.112	302.37
957.479	318.75
957.847	302.37
958.214	346.84
958.581	288.32
958.948	293.01
959.315	309.39
959.683	297.69
960.05	318.75
960.416	337.48
960.783	307.05
961.15	332.79
961.517	290.67
961.884	262.58
962.25	276.62
962.617	290.67
962.983	264.92
963.35	290.67
963.716	304.71
964.082	307.05
964.449	248.54
964.815	274.28
965.181	271.94
965.547	269.6
965.913	337.48
966.279	236.83
966.645	250.88
967.011	346.84
967.377	318.75
967.742	309.39
968.108	349.18
968.474	449.82
968.839	374.92
969.205	304.71
969.57	290.67
969.935	278.96
970.301	300.03
970.666	374.92
971.031	293.01
971.396	351.52
971.761	267.26
972.126	276.62
972.491	351.52
972.856	260.24
973.221	363.22
973.586	358.54
973.95	293.01
974.315	321.09
974.679	271.94
975.044	346.84
975.408	321.09
975.773	344.5
976.137	321.09
976.501	309.39
976.866	290.67
977.23	278.96
977.594	262.58
977.958	288.32
978.322	295.35
978.686	346.84
979.049	304.71
979.413	323.43
979.777	314.07
980.141	297.69
980.504	309.39
980.868	330.45
981.231	293.01
981.595	307.05
981.958	285.98
982.321	332.79
982.684	339.82
983.048	302.37
983.411	281.3
983.774	344.5
984.137	302.37
984.5	293.01
984.862	260.24
985.225	388.97
985.588	309.39
985.951	363.22
986.313	339.82
986.676	318.75
987.038	367.9
987.401	374.92
987.763	304.71
988.125	358.54
988.488	323.43
988.85	297.69
989.212	332.79
989.574	278.96
989.936	325.77
990.298	325.77
990.66	323.43
991.022	250.88
991.383	314.07
991.745	267.26
992.107	281.3
992.468	358.54
992.83	253.22
993.191	288.32
993.553	274.28
993.914	300.03
994.275	297.69
994.637	318.75
994.998	332.79
995.359	358.54
995.72	295.35
996.081	300.03
996.442	267.26
996.803	283.64
997.163	363.22
997.524	358.54
997.885	328.11
998.245	358.54
998.606	349.18
998.966	318.75
999.327	311.73
999.687	346.84
1000.047	316.41
1000.408	269.6
1000.768	276.62
1001.128	335.14
1001.488	328.11
1001.848	300.03
1002.208	337.48
1002.568	367.9
1002.927	276.62
1003.287	323.43
1003.647	351.52
1004.007	295.35
1004.366	288.32
1004.726	288.32
1005.085	316.41
1005.444	241.51
1005.804	283.64
1006.163	304.71
1006.522	346.84
1006.881	346.84
1007.24	271.94
1007.599	330.45
1007.958	344.5
1008.317	332.79
1008.676	342.16
1009.035	328.11
1009.393	372.58
1009.752	323.43
1010.111	288.32
1010.469	255.56
1010.828	332.79
1011.186	276.62
1011.544	288.32
1011.903	328.11
1012.261	349.18
1012.619	274.28
1012.977	349.18
1013.335	328.11
1013.693	295.35
1014.051	339.82
1014.409	363.22
1014.767	349.18
1015.124	314.07
1015.482	302.37
1015.84	222.79
1016.197	285.98
1016.555	316.41
1016.912	297.69
1017.269	302.37
1017.627	374.92
1017.984	363.22
1018.341	295.35
1018.698	384.29
1019.055	349.18
1019.412	314.07
1019.769	332.79
1020.126	335.14
1020.483	314.07
1020.84	236.83
1021.196	293.01
1021.553	316.41
1021.909	309.39
1022.266	278.96
1022.622	250.88
1022.979	353.86
1023.335	379.61
1023.691	295.35
1024.047	318.75
1024.404	285.98
1024.76	253.22
1025.116	307.05
1025.472	232.15
1025.827	309.39
1026.183	353.86
1026.539	318.75
1026.895	342.16
1027.25	290.67
1027.606	314.07
1027.961	267.26
1028.317	281.3
1028.672	297.69
1029.028	323.43
1029.383	321.09
1029.738	302.37
1030.093	304.71
1030.448	271.94
1030.803	344.5
1031.158	311.73
1031.513	302.37
1031.868	307.05
1032.223	318.75
1032.577	285.98
1032.932	353.86
1033.287	255.56
1033.641	318.75
1033.996	281.3
1034.35	372.58
1034.704	276.62
1035.059	325.77
1035.413	295.35
1035.767	295.35
1036.121	295.35
