Data from Al_FLMS009871__622__14-49-12-012.txt Node

Date: Fri Mar 08 14:49:12 CST 2024
User: pe5414po
Spectrometer: FLMS00987
Trigger mode: 0
Integration Time (sec): 1.000000E-1
Scans to average: 1
Electric dark correction enabled: true
Nonlinearity correction enabled: false
Boxcar width: 0
XAxis mode: Wavelengths
Number of Pixels in Spectrum: 2048
>>>>>Begin Spectral Data<<<<<
188.938	-97.28
189.409	-97.28
189.879	-97.28
190.349	-113.66
190.819	-101.96
191.29	-36.42
191.76	-130.05
192.23	-50.47
192.7	-101.96
193.17	-34.08
193.64	-34.08
194.109	-6
194.579	-31.74
195.049	-29.4
195.519	-10.68
195.988	26.77
196.458	54.86
196.927	38.47
197.397	75.92
197.866	122.73
198.336	146.14
198.805	211.67
199.274	195.29
199.744	157.84
200.213	209.33
200.682	197.63
201.151	192.95
201.62	239.76
202.089	277.21
202.558	232.74
203.027	228.06
203.495	225.72
203.964	305.29
204.433	300.61
204.902	258.48
205.37	260.82
205.839	363.81
206.307	291.25
206.776	284.23
207.244	267.85
207.712	314.66
208.181	277.21
208.649	232.74
209.117	279.55
209.585	258.48
210.053	328.7
210.521	249.12
210.989	277.21
211.457	263.16
211.925	267.85
212.393	242.1
212.861	309.97
213.328	258.48
213.796	214.01
214.264	272.53
214.731	300.61
215.199	279.55
215.666	291.25
216.133	314.66
216.601	354.44
217.068	288.91
217.535	253.8
218.003	260.82
218.47	230.4
218.937	235.08
219.404	235.08
219.871	228.06
220.338	258.48
220.805	291.25
221.271	321.68
221.738	312.32
222.205	237.42
222.671	244.44
223.138	190.61
223.605	199.97
224.071	302.95
224.538	312.32
225.004	232.74
225.47	237.42
225.937	256.14
226.403	298.27
226.869	237.42
227.335	258.48
227.801	251.46
228.267	302.95
228.733	263.16
229.199	265.5
229.665	239.76
230.131	174.22
230.597	232.74
231.062	349.76
231.528	377.85
231.994	286.57
232.459	291.25
232.925	281.89
233.39	265.5
233.856	284.23
234.321	281.89
234.786	246.78
235.252	270.19
235.717	218.69
236.182	284.23
236.647	293.59
237.112	246.78
237.577	183.59
238.042	302.95
238.507	209.33
238.972	251.46
239.436	270.19
239.901	258.48
240.366	260.82
240.83	270.19
241.295	249.12
241.76	258.48
242.224	263.16
242.688	328.7
243.153	328.7
243.617	277.21
244.081	197.63
244.545	312.32
245.01	237.42
245.474	279.55
245.938	291.25
246.402	237.42
246.866	298.27
247.33	228.06
247.793	324.02
248.257	293.59
248.721	256.14
249.185	309.97
249.648	279.55
250.112	211.67
250.575	274.87
251.039	293.59
251.502	302.95
251.965	291.25
252.429	230.4
252.892	317
253.355	270.19
253.818	214.01
254.281	228.06
254.744	244.44
255.207	342.74
255.67	267.85
256.133	309.97
256.596	284.23
257.059	274.87
257.522	291.25
257.984	267.85
258.447	279.55
258.909	312.32
259.372	279.55
259.834	298.27
260.297	267.85
260.759	319.34
261.221	298.27
261.684	295.93
262.146	300.61
262.608	286.57
263.07	260.82
263.532	239.76
263.994	300.61
264.456	345.08
264.918	286.57
265.38	253.8
265.842	295.93
266.303	312.32
266.765	305.29
267.227	258.48
267.688	256.14
268.15	314.66
268.611	288.91
269.072	309.97
269.534	347.42
269.995	293.59
270.456	295.93
270.918	314.66
271.379	321.68
271.84	284.23
272.301	312.32
272.762	347.42
273.223	281.89
273.684	242.1
274.144	298.27
274.605	265.5
275.066	302.95
275.527	284.23
275.987	300.61
276.448	305.29
276.908	223.37
277.369	274.87
277.829	284.23
278.289	246.78
278.75	300.61
279.21	309.97
279.67	279.55
280.13	288.91
280.59	298.27
281.05	260.82
281.51	302.95
281.97	324.02
282.43	305.29
282.89	309.97
283.35	188.27
283.809	279.55
284.269	305.29
284.729	309.97
285.188	232.74
285.648	317
286.107	272.53
286.567	314.66
287.026	270.19
287.485	319.34
287.944	286.57
288.404	345.08
288.863	300.61
289.322	300.61
289.781	260.82
290.24	286.57
290.699	267.85
291.158	284.23
291.616	307.63
292.075	366.15
292.534	338.06
292.992	300.61
293.451	363.81
293.91	300.61
294.368	335.72
294.827	293.59
295.285	340.4
295.743	253.8
296.202	228.06
296.66	225.72
297.118	302.95
297.576	302.95
298.034	293.59
298.492	331.04
298.95	331.04
299.408	317
299.866	321.68
300.324	307.63
300.781	326.36
301.239	317
301.697	281.89
302.154	223.37
302.612	309.97
303.069	361.47
303.527	295.93
303.984	359.13
304.441	277.21
304.899	288.91
305.356	291.25
305.813	314.66
306.27	340.4
306.727	235.08
307.184	263.16
307.641	265.5
308.098	319.34
308.555	256.14
309.012	237.42
309.468	251.46
309.925	387.21
310.382	260.82
310.838	293.59
311.295	279.55
311.751	267.85
312.208	265.5
312.664	211.67
313.12	298.27
313.577	291.25
314.033	235.08
314.489	274.87
314.945	281.89
315.401	347.42
315.857	302.95
316.313	307.63
316.769	340.4
317.225	185.93
317.681	274.87
318.136	256.14
318.592	272.53
319.048	321.68
319.503	333.38
319.959	284.23
320.414	307.63
320.869	326.36
321.325	307.63
321.78	291.25
322.235	359.13
322.691	319.34
323.146	225.72
323.601	263.16
324.056	317
324.511	298.27
324.966	312.32
325.421	321.68
325.875	331.04
326.33	267.85
326.785	300.61
327.24	298.27
327.694	279.55
328.149	331.04
328.603	286.57
329.058	312.32
329.512	305.29
329.966	319.34
330.421	260.82
330.875	253.8
331.329	270.19
331.783	333.38
332.237	317
332.691	314.66
333.145	256.14
333.599	235.08
334.053	267.85
334.507	324.02
334.96	309.97
335.414	307.63
335.868	335.72
336.321	277.21
336.775	338.06
337.228	298.27
337.682	375.51
338.135	338.06
338.588	347.42
339.042	260.82
339.495	295.93
339.948	298.27
340.401	335.72
340.854	288.91
341.307	314.66
341.76	253.8
342.213	333.38
342.666	300.61
343.119	239.76
343.571	286.57
344.024	274.87
344.477	314.66
344.929	312.32
345.382	291.25
345.834	235.08
346.287	251.46
346.739	249.12
347.191	340.4
347.644	317
348.096	302.95
348.548	314.66
349	314.66
349.452	298.27
349.904	314.66
350.356	312.32
350.808	291.25
351.26	291.25
351.711	239.76
352.163	347.42
352.615	317
353.066	298.27
353.518	284.23
353.969	338.06
354.421	331.04
354.872	230.4
355.324	356.79
355.775	317
356.226	317
356.677	317
357.128	263.16
357.579	293.59
358.03	286.57
358.481	342.74
358.932	272.53
359.383	242.1
359.834	284.23
360.285	295.93
360.735	249.12
361.186	288.91
361.637	286.57
362.087	321.68
362.538	324.02
362.988	309.97
363.438	309.97
363.889	295.93
364.339	335.72
364.789	295.93
365.239	331.04
365.689	382.53
366.139	253.8
366.589	267.85
367.039	286.57
367.489	298.27
367.939	347.42
368.389	307.63
368.839	300.61
369.288	328.7
369.738	305.29
370.187	345.08
370.637	356.79
371.086	251.46
371.536	284.23
371.985	333.38
372.434	272.53
372.884	335.72
373.333	309.97
373.782	293.59
374.231	314.66
374.68	260.82
375.129	324.02
375.578	321.68
376.027	279.55
376.475	333.38
376.924	291.25
377.373	408.28
377.822	326.36
378.27	272.53
378.719	314.66
379.167	284.23
379.616	300.61
380.064	267.85
380.512	340.4
380.961	300.61
381.409	307.63
381.857	326.36
382.305	267.85
382.753	354.44
383.201	288.91
383.649	309.97
384.097	328.7
384.545	333.38
384.992	286.57
385.44	361.47
385.888	359.13
386.335	293.59
386.783	300.61
387.231	300.61
387.678	291.25
388.125	256.14
388.573	359.13
389.02	317
389.467	312.32
389.914	302.95
390.362	293.59
390.809	256.14
391.256	309.97
391.703	317
392.15	335.72
392.596	274.87
393.043	368.49
393.49	307.63
393.937	314.66
394.383	253.8
394.83	242.1
395.276	232.74
395.723	333.38
396.169	267.85
396.616	288.91
397.062	300.61
397.508	300.61
397.954	272.53
398.401	309.97
398.847	277.21
399.293	331.04
399.739	321.68
400.185	270.19
400.631	331.04
401.076	347.42
401.522	326.36
401.968	307.63
402.414	356.79
402.859	345.08
403.305	321.68
403.75	286.57
404.196	328.7
404.641	265.5
405.086	356.79
405.532	279.55
405.977	319.34
406.422	331.04
406.867	279.55
407.312	270.19
407.757	314.66
408.202	340.4
408.647	298.27
409.092	338.06
409.537	309.97
409.982	347.42
410.426	274.87
410.871	347.42
411.316	302.95
411.76	270.19
412.205	265.5
412.649	256.14
413.093	279.55
413.538	288.91
413.982	305.29
414.426	293.59
414.87	279.55
415.314	324.02
415.758	281.89
416.202	309.97
416.646	331.04
417.09	295.93
417.534	314.66
417.978	298.27
418.421	256.14
418.865	298.27
419.309	338.06
419.752	352.1
420.196	309.97
420.639	368.49
421.083	263.16
421.526	307.63
421.969	319.34
422.412	256.14
422.856	293.59
423.299	242.1
423.742	324.02
424.185	317
424.628	256.14
425.071	274.87
425.513	263.16
425.956	286.57
426.399	305.29
426.842	307.63
427.284	298.27
427.727	326.36
428.169	333.38
428.612	347.42
429.054	324.02
429.497	352.1
429.939	286.57
430.381	244.44
430.823	345.08
431.265	295.93
431.707	328.7
432.149	347.42
432.591	345.08
433.033	258.48
433.475	342.74
433.917	335.72
434.359	279.55
434.8	258.48
435.242	286.57
435.684	361.47
436.125	295.93
436.567	314.66
437.008	225.72
437.449	319.34
437.891	328.7
438.332	249.12
438.773	328.7
439.214	312.32
439.656	363.81
440.097	270.19
440.538	272.53
440.978	321.68
441.419	331.04
441.86	370.83
442.301	281.89
442.742	307.63
443.182	354.44
443.623	284.23
444.063	328.7
444.504	321.68
444.944	356.79
445.385	319.34
445.825	331.04
446.265	265.5
446.706	307.63
447.146	270.19
447.586	307.63
448.026	326.36
448.466	265.5
448.906	328.7
449.346	338.06
449.786	352.1
450.225	309.97
450.665	298.27
451.105	298.27
451.544	326.36
451.984	309.97
452.424	288.91
452.863	356.79
453.302	319.34
453.742	267.85
454.181	307.63
454.62	328.7
455.059	293.59
455.499	265.5
455.938	338.06
456.377	314.66
456.816	298.27
457.254	326.36
457.693	331.04
458.132	345.08
458.571	324.02
459.01	286.57
459.448	314.66
459.887	312.32
460.325	324.02
460.764	356.79
461.202	305.29
461.641	295.93
462.079	349.76
462.517	324.02
462.955	331.04
463.393	356.79
463.832	295.93
464.27	340.4
464.708	277.21
465.145	345.08
465.583	284.23
466.021	295.93
466.459	354.44
466.897	314.66
467.334	352.1
467.772	359.13
468.209	281.89
468.647	314.66
469.084	281.89
469.522	305.29
469.959	274.87
470.396	270.19
470.833	258.48
471.271	321.68
471.708	291.25
472.145	321.68
472.582	286.57
473.019	328.7
473.456	321.68
473.892	284.23
474.329	317
474.766	319.34
475.202	256.14
475.639	331.04
476.076	302.95
476.512	324.02
476.949	284.23
477.385	288.91
477.821	270.19
478.258	284.23
478.694	291.25
479.13	345.08
479.566	333.38
480.002	305.29
480.438	321.68
480.874	284.23
481.31	286.57
481.746	295.93
482.181	324.02
482.617	368.49
483.053	293.59
483.488	267.85
483.924	305.29
484.36	319.34
484.795	321.68
485.23	270.19
485.666	300.61
486.101	324.02
486.536	340.4
486.971	307.63
487.407	272.53
487.842	312.32
488.277	352.1
488.712	331.04
489.146	267.85
489.581	317
490.016	335.72
490.451	277.21
490.885	302.95
491.32	314.66
491.755	333.38
492.189	277.21
492.624	352.1
493.058	284.23
493.492	352.1
493.927	309.97
494.361	370.83
494.795	291.25
495.229	359.13
495.663	342.74
496.097	373.17
496.531	361.47
496.965	373.17
497.399	265.5
497.833	319.34
498.266	272.53
498.7	352.1
499.134	366.15
499.567	363.81
500.001	331.04
500.434	279.55
500.868	375.51
501.301	368.49
501.734	314.66
502.168	293.59
502.601	314.66
503.034	284.23
503.467	335.72
503.9	305.29
504.333	298.27
504.766	300.61
505.199	293.59
505.632	305.29
506.064	295.93
506.497	281.89
506.93	326.36
507.362	345.08
507.795	314.66
508.227	324.02
508.66	340.4
509.092	361.47
509.524	295.93
509.956	380.19
510.389	333.38
510.821	340.4
511.253	338.06
511.685	309.97
512.117	324.02
512.549	324.02
512.981	307.63
513.412	340.4
513.844	307.63
514.276	267.85
514.707	380.19
515.139	319.34
515.571	242.1
516.002	394.23
516.433	253.8
516.865	356.79
517.296	260.82
517.727	356.79
518.159	335.72
518.59	349.76
519.021	274.87
519.452	267.85
519.883	312.32
520.314	305.29
520.744	307.63
521.175	345.08
521.606	258.48
522.037	317
522.467	277.21
522.898	352.1
523.328	300.61
523.759	375.51
524.189	286.57
524.62	314.66
525.05	319.34
525.48	326.36
525.91	359.13
526.341	277.21
526.771	202.31
527.201	284.23
527.631	295.93
528.061	298.27
528.49	328.7
528.92	300.61
529.35	284.23
529.78	361.47
530.209	338.06
530.639	279.55
531.068	359.13
531.498	349.76
531.927	300.61
532.357	293.59
532.786	277.21
533.215	232.74
533.644	312.32
534.074	326.36
534.503	387.21
534.932	338.06
535.361	258.48
535.79	335.72
536.218	319.34
536.647	312.32
537.076	293.59
537.505	291.25
537.933	328.7
538.362	307.63
538.79	317
539.219	270.19
539.647	331.04
540.076	345.08
540.504	333.38
540.932	328.7
541.36	286.57
541.788	321.68
542.217	305.29
542.645	314.66
543.073	340.4
543.5	375.51
543.928	317
544.356	309.97
544.784	291.25
545.211	317
545.639	293.59
546.067	314.66
546.494	335.72
546.922	293.59
547.349	347.42
547.776	288.91
548.204	333.38
548.631	314.66
549.058	270.19
549.485	321.68
549.912	319.34
550.339	291.25
550.766	366.15
551.193	305.29
551.62	288.91
552.047	405.94
552.474	246.78
552.9	288.91
553.327	356.79
553.754	319.34
554.18	349.76
554.607	359.13
555.033	366.15
555.459	307.63
555.886	321.68
556.312	293.59
556.738	288.91
557.164	340.4
557.59	361.47
558.016	260.82
558.442	302.95
558.868	305.29
559.294	270.19
559.72	305.29
560.145	281.89
560.571	288.91
560.997	239.76
561.422	272.53
561.848	324.02
562.273	302.95
562.699	309.97
563.124	366.15
563.549	335.72
563.974	328.7
564.4	302.95
564.825	307.63
565.25	396.57
565.675	338.06
566.1	387.21
566.525	331.04
566.95	305.29
567.374	274.87
567.799	312.32
568.224	349.76
568.648	321.68
569.073	342.74
569.497	307.63
569.922	284.23
570.346	293.59
570.771	265.5
571.195	263.16
571.619	305.29
572.043	246.78
572.467	354.44
572.891	298.27
573.315	368.49
573.739	309.97
574.163	265.5
574.587	291.25
575.011	281.89
575.435	382.53
575.858	312.32
576.282	270.19
576.705	321.68
577.129	284.23
577.552	239.76
577.976	331.04
578.399	333.38
578.822	317
579.245	302.95
579.669	267.85
580.092	260.82
580.515	300.61
580.938	324.02
581.361	284.23
581.784	305.29
582.206	300.61
582.629	349.76
583.052	249.12
583.474	335.72
583.897	291.25
584.32	274.87
584.742	307.63
585.165	338.06
585.587	324.02
586.009	307.63
586.431	293.59
586.854	281.89
587.276	293.59
587.698	286.57
588.12	300.61
588.542	321.68
588.964	293.59
589.386	331.04
589.807	319.34
590.229	340.4
590.651	401.26
591.073	326.36
591.494	298.27
591.916	331.04
592.337	237.42
592.759	333.38
593.18	309.97
593.601	324.02
594.022	274.87
594.444	274.87
594.865	324.02
595.286	312.32
595.707	291.25
596.128	317
596.549	270.19
596.97	286.57
597.39	331.04
597.811	284.23
598.232	295.93
598.652	281.89
599.073	253.8
599.494	274.87
599.914	317
600.334	314.66
600.755	260.82
601.175	270.19
601.595	279.55
602.015	309.97
602.436	338.06
602.856	417.64
603.276	258.48
603.696	253.8
604.115	331.04
604.535	331.04
604.955	291.25
605.375	309.97
605.794	326.36
606.214	270.19
606.634	298.27
607.053	288.91
607.473	293.59
607.892	356.79
608.311	356.79
608.731	314.66
609.15	352.1
609.569	288.91
609.988	317
610.407	321.68
610.826	272.53
611.245	267.85
611.664	314.66
612.083	300.61
612.501	251.46
612.92	359.13
613.339	324.02
613.757	286.57
614.176	209.33
614.594	328.7
615.013	298.27
615.431	324.02
615.85	305.29
616.268	293.59
616.686	401.26
617.104	333.38
617.522	314.66
617.94	352.1
618.358	298.27
618.776	333.38
619.194	356.79
619.612	249.12
620.03	295.93
620.447	347.42
620.865	286.57
621.282	293.59
621.7	366.15
622.117	295.93
622.535	251.46
622.952	291.25
623.369	293.59
623.787	354.44
624.204	309.97
624.621	342.74
625.038	298.27
625.455	335.72
625.872	356.79
626.289	321.68
626.706	314.66
627.123	309.97
627.539	300.61
627.956	256.14
628.373	345.08
628.789	235.08
629.206	274.87
629.622	256.14
630.038	237.42
630.455	305.29
630.871	349.76
631.287	340.4
631.703	317
632.12	284.23
632.536	314.66
632.952	302.95
633.368	293.59
633.783	324.02
634.199	284.23
634.615	295.93
635.031	335.72
635.446	288.91
635.862	319.34
636.277	340.4
636.693	300.61
637.108	277.21
637.524	305.29
637.939	302.95
638.354	302.95
638.77	391.89
639.185	300.61
639.6	361.47
640.015	284.23
640.43	293.59
640.845	300.61
641.259	321.68
641.674	342.74
642.089	270.19
642.504	312.32
642.918	312.32
643.333	340.4
643.747	286.57
644.162	272.53
644.576	345.08
644.991	345.08
645.405	298.27
645.819	295.93
646.233	326.36
646.647	295.93
647.061	253.8
647.475	305.29
647.889	291.25
648.303	253.8
648.717	333.38
649.131	288.91
649.545	309.97
649.958	307.63
650.372	284.23
650.785	314.66
651.199	305.29
651.612	293.59
652.026	277.21
652.439	298.27
652.852	295.93
653.266	347.42
653.679	298.27
654.092	319.34
654.505	305.29
654.918	281.89
655.331	331.04
655.744	300.61
656.156	307.63
656.569	328.7
656.982	335.72
657.394	256.14
657.807	274.87
658.22	314.66
658.632	265.5
659.044	253.8
659.457	279.55
659.869	288.91
660.281	338.06
660.693	256.14
661.106	321.68
661.518	319.34
661.93	342.74
662.342	317
662.754	321.68
663.165	242.1
663.577	345.08
663.989	333.38
664.401	291.25
664.812	298.27
665.224	342.74
665.635	319.34
666.047	314.66
666.458	317
666.869	300.61
667.281	356.79
667.692	368.49
668.103	309.97
668.514	366.15
668.925	326.36
669.336	340.4
669.747	354.44
670.158	345.08
670.569	368.49
670.979	305.29
671.39	288.91
671.801	356.79
672.211	319.34
672.622	312.32
673.032	314.66
673.443	361.47
673.853	302.95
674.263	293.59
674.674	349.76
675.084	253.8
675.494	328.7
675.904	274.87
676.314	279.55
676.724	373.17
677.134	321.68
677.544	349.76
677.953	335.72
678.363	300.61
678.773	314.66
679.182	284.23
679.592	359.13
680.001	319.34
680.411	340.4
680.82	291.25
681.23	242.1
681.639	298.27
682.048	288.91
682.457	335.72
682.866	312.32
683.275	305.29
683.684	267.85
684.093	300.61
684.502	356.79
684.911	321.68
685.32	295.93
685.728	314.66
686.137	331.04
686.546	279.55
686.954	312.32
687.363	281.89
687.771	305.29
688.179	317
688.588	281.89
688.996	242.1
689.404	331.04
689.812	375.51
690.22	333.38
690.628	345.08
691.036	314.66
691.444	349.76
691.852	307.63
692.26	328.7
692.667	272.53
693.075	347.42
693.483	335.72
693.89	249.12
694.298	354.44
694.705	335.72
695.112	312.32
695.52	309.97
695.927	324.02
696.334	309.97
696.741	328.7
697.148	260.82
697.555	302.95
697.962	309.97
698.369	317
698.776	312.32
699.183	309.97
699.59	270.19
699.996	326.36
700.403	305.29
700.81	312.32
701.216	317
701.623	272.53
702.029	342.74
702.435	333.38
702.842	307.63
703.248	352.1
703.654	265.5
704.06	286.57
704.466	305.29
704.872	338.06
705.278	291.25
705.684	274.87
706.09	253.8
706.496	356.79
706.901	321.68
707.307	331.04
707.712	377.85
708.118	349.76
708.523	359.13
708.929	382.53
709.334	391.89
709.74	270.19
710.145	246.78
710.55	317
710.955	295.93
711.36	300.61
711.765	267.85
712.17	293.59
712.575	342.74
712.98	759.36
713.385	387.21
713.789	328.7
714.194	335.72
714.599	295.93
715.003	396.57
715.408	265.5
715.812	349.76
716.217	300.61
716.621	309.97
717.025	293.59
717.429	331.04
717.833	298.27
718.238	307.63
718.642	270.19
719.046	298.27
719.449	209.33
719.853	319.34
720.257	272.53
720.661	291.25
721.065	277.21
721.468	307.63
721.872	260.82
722.275	190.61
722.679	307.63
723.082	305.29
723.485	286.57
723.889	263.16
724.292	279.55
724.695	324.02
725.098	291.25
725.501	338.06
725.904	312.32
726.307	347.42
726.71	361.47
727.113	307.63
727.516	298.27
727.918	293.59
728.321	354.44
728.724	333.38
729.126	277.21
729.529	309.97
729.931	307.63
730.333	305.29
730.736	277.21
731.138	192.95
731.54	293.59
731.942	338.06
732.344	342.74
732.746	305.29
733.148	328.7
733.55	321.68
733.952	284.23
734.354	305.29
734.756	305.29
735.157	321.68
735.559	326.36
735.96	242.1
736.362	352.1
736.763	314.66
737.165	228.06
737.566	281.89
737.967	295.93
738.368	295.93
738.77	309.97
739.171	321.68
739.572	288.91
739.973	319.34
740.374	314.66
740.774	335.72
741.175	302.95
741.576	342.74
741.977	284.23
742.377	305.29
742.778	333.38
743.178	326.36
743.579	314.66
743.979	284.23
744.379	347.42
744.78	272.53
745.18	314.66
745.58	338.06
745.98	270.19
746.38	335.72
746.78	302.95
747.18	305.29
747.58	302.95
747.98	286.57
748.38	328.7
748.779	312.32
749.179	295.93
749.578	256.14
749.978	319.34
750.377	293.59
750.777	260.82
751.176	314.66
751.575	312.32
751.975	326.36
752.374	302.95
752.773	314.66
753.172	342.74
753.571	354.44
753.97	324.02
754.369	302.95
754.768	305.29
755.166	319.34
755.565	309.97
755.964	300.61
756.362	317
756.761	305.29
757.159	307.63
757.558	349.76
757.956	302.95
758.354	291.25
758.753	309.97
759.151	305.29
759.549	288.91
759.947	260.82
760.345	340.4
760.743	265.5
761.141	286.57
761.539	267.85
761.936	375.51
762.334	298.27
762.732	209.33
763.129	277.21
763.527	338.06
763.924	335.72
764.322	328.7
764.719	270.19
765.117	305.29
765.514	326.36
765.911	277.21
766.308	307.63
766.705	305.29
767.102	286.57
767.499	216.35
767.896	295.93
768.293	361.47
768.69	314.66
769.086	258.48
769.483	242.1
769.88	281.89
770.276	230.4
770.673	319.34
771.069	356.79
771.466	342.74
771.862	317
772.258	333.38
772.654	298.27
773.05	288.91
773.447	305.29
773.843	319.34
774.239	286.57
774.634	309.97
775.03	300.61
775.426	263.16
775.822	265.5
776.218	258.48
776.613	331.04
777.009	321.68
777.404	279.55
777.8	256.14
778.195	272.53
778.59	242.1
778.986	312.32
779.381	314.66
779.776	321.68
780.171	312.32
780.566	286.57
780.961	345.08
781.356	328.7
781.751	237.42
782.146	331.04
782.54	305.29
782.935	309.97
783.33	260.82
783.724	331.04
784.119	270.19
784.513	244.44
784.908	298.27
785.302	244.44
785.696	340.4
786.09	300.61
786.485	349.76
786.879	300.61
787.273	284.23
787.667	331.04
788.061	270.19
788.454	279.55
788.848	293.59
789.242	284.23
789.636	270.19
790.029	338.06
790.423	333.38
790.816	279.55
791.21	298.27
791.603	319.34
791.997	279.55
792.39	324.02
792.783	352.1
793.176	333.38
793.569	326.36
793.962	305.29
794.355	384.87
794.748	295.93
795.141	328.7
795.534	338.06
795.927	291.25
796.319	293.59
796.712	258.48
797.105	307.63
797.497	302.95
797.89	288.91
798.282	302.95
798.674	319.34
799.067	286.57
799.459	256.14
799.851	305.29
800.243	298.27
800.635	331.04
801.027	347.42
801.419	298.27
801.811	338.06
802.203	300.61
802.594	256.14
802.986	242.1
803.378	291.25
803.769	354.44
804.161	265.5
804.552	232.74
804.944	338.06
805.335	260.82
805.726	314.66
806.118	321.68
806.509	291.25
806.9	317
807.291	216.35
807.682	244.44
808.073	293.59
808.464	298.27
808.855	263.16
809.245	302.95
809.636	298.27
810.027	340.4
810.417	300.61
810.808	284.23
811.198	298.27
811.589	267.85
811.979	256.14
812.369	279.55
812.759	298.27
813.15	333.38
813.54	305.29
813.93	354.44
814.32	338.06
814.71	328.7
815.1	295.93
815.489	272.53
815.879	291.25
816.269	331.04
816.658	335.72
817.048	295.93
817.438	312.32
817.827	302.95
818.216	274.87
818.606	291.25
818.995	328.7
819.384	335.72
819.773	298.27
820.163	298.27
820.552	321.68
820.941	312.32
821.33	309.97
821.718	258.48
822.107	338.06
822.496	293.59
822.885	326.36
823.273	307.63
823.662	272.53
824.05	274.87
824.439	218.69
824.827	286.57
825.216	295.93
825.604	317
825.992	331.04
826.38	354.44
826.768	286.57
827.156	216.35
827.544	309.97
827.932	279.55
828.32	267.85
828.708	305.29
829.096	363.81
829.483	288.91
829.871	314.66
830.259	295.93
830.646	375.51
831.034	272.53
831.421	309.97
831.808	267.85
832.196	244.44
832.583	288.91
832.97	307.63
833.357	326.36
833.744	305.29
834.131	326.36
834.518	342.74
834.905	338.06
835.292	291.25
835.678	356.79
836.065	352.1
836.452	300.61
836.838	307.63
837.225	288.91
837.611	256.14
837.998	300.61
838.384	312.32
838.77	235.08
839.157	305.29
839.543	288.91
839.929	279.55
840.315	298.27
840.701	284.23
841.087	305.29
841.473	300.61
841.858	352.1
842.244	309.97
842.63	331.04
843.015	281.89
843.401	625.95
843.787	370.83
844.172	326.36
844.557	298.27
844.943	321.68
845.328	277.21
845.713	244.44
846.098	300.61
846.483	314.66
846.868	317
847.253	319.34
847.638	345.08
848.023	279.55
848.408	277.21
848.793	281.89
849.177	223.37
849.562	281.89
849.947	324.02
850.331	295.93
850.715	307.63
851.1	356.79
851.484	279.55
851.868	324.02
852.253	333.38
852.637	324.02
853.021	246.78
853.405	314.66
853.789	309.97
854.173	286.57
854.557	300.61
854.94	321.68
855.324	324.02
855.708	256.14
856.091	319.34
856.475	349.76
856.858	279.55
857.242	305.29
857.625	349.76
858.009	326.36
858.392	363.81
858.775	319.34
859.158	258.48
859.541	438.7
859.924	309.97
860.307	328.7
860.69	354.44
861.073	300.61
861.456	361.47
861.838	293.59
862.221	279.55
862.604	333.38
862.986	288.91
863.369	319.34
863.751	331.04
864.133	253.8
864.516	253.8
864.898	342.74
865.28	335.72
865.662	232.74
866.044	331.04
866.426	321.68
866.808	244.44
867.19	338.06
867.572	300.61
867.954	321.68
868.336	331.04
868.717	232.74
869.099	293.59
869.48	340.4
869.862	307.63
870.243	317
870.625	286.57
871.006	284.23
871.387	326.36
871.768	324.02
872.149	305.29
872.53	286.57
872.911	340.4
873.292	305.29
873.673	277.21
874.054	267.85
874.435	286.57
874.815	335.72
875.196	295.93
875.577	338.06
875.957	319.34
876.338	300.61
876.718	309.97
877.098	249.12
877.479	359.13
877.859	284.23
878.239	265.5
878.619	298.27
878.999	277.21
879.379	326.36
879.759	274.87
880.139	312.32
880.519	305.29
880.898	300.61
881.278	295.93
881.658	274.87
882.037	274.87
882.417	333.38
882.796	331.04
883.176	309.97
883.555	293.59
883.934	279.55
884.313	324.02
884.693	307.63
885.072	284.23
885.451	307.63
885.83	263.16
886.209	347.42
886.587	333.38
886.966	373.17
887.345	295.93
887.724	298.27
888.102	251.46
888.481	324.02
888.859	328.7
889.238	263.16
889.616	305.29
889.994	295.93
890.373	319.34
890.751	302.95
891.129	321.68
891.507	225.72
891.885	305.29
892.263	260.82
892.641	288.91
893.019	335.72
893.396	288.91
893.774	291.25
894.152	352.1
894.529	291.25
894.907	319.34
895.284	324.02
895.662	260.82
896.039	328.7
896.416	331.04
896.794	368.49
897.171	324.02
897.548	305.29
897.925	274.87
898.302	288.91
898.679	340.4
899.056	286.57
899.433	295.93
899.809	302.95
900.186	342.74
900.563	326.36
900.939	324.02
901.316	309.97
901.692	274.87
902.069	305.29
902.445	347.42
902.821	389.55
903.197	293.59
903.574	312.32
903.95	305.29
904.326	312.32
904.702	295.93
905.078	288.91
905.454	335.72
905.829	314.66
906.205	302.95
906.581	319.34
906.956	277.21
907.332	324.02
907.707	328.7
908.083	331.04
908.458	302.95
908.833	347.42
909.209	314.66
909.584	260.82
909.959	317
910.334	293.59
910.709	293.59
911.084	361.47
911.459	324.02
911.834	319.34
912.209	265.5
912.583	256.14
912.958	286.57
913.333	291.25
913.707	307.63
914.082	265.5
914.456	317
914.83	305.29
915.205	293.59
915.579	277.21
915.953	302.95
916.327	305.29
916.701	305.29
917.075	302.95
917.449	267.85
917.823	298.27
918.197	286.57
918.571	333.38
918.944	317
919.318	235.08
919.692	277.21
920.065	291.25
920.438	258.48
920.812	286.57
921.185	345.08
921.558	281.89
921.932	270.19
922.305	333.38
922.678	267.85
923.051	253.8
923.424	284.23
923.797	291.25
924.17	277.21
924.542	258.48
924.915	321.68
925.288	274.87
925.661	274.87
926.033	309.97
926.406	267.85
926.778	284.23
927.15	312.32
927.523	279.55
927.895	377.85
928.267	314.66
928.639	317
929.011	302.95
929.383	333.38
929.755	260.82
930.127	281.89
930.499	291.25
930.871	288.91
931.242	333.38
931.614	314.66
931.986	260.82
932.357	326.36
932.729	324.02
933.1	291.25
933.471	305.29
933.843	249.12
934.214	319.34
934.585	277.21
934.956	340.4
935.327	338.06
935.698	263.16
936.069	340.4
936.44	324.02
936.811	331.04
937.182	246.78
937.552	349.76
937.923	293.59
938.293	263.16
938.664	270.19
939.034	293.59
939.405	298.27
939.775	335.72
940.145	284.23
940.516	291.25
940.886	321.68
941.256	305.29
941.626	328.7
941.996	293.59
942.366	293.59
942.735	321.68
943.105	314.66
943.475	302.95
943.845	288.91
944.214	302.95
944.584	288.91
944.953	281.89
945.323	312.32
945.692	380.19
946.061	387.21
946.43	281.89
946.8	223.37
947.169	321.68
947.538	286.57
947.907	359.13
948.276	293.59
948.645	277.21
949.013	288.91
949.382	239.76
949.751	302.95
950.119	293.59
950.488	295.93
950.857	300.61
951.225	286.57
951.593	246.78
951.962	363.81
952.33	277.21
952.698	326.36
953.066	295.93
953.434	293.59
953.802	281.89
954.17	244.44
954.538	263.16
954.906	300.61
955.274	293.59
955.642	307.63
956.009	251.46
956.377	312.32
956.744	256.14
957.112	307.63
957.479	361.47
957.847	258.48
958.214	373.17
958.581	302.95
958.948	319.34
959.315	258.48
959.683	305.29
960.05	324.02
960.416	293.59
960.783	307.63
961.15	309.97
961.517	324.02
961.884	305.29
962.25	242.1
962.617	309.97
962.983	340.4
963.35	300.61
963.716	324.02
964.082	333.38
964.449	256.14
964.815	260.82
965.181	293.59
965.547	295.93
965.913	286.57
966.279	284.23
966.645	342.74
967.011	279.55
967.377	272.53
967.742	342.74
968.108	288.91
968.474	352.1
968.839	300.61
969.205	260.82
969.57	314.66
969.935	263.16
970.301	342.74
970.666	326.36
971.031	305.29
971.396	295.93
971.761	279.55
972.126	267.85
972.491	291.25
972.856	356.79
973.221	324.02
973.586	286.57
973.95	319.34
974.315	302.95
974.679	265.5
975.044	272.53
975.408	225.72
975.773	331.04
976.137	368.49
976.501	345.08
976.866	270.19
977.23	302.95
977.594	302.95
977.958	321.68
978.322	300.61
978.686	328.7
979.049	270.19
979.413	321.68
979.777	340.4
980.141	321.68
980.504	270.19
980.868	295.93
981.231	284.23
981.595	223.37
981.958	274.87
982.321	305.29
982.684	305.29
983.048	331.04
983.411	356.79
983.774	312.32
984.137	253.8
984.5	352.1
984.862	279.55
985.225	349.76
985.588	279.55
985.951	307.63
986.313	328.7
986.676	319.34
987.038	345.08
987.401	328.7
987.763	216.35
988.125	251.46
988.488	326.36
988.85	314.66
989.212	321.68
989.574	246.78
989.936	267.85
990.298	305.29
990.66	291.25
991.022	265.5
991.383	260.82
991.745	267.85
992.107	328.7
992.468	317
992.83	391.89
993.191	281.89
993.553	244.44
993.914	209.33
994.275	281.89
994.637	267.85
994.998	256.14
995.359	293.59
995.72	265.5
996.081	312.32
996.442	333.38
996.803	288.91
997.163	288.91
997.524	354.44
997.885	302.95
998.245	277.21
998.606	291.25
998.966	305.29
999.327	281.89
999.687	260.82
1000.047	319.34
1000.408	302.95
1000.768	281.89
1001.128	349.76
1001.488	277.21
1001.848	335.72
1002.208	331.04
1002.568	363.81
1002.927	331.04
1003.287	281.89
1003.647	314.66
1004.007	256.14
1004.366	295.93
1004.726	288.91
1005.085	251.46
1005.444	338.06
1005.804	307.63
1006.163	291.25
1006.522	286.57
1006.881	324.02
1007.24	260.82
1007.599	305.29
1007.958	345.08
1008.317	253.8
1008.676	324.02
1009.035	281.89
1009.393	286.57
1009.752	333.38
1010.111	359.13
1010.469	300.61
1010.828	260.82
1011.186	300.61
1011.544	338.06
1011.903	293.59
1012.261	317
1012.619	328.7
1012.977	326.36
1013.335	326.36
1013.693	284.23
1014.051	333.38
1014.409	317
1014.767	263.16
1015.124	267.85
1015.482	321.68
1015.84	300.61
1016.197	286.57
1016.555	284.23
1016.912	249.12
1017.269	251.46
1017.627	312.32
1017.984	338.06
1018.341	317
1018.698	309.97
1019.055	244.44
1019.412	312.32
1019.769	260.82
1020.126	239.76
1020.483	293.59
1020.84	317
1021.196	331.04
1021.553	319.34
1021.909	272.53
1022.266	265.5
1022.622	291.25
1022.979	349.76
1023.335	335.72
1023.691	331.04
1024.047	293.59
1024.404	312.32
1024.76	279.55
1025.116	300.61
1025.472	284.23
1025.827	326.36
1026.183	359.13
1026.539	244.44
1026.895	340.4
1027.25	279.55
1027.606	342.74
1027.961	279.55
1028.317	368.49
1028.672	302.95
1029.028	361.47
1029.383	338.06
1029.738	249.12
1030.093	302.95
1030.448	274.87
1030.803	291.25
1031.158	307.63
1031.513	356.79
1031.868	349.76
1032.223	326.36
1032.577	326.36
1032.932	253.8
1033.287	284.23
1033.641	246.78
1033.996	309.97
1034.35	309.97
1034.704	270.19
1035.059	335.72
1035.413	260.82
1035.767	260.82
1036.121	260.82
