Data from Al_FLMS009871__632__14-49-13-012.txt Node

Date: Fri Mar 08 14:49:13 CST 2024
User: pe5414po
Spectrometer: FLMS00987
Trigger mode: 0
Integration Time (sec): 1.000000E-1
Scans to average: 1
Electric dark correction enabled: true
Nonlinearity correction enabled: false
Boxcar width: 0
XAxis mode: Wavelengths
Number of Pixels in Spectrum: 2048
>>>>>Begin Spectral Data<<<<<
188.938	-44.18
189.409	-44.18
189.879	-44.18
190.349	-79.29
190.819	-72.26
191.29	-109.71
191.76	-135.46
192.23	-102.69
192.7	-109.71
193.17	-53.54
193.64	-67.58
194.109	-16.09
194.579	4.97
195.049	-16.09
195.519	49.44
195.988	70.51
196.458	30.72
196.927	96.25
197.397	100.94
197.866	114.98
198.336	143.07
198.805	199.24
199.274	171.15
199.744	178.17
200.213	255.41
200.682	185.19
201.151	208.6
201.62	236.69
202.089	253.07
202.558	264.77
203.027	281.16
203.495	288.18
203.964	325.63
204.433	253.07
204.902	241.37
205.37	332.65
205.839	356.05
206.307	327.97
206.776	327.97
207.244	299.88
207.712	246.05
208.181	281.16
208.649	309.24
209.117	285.84
209.585	290.52
210.053	283.5
210.521	318.61
210.989	248.39
211.457	274.14
211.925	271.79
212.393	250.73
212.861	299.88
213.328	302.22
213.796	297.54
214.264	285.84
214.731	243.71
215.199	281.16
215.666	264.77
216.133	299.88
216.601	306.9
217.068	257.75
217.535	290.52
218.003	367.76
218.47	243.71
218.937	224.98
219.404	241.37
219.871	243.71
220.338	208.6
220.805	285.84
221.271	332.65
221.738	262.43
222.205	290.52
222.671	236.69
223.138	255.41
223.605	246.05
224.071	327.97
224.538	285.84
225.004	227.32
225.47	241.37
225.937	260.09
226.403	253.07
226.869	297.54
227.335	260.09
227.801	253.07
228.267	323.29
228.733	332.65
229.199	234.35
229.665	342.01
230.131	253.07
230.597	199.24
231.062	236.69
231.528	210.94
231.994	292.86
232.459	351.37
232.925	278.82
233.39	246.05
233.856	311.58
234.321	208.6
234.786	278.82
235.252	262.43
235.717	306.9
236.182	292.86
236.647	302.22
237.112	271.79
237.577	299.88
238.042	290.52
238.507	274.14
238.972	292.86
239.436	309.24
239.901	299.88
240.366	276.48
240.83	274.14
241.295	260.09
241.76	342.01
242.224	365.42
242.688	269.45
243.153	330.31
243.617	271.79
244.081	288.18
244.545	304.56
245.01	295.2
245.474	292.86
245.938	295.2
246.402	285.84
246.866	320.95
247.33	334.99
247.793	302.22
248.257	274.14
248.721	255.41
249.185	330.31
249.648	290.52
250.112	367.76
250.575	325.63
251.039	311.58
251.502	316.26
251.965	290.52
252.429	274.14
252.892	337.33
253.355	353.71
253.818	318.61
254.281	309.24
254.744	316.26
255.207	351.37
255.67	304.56
256.133	290.52
256.596	327.97
257.059	327.97
257.522	274.14
257.984	241.37
258.447	309.24
258.909	370.1
259.372	281.16
259.834	292.86
260.297	346.69
260.759	239.03
261.221	274.14
261.684	285.84
262.146	316.26
262.608	271.79
263.07	325.63
263.532	241.37
263.994	320.95
264.456	299.88
264.918	290.52
265.38	267.11
265.842	313.92
266.303	297.54
266.765	295.2
267.227	285.84
267.688	339.67
268.15	334.99
268.611	384.14
269.072	297.54
269.534	250.73
269.995	264.77
270.456	295.2
270.918	276.48
271.379	299.88
271.84	276.48
272.301	302.22
272.762	292.86
273.223	302.22
273.684	309.24
274.144	311.58
274.605	334.99
275.066	372.44
275.527	316.26
275.987	313.92
276.448	288.18
276.908	299.88
277.369	224.98
277.829	304.56
278.289	311.58
278.75	342.01
279.21	323.29
279.67	309.24
280.13	302.22
280.59	311.58
281.05	274.14
281.51	320.95
281.97	262.43
282.43	232.01
282.89	330.31
283.35	297.54
283.809	236.69
284.269	309.24
284.729	285.84
285.188	344.35
285.648	276.48
286.107	283.5
286.567	337.33
287.026	316.26
287.485	276.48
287.944	330.31
288.404	255.41
288.863	342.01
289.322	253.07
289.781	311.58
290.24	260.09
290.699	269.45
291.158	320.95
291.616	337.33
292.075	311.58
292.534	313.92
292.992	281.16
293.451	288.18
293.91	313.92
294.368	349.03
294.827	339.67
295.285	313.92
295.743	313.92
296.202	325.63
296.66	363.08
297.118	292.86
297.576	297.54
298.034	377.12
298.492	360.74
298.95	262.43
299.408	302.22
299.866	356.05
300.324	377.12
300.781	288.18
301.239	290.52
301.697	278.82
302.154	285.84
302.612	288.18
303.069	243.71
303.527	257.75
303.984	299.88
304.441	274.14
304.899	276.48
305.356	290.52
305.813	232.01
306.27	295.2
306.727	311.58
307.184	325.63
307.641	299.88
308.098	332.65
308.555	353.71
309.012	372.44
309.468	356.05
309.925	285.84
310.382	349.03
310.838	304.56
311.295	281.16
311.751	267.11
312.208	236.69
312.664	372.44
313.12	278.82
313.577	271.79
314.033	260.09
314.489	311.58
314.945	346.69
315.401	281.16
315.857	313.92
316.313	290.52
316.769	264.77
317.225	337.33
317.681	351.37
318.136	316.26
318.592	271.79
319.048	288.18
319.503	267.11
319.959	302.22
320.414	342.01
320.869	342.01
321.325	342.01
321.78	306.9
322.235	297.54
322.691	344.35
323.146	330.31
323.601	302.22
324.056	271.79
324.511	342.01
324.966	374.78
325.421	363.08
325.875	316.26
326.33	327.97
326.785	320.95
327.24	332.65
327.694	360.74
328.149	313.92
328.603	309.24
329.058	377.12
329.512	302.22
329.966	330.31
330.421	320.95
330.875	356.05
331.329	325.63
331.783	302.22
332.237	311.58
332.691	311.58
333.145	248.39
333.599	351.37
334.053	334.99
334.507	278.82
334.96	330.31
335.414	297.54
335.868	292.86
336.321	309.24
336.775	257.75
337.228	283.5
337.682	370.1
338.135	363.08
338.588	313.92
339.042	344.35
339.495	316.26
339.948	255.41
340.401	299.88
340.854	339.67
341.307	276.48
341.76	299.88
342.213	330.31
342.666	267.11
343.119	306.9
343.571	353.71
344.024	313.92
344.477	311.58
344.929	325.63
345.382	299.88
345.834	267.11
346.287	320.95
346.739	330.31
347.191	318.61
347.644	276.48
348.096	339.67
348.548	334.99
349	283.5
349.452	318.61
349.904	325.63
350.356	306.9
350.808	360.74
351.26	372.44
351.711	337.33
352.163	374.78
352.615	337.33
353.066	353.71
353.518	332.65
353.969	337.33
354.421	304.56
354.872	337.33
355.324	285.84
355.775	334.99
356.226	332.65
356.677	274.14
357.128	351.37
357.579	269.45
358.03	346.69
358.481	306.9
358.932	316.26
359.383	358.39
359.834	309.24
360.285	342.01
360.735	360.74
361.186	309.24
361.637	344.35
362.087	323.29
362.538	325.63
362.988	316.26
363.438	351.37
363.889	384.14
364.339	302.22
364.789	313.92
365.239	295.2
365.689	274.14
366.139	342.01
366.589	288.18
367.039	377.12
367.489	311.58
367.939	330.31
368.389	264.77
368.839	346.69
369.288	358.39
369.738	381.8
370.187	264.77
370.637	316.26
371.086	290.52
371.536	311.58
371.985	384.14
372.434	278.82
372.884	309.24
373.333	290.52
373.782	269.45
374.231	332.65
374.68	290.52
375.129	285.84
375.578	281.16
376.027	346.69
376.475	311.58
376.924	327.97
377.373	288.18
377.822	342.01
378.27	356.05
378.719	302.22
379.167	365.42
379.616	323.29
380.064	292.86
380.512	285.84
380.961	325.63
381.409	318.61
381.857	306.9
382.305	241.37
382.753	330.31
383.201	346.69
383.649	365.42
384.097	351.37
384.545	318.61
384.992	320.95
385.44	323.29
385.888	374.78
386.335	297.54
386.783	365.42
387.231	316.26
387.678	353.71
388.125	337.33
388.573	295.2
389.02	285.84
389.467	379.46
389.914	374.78
390.362	332.65
390.809	283.5
391.256	339.67
391.703	339.67
392.15	356.05
392.596	292.86
393.043	334.99
393.49	344.35
393.937	288.18
394.383	346.69
394.83	292.86
395.276	346.69
395.723	337.33
396.169	360.74
396.616	332.65
397.062	306.9
397.508	299.88
397.954	299.88
398.401	339.67
398.847	283.5
399.293	323.29
399.739	285.84
400.185	253.07
400.631	306.9
401.076	302.22
401.522	306.9
401.968	349.03
402.414	290.52
402.859	360.74
403.305	334.99
403.75	332.65
404.196	325.63
404.641	407.55
405.086	334.99
405.532	365.42
405.977	297.54
406.422	360.74
406.867	344.35
407.312	285.84
407.757	304.56
408.202	323.29
408.647	292.86
409.092	379.46
409.537	316.26
409.982	349.03
410.426	349.03
410.871	363.08
411.316	316.26
411.76	304.56
412.205	349.03
412.649	302.22
413.093	323.29
413.538	295.2
413.982	320.95
414.426	311.58
414.87	274.14
415.314	325.63
415.758	339.67
416.202	349.03
416.646	278.82
417.09	349.03
417.534	309.24
417.978	246.05
418.421	334.99
418.865	337.33
419.309	292.86
419.752	374.78
420.196	344.35
420.639	299.88
421.083	313.92
421.526	325.63
421.969	379.46
422.412	276.48
422.856	393.5
423.299	325.63
423.742	346.69
424.185	344.35
424.628	334.99
425.071	295.2
425.513	346.69
425.956	309.24
426.399	299.88
426.842	299.88
427.284	320.95
427.727	323.29
428.169	323.29
428.612	318.61
429.054	384.14
429.497	334.99
429.939	316.26
430.381	349.03
430.823	342.01
431.265	327.97
431.707	323.29
432.149	337.33
432.591	316.26
433.033	386.48
433.475	398.18
433.917	344.35
434.359	327.97
434.8	313.92
435.242	344.35
435.684	344.35
436.125	342.01
436.567	309.24
437.008	330.31
437.449	304.56
437.891	285.84
438.332	292.86
438.773	304.56
439.214	367.76
439.656	297.54
440.097	330.31
440.538	320.95
440.978	297.54
441.419	344.35
441.86	304.56
442.301	334.99
442.742	372.44
443.182	379.46
443.623	327.97
444.063	330.31
444.504	356.05
444.944	318.61
445.385	334.99
445.825	281.16
446.265	278.82
446.706	360.74
447.146	299.88
447.586	332.65
448.026	365.42
448.466	327.97
448.906	334.99
449.346	388.82
449.786	353.71
450.225	299.88
450.665	337.33
451.105	332.65
451.544	353.71
451.984	318.61
452.424	393.5
452.863	318.61
453.302	334.99
453.742	323.29
454.181	342.01
454.62	271.79
455.059	313.92
455.499	290.52
455.938	325.63
456.377	302.22
456.816	309.24
457.254	330.31
457.693	360.74
458.132	290.52
458.571	339.67
459.01	313.92
459.448	278.82
459.887	363.08
460.325	323.29
460.764	339.67
461.202	381.8
461.641	318.61
462.079	295.2
462.517	306.9
462.955	297.54
463.393	313.92
463.832	370.1
464.27	372.44
464.708	318.61
465.145	379.46
465.583	325.63
466.021	316.26
466.459	365.42
466.897	351.37
467.334	306.9
467.772	281.16
468.209	356.05
468.647	346.69
469.084	297.54
469.522	295.2
469.959	356.05
470.396	360.74
470.833	215.62
471.271	360.74
471.708	334.99
472.145	327.97
472.582	316.26
473.019	253.07
473.456	292.86
473.892	346.69
474.329	332.65
474.766	337.33
475.202	393.5
475.639	250.73
476.076	351.37
476.512	320.95
476.949	271.79
477.385	299.88
477.821	304.56
478.258	269.45
478.694	297.54
479.13	379.46
479.566	299.88
480.002	302.22
480.438	323.29
480.874	351.37
481.31	367.76
481.746	290.52
482.181	377.12
482.617	288.18
483.053	395.84
483.488	325.63
483.924	304.56
484.36	358.39
484.795	374.78
485.23	311.58
485.666	342.01
486.101	358.39
486.536	353.71
486.971	342.01
487.407	316.26
487.842	306.9
488.277	306.9
488.712	374.78
489.146	325.63
489.581	351.37
490.016	327.97
490.451	276.48
490.885	346.69
491.32	313.92
491.755	363.08
492.189	360.74
492.624	349.03
493.058	239.03
493.492	264.77
493.927	346.69
494.361	325.63
494.795	334.99
495.229	269.45
495.663	349.03
496.097	407.55
496.531	346.69
496.965	323.29
497.399	337.33
497.833	349.03
498.266	306.9
498.7	346.69
499.134	339.67
499.567	327.97
500.001	395.84
500.434	342.01
500.868	323.29
501.301	358.39
501.734	332.65
502.168	363.08
502.601	349.03
503.034	297.54
503.467	349.03
503.9	330.31
504.333	342.01
504.766	278.82
505.199	360.74
505.632	358.39
506.064	288.18
506.497	381.8
506.93	285.84
507.362	302.22
507.795	311.58
508.227	290.52
508.66	337.33
509.092	334.99
509.524	320.95
509.956	325.63
510.389	332.65
510.821	365.42
511.253	318.61
511.685	311.58
512.117	271.79
512.549	405.21
512.981	332.65
513.412	365.42
513.844	311.58
514.276	342.01
514.707	316.26
515.139	334.99
515.571	337.33
516.002	358.39
516.433	381.8
516.865	332.65
517.296	351.37
517.727	370.1
518.159	283.5
518.59	323.29
519.021	395.84
519.452	325.63
519.883	367.76
520.314	358.39
520.744	278.82
521.175	325.63
521.606	299.88
522.037	320.95
522.467	363.08
522.898	384.14
523.328	309.24
523.759	337.33
524.189	353.71
524.62	332.65
525.05	304.56
525.48	313.92
525.91	402.86
526.341	295.2
526.771	325.63
527.201	311.58
527.631	325.63
528.061	337.33
528.49	278.82
528.92	267.11
529.35	288.18
529.78	262.43
530.209	356.05
530.639	351.37
531.068	311.58
531.498	351.37
531.927	299.88
532.357	318.61
532.786	330.31
533.215	372.44
533.644	297.54
534.074	379.46
534.503	323.29
534.932	320.95
535.361	351.37
535.79	365.42
536.218	358.39
536.647	339.67
537.076	330.31
537.505	353.71
537.933	360.74
538.362	367.76
538.79	353.71
539.219	409.89
539.647	304.56
540.076	339.67
540.504	367.76
540.932	398.18
541.36	295.2
541.788	377.12
542.217	344.35
542.645	260.09
543.073	325.63
543.5	306.9
543.928	302.22
544.356	267.11
544.784	356.05
545.211	342.01
545.639	309.24
546.067	325.63
546.494	320.95
546.922	332.65
547.349	325.63
547.776	281.16
548.204	290.52
548.631	349.03
549.058	306.9
549.485	285.84
549.912	351.37
550.339	346.69
550.766	334.99
551.193	337.33
551.62	255.41
552.047	367.76
552.474	276.48
552.9	393.5
553.327	304.56
553.754	320.95
554.18	297.54
554.607	372.44
555.033	313.92
555.459	297.54
555.886	306.9
556.312	360.74
556.738	374.78
557.164	264.77
557.59	304.56
558.016	276.48
558.442	297.54
558.868	323.29
559.294	325.63
559.72	306.9
560.145	330.31
560.571	295.2
560.997	320.95
561.422	342.01
561.848	313.92
562.273	330.31
562.699	241.37
563.124	334.99
563.549	334.99
563.974	302.22
564.4	306.9
564.825	346.69
565.25	327.97
565.675	337.33
566.1	344.35
566.525	323.29
566.95	346.69
567.374	313.92
567.799	351.37
568.224	374.78
568.648	349.03
569.073	346.69
569.497	278.82
569.922	339.67
570.346	276.48
570.771	241.37
571.195	412.23
571.619	299.88
572.043	358.39
572.467	311.58
572.891	276.48
573.315	295.2
573.739	299.88
574.163	334.99
574.587	386.48
575.011	363.08
575.435	316.26
575.858	342.01
576.282	402.86
576.705	311.58
577.129	337.33
577.552	393.5
577.976	288.18
578.399	285.84
578.822	344.35
579.245	346.69
579.669	248.39
580.092	346.69
580.515	349.03
580.938	388.82
581.361	295.2
581.784	274.14
582.206	313.92
582.629	353.71
583.052	320.95
583.474	311.58
583.897	391.16
584.32	278.82
584.742	318.61
585.165	325.63
585.587	334.99
586.009	323.29
586.431	323.29
586.854	337.33
587.276	342.01
587.698	342.01
588.12	391.16
588.542	269.45
588.964	327.97
589.386	325.63
589.807	292.86
590.229	374.78
590.651	342.01
591.073	356.05
591.494	327.97
591.916	320.95
592.337	281.16
592.759	278.82
593.18	337.33
593.601	295.2
594.022	311.58
594.444	309.24
594.865	337.33
595.286	267.11
595.707	339.67
596.128	334.99
596.549	299.88
596.97	356.05
597.39	316.26
597.811	292.86
598.232	342.01
598.652	402.86
599.073	313.92
599.494	262.43
599.914	349.03
600.334	320.95
600.755	365.42
601.175	344.35
601.595	290.52
602.015	316.26
602.436	311.58
602.856	360.74
603.276	351.37
603.696	356.05
604.115	332.65
604.535	325.63
604.955	283.5
605.375	306.9
605.794	323.29
606.214	339.67
606.634	318.61
607.053	349.03
607.473	323.29
607.892	316.26
608.311	325.63
608.731	267.11
609.15	320.95
609.569	297.54
609.988	327.97
610.407	342.01
610.826	367.76
611.245	334.99
611.664	313.92
612.083	342.01
612.501	386.48
612.92	320.95
613.339	337.33
613.757	330.31
614.176	320.95
614.594	330.31
615.013	274.14
615.431	299.88
615.85	344.35
616.268	316.26
616.686	372.44
617.104	269.45
617.522	267.11
617.94	318.61
618.358	323.29
618.776	327.97
619.194	313.92
619.612	288.18
620.03	342.01
620.447	297.54
620.865	346.69
621.282	334.99
621.7	313.92
622.117	381.8
622.535	332.65
622.952	327.97
623.369	318.61
623.787	320.95
624.204	309.24
624.621	358.39
625.038	379.46
625.455	351.37
625.872	306.9
626.289	309.24
626.706	292.86
627.123	316.26
627.539	339.67
627.956	360.74
628.373	313.92
628.789	339.67
629.206	323.29
629.622	349.03
630.038	334.99
630.455	349.03
630.871	311.58
631.287	306.9
631.703	283.5
632.12	360.74
632.536	363.08
632.952	306.9
633.368	281.16
633.783	377.12
634.199	372.44
634.615	304.56
635.031	295.2
635.446	276.48
635.862	391.16
636.277	290.52
636.693	320.95
637.108	372.44
637.524	311.58
637.939	318.61
638.354	356.05
638.77	288.18
639.185	379.46
639.6	297.54
640.015	327.97
640.43	384.14
640.845	356.05
641.259	363.08
641.674	374.78
642.089	332.65
642.504	342.01
642.918	360.74
643.333	309.24
643.747	342.01
644.162	334.99
644.576	330.31
644.991	264.77
645.405	323.29
645.819	325.63
646.233	337.33
646.647	377.12
647.061	330.31
647.475	353.71
647.889	313.92
648.303	295.2
648.717	363.08
649.131	381.8
649.545	342.01
649.958	325.63
650.372	372.44
650.785	365.42
651.199	323.29
651.612	367.76
652.026	304.56
652.439	332.65
652.852	365.42
653.266	292.86
653.679	349.03
654.092	353.71
654.505	302.22
654.918	370.1
655.331	283.5
655.744	297.54
656.156	360.74
656.569	278.82
656.982	372.44
657.394	306.9
657.807	346.69
658.22	320.95
658.632	281.16
659.044	327.97
659.457	281.16
659.869	388.82
660.281	330.31
660.693	388.82
661.106	379.46
661.518	365.42
661.93	311.58
662.342	325.63
662.754	260.09
663.165	363.08
663.577	309.24
663.989	241.37
664.401	313.92
664.812	398.18
665.224	309.24
665.635	276.48
666.047	290.52
666.458	339.67
666.869	297.54
667.281	304.56
667.692	344.35
668.103	271.79
668.514	367.76
668.925	304.56
669.336	358.39
669.747	388.82
670.158	374.78
670.569	358.39
670.979	297.54
671.39	349.03
671.801	344.35
672.211	351.37
672.622	316.26
673.032	365.42
673.443	274.14
673.853	332.65
674.263	391.16
674.674	337.33
675.084	313.92
675.494	377.12
675.904	283.5
676.314	276.48
676.724	360.74
677.134	269.45
677.544	325.63
677.953	302.22
678.363	358.39
678.773	409.89
679.182	323.29
679.592	327.97
680.001	302.22
680.411	283.5
680.82	295.2
681.23	292.86
681.639	351.37
682.048	409.89
682.457	334.99
682.866	358.39
683.275	316.26
683.684	283.5
684.093	299.88
684.502	323.29
684.911	386.48
685.32	290.52
685.728	334.99
686.137	379.46
686.546	330.31
686.954	297.54
687.363	379.46
687.771	318.61
688.179	325.63
688.588	414.57
688.996	313.92
689.404	297.54
689.812	295.2
690.22	365.42
690.628	353.71
691.036	302.22
691.444	342.01
691.852	316.26
692.26	337.33
692.667	276.48
693.075	302.22
693.483	339.67
693.89	290.52
694.298	393.5
694.705	339.67
695.112	400.52
695.52	330.31
695.927	299.88
696.334	337.33
696.741	358.39
697.148	318.61
697.555	297.54
697.962	304.56
698.369	346.69
698.776	334.99
699.183	304.56
699.59	337.33
699.996	325.63
700.403	313.92
700.81	299.88
701.216	339.67
701.623	337.33
702.029	323.29
702.435	367.76
702.842	351.37
703.248	311.58
703.654	309.24
704.06	334.99
704.466	330.31
704.872	320.95
705.278	316.26
705.684	337.33
706.09	374.78
706.496	344.35
706.901	260.09
707.307	346.69
707.712	346.69
708.118	327.97
708.523	346.69
708.929	327.97
709.334	365.42
709.74	346.69
710.145	313.92
710.55	295.2
710.955	360.74
711.36	271.79
711.765	313.92
712.17	316.26
712.575	330.31
712.98	835.86
713.385	412.23
713.789	349.03
714.194	337.33
714.599	358.39
715.003	339.67
715.408	318.61
715.812	306.9
716.217	346.69
716.621	334.99
717.025	325.63
717.429	318.61
717.833	356.05
718.238	281.16
718.642	468.4
719.046	323.29
719.449	342.01
719.853	323.29
720.257	295.2
720.661	318.61
721.065	292.86
721.468	330.31
721.872	363.08
722.275	288.18
722.679	365.42
723.082	349.03
723.485	377.12
723.889	281.16
724.292	356.05
724.695	323.29
725.098	349.03
725.501	353.71
725.904	309.24
726.307	318.61
726.71	297.54
727.113	344.35
727.516	365.42
727.918	313.92
728.321	323.29
728.724	351.37
729.126	365.42
729.529	332.65
729.931	269.45
730.333	353.71
730.736	334.99
731.138	295.2
731.54	358.39
731.942	323.29
732.344	285.84
732.746	290.52
733.148	320.95
733.55	353.71
733.952	395.84
734.354	278.82
734.756	295.2
735.157	339.67
735.559	346.69
735.96	325.63
736.362	281.16
736.763	395.84
737.165	236.69
737.566	304.56
737.967	360.74
738.368	290.52
738.77	246.05
739.171	344.35
739.572	302.22
739.973	358.39
740.374	276.48
740.774	302.22
741.175	384.14
741.576	339.67
741.977	391.16
742.377	311.58
742.778	302.22
743.178	323.29
743.579	330.31
743.979	290.52
744.379	391.16
744.78	339.67
745.18	330.31
745.58	264.77
745.98	332.65
746.38	295.2
746.78	297.54
747.18	311.58
747.58	334.99
747.98	320.95
748.38	292.86
748.779	318.61
749.179	302.22
749.578	327.97
749.978	264.77
750.377	334.99
750.777	285.84
751.176	405.21
751.575	346.69
751.975	283.5
752.374	327.97
752.773	339.67
753.172	302.22
753.571	384.14
753.97	330.31
754.369	332.65
754.768	316.26
755.166	344.35
755.565	342.01
755.964	344.35
756.362	367.76
756.761	351.37
757.159	271.79
757.558	288.18
757.956	384.14
758.354	349.03
758.753	274.14
759.151	313.92
759.549	360.74
759.947	318.61
760.345	306.9
760.743	278.82
761.141	264.77
761.539	330.31
761.936	327.97
762.334	337.33
762.732	290.52
763.129	306.9
763.527	325.63
763.924	332.65
764.322	299.88
764.719	318.61
765.117	332.65
765.514	318.61
765.911	316.26
766.308	351.37
766.705	342.01
767.102	349.03
767.499	313.92
767.896	313.92
768.293	325.63
768.69	311.58
769.086	274.14
769.483	414.57
769.88	292.86
770.276	323.29
770.673	288.18
771.069	349.03
771.466	330.31
771.862	353.71
772.258	288.18
772.654	257.75
773.05	381.8
773.447	363.08
773.843	318.61
774.239	346.69
774.634	269.45
775.03	365.42
775.426	295.2
775.822	323.29
776.218	281.16
776.613	365.42
777.009	407.55
777.404	344.35
777.8	316.26
778.195	351.37
778.59	281.16
778.986	306.9
779.381	257.75
779.776	309.24
780.171	306.9
780.566	346.69
780.961	239.03
781.356	363.08
781.751	271.79
782.146	309.24
782.54	351.37
782.935	334.99
783.33	281.16
783.724	299.88
784.119	304.56
784.513	217.96
784.908	309.24
785.302	342.01
785.696	356.05
786.09	306.9
786.485	334.99
786.879	365.42
787.273	334.99
787.667	299.88
788.061	346.69
788.454	318.61
788.848	262.43
789.242	323.29
789.636	342.01
790.029	309.24
790.423	262.43
790.816	360.74
791.21	349.03
791.603	334.99
791.997	299.88
792.39	285.84
792.783	339.67
793.176	330.31
793.569	327.97
793.962	299.88
794.355	320.95
794.748	306.9
795.141	330.31
795.534	346.69
795.927	337.33
796.319	316.26
796.712	309.24
797.105	372.44
797.497	346.69
797.89	313.92
798.282	416.91
798.674	356.05
799.067	351.37
799.459	299.88
799.851	330.31
800.243	297.54
800.635	304.56
801.027	306.9
801.419	267.11
801.811	292.86
802.203	370.1
802.594	320.95
802.986	271.79
803.378	278.82
803.769	377.12
804.161	320.95
804.552	297.54
804.944	332.65
805.335	318.61
805.726	306.9
806.118	325.63
806.509	342.01
806.9	330.31
807.291	281.16
807.682	337.33
808.073	332.65
808.464	358.39
808.855	339.67
809.245	267.11
809.636	267.11
810.027	339.67
810.417	316.26
810.808	311.58
811.198	316.26
811.589	386.48
811.979	349.03
812.369	356.05
812.759	358.39
813.15	346.69
813.54	269.45
813.93	349.03
814.32	365.42
814.71	320.95
815.1	342.01
815.489	332.65
815.879	344.35
816.269	313.92
816.658	363.08
817.048	349.03
817.438	349.03
817.827	271.79
818.216	334.99
818.606	309.24
818.995	302.22
819.384	325.63
819.773	407.55
820.163	360.74
820.552	309.24
820.941	325.63
821.33	327.97
821.718	311.58
822.107	325.63
822.496	327.97
822.885	243.71
823.273	342.01
823.662	288.18
824.05	285.84
824.439	313.92
824.827	299.88
825.216	367.76
825.604	295.2
825.992	297.54
826.38	306.9
826.768	313.92
827.156	320.95
827.544	311.58
827.932	374.78
828.32	267.11
828.708	278.82
829.096	297.54
829.483	292.86
829.871	295.2
830.259	349.03
830.646	318.61
831.034	290.52
831.421	302.22
831.808	311.58
832.196	372.44
832.583	370.1
832.97	365.42
833.357	316.26
833.744	297.54
834.131	327.97
834.518	334.99
834.905	332.65
835.292	365.42
835.678	267.11
836.065	285.84
836.452	342.01
836.838	363.08
837.225	332.65
837.611	325.63
837.998	344.35
838.384	330.31
838.77	276.48
839.157	311.58
839.543	379.46
839.929	290.52
840.315	311.58
840.701	316.26
841.087	278.82
841.473	264.77
841.858	290.52
842.244	311.58
842.63	290.52
843.015	318.61
843.401	583.09
843.787	346.69
844.172	283.5
844.557	309.24
844.943	342.01
845.328	302.22
845.713	327.97
846.098	246.05
846.483	365.42
846.868	306.9
847.253	283.5
847.638	313.92
848.023	334.99
848.408	313.92
848.793	346.69
849.177	330.31
849.562	250.73
849.947	271.79
850.331	297.54
850.715	360.74
851.1	283.5
851.484	384.14
851.868	346.69
852.253	281.16
852.637	330.31
853.021	367.76
853.405	351.37
853.789	309.24
854.173	318.61
854.557	316.26
854.94	311.58
855.324	325.63
855.708	346.69
856.091	313.92
856.475	271.79
856.858	297.54
857.242	257.75
857.625	342.01
858.009	358.39
858.392	299.88
858.775	351.37
859.158	349.03
859.541	377.12
859.924	353.71
860.307	313.92
860.69	320.95
861.073	358.39
861.456	283.5
861.838	313.92
862.221	274.14
862.604	320.95
862.986	349.03
863.369	311.58
863.751	325.63
864.133	325.63
864.516	381.8
864.898	250.73
865.28	316.26
865.662	309.24
866.044	332.65
866.426	304.56
866.808	285.84
867.19	253.07
867.572	346.69
867.954	330.31
868.336	358.39
868.717	334.99
869.099	412.23
869.48	388.82
869.862	334.99
870.243	325.63
870.625	327.97
871.006	318.61
871.387	288.18
871.768	290.52
872.149	313.92
872.53	323.29
872.911	379.46
873.292	309.24
873.673	309.24
874.054	288.18
874.435	339.67
874.815	320.95
875.196	304.56
875.577	304.56
875.957	285.84
876.338	250.73
876.718	311.58
877.098	344.35
877.479	274.14
877.859	391.16
878.239	365.42
878.619	344.35
878.999	304.56
879.379	344.35
879.759	337.33
880.139	281.16
880.519	304.56
880.898	377.12
881.278	304.56
881.658	285.84
882.037	323.29
882.417	255.41
882.796	358.39
883.176	320.95
883.555	302.22
883.934	278.82
884.313	363.08
884.693	311.58
885.072	316.26
885.451	358.39
885.83	360.74
886.209	332.65
886.587	344.35
886.966	323.29
887.345	311.58
887.724	344.35
888.102	288.18
888.481	388.82
888.859	349.03
889.238	320.95
889.616	332.65
889.994	290.52
890.373	288.18
890.751	325.63
891.129	353.71
891.507	316.26
891.885	318.61
892.263	351.37
892.641	323.29
893.019	309.24
893.396	318.61
893.774	379.46
894.152	288.18
894.529	349.03
894.907	276.48
895.284	393.5
895.662	344.35
896.039	346.69
896.416	386.48
896.794	278.82
897.171	276.48
897.548	342.01
897.925	281.16
898.302	311.58
898.679	304.56
899.056	302.22
899.433	297.54
899.809	337.33
900.186	306.9
900.563	320.95
900.939	339.67
901.316	337.33
901.692	267.11
902.069	346.69
902.445	316.26
902.821	292.86
903.197	374.78
903.574	334.99
903.95	332.65
904.326	342.01
904.702	320.95
905.078	356.05
905.454	342.01
905.829	316.26
906.205	297.54
906.581	260.09
906.956	299.88
907.332	311.58
907.707	276.48
908.083	285.84
908.458	313.92
908.833	370.1
909.209	311.58
909.584	297.54
909.959	325.63
910.334	339.67
910.709	306.9
911.084	344.35
911.459	327.97
911.834	374.78
912.209	297.54
912.583	295.2
912.958	304.56
913.333	285.84
913.707	318.61
914.082	407.55
914.456	297.54
914.83	358.39
915.205	334.99
915.579	332.65
915.953	302.22
916.327	285.84
916.701	278.82
917.075	271.79
917.449	288.18
917.823	302.22
918.197	311.58
918.571	327.97
918.944	327.97
919.318	309.24
919.692	358.39
920.065	306.9
920.438	206.26
920.812	332.65
921.185	388.82
921.558	302.22
921.932	370.1
922.305	356.05
922.678	236.69
923.051	330.31
923.424	320.95
923.797	358.39
924.17	309.24
924.542	283.5
924.915	283.5
925.288	330.31
925.661	311.58
926.033	370.1
926.406	255.41
926.778	269.45
927.15	311.58
927.523	292.86
927.895	292.86
928.267	297.54
928.639	318.61
929.011	269.45
929.383	349.03
929.755	367.76
930.127	356.05
930.499	313.92
930.871	402.86
931.242	288.18
931.614	311.58
931.986	393.5
932.357	395.84
932.729	327.97
933.1	327.97
933.471	358.39
933.843	346.69
934.214	325.63
934.585	337.33
934.956	285.84
935.327	316.26
935.698	309.24
936.069	276.48
936.44	323.29
936.811	330.31
937.182	351.37
937.552	351.37
937.923	339.67
938.293	241.37
938.664	297.54
939.034	358.39
939.405	344.35
939.775	316.26
940.145	253.07
940.516	351.37
940.886	349.03
941.256	290.52
941.626	327.97
941.996	346.69
942.366	381.8
942.735	311.58
943.105	313.92
943.475	271.79
943.845	309.24
944.214	234.35
944.584	311.58
944.953	320.95
945.323	337.33
945.692	318.61
946.061	281.16
946.43	339.67
946.8	330.31
947.169	327.97
947.538	384.14
947.907	356.05
948.276	377.12
948.645	395.84
949.013	323.29
949.382	271.79
949.751	304.56
950.119	358.39
950.488	306.9
950.857	358.39
951.225	332.65
951.593	278.82
951.962	292.86
952.33	304.56
952.698	283.5
953.066	255.41
953.434	346.69
953.802	377.12
954.17	292.86
954.538	330.31
954.906	320.95
955.274	374.78
955.642	302.22
956.009	311.58
956.377	274.14
956.744	292.86
957.112	276.48
957.479	339.67
957.847	260.09
958.214	306.9
958.581	316.26
958.948	334.99
959.315	297.54
959.683	402.86
960.05	356.05
960.416	356.05
960.783	313.92
961.15	281.16
961.517	276.48
961.884	309.24
962.25	337.33
962.617	292.86
962.983	346.69
963.35	311.58
963.716	337.33
964.082	374.78
964.449	339.67
964.815	299.88
965.181	297.54
965.547	356.05
965.913	332.65
966.279	246.05
966.645	379.46
967.011	281.16
967.377	281.16
967.742	344.35
968.108	316.26
968.474	316.26
968.839	332.65
969.205	243.71
969.57	360.74
969.935	323.29
970.301	327.97
970.666	334.99
971.031	299.88
971.396	349.03
971.761	339.67
972.126	309.24
972.491	318.61
972.856	346.69
973.221	316.26
973.586	330.31
973.95	313.92
974.315	276.48
974.679	220.3
975.044	351.37
975.408	320.95
975.773	330.31
976.137	260.09
976.501	260.09
976.866	292.86
977.23	372.44
977.594	377.12
977.958	262.43
978.322	299.88
978.686	320.95
979.049	360.74
979.413	311.58
979.777	323.29
980.141	374.78
980.504	358.39
980.868	367.76
981.231	297.54
981.595	349.03
981.958	248.39
982.321	292.86
982.684	325.63
983.048	290.52
983.411	288.18
983.774	297.54
984.137	255.41
984.5	248.39
984.862	281.16
985.225	318.61
985.588	276.48
985.951	302.22
986.313	325.63
986.676	327.97
987.038	323.29
987.401	349.03
987.763	344.35
988.125	257.75
988.488	309.24
988.85	241.37
989.212	344.35
989.574	318.61
989.936	325.63
990.298	267.11
990.66	313.92
991.022	370.1
991.383	351.37
991.745	262.43
992.107	330.31
992.468	302.22
992.83	353.71
993.191	311.58
993.553	393.5
993.914	339.67
994.275	344.35
994.637	304.56
994.998	353.71
995.359	295.2
995.72	297.54
996.081	318.61
996.442	339.67
996.803	327.97
997.163	386.48
997.524	318.61
997.885	327.97
998.245	311.58
998.606	239.03
998.966	264.77
999.327	281.16
999.687	304.56
1000.047	353.71
1000.408	316.26
1000.768	334.99
1001.128	356.05
1001.488	302.22
1001.848	313.92
1002.208	323.29
1002.568	332.65
1002.927	276.48
1003.287	264.77
1003.647	330.31
1004.007	325.63
1004.366	363.08
1004.726	344.35
1005.085	302.22
1005.444	367.76
1005.804	290.52
1006.163	318.61
1006.522	379.46
1006.881	386.48
1007.24	339.67
1007.599	327.97
1007.958	295.2
1008.317	288.18
1008.676	302.22
1009.035	297.54
1009.393	407.55
1009.752	349.03
1010.111	304.56
1010.469	260.09
1010.828	337.33
1011.186	344.35
1011.544	372.44
1011.903	274.14
1012.261	342.01
1012.619	323.29
1012.977	285.84
1013.335	276.48
1013.693	297.54
1014.051	349.03
1014.409	325.63
1014.767	339.67
1015.124	349.03
1015.482	304.56
1015.84	353.71
1016.197	285.84
1016.555	377.12
1016.912	292.86
1017.269	246.05
1017.627	365.42
1017.984	302.22
1018.341	292.86
1018.698	264.77
1019.055	339.67
1019.412	327.97
1019.769	320.95
1020.126	274.14
1020.483	283.5
1020.84	353.71
1021.196	318.61
1021.553	386.48
1021.909	409.89
1022.266	339.67
1022.622	276.48
1022.979	337.33
1023.335	264.77
1023.691	370.1
1024.047	269.45
1024.404	316.26
1024.76	304.56
1025.116	306.9
1025.472	302.22
1025.827	337.33
1026.183	309.24
1026.539	367.76
1026.895	365.42
1027.25	302.22
1027.606	337.33
1027.961	365.42
1028.317	330.31
1028.672	342.01
1029.028	311.58
1029.383	318.61
1029.738	318.61
1030.093	320.95
1030.448	278.82
1030.803	306.9
1031.158	281.16
1031.513	346.69
1031.868	306.9
1032.223	332.65
1032.577	356.05
1032.932	337.33
1033.287	323.29
1033.641	313.92
1033.996	316.26
1034.35	290.52
1034.704	356.05
1035.059	283.5
1035.413	320.95
1035.767	320.95
1036.121	320.95
