Data from Al_FLMS009871__638__14-49-13-612.txt Node

Date: Fri Mar 08 14:49:13 CST 2024
User: pe5414po
Spectrometer: FLMS00987
Trigger mode: 0
Integration Time (sec): 1.000000E-1
Scans to average: 1
Electric dark correction enabled: true
Nonlinearity correction enabled: false
Boxcar width: 0
XAxis mode: Wavelengths
Number of Pixels in Spectrum: 2048
>>>>>Begin Spectral Data<<<<<
188.938	-45.06
189.409	-45.06
189.879	-45.06
190.349	-110.59
190.819	-115.27
191.29	-155.06
191.76	-152.72
192.23	-33.35
192.7	-103.57
193.17	20.48
193.64	-75.48
194.109	1.76
194.579	-61.44
195.049	20.48
195.519	46.23
195.988	29.84
196.458	46.23
196.927	74.31
197.397	107.08
197.866	109.42
198.336	125.8
198.805	198.36
199.274	179.64
199.744	181.98
200.213	249.85
200.682	116.44
201.151	266.24
201.62	266.24
202.089	261.55
202.558	268.58
203.027	261.55
203.495	242.83
203.964	280.28
204.433	231.13
204.902	291.98
205.37	249.85
205.839	268.58
206.307	310.71
206.776	296.66
207.244	284.96
207.712	263.9
208.181	273.26
208.649	280.28
209.117	245.17
209.585	299
210.053	256.87
210.521	336.45
210.989	320.07
211.457	322.41
211.925	268.58
212.393	270.92
212.861	287.3
213.328	270.92
213.796	238.15
214.264	301.34
214.731	301.34
215.199	268.58
215.666	301.34
216.133	266.24
216.601	247.51
217.068	238.15
217.535	249.85
218.003	247.51
218.47	233.47
218.937	327.09
219.404	284.96
219.871	193.68
220.338	205.38
220.805	203.04
221.271	249.85
221.738	228.79
222.205	189
222.671	296.66
223.138	231.13
223.605	217.08
224.071	280.28
224.538	252.19
225.004	296.66
225.47	334.11
225.937	266.24
226.403	263.9
226.869	249.85
227.335	310.71
227.801	268.58
228.267	181.98
228.733	289.64
229.199	254.53
229.665	313.05
230.131	273.26
230.597	284.96
231.062	362.2
231.528	210.06
231.994	233.47
232.459	252.19
232.925	266.24
233.39	334.11
233.856	266.24
234.321	226.45
234.786	254.53
235.252	280.28
235.717	282.62
236.182	280.28
236.647	299
237.112	313.05
237.577	310.71
238.042	242.83
238.507	287.3
238.972	277.94
239.436	233.47
239.901	284.96
240.366	296.66
240.83	291.98
241.295	249.85
241.76	291.98
242.224	233.47
242.688	282.62
243.153	294.32
243.617	263.9
244.081	327.09
244.545	282.62
245.01	252.19
245.474	289.64
245.938	266.24
246.402	315.39
246.866	322.41
247.33	254.53
247.793	315.39
248.257	284.96
248.721	296.66
249.185	214.74
249.648	350.5
250.112	259.21
250.575	284.96
251.039	277.94
251.502	268.58
251.965	299
252.429	306.03
252.892	242.83
253.355	254.53
253.818	296.66
254.281	287.3
254.744	310.71
255.207	259.21
255.67	294.32
256.133	301.34
256.596	366.88
257.059	252.19
257.522	329.43
257.984	275.6
258.447	266.24
258.909	289.64
259.372	329.43
259.834	266.24
260.297	275.6
260.759	299
261.221	315.39
261.684	247.51
262.146	242.83
262.608	238.15
263.07	273.26
263.532	268.58
263.994	322.41
264.456	273.26
264.918	284.96
265.38	294.32
265.842	174.96
266.303	275.6
266.765	280.28
267.227	280.28
267.688	266.24
268.15	207.72
268.611	308.37
269.072	287.3
269.534	245.17
269.995	275.6
270.456	261.55
270.918	296.66
271.379	362.2
271.84	284.96
272.301	322.41
272.762	296.66
273.223	254.53
273.684	273.26
274.144	322.41
274.605	266.24
275.066	296.66
275.527	275.6
275.987	242.83
276.448	266.24
276.908	242.83
277.369	320.07
277.829	266.24
278.289	306.03
278.75	303.68
279.21	334.11
279.67	294.32
280.13	308.37
280.59	282.62
281.05	252.19
281.51	249.85
281.97	242.83
282.43	249.85
282.89	331.77
283.35	338.79
283.809	263.9
284.269	306.03
284.729	263.9
285.188	270.92
285.648	266.24
286.107	308.37
286.567	352.84
287.026	308.37
287.485	306.03
287.944	303.68
288.404	320.07
288.863	273.26
289.322	268.58
289.781	306.03
290.24	299
290.699	242.83
291.158	317.73
291.616	329.43
292.075	343.47
292.534	357.52
292.992	268.58
293.451	268.58
293.91	364.54
294.368	287.3
294.827	313.05
295.285	259.21
295.743	343.47
296.202	306.03
296.66	245.17
297.118	299
297.576	310.71
298.034	334.11
298.492	324.75
298.95	364.54
299.408	306.03
299.866	345.81
300.324	221.77
300.781	254.53
301.239	273.26
301.697	287.3
302.154	338.79
302.612	268.58
303.069	317.73
303.527	322.41
303.984	315.39
304.441	322.41
304.899	277.94
305.356	394.97
305.813	275.6
306.27	334.11
306.727	345.81
307.184	245.17
307.641	327.09
308.098	336.45
308.555	348.15
309.012	362.2
309.468	303.68
309.925	301.34
310.382	301.34
310.838	308.37
311.295	296.66
311.751	256.87
312.208	219.43
312.664	242.83
313.12	376.24
313.577	282.62
314.033	313.05
314.489	355.18
314.945	296.66
315.401	317.73
315.857	331.77
316.313	341.13
316.769	306.03
317.225	263.9
317.681	338.79
318.136	313.05
318.592	266.24
319.048	310.71
319.503	373.9
319.959	341.13
320.414	280.28
320.869	336.45
321.325	327.09
321.78	348.15
322.235	289.64
322.691	263.9
323.146	329.43
323.601	320.07
324.056	270.92
324.511	296.66
324.966	355.18
325.421	224.11
325.875	280.28
326.33	315.39
326.785	301.34
327.24	329.43
327.694	235.81
328.149	315.39
328.603	310.71
329.058	256.87
329.512	261.55
329.966	228.79
330.421	221.77
330.875	294.32
331.329	308.37
331.783	259.21
332.237	322.41
332.691	268.58
333.145	303.68
333.599	296.66
334.053	287.3
334.507	289.64
334.96	259.21
335.414	284.96
335.868	273.26
336.321	273.26
336.775	287.3
337.228	315.39
337.682	336.45
338.135	345.81
338.588	313.05
339.042	310.71
339.495	301.34
339.948	366.88
340.401	315.39
340.854	308.37
341.307	289.64
341.76	284.96
342.213	313.05
342.666	291.98
343.119	296.66
343.571	287.3
344.024	341.13
344.477	252.19
344.929	303.68
345.382	259.21
345.834	221.77
346.287	289.64
346.739	296.66
347.191	308.37
347.644	324.75
348.096	291.98
348.548	287.3
349	296.66
349.452	380.92
349.904	329.43
350.356	252.19
350.808	296.66
351.26	259.21
351.711	296.66
352.163	270.92
352.615	277.94
353.066	315.39
353.518	315.39
353.969	376.24
354.421	329.43
354.872	259.21
355.324	324.75
355.775	301.34
356.226	242.83
356.677	284.96
357.128	329.43
357.579	254.53
358.03	317.73
358.481	235.81
358.932	266.24
359.383	299
359.834	317.73
360.285	320.07
360.735	275.6
361.186	345.81
361.637	338.79
362.087	348.15
362.538	359.86
362.988	378.58
363.438	320.07
363.889	364.54
364.339	289.64
364.789	294.32
365.239	299
365.689	331.77
366.139	348.15
366.589	268.58
367.039	303.68
367.489	343.47
367.939	280.28
368.389	275.6
368.839	301.34
369.288	313.05
369.738	296.66
370.187	291.98
370.637	327.09
371.086	303.68
371.536	341.13
371.985	301.34
372.434	214.74
372.884	282.62
373.333	275.6
373.782	317.73
374.231	336.45
374.68	329.43
375.129	303.68
375.578	355.18
376.027	282.62
376.475	338.79
376.924	331.77
377.373	308.37
377.822	338.79
378.27	266.24
378.719	280.28
379.167	270.92
379.616	315.39
380.064	247.51
380.512	317.73
380.961	287.3
381.409	282.62
381.857	287.3
382.305	317.73
382.753	291.98
383.201	310.71
383.649	331.77
384.097	315.39
384.545	338.79
384.992	299
385.44	238.15
385.888	256.87
386.335	301.34
386.783	336.45
387.231	277.94
387.678	359.86
388.125	378.58
388.573	331.77
389.02	287.3
389.467	343.47
389.914	299
390.362	284.96
390.809	284.96
391.256	301.34
391.703	235.81
392.15	366.88
392.596	369.22
393.043	261.55
393.49	327.09
393.937	345.81
394.383	284.96
394.83	299
395.276	296.66
395.723	254.53
396.169	306.03
396.616	345.81
397.062	306.03
397.508	263.9
397.954	289.64
398.401	296.66
398.847	259.21
399.293	306.03
399.739	242.83
400.185	287.3
400.631	287.3
401.076	296.66
401.522	320.07
401.968	282.62
402.414	310.71
402.859	268.58
403.305	324.75
403.75	280.28
404.196	252.19
404.641	359.86
405.086	320.07
405.532	310.71
405.977	301.34
406.422	338.79
406.867	289.64
407.312	242.83
407.757	322.41
408.202	313.05
408.647	327.09
409.092	310.71
409.537	282.62
409.982	294.32
410.426	322.41
410.871	394.97
411.316	289.64
411.76	299
412.205	327.09
412.649	299
413.093	336.45
413.538	296.66
413.982	329.43
414.426	324.75
414.87	352.84
415.314	324.75
415.758	282.62
416.202	387.94
416.646	306.03
417.09	324.75
417.534	282.62
417.978	355.18
418.421	284.96
418.865	263.9
419.309	291.98
419.752	355.18
420.196	301.34
420.639	303.68
421.083	345.81
421.526	252.19
421.969	306.03
422.412	322.41
422.856	331.77
423.299	310.71
423.742	334.11
424.185	320.07
424.628	369.22
425.071	336.45
425.513	289.64
425.956	371.56
426.399	313.05
426.842	364.54
427.284	329.43
427.727	385.6
428.169	315.39
428.612	294.32
429.054	315.39
429.497	270.92
429.939	341.13
430.381	348.15
430.823	275.6
431.265	324.75
431.707	277.94
432.149	317.73
432.591	345.81
433.033	280.28
433.475	296.66
433.917	291.98
434.359	301.34
434.8	254.53
435.242	324.75
435.684	334.11
436.125	289.64
436.567	294.32
437.008	270.92
437.449	310.71
437.891	357.52
438.332	310.71
438.773	252.19
439.214	357.52
439.656	303.68
440.097	252.19
440.538	317.73
440.978	315.39
441.419	327.09
441.86	280.28
442.301	329.43
442.742	329.43
443.182	357.52
443.623	268.58
444.063	277.94
444.504	289.64
444.944	261.55
445.385	355.18
445.825	277.94
446.265	315.39
446.706	329.43
447.146	306.03
447.586	301.34
448.026	306.03
448.466	296.66
448.906	359.86
449.346	338.79
449.786	350.5
450.225	259.21
450.665	296.66
451.105	303.68
451.544	303.68
451.984	336.45
452.424	334.11
452.863	315.39
453.302	336.45
453.742	345.81
454.181	315.39
454.62	291.98
455.059	310.71
455.499	329.43
455.938	291.98
456.377	306.03
456.816	303.68
457.254	336.45
457.693	317.73
458.132	303.68
458.571	357.52
459.01	308.37
459.448	287.3
459.887	324.75
460.325	336.45
460.764	284.96
461.202	277.94
461.641	348.15
462.079	249.85
462.517	277.94
462.955	331.77
463.393	404.33
463.832	322.41
464.27	371.56
464.708	352.84
465.145	364.54
465.583	303.68
466.021	308.37
466.459	385.6
466.897	287.3
467.334	329.43
467.772	322.41
468.209	352.84
468.647	284.96
469.084	296.66
469.522	289.64
469.959	313.05
470.396	315.39
470.833	284.96
471.271	296.66
471.708	334.11
472.145	369.22
472.582	310.71
473.019	299
473.456	324.75
473.892	306.03
474.329	355.18
474.766	270.92
475.202	268.58
475.639	357.52
476.076	315.39
476.512	324.75
476.949	315.39
477.385	282.62
477.821	350.5
478.258	348.15
478.694	334.11
479.13	273.26
479.566	256.87
480.002	331.77
480.438	289.64
480.874	324.75
481.31	313.05
481.746	350.5
482.181	345.81
482.617	357.52
483.053	277.94
483.488	280.28
483.924	341.13
484.36	329.43
484.795	341.13
485.23	306.03
485.666	273.26
486.101	313.05
486.536	336.45
486.971	261.55
487.407	352.84
487.842	317.73
488.277	289.64
488.712	273.26
489.146	338.79
489.581	315.39
490.016	352.84
490.451	324.75
490.885	294.32
491.32	270.92
491.755	263.9
492.189	310.71
492.624	315.39
493.058	359.86
493.492	338.79
493.927	345.81
494.361	299
494.795	296.66
495.229	313.05
495.663	256.87
496.097	366.88
496.531	259.21
496.965	343.47
497.399	350.5
497.833	284.96
498.266	327.09
498.7	259.21
499.134	291.98
499.567	299
500.001	299
500.434	296.66
500.868	273.26
501.301	317.73
501.734	348.15
502.168	329.43
502.601	338.79
503.034	275.6
503.467	291.98
503.9	327.09
504.333	355.18
504.766	299
505.199	327.09
505.632	383.26
506.064	324.75
506.497	315.39
506.93	320.07
507.362	277.94
507.795	357.52
508.227	231.13
508.66	310.71
509.092	331.77
509.524	357.52
509.956	280.28
510.389	324.75
510.821	294.32
511.253	392.62
511.685	313.05
512.117	306.03
512.549	320.07
512.981	313.05
513.412	287.3
513.844	299
514.276	334.11
514.707	350.5
515.139	303.68
515.571	329.43
516.002	282.62
516.433	287.3
516.865	294.32
517.296	317.73
517.727	327.09
518.159	336.45
518.59	338.79
519.021	280.28
519.452	324.75
519.883	296.66
520.314	226.45
520.744	378.58
521.175	324.75
521.606	240.49
522.037	296.66
522.467	294.32
522.898	256.87
523.328	277.94
523.759	306.03
524.189	343.47
524.62	345.81
525.05	336.45
525.48	310.71
525.91	306.03
526.341	366.88
526.771	315.39
527.201	348.15
527.631	373.9
528.061	268.58
528.49	275.6
528.92	301.34
529.35	317.73
529.78	343.47
530.209	343.47
530.639	350.5
531.068	355.18
531.498	296.66
531.927	343.47
532.357	306.03
532.786	331.77
533.215	315.39
533.644	306.03
534.074	348.15
534.503	329.43
534.932	317.73
535.361	291.98
535.79	306.03
536.218	336.45
536.647	317.73
537.076	287.3
537.505	266.24
537.933	348.15
538.362	306.03
538.79	310.71
539.219	371.56
539.647	317.73
540.076	336.45
540.504	310.71
540.932	275.6
541.36	324.75
541.788	301.34
542.217	324.75
542.645	350.5
543.073	313.05
543.5	320.07
543.928	261.55
544.356	273.26
544.784	369.22
545.211	280.28
545.639	303.68
546.067	259.21
546.494	341.13
546.922	317.73
547.349	352.84
547.776	359.86
548.204	301.34
548.631	308.37
549.058	282.62
549.485	296.66
549.912	336.45
550.339	336.45
550.766	310.71
551.193	350.5
551.62	306.03
552.047	371.56
552.474	291.98
552.9	317.73
553.327	261.55
553.754	254.53
554.18	357.52
554.607	341.13
555.033	357.52
555.459	352.84
555.886	299
556.312	401.99
556.738	350.5
557.164	313.05
557.59	306.03
558.016	291.98
558.442	320.07
558.868	383.26
559.294	313.05
559.72	277.94
560.145	270.92
560.571	270.92
560.997	301.34
561.422	233.47
561.848	310.71
562.273	273.26
562.699	338.79
563.124	322.41
563.549	371.56
563.974	317.73
564.4	322.41
564.825	308.37
565.25	299
565.675	324.75
566.1	334.11
566.525	289.64
566.95	291.98
567.374	320.07
567.799	394.97
568.224	338.79
568.648	338.79
569.073	317.73
569.497	256.87
569.922	345.81
570.346	299
570.771	322.41
571.195	343.47
571.619	275.6
572.043	296.66
572.467	273.26
572.891	289.64
573.315	287.3
573.739	303.68
574.163	357.52
574.587	322.41
575.011	296.66
575.435	320.07
575.858	303.68
576.282	327.09
576.705	308.37
577.129	287.3
577.552	284.96
577.976	284.96
578.399	315.39
578.822	329.43
579.245	277.94
579.669	313.05
580.092	331.77
580.515	263.9
580.938	308.37
581.361	362.2
581.784	327.09
582.206	308.37
582.629	350.5
583.052	385.6
583.474	306.03
583.897	287.3
584.32	306.03
584.742	313.05
585.165	294.32
585.587	282.62
586.009	306.03
586.431	315.39
586.854	317.73
587.276	327.09
587.698	378.58
588.12	263.9
588.542	315.39
588.964	277.94
589.386	320.07
589.807	289.64
590.229	252.19
590.651	352.84
591.073	268.58
591.494	322.41
591.916	315.39
592.337	315.39
592.759	291.98
593.18	306.03
593.601	289.64
594.022	221.77
594.444	277.94
594.865	345.81
595.286	334.11
595.707	315.39
596.128	334.11
596.549	301.34
596.97	259.21
597.39	268.58
597.811	291.98
598.232	343.47
598.652	275.6
599.073	329.43
599.494	310.71
599.914	345.81
600.334	348.15
600.755	299
601.175	294.32
601.595	322.41
602.015	310.71
602.436	266.24
602.856	394.97
603.276	299
603.696	331.77
604.115	266.24
604.535	284.96
604.955	322.41
605.375	320.07
605.794	280.28
606.214	331.77
606.634	359.86
607.053	284.96
607.473	303.68
607.892	352.84
608.311	322.41
608.731	355.18
609.15	317.73
609.569	266.24
609.988	343.47
610.407	308.37
610.826	291.98
611.245	352.84
611.664	275.6
612.083	320.07
612.501	296.66
612.92	341.13
613.339	291.98
613.757	242.83
614.176	313.05
614.594	254.53
615.013	299
615.431	313.05
615.85	320.07
616.268	289.64
616.686	322.41
617.104	287.3
617.522	294.32
617.94	345.81
618.358	291.98
618.776	294.32
619.194	263.9
619.612	303.68
620.03	291.98
620.447	284.96
620.865	308.37
621.282	284.96
621.7	397.31
622.117	331.77
622.535	359.86
622.952	282.62
623.369	313.05
623.787	369.22
624.204	275.6
624.621	350.5
625.038	359.86
625.455	313.05
625.872	331.77
626.289	327.09
626.706	308.37
627.123	317.73
627.539	270.92
627.956	369.22
628.373	277.94
628.789	245.17
629.206	348.15
629.622	320.07
630.038	345.81
630.455	338.79
630.871	359.86
631.287	345.81
631.703	369.22
632.12	310.71
632.536	359.86
632.952	331.77
633.368	366.88
633.783	275.6
634.199	359.86
634.615	397.31
635.031	294.32
635.446	345.81
635.862	299
636.277	327.09
636.693	322.41
637.108	308.37
637.524	385.6
637.939	277.94
638.354	320.07
638.77	308.37
639.185	371.56
639.6	331.77
640.015	282.62
640.43	238.15
640.845	245.17
641.259	320.07
641.674	345.81
642.089	350.5
642.504	256.87
642.918	284.96
643.333	266.24
643.747	217.08
644.162	350.5
644.576	336.45
644.991	317.73
645.405	299
645.819	364.54
646.233	266.24
646.647	334.11
647.061	306.03
647.475	334.11
647.889	306.03
648.303	331.77
648.717	282.62
649.131	287.3
649.545	324.75
649.958	348.15
650.372	313.05
650.785	317.73
651.199	320.07
651.612	310.71
652.026	289.64
652.439	303.68
652.852	301.34
653.266	322.41
653.679	355.18
654.092	277.94
654.505	280.28
654.918	322.41
655.331	364.54
655.744	310.71
656.156	320.07
656.569	352.84
656.982	313.05
657.394	334.11
657.807	345.81
658.22	322.41
658.632	324.75
659.044	313.05
659.457	371.56
659.869	282.62
660.281	350.5
660.693	338.79
661.106	303.68
661.518	348.15
661.93	322.41
662.342	355.18
662.754	373.9
663.165	270.92
663.577	289.64
663.989	308.37
664.401	301.34
664.812	352.84
665.224	235.81
665.635	254.53
666.047	310.71
666.458	308.37
666.869	291.98
667.281	313.05
667.692	256.87
668.103	336.45
668.514	324.75
668.925	317.73
669.336	350.5
669.747	289.64
670.158	348.15
670.569	348.15
670.979	310.71
671.39	355.18
671.801	315.39
672.211	308.37
672.622	294.32
673.032	303.68
673.443	343.47
673.853	282.62
674.263	324.75
674.674	266.24
675.084	289.64
675.494	324.75
675.904	322.41
676.314	301.34
676.724	214.74
677.134	287.3
677.544	334.11
677.953	336.45
678.363	317.73
678.773	338.79
679.182	249.85
679.592	282.62
680.001	324.75
680.411	259.21
680.82	336.45
681.23	315.39
681.639	280.28
682.048	324.75
682.457	310.71
682.866	320.07
683.275	324.75
683.684	306.03
684.093	296.66
684.502	256.87
684.911	266.24
685.32	371.56
685.728	329.43
686.137	334.11
686.546	308.37
686.954	322.41
687.363	338.79
687.771	280.28
688.179	432.41
688.588	334.11
688.996	327.09
689.404	350.5
689.812	287.3
690.22	247.51
690.628	301.34
691.036	282.62
691.444	308.37
691.852	362.2
692.26	322.41
692.667	317.73
693.075	336.45
693.483	380.92
693.89	277.94
694.298	256.87
694.705	282.62
695.112	324.75
695.52	348.15
695.927	338.79
696.334	317.73
696.741	313.05
697.148	320.07
697.555	289.64
697.962	341.13
698.369	282.62
698.776	284.96
699.183	289.64
699.59	263.9
699.996	364.54
700.403	317.73
700.81	270.92
701.216	320.07
701.623	350.5
702.029	366.88
702.435	277.94
702.842	263.9
703.248	299
703.654	327.09
704.06	359.86
704.466	348.15
704.872	313.05
705.278	310.71
705.684	338.79
706.09	256.87
706.496	294.32
706.901	313.05
707.307	322.41
707.712	289.64
708.118	280.28
708.523	228.79
708.929	336.45
709.334	256.87
709.74	334.11
710.145	287.3
710.55	345.81
710.955	287.3
711.36	327.09
711.765	310.71
712.17	343.47
712.575	273.26
712.98	788.18
713.385	268.58
713.789	355.18
714.194	282.62
714.599	359.86
715.003	331.77
715.408	310.71
715.812	301.34
716.217	350.5
716.621	261.55
717.025	327.09
717.429	369.22
717.833	284.96
718.238	289.64
718.642	324.75
719.046	291.98
719.449	336.45
719.853	275.6
720.257	254.53
720.661	362.2
721.065	350.5
721.468	277.94
721.872	313.05
722.275	256.87
722.679	277.94
723.082	369.22
723.485	343.47
723.889	280.28
724.292	331.77
724.695	273.26
725.098	350.5
725.501	334.11
725.904	306.03
726.307	303.68
726.71	336.45
727.113	238.15
727.516	268.58
727.918	338.79
728.321	303.68
728.724	315.39
729.126	256.87
729.529	404.33
729.931	247.51
730.333	327.09
730.736	315.39
731.138	350.5
731.54	369.22
731.942	303.68
732.344	371.56
732.746	291.98
733.148	322.41
733.55	224.11
733.952	289.64
734.354	352.84
734.756	261.55
735.157	322.41
735.559	329.43
735.96	343.47
736.362	390.28
736.763	352.84
737.165	350.5
737.566	284.96
737.967	357.52
738.368	291.98
738.77	334.11
739.171	261.55
739.572	289.64
739.973	322.41
740.374	280.28
740.774	277.94
741.175	324.75
741.576	310.71
741.977	350.5
742.377	320.07
742.778	287.3
743.178	296.66
743.579	313.05
743.979	317.73
744.379	355.18
744.78	329.43
745.18	306.03
745.58	214.74
745.98	296.66
746.38	352.84
746.78	252.19
747.18	348.15
747.58	343.47
747.98	240.49
748.38	306.03
748.779	268.58
749.179	275.6
749.578	263.9
749.978	324.75
750.377	296.66
750.777	334.11
751.176	280.28
751.575	289.64
751.975	296.66
752.374	263.9
752.773	320.07
753.172	338.79
753.571	263.9
753.97	263.9
754.369	322.41
754.768	299
755.166	378.58
755.565	313.05
755.964	280.28
756.362	284.96
756.761	291.98
757.159	373.9
757.558	219.43
757.956	334.11
758.354	299
758.753	331.77
759.151	343.47
759.549	289.64
759.947	254.53
760.345	310.71
760.743	303.68
761.141	343.47
761.539	277.94
761.936	327.09
762.334	341.13
762.732	350.5
763.129	329.43
763.527	334.11
763.924	357.52
764.322	350.5
764.719	322.41
765.117	284.96
765.514	291.98
765.911	303.68
766.308	331.77
766.705	261.55
767.102	294.32
767.499	303.68
767.896	228.79
768.293	341.13
768.69	263.9
769.086	308.37
769.483	355.18
769.88	327.09
770.276	299
770.673	289.64
771.069	296.66
771.466	268.58
771.862	324.75
772.258	296.66
772.654	291.98
773.05	329.43
773.447	315.39
773.843	338.79
774.239	366.88
774.634	294.32
775.03	284.96
775.426	315.39
775.822	387.94
776.218	341.13
776.613	317.73
777.009	350.5
777.404	226.45
777.8	327.09
778.195	224.11
778.59	296.66
778.986	294.32
779.381	313.05
779.776	282.62
780.171	263.9
780.566	263.9
780.961	294.32
781.356	261.55
781.751	289.64
782.146	275.6
782.54	303.68
782.935	322.41
783.33	287.3
783.724	366.88
784.119	270.92
784.513	322.41
784.908	303.68
785.302	291.98
785.696	331.77
786.09	291.98
786.485	266.24
786.879	252.19
787.273	242.83
787.667	308.37
788.061	308.37
788.454	308.37
788.848	198.36
789.242	263.9
789.636	329.43
790.029	315.39
790.423	249.85
790.816	303.68
791.21	299
791.603	289.64
791.997	268.58
792.39	320.07
792.783	327.09
793.176	306.03
793.569	329.43
793.962	277.94
794.355	313.05
794.748	310.71
795.141	235.81
795.534	289.64
795.927	315.39
796.319	308.37
796.712	303.68
797.105	256.87
797.497	287.3
797.89	249.85
798.282	334.11
798.674	280.28
799.067	270.92
799.459	329.43
799.851	366.88
800.243	301.34
800.635	334.11
801.027	277.94
801.419	313.05
801.811	284.96
802.203	303.68
802.594	273.26
802.986	324.75
803.378	256.87
803.769	280.28
804.161	261.55
804.552	345.81
804.944	268.58
805.335	299
805.726	306.03
806.118	329.43
806.509	352.84
806.9	324.75
807.291	329.43
807.682	235.81
808.073	270.92
808.464	268.58
808.855	315.39
809.245	270.92
809.636	280.28
810.027	310.71
810.417	324.75
810.808	390.28
811.198	273.26
811.589	324.75
811.979	341.13
812.369	277.94
812.759	320.07
813.15	327.09
813.54	320.07
813.93	284.96
814.32	338.79
814.71	261.55
815.1	291.98
815.489	284.96
815.879	331.77
816.269	308.37
816.658	357.52
817.048	345.81
817.438	289.64
817.827	266.24
818.216	320.07
818.606	308.37
818.995	320.07
819.384	320.07
819.773	341.13
820.163	294.32
820.552	343.47
820.941	280.28
821.33	355.18
821.718	308.37
822.107	289.64
822.496	366.88
822.885	306.03
823.273	259.21
823.662	329.43
824.05	291.98
824.439	308.37
824.827	277.94
825.216	273.26
825.604	308.37
825.992	322.41
826.38	348.15
826.768	352.84
827.156	303.68
827.544	282.62
827.932	313.05
828.32	345.81
828.708	385.6
829.096	289.64
829.483	308.37
829.871	270.92
830.259	301.34
830.646	369.22
831.034	287.3
831.421	357.52
831.808	273.26
832.196	238.15
832.583	299
832.97	301.34
833.357	289.64
833.744	313.05
834.131	313.05
834.518	287.3
834.905	284.96
835.292	273.26
835.678	303.68
836.065	266.24
836.452	296.66
836.838	308.37
837.225	294.32
837.611	327.09
837.998	294.32
838.384	315.39
838.77	343.47
839.157	280.28
839.543	310.71
839.929	322.41
840.315	301.34
840.701	259.21
841.087	315.39
841.473	266.24
841.858	299
842.244	327.09
842.63	329.43
843.015	301.34
843.401	640.72
843.787	291.98
844.172	324.75
844.557	350.5
844.943	289.64
845.328	280.28
845.713	284.96
846.098	301.34
846.483	205.38
846.868	306.03
847.253	338.79
847.638	336.45
848.023	270.92
848.408	296.66
848.793	306.03
849.177	317.73
849.562	343.47
849.947	291.98
850.331	273.26
850.715	301.34
851.1	376.24
851.484	287.3
851.868	280.28
852.253	303.68
852.637	280.28
853.021	369.22
853.405	277.94
853.789	273.26
854.173	322.41
854.557	315.39
854.94	369.22
855.324	334.11
855.708	284.96
856.091	294.32
856.475	273.26
856.858	308.37
857.242	301.34
857.625	303.68
858.009	284.96
858.392	308.37
858.775	334.11
859.158	327.09
859.541	387.94
859.924	242.83
860.307	315.39
860.69	357.52
861.073	263.9
861.456	308.37
861.838	334.11
862.221	352.84
862.604	303.68
862.986	275.6
863.369	385.6
863.751	306.03
864.133	231.13
864.516	275.6
864.898	270.92
865.28	299
865.662	291.98
866.044	338.79
866.426	317.73
866.808	324.75
867.19	315.39
867.572	345.81
867.954	327.09
868.336	338.79
868.717	282.62
869.099	320.07
869.48	296.66
869.862	245.17
870.243	336.45
870.625	299
871.006	261.55
871.387	324.75
871.768	401.99
872.149	306.03
872.53	268.58
872.911	245.17
873.292	320.07
873.673	291.98
874.054	282.62
874.435	306.03
874.815	228.79
875.196	308.37
875.577	252.19
875.957	350.5
876.338	301.34
876.718	308.37
877.098	296.66
877.479	277.94
877.859	289.64
878.239	313.05
878.619	249.85
878.999	273.26
879.379	334.11
879.759	329.43
880.139	322.41
880.519	329.43
880.898	294.32
881.278	315.39
881.658	345.81
882.037	317.73
882.417	275.6
882.796	289.64
883.176	282.62
883.555	362.2
883.934	320.07
884.313	266.24
884.693	343.47
885.072	359.86
885.451	315.39
885.83	308.37
886.209	294.32
886.587	343.47
886.966	284.96
887.345	296.66
887.724	315.39
888.102	345.81
888.481	301.34
888.859	317.73
889.238	273.26
889.616	277.94
889.994	352.84
890.373	299
890.751	240.49
891.129	322.41
891.507	249.85
891.885	296.66
892.263	287.3
892.641	291.98
893.019	303.68
893.396	310.71
893.774	343.47
894.152	273.26
894.529	238.15
894.907	275.6
895.284	289.64
895.662	277.94
896.039	284.96
896.416	317.73
896.794	308.37
897.171	310.71
897.548	343.47
897.925	299
898.302	263.9
898.679	352.84
899.056	313.05
899.433	343.47
899.809	301.34
900.186	331.77
900.563	277.94
900.939	308.37
901.316	287.3
901.692	327.09
902.069	308.37
902.445	320.07
902.821	273.26
903.197	315.39
903.574	296.66
903.95	371.56
904.326	313.05
904.702	322.41
905.078	310.71
905.454	320.07
905.829	301.34
906.205	275.6
906.581	247.51
906.956	350.5
907.332	233.47
907.707	317.73
908.083	299
908.458	284.96
908.833	322.41
909.209	324.75
909.584	249.85
909.959	273.26
910.334	294.32
910.709	336.45
911.084	287.3
911.459	310.71
911.834	289.64
912.209	345.81
912.583	324.75
912.958	296.66
913.333	308.37
913.707	263.9
914.082	329.43
914.456	310.71
914.83	273.26
915.205	282.62
915.579	299
915.953	364.54
916.327	289.64
916.701	242.83
917.075	317.73
917.449	320.07
917.823	259.21
918.197	329.43
918.571	259.21
918.944	245.17
919.318	364.54
919.692	273.26
920.065	359.86
920.438	310.71
920.812	299
921.185	282.62
921.558	322.41
921.932	420.71
922.305	308.37
922.678	315.39
923.051	294.32
923.424	331.77
923.797	334.11
924.17	306.03
924.542	268.58
924.915	369.22
925.288	275.6
925.661	315.39
926.033	366.88
926.406	296.66
926.778	280.28
927.15	270.92
927.523	315.39
927.895	280.28
928.267	320.07
928.639	324.75
929.011	306.03
929.383	310.71
929.755	301.34
930.127	313.05
930.499	324.75
930.871	324.75
931.242	280.28
931.614	308.37
931.986	313.05
932.357	259.21
932.729	334.11
933.1	249.85
933.471	324.75
933.843	303.68
934.214	282.62
934.585	268.58
934.956	385.6
935.327	287.3
935.698	294.32
936.069	313.05
936.44	315.39
936.811	266.24
937.182	338.79
937.552	341.13
937.923	336.45
938.293	352.84
938.664	299
939.034	317.73
939.405	317.73
939.775	291.98
940.145	324.75
940.516	329.43
940.886	310.71
941.256	268.58
941.626	284.96
941.996	240.49
942.366	336.45
942.735	275.6
943.105	273.26
943.475	280.28
943.845	296.66
944.214	235.81
944.584	303.68
944.953	341.13
945.323	338.79
945.692	324.75
946.061	289.64
946.43	270.92
946.8	317.73
947.169	256.87
947.538	263.9
947.907	371.56
948.276	301.34
948.645	324.75
949.013	341.13
949.382	256.87
949.751	310.71
950.119	383.26
950.488	301.34
950.857	322.41
951.225	317.73
951.593	313.05
951.962	352.84
952.33	303.68
952.698	345.81
953.066	287.3
953.434	341.13
953.802	296.66
954.17	252.19
954.538	277.94
954.906	282.62
955.274	336.45
955.642	277.94
956.009	301.34
956.377	301.34
956.744	289.64
957.112	277.94
957.479	301.34
957.847	261.55
958.214	252.19
958.581	329.43
958.948	338.79
959.315	322.41
959.683	366.88
960.05	268.58
960.416	299
960.783	270.92
961.15	284.96
961.517	303.68
961.884	263.9
962.25	291.98
962.617	296.66
962.983	299
963.35	350.5
963.716	331.77
964.082	266.24
964.449	315.39
964.815	301.34
965.181	299
965.547	313.05
965.913	247.51
966.279	310.71
966.645	275.6
967.011	306.03
967.377	317.73
967.742	331.77
968.108	299
968.474	280.28
968.839	315.39
969.205	334.11
969.57	299
969.935	324.75
970.301	338.79
970.666	306.03
971.031	259.21
971.396	357.52
971.761	352.84
972.126	336.45
972.491	324.75
972.856	245.17
973.221	242.83
973.586	296.66
973.95	338.79
974.315	315.39
974.679	350.5
975.044	343.47
975.408	287.3
975.773	331.77
976.137	376.24
976.501	341.13
976.866	334.11
977.23	254.53
977.594	256.87
977.958	294.32
978.322	308.37
978.686	217.08
979.049	303.68
979.413	247.51
979.777	303.68
980.141	320.07
980.504	270.92
980.868	280.28
981.231	303.68
981.595	294.32
981.958	359.86
982.321	282.62
982.684	277.94
983.048	345.81
983.411	359.86
983.774	256.87
984.137	345.81
984.5	324.75
984.862	259.21
985.225	303.68
985.588	238.15
985.951	277.94
986.313	306.03
986.676	291.98
987.038	350.5
987.401	299
987.763	301.34
988.125	291.98
988.488	252.19
988.85	355.18
989.212	226.45
989.574	317.73
989.936	317.73
990.298	301.34
990.66	268.58
991.022	289.64
991.383	245.17
991.745	315.39
992.107	294.32
992.468	240.49
992.83	315.39
993.191	345.81
993.553	343.47
993.914	303.68
994.275	324.75
994.637	282.62
994.998	287.3
995.359	226.45
995.72	303.68
996.081	273.26
996.442	303.68
996.803	268.58
997.163	266.24
997.524	284.96
997.885	341.13
998.245	294.32
998.606	263.9
998.966	247.51
999.327	378.58
999.687	341.13
1000.047	355.18
1000.408	270.92
1000.768	275.6
1001.128	327.09
1001.488	350.5
1001.848	306.03
1002.208	291.98
1002.568	336.45
1002.927	324.75
1003.287	289.64
1003.647	329.43
1004.007	270.92
1004.366	329.43
1004.726	324.75
1005.085	329.43
1005.444	387.94
1005.804	324.75
1006.163	350.5
1006.522	282.62
1006.881	313.05
1007.24	331.77
1007.599	273.26
1007.958	299
1008.317	317.73
1008.676	313.05
1009.035	303.68
1009.393	308.37
1009.752	268.58
1010.111	277.94
1010.469	308.37
1010.828	303.68
1011.186	231.13
1011.544	296.66
1011.903	329.43
1012.261	324.75
1012.619	317.73
1012.977	315.39
1013.335	282.62
1013.693	303.68
1014.051	348.15
1014.409	301.34
1014.767	296.66
1015.124	284.96
1015.482	303.68
1015.84	308.37
1016.197	299
1016.555	329.43
1016.912	327.09
1017.269	341.13
1017.627	334.11
1017.984	268.58
1018.341	294.32
1018.698	296.66
1019.055	284.96
1019.412	301.34
1019.769	273.26
1020.126	294.32
1020.483	291.98
1020.84	289.64
1021.196	392.62
1021.553	308.37
1021.909	317.73
1022.266	247.51
1022.622	352.84
1022.979	357.52
1023.335	310.71
1023.691	254.53
1024.047	280.28
1024.404	338.79
1024.76	256.87
1025.116	345.81
1025.472	336.45
1025.827	282.62
1026.183	313.05
1026.539	294.32
1026.895	324.75
1027.25	301.34
1027.606	308.37
1027.961	331.77
1028.317	303.68
1028.672	259.21
1029.028	299
1029.383	334.11
1029.738	322.41
1030.093	355.18
1030.448	348.15
1030.803	296.66
1031.158	320.07
1031.513	280.28
1031.868	296.66
1032.223	322.41
1032.577	263.9
1032.932	303.68
1033.287	306.03
1033.641	357.52
1033.996	336.45
1034.35	327.09
1034.704	270.92
1035.059	301.34
1035.413	336.45
1035.767	336.45
1036.121	336.45
