Data from Al_FLMS009871__1263__16-47-53-269.txt Node

Date: Fri Mar 08 16:47:53 CST 2024
User: pe5414po
Spectrometer: FLMS00987
Trigger mode: 0
Integration Time (sec): 1.000000E-1
Scans to average: 1
Electric dark correction enabled: true
Nonlinearity correction enabled: false
Boxcar width: 0
XAxis mode: Wavelengths
Number of Pixels in Spectrum: 2048
>>>>>Begin Spectral Data<<<<<
188.938	-71.68
189.409	-71.68
189.879	-71.68
190.349	-148.92
190.819	-123.17
191.29	-102.11
191.76	-85.72
192.23	-55.3
192.7	-24.87
193.17	-95.08
193.64	-29.55
194.109	-67
194.579	-76.36
195.049	38.33
195.519	-1.46
195.988	31.3
196.458	87.48
196.927	68.75
197.397	40.67
197.866	129.61
198.336	141.31
198.805	174.08
199.274	164.72
199.744	206.84
200.213	213.87
200.682	167.06
201.151	258.34
201.62	253.66
202.089	237.27
202.558	265.36
203.027	204.5
203.495	230.25
203.964	330.89
204.433	309.83
204.902	267.7
205.37	302.81
205.839	351.96
206.307	309.83
206.776	270.04
207.244	272.38
207.712	277.06
208.181	309.83
208.649	298.13
209.117	293.44
209.585	363.66
210.053	314.51
210.521	344.94
210.989	316.85
211.457	300.47
211.925	284.08
212.393	244.29
212.861	302.81
213.328	377.7
213.796	330.89
214.264	267.7
214.731	330.89
215.199	277.06
215.666	277.06
216.133	281.74
216.601	281.74
217.068	356.64
217.535	253.66
218.003	309.83
218.47	274.72
218.937	256
219.404	227.91
219.871	218.55
220.338	270.04
220.805	291.1
221.271	267.7
221.738	234.93
222.205	263.02
222.671	237.27
223.138	251.32
223.605	286.42
224.071	307.49
224.538	302.81
225.004	258.34
225.47	199.82
225.937	286.42
226.403	260.68
226.869	253.66
227.335	291.1
227.801	295.79
228.267	277.06
228.733	270.04
229.199	307.49
229.665	326.21
230.131	342.6
230.597	263.02
231.062	307.49
231.528	246.63
231.994	321.53
232.459	277.06
232.925	265.36
233.39	265.36
233.856	309.83
234.321	216.21
234.786	300.47
235.252	248.97
235.717	272.38
236.182	284.08
236.647	326.21
237.112	307.49
237.577	328.55
238.042	298.13
238.507	263.02
238.972	284.08
239.436	307.49
239.901	260.68
240.366	316.85
240.83	274.72
241.295	267.7
241.76	321.53
242.224	251.32
242.688	213.87
243.153	305.15
243.617	286.42
244.081	347.28
244.545	298.13
245.01	288.76
245.474	234.93
245.938	295.79
246.402	204.5
246.866	335.57
247.33	321.53
247.793	279.4
248.257	295.79
248.721	330.89
249.185	288.76
249.648	305.15
250.112	302.81
250.575	281.74
251.039	300.47
251.502	298.13
251.965	291.1
252.429	291.1
252.892	232.59
253.355	321.53
253.818	260.68
254.281	312.17
254.744	307.49
255.207	316.85
255.67	361.32
256.133	335.57
256.596	277.06
257.059	237.27
257.522	321.53
257.984	220.89
258.447	326.21
258.909	333.23
259.372	248.97
259.834	230.25
260.297	342.6
260.759	237.27
261.221	337.91
261.684	253.66
262.146	277.06
262.608	342.6
263.07	277.06
263.532	260.68
263.994	312.17
264.456	263.02
264.918	319.19
265.38	277.06
265.842	265.36
266.303	305.15
266.765	363.66
267.227	237.27
267.688	337.91
268.15	305.15
268.611	300.47
269.072	321.53
269.534	333.23
269.995	288.76
270.456	323.87
270.918	209.19
271.379	328.55
271.84	291.1
272.301	302.81
272.762	281.74
273.223	300.47
273.684	232.59
274.144	256
274.605	347.28
275.066	302.81
275.527	302.81
275.987	307.49
276.448	291.1
276.908	335.57
277.369	323.87
277.829	309.83
278.289	260.68
278.75	335.57
279.21	270.04
279.67	295.79
280.13	312.17
280.59	265.36
281.05	330.89
281.51	256
281.97	319.19
282.43	342.6
282.89	314.51
283.35	323.87
283.809	328.55
284.269	326.21
284.729	286.42
285.188	356.64
285.648	314.51
286.107	387.07
286.567	335.57
287.026	291.1
287.485	288.76
287.944	286.42
288.404	295.79
288.863	307.49
289.322	349.62
289.781	363.66
290.24	319.19
290.699	366
291.158	302.81
291.616	342.6
292.075	288.76
292.534	312.17
292.992	274.72
293.451	272.38
293.91	291.1
294.368	363.66
294.827	351.96
295.285	277.06
295.743	270.04
296.202	321.53
296.66	321.53
297.118	281.74
297.576	347.28
298.034	270.04
298.492	328.55
298.95	305.15
299.408	274.72
299.866	251.32
300.324	284.08
300.781	307.49
301.239	319.19
301.697	263.02
302.154	302.81
302.612	314.51
303.069	321.53
303.527	340.26
303.984	288.76
304.441	281.74
304.899	263.02
305.356	337.91
305.813	333.23
306.27	274.72
306.727	340.26
307.184	358.98
307.641	335.57
308.098	291.1
308.555	277.06
309.012	356.64
309.468	309.83
309.925	284.08
310.382	256
310.838	328.55
311.295	321.53
311.751	316.85
312.208	356.64
312.664	337.91
313.12	279.4
313.577	314.51
314.033	260.68
314.489	307.49
314.945	270.04
315.401	330.89
315.857	225.57
316.313	354.3
316.769	382.39
317.225	387.07
317.681	319.19
318.136	279.4
318.592	340.26
319.048	256
319.503	286.42
319.959	274.72
320.414	307.49
320.869	277.06
321.325	314.51
321.78	300.47
322.235	277.06
322.691	251.32
323.146	351.96
323.601	337.91
324.056	321.53
324.511	314.51
324.966	326.21
325.421	337.91
325.875	321.53
326.33	333.23
326.785	272.38
327.24	307.49
327.694	265.36
328.149	361.32
328.603	314.51
329.058	316.85
329.512	363.66
329.966	286.42
330.421	300.47
330.875	314.51
331.329	321.53
331.783	312.17
332.237	351.96
332.691	298.13
333.145	347.28
333.599	328.55
334.053	328.55
334.507	342.6
334.96	312.17
335.414	316.85
335.868	302.81
336.321	373.02
336.775	277.06
337.228	337.91
337.682	368.34
338.135	309.83
338.588	260.68
339.042	356.64
339.495	326.21
339.948	370.68
340.401	321.53
340.854	363.66
341.307	302.81
341.76	298.13
342.213	314.51
342.666	356.64
343.119	326.21
343.571	309.83
344.024	256
344.477	337.91
344.929	373.02
345.382	330.89
345.834	246.63
346.287	328.55
346.739	382.39
347.191	354.3
347.644	328.55
348.096	347.28
348.548	227.91
349	316.85
349.452	312.17
349.904	316.85
350.356	316.85
350.808	361.32
351.26	284.08
351.711	412.81
352.163	307.49
352.615	298.13
353.066	351.96
353.518	375.36
353.969	298.13
354.421	312.17
354.872	293.44
355.324	351.96
355.775	279.4
356.226	312.17
356.677	319.19
357.128	300.47
357.579	361.32
358.03	256
358.481	328.55
358.932	321.53
359.383	335.57
359.834	309.83
360.285	314.51
360.735	358.98
361.186	309.83
361.637	349.62
362.087	316.85
362.538	300.47
362.988	328.55
363.438	302.81
363.889	314.51
364.339	321.53
364.789	288.76
365.239	326.21
365.689	309.83
366.139	361.32
366.589	319.19
367.039	302.81
367.489	349.62
367.939	344.94
368.389	333.23
368.839	349.62
369.288	347.28
369.738	342.6
370.187	377.7
370.637	356.64
371.086	295.79
371.536	293.44
371.985	347.28
372.434	370.68
372.884	382.39
373.333	319.19
373.782	366
374.231	335.57
374.68	328.55
375.129	335.57
375.578	316.85
376.027	260.68
376.475	274.72
376.924	391.75
377.373	368.34
377.822	321.53
378.27	256
378.719	333.23
379.167	302.81
379.616	295.79
380.064	305.15
380.512	323.87
380.961	333.23
381.409	351.96
381.857	323.87
382.305	333.23
382.753	309.83
383.201	342.6
383.649	291.1
384.097	370.68
384.545	333.23
384.992	312.17
385.44	351.96
385.888	358.98
386.335	328.55
386.783	277.06
387.231	337.91
387.678	286.42
388.125	309.83
388.573	377.7
389.02	361.32
389.467	312.17
389.914	286.42
390.362	340.26
390.809	295.79
391.256	380.04
391.703	295.79
392.15	361.32
392.596	309.83
393.043	305.15
393.49	309.83
393.937	319.19
394.383	342.6
394.83	316.85
395.276	305.15
395.723	330.89
396.169	288.76
396.616	305.15
397.062	391.75
397.508	347.28
397.954	300.47
398.401	298.13
398.847	323.87
399.293	326.21
399.739	330.89
400.185	349.62
400.631	340.26
401.076	342.6
401.522	358.98
401.968	333.23
402.414	319.19
402.859	361.32
403.305	300.47
403.75	295.79
404.196	323.87
404.641	349.62
405.086	337.91
405.532	340.26
405.977	286.42
406.422	342.6
406.867	356.64
407.312	368.34
407.757	300.47
408.202	267.7
408.647	366
409.092	274.72
409.537	337.91
409.982	387.07
410.426	309.83
410.871	368.34
411.316	333.23
411.76	358.98
412.205	328.55
412.649	302.81
413.093	347.28
413.538	394.09
413.982	389.41
414.426	270.04
414.87	281.74
415.314	293.44
415.758	330.89
416.202	281.74
416.646	326.21
417.09	293.44
417.534	253.66
417.978	347.28
418.421	307.49
418.865	316.85
419.309	347.28
419.752	307.49
420.196	410.47
420.639	354.3
421.083	246.63
421.526	307.49
421.969	391.75
422.412	349.62
422.856	270.04
423.299	361.32
423.742	321.53
424.185	340.26
424.628	351.96
425.071	293.44
425.513	356.64
425.956	277.06
426.399	328.55
426.842	333.23
427.284	361.32
427.727	358.98
428.169	375.36
428.612	302.81
429.054	277.06
429.497	333.23
429.939	314.51
430.381	265.36
430.823	300.47
431.265	305.15
431.707	314.51
432.149	333.23
432.591	277.06
433.033	326.21
433.475	239.61
433.917	263.02
434.359	295.79
434.8	333.23
435.242	307.49
435.684	277.06
436.125	288.76
436.567	328.55
437.008	314.51
437.449	344.94
437.891	272.38
438.332	349.62
438.773	274.72
439.214	309.83
439.656	274.72
440.097	302.81
440.538	356.64
440.978	333.23
441.419	330.89
441.86	394.09
442.301	333.23
442.742	260.68
443.182	286.42
443.623	319.19
444.063	316.85
444.504	277.06
444.944	387.07
445.385	342.6
445.825	363.66
446.265	330.89
446.706	351.96
447.146	314.51
447.586	277.06
448.026	330.89
448.466	291.1
448.906	314.51
449.346	314.51
449.786	323.87
450.225	267.7
450.665	293.44
451.105	323.87
451.544	380.04
451.984	333.23
452.424	328.55
452.863	366
453.302	272.38
453.742	305.15
454.181	351.96
454.62	326.21
455.059	354.3
455.499	316.85
455.938	333.23
456.377	267.7
456.816	382.39
457.254	340.26
457.693	330.89
458.132	337.91
458.571	417.49
459.01	256
459.448	366
459.887	323.87
460.325	387.07
460.764	361.32
461.202	305.15
461.641	321.53
462.079	356.64
462.517	291.1
462.955	347.28
463.393	281.74
463.832	319.19
464.27	387.07
464.708	344.94
465.145	344.94
465.583	344.94
466.021	335.57
466.459	351.96
466.897	340.26
467.334	312.17
467.772	256
468.209	312.17
468.647	258.34
469.084	314.51
469.522	314.51
469.959	333.23
470.396	328.55
470.833	380.04
471.271	333.23
471.708	281.74
472.145	347.28
472.582	335.57
473.019	314.51
473.456	323.87
473.892	382.39
474.329	321.53
474.766	377.7
475.202	300.47
475.639	333.23
476.076	335.57
476.512	328.55
476.949	356.64
477.385	274.72
477.821	295.79
478.258	340.26
478.694	330.89
479.13	358.98
479.566	342.6
480.002	328.55
480.438	351.96
480.874	380.04
481.31	323.87
481.746	291.1
482.181	335.57
482.617	328.55
483.053	337.91
483.488	351.96
483.924	274.72
484.36	321.53
484.795	368.34
485.23	349.62
485.666	291.1
486.101	286.42
486.536	384.73
486.971	319.19
487.407	319.19
487.842	316.85
488.277	305.15
488.712	340.26
489.146	321.53
489.581	326.21
490.016	330.89
490.451	342.6
490.885	291.1
491.32	281.74
491.755	307.49
492.189	337.91
492.624	380.04
493.058	335.57
493.492	270.04
493.927	298.13
494.361	284.08
494.795	333.23
495.229	298.13
495.663	330.89
496.097	279.4
496.531	239.61
496.965	356.64
497.399	377.7
497.833	300.47
498.266	270.04
498.7	356.64
499.134	260.68
499.567	351.96
500.001	321.53
500.434	330.89
500.868	270.04
501.301	298.13
501.734	295.79
502.168	291.1
502.601	333.23
503.034	302.81
503.467	344.94
503.9	366
504.333	316.85
504.766	314.51
505.199	342.6
505.632	316.85
506.064	335.57
506.497	335.57
506.93	225.57
507.362	347.28
507.795	358.98
508.227	363.66
508.66	265.36
509.092	288.76
509.524	316.85
509.956	347.28
510.389	298.13
510.821	356.64
511.253	349.62
511.685	293.44
512.117	354.3
512.549	377.7
512.981	321.53
513.412	309.83
513.844	291.1
514.276	335.57
514.707	366
515.139	333.23
515.571	316.85
516.002	344.94
516.433	330.89
516.865	293.44
517.296	291.1
517.727	368.34
518.159	363.66
518.59	347.28
519.021	351.96
519.452	335.57
519.883	239.61
520.314	330.89
520.744	354.3
521.175	384.73
521.606	312.17
522.037	305.15
522.467	314.51
522.898	321.53
523.328	307.49
523.759	281.74
524.189	342.6
524.62	347.28
525.05	286.42
525.48	256
525.91	227.91
526.341	366
526.771	340.26
527.201	342.6
527.631	337.91
528.061	342.6
528.49	312.17
528.92	323.87
529.35	319.19
529.78	340.26
530.209	286.42
530.639	309.83
531.068	323.87
531.498	279.4
531.927	337.91
532.357	323.87
532.786	344.94
533.215	337.91
533.644	330.89
534.074	330.89
534.503	337.91
534.932	312.17
535.361	316.85
535.79	319.19
536.218	295.79
536.647	340.26
537.076	342.6
537.505	358.98
537.933	358.98
538.362	347.28
538.79	337.91
539.219	351.96
539.647	342.6
540.076	239.61
540.504	265.36
540.932	382.39
541.36	323.87
541.788	323.87
542.217	286.42
542.645	295.79
543.073	284.08
543.5	309.83
543.928	361.32
544.356	351.96
544.784	366
545.211	370.68
545.639	340.26
546.067	337.91
546.494	347.28
546.922	330.89
547.349	323.87
547.776	394.09
548.204	335.57
548.631	330.89
549.058	300.47
549.485	328.55
549.912	293.44
550.339	326.21
550.766	333.23
551.193	312.17
551.62	335.57
552.047	351.96
552.474	368.34
552.9	281.74
553.327	295.79
553.754	321.53
554.18	342.6
554.607	305.15
555.033	302.81
555.459	295.79
555.886	300.47
556.312	380.04
556.738	337.91
557.164	380.04
557.59	291.1
558.016	340.26
558.442	323.87
558.868	321.53
559.294	361.32
559.72	293.44
560.145	319.19
560.571	333.23
560.997	295.79
561.422	361.32
561.848	333.23
562.273	256
562.699	380.04
563.124	305.15
563.549	319.19
563.974	361.32
564.4	351.96
564.825	333.23
565.25	347.28
565.675	330.89
566.1	337.91
566.525	337.91
566.95	309.83
567.374	373.02
567.799	286.42
568.224	279.4
568.648	349.62
569.073	330.89
569.497	298.13
569.922	351.96
570.346	312.17
570.771	328.55
571.195	314.51
571.619	293.44
572.043	361.32
572.467	305.15
572.891	344.94
573.315	295.79
573.739	267.7
574.163	291.1
574.587	328.55
575.011	312.17
575.435	300.47
575.858	314.51
576.282	354.3
576.705	330.89
577.129	309.83
577.552	330.89
577.976	244.29
578.399	330.89
578.822	342.6
579.245	302.81
579.669	380.04
580.092	330.89
580.515	333.23
580.938	380.04
581.361	337.91
581.784	305.15
582.206	366
582.629	314.51
583.052	314.51
583.474	330.89
583.897	356.64
584.32	330.89
584.742	370.68
585.165	300.47
585.587	309.83
586.009	316.85
586.431	375.36
586.854	319.19
587.276	279.4
587.698	344.94
588.12	358.98
588.542	260.68
588.964	321.53
589.386	358.98
589.807	312.17
590.229	305.15
590.651	288.76
591.073	361.32
591.494	347.28
591.916	272.38
592.337	323.87
592.759	316.85
593.18	384.73
593.601	377.7
594.022	302.81
594.444	370.68
594.865	326.21
595.286	288.76
595.707	380.04
596.128	323.87
596.549	351.96
596.97	330.89
597.39	307.49
597.811	380.04
598.232	337.91
598.652	305.15
599.073	319.19
599.494	256
599.914	356.64
600.334	368.34
600.755	328.55
601.175	349.62
601.595	351.96
602.015	284.08
602.436	314.51
602.856	461.96
603.276	309.83
603.696	375.36
604.115	337.91
604.535	366
604.955	342.6
605.375	307.49
605.794	316.85
606.214	284.08
606.634	307.49
607.053	323.87
607.473	354.3
607.892	373.02
608.311	347.28
608.731	279.4
609.15	337.91
609.569	270.04
609.988	335.57
610.407	326.21
610.826	293.44
611.245	316.85
611.664	284.08
612.083	302.81
612.501	279.4
612.92	366
613.339	354.3
613.757	305.15
614.176	366
614.594	302.81
615.013	340.26
615.431	312.17
615.85	314.51
616.268	316.85
616.686	319.19
617.104	333.23
617.522	291.1
617.94	333.23
618.358	340.26
618.776	358.98
619.194	342.6
619.612	312.17
620.03	309.83
620.447	314.51
620.865	328.55
621.282	361.32
621.7	333.23
622.117	288.76
622.535	309.83
622.952	363.66
623.369	323.87
623.787	300.47
624.204	396.43
624.621	307.49
625.038	349.62
625.455	366
625.872	335.57
626.289	305.15
626.706	358.98
627.123	328.55
627.539	293.44
627.956	363.66
628.373	323.87
628.789	314.51
629.206	298.13
629.622	267.7
630.038	326.21
630.455	356.64
630.871	342.6
631.287	321.53
631.703	356.64
632.12	335.57
632.536	316.85
632.952	323.87
633.368	366
633.783	344.94
634.199	335.57
634.615	307.49
635.031	342.6
635.446	340.26
635.862	316.85
636.277	340.26
636.693	349.62
637.108	309.83
637.524	347.28
637.939	330.89
638.354	342.6
638.77	323.87
639.185	307.49
639.6	312.17
640.015	398.77
640.43	328.55
640.845	323.87
641.259	373.02
641.674	366
642.089	384.73
642.504	274.72
642.918	361.32
643.333	373.02
643.747	302.81
644.162	288.76
644.576	291.1
644.991	351.96
645.405	349.62
645.819	333.23
646.233	377.7
646.647	307.49
647.061	333.23
647.475	319.19
647.889	328.55
648.303	328.55
648.717	349.62
649.131	333.23
649.545	265.36
649.958	321.53
650.372	335.57
650.785	286.42
651.199	309.83
651.612	309.83
652.026	319.19
652.439	312.17
652.852	342.6
653.266	354.3
653.679	293.44
654.092	349.62
654.505	309.83
654.918	375.36
655.331	349.62
655.744	366
656.156	333.23
656.569	335.57
656.982	321.53
657.394	356.64
657.807	270.04
658.22	319.19
658.632	316.85
659.044	361.32
659.457	316.85
659.869	349.62
660.281	344.94
660.693	340.26
661.106	356.64
661.518	307.49
661.93	356.64
662.342	330.89
662.754	323.87
663.165	330.89
663.577	330.89
663.989	326.21
664.401	323.87
664.812	351.96
665.224	319.19
665.635	319.19
666.047	363.66
666.458	309.83
666.869	351.96
667.281	363.66
667.692	358.98
668.103	335.57
668.514	274.72
668.925	300.47
669.336	316.85
669.747	347.28
670.158	326.21
670.569	351.96
670.979	316.85
671.39	373.02
671.801	344.94
672.211	307.49
672.622	342.6
673.032	288.76
673.443	368.34
673.853	349.62
674.263	415.15
674.674	347.28
675.084	354.3
675.494	351.96
675.904	394.09
676.314	286.42
676.724	307.49
677.134	316.85
677.544	328.55
677.953	298.13
678.363	286.42
678.773	335.57
679.182	340.26
679.592	335.57
680.001	321.53
680.411	286.42
680.82	270.04
681.23	323.87
681.639	354.3
682.048	361.32
682.457	337.91
682.866	377.7
683.275	356.64
683.684	382.39
684.093	328.55
684.502	293.44
684.911	333.23
685.32	344.94
685.728	354.3
686.137	284.08
686.546	347.28
686.954	408.13
687.363	354.3
687.771	340.26
688.179	394.09
688.588	373.02
688.996	347.28
689.404	340.26
689.812	295.79
690.22	330.89
690.628	288.76
691.036	354.3
691.444	309.83
691.852	347.28
692.26	375.36
692.667	377.7
693.075	288.76
693.483	344.94
693.89	316.85
694.298	358.98
694.705	319.19
695.112	340.26
695.52	302.81
695.927	326.21
696.334	384.73
696.741	335.57
697.148	319.19
697.555	361.32
697.962	382.39
698.369	344.94
698.776	335.57
699.183	326.21
699.59	300.47
699.996	335.57
700.403	363.66
700.81	340.26
701.216	321.53
701.623	335.57
702.029	358.98
702.435	368.34
702.842	347.28
703.248	328.55
703.654	387.07
704.06	356.64
704.466	398.77
704.872	302.81
705.278	354.3
705.684	309.83
706.09	284.08
706.496	328.55
706.901	286.42
707.307	293.44
707.712	307.49
708.118	314.51
708.523	340.26
708.929	286.42
709.334	361.32
709.74	307.49
710.145	253.66
710.55	342.6
710.955	333.23
711.36	361.32
711.765	349.62
712.17	307.49
712.575	314.51
712.98	904.32
713.385	394.09
713.789	417.49
714.194	358.98
714.599	300.47
715.003	380.04
715.408	368.34
715.812	272.38
716.217	314.51
716.621	349.62
717.025	342.6
717.429	333.23
717.833	298.13
718.238	295.79
718.642	291.1
719.046	272.38
719.449	361.32
719.853	354.3
720.257	319.19
720.661	302.81
721.065	298.13
721.468	333.23
721.872	340.26
722.275	312.17
722.679	267.7
723.082	330.89
723.485	305.15
723.889	314.51
724.292	314.51
724.695	333.23
725.098	314.51
725.501	333.23
725.904	366
726.307	380.04
726.71	291.1
727.113	305.15
727.516	281.74
727.918	330.89
728.321	305.15
728.724	284.08
729.126	305.15
729.529	302.81
729.931	286.42
730.333	394.09
730.736	305.15
731.138	328.55
731.54	333.23
731.942	295.79
732.344	321.53
732.746	342.6
733.148	302.81
733.55	333.23
733.952	323.87
734.354	342.6
734.756	309.83
735.157	305.15
735.559	309.83
735.96	356.64
736.362	347.28
736.763	382.39
737.165	286.42
737.566	279.4
737.967	312.17
738.368	349.62
738.77	312.17
739.171	300.47
739.572	330.89
739.973	319.19
740.374	384.73
740.774	342.6
741.175	316.85
741.576	361.32
741.977	368.34
742.377	246.63
742.778	370.68
743.178	321.53
743.579	328.55
743.979	305.15
744.379	319.19
744.78	333.23
745.18	319.19
745.58	349.62
745.98	337.91
746.38	265.36
746.78	309.83
747.18	377.7
747.58	309.83
747.98	279.4
748.38	305.15
748.779	316.85
749.179	351.96
749.578	330.89
749.978	340.26
750.377	309.83
750.777	358.98
751.176	309.83
751.575	333.23
751.975	305.15
752.374	288.76
752.773	323.87
753.172	270.04
753.571	272.38
753.97	366
754.369	316.85
754.768	337.91
755.166	344.94
755.565	344.94
755.964	279.4
756.362	298.13
756.761	312.17
757.159	349.62
757.558	340.26
757.956	298.13
758.354	312.17
758.753	328.55
759.151	319.19
759.549	277.06
759.947	288.76
760.345	300.47
760.743	340.26
761.141	284.08
761.539	305.15
761.936	326.21
762.334	358.98
762.732	291.1
763.129	351.96
763.527	342.6
763.924	321.53
764.322	323.87
764.719	330.89
765.117	351.96
765.514	263.02
765.911	319.19
766.308	337.91
766.705	291.1
767.102	267.7
767.499	363.66
767.896	330.89
768.293	340.26
768.69	321.53
769.086	323.87
769.483	321.53
769.88	347.28
770.276	375.36
770.673	337.91
771.069	361.32
771.466	319.19
771.862	260.68
772.258	405.79
772.654	326.21
773.05	295.79
773.447	321.53
773.843	312.17
774.239	291.1
774.634	382.39
775.03	356.64
775.426	314.51
775.822	356.64
776.218	330.89
776.613	373.02
777.009	340.26
777.404	300.47
777.8	321.53
778.195	323.87
778.59	373.02
778.986	328.55
779.381	288.76
779.776	337.91
780.171	239.61
780.566	321.53
780.961	330.89
781.356	358.98
781.751	260.68
782.146	314.51
782.54	281.74
782.935	337.91
783.33	244.29
783.724	335.57
784.119	328.55
784.513	321.53
784.908	298.13
785.302	335.57
785.696	260.68
786.09	298.13
786.485	272.38
786.879	293.44
787.273	302.81
787.667	251.32
788.061	288.76
788.454	330.89
788.848	291.1
789.242	337.91
789.636	382.39
790.029	321.53
790.423	291.1
790.816	340.26
791.21	307.49
791.603	321.53
791.997	309.83
792.39	284.08
792.783	323.87
793.176	326.21
793.569	342.6
793.962	312.17
794.355	337.91
794.748	361.32
795.141	358.98
795.534	291.1
795.927	300.47
796.319	293.44
796.712	291.1
797.105	305.15
797.497	284.08
797.89	284.08
798.282	337.91
798.674	335.57
799.067	323.87
799.459	347.28
799.851	328.55
800.243	298.13
800.635	335.57
801.027	328.55
801.419	274.72
801.811	284.08
802.203	330.89
802.594	349.62
802.986	293.44
803.378	295.79
803.769	333.23
804.161	295.79
804.552	272.38
804.944	286.42
805.335	351.96
805.726	366
806.118	323.87
806.509	344.94
806.9	366
807.291	375.36
807.682	349.62
808.073	370.68
808.464	377.7
808.855	279.4
809.245	312.17
809.636	333.23
810.027	281.74
810.417	309.83
810.808	307.49
811.198	305.15
811.589	361.32
811.979	349.62
812.369	293.44
812.759	293.44
813.15	347.28
813.54	323.87
813.93	380.04
814.32	305.15
814.71	286.42
815.1	316.85
815.489	305.15
815.879	300.47
816.269	300.47
816.658	300.47
817.048	279.4
817.438	309.83
817.827	265.36
818.216	274.72
818.606	302.81
818.995	316.85
819.384	288.76
819.773	337.91
820.163	263.02
820.552	300.47
820.941	312.17
821.33	302.81
821.718	270.04
822.107	293.44
822.496	368.34
822.885	337.91
823.273	351.96
823.662	279.4
824.05	361.32
824.439	337.91
824.827	340.26
825.216	253.66
825.604	293.44
825.992	333.23
826.38	279.4
826.768	403.45
827.156	298.13
827.544	356.64
827.932	263.02
828.32	288.76
828.708	330.89
829.096	302.81
829.483	363.66
829.871	326.21
830.259	377.7
830.646	295.79
831.034	351.96
831.421	330.89
831.808	358.98
832.196	375.36
832.583	319.19
832.97	366
833.357	300.47
833.744	319.19
834.131	260.68
834.518	312.17
834.905	349.62
835.292	354.3
835.678	335.57
836.065	368.34
836.452	258.34
836.838	295.79
837.225	279.4
837.611	326.21
837.998	351.96
838.384	300.47
838.77	323.87
839.157	260.68
839.543	316.85
839.929	333.23
840.315	358.98
840.701	347.28
841.087	270.04
841.473	373.02
841.858	342.6
842.244	323.87
842.63	274.72
843.015	232.59
843.401	616.44
843.787	314.51
844.172	347.28
844.557	286.42
844.943	326.21
845.328	344.94
845.713	356.64
846.098	298.13
846.483	277.06
846.868	340.26
847.253	288.76
847.638	419.83
848.023	312.17
848.408	351.96
848.793	328.55
849.177	312.17
849.562	298.13
849.947	291.1
850.331	347.28
850.715	391.75
851.1	309.83
851.484	335.57
851.868	307.49
852.253	284.08
852.637	340.26
853.021	288.76
853.405	326.21
853.789	256
854.173	384.73
854.557	389.41
854.94	326.21
855.324	288.76
855.708	370.68
856.091	307.49
856.475	323.87
856.858	288.76
857.242	340.26
857.625	370.68
858.009	298.13
858.392	323.87
858.775	363.66
859.158	333.23
859.541	267.7
859.924	330.89
860.307	305.15
860.69	326.21
861.073	309.83
861.456	333.23
861.838	263.02
862.221	277.06
862.604	293.44
862.986	363.66
863.369	356.64
863.751	284.08
864.133	380.04
864.516	351.96
864.898	344.94
865.28	270.04
865.662	309.83
866.044	323.87
866.426	258.34
866.808	302.81
867.19	316.85
867.572	279.4
867.954	370.68
868.336	319.19
868.717	267.7
869.099	288.76
869.48	344.94
869.862	323.87
870.243	349.62
870.625	272.38
871.006	321.53
871.387	330.89
871.768	347.28
872.149	295.79
872.53	316.85
872.911	281.74
873.292	347.28
873.673	326.21
874.054	281.74
874.435	326.21
874.815	270.04
875.196	288.76
875.577	270.04
875.957	298.13
876.338	302.81
876.718	293.44
877.098	363.66
877.479	307.49
877.859	274.72
878.239	333.23
878.619	309.83
878.999	312.17
879.379	358.98
879.759	305.15
880.139	258.34
880.519	358.98
880.898	328.55
881.278	286.42
881.658	347.28
882.037	351.96
882.417	333.23
882.796	330.89
883.176	370.68
883.555	321.53
883.934	398.77
884.313	305.15
884.693	309.83
885.072	337.91
885.451	351.96
885.83	356.64
886.209	351.96
886.587	279.4
886.966	293.44
887.345	351.96
887.724	349.62
888.102	384.73
888.481	387.07
888.859	277.06
889.238	347.28
889.616	333.23
889.994	279.4
890.373	291.1
890.751	286.42
891.129	326.21
891.507	305.15
891.885	256
892.263	302.81
892.641	286.42
893.019	288.76
893.396	319.19
893.774	314.51
894.152	361.32
894.529	216.21
894.907	307.49
895.284	326.21
895.662	351.96
896.039	356.64
896.416	354.3
896.794	312.17
897.171	293.44
897.548	286.42
897.925	293.44
898.302	316.85
898.679	267.7
899.056	314.51
899.433	351.96
899.809	384.73
900.186	358.98
900.563	328.55
900.939	323.87
901.316	366
901.692	344.94
902.069	267.7
902.445	401.11
902.821	323.87
903.197	382.39
903.574	335.57
903.95	291.1
904.326	284.08
904.702	305.15
905.078	340.26
905.454	307.49
905.829	354.3
906.205	323.87
906.581	337.91
906.956	314.51
907.332	330.89
907.707	307.49
908.083	319.19
908.458	349.62
908.833	300.47
909.209	309.83
909.584	326.21
909.959	358.98
910.334	323.87
910.709	387.07
911.084	354.3
911.459	288.76
911.834	323.87
912.209	375.36
912.583	309.83
912.958	279.4
913.333	344.94
913.707	319.19
914.082	279.4
914.456	284.08
914.83	368.34
915.205	298.13
915.579	377.7
915.953	358.98
916.327	394.09
916.701	370.68
917.075	424.51
917.449	295.79
917.823	319.19
918.197	335.57
918.571	272.38
918.944	412.81
919.318	366
919.692	298.13
920.065	358.98
920.438	312.17
920.812	312.17
921.185	344.94
921.558	330.89
921.932	314.51
922.305	295.79
922.678	272.38
923.051	298.13
923.424	305.15
923.797	267.7
924.17	267.7
924.542	293.44
924.915	349.62
925.288	361.32
925.661	366
926.033	253.66
926.406	337.91
926.778	309.83
927.15	305.15
927.523	340.26
927.895	302.81
928.267	298.13
928.639	260.68
929.011	281.74
929.383	291.1
929.755	333.23
930.127	293.44
930.499	326.21
930.871	326.21
931.242	335.57
931.614	286.42
931.986	263.02
932.357	354.3
932.729	340.26
933.1	293.44
933.471	295.79
933.843	288.76
934.214	373.02
934.585	281.74
934.956	277.06
935.327	356.64
935.698	316.85
936.069	335.57
936.44	232.59
936.811	356.64
937.182	316.85
937.552	358.98
937.923	316.85
938.293	298.13
938.664	293.44
939.034	344.94
939.405	356.64
939.775	288.76
940.145	321.53
940.516	333.23
940.886	349.62
941.256	270.04
941.626	298.13
941.996	281.74
942.366	300.47
942.735	328.55
943.105	391.75
943.475	349.62
943.845	293.44
944.214	251.32
944.584	284.08
944.953	330.89
945.323	267.7
945.692	309.83
946.061	312.17
946.43	361.32
946.8	323.87
947.169	314.51
947.538	312.17
947.907	309.83
948.276	375.36
948.645	272.38
949.013	319.19
949.382	291.1
949.751	344.94
950.119	316.85
950.488	321.53
950.857	293.44
951.225	284.08
951.593	260.68
951.962	298.13
952.33	267.7
952.698	323.87
953.066	323.87
953.434	298.13
953.802	382.39
954.17	267.7
954.538	295.79
954.906	328.55
955.274	302.81
955.642	368.34
956.009	272.38
956.377	319.19
956.744	270.04
957.112	286.42
957.479	361.32
957.847	293.44
958.214	349.62
958.581	354.3
958.948	319.19
959.315	319.19
959.683	309.83
960.05	309.83
960.416	349.62
960.783	316.85
961.15	288.76
961.517	270.04
961.884	298.13
962.25	295.79
962.617	279.4
962.983	312.17
963.35	284.08
963.716	246.63
964.082	342.6
964.449	316.85
964.815	272.38
965.181	403.45
965.547	309.83
965.913	263.02
966.279	340.26
966.645	335.57
967.011	382.39
967.377	363.66
967.742	274.72
968.108	248.97
968.474	288.76
968.839	321.53
969.205	377.7
969.57	347.28
969.935	305.15
970.301	335.57
970.666	323.87
971.031	328.55
971.396	340.26
971.761	375.36
972.126	293.44
972.491	291.1
972.856	316.85
973.221	337.91
973.586	302.81
973.95	277.06
974.315	316.85
974.679	302.81
975.044	293.44
975.408	291.1
975.773	328.55
976.137	298.13
976.501	295.79
976.866	314.51
977.23	349.62
977.594	302.81
977.958	302.81
978.322	309.83
978.686	319.19
979.049	291.1
979.413	328.55
979.777	263.02
980.141	307.49
980.504	344.94
980.868	358.98
981.231	335.57
981.595	326.21
981.958	298.13
982.321	330.89
982.684	333.23
983.048	340.26
983.411	387.07
983.774	326.21
984.137	300.47
984.5	300.47
984.862	309.83
985.225	347.28
985.588	312.17
985.951	340.26
986.313	326.21
986.676	316.85
987.038	260.68
987.401	351.96
987.763	314.51
988.125	274.72
988.488	274.72
988.85	307.49
989.212	305.15
989.574	258.34
989.936	281.74
990.298	309.83
990.66	344.94
991.022	300.47
991.383	333.23
991.745	373.02
992.107	391.75
992.468	316.85
992.83	349.62
993.191	380.04
993.553	316.85
993.914	316.85
994.275	340.26
994.637	328.55
994.998	309.83
995.359	279.4
995.72	354.3
996.081	356.64
996.442	284.08
996.803	270.04
997.163	312.17
997.524	340.26
997.885	349.62
998.245	337.91
998.606	288.76
998.966	342.6
999.327	347.28
999.687	389.41
1000.047	312.17
1000.408	326.21
1000.768	328.55
1001.128	307.49
1001.488	295.79
1001.848	291.1
1002.208	284.08
1002.568	293.44
1002.927	321.53
1003.287	356.64
1003.647	387.07
1004.007	295.79
1004.366	300.47
1004.726	351.96
1005.085	326.21
1005.444	277.06
1005.804	309.83
1006.163	307.49
1006.522	272.38
1006.881	387.07
1007.24	333.23
1007.599	298.13
1007.958	293.44
1008.317	358.98
1008.676	384.73
1009.035	309.83
1009.393	326.21
1009.752	295.79
1010.111	300.47
1010.469	312.17
1010.828	307.49
1011.186	298.13
1011.544	305.15
1011.903	284.08
1012.261	286.42
1012.619	330.89
1012.977	279.4
1013.335	319.19
1013.693	328.55
1014.051	314.51
1014.409	309.83
1014.767	288.76
1015.124	260.68
1015.482	321.53
1015.84	295.79
1016.197	349.62
1016.555	368.34
1016.912	363.66
1017.269	347.28
1017.627	347.28
1017.984	361.32
1018.341	347.28
1018.698	223.23
1019.055	302.81
1019.412	284.08
1019.769	328.55
1020.126	344.94
1020.483	368.34
1020.84	366
1021.196	337.91
1021.553	344.94
1021.909	326.21
1022.266	333.23
1022.622	330.89
1022.979	307.49
1023.335	316.85
1023.691	260.68
1024.047	309.83
1024.404	408.13
1024.76	298.13
1025.116	251.32
1025.472	279.4
1025.827	260.68
1026.183	342.6
1026.539	265.36
1026.895	293.44
1027.25	260.68
1027.606	358.98
1027.961	300.47
1028.317	361.32
1028.672	342.6
1029.028	293.44
1029.383	234.93
1029.738	340.26
1030.093	337.91
1030.448	300.47
1030.803	342.6
1031.158	335.57
1031.513	328.55
1031.868	274.72
1032.223	279.4
1032.577	351.96
1032.932	302.81
1033.287	344.94
1033.641	370.68
1033.996	288.76
1034.35	206.84
1034.704	309.83
1035.059	298.13
1035.413	286.42
1035.767	286.42
1036.121	286.42
