Data from Al_FLMS009871__1274__16-47-54-369.txt Node

Date: Fri Mar 08 16:47:54 CST 2024
User: pe5414po
Spectrometer: FLMS00987
Trigger mode: 0
Integration Time (sec): 1.000000E-1
Scans to average: 1
Electric dark correction enabled: true
Nonlinearity correction enabled: false
Boxcar width: 0
XAxis mode: Wavelengths
Number of Pixels in Spectrum: 2048
>>>>>Begin Spectral Data<<<<<
188.938	-59.68
189.409	-59.68
189.879	-59.68
190.349	-104.15
190.819	-97.13
191.29	-69.05
191.76	-139.26
192.23	-104.15
192.7	-148.62
193.17	-69.05
193.64	-78.41
194.109	31.6
194.579	-26.92
195.049	-1.17
195.519	24.58
195.988	57.34
196.458	97.13
196.927	69.05
197.397	118.2
197.866	118.2
198.336	120.54
198.805	167.35
199.274	101.81
199.744	193.09
200.213	211.82
200.682	188.41
201.151	188.41
201.62	239.9
202.089	286.72
202.558	188.41
203.027	279.69
203.495	251.61
203.964	253.95
204.433	207.14
204.902	242.25
205.37	300.76
205.839	314.8
206.307	331.19
206.776	279.69
207.244	249.27
207.712	326.5
208.181	286.72
208.649	279.69
209.117	253.95
209.585	338.21
210.053	300.76
210.521	328.85
210.989	286.72
211.457	279.69
211.925	265.65
212.393	289.06
212.861	312.46
213.328	291.4
213.796	244.59
214.264	256.29
214.731	277.35
215.199	284.38
215.666	284.38
216.133	214.16
216.601	307.78
217.068	324.16
217.535	303.1
218.003	204.8
218.47	300.76
218.937	263.31
219.404	296.08
219.871	279.69
220.338	258.63
220.805	275.01
221.271	232.88
221.738	277.35
222.205	253.95
222.671	197.78
223.138	242.25
223.605	263.31
224.071	249.27
224.538	284.38
225.004	214.16
225.47	235.22
225.937	293.74
226.403	310.12
226.869	251.61
227.335	267.99
227.801	298.42
228.267	293.74
228.733	251.61
229.199	225.86
229.665	244.59
230.131	230.54
230.597	317.14
231.062	239.9
231.528	275.01
231.994	293.74
232.459	310.12
232.925	305.44
233.39	263.31
233.856	312.46
234.321	242.25
234.786	298.42
235.252	249.27
235.717	251.61
236.182	237.56
236.647	296.08
237.112	239.9
237.577	277.35
238.042	296.08
238.507	223.52
238.972	272.67
239.436	286.72
239.901	300.76
240.366	282.03
240.83	305.44
241.295	260.97
241.76	342.89
242.224	223.52
242.688	326.5
243.153	314.8
243.617	310.12
244.081	291.4
244.545	272.67
245.01	286.72
245.474	286.72
245.938	368.63
246.402	270.33
246.866	275.01
247.33	282.03
247.793	267.99
248.257	256.29
248.721	338.21
249.185	345.23
249.648	284.38
250.112	267.99
250.575	256.29
251.039	284.38
251.502	258.63
251.965	251.61
252.429	282.03
252.892	303.1
253.355	359.27
253.818	267.99
254.281	333.53
254.744	223.52
255.207	242.25
255.67	298.42
256.133	235.22
256.596	282.03
257.059	230.54
257.522	338.21
257.984	310.12
258.447	284.38
258.909	246.93
259.372	347.57
259.834	331.19
260.297	307.78
260.759	260.97
261.221	246.93
261.684	303.1
262.146	270.33
262.608	272.67
263.07	286.72
263.532	289.06
263.994	298.42
264.456	239.9
264.918	279.69
265.38	282.03
265.842	235.22
266.303	221.18
266.765	324.16
267.227	282.03
267.688	321.82
268.15	265.65
268.611	333.53
269.072	291.4
269.534	321.82
269.995	359.27
270.456	317.14
270.918	305.44
271.379	321.82
271.84	289.06
272.301	303.1
272.762	310.12
273.223	267.99
273.684	303.1
274.144	296.08
274.605	303.1
275.066	237.56
275.527	267.99
275.987	279.69
276.448	282.03
276.908	298.42
277.369	293.74
277.829	267.99
278.289	211.82
278.75	345.23
279.21	310.12
279.67	312.46
280.13	277.35
280.59	314.8
281.05	267.99
281.51	284.38
281.97	321.82
282.43	239.9
282.89	272.67
283.35	338.21
283.809	284.38
284.269	298.42
284.729	286.72
285.188	321.82
285.648	303.1
286.107	289.06
286.567	300.76
287.026	291.4
287.485	270.33
287.944	260.97
288.404	235.22
288.863	307.78
289.322	232.88
289.781	314.8
290.24	300.76
290.699	307.78
291.158	267.99
291.616	296.08
292.075	286.72
292.534	340.55
292.992	291.4
293.451	282.03
293.91	249.27
294.368	277.35
294.827	232.88
295.285	349.91
295.743	317.14
296.202	282.03
296.66	291.4
297.118	282.03
297.576	228.2
298.034	286.72
298.492	284.38
298.95	331.19
299.408	246.93
299.866	317.14
300.324	324.16
300.781	303.1
301.239	275.01
301.697	270.33
302.154	319.48
302.612	333.53
303.069	317.14
303.527	298.42
303.984	221.18
304.441	289.06
304.899	267.99
305.356	305.44
305.813	338.21
306.27	314.8
306.727	291.4
307.184	286.72
307.641	291.4
308.098	345.23
308.555	328.85
309.012	293.74
309.468	249.27
309.925	270.33
310.382	305.44
310.838	284.38
311.295	251.61
311.751	282.03
312.208	356.93
312.664	352.25
313.12	284.38
313.577	277.35
314.033	284.38
314.489	368.63
314.945	338.21
315.401	275.01
315.857	286.72
316.313	293.74
316.769	279.69
317.225	251.61
317.681	242.25
318.136	258.63
318.592	326.5
319.048	291.4
319.503	272.67
319.959	296.08
320.414	286.72
320.869	324.16
321.325	331.19
321.78	251.61
322.235	319.48
322.691	310.12
323.146	310.12
323.601	326.5
324.056	267.99
324.511	303.1
324.966	307.78
325.421	265.65
325.875	277.35
326.33	225.86
326.785	260.97
327.24	328.85
327.694	354.59
328.149	319.48
328.603	246.93
329.058	324.16
329.512	317.14
329.966	310.12
330.421	289.06
330.875	335.87
331.329	286.72
331.783	282.03
332.237	298.42
332.691	319.48
333.145	342.89
333.599	296.08
334.053	317.14
334.507	272.67
334.96	293.74
335.414	249.27
335.868	277.35
336.321	342.89
336.775	326.5
337.228	326.5
337.682	342.89
338.135	296.08
338.588	319.48
339.042	253.95
339.495	324.16
339.948	338.21
340.401	300.76
340.854	312.46
341.307	289.06
341.76	305.44
342.213	275.01
342.666	307.78
343.119	354.59
343.571	310.12
344.024	314.8
344.477	354.59
344.929	296.08
345.382	282.03
345.834	326.5
346.287	333.53
346.739	253.95
347.191	282.03
347.644	340.55
348.096	328.85
348.548	314.8
349	335.87
349.452	331.19
349.904	293.74
350.356	340.55
350.808	361.61
351.26	277.35
351.711	279.69
352.163	293.74
352.615	256.29
353.066	282.03
353.518	282.03
353.969	282.03
354.421	284.38
354.872	270.33
355.324	251.61
355.775	312.46
356.226	368.63
356.677	321.82
357.128	277.35
357.579	380.34
358.03	228.2
358.481	326.5
358.932	335.87
359.383	197.78
359.834	333.53
360.285	298.42
360.735	361.61
361.186	342.89
361.637	373.32
362.087	389.7
362.538	305.44
362.988	305.44
363.438	328.85
363.889	300.76
364.339	291.4
364.789	296.08
365.239	296.08
365.689	331.19
366.139	279.69
366.589	298.42
367.039	277.35
367.489	305.44
367.939	321.82
368.389	319.48
368.839	253.95
369.288	282.03
369.738	300.76
370.187	331.19
370.637	307.78
371.086	321.82
371.536	340.55
371.985	312.46
372.434	284.38
372.884	319.48
373.333	270.33
373.782	289.06
374.231	307.78
374.68	298.42
375.129	335.87
375.578	272.67
376.027	300.76
376.475	300.76
376.924	342.89
377.373	319.48
377.822	289.06
378.27	326.5
378.719	298.42
379.167	319.48
379.616	331.19
380.064	300.76
380.512	342.89
380.961	291.4
381.409	284.38
381.857	326.5
382.305	359.27
382.753	291.4
383.201	345.23
383.649	354.59
384.097	333.53
384.545	293.74
384.992	340.55
385.44	267.99
385.888	399.06
386.335	277.35
386.783	251.61
387.231	303.1
387.678	277.35
388.125	328.85
388.573	258.63
389.02	333.53
389.467	326.5
389.914	286.72
390.362	392.04
390.809	300.76
391.256	338.21
391.703	375.66
392.15	328.85
392.596	319.48
393.043	359.27
393.49	298.42
393.937	251.61
394.383	307.78
394.83	354.59
395.276	321.82
395.723	333.53
396.169	333.53
396.616	338.21
397.062	286.72
397.508	303.1
397.954	352.25
398.401	324.16
398.847	303.1
399.293	361.61
399.739	321.82
400.185	300.76
400.631	333.53
401.076	260.97
401.522	314.8
401.968	349.91
402.414	387.36
402.859	300.76
403.305	230.54
403.75	305.44
404.196	373.32
404.641	349.91
405.086	307.78
405.532	310.12
405.977	338.21
406.422	338.21
406.867	321.82
407.312	296.08
407.757	363.95
408.202	340.55
408.647	293.74
409.092	349.91
409.537	333.53
409.982	291.4
410.426	312.46
410.871	317.14
411.316	289.06
411.76	324.16
412.205	335.87
412.649	363.95
413.093	370.97
413.538	305.44
413.982	370.97
414.426	286.72
414.87	338.21
415.314	258.63
415.758	282.03
416.202	342.89
416.646	282.03
417.09	270.33
417.534	399.06
417.978	321.82
418.421	361.61
418.865	345.23
419.309	324.16
419.752	366.29
420.196	321.82
420.639	310.12
421.083	324.16
421.526	305.44
421.969	331.19
422.412	359.27
422.856	303.1
423.299	235.22
423.742	338.21
424.185	293.74
424.628	373.32
425.071	406.08
425.513	335.87
425.956	326.5
426.399	335.87
426.842	277.35
427.284	331.19
427.727	385.02
428.169	282.03
428.612	272.67
429.054	277.35
429.497	289.06
429.939	279.69
430.381	307.78
430.823	326.5
431.265	314.8
431.707	338.21
432.149	342.89
432.591	324.16
433.033	338.21
433.475	300.76
433.917	396.72
434.359	370.97
434.8	272.67
435.242	326.5
435.684	303.1
436.125	392.04
436.567	272.67
437.008	326.5
437.449	342.89
437.891	326.5
438.332	347.57
438.773	326.5
439.214	342.89
439.656	361.61
440.097	328.85
440.538	340.55
440.978	272.67
441.419	342.89
441.86	338.21
442.301	284.38
442.742	284.38
443.182	326.5
443.623	239.9
444.063	373.32
444.504	293.74
444.944	270.33
445.385	352.25
445.825	314.8
446.265	314.8
446.706	335.87
447.146	375.66
447.586	361.61
448.026	286.72
448.466	300.76
448.906	356.93
449.346	354.59
449.786	352.25
450.225	342.89
450.665	307.78
451.105	279.69
451.544	356.93
451.984	272.67
452.424	333.53
452.863	333.53
453.302	352.25
453.742	354.59
454.181	307.78
454.62	403.74
455.059	272.67
455.499	305.44
455.938	328.85
456.377	338.21
456.816	345.23
457.254	359.27
457.693	338.21
458.132	321.82
458.571	298.42
459.01	328.85
459.448	289.06
459.887	317.14
460.325	331.19
460.764	272.67
461.202	326.5
461.641	342.89
462.079	319.48
462.517	279.69
462.955	307.78
463.393	319.48
463.832	338.21
464.27	307.78
464.708	324.16
465.145	356.93
465.583	312.46
466.021	331.19
466.459	300.76
466.897	310.12
467.334	359.27
467.772	307.78
468.209	289.06
468.647	368.63
469.084	354.59
469.522	284.38
469.959	328.85
470.396	333.53
470.833	340.55
471.271	342.89
471.708	256.29
472.145	387.36
472.582	272.67
473.019	349.91
473.456	296.08
473.892	349.91
474.329	298.42
474.766	312.46
475.202	270.33
475.639	267.99
476.076	349.91
476.512	282.03
476.949	256.29
477.385	324.16
477.821	324.16
478.258	359.27
478.694	378
479.13	242.25
479.566	347.57
480.002	328.85
480.438	321.82
480.874	345.23
481.31	314.8
481.746	293.74
482.181	298.42
482.617	378
483.053	314.8
483.488	356.93
483.924	373.32
484.36	296.08
484.795	335.87
485.23	347.57
485.666	284.38
486.101	314.8
486.536	286.72
486.971	277.35
487.407	307.78
487.842	340.55
488.277	324.16
488.712	338.21
489.146	310.12
489.581	347.57
490.016	307.78
490.451	324.16
490.885	345.23
491.32	293.74
491.755	246.93
492.189	324.16
492.624	267.99
493.058	267.99
493.492	307.78
493.927	368.63
494.361	296.08
494.795	333.53
495.229	258.63
495.663	272.67
496.097	345.23
496.531	324.16
496.965	338.21
497.399	305.44
497.833	265.65
498.266	305.44
498.7	310.12
499.134	326.5
499.567	370.97
500.001	335.87
500.434	305.44
500.868	335.87
501.301	370.97
501.734	291.4
502.168	249.27
502.601	352.25
503.034	319.48
503.467	370.97
503.9	228.2
504.333	291.4
504.766	286.72
505.199	345.23
505.632	338.21
506.064	321.82
506.497	321.82
506.93	272.67
507.362	314.8
507.795	317.14
508.227	354.59
508.66	298.42
509.092	321.82
509.524	352.25
509.956	338.21
510.389	310.12
510.821	375.66
511.253	326.5
511.685	310.12
512.117	275.01
512.549	284.38
512.981	321.82
513.412	267.99
513.844	303.1
514.276	303.1
514.707	289.06
515.139	284.38
515.571	314.8
516.002	317.14
516.433	303.1
516.865	333.53
517.296	270.33
517.727	333.53
518.159	328.85
518.59	373.32
519.021	338.21
519.452	230.54
519.883	263.31
520.314	373.32
520.744	342.89
521.175	321.82
521.606	310.12
522.037	298.42
522.467	328.85
522.898	314.8
523.328	331.19
523.759	359.27
524.189	310.12
524.62	331.19
525.05	324.16
525.48	349.91
525.91	321.82
526.341	284.38
526.771	312.46
527.201	333.53
527.631	326.5
528.061	200.12
528.49	363.95
528.92	335.87
529.35	305.44
529.78	324.16
530.209	303.1
530.639	300.76
531.068	324.16
531.498	300.76
531.927	366.29
532.357	326.5
532.786	317.14
533.215	300.76
533.644	317.14
534.074	312.46
534.503	361.61
534.932	310.12
535.361	331.19
535.79	314.8
536.218	340.55
536.647	286.72
537.076	335.87
537.505	340.55
537.933	253.95
538.362	340.55
538.79	267.99
539.219	291.4
539.647	335.87
540.076	307.78
540.504	340.55
540.932	347.57
541.36	284.38
541.788	375.66
542.217	324.16
542.645	303.1
543.073	303.1
543.5	307.78
543.928	345.23
544.356	296.08
544.784	321.82
545.211	293.74
545.639	310.12
546.067	267.99
546.494	375.66
546.922	265.65
547.349	223.52
547.776	270.33
548.204	305.44
548.631	349.91
549.058	335.87
549.485	385.02
549.912	328.85
550.339	427.15
550.766	335.87
551.193	300.76
551.62	307.78
552.047	284.38
552.474	300.76
552.9	328.85
553.327	317.14
553.754	324.16
554.18	317.14
554.607	307.78
555.033	307.78
555.459	286.72
555.886	263.31
556.312	235.22
556.738	310.12
557.164	324.16
557.59	342.89
558.016	326.5
558.442	293.74
558.868	317.14
559.294	310.12
559.72	207.14
560.145	361.61
560.571	293.74
560.997	291.4
561.422	289.06
561.848	359.27
562.273	286.72
562.699	317.14
563.124	317.14
563.549	342.89
563.974	349.91
564.4	263.31
564.825	310.12
565.25	361.61
565.675	370.97
566.1	307.78
566.525	354.59
566.95	345.23
567.374	342.89
567.799	305.44
568.224	328.85
568.648	296.08
569.073	282.03
569.497	310.12
569.922	291.4
570.346	349.91
570.771	347.57
571.195	312.46
571.619	307.78
572.043	293.74
572.467	354.59
572.891	321.82
573.315	307.78
573.739	305.44
574.163	317.14
574.587	314.8
575.011	317.14
575.435	342.89
575.858	300.76
576.282	413.1
576.705	300.76
577.129	319.48
577.552	286.72
577.976	312.46
578.399	317.14
578.822	331.19
579.245	317.14
579.669	338.21
580.092	293.74
580.515	300.76
580.938	345.23
581.361	300.76
581.784	298.42
582.206	326.5
582.629	363.95
583.052	282.03
583.474	298.42
583.897	291.4
584.32	300.76
584.742	272.67
585.165	317.14
585.587	296.08
586.009	317.14
586.431	331.19
586.854	298.42
587.276	338.21
587.698	352.25
588.12	296.08
588.542	354.59
588.964	380.34
589.386	331.19
589.807	342.89
590.229	324.16
590.651	319.48
591.073	286.72
591.494	368.63
591.916	277.35
592.337	239.9
592.759	331.19
593.18	277.35
593.601	340.55
594.022	296.08
594.444	296.08
594.865	307.78
595.286	296.08
595.707	326.5
596.128	347.57
596.549	305.44
596.97	352.25
597.39	291.4
597.811	333.53
598.232	284.38
598.652	342.89
599.073	356.93
599.494	303.1
599.914	291.4
600.334	368.63
600.755	427.15
601.175	307.78
601.595	321.82
602.015	340.55
602.436	340.55
602.856	445.87
603.276	314.8
603.696	359.27
604.115	326.5
604.535	256.29
604.955	385.02
605.375	314.8
605.794	275.01
606.214	272.67
606.634	246.93
607.053	275.01
607.473	286.72
607.892	279.69
608.311	307.78
608.731	331.19
609.15	289.06
609.569	319.48
609.988	258.63
610.407	286.72
610.826	303.1
611.245	267.99
611.664	307.78
612.083	352.25
612.501	352.25
612.92	293.74
613.339	310.12
613.757	333.53
614.176	319.48
614.594	310.12
615.013	265.65
615.431	293.74
615.85	296.08
616.268	303.1
616.686	307.78
617.104	223.52
617.522	354.59
617.94	314.8
618.358	275.01
618.776	342.89
619.194	305.44
619.612	253.95
620.03	291.4
620.447	256.29
620.865	300.76
621.282	352.25
621.7	396.72
622.117	326.5
622.535	354.59
622.952	321.82
623.369	291.4
623.787	340.55
624.204	342.89
624.621	319.48
625.038	326.5
625.455	303.1
625.872	298.42
626.289	300.76
626.706	298.42
627.123	328.85
627.539	298.42
627.956	263.31
628.373	368.63
628.789	291.4
629.206	317.14
629.622	296.08
630.038	321.82
630.455	270.33
630.871	340.55
631.287	352.25
631.703	328.85
632.12	349.91
632.536	324.16
632.952	354.59
633.368	286.72
633.783	256.29
634.199	289.06
634.615	324.16
635.031	370.97
635.446	305.44
635.862	307.78
636.277	380.34
636.693	333.53
637.108	314.8
637.524	310.12
637.939	342.89
638.354	333.53
638.77	249.27
639.185	272.67
639.6	368.63
640.015	342.89
640.43	361.61
640.845	286.72
641.259	284.38
641.674	293.74
642.089	286.72
642.504	286.72
642.918	286.72
643.333	340.55
643.747	303.1
644.162	352.25
644.576	338.21
644.991	347.57
645.405	378
645.819	293.74
646.233	272.67
646.647	317.14
647.061	331.19
647.475	303.1
647.889	279.69
648.303	326.5
648.717	352.25
649.131	331.19
649.545	260.97
649.958	361.61
650.372	342.89
650.785	296.08
651.199	349.91
651.612	333.53
652.026	361.61
652.439	361.61
652.852	286.72
653.266	312.46
653.679	282.03
654.092	319.48
654.505	352.25
654.918	328.85
655.331	321.82
655.744	260.97
656.156	275.01
656.569	263.31
656.982	312.46
657.394	373.32
657.807	342.89
658.22	335.87
658.632	331.19
659.044	284.38
659.457	333.53
659.869	310.12
660.281	249.27
660.693	284.38
661.106	340.55
661.518	258.63
661.93	237.56
662.342	324.16
662.754	335.87
663.165	270.33
663.577	296.08
663.989	312.46
664.401	366.29
664.812	263.31
665.224	300.76
665.635	253.95
666.047	270.33
666.458	270.33
666.869	307.78
667.281	373.32
667.692	326.5
668.103	286.72
668.514	385.02
668.925	319.48
669.336	380.34
669.747	324.16
670.158	366.29
670.569	321.82
670.979	284.38
671.39	342.89
671.801	319.48
672.211	354.59
672.622	275.01
673.032	298.42
673.443	305.44
673.853	270.33
674.263	319.48
674.674	340.55
675.084	296.08
675.494	342.89
675.904	314.8
676.314	340.55
676.724	378
677.134	328.85
677.544	352.25
677.953	314.8
678.363	321.82
678.773	354.59
679.182	321.82
679.592	370.97
680.001	296.08
680.411	373.32
680.82	338.21
681.23	326.5
681.639	286.72
682.048	286.72
682.457	385.02
682.866	289.06
683.275	286.72
683.684	267.99
684.093	272.67
684.502	298.42
684.911	342.89
685.32	249.27
685.728	314.8
686.137	279.69
686.546	305.44
686.954	352.25
687.363	282.03
687.771	310.12
688.179	333.53
688.588	277.35
688.996	347.57
689.404	317.14
689.812	289.06
690.22	328.85
690.628	319.48
691.036	354.59
691.444	324.16
691.852	282.03
692.26	396.72
692.667	326.5
693.075	342.89
693.483	338.21
693.89	256.29
694.298	307.78
694.705	338.21
695.112	338.21
695.52	293.74
695.927	349.91
696.334	305.44
696.741	345.23
697.148	303.1
697.555	317.14
697.962	359.27
698.369	310.12
698.776	356.93
699.183	321.82
699.59	324.16
699.996	303.1
700.403	326.5
700.81	293.74
701.216	317.14
701.623	291.4
702.029	289.06
702.435	300.76
702.842	317.14
703.248	347.57
703.654	378
704.06	375.66
704.466	279.69
704.872	310.12
705.278	298.42
705.684	317.14
706.09	303.1
706.496	253.95
706.901	317.14
707.307	338.21
707.712	305.44
708.118	321.82
708.523	260.97
708.929	319.48
709.334	335.87
709.74	296.08
710.145	335.87
710.55	333.53
710.955	289.06
711.36	296.08
711.765	305.44
712.17	333.53
712.575	356.93
712.98	998.24
713.385	342.89
713.789	310.12
714.194	305.44
714.599	359.27
715.003	356.93
715.408	342.89
715.812	293.74
716.217	338.21
716.621	317.14
717.025	270.33
717.429	342.89
717.833	307.78
718.238	298.42
718.642	282.03
719.046	258.63
719.449	263.31
719.853	272.67
720.257	310.12
720.661	303.1
721.065	328.85
721.468	317.14
721.872	303.1
722.275	331.19
722.679	284.38
723.082	312.46
723.485	333.53
723.889	256.29
724.292	312.46
724.695	312.46
725.098	312.46
725.501	338.21
725.904	298.42
726.307	345.23
726.71	303.1
727.113	265.65
727.516	363.95
727.918	300.76
728.321	296.08
728.724	312.46
729.126	298.42
729.529	310.12
729.931	331.19
730.333	314.8
730.736	340.55
731.138	310.12
731.54	335.87
731.942	321.82
732.344	361.61
732.746	331.19
733.148	303.1
733.55	286.72
733.952	284.38
734.354	347.57
734.756	307.78
735.157	345.23
735.559	225.86
735.96	354.59
736.362	284.38
736.763	338.21
737.165	333.53
737.566	260.97
737.967	324.16
738.368	279.69
738.77	312.46
739.171	300.76
739.572	319.48
739.973	319.48
740.374	328.85
740.774	303.1
741.175	326.5
741.576	242.25
741.977	312.46
742.377	284.38
742.778	284.38
743.178	282.03
743.579	356.93
743.979	298.42
744.379	265.65
744.78	293.74
745.18	260.97
745.58	331.19
745.98	291.4
746.38	345.23
746.78	289.06
747.18	310.12
747.58	354.59
747.98	354.59
748.38	361.61
748.779	272.67
749.179	359.27
749.578	328.85
749.978	324.16
750.377	324.16
750.777	275.01
751.176	317.14
751.575	289.06
751.975	272.67
752.374	310.12
752.773	326.5
753.172	291.4
753.571	356.93
753.97	312.46
754.369	265.65
754.768	253.95
755.166	275.01
755.565	354.59
755.964	331.19
756.362	321.82
756.761	340.55
757.159	317.14
757.558	249.27
757.956	335.87
758.354	326.5
758.753	345.23
759.151	361.61
759.549	319.48
759.947	291.4
760.345	319.48
760.743	356.93
761.141	296.08
761.539	293.74
761.936	284.38
762.334	312.46
762.732	270.33
763.129	291.4
763.527	331.19
763.924	284.38
764.322	260.97
764.719	263.31
765.117	331.19
765.514	289.06
765.911	260.97
766.308	305.44
766.705	307.78
767.102	321.82
767.499	282.03
767.896	300.76
768.293	380.34
768.69	305.44
769.086	242.25
769.483	340.55
769.88	270.33
770.276	319.48
770.673	356.93
771.069	333.53
771.466	354.59
771.862	263.31
772.258	331.19
772.654	448.21
773.05	249.27
773.447	310.12
773.843	321.82
774.239	293.74
774.634	296.08
775.03	249.27
775.426	368.63
775.822	363.95
776.218	260.97
776.613	296.08
777.009	333.53
777.404	345.23
777.8	352.25
778.195	286.72
778.59	338.21
778.986	342.89
779.381	338.21
779.776	366.29
780.171	267.99
780.566	387.36
780.961	314.8
781.356	349.91
781.751	335.87
782.146	366.29
782.54	279.69
782.935	267.99
783.33	289.06
783.724	314.8
784.119	321.82
784.513	291.4
784.908	347.57
785.302	333.53
785.696	291.4
786.09	321.82
786.485	359.27
786.879	331.19
787.273	267.99
787.667	340.55
788.061	326.5
788.454	275.01
788.848	331.19
789.242	366.29
789.636	298.42
790.029	314.8
790.423	307.78
790.816	345.23
791.21	335.87
791.603	291.4
791.997	286.72
792.39	310.12
792.783	352.25
793.176	314.8
793.569	260.97
793.962	277.35
794.355	340.55
794.748	282.03
795.141	267.99
795.534	291.4
795.927	314.8
796.319	387.36
796.712	326.5
797.105	352.25
797.497	387.36
797.89	258.63
798.282	289.06
798.674	305.44
799.067	286.72
799.459	312.46
799.851	366.29
800.243	333.53
800.635	272.67
801.027	314.8
801.419	298.42
801.811	312.46
802.203	286.72
802.594	303.1
802.986	230.54
803.378	342.89
803.769	349.91
804.161	263.31
804.552	335.87
804.944	361.61
805.335	305.44
805.726	349.91
806.118	293.74
806.509	319.48
806.9	282.03
807.291	314.8
807.682	340.55
808.073	270.33
808.464	279.69
808.855	284.38
809.245	282.03
809.636	335.87
810.027	319.48
810.417	253.95
810.808	349.91
811.198	345.23
811.589	361.61
811.979	237.56
812.369	303.1
812.759	270.33
813.15	291.4
813.54	296.08
813.93	251.61
814.32	270.33
814.71	239.9
815.1	279.69
815.489	319.48
815.879	333.53
816.269	253.95
816.658	277.35
817.048	253.95
817.438	378
817.827	314.8
818.216	284.38
818.606	310.12
818.995	293.74
819.384	270.33
819.773	352.25
820.163	354.59
820.552	321.82
820.941	270.33
821.33	263.31
821.718	310.12
822.107	314.8
822.496	303.1
822.885	286.72
823.273	246.93
823.662	275.01
824.05	267.99
824.439	331.19
824.827	286.72
825.216	363.95
825.604	345.23
825.992	347.57
826.38	284.38
826.768	300.76
827.156	310.12
827.544	286.72
827.932	289.06
828.32	307.78
828.708	260.97
829.096	270.33
829.483	282.03
829.871	324.16
830.259	347.57
830.646	338.21
831.034	300.76
831.421	289.06
831.808	314.8
832.196	340.55
832.583	293.74
832.97	303.1
833.357	296.08
833.744	291.4
834.131	345.23
834.518	279.69
834.905	289.06
835.292	296.08
835.678	303.1
836.065	314.8
836.452	267.99
836.838	277.35
837.225	282.03
837.611	340.55
837.998	277.35
838.384	328.85
838.77	324.16
839.157	340.55
839.543	363.95
839.929	333.53
840.315	289.06
840.701	282.03
841.087	326.5
841.473	314.8
841.858	324.16
842.244	328.85
842.63	363.95
843.015	328.85
843.401	614.39
843.787	282.03
844.172	279.69
844.557	300.76
844.943	321.82
845.328	370.97
845.713	298.42
846.098	296.08
846.483	293.74
846.868	312.46
847.253	277.35
847.638	258.63
848.023	277.35
848.408	218.84
848.793	335.87
849.177	333.53
849.562	300.76
849.947	300.76
850.331	363.95
850.715	342.89
851.1	347.57
851.484	317.14
851.868	307.78
852.253	230.54
852.637	436.51
853.021	345.23
853.405	328.85
853.789	291.4
854.173	314.8
854.557	342.89
854.94	333.53
855.324	298.42
855.708	275.01
856.091	314.8
856.475	286.72
856.858	324.16
857.242	310.12
857.625	256.29
858.009	291.4
858.392	267.99
858.775	300.76
859.158	317.14
859.541	293.74
859.924	331.19
860.307	328.85
860.69	363.95
861.073	319.48
861.456	340.55
861.838	279.69
862.221	317.14
862.604	291.4
862.986	326.5
863.369	289.06
863.751	282.03
864.133	361.61
864.516	303.1
864.898	347.57
865.28	277.35
865.662	345.23
866.044	230.54
866.426	326.5
866.808	363.95
867.19	310.12
867.572	258.63
867.954	249.27
868.336	356.93
868.717	277.35
869.099	345.23
869.48	319.48
869.862	300.76
870.243	312.46
870.625	267.99
871.006	338.21
871.387	284.38
871.768	312.46
872.149	284.38
872.53	319.48
872.911	260.97
873.292	340.55
873.673	331.19
874.054	279.69
874.435	289.06
874.815	291.4
875.196	387.36
875.577	326.5
875.957	319.48
876.338	347.57
876.718	340.55
877.098	265.65
877.479	300.76
877.859	359.27
878.239	317.14
878.619	335.87
878.999	335.87
879.379	321.82
879.759	303.1
880.139	352.25
880.519	366.29
880.898	338.21
881.278	289.06
881.658	293.74
882.037	310.12
882.417	275.01
882.796	289.06
883.176	319.48
883.555	373.32
883.934	396.72
884.313	349.91
884.693	310.12
885.072	317.14
885.451	328.85
885.83	349.91
886.209	256.29
886.587	279.69
886.966	324.16
887.345	289.06
887.724	335.87
888.102	335.87
888.481	338.21
888.859	263.31
889.238	347.57
889.616	253.95
889.994	253.95
890.373	359.27
890.751	279.69
891.129	345.23
891.507	312.46
891.885	289.06
892.263	279.69
892.641	328.85
893.019	305.44
893.396	298.42
893.774	263.31
894.152	272.67
894.529	307.78
894.907	333.53
895.284	277.35
895.662	260.97
896.039	284.38
896.416	338.21
896.794	296.08
897.171	333.53
897.548	277.35
897.925	284.38
898.302	312.46
898.679	291.4
899.056	305.44
899.433	296.08
899.809	349.91
900.186	359.27
900.563	312.46
900.939	356.93
901.316	319.48
901.692	303.1
902.069	303.1
902.445	335.87
902.821	321.82
903.197	354.59
903.574	335.87
903.95	275.01
904.326	277.35
904.702	242.25
905.078	319.48
905.454	277.35
905.829	317.14
906.205	277.35
906.581	324.16
906.956	270.33
907.332	324.16
907.707	305.44
908.083	356.93
908.458	342.89
908.833	333.53
909.209	300.76
909.584	282.03
909.959	349.91
910.334	216.5
910.709	305.44
911.084	303.1
911.459	335.87
911.834	237.56
912.209	349.91
912.583	291.4
912.958	303.1
913.333	385.02
913.707	321.82
914.082	275.01
914.456	270.33
914.83	256.29
915.205	275.01
915.579	303.1
915.953	321.82
916.327	333.53
916.701	378
917.075	340.55
917.449	246.93
917.823	279.69
918.197	324.16
918.571	331.19
918.944	363.95
919.318	293.74
919.692	296.08
920.065	380.34
920.438	359.27
920.812	277.35
921.185	349.91
921.558	338.21
921.932	300.76
922.305	340.55
922.678	305.44
923.051	359.27
923.424	349.91
923.797	298.42
924.17	359.27
924.542	342.89
924.915	275.01
925.288	312.46
925.661	277.35
926.033	335.87
926.406	277.35
926.778	331.19
927.15	331.19
927.523	277.35
927.895	296.08
928.267	300.76
928.639	275.01
929.011	284.38
929.383	296.08
929.755	338.21
930.127	373.32
930.499	321.82
930.871	289.06
931.242	291.4
931.614	275.01
931.986	338.21
932.357	284.38
932.729	267.99
933.1	298.42
933.471	331.19
933.843	237.56
934.214	289.06
934.585	324.16
934.956	380.34
935.327	326.5
935.698	284.38
936.069	286.72
936.44	263.31
936.811	380.34
937.182	258.63
937.552	335.87
937.923	253.95
938.293	317.14
938.664	296.08
939.034	352.25
939.405	305.44
939.775	293.74
940.145	267.99
940.516	263.31
940.886	305.44
941.256	305.44
941.626	359.27
941.996	324.16
942.366	218.84
942.735	314.8
943.105	277.35
943.475	321.82
943.845	324.16
944.214	368.63
944.584	352.25
944.953	352.25
945.323	312.46
945.692	305.44
946.061	345.23
946.43	282.03
946.8	310.12
947.169	382.68
947.538	385.02
947.907	305.44
948.276	340.55
948.645	317.14
949.013	305.44
949.382	349.91
949.751	356.93
950.119	321.82
950.488	258.63
950.857	342.89
951.225	256.29
951.593	312.46
951.962	396.72
952.33	370.97
952.698	314.8
953.066	275.01
953.434	275.01
953.802	331.19
954.17	300.76
954.538	319.48
954.906	289.06
955.274	349.91
955.642	293.74
956.009	317.14
956.377	326.5
956.744	314.8
957.112	284.38
957.479	349.91
957.847	286.72
958.214	286.72
958.581	370.97
958.948	382.68
959.315	340.55
959.683	324.16
960.05	249.27
960.416	324.16
960.783	258.63
961.15	284.38
961.517	314.8
961.884	305.44
962.25	319.48
962.617	356.93
962.983	251.61
963.35	310.12
963.716	338.21
964.082	256.29
964.449	289.06
964.815	305.44
965.181	335.87
965.547	335.87
965.913	293.74
966.279	305.44
966.645	296.08
967.011	300.76
967.377	277.35
967.742	275.01
968.108	291.4
968.474	352.25
968.839	303.1
969.205	352.25
969.57	331.19
969.935	237.56
970.301	300.76
970.666	289.06
971.031	225.86
971.396	368.63
971.761	303.1
972.126	289.06
972.491	305.44
972.856	326.5
973.221	326.5
973.586	265.65
973.95	286.72
974.315	291.4
974.679	366.29
975.044	244.59
975.408	340.55
975.773	277.35
976.137	303.1
976.501	303.1
976.866	275.01
977.23	279.69
977.594	361.61
977.958	340.55
978.322	298.42
978.686	289.06
979.049	319.48
979.413	291.4
979.777	260.97
980.141	352.25
980.504	258.63
980.868	260.97
981.231	275.01
981.595	286.72
981.958	282.03
982.321	342.89
982.684	282.03
983.048	317.14
983.411	282.03
983.774	326.5
984.137	235.22
984.5	275.01
984.862	305.44
985.225	326.5
985.588	296.08
985.951	331.19
986.313	321.82
986.676	235.22
987.038	272.67
987.401	296.08
987.763	321.82
988.125	289.06
988.488	354.59
988.85	265.65
989.212	389.7
989.574	321.82
989.936	361.61
990.298	267.99
990.66	345.23
991.022	314.8
991.383	260.97
991.745	239.9
992.107	296.08
992.468	319.48
992.83	328.85
993.191	296.08
993.553	305.44
993.914	333.53
994.275	354.59
994.637	260.97
994.998	366.29
995.359	286.72
995.72	244.59
996.081	258.63
996.442	338.21
996.803	303.1
997.163	319.48
997.524	363.95
997.885	277.35
998.245	293.74
998.606	270.33
998.966	284.38
999.327	291.4
999.687	356.93
1000.047	340.55
1000.408	296.08
1000.768	326.5
1001.128	359.27
1001.488	298.42
1001.848	279.69
1002.208	338.21
1002.568	300.76
1002.927	279.69
1003.287	310.12
1003.647	352.25
1004.007	345.23
1004.366	251.61
1004.726	263.31
1005.085	335.87
1005.444	286.72
1005.804	314.8
1006.163	356.93
1006.522	275.01
1006.881	296.08
1007.24	319.48
1007.599	324.16
1007.958	321.82
1008.317	317.14
1008.676	352.25
1009.035	321.82
1009.393	356.93
1009.752	359.27
1010.111	291.4
1010.469	333.53
1010.828	312.46
1011.186	340.55
1011.544	335.87
1011.903	331.19
1012.261	333.53
1012.619	307.78
1012.977	312.46
1013.335	300.76
1013.693	298.42
1014.051	277.35
1014.409	314.8
1014.767	331.19
1015.124	349.91
1015.482	296.08
1015.84	314.8
1016.197	314.8
1016.555	293.74
1016.912	293.74
1017.269	324.16
1017.627	305.44
1017.984	291.4
1018.341	373.32
1018.698	331.19
1019.055	282.03
1019.412	338.21
1019.769	284.38
1020.126	305.44
1020.483	340.55
1020.84	303.1
1021.196	279.69
1021.553	349.91
1021.909	267.99
1022.266	335.87
1022.622	260.97
1022.979	417.79
1023.335	312.46
1023.691	296.08
1024.047	277.35
1024.404	296.08
1024.76	277.35
1025.116	293.74
1025.472	333.53
1025.827	328.85
1026.183	282.03
1026.539	277.35
1026.895	303.1
1027.25	314.8
1027.606	284.38
1027.961	354.59
1028.317	347.57
1028.672	378
1029.028	310.12
1029.383	340.55
1029.738	314.8
1030.093	312.46
1030.448	326.5
1030.803	284.38
1031.158	335.87
1031.513	394.38
1031.868	349.91
1032.223	342.89
1032.577	340.55
1032.932	333.53
1033.287	312.46
1033.641	307.78
1033.996	366.29
1034.35	275.01
1034.704	356.93
1035.059	289.06
1035.413	305.44
1035.767	305.44
1036.121	305.44
