Data from Al_FLMS009871__1264__16-47-53-369.txt Node

Date: Fri Mar 08 16:47:53 CST 2024
User: pe5414po
Spectrometer: FLMS00987
Trigger mode: 0
Integration Time (sec): 1.000000E-1
Scans to average: 1
Electric dark correction enabled: true
Nonlinearity correction enabled: false
Boxcar width: 0
XAxis mode: Wavelengths
Number of Pixels in Spectrum: 2048
>>>>>Begin Spectral Data<<<<<
188.938	-77.68
189.409	-77.68
189.879	-77.68
190.349	-73
190.819	-89.38
191.29	-77.68
191.76	-91.72
192.23	-23.84
192.7	-89.38
193.17	-112.78
193.64	-35.55
194.109	-56.61
194.579	-5.12
195.049	74.46
195.519	29.99
195.988	18.29
196.458	86.16
196.927	55.73
197.397	86.16
197.866	65.1
198.336	76.8
198.805	154.04
199.274	170.42
199.744	200.85
200.213	264.04
200.682	308.51
201.151	336.6
201.62	327.24
202.089	369.37
202.558	406.81
203.027	409.15
203.495	474.69
203.964	516.82
204.433	486.39
204.902	448.94
205.37	455.97
205.839	587.04
206.307	561.29
206.776	502.78
207.244	568.31
207.712	624.48
208.181	652.57
208.649	690.02
209.117	563.63
209.585	615.12
210.053	713.42
210.521	788.32
210.989	821.09
211.457	804.71
211.925	933.43
212.393	1076.21
212.861	1113.66
213.328	891.31
213.796	821.09
214.264	713.42
214.731	732.15
215.199	675.98
215.666	654.91
216.133	760.24
216.601	865.56
217.068	1099.61
217.535	1137.06
218.003	1359.41
218.47	1661.34
218.937	1530.27
219.404	1244.73
219.871	1277.49
220.338	1338.35
220.805	1305.58
221.271	1146.42
221.738	989.61
222.205	973.22
222.671	881.94
223.138	1080.89
223.605	1263.45
224.071	1181.53
224.538	1120.68
225.004	931.09
225.47	1132.38
225.937	1485.8
226.403	1455.37
226.869	1209.62
227.335	823.43
227.801	638.53
228.267	638.53
228.733	640.87
229.199	640.87
229.665	540.22
230.131	509.8
230.597	692.36
231.062	598.74
231.528	650.23
231.994	629.17
232.459	636.19
232.925	516.82
233.39	615.12
233.856	594.06
234.321	584.7
234.786	774.28
235.252	1132.38
235.717	1916.46
236.182	2747.35
236.647	3178.01
237.112	2468.83
237.577	1612.19
238.042	891.31
238.507	612.78
238.972	608.1
239.436	666.61
239.901	570.65
240.366	528.52
240.83	505.12
241.295	516.82
241.76	519.16
242.224	549.59
242.688	528.52
243.153	451.28
243.617	533.2
244.081	495.75
244.545	451.28
245.01	547.25
245.474	580.01
245.938	549.59
246.402	540.22
246.866	514.48
247.33	575.33
247.793	582.35
248.257	554.27
248.721	540.22
249.185	540.22
249.648	603.42
250.112	542.57
250.575	636.19
251.039	633.85
251.502	708.74
251.965	678.32
252.429	647.89
252.892	619.8
253.355	657.25
253.818	572.99
254.281	664.27
254.744	650.23
255.207	851.52
255.67	1193.23
256.133	1769.01
256.596	2393.93
257.059	2550.75
257.522	2084.98
257.984	1422.61
258.447	1120.68
258.909	1186.21
259.372	1207.28
259.834	1218.98
260.297	1031.74
260.759	966.2
261.221	877.26
261.684	1162.81
262.146	1740.92
262.608	2218.39
263.07	2134.13
263.532	1565.38
263.994	1127.7
264.456	998.97
264.918	1125.36
265.38	1289.2
265.842	1132.38
266.303	982.59
266.765	647.89
267.227	622.14
267.688	591.72
268.15	610.44
268.611	690.02
269.072	603.42
269.534	631.51
269.995	598.74
270.456	645.55
270.918	652.57
271.379	617.46
271.84	612.78
272.301	549.59
272.762	582.35
273.223	690.02
273.684	605.76
274.144	580.01
274.605	638.53
275.066	715.77
275.527	708.74
275.987	732.15
276.448	774.28
276.908	860.88
277.369	1104.29
277.829	1785.39
278.289	3505.68
278.75	6120.06
279.21	8568.26
279.67	8540.18
280.13	6443.06
280.59	4306.15
281.05	3573.56
281.51	3168.65
281.97	2134.13
282.43	1015.35
282.89	736.83
283.35	643.21
283.809	715.77
284.269	867.9
284.729	1020.03
285.188	1027.06
285.648	900.67
286.107	594.06
286.567	558.95
287.026	563.63
287.485	596.4
287.944	603.42
288.404	654.91
288.863	647.89
289.322	617.46
289.781	619.8
290.24	654.91
290.699	690.02
291.158	701.72
291.616	629.17
292.075	781.3
292.534	989.61
292.992	1195.57
293.451	1209.62
293.91	1080.89
294.368	856.2
294.827	750.87
295.285	605.76
295.743	551.93
296.202	551.93
296.66	547.25
297.118	537.88
297.576	530.86
298.034	484.05
298.492	605.76
298.95	458.31
299.408	495.75
299.866	502.78
300.324	521.5
300.781	470.01
301.239	493.41
301.697	493.41
302.154	512.14
302.612	516.82
303.069	477.03
303.527	460.65
303.984	568.31
304.441	643.21
304.899	706.4
305.356	924.07
305.813	973.22
306.27	980.25
306.727	1176.85
307.184	1843.9
307.641	3493.98
308.098	5174.49
308.555	6494.55
309.012	6911.16
309.468	5853.24
309.925	2981.4
310.382	1097.27
310.838	699.38
311.295	603.42
311.751	491.07
312.208	570.65
312.664	486.39
313.12	563.63
313.577	495.75
314.033	523.84
314.489	460.65
314.945	470.01
315.401	622.14
315.857	535.54
316.313	530.86
316.769	547.25
317.225	453.63
317.681	411.5
318.136	453.63
318.592	432.56
319.048	378.73
319.503	411.5
319.959	455.97
320.414	444.26
320.869	392.77
321.325	472.35
321.78	451.28
322.235	460.65
322.691	439.58
323.146	423.2
323.601	519.16
324.056	697.04
324.511	837.47
324.966	858.54
325.421	804.71
325.875	631.51
326.33	486.39
326.785	725.13
327.24	788.32
327.694	844.49
328.149	668.95
328.603	470.01
329.058	505.12
329.512	467.67
329.966	467.67
330.421	444.26
330.875	453.63
331.329	437.24
331.783	432.56
332.237	521.5
332.691	514.48
333.145	537.88
333.599	554.27
334.053	561.29
334.507	479.37
334.96	502.78
335.414	561.29
335.868	565.97
336.321	657.25
336.775	692.36
337.228	685.34
337.682	605.76
338.135	584.7
338.588	472.35
339.042	465.33
339.495	467.67
339.948	418.52
340.401	458.31
340.854	439.58
341.307	423.2
341.76	423.2
342.213	484.05
342.666	488.73
343.119	479.37
343.571	542.57
344.024	472.35
344.477	507.46
344.929	514.48
345.382	453.63
345.834	498.1
346.287	523.84
346.739	453.63
347.191	404.47
347.644	448.94
348.096	477.03
348.548	441.92
349	472.35
349.452	430.22
349.904	455.97
350.356	479.37
350.808	444.26
351.26	514.48
351.711	484.05
352.163	526.18
352.615	481.71
353.066	537.88
353.518	554.27
353.969	535.54
354.421	528.52
354.872	556.61
355.324	556.61
355.775	537.88
356.226	556.61
356.677	753.21
357.128	1118.34
357.579	1595.81
358.03	2761.39
358.481	4760.21
358.932	5420.24
359.383	3983.15
359.834	2883.1
360.285	2716.92
360.735	2602.24
361.186	1967.95
361.637	1656.66
362.087	1022.38
362.538	729.81
362.988	633.85
363.438	453.63
363.889	460.65
364.339	481.71
364.789	507.46
365.239	563.63
365.689	575.33
366.139	537.88
366.589	481.71
367.039	472.35
367.489	462.99
367.939	439.58
368.389	528.52
368.839	448.94
369.288	542.57
369.738	636.19
370.187	680.66
370.637	823.43
371.086	905.35
371.536	821.09
371.985	858.54
372.434	661.93
372.884	544.91
373.333	535.54
373.782	577.67
374.231	502.78
374.68	526.18
375.129	500.44
375.578	453.63
376.027	563.63
376.475	526.18
376.924	481.71
377.373	453.63
377.822	458.31
378.27	481.71
378.719	374.05
379.167	481.71
379.616	523.84
380.064	498.1
380.512	528.52
380.961	470.01
381.409	547.25
381.857	516.82
382.305	612.78
382.753	645.55
383.201	870.24
383.649	1034.08
384.097	917.05
384.545	715.77
384.992	624.48
385.44	502.78
385.888	481.71
386.335	488.73
386.783	537.88
387.231	516.82
387.678	521.5
388.125	537.88
388.573	505.12
389.02	477.03
389.467	458.31
389.914	502.78
390.362	612.78
390.809	577.67
391.256	563.63
391.703	601.08
392.15	638.53
392.596	683
393.043	1017.69
393.49	1642.62
393.937	2840.97
394.383	4980.22
394.83	5783.02
395.276	4439.56
395.723	4526.16
396.169	6749.67
396.616	6943.93
397.062	3952.73
397.508	1553.68
397.954	762.58
398.401	596.4
398.847	572.99
399.293	692.36
399.739	629.17
400.185	701.72
400.631	498.1
401.076	505.12
401.522	498.1
401.968	486.39
402.414	558.95
402.859	598.74
403.305	638.53
403.75	664.27
404.196	704.06
404.641	587.04
405.086	591.72
405.532	533.2
405.977	647.89
406.422	486.39
406.867	535.54
407.312	575.33
407.757	633.85
408.202	551.93
408.647	605.76
409.092	523.84
409.537	561.29
409.982	652.57
410.426	521.5
410.871	521.5
411.316	615.12
411.76	587.04
412.205	638.53
412.649	633.85
413.093	643.21
413.538	675.98
413.982	699.38
414.426	701.72
414.87	727.47
415.314	821.09
415.758	851.52
416.202	736.83
416.646	764.92
417.09	722.79
417.534	657.25
417.978	633.85
418.421	652.57
418.865	629.17
419.309	584.7
419.752	537.88
420.196	619.8
420.639	526.18
421.083	462.99
421.526	509.8
421.969	580.01
422.412	528.52
422.856	565.97
423.299	612.78
423.742	565.97
424.185	554.27
424.628	580.01
425.071	565.97
425.513	622.14
425.956	528.52
426.399	472.35
426.842	455.97
427.284	523.84
427.727	519.16
428.169	533.2
428.612	491.07
429.054	521.5
429.497	474.69
429.939	472.35
430.381	451.28
430.823	509.8
431.265	479.37
431.707	427.88
432.149	388.09
432.591	462.99
433.033	411.5
433.475	500.44
433.917	498.1
434.359	467.67
434.8	462.99
435.242	563.63
435.684	486.39
436.125	472.35
436.567	587.04
437.008	514.48
437.449	491.07
437.891	470.01
438.332	439.58
438.773	512.14
439.214	470.01
439.656	519.16
440.097	448.94
440.538	493.41
440.978	507.46
441.419	589.38
441.86	537.88
442.301	526.18
442.742	526.18
443.182	556.61
443.623	601.08
444.063	631.51
444.504	640.87
444.944	678.32
445.385	809.39
445.825	725.13
446.265	823.43
446.706	921.73
447.146	1015.35
447.586	1179.19
448.026	1623.89
448.466	1701.13
448.906	1530.27
449.346	1132.38
449.786	1022.38
450.225	1001.31
450.665	1031.74
451.105	1174.51
451.544	1467.08
451.984	1558.36
452.424	1644.96
452.863	1586.44
453.302	1942.21
453.742	2014.76
454.181	1483.46
454.62	1078.55
455.059	762.58
455.499	640.87
455.938	626.82
456.377	612.78
456.816	528.52
457.254	519.16
457.693	472.35
458.132	530.86
458.571	439.58
459.01	523.84
459.448	505.12
459.887	570.65
460.325	484.05
460.764	488.73
461.202	488.73
461.641	507.46
462.079	530.86
462.517	474.69
462.955	575.33
463.393	580.01
463.832	622.14
464.27	591.72
464.708	582.35
465.145	640.87
465.583	652.57
466.021	715.77
466.459	940.46
466.897	1160.47
467.334	959.18
467.772	680.66
468.209	505.12
468.647	580.01
469.084	498.1
469.522	453.63
469.959	498.1
470.396	587.04
470.833	568.31
471.271	514.48
471.708	523.84
472.145	570.65
472.582	516.82
473.019	544.91
473.456	465.33
473.892	470.01
474.329	465.33
474.766	472.35
475.202	430.22
475.639	507.46
476.076	481.71
476.512	479.37
476.949	444.26
477.385	465.33
477.821	500.44
478.258	533.2
478.694	514.48
479.13	523.84
479.566	493.41
480.002	439.58
480.438	540.22
480.874	455.97
481.31	488.73
481.746	451.28
482.181	484.05
482.617	530.86
483.053	432.56
483.488	491.07
483.924	458.31
484.36	512.14
484.795	577.67
485.23	589.38
485.666	631.51
486.101	643.21
486.536	619.8
486.971	680.66
487.407	694.7
487.842	654.91
488.277	591.72
488.712	561.29
489.146	638.53
489.581	584.7
490.016	582.35
490.451	509.8
490.885	530.86
491.32	542.57
491.755	556.61
492.189	523.84
492.624	537.88
493.058	549.59
493.492	554.27
493.927	598.74
494.361	530.86
494.795	584.7
495.229	530.86
495.663	453.63
496.097	549.59
496.531	474.69
496.965	570.65
497.399	540.22
497.833	439.58
498.266	521.5
498.7	615.12
499.134	516.82
499.567	605.76
500.001	666.61
500.434	811.73
500.868	895.99
501.301	893.65
501.734	816.41
502.168	654.91
502.601	605.76
503.034	549.59
503.467	589.38
503.9	444.26
504.333	479.37
504.766	526.18
505.199	577.67
505.632	530.86
506.064	481.71
506.497	523.84
506.93	444.26
507.362	610.44
507.795	572.99
508.227	537.88
508.66	587.04
509.092	462.99
509.524	580.01
509.956	570.65
510.389	500.44
510.821	544.91
511.253	561.29
511.685	572.99
512.117	502.78
512.549	570.65
512.981	519.16
513.412	596.4
513.844	542.57
514.276	521.5
514.707	596.4
515.139	570.65
515.571	610.44
516.002	619.8
516.433	680.66
516.865	713.42
517.296	708.74
517.727	818.75
518.159	879.6
518.59	778.96
519.021	842.15
519.452	741.51
519.883	715.77
520.314	596.4
520.744	612.78
521.175	563.63
521.606	626.82
522.037	650.23
522.467	685.34
522.898	715.77
523.328	659.59
523.759	587.04
524.189	519.16
524.62	603.42
525.05	589.38
525.48	636.19
525.91	685.34
526.341	622.14
526.771	636.19
527.201	680.66
527.631	774.28
528.061	785.98
528.49	935.78
528.92	998.97
529.35	1293.88
529.78	2557.77
530.209	12519.09
530.639	30410.14
531.068	47926.71
531.498	63044.23
531.927	63044.23
532.357	63044.23
532.786	63044.23
533.215	63044.23
533.644	40514.23
534.074	15292.62
534.503	6012.4
534.932	2808.2
535.361	1621.55
535.79	1151.1
536.218	912.37
536.647	814.07
537.076	680.66
537.505	631.51
537.933	572.99
538.362	594.06
538.79	587.04
539.219	502.78
539.647	495.75
540.076	528.52
540.504	472.35
540.932	535.54
541.36	451.28
541.788	521.5
542.217	491.07
542.645	467.67
543.073	411.5
543.5	528.52
543.928	493.41
544.356	420.86
544.784	451.28
545.211	409.15
545.639	420.86
546.067	455.97
546.494	498.1
546.922	425.54
547.349	437.24
547.776	446.6
548.204	474.69
548.631	467.67
549.058	430.22
549.485	418.52
549.912	474.69
550.339	484.05
550.766	535.54
551.193	343.62
551.62	526.18
552.047	409.15
552.474	441.92
552.9	425.54
553.327	479.37
553.754	481.71
554.18	460.65
554.607	500.44
555.033	416.18
555.459	411.5
555.886	448.94
556.312	551.93
556.738	519.16
557.164	420.86
557.59	446.6
558.016	413.84
558.442	535.54
558.868	519.16
559.294	601.08
559.72	657.25
560.145	757.89
560.571	753.21
560.997	636.19
561.422	533.2
561.848	477.03
562.273	413.84
562.699	533.2
563.124	507.46
563.549	479.37
563.974	441.92
564.4	406.81
564.825	474.69
565.25	495.75
565.675	486.39
566.1	505.12
566.525	453.63
566.95	526.18
567.374	544.91
567.799	680.66
568.224	624.48
568.648	725.13
569.073	818.75
569.497	982.59
569.922	1275.15
570.346	1635.6
570.771	1389.84
571.195	935.78
571.619	764.92
572.043	762.58
572.467	764.92
572.891	1052.8
573.315	924.07
573.739	666.61
574.163	467.67
574.587	512.14
575.011	411.5
575.435	404.47
575.858	514.48
576.282	465.33
576.705	427.88
577.129	446.6
577.552	430.22
577.976	423.2
578.399	418.52
578.822	413.84
579.245	413.84
579.669	399.79
580.092	430.22
580.515	427.88
580.938	416.18
581.361	406.81
581.784	348.3
582.206	381.07
582.629	371.71
583.052	411.5
583.474	402.13
583.897	369.37
584.32	371.71
584.742	352.98
585.165	376.39
585.587	376.39
586.009	383.41
586.431	404.47
586.854	385.75
587.276	448.94
587.698	406.81
588.12	427.88
588.542	416.18
588.964	378.73
589.386	437.24
589.807	402.13
590.229	446.6
590.651	402.13
591.073	411.5
591.494	437.24
591.916	390.43
592.337	371.71
592.759	395.11
593.18	334.26
593.601	423.2
594.022	423.2
594.444	441.92
594.865	495.75
595.286	479.37
595.707	406.81
596.128	416.18
596.549	378.73
596.97	367.03
597.39	467.67
597.811	392.77
598.232	388.09
598.652	425.54
599.073	430.22
599.494	437.24
599.914	460.65
600.334	416.18
600.755	360
601.175	395.11
601.595	413.84
602.015	402.13
602.436	434.9
602.856	448.94
603.276	378.73
603.696	402.13
604.115	381.07
604.535	378.73
604.955	395.11
605.375	402.13
605.794	367.03
606.214	470.01
606.634	364.68
607.053	374.05
607.473	413.84
607.892	402.13
608.311	331.92
608.731	455.97
609.15	376.39
609.569	411.5
609.988	455.97
610.407	350.64
610.826	357.66
611.245	411.5
611.664	385.75
612.083	455.97
612.501	411.5
612.92	402.13
613.339	404.47
613.757	444.26
614.176	493.41
614.594	413.84
615.013	441.92
615.431	462.99
615.85	472.35
616.268	399.79
616.686	369.37
617.104	491.07
617.522	439.58
617.94	430.22
618.358	427.88
618.776	430.22
619.194	444.26
619.612	413.84
620.03	465.33
620.447	470.01
620.865	385.75
621.282	411.5
621.7	397.45
622.117	521.5
622.535	551.93
622.952	654.91
623.369	657.25
623.787	968.54
624.204	947.48
624.621	1083.23
625.038	1097.27
625.455	1076.21
625.872	874.92
626.289	622.14
626.706	479.37
627.123	467.67
627.539	455.97
627.956	444.26
628.373	355.32
628.789	402.13
629.206	470.01
629.622	357.66
630.038	388.09
630.455	348.3
630.871	413.84
631.287	317.87
631.703	397.45
632.12	383.41
632.536	364.68
632.952	374.05
633.368	446.6
633.783	402.13
634.199	423.2
634.615	399.79
635.031	427.88
635.446	470.01
635.862	334.26
636.277	383.41
636.693	334.26
637.108	385.75
637.524	425.54
637.939	404.47
638.354	357.66
638.77	399.79
639.185	420.86
639.6	388.09
640.015	378.73
640.43	355.32
640.845	310.85
641.259	437.24
641.674	406.81
642.089	411.5
642.504	413.84
642.918	350.64
643.333	352.98
643.747	331.92
644.162	367.03
644.576	341.28
644.991	425.54
645.405	376.39
645.819	411.5
646.233	364.68
646.647	411.5
647.061	364.68
647.475	360
647.889	390.43
648.303	437.24
648.717	376.39
649.131	390.43
649.545	369.37
649.958	301.49
650.372	390.43
650.785	374.05
651.199	334.26
651.612	374.05
652.026	397.45
652.439	329.58
652.852	385.75
653.266	385.75
653.679	399.79
654.092	397.45
654.505	350.64
654.918	430.22
655.331	486.39
655.744	493.41
656.156	603.42
656.569	739.17
656.982	769.6
657.394	675.98
657.807	619.8
658.22	481.71
658.632	427.88
659.044	378.73
659.457	350.64
659.869	392.77
660.281	364.68
660.693	367.03
661.106	402.13
661.518	411.5
661.93	381.07
662.342	376.39
662.754	411.5
663.165	395.11
663.577	310.85
663.989	367.03
664.401	327.24
664.812	362.34
665.224	374.05
665.635	303.83
666.047	374.05
666.458	376.39
666.869	418.52
667.281	357.66
667.692	345.96
668.103	357.66
668.514	294.47
668.925	385.75
669.336	392.77
669.747	413.84
670.158	388.09
670.569	434.9
670.979	392.77
671.39	362.34
671.801	369.37
672.211	448.94
672.622	341.28
673.032	381.07
673.443	296.81
673.853	355.32
674.263	362.34
674.674	392.77
675.084	404.47
675.494	409.15
675.904	268.72
676.314	315.53
676.724	287.45
677.134	374.05
677.544	320.21
677.953	399.79
678.363	390.43
678.773	395.11
679.182	367.03
679.592	327.24
680.001	418.52
680.411	315.53
680.82	331.92
681.23	397.45
681.639	390.43
682.048	390.43
682.457	413.84
682.866	383.41
683.275	416.18
683.684	376.39
684.093	409.15
684.502	388.09
684.911	385.75
685.32	355.32
685.728	350.64
686.137	385.75
686.546	374.05
686.954	275.74
687.363	367.03
687.771	341.28
688.179	336.6
688.588	423.2
688.996	355.32
689.404	289.79
689.812	345.96
690.22	343.62
690.628	406.81
691.036	352.98
691.444	423.2
691.852	385.75
692.26	352.98
692.667	360
693.075	348.3
693.483	416.18
693.89	350.64
694.298	404.47
694.705	406.81
695.112	331.92
695.52	360
695.927	331.92
696.334	322.56
696.741	355.32
697.148	327.24
697.555	322.56
697.962	327.24
698.369	275.74
698.776	371.71
699.183	329.58
699.59	364.68
699.996	367.03
700.403	327.24
700.81	395.11
701.216	360
701.623	348.3
702.029	378.73
702.435	371.71
702.842	341.28
703.248	360
703.654	416.18
704.06	519.16
704.466	675.98
704.872	706.4
705.278	603.42
705.684	523.84
706.09	617.46
706.496	584.7
706.901	491.07
707.307	430.22
707.712	409.15
708.118	315.53
708.523	383.41
708.929	327.24
709.334	381.07
709.74	324.9
710.145	376.39
710.55	324.9
710.955	329.58
711.36	334.26
711.765	423.2
712.17	378.73
712.575	390.43
712.98	940.46
713.385	413.84
713.789	313.19
714.194	294.47
714.599	315.53
715.003	392.77
715.408	275.74
715.812	289.79
716.217	397.45
716.621	334.26
717.025	371.71
717.429	369.37
717.833	282.77
718.238	275.74
718.642	329.58
719.046	334.26
719.449	313.19
719.853	374.05
720.257	317.87
720.661	336.6
721.065	357.66
721.468	275.74
721.872	348.3
722.275	310.85
722.679	352.98
723.082	322.56
723.485	355.32
723.889	345.96
724.292	322.56
724.695	367.03
725.098	336.6
725.501	324.9
725.904	264.04
726.307	350.64
726.71	345.96
727.113	371.71
727.516	395.11
727.918	374.05
728.321	303.83
728.724	390.43
729.126	367.03
729.529	355.32
729.931	324.9
730.333	364.68
730.736	343.62
731.138	397.45
731.54	362.34
731.942	367.03
732.344	343.62
732.746	310.85
733.148	322.56
733.55	343.62
733.952	341.28
734.354	315.53
734.756	369.37
735.157	374.05
735.559	367.03
735.96	345.96
736.362	329.58
736.763	388.09
737.165	352.98
737.566	420.86
737.967	390.43
738.368	345.96
738.77	303.83
739.171	390.43
739.572	329.58
739.973	324.9
740.374	338.94
740.774	345.96
741.175	343.62
741.576	336.6
741.977	310.85
742.377	360
742.778	376.39
743.178	352.98
743.579	324.9
743.979	364.68
744.379	355.32
744.78	411.5
745.18	324.9
745.58	367.03
745.98	357.66
746.38	324.9
746.78	362.34
747.18	432.56
747.58	392.77
747.98	331.92
748.38	371.71
748.779	334.26
749.179	280.43
749.578	390.43
749.978	285.11
750.377	306.17
750.777	278.08
751.176	352.98
751.575	315.53
751.975	327.24
752.374	287.45
752.773	306.17
753.172	320.21
753.571	320.21
753.97	320.21
754.369	296.81
754.768	352.98
755.166	360
755.565	327.24
755.964	341.28
756.362	385.75
756.761	334.26
757.159	299.15
757.558	367.03
757.956	317.87
758.354	341.28
758.753	352.98
759.151	320.21
759.549	322.56
759.947	324.9
760.345	350.64
760.743	320.21
761.141	378.73
761.539	378.73
761.936	334.26
762.334	299.15
762.732	299.15
763.129	345.96
763.527	355.32
763.924	413.84
764.322	320.21
764.719	268.72
765.117	385.75
765.514	367.03
765.911	327.24
766.308	360
766.705	348.3
767.102	317.87
767.499	336.6
767.896	343.62
768.293	275.74
768.69	313.19
769.086	395.11
769.483	338.94
769.88	343.62
770.276	303.83
770.673	364.68
771.069	364.68
771.466	345.96
771.862	301.49
772.258	294.47
772.654	287.45
773.05	287.45
773.447	301.49
773.843	285.11
774.239	285.11
774.634	329.58
775.03	357.66
775.426	350.64
775.822	434.9
776.218	392.77
776.613	383.41
777.009	430.22
777.404	392.77
777.8	420.86
778.195	348.3
778.59	343.62
778.986	357.66
779.381	399.79
779.776	292.13
780.171	289.79
780.566	324.9
780.961	345.96
781.356	376.39
781.751	327.24
782.146	329.58
782.54	381.07
782.935	334.26
783.33	313.19
783.724	310.85
784.119	313.19
784.513	385.75
784.908	399.79
785.302	355.32
785.696	383.41
786.09	266.38
786.485	313.19
786.879	399.79
787.273	376.39
787.667	334.26
788.061	345.96
788.454	317.87
788.848	352.98
789.242	275.74
789.636	315.53
790.029	343.62
790.423	320.21
790.816	409.15
791.21	345.96
791.603	385.75
791.997	301.49
792.39	336.6
792.783	306.17
793.176	338.94
793.569	252.34
793.962	308.51
794.355	306.17
794.748	371.71
795.141	308.51
795.534	320.21
795.927	273.4
796.319	390.43
796.712	357.66
797.105	268.72
797.497	219.57
797.89	317.87
798.282	357.66
798.674	247.66
799.067	348.3
799.459	313.19
799.851	338.94
800.243	360
800.635	299.15
801.027	313.19
801.419	308.51
801.811	360
802.203	331.92
802.594	348.3
802.986	355.32
803.378	348.3
803.769	331.92
804.161	317.87
804.552	336.6
804.944	282.77
805.335	322.56
805.726	327.24
806.118	343.62
806.509	381.07
806.9	327.24
807.291	303.83
807.682	334.26
808.073	320.21
808.464	348.3
808.855	385.75
809.245	327.24
809.636	338.94
810.027	345.96
810.417	308.51
810.808	350.64
811.198	352.98
811.589	336.6
811.979	329.58
812.369	385.75
812.759	247.66
813.15	343.62
813.54	348.3
813.93	289.79
814.32	266.38
814.71	327.24
815.1	352.98
815.489	341.28
815.879	259.36
816.269	331.92
816.658	371.71
817.048	338.94
817.438	299.15
817.827	352.98
818.216	360
818.606	296.81
818.995	369.37
819.384	282.77
819.773	357.66
820.163	303.83
820.552	320.21
820.941	336.6
821.33	317.87
821.718	364.68
822.107	313.19
822.496	327.24
822.885	352.98
823.273	296.81
823.662	357.66
824.05	350.64
824.439	329.58
824.827	399.79
825.216	306.17
825.604	392.77
825.992	317.87
826.38	303.83
826.768	348.3
827.156	301.49
827.544	259.36
827.932	385.75
828.32	374.05
828.708	388.09
829.096	275.74
829.483	343.62
829.871	402.13
830.259	399.79
830.646	355.32
831.034	275.74
831.421	292.13
831.808	362.34
832.196	352.98
832.583	268.72
832.97	317.87
833.357	355.32
833.744	315.53
834.131	296.81
834.518	348.3
834.905	343.62
835.292	287.45
835.678	343.62
836.065	306.17
836.452	341.28
836.838	240.64
837.225	390.43
837.611	338.94
837.998	329.58
838.384	364.68
838.77	352.98
839.157	367.03
839.543	345.96
839.929	308.51
840.315	329.58
840.701	306.17
841.087	289.79
841.473	329.58
841.858	301.49
842.244	341.28
842.63	320.21
843.015	306.17
843.401	612.78
843.787	350.64
844.172	336.6
844.557	313.19
844.943	315.53
845.328	303.83
845.713	350.64
846.098	273.4
846.483	383.41
846.868	357.66
847.253	299.15
847.638	257.02
848.023	303.83
848.408	338.94
848.793	350.64
849.177	310.85
849.562	313.19
849.947	322.56
850.331	327.24
850.715	317.87
851.1	303.83
851.484	355.32
851.868	275.74
852.253	282.77
852.637	348.3
853.021	341.28
853.405	268.72
853.789	271.06
854.173	303.83
854.557	327.24
854.94	308.51
855.324	273.4
855.708	324.9
856.091	271.06
856.475	357.66
856.858	390.43
857.242	378.73
857.625	376.39
858.009	348.3
858.392	228.93
858.775	306.17
859.158	392.77
859.541	388.09
859.924	331.92
860.307	317.87
860.69	348.3
861.073	334.26
861.456	331.92
861.838	317.87
862.221	306.17
862.604	341.28
862.986	282.77
863.369	331.92
863.751	310.85
864.133	310.85
864.516	350.64
864.898	350.64
865.28	341.28
865.662	327.24
866.044	322.56
866.426	308.51
866.808	341.28
867.19	336.6
867.572	306.17
867.954	285.11
868.336	324.9
868.717	397.45
869.099	338.94
869.48	334.26
869.862	327.24
870.243	362.34
870.625	378.73
871.006	331.92
871.387	352.98
871.768	278.08
872.149	367.03
872.53	303.83
872.911	313.19
873.292	310.85
873.673	338.94
874.054	308.51
874.435	303.83
874.815	336.6
875.196	308.51
875.577	327.24
875.957	329.58
876.338	285.11
876.718	320.21
877.098	306.17
877.479	282.77
877.859	294.47
878.239	327.24
878.619	327.24
878.999	278.08
879.379	374.05
879.759	294.47
880.139	343.62
880.519	254.68
880.898	324.9
881.278	278.08
881.658	322.56
882.037	395.11
882.417	317.87
882.796	292.13
883.176	268.72
883.555	294.47
883.934	383.41
884.313	343.62
884.693	392.77
885.072	250
885.451	374.05
885.83	338.94
886.209	338.94
886.587	329.58
886.966	390.43
887.345	315.53
887.724	266.38
888.102	317.87
888.481	322.56
888.859	324.9
889.238	371.71
889.616	285.11
889.994	348.3
890.373	280.43
890.751	320.21
891.129	357.66
891.507	280.43
891.885	327.24
892.263	315.53
892.641	285.11
893.019	355.32
893.396	301.49
893.774	273.4
894.152	259.36
894.529	261.7
894.907	343.62
895.284	280.43
895.662	336.6
896.039	292.13
896.416	273.4
896.794	324.9
897.171	306.17
897.548	329.58
897.925	369.37
898.302	355.32
898.679	292.13
899.056	338.94
899.433	275.74
899.809	313.19
900.186	371.71
900.563	327.24
900.939	261.7
901.316	322.56
901.692	261.7
902.069	338.94
902.445	348.3
902.821	324.9
903.197	355.32
903.574	357.66
903.95	313.19
904.326	336.6
904.702	343.62
905.078	338.94
905.454	336.6
905.829	322.56
906.205	334.26
906.581	404.47
906.956	369.37
907.332	357.66
907.707	289.79
908.083	320.21
908.458	345.96
908.833	308.51
909.209	355.32
909.584	324.9
909.959	303.83
910.334	334.26
910.709	329.58
911.084	273.4
911.459	352.98
911.834	331.92
912.209	334.26
912.583	322.56
912.958	289.79
913.333	264.04
913.707	369.37
914.082	278.08
914.456	317.87
914.83	362.34
915.205	388.09
915.579	345.96
915.953	240.64
916.327	320.21
916.701	296.81
917.075	322.56
917.449	343.62
917.823	245.32
918.197	308.51
918.571	320.21
918.944	374.05
919.318	301.49
919.692	275.74
920.065	292.13
920.438	308.51
920.812	268.72
921.185	308.51
921.558	364.68
921.932	275.74
922.305	338.94
922.678	352.98
923.051	315.53
923.424	296.81
923.797	369.37
924.17	360
924.542	357.66
924.915	367.03
925.288	306.17
925.661	317.87
926.033	345.96
926.406	280.43
926.778	345.96
927.15	343.62
927.523	315.53
927.895	329.58
928.267	381.07
928.639	334.26
929.011	296.81
929.383	334.26
929.755	322.56
930.127	315.53
930.499	287.45
930.871	301.49
931.242	315.53
931.614	299.15
931.986	352.98
932.357	352.98
932.729	402.13
933.1	282.77
933.471	352.98
933.843	343.62
934.214	315.53
934.585	320.21
934.956	350.64
935.327	301.49
935.698	357.66
936.069	268.72
936.44	266.38
936.811	294.47
937.182	308.51
937.552	303.83
937.923	381.07
938.293	285.11
938.664	294.47
939.034	338.94
939.405	294.47
939.775	264.04
940.145	355.32
940.516	341.28
940.886	322.56
941.256	308.51
941.626	294.47
941.996	348.3
942.366	355.32
942.735	327.24
943.105	296.81
943.475	327.24
943.845	322.56
944.214	324.9
944.584	348.3
944.953	357.66
945.323	282.77
945.692	285.11
946.061	324.9
946.43	327.24
946.8	294.47
947.169	299.15
947.538	294.47
947.907	348.3
948.276	315.53
948.645	331.92
949.013	292.13
949.382	303.83
949.751	360
950.119	348.3
950.488	378.73
950.857	336.6
951.225	261.7
951.593	369.37
951.962	364.68
952.33	350.64
952.698	352.98
953.066	292.13
953.434	271.06
953.802	348.3
954.17	364.68
954.538	334.26
954.906	331.92
955.274	301.49
955.642	299.15
956.009	329.58
956.377	320.21
956.744	341.28
957.112	416.18
957.479	352.98
957.847	331.92
958.214	294.47
958.581	350.64
958.948	327.24
959.315	334.26
959.683	369.37
960.05	285.11
960.416	289.79
960.783	287.45
961.15	296.81
961.517	345.96
961.884	327.24
962.25	324.9
962.617	320.21
962.983	338.94
963.35	334.26
963.716	367.03
964.082	301.49
964.449	303.83
964.815	336.6
965.181	301.49
965.547	374.05
965.913	331.92
966.279	275.74
966.645	315.53
967.011	336.6
967.377	306.17
967.742	238.3
968.108	280.43
968.474	320.21
968.839	250
969.205	418.52
969.57	350.64
969.935	273.4
970.301	303.83
970.666	343.62
971.031	399.79
971.396	331.92
971.761	313.19
972.126	378.73
972.491	362.34
972.856	315.53
973.221	303.83
973.586	336.6
973.95	289.79
974.315	338.94
974.679	273.4
975.044	289.79
975.408	362.34
975.773	343.62
976.137	247.66
976.501	336.6
976.866	296.81
977.23	245.32
977.594	348.3
977.958	317.87
978.322	306.17
978.686	306.17
979.049	317.87
979.413	303.83
979.777	296.81
980.141	306.17
980.504	352.98
980.868	324.9
981.231	341.28
981.595	320.21
981.958	282.77
982.321	292.13
982.684	362.34
983.048	266.38
983.411	317.87
983.774	327.24
984.137	345.96
984.5	320.21
984.862	350.64
985.225	320.21
985.588	306.17
985.951	264.04
986.313	289.79
986.676	327.24
987.038	331.92
987.401	278.08
987.763	303.83
988.125	329.58
988.488	212.55
988.85	275.74
989.212	343.62
989.574	345.96
989.936	317.87
990.298	264.04
990.66	336.6
991.022	282.77
991.383	315.53
991.745	357.66
992.107	317.87
992.468	343.62
992.83	364.68
993.191	334.26
993.553	364.68
993.914	254.68
994.275	306.17
994.637	367.03
994.998	367.03
995.359	320.21
995.72	355.32
996.081	348.3
996.442	331.92
996.803	313.19
997.163	308.51
997.524	301.49
997.885	280.43
998.245	299.15
998.606	247.66
998.966	352.98
999.327	289.79
999.687	352.98
1000.047	324.9
1000.408	369.37
1000.768	343.62
1001.128	301.49
1001.488	357.66
1001.848	371.71
1002.208	285.11
1002.568	371.71
1002.927	303.83
1003.287	345.96
1003.647	362.34
1004.007	369.37
1004.366	329.58
1004.726	242.98
1005.085	240.64
1005.444	320.21
1005.804	336.6
1006.163	294.47
1006.522	282.77
1006.881	357.66
1007.24	341.28
1007.599	343.62
1007.958	341.28
1008.317	327.24
1008.676	322.56
1009.035	308.51
1009.393	338.94
1009.752	238.3
1010.111	273.4
1010.469	317.87
1010.828	343.62
1011.186	271.06
1011.544	303.83
1011.903	369.37
1012.261	343.62
1012.619	292.13
1012.977	315.53
1013.335	322.56
1013.693	322.56
1014.051	306.17
1014.409	341.28
1014.767	268.72
1015.124	285.11
1015.482	308.51
1015.84	338.94
1016.197	355.32
1016.555	315.53
1016.912	280.43
1017.269	296.81
1017.627	313.19
1017.984	352.98
1018.341	334.26
1018.698	296.81
1019.055	306.17
1019.412	355.32
1019.769	287.45
1020.126	367.03
1020.483	413.84
1020.84	306.17
1021.196	306.17
1021.553	357.66
1021.909	294.47
1022.266	294.47
1022.622	296.81
1022.979	390.43
1023.335	271.06
1023.691	271.06
1024.047	374.05
1024.404	282.77
1024.76	315.53
1025.116	273.4
1025.472	390.43
1025.827	348.3
1026.183	350.64
1026.539	334.26
1026.895	238.3
1027.25	292.13
1027.606	285.11
1027.961	317.87
1028.317	324.9
1028.672	275.74
1029.028	317.87
1029.383	350.64
1029.738	259.36
1030.093	315.53
1030.448	345.96
1030.803	268.72
1031.158	252.34
1031.513	357.66
1031.868	320.21
1032.223	352.98
1032.577	329.58
1032.932	268.72
1033.287	336.6
1033.641	308.51
1033.996	348.3
1034.35	303.83
1034.704	329.58
1035.059	320.21
1035.413	287.45
1035.767	287.45
1036.121	287.45
