Data from Al_FLMS009871__1265__16-47-53-469.txt Node

Date: Fri Mar 08 16:47:53 CST 2024
User: pe5414po
Spectrometer: FLMS00987
Trigger mode: 0
Integration Time (sec): 1.000000E-1
Scans to average: 1
Electric dark correction enabled: true
Nonlinearity correction enabled: false
Boxcar width: 0
XAxis mode: Wavelengths
Number of Pixels in Spectrum: 2048
>>>>>Begin Spectral Data<<<<<
188.938	-86.01
189.409	-86.01
189.879	-86.01
190.349	-76.65
190.819	-114.1
191.29	-86.01
191.76	-130.48
192.23	-55.59
192.7	-81.33
193.17	-118.78
193.64	-57.93
194.109	5.27
194.579	-13.46
195.049	-4.1
195.519	23.99
195.988	35.69
196.458	40.37
196.927	105.91
197.397	91.87
197.866	143.36
198.336	101.23
198.805	173.78
199.274	164.42
199.744	199.53
200.213	234.64
200.682	138.68
201.151	227.62
201.62	302.51
202.089	197.19
202.558	262.73
203.027	311.88
203.495	267.41
203.964	300.17
204.433	262.73
204.902	300.17
205.37	267.41
205.839	269.75
206.307	314.22
206.776	328.26
207.244	253.36
207.712	307.2
208.181	344.64
208.649	330.6
209.117	342.3
209.585	300.17
210.053	321.24
210.521	358.69
210.989	323.58
211.457	307.2
211.925	295.49
212.393	346.98
212.861	258.04
213.328	251.02
213.796	236.98
214.264	307.2
214.731	295.49
215.199	302.51
215.666	321.24
216.133	281.45
216.601	293.15
217.068	293.15
217.535	272.09
218.003	239.32
218.47	253.36
218.937	286.13
219.404	295.49
219.871	281.45
220.338	307.2
220.805	262.73
221.271	358.69
221.738	265.07
222.205	187.83
222.671	236.98
223.138	276.77
223.605	239.32
224.071	258.04
224.538	314.22
225.004	220.6
225.47	288.47
225.937	274.43
226.403	246.34
226.869	241.66
227.335	279.11
227.801	325.92
228.267	272.09
228.733	351.67
229.199	246.34
229.665	288.47
230.131	232.3
230.597	332.94
231.062	283.79
231.528	276.77
231.994	255.7
232.459	344.64
232.925	251.02
233.39	234.64
233.856	274.43
234.321	262.73
234.786	307.2
235.252	316.56
235.717	314.22
236.182	290.81
236.647	262.73
237.112	279.11
237.577	265.07
238.042	246.34
238.507	215.91
238.972	314.22
239.436	218.25
239.901	300.17
240.366	220.6
240.83	253.36
241.295	330.6
241.76	314.22
242.224	244
242.688	311.88
243.153	370.39
243.617	304.85
244.081	236.98
244.545	290.81
245.01	272.09
245.474	255.7
245.938	274.43
246.402	281.45
246.866	337.62
247.33	295.49
247.793	258.04
248.257	258.04
248.721	262.73
249.185	300.17
249.648	325.92
250.112	307.2
250.575	316.56
251.039	314.22
251.502	304.85
251.965	279.11
252.429	335.28
252.892	297.83
253.355	269.75
253.818	321.24
254.281	232.3
254.744	293.15
255.207	321.24
255.67	213.57
256.133	351.67
256.596	297.83
257.059	286.13
257.522	356.35
257.984	283.79
258.447	218.25
258.909	293.15
259.372	321.24
259.834	258.04
260.297	328.26
260.759	281.45
261.221	314.22
261.684	286.13
262.146	344.64
262.608	239.32
263.07	267.41
263.532	288.47
263.994	321.24
264.456	325.92
264.918	311.88
265.38	269.75
265.842	325.92
266.303	281.45
266.765	330.6
267.227	314.22
267.688	283.79
268.15	349.32
268.611	290.81
269.072	286.13
269.534	316.56
269.995	328.26
270.456	398.48
270.918	342.3
271.379	335.28
271.84	330.6
272.301	290.81
272.762	316.56
273.223	316.56
273.684	279.11
274.144	300.17
274.605	295.49
275.066	330.6
275.527	274.43
275.987	279.11
276.448	286.13
276.908	302.51
277.369	332.94
277.829	295.49
278.289	297.83
278.75	283.79
279.21	290.81
279.67	293.15
280.13	288.47
280.59	316.56
281.05	276.77
281.51	356.35
281.97	346.98
282.43	311.88
282.89	269.75
283.35	302.51
283.809	253.36
284.269	318.9
284.729	323.58
285.188	293.15
285.648	276.77
286.107	351.67
286.567	290.81
287.026	325.92
287.485	323.58
287.944	251.02
288.404	349.32
288.863	337.62
289.322	321.24
289.781	283.79
290.24	293.15
290.699	197.19
291.158	337.62
291.616	290.81
292.075	281.45
292.534	328.26
292.992	300.17
293.451	248.68
293.91	323.58
294.368	281.45
294.827	206.55
295.285	286.13
295.743	283.79
296.202	354.01
296.66	304.85
297.118	286.13
297.576	232.3
298.034	328.26
298.492	311.88
298.95	302.51
299.408	321.24
299.866	260.38
300.324	342.3
300.781	323.58
301.239	323.58
301.697	276.77
302.154	382.09
302.612	307.2
303.069	232.3
303.527	283.79
303.984	302.51
304.441	279.11
304.899	311.88
305.356	279.11
305.813	332.94
306.27	225.28
306.727	316.56
307.184	272.09
307.641	316.56
308.098	386.77
308.555	290.81
309.012	339.96
309.468	314.22
309.925	358.69
310.382	234.64
310.838	337.62
311.295	361.03
311.751	288.47
312.208	304.85
312.664	286.13
313.12	276.77
313.577	330.6
314.033	302.51
314.489	288.47
314.945	344.64
315.401	311.88
315.857	314.22
316.313	361.03
316.769	363.37
317.225	265.07
317.681	318.9
318.136	293.15
318.592	288.47
319.048	293.15
319.503	318.9
319.959	304.85
320.414	332.94
320.869	302.51
321.325	309.54
321.78	290.81
322.235	339.96
322.691	307.2
323.146	370.39
323.601	337.62
324.056	300.17
324.511	258.04
324.966	302.51
325.421	438.27
325.875	342.3
326.33	286.13
326.785	255.7
327.24	253.36
327.694	311.88
328.149	265.07
328.603	283.79
329.058	332.94
329.512	332.94
329.966	323.58
330.421	328.26
330.875	295.49
331.329	311.88
331.783	358.69
332.237	251.02
332.691	290.81
333.145	302.51
333.599	286.13
334.053	244
334.507	307.2
334.96	342.3
335.414	272.09
335.868	335.28
336.321	337.62
336.775	274.43
337.228	330.6
337.682	346.98
338.135	307.2
338.588	323.58
339.042	337.62
339.495	356.35
339.948	337.62
340.401	358.69
340.854	316.56
341.307	384.43
341.76	304.85
342.213	295.49
342.666	351.67
343.119	279.11
343.571	201.87
344.024	297.83
344.477	283.79
344.929	288.47
345.382	325.92
345.834	344.64
346.287	293.15
346.739	239.32
347.191	255.7
347.644	297.83
348.096	339.96
348.548	337.62
349	335.28
349.452	272.09
349.904	265.07
350.356	258.04
350.808	328.26
351.26	316.56
351.711	393.8
352.163	332.94
352.615	330.6
353.066	295.49
353.518	288.47
353.969	276.77
354.421	358.69
354.872	304.85
355.324	363.37
355.775	311.88
356.226	396.14
356.677	332.94
357.128	311.88
357.579	339.96
358.03	300.17
358.481	286.13
358.932	297.83
359.383	323.58
359.834	304.85
360.285	379.75
360.735	316.56
361.186	274.43
361.637	274.43
362.087	265.07
362.538	311.88
362.988	311.88
363.438	286.13
363.889	262.73
364.339	300.17
364.789	351.67
365.239	248.68
365.689	354.01
366.139	290.81
366.589	314.22
367.039	307.2
367.489	335.28
367.939	293.15
368.389	328.26
368.839	265.07
369.288	283.79
369.738	279.11
370.187	286.13
370.637	304.85
371.086	356.35
371.536	346.98
371.985	265.07
372.434	279.11
372.884	410.18
373.333	281.45
373.782	342.3
374.231	276.77
374.68	297.83
375.129	293.15
375.578	365.71
376.027	358.69
376.475	391.45
376.924	316.56
377.373	262.73
377.822	328.26
378.27	365.71
378.719	330.6
379.167	354.01
379.616	300.17
380.064	346.98
380.512	290.81
380.961	346.98
381.409	339.96
381.857	262.73
382.305	337.62
382.753	412.52
383.201	379.75
383.649	314.22
384.097	314.22
384.545	328.26
384.992	290.81
385.44	330.6
385.888	358.69
386.335	330.6
386.783	281.45
387.231	286.13
387.678	309.54
388.125	328.26
388.573	258.04
389.02	337.62
389.467	335.28
389.914	286.13
390.362	300.17
390.809	335.28
391.256	286.13
391.703	344.64
392.15	344.64
392.596	314.22
393.043	368.05
393.49	311.88
393.937	405.5
394.383	386.77
394.83	330.6
395.276	318.9
395.723	286.13
396.169	286.13
396.616	370.39
397.062	318.9
397.508	370.39
397.954	279.11
398.401	363.37
398.847	335.28
399.293	318.9
399.739	372.73
400.185	354.01
400.631	288.47
401.076	269.75
401.522	272.09
401.968	269.75
402.414	344.64
402.859	349.32
403.305	311.88
403.75	337.62
404.196	307.2
404.641	307.2
405.086	323.58
405.532	384.43
405.977	290.81
406.422	293.15
406.867	358.69
407.312	279.11
407.757	342.3
408.202	328.26
408.647	295.49
409.092	328.26
409.537	354.01
409.982	363.37
410.426	337.62
410.871	316.56
411.316	281.45
411.76	325.92
412.205	297.83
412.649	361.03
413.093	311.88
413.538	356.35
413.982	349.32
414.426	321.24
414.87	358.69
415.314	309.54
415.758	300.17
416.202	337.62
416.646	286.13
417.09	328.26
417.534	365.71
417.978	389.11
418.421	258.04
418.865	330.6
419.309	318.9
419.752	361.03
420.196	363.37
420.639	325.92
421.083	365.71
421.526	328.26
421.969	354.01
422.412	339.96
422.856	283.79
423.299	318.9
423.742	337.62
424.185	279.11
424.628	323.58
425.071	314.22
425.513	332.94
425.956	276.77
426.399	321.24
426.842	344.64
427.284	335.28
427.727	288.47
428.169	377.41
428.612	295.49
429.054	358.69
429.497	344.64
429.939	321.24
430.381	337.62
430.823	358.69
431.265	318.9
431.707	316.56
432.149	323.58
432.591	239.32
433.033	328.26
433.475	342.3
433.917	311.88
434.359	265.07
434.8	293.15
435.242	342.3
435.684	307.2
436.125	356.35
436.567	342.3
437.008	342.3
437.449	311.88
437.891	339.96
438.332	379.75
438.773	302.51
439.214	368.05
439.656	281.45
440.097	370.39
440.538	302.51
440.978	286.13
441.419	337.62
441.86	318.9
442.301	330.6
442.742	337.62
443.182	354.01
443.623	309.54
444.063	314.22
444.504	365.71
444.944	328.26
445.385	321.24
445.825	332.94
446.265	307.2
446.706	314.22
447.146	332.94
447.586	281.45
448.026	325.92
448.466	316.56
448.906	260.38
449.346	330.6
449.786	328.26
450.225	335.28
450.665	330.6
451.105	283.79
451.544	295.49
451.984	318.9
452.424	325.92
452.863	300.17
453.302	286.13
453.742	339.96
454.181	346.98
454.62	307.2
455.059	346.98
455.499	396.14
455.938	384.43
456.377	356.35
456.816	297.83
457.254	337.62
457.693	389.11
458.132	267.41
458.571	309.54
459.01	330.6
459.448	281.45
459.887	344.64
460.325	325.92
460.764	323.58
461.202	323.58
461.641	417.2
462.079	293.15
462.517	339.96
462.955	311.88
463.393	339.96
463.832	363.37
464.27	314.22
464.708	342.3
465.145	314.22
465.583	356.35
466.021	316.56
466.459	368.05
466.897	325.92
467.334	302.51
467.772	286.13
468.209	288.47
468.647	272.09
469.084	283.79
469.522	281.45
469.959	302.51
470.396	321.24
470.833	342.3
471.271	351.67
471.708	290.81
472.145	300.17
472.582	318.9
473.019	391.45
473.456	283.79
473.892	318.9
474.329	318.9
474.766	314.22
475.202	293.15
475.639	332.94
476.076	365.71
476.512	346.98
476.949	358.69
477.385	346.98
477.821	316.56
478.258	314.22
478.694	337.62
479.13	318.9
479.566	332.94
480.002	354.01
480.438	265.07
480.874	337.62
481.31	323.58
481.746	330.6
482.181	321.24
482.617	318.9
483.053	351.67
483.488	279.11
483.924	300.17
484.36	337.62
484.795	361.03
485.23	311.88
485.666	311.88
486.101	304.85
486.536	356.35
486.971	354.01
487.407	375.07
487.842	328.26
488.277	335.28
488.712	206.55
489.146	363.37
489.581	393.8
490.016	332.94
490.451	311.88
490.885	342.3
491.32	335.28
491.755	323.58
492.189	442.95
492.624	300.17
493.058	283.79
493.492	325.92
493.927	302.51
494.361	361.03
494.795	342.3
495.229	304.85
495.663	382.09
496.097	332.94
496.531	265.07
496.965	293.15
497.399	335.28
497.833	363.37
498.266	354.01
498.7	309.54
499.134	309.54
499.567	339.96
500.001	274.43
500.434	311.88
500.868	323.58
501.301	244
501.734	346.98
502.168	318.9
502.601	290.81
503.034	330.6
503.467	276.77
503.9	262.73
504.333	314.22
504.766	253.36
505.199	361.03
505.632	316.56
506.064	328.26
506.497	349.32
506.93	304.85
507.362	330.6
507.795	293.15
508.227	375.07
508.66	337.62
509.092	339.96
509.524	295.49
509.956	351.67
510.389	328.26
510.821	295.49
511.253	314.22
511.685	349.32
512.117	297.83
512.549	417.2
512.981	330.6
513.412	344.64
513.844	309.54
514.276	358.69
514.707	302.51
515.139	323.58
515.571	344.64
516.002	346.98
516.433	342.3
516.865	370.39
517.296	297.83
517.727	293.15
518.159	379.75
518.59	335.28
519.021	330.6
519.452	414.86
519.883	342.3
520.314	297.83
520.744	325.92
521.175	342.3
521.606	286.13
522.037	363.37
522.467	335.28
522.898	344.64
523.328	358.69
523.759	316.56
524.189	302.51
524.62	255.7
525.05	311.88
525.48	323.58
525.91	354.01
526.341	314.22
526.771	290.81
527.201	356.35
527.631	269.75
528.061	363.37
528.49	344.64
528.92	318.9
529.35	286.13
529.78	349.32
530.209	330.6
530.639	354.01
531.068	248.68
531.498	344.64
531.927	351.67
532.357	323.58
532.786	321.24
533.215	344.64
533.644	321.24
534.074	269.75
534.503	349.32
534.932	300.17
535.361	330.6
535.79	300.17
536.218	293.15
536.647	328.26
537.076	314.22
537.505	328.26
537.933	262.73
538.362	290.81
538.79	304.85
539.219	330.6
539.647	351.67
540.076	323.58
540.504	356.35
540.932	349.32
541.36	323.58
541.788	354.01
542.217	396.14
542.645	314.22
543.073	328.26
543.5	349.32
543.928	321.24
544.356	351.67
544.784	302.51
545.211	351.67
545.639	314.22
546.067	323.58
546.494	339.96
546.922	314.22
547.349	260.38
547.776	283.79
548.204	339.96
548.631	332.94
549.058	349.32
549.485	335.28
549.912	267.41
550.339	300.17
550.766	325.92
551.193	365.71
551.62	335.28
552.047	297.83
552.474	290.81
552.9	279.11
553.327	300.17
553.754	330.6
554.18	297.83
554.607	384.43
555.033	316.56
555.459	318.9
555.886	309.54
556.312	391.45
556.738	286.13
557.164	354.01
557.59	281.45
558.016	295.49
558.442	251.02
558.868	321.24
559.294	288.47
559.72	314.22
560.145	288.47
560.571	330.6
560.997	290.81
561.422	354.01
561.848	363.37
562.273	288.47
562.699	337.62
563.124	323.58
563.549	354.01
563.974	344.64
564.4	330.6
564.825	375.07
565.25	288.47
565.675	316.56
566.1	339.96
566.525	309.54
566.95	318.9
567.374	363.37
567.799	344.64
568.224	342.3
568.648	342.3
569.073	323.58
569.497	358.69
569.922	311.88
570.346	302.51
570.771	316.56
571.195	302.51
571.619	337.62
572.043	356.35
572.467	276.77
572.891	325.92
573.315	356.35
573.739	337.62
574.163	300.17
574.587	363.37
575.011	339.96
575.435	323.58
575.858	337.62
576.282	365.71
576.705	330.6
577.129	328.26
577.552	321.24
577.976	342.3
578.399	248.68
578.822	309.54
579.245	346.98
579.669	309.54
580.092	349.32
580.515	279.11
580.938	332.94
581.361	328.26
581.784	290.81
582.206	356.35
582.629	325.92
583.052	349.32
583.474	309.54
583.897	318.9
584.32	304.85
584.742	302.51
585.165	281.45
585.587	258.04
586.009	290.81
586.431	297.83
586.854	304.85
587.276	290.81
587.698	274.43
588.12	370.39
588.542	293.15
588.964	293.15
589.386	286.13
589.807	290.81
590.229	255.7
590.651	314.22
591.073	309.54
591.494	293.15
591.916	356.35
592.337	304.85
592.759	316.56
593.18	290.81
593.601	281.45
594.022	342.3
594.444	288.47
594.865	325.92
595.286	342.3
595.707	272.09
596.128	363.37
596.549	316.56
596.97	358.69
597.39	297.83
597.811	361.03
598.232	260.38
598.652	316.56
599.073	379.75
599.494	297.83
599.914	382.09
600.334	279.11
600.755	325.92
601.175	283.79
601.595	321.24
602.015	339.96
602.436	344.64
602.856	452.31
603.276	407.84
603.696	290.81
604.115	375.07
604.535	335.28
604.955	328.26
605.375	344.64
605.794	342.3
606.214	342.3
606.634	354.01
607.053	351.67
607.473	330.6
607.892	325.92
608.311	316.56
608.731	307.2
609.15	307.2
609.569	351.67
609.988	363.37
610.407	311.88
610.826	311.88
611.245	302.51
611.664	349.32
612.083	251.02
612.501	309.54
612.92	300.17
613.339	267.41
613.757	332.94
614.176	279.11
614.594	300.17
615.013	342.3
615.431	330.6
615.85	316.56
616.268	279.11
616.686	290.81
617.104	260.38
617.522	323.58
617.94	358.69
618.358	241.66
618.776	304.85
619.194	325.92
619.612	246.34
620.03	300.17
620.447	339.96
620.865	260.38
621.282	330.6
621.7	361.03
622.117	267.41
622.535	314.22
622.952	377.41
623.369	215.91
623.787	293.15
624.204	382.09
624.621	368.05
625.038	300.17
625.455	417.2
625.872	351.67
626.289	354.01
626.706	286.13
627.123	276.77
627.539	363.37
627.956	307.2
628.373	302.51
628.789	358.69
629.206	339.96
629.622	311.88
630.038	386.77
630.455	332.94
630.871	328.26
631.287	332.94
631.703	253.36
632.12	262.73
632.536	405.5
632.952	384.43
633.368	293.15
633.783	258.04
634.199	351.67
634.615	220.6
635.031	290.81
635.446	356.35
635.862	288.47
636.277	325.92
636.693	372.73
637.108	314.22
637.524	281.45
637.939	321.24
638.354	321.24
638.77	297.83
639.185	316.56
639.6	281.45
640.015	258.04
640.43	328.26
640.845	311.88
641.259	344.64
641.674	300.17
642.089	222.94
642.504	361.03
642.918	328.26
643.333	302.51
643.747	272.09
644.162	321.24
644.576	349.32
644.991	332.94
645.405	318.9
645.819	375.07
646.233	304.85
646.647	337.62
647.061	302.51
647.475	337.62
647.889	356.35
648.303	302.51
648.717	304.85
649.131	267.41
649.545	225.28
649.958	351.67
650.372	398.48
650.785	241.66
651.199	293.15
651.612	286.13
652.026	344.64
652.439	377.41
652.852	321.24
653.266	314.22
653.679	335.28
654.092	293.15
654.505	323.58
654.918	304.85
655.331	344.64
655.744	363.37
656.156	248.68
656.569	236.98
656.982	335.28
657.394	335.28
657.807	302.51
658.22	349.32
658.632	248.68
659.044	279.11
659.457	325.92
659.869	337.62
660.281	281.45
660.693	316.56
661.106	269.75
661.518	260.38
661.93	300.17
662.342	295.49
662.754	339.96
663.165	335.28
663.577	335.28
663.989	323.58
664.401	321.24
664.812	370.39
665.224	316.56
665.635	246.34
666.047	269.75
666.458	267.41
666.869	325.92
667.281	330.6
667.692	286.13
668.103	330.6
668.514	302.51
668.925	330.6
669.336	244
669.747	372.73
670.158	356.35
670.569	346.98
670.979	356.35
671.39	286.13
671.801	302.51
672.211	375.07
672.622	295.49
673.032	346.98
673.443	321.24
673.853	276.77
674.263	351.67
674.674	325.92
675.084	295.49
675.494	276.77
675.904	293.15
676.314	349.32
676.724	335.28
677.134	349.32
677.544	316.56
677.953	318.9
678.363	314.22
678.773	302.51
679.182	286.13
679.592	335.28
680.001	309.54
680.411	339.96
680.82	286.13
681.23	307.2
681.639	260.38
682.048	267.41
682.457	295.49
682.866	269.75
683.275	311.88
683.684	265.07
684.093	307.2
684.502	279.11
684.911	302.51
685.32	346.98
685.728	323.58
686.137	260.38
686.546	302.51
686.954	337.62
687.363	309.54
687.771	321.24
688.179	339.96
688.588	286.13
688.996	342.3
689.404	309.54
689.812	304.85
690.22	375.07
690.628	311.88
691.036	382.09
691.444	304.85
691.852	297.83
692.26	290.81
692.667	309.54
693.075	297.83
693.483	339.96
693.89	325.92
694.298	300.17
694.705	304.85
695.112	293.15
695.52	361.03
695.927	236.98
696.334	290.81
696.741	382.09
697.148	295.49
697.555	377.41
697.962	309.54
698.369	295.49
698.776	288.47
699.183	302.51
699.59	398.48
699.996	295.49
700.403	377.41
700.81	302.51
701.216	300.17
701.623	349.32
702.029	354.01
702.435	398.48
702.842	328.26
703.248	281.45
703.654	318.9
704.06	293.15
704.466	311.88
704.872	337.62
705.278	332.94
705.684	304.85
706.09	328.26
706.496	314.22
706.901	328.26
707.307	325.92
707.712	311.88
708.118	323.58
708.523	316.56
708.929	276.77
709.334	269.75
709.74	328.26
710.145	339.96
710.55	382.09
710.955	265.07
711.36	311.88
711.765	332.94
712.17	309.54
712.575	283.79
712.98	838.5
713.385	379.75
713.789	335.28
714.194	356.35
714.599	300.17
715.003	288.47
715.408	325.92
715.812	293.15
716.217	309.54
716.621	328.26
717.025	349.32
717.429	344.64
717.833	290.81
718.238	239.32
718.642	309.54
719.046	328.26
719.449	363.37
719.853	379.75
720.257	279.11
720.661	323.58
721.065	323.58
721.468	307.2
721.872	354.01
722.275	293.15
722.679	302.51
723.082	358.69
723.485	274.43
723.889	297.83
724.292	281.45
724.695	267.41
725.098	300.17
725.501	365.71
725.904	316.56
726.307	318.9
726.71	363.37
727.113	337.62
727.516	300.17
727.918	354.01
728.321	323.58
728.724	283.79
729.126	318.9
729.529	342.3
729.931	325.92
730.333	372.73
730.736	267.41
731.138	309.54
731.54	358.69
731.942	349.32
732.344	344.64
732.746	293.15
733.148	267.41
733.55	328.26
733.952	318.9
734.354	269.75
734.756	370.39
735.157	297.83
735.559	309.54
735.96	281.45
736.362	316.56
736.763	354.01
737.165	330.6
737.566	304.85
737.967	346.98
738.368	391.45
738.77	265.07
739.171	384.43
739.572	260.38
739.973	309.54
740.374	274.43
740.774	328.26
741.175	309.54
741.576	297.83
741.977	290.81
742.377	253.36
742.778	314.22
743.178	323.58
743.579	321.24
743.979	375.07
744.379	281.45
744.78	358.69
745.18	307.2
745.58	328.26
745.98	314.22
746.38	370.39
746.78	328.26
747.18	311.88
747.58	318.9
747.98	307.2
748.38	297.83
748.779	332.94
749.179	276.77
749.578	262.73
749.978	335.28
750.377	311.88
750.777	344.64
751.176	325.92
751.575	258.04
751.975	349.32
752.374	332.94
752.773	255.7
753.172	349.32
753.571	260.38
753.97	337.62
754.369	382.09
754.768	337.62
755.166	286.13
755.565	316.56
755.964	318.9
756.362	302.51
756.761	300.17
757.159	358.69
757.558	311.88
757.956	389.11
758.354	290.81
758.753	286.13
759.151	290.81
759.549	272.09
759.947	307.2
760.345	337.62
760.743	265.07
761.141	276.77
761.539	309.54
761.936	344.64
762.334	323.58
762.732	342.3
763.129	321.24
763.527	309.54
763.924	349.32
764.322	288.47
764.719	325.92
765.117	337.62
765.514	262.73
765.911	314.22
766.308	335.28
766.705	321.24
767.102	342.3
767.499	281.45
767.896	358.69
768.293	307.2
768.69	286.13
769.086	251.02
769.483	332.94
769.88	332.94
770.276	344.64
770.673	321.24
771.069	354.01
771.466	302.51
771.862	377.41
772.258	368.05
772.654	346.98
773.05	274.43
773.447	281.45
773.843	370.39
774.239	356.35
774.634	314.22
775.03	375.07
775.426	304.85
775.822	335.28
776.218	318.9
776.613	279.11
777.009	351.67
777.404	330.6
777.8	321.24
778.195	286.13
778.59	335.28
778.986	316.56
779.381	318.9
779.776	332.94
780.171	386.77
780.566	297.83
780.961	283.79
781.356	332.94
781.751	279.11
782.146	276.77
782.54	321.24
782.935	286.13
783.33	283.79
783.724	339.96
784.119	283.79
784.513	342.3
784.908	335.28
785.302	342.3
785.696	323.58
786.09	276.77
786.485	283.79
786.879	251.02
787.273	311.88
787.667	330.6
788.061	321.24
788.454	342.3
788.848	311.88
789.242	262.73
789.636	309.54
790.029	365.71
790.423	307.2
790.816	300.17
791.21	337.62
791.603	295.49
791.997	300.17
792.39	307.2
792.783	290.81
793.176	244
793.569	302.51
793.962	290.81
794.355	325.92
794.748	332.94
795.141	384.43
795.534	332.94
795.927	337.62
796.319	279.11
796.712	358.69
797.105	300.17
797.497	372.73
797.89	323.58
798.282	311.88
798.674	258.04
799.067	328.26
799.459	344.64
799.851	354.01
800.243	398.48
800.635	279.11
801.027	365.71
801.419	302.51
801.811	316.56
802.203	339.96
802.594	307.2
802.986	281.45
803.378	328.26
803.769	307.2
804.161	342.3
804.552	339.96
804.944	328.26
805.335	290.81
805.726	354.01
806.118	288.47
806.509	356.35
806.9	342.3
807.291	351.67
807.682	302.51
808.073	293.15
808.464	314.22
808.855	302.51
809.245	279.11
809.636	346.98
810.027	318.9
810.417	297.83
810.808	295.49
811.198	330.6
811.589	262.73
811.979	295.49
812.369	288.47
812.759	283.79
813.15	361.03
813.54	337.62
813.93	302.51
814.32	311.88
814.71	309.54
815.1	307.2
815.489	361.03
815.879	248.68
816.269	304.85
816.658	318.9
817.048	354.01
817.438	325.92
817.827	274.43
818.216	302.51
818.606	267.41
818.995	297.83
819.384	302.51
819.773	314.22
820.163	375.07
820.552	307.2
820.941	274.43
821.33	304.85
821.718	316.56
822.107	262.73
822.496	325.92
822.885	290.81
823.273	297.83
823.662	311.88
824.05	365.71
824.439	302.51
824.827	267.41
825.216	321.24
825.604	323.58
825.992	342.3
826.38	276.77
826.768	321.24
827.156	304.85
827.544	293.15
827.932	269.75
828.32	251.02
828.708	262.73
829.096	274.43
829.483	290.81
829.871	358.69
830.259	297.83
830.646	286.13
831.034	295.49
831.421	262.73
831.808	309.54
832.196	246.34
832.583	335.28
832.97	283.79
833.357	262.73
833.744	286.13
834.131	337.62
834.518	307.2
834.905	300.17
835.292	300.17
835.678	344.64
836.065	309.54
836.452	368.05
836.838	398.48
837.225	239.32
837.611	302.51
837.998	318.9
838.384	286.13
838.77	293.15
839.157	265.07
839.543	290.81
839.929	253.36
840.315	349.32
840.701	309.54
841.087	346.98
841.473	304.85
841.858	295.49
842.244	323.58
842.63	332.94
843.015	328.26
843.401	602.1
843.787	335.28
844.172	279.11
844.557	335.28
844.943	295.49
845.328	332.94
845.713	358.69
846.098	335.28
846.483	274.43
846.868	335.28
847.253	372.73
847.638	332.94
848.023	302.51
848.408	267.41
848.793	288.47
849.177	325.92
849.562	335.28
849.947	328.26
850.331	349.32
850.715	311.88
851.1	251.02
851.484	321.24
851.868	253.36
852.253	286.13
852.637	281.45
853.021	283.79
853.405	286.13
853.789	304.85
854.173	311.88
854.557	248.68
854.94	262.73
855.324	358.69
855.708	335.28
856.091	346.98
856.475	349.32
856.858	314.22
857.242	276.77
857.625	311.88
858.009	314.22
858.392	290.81
858.775	274.43
859.158	358.69
859.541	318.9
859.924	260.38
860.307	286.13
860.69	248.68
861.073	295.49
861.456	276.77
861.838	354.01
862.221	311.88
862.604	307.2
862.986	279.11
863.369	302.51
863.751	344.64
864.133	295.49
864.516	325.92
864.898	344.64
865.28	314.22
865.662	293.15
866.044	307.2
866.426	325.92
866.808	321.24
867.19	335.28
867.572	365.71
867.954	279.11
868.336	311.88
868.717	300.17
869.099	311.88
869.48	304.85
869.862	363.37
870.243	276.77
870.625	384.43
871.006	370.39
871.387	335.28
871.768	354.01
872.149	325.92
872.53	379.75
872.911	339.96
873.292	382.09
873.673	297.83
874.054	302.51
874.435	335.28
874.815	304.85
875.196	344.64
875.577	363.37
875.957	393.8
876.338	321.24
876.718	321.24
877.098	288.47
877.479	321.24
877.859	281.45
878.239	262.73
878.619	309.54
878.999	274.43
879.379	332.94
879.759	286.13
880.139	309.54
880.519	304.85
880.898	304.85
881.278	349.32
881.658	279.11
882.037	323.58
882.417	251.02
882.796	260.38
883.176	295.49
883.555	293.15
883.934	325.92
884.313	283.79
884.693	293.15
885.072	414.86
885.451	365.71
885.83	316.56
886.209	286.13
886.587	328.26
886.966	323.58
887.345	323.58
887.724	311.88
888.102	349.32
888.481	342.3
888.859	335.28
889.238	269.75
889.616	342.3
889.994	220.6
890.373	251.02
890.751	302.51
891.129	316.56
891.507	316.56
891.885	330.6
892.263	325.92
892.641	318.9
893.019	316.56
893.396	283.79
893.774	389.11
894.152	321.24
894.529	318.9
894.907	260.38
895.284	342.3
895.662	288.47
896.039	276.77
896.416	318.9
896.794	325.92
897.171	321.24
897.548	283.79
897.925	335.28
898.302	276.77
898.679	344.64
899.056	300.17
899.433	323.58
899.809	307.2
900.186	269.75
900.563	316.56
900.939	281.45
901.316	339.96
901.692	311.88
902.069	311.88
902.445	405.5
902.821	304.85
903.197	248.68
903.574	318.9
903.95	300.17
904.326	323.58
904.702	339.96
905.078	335.28
905.454	309.54
905.829	314.22
906.205	269.75
906.581	318.9
906.956	330.6
907.332	262.73
907.707	316.56
908.083	269.75
908.458	365.71
908.833	332.94
909.209	356.35
909.584	218.25
909.959	293.15
910.334	314.22
910.709	297.83
911.084	337.62
911.459	300.17
911.834	323.58
912.209	358.69
912.583	363.37
912.958	342.3
913.333	328.26
913.707	368.05
914.082	309.54
914.456	325.92
914.83	391.45
915.205	318.9
915.579	375.07
915.953	318.9
916.327	293.15
916.701	335.28
917.075	332.94
917.449	337.62
917.823	229.96
918.197	300.17
918.571	293.15
918.944	255.7
919.318	342.3
919.692	349.32
920.065	286.13
920.438	248.68
920.812	328.26
921.185	288.47
921.558	295.49
921.932	283.79
922.305	330.6
922.678	309.54
923.051	293.15
923.424	316.56
923.797	281.45
924.17	328.26
924.542	332.94
924.915	328.26
925.288	321.24
925.661	304.85
926.033	304.85
926.406	349.32
926.778	248.68
927.15	281.45
927.523	358.69
927.895	325.92
928.267	300.17
928.639	288.47
929.011	314.22
929.383	332.94
929.755	363.37
930.127	351.67
930.499	293.15
930.871	265.07
931.242	316.56
931.614	255.7
931.986	288.47
932.357	314.22
932.729	314.22
933.1	335.28
933.471	332.94
933.843	307.2
934.214	321.24
934.585	344.64
934.956	325.92
935.327	283.79
935.698	279.11
936.069	342.3
936.44	288.47
936.811	302.51
937.182	248.68
937.552	330.6
937.923	354.01
938.293	354.01
938.664	300.17
939.034	274.43
939.405	304.85
939.775	269.75
940.145	255.7
940.516	295.49
940.886	253.36
941.256	325.92
941.626	335.28
941.996	286.13
942.366	339.96
942.735	286.13
943.105	391.45
943.475	269.75
943.845	269.75
944.214	370.39
944.584	274.43
944.953	293.15
945.323	269.75
945.692	321.24
946.061	246.34
946.43	304.85
946.8	286.13
947.169	302.51
947.538	314.22
947.907	300.17
948.276	354.01
948.645	316.56
949.013	272.09
949.382	321.24
949.751	342.3
950.119	349.32
950.488	368.05
950.857	351.67
951.225	323.58
951.593	302.51
951.962	286.13
952.33	323.58
952.698	349.32
953.066	255.7
953.434	304.85
953.802	391.45
954.17	260.38
954.538	323.58
954.906	244
955.274	354.01
955.642	325.92
956.009	311.88
956.377	302.51
956.744	342.3
957.112	260.38
957.479	293.15
957.847	351.67
958.214	248.68
958.581	269.75
958.948	344.64
959.315	328.26
959.683	344.64
960.05	354.01
960.416	279.11
960.783	344.64
961.15	328.26
961.517	288.47
961.884	330.6
962.25	358.69
962.617	251.02
962.983	393.8
963.35	400.82
963.716	304.85
964.082	314.22
964.449	293.15
964.815	295.49
965.181	358.69
965.547	307.2
965.913	391.45
966.279	248.68
966.645	311.88
967.011	314.22
967.377	265.07
967.742	297.83
968.108	288.47
968.474	272.09
968.839	372.73
969.205	318.9
969.57	335.28
969.935	330.6
970.301	323.58
970.666	279.11
971.031	304.85
971.396	293.15
971.761	267.41
972.126	368.05
972.491	265.07
972.856	363.37
973.221	234.64
973.586	339.96
973.95	267.41
974.315	300.17
974.679	311.88
975.044	276.77
975.408	346.98
975.773	311.88
976.137	267.41
976.501	351.67
976.866	325.92
977.23	262.73
977.594	244
977.958	377.41
978.322	311.88
978.686	316.56
979.049	253.36
979.413	393.8
979.777	342.3
980.141	346.98
980.504	288.47
980.868	239.32
981.231	267.41
981.595	335.28
981.958	258.04
982.321	354.01
982.684	316.56
983.048	354.01
983.411	269.75
983.774	382.09
984.137	288.47
984.5	293.15
984.862	349.32
985.225	339.96
985.588	358.69
985.951	293.15
986.313	332.94
986.676	318.9
987.038	323.58
987.401	258.04
987.763	323.58
988.125	382.09
988.488	337.62
988.85	279.11
989.212	321.24
989.574	325.92
989.936	232.3
990.298	323.58
990.66	325.92
991.022	314.22
991.383	288.47
991.745	260.38
992.107	260.38
992.468	283.79
992.83	255.7
993.191	311.88
993.553	297.83
993.914	279.11
994.275	290.81
994.637	351.67
994.998	318.9
995.359	269.75
995.72	311.88
996.081	286.13
996.442	358.69
996.803	286.13
997.163	349.32
997.524	300.17
997.885	335.28
998.245	365.71
998.606	269.75
998.966	304.85
999.327	314.22
999.687	297.83
1000.047	323.58
1000.408	368.05
1000.768	321.24
1001.128	311.88
1001.488	274.43
1001.848	293.15
1002.208	323.58
1002.568	295.49
1002.927	272.09
1003.287	262.73
1003.647	328.26
1004.007	311.88
1004.366	321.24
1004.726	337.62
1005.085	365.71
1005.444	267.41
1005.804	276.77
1006.163	304.85
1006.522	290.81
1006.881	323.58
1007.24	349.32
1007.599	354.01
1007.958	344.64
1008.317	309.54
1008.676	274.43
1009.035	253.36
1009.393	344.64
1009.752	241.66
1010.111	318.9
1010.469	300.17
1010.828	286.13
1011.186	377.41
1011.544	274.43
1011.903	276.77
1012.261	323.58
1012.619	325.92
1012.977	314.22
1013.335	309.54
1013.693	199.53
1014.051	349.32
1014.409	302.51
1014.767	307.2
1015.124	309.54
1015.482	309.54
1015.84	323.58
1016.197	286.13
1016.555	283.79
1016.912	300.17
1017.269	328.26
1017.627	227.62
1017.984	335.28
1018.341	290.81
1018.698	286.13
1019.055	314.22
1019.412	370.39
1019.769	344.64
1020.126	356.35
1020.483	377.41
1020.84	288.47
1021.196	255.7
1021.553	293.15
1021.909	300.17
1022.266	314.22
1022.622	339.96
1022.979	332.94
1023.335	342.3
1023.691	361.03
1024.047	283.79
1024.404	342.3
1024.76	283.79
1025.116	405.5
1025.472	344.64
1025.827	290.81
1026.183	297.83
1026.539	309.54
1026.895	370.39
1027.25	321.24
1027.606	258.04
1027.961	302.51
1028.317	281.45
1028.672	251.02
1029.028	342.3
1029.383	251.02
1029.738	262.73
1030.093	290.81
1030.448	344.64
1030.803	274.43
1031.158	344.64
1031.513	262.73
1031.868	346.98
1032.223	307.2
1032.577	337.62
1032.932	269.75
1033.287	286.13
1033.641	258.04
1033.996	339.96
1034.35	281.45
1034.704	368.05
1035.059	283.79
1035.413	293.15
1035.767	293.15
1036.121	293.15
