Data from Al_FLMS009871__1277__16-47-54-669.txt Node

Date: Fri Mar 08 16:47:54 CST 2024
User: pe5414po
Spectrometer: FLMS00987
Trigger mode: 0
Integration Time (sec): 1.000000E-1
Scans to average: 1
Electric dark correction enabled: true
Nonlinearity correction enabled: false
Boxcar width: 0
XAxis mode: Wavelengths
Number of Pixels in Spectrum: 2048
>>>>>Begin Spectral Data<<<<<
188.938	-21.5
189.409	-21.5
189.879	-21.5
190.349	-91.72
190.819	-89.38
191.29	-150.23
191.76	-183
192.23	-108.1
192.7	-77.68
193.17	-84.7
193.64	-40.23
194.109	13.6
194.579	-0.44
195.049	-9.8
195.519	-12.14
195.988	22.97
196.458	97.86
196.927	151.7
197.397	104.89
197.866	135.31
198.336	139.99
198.805	121.27
199.274	193.83
199.744	203.19
200.213	252.34
200.682	184.46
201.151	264.04
201.62	247.66
202.089	275.74
202.558	310.85
203.027	294.47
203.495	306.17
203.964	317.87
204.433	317.87
204.902	273.4
205.37	341.28
205.839	261.7
206.307	268.72
206.776	343.62
207.244	287.45
207.712	266.38
208.181	310.85
208.649	345.96
209.117	214.89
209.585	252.34
210.053	303.83
210.521	292.13
210.989	338.94
211.457	278.08
211.925	250
212.393	308.51
212.861	320.21
213.328	292.13
213.796	280.43
214.264	355.32
214.731	343.62
215.199	343.62
215.666	324.9
216.133	189.14
216.601	324.9
217.068	317.87
217.535	303.83
218.003	280.43
218.47	268.72
218.937	257.02
219.404	268.72
219.871	252.34
220.338	250
220.805	252.34
221.271	299.15
221.738	280.43
222.205	278.08
222.671	336.6
223.138	371.71
223.605	268.72
224.071	282.77
224.538	308.51
225.004	203.19
225.47	341.28
225.937	322.56
226.403	240.64
226.869	264.04
227.335	266.38
227.801	303.83
228.267	303.83
228.733	285.11
229.199	217.23
229.665	294.47
230.131	360
230.597	280.43
231.062	266.38
231.528	292.13
231.994	294.47
232.459	285.11
232.925	310.85
233.39	313.19
233.856	282.77
234.321	280.43
234.786	322.56
235.252	310.85
235.717	341.28
236.182	362.34
236.647	329.58
237.112	285.11
237.577	254.68
238.042	308.51
238.507	350.64
238.972	310.85
239.436	313.19
239.901	329.58
240.366	310.85
240.83	355.32
241.295	226.59
241.76	191.49
242.224	287.45
242.688	357.66
243.153	338.94
243.617	245.32
244.081	331.92
244.545	289.79
245.01	282.77
245.474	282.77
245.938	315.53
246.402	289.79
246.866	310.85
247.33	273.4
247.793	306.17
248.257	317.87
248.721	264.04
249.185	273.4
249.648	315.53
250.112	341.28
250.575	320.21
251.039	278.08
251.502	226.59
251.965	350.64
252.429	303.83
252.892	320.21
253.355	285.11
253.818	343.62
254.281	360
254.744	261.7
255.207	376.39
255.67	294.47
256.133	294.47
256.596	327.24
257.059	301.49
257.522	381.07
257.984	322.56
258.447	327.24
258.909	367.03
259.372	296.81
259.834	303.83
260.297	341.28
260.759	348.3
261.221	264.04
261.684	266.38
262.146	266.38
262.608	308.51
263.07	310.85
263.532	282.77
263.994	308.51
264.456	294.47
264.918	296.81
265.38	343.62
265.842	320.21
266.303	278.08
266.765	336.6
267.227	303.83
267.688	299.15
268.15	259.36
268.611	280.43
269.072	296.81
269.534	299.15
269.995	315.53
270.456	322.56
270.918	296.81
271.379	285.11
271.84	320.21
272.301	322.56
272.762	308.51
273.223	303.83
273.684	322.56
274.144	292.13
274.605	257.02
275.066	334.26
275.527	266.38
275.987	331.92
276.448	348.3
276.908	341.28
277.369	285.11
277.829	266.38
278.289	238.3
278.75	278.08
279.21	294.47
279.67	313.19
280.13	341.28
280.59	308.51
281.05	369.37
281.51	355.32
281.97	331.92
282.43	383.41
282.89	287.45
283.35	331.92
283.809	292.13
284.269	336.6
284.729	320.21
285.188	289.79
285.648	313.19
286.107	338.94
286.567	352.98
287.026	282.77
287.485	264.04
287.944	350.64
288.404	348.3
288.863	261.7
289.322	367.03
289.781	245.32
290.24	280.43
290.699	306.17
291.158	329.58
291.616	362.34
292.075	240.64
292.534	306.17
292.992	341.28
293.451	301.49
293.91	336.6
294.368	294.47
294.827	350.64
295.285	289.79
295.743	334.26
296.202	348.3
296.66	285.11
297.118	303.83
297.576	329.58
298.034	233.61
298.492	282.77
298.95	271.06
299.408	350.64
299.866	301.49
300.324	292.13
300.781	296.81
301.239	264.04
301.697	285.11
302.154	282.77
302.612	296.81
303.069	280.43
303.527	343.62
303.984	322.56
304.441	357.66
304.899	313.19
305.356	348.3
305.813	317.87
306.27	285.11
306.727	287.45
307.184	327.24
307.641	357.66
308.098	287.45
308.555	322.56
309.012	308.51
309.468	334.26
309.925	292.13
310.382	327.24
310.838	374.05
311.295	310.85
311.751	322.56
312.208	362.34
312.664	334.26
313.12	315.53
313.577	287.45
314.033	327.24
314.489	261.7
314.945	317.87
315.401	397.45
315.857	271.06
316.313	348.3
316.769	324.9
317.225	320.21
317.681	360
318.136	292.13
318.592	250
319.048	299.15
319.503	338.94
319.959	303.83
320.414	320.21
320.869	369.37
321.325	367.03
321.78	371.71
322.235	322.56
322.691	324.9
323.146	299.15
323.601	348.3
324.056	331.92
324.511	313.19
324.966	294.47
325.421	306.17
325.875	329.58
326.33	364.68
326.785	336.6
327.24	364.68
327.694	285.11
328.149	352.98
328.603	315.53
329.058	352.98
329.512	357.66
329.966	327.24
330.421	345.96
330.875	247.66
331.329	313.19
331.783	315.53
332.237	367.03
332.691	287.45
333.145	322.56
333.599	294.47
334.053	327.24
334.507	306.17
334.96	313.19
335.414	280.43
335.868	341.28
336.321	352.98
336.775	369.37
337.228	308.51
337.682	278.08
338.135	294.47
338.588	341.28
339.042	327.24
339.495	352.98
339.948	331.92
340.401	303.83
340.854	322.56
341.307	306.17
341.76	275.74
342.213	406.81
342.666	252.34
343.119	299.15
343.571	341.28
344.024	350.64
344.477	327.24
344.929	385.75
345.382	320.21
345.834	299.15
346.287	336.6
346.739	240.64
347.191	306.17
347.644	226.59
348.096	338.94
348.548	287.45
349	313.19
349.452	336.6
349.904	292.13
350.356	352.98
350.808	308.51
351.26	317.87
351.711	329.58
352.163	329.58
352.615	397.45
353.066	343.62
353.518	338.94
353.969	371.71
354.421	282.77
354.872	313.19
355.324	294.47
355.775	282.77
356.226	261.7
356.677	324.9
357.128	257.02
357.579	364.68
358.03	352.98
358.481	310.85
358.932	285.11
359.383	289.79
359.834	334.26
360.285	374.05
360.735	301.49
361.186	345.96
361.637	287.45
362.087	345.96
362.538	343.62
362.988	352.98
363.438	310.85
363.889	289.79
364.339	352.98
364.789	275.74
365.239	364.68
365.689	348.3
366.139	315.53
366.589	345.96
367.039	228.93
367.489	329.58
367.939	367.03
368.389	331.92
368.839	296.81
369.288	275.74
369.738	306.17
370.187	343.62
370.637	392.77
371.086	350.64
371.536	350.64
371.985	299.15
372.434	360
372.884	348.3
373.333	355.32
373.782	388.09
374.231	282.77
374.68	294.47
375.129	338.94
375.578	306.17
376.027	336.6
376.475	329.58
376.924	341.28
377.373	315.53
377.822	317.87
378.27	395.11
378.719	362.34
379.167	341.28
379.616	355.32
380.064	320.21
380.512	324.9
380.961	289.79
381.409	355.32
381.857	385.75
382.305	385.75
382.753	378.73
383.201	348.3
383.649	320.21
384.097	348.3
384.545	352.98
384.992	369.37
385.44	352.98
385.888	343.62
386.335	301.49
386.783	345.96
387.231	322.56
387.678	336.6
388.125	294.47
388.573	338.94
389.02	371.71
389.467	280.43
389.914	334.26
390.362	308.51
390.809	320.21
391.256	402.13
391.703	287.45
392.15	308.51
392.596	324.9
393.043	320.21
393.49	338.94
393.937	388.09
394.383	324.9
394.83	294.47
395.276	324.9
395.723	320.21
396.169	350.64
396.616	444.26
397.062	299.15
397.508	299.15
397.954	343.62
398.401	275.74
398.847	294.47
399.293	381.07
399.739	306.17
400.185	303.83
400.631	327.24
401.076	331.92
401.522	341.28
401.968	336.6
402.414	369.37
402.859	306.17
403.305	299.15
403.75	308.51
404.196	381.07
404.641	313.19
405.086	299.15
405.532	315.53
405.977	348.3
406.422	327.24
406.867	308.51
407.312	287.45
407.757	355.32
408.202	296.81
408.647	296.81
409.092	292.13
409.537	383.41
409.982	367.03
410.426	294.47
410.871	355.32
411.316	310.85
411.76	385.75
412.205	338.94
412.649	308.51
413.093	273.4
413.538	287.45
413.982	292.13
414.426	231.27
414.87	301.49
415.314	395.11
415.758	369.37
416.202	310.85
416.646	294.47
417.09	306.17
417.534	338.94
417.978	322.56
418.421	338.94
418.865	364.68
419.309	378.73
419.752	362.34
420.196	331.92
420.639	320.21
421.083	348.3
421.526	369.37
421.969	374.05
422.412	411.5
422.856	301.49
423.299	278.08
423.742	317.87
424.185	362.34
424.628	362.34
425.071	376.39
425.513	345.96
425.956	273.4
426.399	341.28
426.842	308.51
427.284	376.39
427.727	320.21
428.169	390.43
428.612	336.6
429.054	338.94
429.497	371.71
429.939	315.53
430.381	257.02
430.823	306.17
431.265	292.13
431.707	317.87
432.149	383.41
432.591	294.47
433.033	322.56
433.475	376.39
433.917	324.9
434.359	310.85
434.8	327.24
435.242	266.38
435.684	334.26
436.125	303.83
436.567	320.21
437.008	376.39
437.449	285.11
437.891	303.83
438.332	308.51
438.773	273.4
439.214	292.13
439.656	303.83
440.097	378.73
440.538	329.58
440.978	362.34
441.419	343.62
441.86	322.56
442.301	360
442.742	315.53
443.182	317.87
443.623	345.96
444.063	294.47
444.504	364.68
444.944	308.51
445.385	362.34
445.825	296.81
446.265	331.92
446.706	296.81
447.146	338.94
447.586	322.56
448.026	280.43
448.466	322.56
448.906	350.64
449.346	250
449.786	350.64
450.225	338.94
450.665	336.6
451.105	345.96
451.544	331.92
451.984	327.24
452.424	338.94
452.863	324.9
453.302	362.34
453.742	383.41
454.181	357.66
454.62	367.03
455.059	299.15
455.499	360
455.938	278.08
456.377	329.58
456.816	306.17
457.254	338.94
457.693	303.83
458.132	350.64
458.571	376.39
459.01	303.83
459.448	301.49
459.887	341.28
460.325	275.74
460.764	371.71
461.202	313.19
461.641	385.75
462.079	336.6
462.517	355.32
462.955	341.28
463.393	289.79
463.832	352.98
464.27	381.07
464.708	320.21
465.145	322.56
465.583	315.53
466.021	271.06
466.459	392.77
466.897	343.62
467.334	313.19
467.772	327.24
468.209	310.85
468.647	310.85
469.084	388.09
469.522	350.64
469.959	329.58
470.396	362.34
470.833	367.03
471.271	341.28
471.708	331.92
472.145	334.26
472.582	388.09
473.019	338.94
473.456	350.64
473.892	345.96
474.329	355.32
474.766	374.05
475.202	282.77
475.639	299.15
476.076	399.79
476.512	301.49
476.949	315.53
477.385	338.94
477.821	287.45
478.258	369.37
478.694	296.81
479.13	322.56
479.566	367.03
480.002	299.15
480.438	331.92
480.874	303.83
481.31	364.68
481.746	352.98
482.181	264.04
482.617	360
483.053	224.25
483.488	315.53
483.924	392.77
484.36	352.98
484.795	317.87
485.23	357.66
485.666	322.56
486.101	320.21
486.536	313.19
486.971	334.26
487.407	324.9
487.842	336.6
488.277	306.17
488.712	308.51
489.146	350.64
489.581	369.37
490.016	329.58
490.451	313.19
490.885	282.77
491.32	308.51
491.755	331.92
492.189	381.07
492.624	322.56
493.058	371.71
493.492	371.71
493.927	294.47
494.361	313.19
494.795	355.32
495.229	280.43
495.663	374.05
496.097	322.56
496.531	392.77
496.965	352.98
497.399	390.43
497.833	357.66
498.266	350.64
498.7	409.15
499.134	308.51
499.567	242.98
500.001	320.21
500.434	303.83
500.868	355.32
501.301	385.75
501.734	334.26
502.168	296.81
502.601	299.15
503.034	273.4
503.467	357.66
503.9	299.15
504.333	313.19
504.766	352.98
505.199	362.34
505.632	268.72
506.064	273.4
506.497	313.19
506.93	355.32
507.362	336.6
507.795	327.24
508.227	376.39
508.66	345.96
509.092	324.9
509.524	362.34
509.956	352.98
510.389	320.21
510.821	348.3
511.253	271.06
511.685	247.66
512.117	355.32
512.549	362.34
512.981	390.43
513.412	292.13
513.844	360
514.276	371.71
514.707	322.56
515.139	374.05
515.571	352.98
516.002	336.6
516.433	313.19
516.865	374.05
517.296	352.98
517.727	383.41
518.159	292.13
518.59	303.83
519.021	390.43
519.452	341.28
519.883	315.53
520.314	352.98
520.744	350.64
521.175	313.19
521.606	327.24
522.037	341.28
522.467	355.32
522.898	336.6
523.328	355.32
523.759	329.58
524.189	303.83
524.62	296.81
525.05	338.94
525.48	352.98
525.91	278.08
526.341	294.47
526.771	378.73
527.201	315.53
527.631	336.6
528.061	336.6
528.49	322.56
528.92	388.09
529.35	327.24
529.78	320.21
530.209	320.21
530.639	345.96
531.068	322.56
531.498	357.66
531.927	352.98
532.357	320.21
532.786	296.81
533.215	299.15
533.644	371.71
534.074	294.47
534.503	357.66
534.932	374.05
535.361	310.85
535.79	322.56
536.218	355.32
536.647	310.85
537.076	287.45
537.505	324.9
537.933	308.51
538.362	334.26
538.79	338.94
539.219	360
539.647	322.56
540.076	310.85
540.504	341.28
540.932	348.3
541.36	360
541.788	331.92
542.217	343.62
542.645	388.09
543.073	343.62
543.5	327.24
543.928	252.34
544.356	275.74
544.784	313.19
545.211	294.47
545.639	310.85
546.067	367.03
546.494	308.51
546.922	350.64
547.349	299.15
547.776	357.66
548.204	296.81
548.631	371.71
549.058	327.24
549.485	357.66
549.912	301.49
550.339	228.93
550.766	303.83
551.193	329.58
551.62	296.81
552.047	338.94
552.474	261.7
552.9	341.28
553.327	343.62
553.754	317.87
554.18	362.34
554.607	334.26
555.033	322.56
555.459	275.74
555.886	324.9
556.312	331.92
556.738	355.32
557.164	327.24
557.59	327.24
558.016	294.47
558.442	355.32
558.868	362.34
559.294	343.62
559.72	352.98
560.145	341.28
560.571	338.94
560.997	252.34
561.422	313.19
561.848	327.24
562.273	374.05
562.699	296.81
563.124	310.85
563.549	355.32
563.974	310.85
564.4	334.26
564.825	308.51
565.25	329.58
565.675	320.21
566.1	296.81
566.525	350.64
566.95	306.17
567.374	324.9
567.799	320.21
568.224	350.64
568.648	317.87
569.073	397.45
569.497	317.87
569.922	268.72
570.346	322.56
570.771	329.58
571.195	308.51
571.619	348.3
572.043	383.41
572.467	345.96
572.891	301.49
573.315	390.43
573.739	371.71
574.163	320.21
574.587	385.75
575.011	287.45
575.435	331.92
575.858	397.45
576.282	352.98
576.705	320.21
577.129	388.09
577.552	364.68
577.976	360
578.399	303.83
578.822	362.34
579.245	294.47
579.669	292.13
580.092	317.87
580.515	313.19
580.938	397.45
581.361	336.6
581.784	367.03
582.206	320.21
582.629	331.92
583.052	257.02
583.474	348.3
583.897	352.98
584.32	357.66
584.742	331.92
585.165	303.83
585.587	310.85
586.009	331.92
586.431	329.58
586.854	303.83
587.276	350.64
587.698	338.94
588.12	257.02
588.542	273.4
588.964	322.56
589.386	303.83
589.807	301.49
590.229	350.64
590.651	348.3
591.073	322.56
591.494	341.28
591.916	306.17
592.337	350.64
592.759	338.94
593.18	345.96
593.601	313.19
594.022	331.92
594.444	345.96
594.865	329.58
595.286	310.85
595.707	303.83
596.128	350.64
596.549	310.85
596.97	301.49
597.39	338.94
597.811	341.28
598.232	369.37
598.652	254.68
599.073	432.56
599.494	320.21
599.914	360
600.334	397.45
600.755	310.85
601.175	362.34
601.595	273.4
602.015	331.92
602.436	360
602.856	507.46
603.276	313.19
603.696	348.3
604.115	350.64
604.535	313.19
604.955	343.62
605.375	388.09
605.794	301.49
606.214	313.19
606.634	303.83
607.053	416.18
607.473	360
607.892	310.85
608.311	434.9
608.731	350.64
609.15	294.47
609.569	350.64
609.988	357.66
610.407	364.68
610.826	322.56
611.245	341.28
611.664	317.87
612.083	320.21
612.501	320.21
612.92	397.45
613.339	331.92
613.757	292.13
614.176	352.98
614.594	338.94
615.013	406.81
615.431	280.43
615.85	301.49
616.268	360
616.686	376.39
617.104	294.47
617.522	320.21
617.94	320.21
618.358	341.28
618.776	367.03
619.194	303.83
619.612	306.17
620.03	292.13
620.447	331.92
620.865	320.21
621.282	303.83
621.7	322.56
622.117	334.26
622.535	294.47
622.952	329.58
623.369	355.32
623.787	360
624.204	303.83
624.621	313.19
625.038	320.21
625.455	320.21
625.872	345.96
626.289	350.64
626.706	303.83
627.123	357.66
627.539	367.03
627.956	310.85
628.373	341.28
628.789	345.96
629.206	329.58
629.622	367.03
630.038	352.98
630.455	322.56
630.871	348.3
631.287	399.79
631.703	320.21
632.12	341.28
632.536	341.28
632.952	367.03
633.368	341.28
633.783	381.07
634.199	341.28
634.615	350.64
635.031	324.9
635.446	322.56
635.862	266.38
636.277	374.05
636.693	369.37
637.108	294.47
637.524	360
637.939	364.68
638.354	310.85
638.77	285.11
639.185	322.56
639.6	313.19
640.015	320.21
640.43	320.21
640.845	294.47
641.259	360
641.674	327.24
642.089	245.32
642.504	338.94
642.918	355.32
643.333	360
643.747	301.49
644.162	329.58
644.576	348.3
644.991	282.77
645.405	350.64
645.819	310.85
646.233	292.13
646.647	334.26
647.061	371.71
647.475	313.19
647.889	301.49
648.303	324.9
648.717	322.56
649.131	313.19
649.545	313.19
649.958	338.94
650.372	331.92
650.785	364.68
651.199	369.37
651.612	294.47
652.026	329.58
652.439	331.92
652.852	385.75
653.266	271.06
653.679	313.19
654.092	329.58
654.505	388.09
654.918	348.3
655.331	329.58
655.744	355.32
656.156	352.98
656.569	350.64
656.982	324.9
657.394	282.77
657.807	357.66
658.22	369.37
658.632	289.79
659.044	303.83
659.457	338.94
659.869	334.26
660.281	313.19
660.693	329.58
661.106	364.68
661.518	329.58
661.93	331.92
662.342	355.32
662.754	348.3
663.165	310.85
663.577	278.08
663.989	313.19
664.401	320.21
664.812	437.24
665.224	324.9
665.635	285.11
666.047	331.92
666.458	427.88
666.869	350.64
667.281	308.51
667.692	336.6
668.103	397.45
668.514	388.09
668.925	247.66
669.336	320.21
669.747	395.11
670.158	303.83
670.569	331.92
670.979	341.28
671.39	292.13
671.801	310.85
672.211	275.74
672.622	331.92
673.032	313.19
673.443	348.3
673.853	357.66
674.263	364.68
674.674	303.83
675.084	327.24
675.494	338.94
675.904	310.85
676.314	324.9
676.724	331.92
677.134	273.4
677.544	324.9
677.953	362.34
678.363	378.73
678.773	331.92
679.182	254.68
679.592	369.37
680.001	331.92
680.411	294.47
680.82	303.83
681.23	320.21
681.639	275.74
682.048	294.47
682.457	313.19
682.866	350.64
683.275	362.34
683.684	397.45
684.093	336.6
684.502	289.79
684.911	331.92
685.32	313.19
685.728	322.56
686.137	338.94
686.546	329.58
686.954	289.79
687.363	313.19
687.771	336.6
688.179	324.9
688.588	329.58
688.996	367.03
689.404	341.28
689.812	301.49
690.22	360
690.628	310.85
691.036	292.13
691.444	266.38
691.852	329.58
692.26	364.68
692.667	348.3
693.075	324.9
693.483	397.45
693.89	376.39
694.298	315.53
694.705	343.62
695.112	350.64
695.52	341.28
695.927	334.26
696.334	266.38
696.741	289.79
697.148	378.73
697.555	322.56
697.962	336.6
698.369	430.22
698.776	367.03
699.183	285.11
699.59	303.83
699.996	357.66
700.403	310.85
700.81	367.03
701.216	345.96
701.623	350.64
702.029	334.26
702.435	324.9
702.842	357.66
703.248	329.58
703.654	289.79
704.06	406.81
704.466	336.6
704.872	320.21
705.278	357.66
705.684	399.79
706.09	299.15
706.496	282.77
706.901	320.21
707.307	343.62
707.712	350.64
708.118	324.9
708.523	315.53
708.929	235.96
709.334	416.18
709.74	275.74
710.145	280.43
710.55	331.92
710.955	334.26
711.36	322.56
711.765	313.19
712.17	324.9
712.575	360
712.98	903.01
713.385	345.96
713.789	327.24
714.194	341.28
714.599	378.73
715.003	355.32
715.408	395.11
715.812	352.98
716.217	322.56
716.621	397.45
717.025	362.34
717.429	357.66
717.833	331.92
718.238	317.87
718.642	364.68
719.046	289.79
719.449	226.59
719.853	392.77
720.257	427.88
720.661	338.94
721.065	357.66
721.468	320.21
721.872	226.59
722.275	369.37
722.679	287.45
723.082	357.66
723.485	306.17
723.889	310.85
724.292	275.74
724.695	355.32
725.098	296.81
725.501	322.56
725.904	348.3
726.307	369.37
726.71	292.13
727.113	303.83
727.516	355.32
727.918	371.71
728.321	299.15
728.724	282.77
729.126	378.73
729.529	367.03
729.931	289.79
730.333	287.45
730.736	329.58
731.138	350.64
731.54	352.98
731.942	376.39
732.344	364.68
732.746	324.9
733.148	322.56
733.55	313.19
733.952	390.43
734.354	348.3
734.756	317.87
735.157	355.32
735.559	313.19
735.96	322.56
736.362	399.79
736.763	352.98
737.165	334.26
737.566	317.87
737.967	299.15
738.368	317.87
738.77	299.15
739.171	308.51
739.572	404.47
739.973	287.45
740.374	357.66
740.774	357.66
741.175	315.53
741.576	338.94
741.977	322.56
742.377	296.81
742.778	376.39
743.178	350.64
743.579	362.34
743.979	341.28
744.379	388.09
744.78	296.81
745.18	266.38
745.58	317.87
745.98	327.24
746.38	341.28
746.78	303.83
747.18	341.28
747.58	310.85
747.98	282.77
748.38	327.24
748.779	313.19
749.179	289.79
749.578	376.39
749.978	329.58
750.377	367.03
750.777	313.19
751.176	376.39
751.575	329.58
751.975	357.66
752.374	320.21
752.773	331.92
753.172	254.68
753.571	338.94
753.97	329.58
754.369	343.62
754.768	388.09
755.166	310.85
755.565	334.26
755.964	352.98
756.362	369.37
756.761	313.19
757.159	334.26
757.558	369.37
757.956	327.24
758.354	374.05
758.753	360
759.151	364.68
759.549	275.74
759.947	282.77
760.345	329.58
760.743	360
761.141	292.13
761.539	388.09
761.936	310.85
762.334	292.13
762.732	350.64
763.129	371.71
763.527	369.37
763.924	348.3
764.322	310.85
764.719	271.06
765.117	331.92
765.514	327.24
765.911	348.3
766.308	320.21
766.705	315.53
767.102	331.92
767.499	357.66
767.896	282.77
768.293	352.98
768.69	341.28
769.086	383.41
769.483	301.49
769.88	338.94
770.276	322.56
770.673	322.56
771.069	385.75
771.466	348.3
771.862	352.98
772.258	257.02
772.654	341.28
773.05	259.36
773.447	390.43
773.843	369.37
774.239	317.87
774.634	280.43
775.03	257.02
775.426	369.37
775.822	360
776.218	348.3
776.613	306.17
777.009	364.68
777.404	341.28
777.8	317.87
778.195	343.62
778.59	303.83
778.986	324.9
779.381	331.92
779.776	320.21
780.171	266.38
780.566	308.51
780.961	360
781.356	331.92
781.751	348.3
782.146	308.51
782.54	301.49
782.935	322.56
783.33	294.47
783.724	264.04
784.119	268.72
784.513	381.07
784.908	397.45
785.302	308.51
785.696	352.98
786.09	341.28
786.485	350.64
786.879	294.47
787.273	310.85
787.667	303.83
788.061	327.24
788.454	360
788.848	317.87
789.242	352.98
789.636	294.47
790.029	320.21
790.423	345.96
790.816	240.64
791.21	360
791.603	369.37
791.997	352.98
792.39	348.3
792.783	299.15
793.176	327.24
793.569	331.92
793.962	350.64
794.355	310.85
794.748	301.49
795.141	296.81
795.534	299.15
795.927	313.19
796.319	357.66
796.712	362.34
797.105	341.28
797.497	324.9
797.89	303.83
798.282	367.03
798.674	308.51
799.067	369.37
799.459	317.87
799.851	360
800.243	306.17
800.635	310.85
801.027	331.92
801.419	315.53
801.811	350.64
802.203	294.47
802.594	287.45
802.986	345.96
803.378	313.19
803.769	308.51
804.161	289.79
804.552	313.19
804.944	352.98
805.335	331.92
805.726	320.21
806.118	306.17
806.509	289.79
806.9	294.47
807.291	303.83
807.682	264.04
808.073	327.24
808.464	287.45
808.855	308.51
809.245	308.51
809.636	376.39
810.027	367.03
810.417	322.56
810.808	292.13
811.198	320.21
811.589	334.26
811.979	282.77
812.369	322.56
812.759	357.66
813.15	292.13
813.54	238.3
813.93	371.71
814.32	331.92
814.71	310.85
815.1	278.08
815.489	331.92
815.879	299.15
816.269	261.7
816.658	352.98
817.048	345.96
817.438	271.06
817.827	357.66
818.216	334.26
818.606	308.51
818.995	371.71
819.384	395.11
819.773	310.85
820.163	299.15
820.552	329.58
820.941	369.37
821.33	399.79
821.718	338.94
822.107	264.04
822.496	306.17
822.885	341.28
823.273	369.37
823.662	357.66
824.05	338.94
824.439	336.6
824.827	331.92
825.216	374.05
825.604	310.85
825.992	338.94
826.38	371.71
826.768	360
827.156	320.21
827.544	315.53
827.932	240.64
828.32	327.24
828.708	341.28
829.096	357.66
829.483	322.56
829.871	331.92
830.259	320.21
830.646	303.83
831.034	357.66
831.421	303.83
831.808	303.83
832.196	306.17
832.583	275.74
832.97	352.98
833.357	247.66
833.744	336.6
834.131	280.43
834.518	331.92
834.905	313.19
835.292	360
835.678	310.85
836.065	282.77
836.452	364.68
836.838	374.05
837.225	317.87
837.611	362.34
837.998	352.98
838.384	301.49
838.77	367.03
839.157	338.94
839.543	331.92
839.929	322.56
840.315	320.21
840.701	324.9
841.087	367.03
841.473	317.87
841.858	308.51
842.244	371.71
842.63	331.92
843.015	273.4
843.401	605.76
843.787	306.17
844.172	331.92
844.557	313.19
844.943	306.17
845.328	280.43
845.713	289.79
846.098	341.28
846.483	313.19
846.868	327.24
847.253	334.26
847.638	268.72
848.023	313.19
848.408	378.73
848.793	310.85
849.177	317.87
849.562	331.92
849.947	280.43
850.331	378.73
850.715	324.9
851.1	371.71
851.484	261.7
851.868	348.3
852.253	289.79
852.637	388.09
853.021	317.87
853.405	282.77
853.789	324.9
854.173	324.9
854.557	289.79
854.94	371.71
855.324	310.85
855.708	327.24
856.091	336.6
856.475	362.34
856.858	364.68
857.242	371.71
857.625	324.9
858.009	273.4
858.392	317.87
858.775	315.53
859.158	383.41
859.541	303.83
859.924	306.17
860.307	250
860.69	331.92
861.073	390.43
861.456	336.6
861.838	345.96
862.221	336.6
862.604	360
862.986	355.32
863.369	357.66
863.751	306.17
864.133	264.04
864.516	388.09
864.898	315.53
865.28	282.77
865.662	322.56
866.044	310.85
866.426	299.15
866.808	388.09
867.19	320.21
867.572	364.68
867.954	306.17
868.336	301.49
868.717	285.11
869.099	338.94
869.48	329.58
869.862	294.47
870.243	352.98
870.625	303.83
871.006	315.53
871.387	320.21
871.768	327.24
872.149	392.77
872.53	261.7
872.911	275.74
873.292	413.84
873.673	348.3
874.054	385.75
874.435	381.07
874.815	345.96
875.196	292.13
875.577	338.94
875.957	357.66
876.338	355.32
876.718	338.94
877.098	278.08
877.479	268.72
877.859	301.49
878.239	320.21
878.619	371.71
878.999	331.92
879.379	374.05
879.759	306.17
880.139	390.43
880.519	331.92
880.898	280.43
881.278	306.17
881.658	364.68
882.037	327.24
882.417	313.19
882.796	334.26
883.176	327.24
883.555	301.49
883.934	324.9
884.313	327.24
884.693	242.98
885.072	226.59
885.451	334.26
885.83	331.92
886.209	282.77
886.587	306.17
886.966	338.94
887.345	331.92
887.724	355.32
888.102	301.49
888.481	308.51
888.859	278.08
889.238	313.19
889.616	320.21
889.994	287.45
890.373	385.75
890.751	345.96
891.129	322.56
891.507	385.75
891.885	257.02
892.263	329.58
892.641	385.75
893.019	336.6
893.396	306.17
893.774	360
894.152	334.26
894.529	329.58
894.907	329.58
895.284	275.74
895.662	275.74
896.039	341.28
896.416	301.49
896.794	437.24
897.171	313.19
897.548	350.64
897.925	280.43
898.302	376.39
898.679	360
899.056	289.79
899.433	280.43
899.809	338.94
900.186	306.17
900.563	341.28
900.939	348.3
901.316	287.45
901.692	352.98
902.069	369.37
902.445	397.45
902.821	287.45
903.197	266.38
903.574	299.15
903.95	331.92
904.326	285.11
904.702	360
905.078	327.24
905.454	310.85
905.829	322.56
906.205	360
906.581	294.47
906.956	348.3
907.332	301.49
907.707	299.15
908.083	275.74
908.458	303.83
908.833	306.17
909.209	376.39
909.584	329.58
909.959	317.87
910.334	313.19
910.709	355.32
911.084	320.21
911.459	264.04
911.834	352.98
912.209	308.51
912.583	357.66
912.958	371.71
913.333	334.26
913.707	397.45
914.082	292.13
914.456	296.81
914.83	331.92
915.205	341.28
915.579	341.28
915.953	315.53
916.327	285.11
916.701	331.92
917.075	294.47
917.449	322.56
917.823	313.19
918.197	360
918.571	294.47
918.944	336.6
919.318	299.15
919.692	360
920.065	303.83
920.438	336.6
920.812	395.11
921.185	329.58
921.558	313.19
921.932	313.19
922.305	231.27
922.678	310.85
923.051	329.58
923.424	294.47
923.797	317.87
924.17	289.79
924.542	338.94
924.915	292.13
925.288	336.6
925.661	357.66
926.033	357.66
926.406	273.4
926.778	348.3
927.15	315.53
927.523	268.72
927.895	367.03
928.267	278.08
928.639	282.77
929.011	331.92
929.383	369.37
929.755	296.81
930.127	397.45
930.499	268.72
930.871	303.83
931.242	341.28
931.614	280.43
931.986	317.87
932.357	289.79
932.729	322.56
933.1	336.6
933.471	273.4
933.843	376.39
934.214	348.3
934.585	364.68
934.956	310.85
935.327	315.53
935.698	334.26
936.069	310.85
936.44	310.85
936.811	315.53
937.182	275.74
937.552	355.32
937.923	278.08
938.293	329.58
938.664	327.24
939.034	327.24
939.405	310.85
939.775	350.64
940.145	250
940.516	306.17
940.886	324.9
941.256	357.66
941.626	317.87
941.996	331.92
942.366	374.05
942.735	336.6
943.105	338.94
943.475	352.98
943.845	331.92
944.214	301.49
944.584	296.81
944.953	301.49
945.323	303.83
945.692	299.15
946.061	310.85
946.43	313.19
946.8	310.85
947.169	285.11
947.538	282.77
947.907	278.08
948.276	247.66
948.645	352.98
949.013	271.06
949.382	362.34
949.751	303.83
950.119	317.87
950.488	336.6
950.857	301.49
951.225	275.74
951.593	294.47
951.962	324.9
952.33	292.13
952.698	282.77
953.066	341.28
953.434	331.92
953.802	350.64
954.17	320.21
954.538	338.94
954.906	411.5
955.274	369.37
955.642	331.92
956.009	268.72
956.377	310.85
956.744	296.81
957.112	294.47
957.479	364.68
957.847	317.87
958.214	310.85
958.581	378.73
958.948	322.56
959.315	324.9
959.683	324.9
960.05	287.45
960.416	322.56
960.783	285.11
961.15	280.43
961.517	322.56
961.884	341.28
962.25	388.09
962.617	303.83
962.983	362.34
963.35	331.92
963.716	331.92
964.082	303.83
964.449	313.19
964.815	355.32
965.181	317.87
965.547	242.98
965.913	322.56
966.279	266.38
966.645	268.72
967.011	334.26
967.377	352.98
967.742	289.79
968.108	280.43
968.474	233.61
968.839	289.79
969.205	313.19
969.57	320.21
969.935	301.49
970.301	352.98
970.666	245.32
971.031	374.05
971.396	329.58
971.761	348.3
972.126	271.06
972.491	301.49
972.856	371.71
973.221	287.45
973.586	334.26
973.95	324.9
974.315	250
974.679	322.56
975.044	299.15
975.408	317.87
975.773	303.83
976.137	322.56
976.501	341.28
976.866	301.49
977.23	296.81
977.594	299.15
977.958	299.15
978.322	327.24
978.686	320.21
979.049	280.43
979.413	278.08
979.777	254.68
980.141	329.58
980.504	282.77
980.868	371.71
981.231	350.64
981.595	334.26
981.958	310.85
982.321	367.03
982.684	364.68
983.048	285.11
983.411	275.74
983.774	320.21
984.137	278.08
984.5	343.62
984.862	313.19
985.225	345.96
985.588	371.71
985.951	271.06
986.313	331.92
986.676	271.06
987.038	310.85
987.401	341.28
987.763	273.4
988.125	336.6
988.488	334.26
988.85	352.98
989.212	303.83
989.574	287.45
989.936	362.34
990.298	331.92
990.66	331.92
991.022	275.74
991.383	406.81
991.745	364.68
992.107	327.24
992.468	336.6
992.83	350.64
993.191	322.56
993.553	310.85
993.914	362.34
994.275	343.62
994.637	303.83
994.998	280.43
995.359	357.66
995.72	308.51
996.081	327.24
996.442	308.51
996.803	287.45
997.163	324.9
997.524	367.03
997.885	320.21
998.245	338.94
998.606	308.51
998.966	364.68
999.327	348.3
999.687	315.53
1000.047	315.53
1000.408	381.07
1000.768	306.17
1001.128	334.26
1001.488	345.96
1001.848	355.32
1002.208	327.24
1002.568	388.09
1002.927	303.83
1003.287	268.72
1003.647	381.07
1004.007	320.21
1004.366	345.96
1004.726	322.56
1005.085	303.83
1005.444	317.87
1005.804	343.62
1006.163	371.71
1006.522	336.6
1006.881	355.32
1007.24	329.58
1007.599	275.74
1007.958	266.38
1008.317	362.34
1008.676	357.66
1009.035	367.03
1009.393	369.37
1009.752	303.83
1010.111	331.92
1010.469	371.71
1010.828	381.07
1011.186	350.64
1011.544	317.87
1011.903	247.66
1012.261	275.74
1012.619	364.68
1012.977	303.83
1013.335	357.66
1013.693	374.05
1014.051	317.87
1014.409	264.04
1014.767	313.19
1015.124	343.62
1015.482	371.71
1015.84	362.34
1016.197	343.62
1016.555	266.38
1016.912	294.47
1017.269	261.7
1017.627	369.37
1017.984	294.47
1018.341	317.87
1018.698	308.51
1019.055	338.94
1019.412	322.56
1019.769	233.61
1020.126	320.21
1020.483	301.49
1020.84	273.4
1021.196	285.11
1021.553	292.13
1021.909	371.71
1022.266	329.58
1022.622	315.53
1022.979	341.28
1023.335	371.71
1023.691	355.32
1024.047	282.77
1024.404	364.68
1024.76	299.15
1025.116	303.83
1025.472	338.94
1025.827	357.66
1026.183	338.94
1026.539	324.9
1026.895	416.18
1027.25	306.17
1027.606	376.39
1027.961	301.49
1028.317	294.47
1028.672	308.51
1029.028	350.64
1029.383	329.58
1029.738	418.52
1030.093	388.09
1030.448	334.26
1030.803	364.68
1031.158	287.45
1031.513	294.47
1031.868	322.56
1032.223	331.92
1032.577	282.77
1032.932	360
1033.287	317.87
1033.641	345.96
1033.996	294.47
1034.35	296.81
1034.704	331.92
1035.059	306.17
1035.413	352.98
1035.767	352.98
1036.121	352.98
