Data from Al_FLMS009871__1275__16-47-54-469.txt Node

Date: Fri Mar 08 16:47:54 CST 2024
User: pe5414po
Spectrometer: FLMS00987
Trigger mode: 0
Integration Time (sec): 1.000000E-1
Scans to average: 1
Electric dark correction enabled: true
Nonlinearity correction enabled: false
Boxcar width: 0
XAxis mode: Wavelengths
Number of Pixels in Spectrum: 2048
>>>>>Begin Spectral Data<<<<<
188.938	-84.84
189.409	-84.84
189.879	-84.84
190.349	-59.1
190.819	-162.08
191.29	-70.8
191.76	-115.27
192.23	-89.53
192.7	-103.57
193.17	-38.03
193.64	-40.37
194.109	-70.8
194.579	1.76
195.049	50.91
195.519	55.59
195.988	-0.59
196.458	6.44
196.927	95.38
197.397	86.01
197.866	60.27
198.336	172.61
198.805	102.4
199.274	221.77
199.744	231.13
200.213	179.64
200.682	184.32
201.151	219.43
201.62	228.79
202.089	242.83
202.558	245.17
203.027	210.06
203.495	315.39
203.964	235.81
204.433	219.43
204.902	320.07
205.37	235.81
205.839	247.51
206.307	263.9
206.776	291.98
207.244	217.08
207.712	263.9
208.181	357.52
208.649	287.3
209.117	338.79
209.585	282.62
210.053	245.17
210.521	357.52
210.989	289.64
211.457	310.71
211.925	315.39
212.393	268.58
212.861	259.21
213.328	280.28
213.796	306.03
214.264	280.28
214.731	242.83
215.199	266.24
215.666	205.38
216.133	299
216.601	317.73
217.068	308.37
217.535	315.39
218.003	252.19
218.47	270.92
218.937	275.6
219.404	224.11
219.871	214.74
220.338	247.51
220.805	299
221.271	273.26
221.738	317.73
222.205	247.51
222.671	193.68
223.138	200.7
223.605	249.85
224.071	261.55
224.538	268.58
225.004	224.11
225.47	226.45
225.937	317.73
226.403	214.74
226.869	284.96
227.335	261.55
227.801	296.66
228.267	299
228.733	224.11
229.199	263.9
229.665	270.92
230.131	299
230.597	327.09
231.062	242.83
231.528	235.81
231.994	303.68
232.459	219.43
232.925	228.79
233.39	341.13
233.856	263.9
234.321	268.58
234.786	320.07
235.252	240.49
235.717	310.71
236.182	221.77
236.647	252.19
237.112	277.94
237.577	345.81
238.042	259.21
238.507	313.05
238.972	299
239.436	303.68
239.901	299
240.366	242.83
240.83	291.98
241.295	205.38
241.76	273.26
242.224	247.51
242.688	284.96
243.153	287.3
243.617	270.92
244.081	287.3
244.545	282.62
245.01	296.66
245.474	284.96
245.938	284.96
246.402	256.87
246.866	240.49
247.33	275.6
247.793	259.21
248.257	268.58
248.721	235.81
249.185	242.83
249.648	198.36
250.112	275.6
250.575	270.92
251.039	334.11
251.502	308.37
251.965	310.71
252.429	306.03
252.892	294.32
253.355	294.32
253.818	238.15
254.281	263.9
254.744	266.24
255.207	315.39
255.67	226.45
256.133	268.58
256.596	291.98
257.059	291.98
257.522	261.55
257.984	291.98
258.447	336.45
258.909	306.03
259.372	324.75
259.834	322.41
260.297	268.58
260.759	280.28
261.221	275.6
261.684	350.5
262.146	320.07
262.608	308.37
263.07	275.6
263.532	268.58
263.994	273.26
264.456	324.75
264.918	308.37
265.38	338.79
265.842	289.64
266.303	254.53
266.765	266.24
267.227	327.09
267.688	352.84
268.15	345.81
268.611	291.98
269.072	324.75
269.534	322.41
269.995	256.87
270.456	327.09
270.918	240.49
271.379	327.09
271.84	320.07
272.301	320.07
272.762	238.15
273.223	252.19
273.684	313.05
274.144	310.71
274.605	329.43
275.066	259.21
275.527	224.11
275.987	296.66
276.448	291.98
276.908	296.66
277.369	280.28
277.829	294.32
278.289	275.6
278.75	282.62
279.21	299
279.67	313.05
280.13	268.58
280.59	306.03
281.05	310.71
281.51	322.41
281.97	254.53
282.43	322.41
282.89	275.6
283.35	320.07
283.809	259.21
284.269	315.39
284.729	273.26
285.188	245.17
285.648	348.15
286.107	247.51
286.567	256.87
287.026	315.39
287.485	296.66
287.944	268.58
288.404	245.17
288.863	320.07
289.322	322.41
289.781	280.28
290.24	303.68
290.699	324.75
291.158	362.2
291.616	338.79
292.075	294.32
292.534	259.21
292.992	308.37
293.451	336.45
293.91	282.62
294.368	273.26
294.827	289.64
295.285	313.05
295.743	294.32
296.202	306.03
296.66	324.75
297.118	294.32
297.576	301.34
298.034	273.26
298.492	284.96
298.95	256.87
299.408	301.34
299.866	301.34
300.324	306.03
300.781	301.34
301.239	343.47
301.697	315.39
302.154	263.9
302.612	289.64
303.069	338.79
303.527	294.32
303.984	350.5
304.441	282.62
304.899	299
305.356	240.49
305.813	268.58
306.27	306.03
306.727	338.79
307.184	317.73
307.641	350.5
308.098	294.32
308.555	270.92
309.012	277.94
309.468	252.19
309.925	315.39
310.382	254.53
310.838	252.19
311.295	284.96
311.751	270.92
312.208	270.92
312.664	324.75
313.12	359.86
313.577	343.47
314.033	369.22
314.489	373.9
314.945	341.13
315.401	310.71
315.857	313.05
316.313	296.66
316.769	303.68
317.225	306.03
317.681	254.53
318.136	334.11
318.592	317.73
319.048	291.98
319.503	275.6
319.959	343.47
320.414	313.05
320.869	336.45
321.325	254.53
321.78	320.07
322.235	299
322.691	320.07
323.146	294.32
323.601	296.66
324.056	245.17
324.511	313.05
324.966	282.62
325.421	268.58
325.875	284.96
326.33	310.71
326.785	287.3
327.24	301.34
327.694	219.43
328.149	357.52
328.603	306.03
329.058	345.81
329.512	301.34
329.966	334.11
330.421	296.66
330.875	322.41
331.329	294.32
331.783	277.94
332.237	355.18
332.691	289.64
333.145	287.3
333.599	296.66
334.053	355.18
334.507	336.45
334.96	266.24
335.414	294.32
335.868	327.09
336.321	317.73
336.775	289.64
337.228	324.75
337.682	306.03
338.135	359.86
338.588	294.32
339.042	275.6
339.495	280.28
339.948	289.64
340.401	324.75
340.854	343.47
341.307	263.9
341.76	336.45
342.213	341.13
342.666	322.41
343.119	345.81
343.571	315.39
344.024	336.45
344.477	306.03
344.929	282.62
345.382	313.05
345.834	289.64
346.287	256.87
346.739	322.41
347.191	343.47
347.644	249.85
348.096	303.68
348.548	301.34
349	263.9
349.452	294.32
349.904	247.51
350.356	338.79
350.808	287.3
351.26	338.79
351.711	240.49
352.163	329.43
352.615	362.2
353.066	308.37
353.518	357.52
353.969	256.87
354.421	324.75
354.872	313.05
355.324	359.86
355.775	296.66
356.226	315.39
356.677	327.09
357.128	352.84
357.579	301.34
358.03	327.09
358.481	359.86
358.932	359.86
359.383	317.73
359.834	296.66
360.285	252.19
360.735	291.98
361.186	287.3
361.637	303.68
362.087	284.96
362.538	331.77
362.988	343.47
363.438	364.54
363.889	366.88
364.339	315.39
364.789	315.39
365.239	289.64
365.689	355.18
366.139	282.62
366.589	303.68
367.039	270.92
367.489	341.13
367.939	289.64
368.389	282.62
368.839	306.03
369.288	308.37
369.738	338.79
370.187	303.68
370.637	282.62
371.086	336.45
371.536	350.5
371.985	343.47
372.434	291.98
372.884	310.71
373.333	294.32
373.782	277.94
374.231	299
374.68	315.39
375.129	338.79
375.578	268.58
376.027	284.96
376.475	303.68
376.924	336.45
377.373	343.47
377.822	284.96
378.27	254.53
378.719	301.34
379.167	373.9
379.616	317.73
380.064	357.52
380.512	291.98
380.961	376.24
381.409	308.37
381.857	313.05
382.305	310.71
382.753	324.75
383.201	357.52
383.649	369.22
384.097	320.07
384.545	273.26
384.992	359.86
385.44	352.84
385.888	282.62
386.335	324.75
386.783	287.3
387.231	329.43
387.678	336.45
388.125	310.71
388.573	294.32
389.02	275.6
389.467	338.79
389.914	345.81
390.362	376.24
390.809	301.34
391.256	348.15
391.703	287.3
392.15	327.09
392.596	306.03
393.043	287.3
393.49	287.3
393.937	322.41
394.383	392.62
394.83	280.28
395.276	322.41
395.723	327.09
396.169	376.24
396.616	317.73
397.062	308.37
397.508	277.94
397.954	397.31
398.401	324.75
398.847	322.41
399.293	280.28
399.739	294.32
400.185	306.03
400.631	327.09
401.076	282.62
401.522	369.22
401.968	282.62
402.414	303.68
402.859	420.71
403.305	249.85
403.75	291.98
404.196	296.66
404.641	334.11
405.086	327.09
405.532	336.45
405.977	357.52
406.422	275.6
406.867	364.54
407.312	303.68
407.757	331.77
408.202	343.47
408.647	320.07
409.092	322.41
409.537	282.62
409.982	291.98
410.426	317.73
410.871	352.84
411.316	273.26
411.76	282.62
412.205	287.3
412.649	341.13
413.093	313.05
413.538	287.3
413.982	324.75
414.426	373.9
414.87	301.34
415.314	306.03
415.758	313.05
416.202	284.96
416.646	355.18
417.09	343.47
417.534	289.64
417.978	334.11
418.421	193.68
418.865	308.37
419.309	266.24
419.752	345.81
420.196	331.77
420.639	359.86
421.083	317.73
421.526	320.07
421.969	242.83
422.412	277.94
422.856	306.03
423.299	280.28
423.742	310.71
424.185	378.58
424.628	387.94
425.071	364.54
425.513	303.68
425.956	352.84
426.399	277.94
426.842	282.62
427.284	322.41
427.727	334.11
428.169	317.73
428.612	308.37
429.054	348.15
429.497	362.2
429.939	350.5
430.381	289.64
430.823	299
431.265	343.47
431.707	303.68
432.149	324.75
432.591	331.77
433.033	308.37
433.475	369.22
433.917	282.62
434.359	313.05
434.8	404.33
435.242	373.9
435.684	282.62
436.125	306.03
436.567	287.3
437.008	329.43
437.449	299
437.891	376.24
438.332	303.68
438.773	359.86
439.214	371.56
439.656	313.05
440.097	320.07
440.538	334.11
440.978	273.26
441.419	406.67
441.86	268.58
442.301	348.15
442.742	322.41
443.182	291.98
443.623	324.75
444.063	331.77
444.504	380.92
444.944	366.88
445.385	324.75
445.825	303.68
446.265	334.11
446.706	270.92
447.146	287.3
447.586	359.86
448.026	306.03
448.466	359.86
448.906	313.05
449.346	327.09
449.786	371.56
450.225	327.09
450.665	324.75
451.105	371.56
451.544	392.62
451.984	392.62
452.424	317.73
452.863	387.94
453.302	294.32
453.742	345.81
454.181	331.77
454.62	303.68
455.059	273.26
455.499	329.43
455.938	238.15
456.377	287.3
456.816	301.34
457.254	329.43
457.693	343.47
458.132	338.79
458.571	345.81
459.01	306.03
459.448	394.97
459.887	416.03
460.325	324.75
460.764	327.09
461.202	373.9
461.641	296.66
462.079	315.39
462.517	303.68
462.955	331.77
463.393	327.09
463.832	299
464.27	327.09
464.708	348.15
465.145	334.11
465.583	280.28
466.021	322.41
466.459	299
466.897	315.39
467.334	355.18
467.772	336.45
468.209	366.88
468.647	336.45
469.084	336.45
469.522	313.05
469.959	280.28
470.396	338.79
470.833	313.05
471.271	327.09
471.708	306.03
472.145	322.41
472.582	282.62
473.019	287.3
473.456	294.32
473.892	284.96
474.329	310.71
474.766	334.11
475.202	308.37
475.639	296.66
476.076	277.94
476.512	324.75
476.949	369.22
477.385	289.64
477.821	350.5
478.258	336.45
478.694	355.18
479.13	231.13
479.566	308.37
480.002	366.88
480.438	345.81
480.874	373.9
481.31	313.05
481.746	308.37
482.181	320.07
482.617	355.18
483.053	289.64
483.488	362.2
483.924	369.22
484.36	329.43
484.795	331.77
485.23	350.5
485.666	261.55
486.101	371.56
486.536	329.43
486.971	371.56
487.407	263.9
487.842	313.05
488.277	345.81
488.712	282.62
489.146	345.81
489.581	329.43
490.016	334.11
490.451	336.45
490.885	277.94
491.32	327.09
491.755	310.71
492.189	284.96
492.624	308.37
493.058	303.68
493.492	341.13
493.927	366.88
494.361	291.98
494.795	299
495.229	357.52
495.663	338.79
496.097	249.85
496.531	306.03
496.965	294.32
497.399	315.39
497.833	277.94
498.266	364.54
498.7	378.58
499.134	320.07
499.567	313.05
500.001	299
500.434	313.05
500.868	296.66
501.301	320.07
501.734	291.98
502.168	299
502.601	399.65
503.034	252.19
503.467	338.79
503.9	306.03
504.333	322.41
504.766	299
505.199	345.81
505.632	315.39
506.064	256.87
506.497	352.84
506.93	355.18
507.362	280.28
507.795	303.68
508.227	291.98
508.66	331.77
509.092	322.41
509.524	359.86
509.956	334.11
510.389	357.52
510.821	291.98
511.253	334.11
511.685	352.84
512.117	313.05
512.549	329.43
512.981	357.52
513.412	308.37
513.844	284.96
514.276	329.43
514.707	343.47
515.139	320.07
515.571	322.41
516.002	315.39
516.433	221.77
516.865	313.05
517.296	366.88
517.727	301.34
518.159	275.6
518.59	308.37
519.021	287.3
519.452	291.98
519.883	221.77
520.314	343.47
520.744	280.28
521.175	313.05
521.606	352.84
522.037	228.79
522.467	350.5
522.898	331.77
523.328	324.75
523.759	355.18
524.189	380.92
524.62	343.47
525.05	277.94
525.48	327.09
525.91	247.51
526.341	308.37
526.771	322.41
527.201	359.86
527.631	364.54
528.061	357.52
528.49	266.24
528.92	268.58
529.35	324.75
529.78	308.37
530.209	348.15
530.639	320.07
531.068	327.09
531.498	416.03
531.927	299
532.357	338.79
532.786	366.88
533.215	256.87
533.644	273.26
534.074	336.45
534.503	306.03
534.932	287.3
535.361	301.34
535.79	287.3
536.218	294.32
536.647	392.62
537.076	373.9
537.505	334.11
537.933	270.92
538.362	362.2
538.79	284.96
539.219	313.05
539.647	322.41
540.076	303.68
540.504	355.18
540.932	334.11
541.36	329.43
541.788	320.07
542.217	277.94
542.645	266.24
543.073	336.45
543.5	366.88
543.928	291.98
544.356	322.41
544.784	338.79
545.211	280.28
545.639	301.34
546.067	329.43
546.494	371.56
546.922	329.43
547.349	345.81
547.776	352.84
548.204	348.15
548.631	350.5
549.058	366.88
549.485	355.18
549.912	313.05
550.339	301.34
550.766	334.11
551.193	394.97
551.62	355.18
552.047	324.75
552.474	376.24
552.9	294.32
553.327	343.47
553.754	350.5
554.18	327.09
554.607	310.71
555.033	334.11
555.459	299
555.886	380.92
556.312	392.62
556.738	348.15
557.164	289.64
557.59	336.45
558.016	256.87
558.442	350.5
558.868	273.26
559.294	327.09
559.72	280.28
560.145	259.21
560.571	371.56
560.997	320.07
561.422	299
561.848	308.37
562.273	303.68
562.699	317.73
563.124	306.03
563.549	303.68
563.974	303.68
564.4	357.52
564.825	373.9
565.25	303.68
565.675	390.28
566.1	301.34
566.525	334.11
566.95	336.45
567.374	324.75
567.799	284.96
568.224	329.43
568.648	322.41
569.073	322.41
569.497	275.6
569.922	259.21
570.346	282.62
570.771	371.56
571.195	277.94
571.619	324.75
572.043	308.37
572.467	277.94
572.891	289.64
573.315	266.24
573.739	369.22
574.163	294.32
574.587	355.18
575.011	350.5
575.435	320.07
575.858	338.79
576.282	277.94
576.705	378.58
577.129	329.43
577.552	310.71
577.976	282.62
578.399	336.45
578.822	362.2
579.245	320.07
579.669	324.75
580.092	329.43
580.515	308.37
580.938	266.24
581.361	306.03
581.784	308.37
582.206	324.75
582.629	313.05
583.052	366.88
583.474	322.41
583.897	256.87
584.32	289.64
584.742	287.3
585.165	366.88
585.587	320.07
586.009	324.75
586.431	261.55
586.854	331.77
587.276	306.03
587.698	329.43
588.12	294.32
588.542	280.28
588.964	343.47
589.386	341.13
589.807	310.71
590.229	338.79
590.651	350.5
591.073	270.92
591.494	291.98
591.916	366.88
592.337	357.52
592.759	357.52
593.18	270.92
593.601	366.88
594.022	366.88
594.444	259.21
594.865	338.79
595.286	345.81
595.707	329.43
596.128	306.03
596.549	308.37
596.97	338.79
597.39	373.9
597.811	334.11
598.232	284.96
598.652	373.9
599.073	348.15
599.494	322.41
599.914	355.18
600.334	310.71
600.755	289.64
601.175	287.3
601.595	320.07
602.015	280.28
602.436	301.34
602.856	364.54
603.276	327.09
603.696	315.39
604.115	299
604.535	385.6
604.955	322.41
605.375	331.77
605.794	317.73
606.214	317.73
606.634	287.3
607.053	306.03
607.473	324.75
607.892	242.83
608.311	341.13
608.731	345.81
609.15	289.64
609.569	336.45
609.988	341.13
610.407	277.94
610.826	373.9
611.245	364.54
611.664	341.13
612.083	357.52
612.501	308.37
612.92	359.86
613.339	336.45
613.757	320.07
614.176	376.24
614.594	303.68
615.013	338.79
615.431	341.13
615.85	310.71
616.268	315.39
616.686	306.03
617.104	324.75
617.522	254.53
617.94	352.84
618.358	401.99
618.776	331.77
619.194	313.05
619.612	315.39
620.03	299
620.447	313.05
620.865	301.34
621.282	338.79
621.7	289.64
622.117	308.37
622.535	385.6
622.952	301.34
623.369	296.66
623.787	322.41
624.204	317.73
624.621	343.47
625.038	334.11
625.455	359.86
625.872	348.15
626.289	322.41
626.706	369.22
627.123	299
627.539	259.21
627.956	352.84
628.373	301.34
628.789	268.58
629.206	378.58
629.622	289.64
630.038	294.32
630.455	273.26
630.871	369.22
631.287	282.62
631.703	336.45
632.12	320.07
632.536	343.47
632.952	306.03
633.368	329.43
633.783	364.54
634.199	338.79
634.615	303.68
635.031	359.86
635.446	366.88
635.862	299
636.277	348.15
636.693	310.71
637.108	263.9
637.524	348.15
637.939	327.09
638.354	413.69
638.77	291.98
639.185	385.6
639.6	362.2
640.015	313.05
640.43	296.66
640.845	376.24
641.259	315.39
641.674	331.77
642.089	296.66
642.504	289.64
642.918	231.13
643.333	294.32
643.747	334.11
644.162	350.5
644.576	270.92
644.991	284.96
645.405	362.2
645.819	308.37
646.233	357.52
646.647	373.9
647.061	310.71
647.475	280.28
647.889	355.18
648.303	310.71
648.717	284.96
649.131	352.84
649.545	331.77
649.958	275.6
650.372	291.98
650.785	273.26
651.199	322.41
651.612	296.66
652.026	273.26
652.439	338.79
652.852	315.39
653.266	310.71
653.679	303.68
654.092	338.79
654.505	263.9
654.918	299
655.331	287.3
655.744	352.84
656.156	282.62
656.569	366.88
656.982	336.45
657.394	336.45
657.807	294.32
658.22	306.03
658.632	324.75
659.044	317.73
659.457	341.13
659.869	296.66
660.281	411.35
660.693	247.51
661.106	336.45
661.518	306.03
661.93	308.37
662.342	336.45
662.754	343.47
663.165	313.05
663.577	261.55
663.989	313.05
664.401	313.05
664.812	387.94
665.224	348.15
665.635	294.32
666.047	268.58
666.458	338.79
666.869	315.39
667.281	306.03
667.692	315.39
668.103	303.68
668.514	329.43
668.925	308.37
669.336	327.09
669.747	308.37
670.158	306.03
670.569	362.2
670.979	313.05
671.39	336.45
671.801	355.18
672.211	359.86
672.622	289.64
673.032	329.43
673.443	327.09
673.853	303.68
674.263	315.39
674.674	299
675.084	301.34
675.494	299
675.904	366.88
676.314	345.81
676.724	294.32
677.134	376.24
677.544	397.31
677.953	306.03
678.363	303.68
678.773	366.88
679.182	324.75
679.592	343.47
680.001	266.24
680.411	362.2
680.82	315.39
681.23	299
681.639	345.81
682.048	301.34
682.457	350.5
682.866	266.24
683.275	322.41
683.684	345.81
684.093	343.47
684.502	296.66
684.911	348.15
685.32	301.34
685.728	294.32
686.137	345.81
686.546	331.77
686.954	329.43
687.363	390.28
687.771	306.03
688.179	280.28
688.588	310.71
688.996	296.66
689.404	308.37
689.812	327.09
690.22	284.96
690.628	334.11
691.036	359.86
691.444	247.51
691.852	322.41
692.26	287.3
692.667	313.05
693.075	254.53
693.483	348.15
693.89	310.71
694.298	294.32
694.705	320.07
695.112	310.71
695.52	287.3
695.927	334.11
696.334	306.03
696.741	235.81
697.148	291.98
697.555	313.05
697.962	317.73
698.369	299
698.776	376.24
699.183	348.15
699.59	371.56
699.996	341.13
700.403	355.18
700.81	291.98
701.216	301.34
701.623	327.09
702.029	315.39
702.435	350.5
702.842	362.2
703.248	324.75
703.654	289.64
704.06	336.45
704.466	291.98
704.872	294.32
705.278	387.94
705.684	341.13
706.09	378.58
706.496	348.15
706.901	338.79
707.307	320.07
707.712	324.75
708.118	320.07
708.523	249.85
708.929	296.66
709.334	273.26
709.74	313.05
710.145	306.03
710.55	317.73
710.955	331.77
711.36	334.11
711.765	268.58
712.17	270.92
712.575	350.5
712.98	914.56
713.385	350.5
713.789	341.13
714.194	256.87
714.599	352.84
715.003	308.37
715.408	380.92
715.812	296.66
716.217	334.11
716.621	369.22
717.025	308.37
717.429	303.68
717.833	317.73
718.238	299
718.642	263.9
719.046	233.47
719.449	282.62
719.853	261.55
720.257	345.81
720.661	287.3
721.065	322.41
721.468	338.79
721.872	327.09
722.275	359.86
722.679	289.64
723.082	320.07
723.485	310.71
723.889	341.13
724.292	263.9
724.695	345.81
725.098	371.56
725.501	291.98
725.904	352.84
726.307	310.71
726.71	322.41
727.113	308.37
727.516	418.37
727.918	280.28
728.321	320.07
728.724	263.9
729.126	317.73
729.529	294.32
729.931	369.22
730.333	310.71
730.736	343.47
731.138	373.9
731.54	217.08
731.942	320.07
732.344	306.03
732.746	322.41
733.148	289.64
733.55	338.79
733.952	301.34
734.354	364.54
734.756	352.84
735.157	331.77
735.559	334.11
735.96	306.03
736.362	313.05
736.763	387.94
737.165	348.15
737.566	387.94
737.967	289.64
738.368	277.94
738.77	306.03
739.171	291.98
739.572	320.07
739.973	284.96
740.374	214.74
740.774	378.58
741.175	343.47
741.576	334.11
741.977	310.71
742.377	275.6
742.778	306.03
743.178	327.09
743.579	256.87
743.979	306.03
744.379	334.11
744.78	336.45
745.18	270.92
745.58	329.43
745.98	256.87
746.38	317.73
746.78	322.41
747.18	294.32
747.58	329.43
747.98	310.71
748.38	341.13
748.779	282.62
749.179	291.98
749.578	306.03
749.978	329.43
750.377	315.39
750.777	334.11
751.176	329.43
751.575	270.92
751.975	376.24
752.374	364.54
752.773	280.28
753.172	306.03
753.571	350.5
753.97	306.03
754.369	322.41
754.768	313.05
755.166	373.9
755.565	287.3
755.964	317.73
756.362	357.52
756.761	315.39
757.159	336.45
757.558	345.81
757.956	336.45
758.354	338.79
758.753	261.55
759.151	350.5
759.549	355.18
759.947	270.92
760.345	277.94
760.743	313.05
761.141	310.71
761.539	280.28
761.936	303.68
762.334	313.05
762.732	296.66
763.129	301.34
763.527	364.54
763.924	352.84
764.322	329.43
764.719	294.32
765.117	263.9
765.514	280.28
765.911	308.37
766.308	282.62
766.705	277.94
767.102	348.15
767.499	242.83
767.896	294.32
768.293	291.98
768.69	280.28
769.086	357.52
769.483	266.24
769.88	348.15
770.276	277.94
770.673	383.26
771.069	399.65
771.466	371.56
771.862	324.75
772.258	275.6
772.654	299
773.05	308.37
773.447	284.96
773.843	303.68
774.239	273.26
774.634	313.05
775.03	317.73
775.426	296.66
775.822	320.07
776.218	273.26
776.613	357.52
777.009	299
777.404	327.09
777.8	315.39
778.195	315.39
778.59	310.71
778.986	322.41
779.381	322.41
779.776	313.05
780.171	317.73
780.566	296.66
780.961	301.34
781.356	315.39
781.751	362.2
782.146	373.9
782.54	238.15
782.935	320.07
783.33	280.28
783.724	322.41
784.119	313.05
784.513	324.75
784.908	310.71
785.302	294.32
785.696	291.98
786.09	320.07
786.485	331.77
786.879	362.2
787.273	376.24
787.667	338.79
788.061	301.34
788.454	315.39
788.848	313.05
789.242	348.15
789.636	287.3
790.029	277.94
790.423	317.73
790.816	329.43
791.21	320.07
791.603	313.05
791.997	252.19
792.39	336.45
792.783	296.66
793.176	296.66
793.569	315.39
793.962	317.73
794.355	303.68
794.748	345.81
795.141	289.64
795.534	284.96
795.927	280.28
796.319	334.11
796.712	378.58
797.105	275.6
797.497	306.03
797.89	327.09
798.282	327.09
798.674	273.26
799.067	338.79
799.459	294.32
799.851	359.86
800.243	359.86
800.635	301.34
801.027	301.34
801.419	348.15
801.811	306.03
802.203	306.03
802.594	268.58
802.986	301.34
803.378	315.39
803.769	317.73
804.161	308.37
804.552	317.73
804.944	362.2
805.335	336.45
805.726	322.41
806.118	373.9
806.509	294.32
806.9	294.32
807.291	331.77
807.682	301.34
808.073	284.96
808.464	277.94
808.855	306.03
809.245	212.4
809.636	268.58
810.027	296.66
810.417	266.24
810.808	284.96
811.198	331.77
811.589	331.77
811.979	345.81
812.369	352.84
812.759	348.15
813.15	380.92
813.54	334.11
813.93	345.81
814.32	322.41
814.71	315.39
815.1	294.32
815.489	299
815.879	284.96
816.269	399.65
816.658	317.73
817.048	357.52
817.438	397.31
817.827	329.43
818.216	299
818.606	308.37
818.995	291.98
819.384	338.79
819.773	329.43
820.163	317.73
820.552	341.13
820.941	320.07
821.33	287.3
821.718	343.47
822.107	383.26
822.496	376.24
822.885	291.98
823.273	327.09
823.662	313.05
824.05	369.22
824.439	338.79
824.827	263.9
825.216	252.19
825.604	362.2
825.992	291.98
826.38	310.71
826.768	348.15
827.156	359.86
827.544	345.81
827.932	320.07
828.32	320.07
828.708	291.98
829.096	334.11
829.483	299
829.871	296.66
830.259	301.34
830.646	338.79
831.034	369.22
831.421	284.96
831.808	299
832.196	268.58
832.583	287.3
832.97	273.26
833.357	324.75
833.744	284.96
834.131	284.96
834.518	280.28
834.905	235.81
835.292	313.05
835.678	343.47
836.065	301.34
836.452	355.18
836.838	296.66
837.225	282.62
837.611	313.05
837.998	366.88
838.384	294.32
838.77	294.32
839.157	329.43
839.543	357.52
839.929	268.58
840.315	282.62
840.701	320.07
841.087	329.43
841.473	301.34
841.858	364.54
842.244	301.34
842.63	371.56
843.015	324.75
843.401	633.7
843.787	261.55
844.172	268.58
844.557	308.37
844.943	284.96
845.328	308.37
845.713	214.74
846.098	284.96
846.483	313.05
846.868	324.75
847.253	336.45
847.638	270.92
848.023	399.65
848.408	394.97
848.793	355.18
849.177	317.73
849.562	284.96
849.947	261.55
850.331	338.79
850.715	336.45
851.1	331.77
851.484	334.11
851.868	369.22
852.253	287.3
852.637	299
853.021	324.75
853.405	303.68
853.789	352.84
854.173	355.18
854.557	401.99
854.94	313.05
855.324	399.65
855.708	303.68
856.091	359.86
856.475	336.45
856.858	282.62
857.242	252.19
857.625	315.39
858.009	371.56
858.392	280.28
858.775	254.53
859.158	322.41
859.541	341.13
859.924	350.5
860.307	322.41
860.69	263.9
861.073	296.66
861.456	263.9
861.838	282.62
862.221	315.39
862.604	315.39
862.986	266.24
863.369	301.34
863.751	306.03
864.133	303.68
864.516	242.83
864.898	343.47
865.28	371.56
865.662	294.32
866.044	306.03
866.426	294.32
866.808	289.64
867.19	284.96
867.572	291.98
867.954	247.51
868.336	240.49
868.717	345.81
869.099	277.94
869.48	320.07
869.862	249.85
870.243	308.37
870.625	308.37
871.006	303.68
871.387	268.58
871.768	331.77
872.149	327.09
872.53	299
872.911	338.79
873.292	289.64
873.673	291.98
874.054	294.32
874.435	289.64
874.815	310.71
875.196	294.32
875.577	273.26
875.957	296.66
876.338	350.5
876.718	329.43
877.098	310.71
877.479	301.34
877.859	294.32
878.239	306.03
878.619	268.58
878.999	329.43
879.379	263.9
879.759	287.3
880.139	303.68
880.519	313.05
880.898	277.94
881.278	334.11
881.658	308.37
882.037	310.71
882.417	287.3
882.796	308.37
883.176	383.26
883.555	308.37
883.934	273.26
884.313	359.86
884.693	336.45
885.072	327.09
885.451	313.05
885.83	390.28
886.209	362.2
886.587	397.31
886.966	341.13
887.345	315.39
887.724	294.32
888.102	299
888.481	352.84
888.859	296.66
889.238	317.73
889.616	348.15
889.994	294.32
890.373	294.32
890.751	355.18
891.129	373.9
891.507	329.43
891.885	362.2
892.263	329.43
892.641	284.96
893.019	252.19
893.396	329.43
893.774	299
894.152	306.03
894.529	371.56
894.907	317.73
895.284	310.71
895.662	336.45
896.039	308.37
896.416	341.13
896.794	317.73
897.171	357.52
897.548	299
897.925	313.05
898.302	263.9
898.679	322.41
899.056	320.07
899.433	294.32
899.809	352.84
900.186	306.03
900.563	357.52
900.939	343.47
901.316	334.11
901.692	327.09
902.069	313.05
902.445	334.11
902.821	256.87
903.197	317.73
903.574	294.32
903.95	315.39
904.326	327.09
904.702	324.75
905.078	224.11
905.454	338.79
905.829	294.32
906.205	322.41
906.581	299
906.956	275.6
907.332	315.39
907.707	306.03
908.083	338.79
908.458	369.22
908.833	249.85
909.209	270.92
909.584	327.09
909.959	301.34
910.334	320.07
910.709	242.83
911.084	350.5
911.459	313.05
911.834	348.15
912.209	273.26
912.583	336.45
912.958	348.15
913.333	343.47
913.707	310.71
914.082	282.62
914.456	294.32
914.83	310.71
915.205	299
915.579	226.45
915.953	268.58
916.327	268.58
916.701	301.34
917.075	336.45
917.449	320.07
917.823	359.86
918.197	294.32
918.571	310.71
918.944	289.64
919.318	334.11
919.692	380.92
920.065	301.34
920.438	296.66
920.812	378.58
921.185	270.92
921.558	228.79
921.932	329.43
922.305	308.37
922.678	320.07
923.051	280.28
923.424	357.52
923.797	306.03
924.17	331.77
924.542	306.03
924.915	308.37
925.288	277.94
925.661	303.68
926.033	352.84
926.406	284.96
926.778	280.28
927.15	284.96
927.523	348.15
927.895	313.05
928.267	263.9
928.639	336.45
929.011	329.43
929.383	263.9
929.755	385.6
930.127	371.56
930.499	289.64
930.871	287.3
931.242	282.62
931.614	291.98
931.986	322.41
932.357	313.05
932.729	294.32
933.1	306.03
933.471	329.43
933.843	329.43
934.214	324.75
934.585	329.43
934.956	247.51
935.327	366.88
935.698	352.84
936.069	313.05
936.44	296.66
936.811	338.79
937.182	277.94
937.552	336.45
937.923	254.53
938.293	284.96
938.664	282.62
939.034	313.05
939.405	294.32
939.775	263.9
940.145	263.9
940.516	352.84
940.886	296.66
941.256	235.81
941.626	324.75
941.996	324.75
942.366	336.45
942.735	355.18
943.105	362.2
943.475	275.6
943.845	256.87
944.214	270.92
944.584	275.6
944.953	359.86
945.323	320.07
945.692	268.58
946.061	308.37
946.43	254.53
946.8	357.52
947.169	343.47
947.538	289.64
947.907	345.81
948.276	315.39
948.645	348.15
949.013	313.05
949.382	289.64
949.751	317.73
950.119	345.81
950.488	263.9
950.857	324.75
951.225	261.55
951.593	303.68
951.962	247.51
952.33	306.03
952.698	411.35
953.066	336.45
953.434	310.71
953.802	329.43
954.17	294.32
954.538	308.37
954.906	350.5
955.274	306.03
955.642	338.79
956.009	338.79
956.377	317.73
956.744	235.81
957.112	313.05
957.479	343.47
957.847	338.79
958.214	284.96
958.581	348.15
958.948	296.66
959.315	317.73
959.683	306.03
960.05	348.15
960.416	240.49
960.783	256.87
961.15	313.05
961.517	266.24
961.884	254.53
962.25	359.86
962.617	338.79
962.983	268.58
963.35	291.98
963.716	254.53
964.082	334.11
964.449	306.03
964.815	355.18
965.181	315.39
965.547	380.92
965.913	299
966.279	289.64
966.645	284.96
967.011	322.41
967.377	331.77
967.742	294.32
968.108	322.41
968.474	306.03
968.839	366.88
969.205	343.47
969.57	226.45
969.935	259.21
970.301	336.45
970.666	315.39
971.031	341.13
971.396	277.94
971.761	289.64
972.126	327.09
972.491	275.6
972.856	310.71
973.221	364.54
973.586	373.9
973.95	317.73
974.315	334.11
974.679	357.52
975.044	397.31
975.408	303.68
975.773	317.73
976.137	364.54
976.501	376.24
976.866	306.03
977.23	385.6
977.594	303.68
977.958	331.77
978.322	277.94
978.686	331.77
979.049	301.34
979.413	259.21
979.777	296.66
980.141	331.77
980.504	348.15
980.868	282.62
981.231	345.81
981.595	331.77
981.958	301.34
982.321	277.94
982.684	282.62
983.048	322.41
983.411	385.6
983.774	291.98
984.137	331.77
984.5	306.03
984.862	296.66
985.225	310.71
985.588	324.75
985.951	273.26
986.313	350.5
986.676	308.37
987.038	296.66
987.401	280.28
987.763	301.34
988.125	334.11
988.488	350.5
988.85	303.68
989.212	341.13
989.574	352.84
989.936	299
990.298	324.75
990.66	315.39
991.022	371.56
991.383	256.87
991.745	317.73
992.107	270.92
992.468	359.86
992.83	359.86
993.191	352.84
993.553	261.55
993.914	313.05
994.275	287.3
994.637	371.56
994.998	331.77
995.359	284.96
995.72	320.07
996.081	336.45
996.442	331.77
996.803	287.3
997.163	329.43
997.524	254.53
997.885	303.68
998.245	310.71
998.606	308.37
998.966	315.39
999.327	301.34
999.687	268.58
1000.047	334.11
1000.408	280.28
1000.768	331.77
1001.128	306.03
1001.488	294.32
1001.848	261.55
1002.208	364.54
1002.568	315.39
1002.927	317.73
1003.287	282.62
1003.647	378.58
1004.007	275.6
1004.366	280.28
1004.726	284.96
1005.085	329.43
1005.444	287.3
1005.804	348.15
1006.163	336.45
1006.522	329.43
1006.881	273.26
1007.24	317.73
1007.599	362.2
1007.958	345.81
1008.317	357.52
1008.676	301.34
1009.035	355.18
1009.393	350.5
1009.752	313.05
1010.111	352.84
1010.469	320.07
1010.828	364.54
1011.186	385.6
1011.544	273.26
1011.903	294.32
1012.261	338.79
1012.619	336.45
1012.977	334.11
1013.335	380.92
1013.693	324.75
1014.051	273.26
1014.409	359.86
1014.767	289.64
1015.124	289.64
1015.482	341.13
1015.84	357.52
1016.197	320.07
1016.555	275.6
1016.912	308.37
1017.269	306.03
1017.627	306.03
1017.984	306.03
1018.341	352.84
1018.698	238.15
1019.055	284.96
1019.412	299
1019.769	275.6
1020.126	299
1020.483	282.62
1020.84	338.79
1021.196	284.96
1021.553	343.47
1021.909	369.22
1022.266	282.62
1022.622	249.85
1022.979	310.71
1023.335	336.45
1023.691	348.15
1024.047	282.62
1024.404	270.92
1024.76	329.43
1025.116	341.13
1025.472	338.79
1025.827	287.3
1026.183	308.37
1026.539	301.34
1026.895	329.43
1027.25	249.85
1027.606	364.54
1027.961	275.6
1028.317	291.98
1028.672	306.03
1029.028	378.58
1029.383	322.41
1029.738	343.47
1030.093	240.49
1030.448	299
1030.803	352.84
1031.158	366.88
1031.513	266.24
1031.868	345.81
1032.223	280.28
1032.577	345.81
1032.932	343.47
1033.287	282.62
1033.641	350.5
1033.996	275.6
1034.35	308.37
1034.704	331.77
1035.059	324.75
1035.413	291.98
1035.767	291.98
1036.121	291.98
