Data from Al_FLMS009871__1268__16-47-53-769.txt Node

Date: Fri Mar 08 16:47:53 CST 2024
User: pe5414po
Spectrometer: FLMS00987
Trigger mode: 0
Integration Time (sec): 1.000000E-1
Scans to average: 1
Electric dark correction enabled: true
Nonlinearity correction enabled: false
Boxcar width: 0
XAxis mode: Wavelengths
Number of Pixels in Spectrum: 2048
>>>>>Begin Spectral Data<<<<<
188.938	-8.78
189.409	-8.78
189.879	-8.78
190.349	-39.2
190.819	-102.4
191.29	-189
191.76	-57.93
192.23	-118.78
192.7	-34.52
193.17	-48.57
193.64	2.93
194.109	7.61
194.579	5.27
195.049	-46.23
195.519	-1.76
195.988	38.03
196.458	26.33
196.927	108.25
197.397	82.5
197.866	152.72
198.336	73.14
198.805	208.89
199.274	150.38
199.744	218.25
200.213	206.55
200.682	236.98
201.151	155.06
201.62	162.08
202.089	286.13
202.558	251.02
203.027	309.54
203.495	304.85
203.964	276.77
204.433	365.71
204.902	335.28
205.37	297.83
205.839	248.68
206.307	309.54
206.776	293.15
207.244	335.28
207.712	330.6
208.181	272.09
208.649	325.92
209.117	346.98
209.585	307.2
210.053	272.09
210.521	279.11
210.989	335.28
211.457	339.96
211.925	316.56
212.393	283.79
212.861	307.2
213.328	297.83
213.796	286.13
214.264	288.47
214.731	286.13
215.199	260.38
215.666	325.92
216.133	225.28
216.601	274.43
217.068	234.64
217.535	241.66
218.003	251.02
218.47	288.47
218.937	286.13
219.404	222.94
219.871	246.34
220.338	265.07
220.805	246.34
221.271	304.85
221.738	307.2
222.205	276.77
222.671	356.35
223.138	309.54
223.605	342.3
224.071	283.79
224.538	267.41
225.004	288.47
225.47	213.57
225.937	248.68
226.403	225.28
226.869	253.36
227.335	255.7
227.801	339.96
228.267	337.62
228.733	274.43
229.199	279.11
229.665	267.41
230.131	253.36
230.597	227.62
231.062	337.62
231.528	339.96
231.994	328.26
232.459	227.62
232.925	337.62
233.39	246.34
233.856	267.41
234.321	269.75
234.786	281.45
235.252	307.2
235.717	309.54
236.182	211.23
236.647	311.88
237.112	293.15
237.577	386.77
238.042	316.56
238.507	220.6
238.972	314.22
239.436	244
239.901	253.36
240.366	269.75
240.83	272.09
241.295	262.73
241.76	251.02
242.224	241.66
242.688	288.47
243.153	325.92
243.617	307.2
244.081	274.43
244.545	311.88
245.01	279.11
245.474	213.57
245.938	339.96
246.402	281.45
246.866	272.09
247.33	260.38
247.793	274.43
248.257	253.36
248.721	283.79
249.185	274.43
249.648	255.7
250.112	281.45
250.575	325.92
251.039	323.58
251.502	248.68
251.965	286.13
252.429	274.43
252.892	274.43
253.355	361.03
253.818	286.13
254.281	300.17
254.744	253.36
255.207	314.22
255.67	290.81
256.133	295.49
256.596	227.62
257.059	302.51
257.522	290.81
257.984	316.56
258.447	323.58
258.909	318.9
259.372	323.58
259.834	316.56
260.297	316.56
260.759	309.54
261.221	246.34
261.684	290.81
262.146	288.47
262.608	349.32
263.07	321.24
263.532	323.58
263.994	330.6
264.456	354.01
264.918	300.17
265.38	239.32
265.842	286.13
266.303	318.9
266.765	321.24
267.227	335.28
267.688	328.26
268.15	244
268.611	265.07
269.072	332.94
269.534	335.28
269.995	288.47
270.456	330.6
270.918	328.26
271.379	356.35
271.84	302.51
272.301	349.32
272.762	332.94
273.223	307.2
273.684	354.01
274.144	286.13
274.605	337.62
275.066	300.17
275.527	302.51
275.987	260.38
276.448	276.77
276.908	274.43
277.369	307.2
277.829	314.22
278.289	241.66
278.75	300.17
279.21	262.73
279.67	293.15
280.13	309.54
280.59	293.15
281.05	339.96
281.51	349.32
281.97	332.94
282.43	279.11
282.89	356.35
283.35	309.54
283.809	328.26
284.269	314.22
284.729	246.34
285.188	293.15
285.648	311.88
286.107	274.43
286.567	300.17
287.026	276.77
287.485	323.58
287.944	304.85
288.404	318.9
288.863	321.24
289.322	328.26
289.781	337.62
290.24	332.94
290.699	316.56
291.158	295.49
291.616	297.83
292.075	321.24
292.534	346.98
292.992	307.2
293.451	318.9
293.91	311.88
294.368	328.26
294.827	288.47
295.285	307.2
295.743	311.88
296.202	295.49
296.66	363.37
297.118	283.79
297.576	339.96
298.034	337.62
298.492	262.73
298.95	293.15
299.408	272.09
299.866	304.85
300.324	321.24
300.781	368.05
301.239	337.62
301.697	354.01
302.154	300.17
302.612	403.16
303.069	295.49
303.527	241.66
303.984	279.11
304.441	283.79
304.899	293.15
305.356	281.45
305.813	288.47
306.27	335.28
306.727	276.77
307.184	267.41
307.641	302.51
308.098	321.24
308.555	260.38
309.012	304.85
309.468	323.58
309.925	328.26
310.382	323.58
310.838	325.92
311.295	365.71
311.751	337.62
312.208	325.92
312.664	351.67
313.12	307.2
313.577	377.41
314.033	330.6
314.489	368.05
314.945	393.8
315.401	330.6
315.857	290.81
316.313	328.26
316.769	309.54
317.225	288.47
317.681	365.71
318.136	330.6
318.592	297.83
319.048	302.51
319.503	265.07
319.959	274.43
320.414	304.85
320.869	335.28
321.325	314.22
321.78	337.62
322.235	361.03
322.691	290.81
323.146	349.32
323.601	365.71
324.056	311.88
324.511	290.81
324.966	297.83
325.421	304.85
325.875	269.75
326.33	304.85
326.785	288.47
327.24	293.15
327.694	351.67
328.149	288.47
328.603	342.3
329.058	354.01
329.512	286.13
329.966	309.54
330.421	349.32
330.875	318.9
331.329	302.51
331.783	272.09
332.237	260.38
332.691	272.09
333.145	363.37
333.599	318.9
334.053	260.38
334.507	279.11
334.96	368.05
335.414	339.96
335.868	358.69
336.321	344.64
336.775	251.02
337.228	384.43
337.682	351.67
338.135	304.85
338.588	274.43
339.042	344.64
339.495	325.92
339.948	290.81
340.401	337.62
340.854	318.9
341.307	297.83
341.76	325.92
342.213	293.15
342.666	325.92
343.119	330.6
343.571	302.51
344.024	339.96
344.477	276.77
344.929	288.47
345.382	272.09
345.834	337.62
346.287	337.62
346.739	300.17
347.191	335.28
347.644	391.45
348.096	372.73
348.548	363.37
349	279.11
349.452	354.01
349.904	344.64
350.356	358.69
350.808	246.34
351.26	386.77
351.711	349.32
352.163	363.37
352.615	323.58
353.066	309.54
353.518	286.13
353.969	300.17
354.421	311.88
354.872	309.54
355.324	382.09
355.775	346.98
356.226	321.24
356.677	361.03
357.128	396.14
357.579	302.51
358.03	377.41
358.481	323.58
358.932	370.39
359.383	304.85
359.834	351.67
360.285	309.54
360.735	290.81
361.186	328.26
361.637	323.58
362.087	346.98
362.538	302.51
362.988	325.92
363.438	260.38
363.889	318.9
364.339	316.56
364.789	365.71
365.239	396.14
365.689	372.73
366.139	297.83
366.589	363.37
367.039	363.37
367.489	351.67
367.939	377.41
368.389	274.43
368.839	330.6
369.288	283.79
369.738	332.94
370.187	328.26
370.637	346.98
371.086	318.9
371.536	356.35
371.985	295.49
372.434	325.92
372.884	297.83
373.333	302.51
373.782	382.09
374.231	314.22
374.68	274.43
375.129	382.09
375.578	398.48
376.027	339.96
376.475	309.54
376.924	323.58
377.373	241.66
377.822	328.26
378.27	300.17
378.719	339.96
379.167	323.58
379.616	339.96
380.064	335.28
380.512	307.2
380.961	328.26
381.409	323.58
381.857	272.09
382.305	339.96
382.753	330.6
383.201	321.24
383.649	323.58
384.097	335.28
384.545	323.58
384.992	323.58
385.44	323.58
385.888	258.04
386.335	293.15
386.783	351.67
387.231	346.98
387.678	323.58
388.125	346.98
388.573	375.07
389.02	262.73
389.467	316.56
389.914	272.09
390.362	335.28
390.809	297.83
391.256	316.56
391.703	349.32
392.15	297.83
392.596	311.88
393.043	354.01
393.49	349.32
393.937	272.09
394.383	321.24
394.83	351.67
395.276	297.83
395.723	295.49
396.169	283.79
396.616	295.49
397.062	328.26
397.508	330.6
397.954	309.54
398.401	361.03
398.847	309.54
399.293	321.24
399.739	342.3
400.185	283.79
400.631	323.58
401.076	283.79
401.522	309.54
401.968	361.03
402.414	318.9
402.859	290.81
403.305	328.26
403.75	363.37
404.196	356.35
404.641	330.6
405.086	358.69
405.532	330.6
405.977	349.32
406.422	325.92
406.867	365.71
407.312	351.67
407.757	346.98
408.202	262.73
408.647	335.28
409.092	391.45
409.537	295.49
409.982	288.47
410.426	311.88
410.871	293.15
411.316	307.2
411.76	361.03
412.205	288.47
412.649	323.58
413.093	346.98
413.538	302.51
413.982	267.41
414.426	297.83
414.87	328.26
415.314	325.92
415.758	314.22
416.202	272.09
416.646	335.28
417.09	302.51
417.534	358.69
417.978	314.22
418.421	335.28
418.865	283.79
419.309	309.54
419.752	342.3
420.196	281.45
420.639	283.79
421.083	323.58
421.526	358.69
421.969	365.71
422.412	297.83
422.856	281.45
423.299	328.26
423.742	314.22
424.185	330.6
424.628	297.83
425.071	344.64
425.513	325.92
425.956	407.84
426.399	323.58
426.842	302.51
427.284	269.75
427.727	354.01
428.169	393.8
428.612	323.58
429.054	328.26
429.497	335.28
429.939	363.37
430.381	325.92
430.823	332.94
431.265	363.37
431.707	354.01
432.149	363.37
432.591	307.2
433.033	342.3
433.475	316.56
433.917	316.56
434.359	349.32
434.8	363.37
435.242	300.17
435.684	372.73
436.125	363.37
436.567	281.45
437.008	335.28
437.449	269.75
437.891	354.01
438.332	325.92
438.773	311.88
439.214	293.15
439.656	363.37
440.097	339.96
440.538	307.2
440.978	248.68
441.419	351.67
441.86	372.73
442.301	314.22
442.742	279.11
443.182	342.3
443.623	267.41
444.063	321.24
444.504	389.11
444.944	283.79
445.385	328.26
445.825	332.94
446.265	342.3
446.706	295.49
447.146	286.13
447.586	339.96
448.026	398.48
448.466	337.62
448.906	337.62
449.346	323.58
449.786	435.92
450.225	337.62
450.665	344.64
451.105	283.79
451.544	323.58
451.984	304.85
452.424	354.01
452.863	260.38
453.302	342.3
453.742	337.62
454.181	370.39
454.62	330.6
455.059	307.2
455.499	389.11
455.938	330.6
456.377	300.17
456.816	342.3
457.254	330.6
457.693	304.85
458.132	309.54
458.571	288.47
459.01	389.11
459.448	300.17
459.887	295.49
460.325	316.56
460.764	368.05
461.202	309.54
461.641	354.01
462.079	318.9
462.517	307.2
462.955	417.2
463.393	368.05
463.832	325.92
464.27	339.96
464.708	368.05
465.145	351.67
465.583	286.13
466.021	302.51
466.459	323.58
466.897	276.77
467.334	300.17
467.772	309.54
468.209	337.62
468.647	276.77
469.084	314.22
469.522	288.47
469.959	288.47
470.396	335.28
470.833	290.81
471.271	361.03
471.708	335.28
472.145	311.88
472.582	354.01
473.019	288.47
473.456	351.67
473.892	386.77
474.329	332.94
474.766	335.28
475.202	293.15
475.639	286.13
476.076	323.58
476.512	351.67
476.949	344.64
477.385	365.71
477.821	337.62
478.258	328.26
478.694	328.26
479.13	283.79
479.566	372.73
480.002	279.11
480.438	386.77
480.874	344.64
481.31	314.22
481.746	316.56
482.181	391.45
482.617	323.58
483.053	377.41
483.488	365.71
483.924	372.73
484.36	269.75
484.795	361.03
485.23	323.58
485.666	316.56
486.101	311.88
486.536	325.92
486.971	300.17
487.407	309.54
487.842	330.6
488.277	351.67
488.712	269.75
489.146	311.88
489.581	330.6
490.016	332.94
490.451	258.04
490.885	354.01
491.32	328.26
491.755	295.49
492.189	314.22
492.624	337.62
493.058	386.77
493.492	354.01
493.927	272.09
494.361	309.54
494.795	297.83
495.229	314.22
495.663	293.15
496.097	372.73
496.531	321.24
496.965	335.28
497.399	318.9
497.833	318.9
498.266	339.96
498.7	286.13
499.134	339.96
499.567	316.56
500.001	358.69
500.434	290.81
500.868	318.9
501.301	361.03
501.734	316.56
502.168	286.13
502.601	311.88
503.034	344.64
503.467	361.03
503.9	307.2
504.333	304.85
504.766	318.9
505.199	316.56
505.632	286.13
506.064	321.24
506.497	365.71
506.93	283.79
507.362	335.28
507.795	356.35
508.227	318.9
508.66	325.92
509.092	309.54
509.524	368.05
509.956	325.92
510.389	349.32
510.821	339.96
511.253	321.24
511.685	337.62
512.117	386.77
512.549	379.75
512.981	332.94
513.412	309.54
513.844	279.11
514.276	328.26
514.707	295.49
515.139	286.13
515.571	307.2
516.002	339.96
516.433	349.32
516.865	318.9
517.296	295.49
517.727	316.56
518.159	342.3
518.59	332.94
519.021	354.01
519.452	304.85
519.883	335.28
520.314	295.49
520.744	337.62
521.175	316.56
521.606	332.94
522.037	349.32
522.467	318.9
522.898	372.73
523.328	335.28
523.759	290.81
524.189	309.54
524.62	354.01
525.05	349.32
525.48	274.43
525.91	321.24
526.341	293.15
526.771	349.32
527.201	346.98
527.631	440.61
528.061	389.11
528.49	295.49
528.92	295.49
529.35	335.28
529.78	382.09
530.209	318.9
530.639	304.85
531.068	417.2
531.498	269.75
531.927	321.24
532.357	344.64
532.786	365.71
533.215	332.94
533.644	302.51
534.074	276.77
534.503	307.2
534.932	307.2
535.361	309.54
535.79	323.58
536.218	379.75
536.647	307.2
537.076	410.18
537.505	330.6
537.933	328.26
538.362	365.71
538.79	288.47
539.219	279.11
539.647	375.07
540.076	354.01
540.504	363.37
540.932	293.15
541.36	330.6
541.788	372.73
542.217	368.05
542.645	368.05
543.073	393.8
543.5	272.09
543.928	344.64
544.356	318.9
544.784	375.07
545.211	335.28
545.639	372.73
546.067	255.7
546.494	335.28
546.922	321.24
547.349	311.88
547.776	302.51
548.204	309.54
548.631	302.51
549.058	295.49
549.485	304.85
549.912	276.77
550.339	297.83
550.766	309.54
551.193	295.49
551.62	314.22
552.047	342.3
552.474	283.79
552.9	307.2
553.327	328.26
553.754	361.03
554.18	332.94
554.607	304.85
555.033	293.15
555.459	344.64
555.886	379.75
556.312	337.62
556.738	304.85
557.164	272.09
557.59	279.11
558.016	314.22
558.442	302.51
558.868	356.35
559.294	368.05
559.72	297.83
560.145	318.9
560.571	286.13
560.997	325.92
561.422	365.71
561.848	321.24
562.273	344.64
562.699	281.45
563.124	302.51
563.549	335.28
563.974	393.8
564.4	349.32
564.825	325.92
565.25	361.03
565.675	307.2
566.1	316.56
566.525	337.62
566.95	330.6
567.374	342.3
567.799	288.47
568.224	311.88
568.648	368.05
569.073	290.81
569.497	351.67
569.922	265.07
570.346	323.58
570.771	389.11
571.195	321.24
571.619	332.94
572.043	323.58
572.467	342.3
572.891	323.58
573.315	286.13
573.739	342.3
574.163	323.58
574.587	328.26
575.011	384.43
575.435	286.13
575.858	384.43
576.282	337.62
576.705	269.75
577.129	339.96
577.552	323.58
577.976	265.07
578.399	396.14
578.822	349.32
579.245	332.94
579.669	262.73
580.092	314.22
580.515	361.03
580.938	332.94
581.361	332.94
581.784	349.32
582.206	361.03
582.629	370.39
583.052	295.49
583.474	389.11
583.897	356.35
584.32	244
584.742	323.58
585.165	332.94
585.587	361.03
586.009	325.92
586.431	363.37
586.854	290.81
587.276	318.9
587.698	323.58
588.12	311.88
588.542	330.6
588.964	372.73
589.386	265.07
589.807	314.22
590.229	272.09
590.651	389.11
591.073	321.24
591.494	323.58
591.916	342.3
592.337	349.32
592.759	370.39
593.18	365.71
593.601	309.54
594.022	361.03
594.444	309.54
594.865	309.54
595.286	325.92
595.707	382.09
596.128	309.54
596.549	311.88
596.97	316.56
597.39	307.2
597.811	344.64
598.232	297.83
598.652	323.58
599.073	321.24
599.494	321.24
599.914	339.96
600.334	274.43
600.755	262.73
601.175	276.77
601.595	351.67
602.015	379.75
602.436	318.9
602.856	372.73
603.276	361.03
603.696	389.11
604.115	295.49
604.535	316.56
604.955	377.41
605.375	361.03
605.794	356.35
606.214	304.85
606.634	330.6
607.053	281.45
607.473	286.13
607.892	344.64
608.311	253.36
608.731	300.17
609.15	321.24
609.569	286.13
609.988	297.83
610.407	311.88
610.826	339.96
611.245	318.9
611.664	356.35
612.083	260.38
612.501	323.58
612.92	328.26
613.339	410.18
613.757	372.73
614.176	386.77
614.594	370.39
615.013	302.51
615.431	330.6
615.85	377.41
616.268	370.39
616.686	323.58
617.104	346.98
617.522	323.58
617.94	346.98
618.358	356.35
618.776	272.09
619.194	339.96
619.612	314.22
620.03	321.24
620.447	358.69
620.865	354.01
621.282	328.26
621.7	337.62
622.117	248.68
622.535	276.77
622.952	335.28
623.369	316.56
623.787	354.01
624.204	356.35
624.621	323.58
625.038	349.32
625.455	302.51
625.872	293.15
626.289	372.73
626.706	323.58
627.123	262.73
627.539	361.03
627.956	356.35
628.373	316.56
628.789	290.81
629.206	279.11
629.622	361.03
630.038	335.28
630.455	297.83
630.871	297.83
631.287	354.01
631.703	318.9
632.12	358.69
632.536	307.2
632.952	297.83
633.368	377.41
633.783	325.92
634.199	318.9
634.615	354.01
635.031	311.88
635.446	328.26
635.862	349.32
636.277	325.92
636.693	354.01
637.108	346.98
637.524	321.24
637.939	412.52
638.354	349.32
638.77	316.56
639.185	330.6
639.6	304.85
640.015	354.01
640.43	258.04
640.845	227.62
641.259	300.17
641.674	389.11
642.089	302.51
642.504	258.04
642.918	323.58
643.333	311.88
643.747	346.98
644.162	346.98
644.576	342.3
644.991	253.36
645.405	290.81
645.819	321.24
646.233	363.37
646.647	365.71
647.061	339.96
647.475	297.83
647.889	244
648.303	382.09
648.717	330.6
649.131	323.58
649.545	236.98
649.958	321.24
650.372	302.51
650.785	276.77
651.199	342.3
651.612	262.73
652.026	314.22
652.439	314.22
652.852	290.81
653.266	309.54
653.679	283.79
654.092	389.11
654.505	323.58
654.918	358.69
655.331	283.79
655.744	304.85
656.156	286.13
656.569	323.58
656.982	323.58
657.394	253.36
657.807	318.9
658.22	318.9
658.632	309.54
659.044	286.13
659.457	377.41
659.869	311.88
660.281	321.24
660.693	307.2
661.106	332.94
661.518	314.22
661.93	370.39
662.342	403.16
662.754	339.96
663.165	393.8
663.577	318.9
663.989	332.94
664.401	274.43
664.812	351.67
665.224	330.6
665.635	311.88
666.047	323.58
666.458	365.71
666.869	356.35
667.281	309.54
667.692	323.58
668.103	318.9
668.514	316.56
668.925	316.56
669.336	321.24
669.747	309.54
670.158	358.69
670.569	349.32
670.979	279.11
671.39	346.98
671.801	311.88
672.211	356.35
672.622	332.94
673.032	283.79
673.443	307.2
673.853	384.43
674.263	321.24
674.674	407.84
675.084	389.11
675.494	372.73
675.904	307.2
676.314	328.26
676.724	309.54
677.134	286.13
677.544	330.6
677.953	335.28
678.363	335.28
678.773	330.6
679.182	337.62
679.592	407.84
680.001	321.24
680.411	288.47
680.82	314.22
681.23	311.88
681.639	365.71
682.048	342.3
682.457	274.43
682.866	337.62
683.275	370.39
683.684	297.83
684.093	290.81
684.502	244
684.911	316.56
685.32	300.17
685.728	358.69
686.137	363.37
686.546	354.01
686.954	283.79
687.363	279.11
687.771	314.22
688.179	339.96
688.588	307.2
688.996	267.41
689.404	311.88
689.812	276.77
690.22	258.04
690.628	339.96
691.036	286.13
691.444	267.41
691.852	276.77
692.26	323.58
692.667	290.81
693.075	314.22
693.483	290.81
693.89	323.58
694.298	332.94
694.705	316.56
695.112	314.22
695.52	349.32
695.927	314.22
696.334	342.3
696.741	335.28
697.148	370.39
697.555	361.03
697.962	323.58
698.369	389.11
698.776	354.01
699.183	323.58
699.59	295.49
699.996	295.49
700.403	351.67
700.81	405.5
701.216	342.3
701.623	346.98
702.029	351.67
702.435	328.26
702.842	375.07
703.248	323.58
703.654	330.6
704.06	304.85
704.466	349.32
704.872	363.37
705.278	398.48
705.684	309.54
706.09	304.85
706.496	304.85
706.901	372.73
707.307	361.03
707.712	269.75
708.118	398.48
708.523	370.39
708.929	335.28
709.334	304.85
709.74	339.96
710.145	370.39
710.55	393.8
710.955	396.14
711.36	318.9
711.765	389.11
712.17	351.67
712.575	288.47
712.98	871.26
713.385	358.69
713.789	346.98
714.194	295.49
714.599	372.73
715.003	344.64
715.408	295.49
715.812	396.14
716.217	379.75
716.621	344.64
717.025	316.56
717.429	323.58
717.833	314.22
718.238	314.22
718.642	368.05
719.046	316.56
719.449	403.16
719.853	342.3
720.257	328.26
720.661	300.17
721.065	302.51
721.468	311.88
721.872	356.35
722.275	274.43
722.679	339.96
723.082	375.07
723.485	356.35
723.889	349.32
724.292	342.3
724.695	328.26
725.098	382.09
725.501	354.01
725.904	328.26
726.307	342.3
726.71	354.01
727.113	307.2
727.516	339.96
727.918	279.11
728.321	318.9
728.724	311.88
729.126	358.69
729.529	332.94
729.931	330.6
730.333	307.2
730.736	323.58
731.138	370.39
731.54	389.11
731.942	295.49
732.344	297.83
732.746	248.68
733.148	300.17
733.55	304.85
733.952	281.45
734.354	307.2
734.756	351.67
735.157	354.01
735.559	351.67
735.96	311.88
736.362	274.43
736.763	351.67
737.165	358.69
737.566	314.22
737.967	281.45
738.368	318.9
738.77	370.39
739.171	346.98
739.572	361.03
739.973	302.51
740.374	372.73
740.774	332.94
741.175	325.92
741.576	286.13
741.977	309.54
742.377	297.83
742.778	290.81
743.178	236.98
743.579	248.68
743.979	302.51
744.379	354.01
744.78	339.96
745.18	290.81
745.58	295.49
745.98	379.75
746.38	339.96
746.78	309.54
747.18	297.83
747.58	351.67
747.98	351.67
748.38	356.35
748.779	302.51
749.179	330.6
749.578	314.22
749.978	300.17
750.377	363.37
750.777	272.09
751.176	286.13
751.575	290.81
751.975	325.92
752.374	344.64
752.773	307.2
753.172	262.73
753.571	293.15
753.97	279.11
754.369	307.2
754.768	302.51
755.166	335.28
755.565	290.81
755.964	307.2
756.362	339.96
756.761	328.26
757.159	311.88
757.558	321.24
757.956	349.32
758.354	318.9
758.753	335.28
759.151	365.71
759.549	318.9
759.947	384.43
760.345	339.96
760.743	368.05
761.141	307.2
761.539	330.6
761.936	321.24
762.334	309.54
762.732	323.58
763.129	339.96
763.527	314.22
763.924	286.13
764.322	349.32
764.719	365.71
765.117	318.9
765.514	389.11
765.911	356.35
766.308	332.94
766.705	325.92
767.102	279.11
767.499	253.36
767.896	335.28
768.293	379.75
768.69	321.24
769.086	325.92
769.483	354.01
769.88	311.88
770.276	379.75
770.673	342.3
771.069	368.05
771.466	349.32
771.862	379.75
772.258	346.98
772.654	304.85
773.05	342.3
773.447	300.17
773.843	403.16
774.239	283.79
774.634	295.49
775.03	375.07
775.426	344.64
775.822	349.32
776.218	309.54
776.613	314.22
777.009	344.64
777.404	344.64
777.8	276.77
778.195	269.75
778.59	323.58
778.986	325.92
779.381	213.57
779.776	351.67
780.171	302.51
780.566	398.48
780.961	269.75
781.356	293.15
781.751	370.39
782.146	332.94
782.54	356.35
782.935	349.32
783.33	365.71
783.724	314.22
784.119	356.35
784.513	349.32
784.908	417.2
785.302	288.47
785.696	318.9
786.09	330.6
786.485	332.94
786.879	332.94
787.273	382.09
787.667	335.28
788.061	314.22
788.454	361.03
788.848	309.54
789.242	316.56
789.636	316.56
790.029	276.77
790.423	342.3
790.816	279.11
791.21	297.83
791.603	330.6
791.997	375.07
792.39	318.9
792.783	428.9
793.176	354.01
793.569	314.22
793.962	358.69
794.355	232.3
794.748	283.79
795.141	325.92
795.534	318.9
795.927	272.09
796.319	307.2
796.712	351.67
797.105	316.56
797.497	302.51
797.89	354.01
798.282	307.2
798.674	337.62
799.067	316.56
799.459	304.85
799.851	335.28
800.243	339.96
800.635	330.6
801.027	358.69
801.419	281.45
801.811	302.51
802.203	281.45
802.594	262.73
802.986	295.49
803.378	302.51
803.769	290.81
804.161	330.6
804.552	316.56
804.944	295.49
805.335	309.54
805.726	302.51
806.118	365.71
806.509	325.92
806.9	361.03
807.291	372.73
807.682	351.67
808.073	354.01
808.464	293.15
808.855	356.35
809.245	349.32
809.636	365.71
810.027	372.73
810.417	295.49
810.808	335.28
811.198	286.13
811.589	321.24
811.979	260.38
812.369	351.67
812.759	283.79
813.15	318.9
813.54	309.54
813.93	316.56
814.32	309.54
814.71	290.81
815.1	339.96
815.489	311.88
815.879	349.32
816.269	307.2
816.658	297.83
817.048	262.73
817.438	318.9
817.827	328.26
818.216	316.56
818.606	368.05
818.995	293.15
819.384	311.88
819.773	260.38
820.163	330.6
820.552	342.3
820.941	323.58
821.33	258.04
821.718	311.88
822.107	318.9
822.496	262.73
822.885	323.58
823.273	314.22
823.662	346.98
824.05	325.92
824.439	279.11
824.827	272.09
825.216	281.45
825.604	316.56
825.992	358.69
826.38	302.51
826.768	265.07
827.156	344.64
827.544	297.83
827.932	337.62
828.32	281.45
828.708	286.13
829.096	274.43
829.483	316.56
829.871	293.15
830.259	293.15
830.646	346.98
831.034	234.64
831.421	283.79
831.808	290.81
832.196	286.13
832.583	354.01
832.97	307.2
833.357	351.67
833.744	377.41
834.131	351.67
834.518	335.28
834.905	279.11
835.292	356.35
835.678	365.71
836.065	346.98
836.452	344.64
836.838	339.96
837.225	307.2
837.611	279.11
837.998	339.96
838.384	274.43
838.77	323.58
839.157	293.15
839.543	354.01
839.929	342.3
840.315	342.3
840.701	272.09
841.087	272.09
841.473	368.05
841.858	304.85
842.244	281.45
842.63	288.47
843.015	260.38
843.401	599.76
843.787	309.54
844.172	321.24
844.557	283.79
844.943	283.79
845.328	344.64
845.713	321.24
846.098	361.03
846.483	295.49
846.868	300.17
847.253	325.92
847.638	248.68
848.023	300.17
848.408	304.85
848.793	283.79
849.177	339.96
849.562	309.54
849.947	339.96
850.331	309.54
850.715	351.67
851.1	375.07
851.484	288.47
851.868	295.49
852.253	330.6
852.637	346.98
853.021	363.37
853.405	344.64
853.789	337.62
854.173	286.13
854.557	255.7
854.94	354.01
855.324	354.01
855.708	372.73
856.091	323.58
856.475	304.85
856.858	307.2
857.242	377.41
857.625	363.37
858.009	337.62
858.392	342.3
858.775	372.73
859.158	346.98
859.541	391.45
859.924	349.32
860.307	295.49
860.69	335.28
861.073	293.15
861.456	391.45
861.838	328.26
862.221	304.85
862.604	269.75
862.986	375.07
863.369	358.69
863.751	325.92
864.133	272.09
864.516	354.01
864.898	325.92
865.28	361.03
865.662	311.88
866.044	288.47
866.426	321.24
866.808	330.6
867.19	323.58
867.572	276.77
867.954	260.38
868.336	365.71
868.717	328.26
869.099	323.58
869.48	332.94
869.862	260.38
870.243	339.96
870.625	330.6
871.006	398.48
871.387	342.3
871.768	349.32
872.149	304.85
872.53	361.03
872.911	318.9
873.292	314.22
873.673	393.8
874.054	272.09
874.435	276.77
874.815	255.7
875.196	304.85
875.577	307.2
875.957	377.41
876.338	356.35
876.718	290.81
877.098	262.73
877.479	297.83
877.859	356.35
878.239	283.79
878.619	358.69
878.999	293.15
879.379	288.47
879.759	321.24
880.139	295.49
880.519	370.39
880.898	323.58
881.278	363.37
881.658	351.67
882.037	346.98
882.417	314.22
882.796	351.67
883.176	316.56
883.555	318.9
883.934	316.56
884.313	332.94
884.693	281.45
885.072	302.51
885.451	335.28
885.83	283.79
886.209	323.58
886.587	316.56
886.966	318.9
887.345	344.64
887.724	328.26
888.102	332.94
888.481	330.6
888.859	307.2
889.238	321.24
889.616	363.37
889.994	304.85
890.373	356.35
890.751	279.11
891.129	398.48
891.507	321.24
891.885	281.45
892.263	325.92
892.641	363.37
893.019	304.85
893.396	300.17
893.774	335.28
894.152	241.66
894.529	311.88
894.907	342.3
895.284	260.38
895.662	363.37
896.039	283.79
896.416	262.73
896.794	346.98
897.171	311.88
897.548	339.96
897.925	309.54
898.302	372.73
898.679	344.64
899.056	295.49
899.433	361.03
899.809	316.56
900.186	321.24
900.563	297.83
900.939	375.07
901.316	309.54
901.692	321.24
902.069	342.3
902.445	372.73
902.821	307.2
903.197	316.56
903.574	332.94
903.95	281.45
904.326	283.79
904.702	330.6
905.078	302.51
905.454	323.58
905.829	335.28
906.205	276.77
906.581	272.09
906.956	328.26
907.332	309.54
907.707	316.56
908.083	276.77
908.458	321.24
908.833	344.64
909.209	302.51
909.584	307.2
909.959	300.17
910.334	253.36
910.709	349.32
911.084	309.54
911.459	288.47
911.834	269.75
912.209	339.96
912.583	328.26
912.958	358.69
913.333	297.83
913.707	321.24
914.082	318.9
914.456	321.24
914.83	346.98
915.205	368.05
915.579	337.62
915.953	339.96
916.327	253.36
916.701	335.28
917.075	342.3
917.449	349.32
917.823	356.35
918.197	293.15
918.571	372.73
918.944	300.17
919.318	332.94
919.692	302.51
920.065	309.54
920.438	335.28
920.812	311.88
921.185	318.9
921.558	328.26
921.932	316.56
922.305	260.38
922.678	290.81
923.051	354.01
923.424	325.92
923.797	344.64
924.17	316.56
924.542	354.01
924.915	283.79
925.288	321.24
925.661	363.37
926.033	293.15
926.406	283.79
926.778	384.43
927.15	332.94
927.523	274.43
927.895	375.07
928.267	351.67
928.639	232.3
929.011	370.39
929.383	342.3
929.755	330.6
930.127	309.54
930.499	311.88
930.871	286.13
931.242	267.41
931.614	332.94
931.986	321.24
932.357	314.22
932.729	295.49
933.1	375.07
933.471	290.81
933.843	342.3
934.214	314.22
934.585	323.58
934.956	311.88
935.327	274.43
935.698	361.03
936.069	295.49
936.44	398.48
936.811	337.62
937.182	300.17
937.552	276.77
937.923	300.17
938.293	328.26
938.664	265.07
939.034	377.41
939.405	290.81
939.775	283.79
940.145	274.43
940.516	304.85
940.886	332.94
941.256	316.56
941.626	328.26
941.996	314.22
942.366	375.07
942.735	309.54
943.105	349.32
943.475	330.6
943.845	295.49
944.214	330.6
944.584	396.14
944.953	346.98
945.323	290.81
945.692	351.67
946.061	323.58
946.43	370.39
946.8	321.24
947.169	344.64
947.538	286.13
947.907	323.58
948.276	276.77
948.645	318.9
949.013	293.15
949.382	281.45
949.751	337.62
950.119	342.3
950.488	358.69
950.857	295.49
951.225	311.88
951.593	316.56
951.962	346.98
952.33	314.22
952.698	304.85
953.066	318.9
953.434	260.38
953.802	339.96
954.17	309.54
954.538	290.81
954.906	396.14
955.274	307.2
955.642	314.22
956.009	339.96
956.377	316.56
956.744	328.26
957.112	339.96
957.479	318.9
957.847	267.41
958.214	311.88
958.581	344.64
958.948	384.43
959.315	236.98
959.683	393.8
960.05	318.9
960.416	283.79
960.783	307.2
961.15	304.85
961.517	307.2
961.884	218.25
962.25	304.85
962.617	283.79
962.983	314.22
963.35	283.79
963.716	356.35
964.082	267.41
964.449	286.13
964.815	346.98
965.181	379.75
965.547	321.24
965.913	253.36
966.279	304.85
966.645	302.51
967.011	309.54
967.377	314.22
967.742	330.6
968.108	351.67
968.474	323.58
968.839	321.24
969.205	346.98
969.57	318.9
969.935	281.45
970.301	286.13
970.666	300.17
971.031	293.15
971.396	358.69
971.761	344.64
972.126	295.49
972.491	321.24
972.856	267.41
973.221	295.49
973.586	311.88
973.95	332.94
974.315	295.49
974.679	342.3
975.044	342.3
975.408	351.67
975.773	314.22
976.137	272.09
976.501	342.3
976.866	295.49
977.23	309.54
977.594	300.17
977.958	372.73
978.322	272.09
978.686	267.41
979.049	344.64
979.413	349.32
979.777	311.88
980.141	349.32
980.504	276.77
980.868	307.2
981.231	370.39
981.595	314.22
981.958	267.41
982.321	323.58
982.684	293.15
983.048	342.3
983.411	361.03
983.774	286.13
984.137	281.45
984.5	304.85
984.862	295.49
985.225	314.22
985.588	384.43
985.951	354.01
986.313	342.3
986.676	300.17
987.038	332.94
987.401	269.75
987.763	321.24
988.125	290.81
988.488	349.32
988.85	384.43
989.212	265.07
989.574	304.85
989.936	269.75
990.298	286.13
990.66	330.6
991.022	342.3
991.383	304.85
991.745	293.15
992.107	290.81
992.468	351.67
992.83	351.67
993.191	337.62
993.553	309.54
993.914	335.28
994.275	258.04
994.637	361.03
994.998	269.75
995.359	344.64
995.72	335.28
996.081	337.62
996.442	365.71
996.803	307.2
997.163	372.73
997.524	293.15
997.885	321.24
998.245	330.6
998.606	293.15
998.966	307.2
999.327	361.03
999.687	370.39
1000.047	328.26
1000.408	295.49
1000.768	330.6
1001.128	258.04
1001.488	375.07
1001.848	344.64
1002.208	375.07
1002.568	244
1002.927	314.22
1003.287	307.2
1003.647	288.47
1004.007	339.96
1004.366	330.6
1004.726	295.49
1005.085	321.24
1005.444	325.92
1005.804	281.45
1006.163	281.45
1006.522	276.77
1006.881	356.35
1007.24	330.6
1007.599	321.24
1007.958	330.6
1008.317	248.68
1008.676	321.24
1009.035	309.54
1009.393	365.71
1009.752	337.62
1010.111	309.54
1010.469	314.22
1010.828	344.64
1011.186	321.24
1011.544	283.79
1011.903	358.69
1012.261	328.26
1012.619	297.83
1012.977	286.13
1013.335	309.54
1013.693	290.81
1014.051	325.92
1014.409	335.28
1014.767	314.22
1015.124	279.11
1015.482	386.77
1015.84	269.75
1016.197	339.96
1016.555	361.03
1016.912	307.2
1017.269	309.54
1017.627	335.28
1017.984	267.41
1018.341	384.43
1018.698	302.51
1019.055	288.47
1019.412	339.96
1019.769	309.54
1020.126	354.01
1020.483	253.36
1020.84	349.32
1021.196	342.3
1021.553	339.96
1021.909	316.56
1022.266	236.98
1022.622	281.45
1022.979	332.94
1023.335	300.17
1023.691	354.01
1024.047	272.09
1024.404	339.96
1024.76	342.3
1025.116	325.92
1025.472	316.56
1025.827	335.28
1026.183	323.58
1026.539	356.35
1026.895	297.83
1027.25	232.3
1027.606	279.11
1027.961	323.58
1028.317	372.73
1028.672	344.64
1029.028	372.73
1029.383	335.28
1029.738	356.35
1030.093	283.79
1030.448	354.01
1030.803	372.73
1031.158	325.92
1031.513	321.24
1031.868	337.62
1032.223	325.92
1032.577	279.11
1032.932	339.96
1033.287	300.17
1033.641	344.64
1033.996	344.64
1034.35	311.88
1034.704	342.3
1035.059	316.56
1035.413	274.43
1035.767	274.43
1036.121	274.43
