Data from Al_FLMS009871__301__12-24-05-642.txt Node

Date: Fri Mar 08 12:24:05 CST 2024
User: pe5414po
Spectrometer: FLMS00987
Trigger mode: 0
Integration Time (sec): 1.000000E-1
Scans to average: 1
Electric dark correction enabled: true
Nonlinearity correction enabled: false
Boxcar width: 0
XAxis mode: Wavelengths
Number of Pixels in Spectrum: 2048
>>>>>Begin Spectral Data<<<<<
188.938	-66.56
189.409	-66.56
189.879	-66.56
190.349	-122.73
190.819	-115.71
191.29	-68.9
191.76	-122.73
192.23	-111.03
192.7	-134.43
193.17	-45.49
193.64	-22.09
194.109	-31.45
194.579	-47.83
195.049	15.36
195.519	41.11
195.988	38.77
196.458	104.3
196.927	15.36
197.397	90.26
197.866	172.18
198.336	106.64
198.805	111.32
199.274	230.69
199.744	197.92
200.213	144.09
200.682	293.88
201.151	221.33
201.62	235.37
202.089	228.35
202.558	242.39
203.027	228.35
203.495	249.41
203.964	336.01
204.433	303.25
204.902	277.5
205.37	265.8
205.839	314.95
206.307	277.5
206.776	307.93
207.244	286.86
207.712	270.48
208.181	291.54
208.649	277.5
209.117	357.08
209.585	352.4
210.053	282.18
210.521	279.84
210.989	333.67
211.457	270.48
211.925	366.44
212.393	218.99
212.861	300.91
213.328	282.18
213.796	333.67
214.264	256.43
214.731	256.43
215.199	247.07
215.666	223.67
216.133	343.03
216.601	247.07
217.068	270.48
217.535	293.88
218.003	235.37
218.47	258.78
218.937	293.88
219.404	240.05
219.871	298.56
220.338	279.84
220.805	305.59
221.271	312.61
221.738	286.86
222.205	324.31
222.671	240.05
223.138	240.05
223.605	321.97
224.071	268.14
224.538	235.37
225.004	254.09
225.47	249.41
225.937	270.48
226.403	240.05
226.869	284.52
227.335	340.69
227.801	249.41
228.267	300.91
228.733	226.01
229.199	247.07
229.665	261.12
230.131	272.82
230.597	279.84
231.062	237.71
231.528	214.31
231.994	254.09
232.459	321.97
232.925	211.96
233.39	247.07
233.856	240.05
234.321	228.35
234.786	270.48
235.252	300.91
235.717	303.25
236.182	286.86
236.647	317.29
237.112	277.5
237.577	251.75
238.042	228.35
238.507	254.09
238.972	272.82
239.436	230.69
239.901	286.86
240.366	256.43
240.83	233.03
241.295	270.48
241.76	286.86
242.224	286.86
242.688	331.33
243.153	263.46
243.617	300.91
244.081	305.59
244.545	333.67
245.01	279.84
245.474	307.93
245.938	275.16
246.402	310.27
246.866	305.59
247.33	277.5
247.793	244.73
248.257	270.48
248.721	261.12
249.185	249.41
249.648	296.22
250.112	233.03
250.575	272.82
251.039	310.27
251.502	244.73
251.965	230.69
252.429	300.91
252.892	289.2
253.355	317.29
253.818	261.12
254.281	333.67
254.744	364.1
255.207	221.33
255.67	319.63
256.133	343.03
256.596	324.31
257.059	291.54
257.522	286.86
257.984	209.62
258.447	263.46
258.909	310.27
259.372	307.93
259.834	385.16
260.297	303.25
260.759	261.12
261.221	223.67
261.684	296.22
262.146	307.93
262.608	265.8
263.07	221.33
263.532	291.54
263.994	286.86
264.456	385.16
264.918	265.8
265.38	272.82
265.842	214.31
266.303	216.65
266.765	256.43
267.227	284.52
267.688	284.52
268.15	258.78
268.611	293.88
269.072	251.75
269.534	214.31
269.995	331.33
270.456	300.91
270.918	209.62
271.379	324.31
271.84	314.95
272.301	228.35
272.762	298.56
273.223	275.16
273.684	314.95
274.144	296.22
274.605	326.65
275.066	207.28
275.527	270.48
275.987	343.03
276.448	291.54
276.908	235.37
277.369	270.48
277.829	282.18
278.289	286.86
278.75	340.69
279.21	270.48
279.67	338.35
280.13	247.07
280.59	296.22
281.05	289.2
281.51	277.5
281.97	270.48
282.43	331.33
282.89	338.35
283.35	277.5
283.809	268.14
284.269	282.18
284.729	251.75
285.188	298.56
285.648	291.54
286.107	282.18
286.567	228.35
287.026	268.14
287.485	282.18
287.944	265.8
288.404	326.65
288.863	373.46
289.322	314.95
289.781	307.93
290.24	312.61
290.699	328.99
291.158	314.95
291.616	286.86
292.075	291.54
292.534	270.48
292.992	317.29
293.451	347.72
293.91	249.41
294.368	265.8
294.827	394.53
295.285	282.18
295.743	265.8
296.202	408.57
296.66	270.48
297.118	326.65
297.576	312.61
298.034	237.71
298.492	310.27
298.95	305.59
299.408	268.14
299.866	256.43
300.324	298.56
300.781	298.56
301.239	207.28
301.697	240.05
302.154	247.07
302.612	282.18
303.069	310.27
303.527	340.69
303.984	328.99
304.441	298.56
304.899	265.8
305.356	223.67
305.813	331.33
306.27	251.75
306.727	296.22
307.184	251.75
307.641	305.59
308.098	336.01
308.555	286.86
309.012	268.14
309.468	286.86
309.925	226.01
310.382	282.18
310.838	263.46
311.295	310.27
311.751	300.91
312.208	298.56
312.664	303.25
313.12	373.46
313.577	368.78
314.033	265.8
314.489	324.31
314.945	293.88
315.401	249.41
315.857	345.38
316.313	270.48
316.769	310.27
317.225	233.03
317.681	328.99
318.136	254.09
318.592	319.63
319.048	275.16
319.503	319.63
319.959	270.48
320.414	270.48
320.869	270.48
321.325	331.33
321.78	237.71
322.235	343.03
322.691	282.18
323.146	333.67
323.601	345.38
324.056	359.42
324.511	310.27
324.966	275.16
325.421	268.14
325.875	319.63
326.33	307.93
326.785	336.01
327.24	340.69
327.694	277.5
328.149	312.61
328.603	258.78
329.058	272.82
329.512	350.06
329.966	249.41
330.421	307.93
330.875	268.14
331.329	326.65
331.783	326.65
332.237	282.18
332.691	310.27
333.145	361.76
333.599	328.99
334.053	319.63
334.507	289.2
334.96	242.39
335.414	258.78
335.868	284.52
336.321	317.29
336.775	366.44
337.228	319.63
337.682	310.27
338.135	307.93
338.588	333.67
339.042	364.1
339.495	275.16
339.948	228.35
340.401	268.14
340.854	305.59
341.307	254.09
341.76	303.25
342.213	364.1
342.666	343.03
343.119	319.63
343.571	284.52
344.024	312.61
344.477	310.27
344.929	333.67
345.382	279.84
345.834	279.84
346.287	247.07
346.739	270.48
347.191	328.99
347.644	296.22
348.096	333.67
348.548	289.2
349	371.12
349.452	336.01
349.904	305.59
350.356	328.99
350.808	417.93
351.26	300.91
351.711	343.03
352.163	310.27
352.615	336.01
353.066	328.99
353.518	251.75
353.969	314.95
354.421	321.97
354.872	296.22
355.324	345.38
355.775	296.22
356.226	343.03
356.677	378.14
357.128	314.95
357.579	305.59
358.03	291.54
358.481	361.76
358.932	368.78
359.383	366.44
359.834	328.99
360.285	298.56
360.735	357.08
361.186	289.2
361.637	298.56
362.087	317.29
362.538	324.31
362.988	307.93
363.438	286.86
363.889	328.99
364.339	319.63
364.789	328.99
365.239	291.54
365.689	305.59
366.139	331.33
366.589	289.2
367.039	331.33
367.489	303.25
367.939	300.91
368.389	340.69
368.839	268.14
369.288	275.16
369.738	326.65
370.187	261.12
370.637	312.61
371.086	324.31
371.536	247.07
371.985	305.59
372.434	300.91
372.884	331.33
373.333	300.91
373.782	317.29
374.231	314.95
374.68	317.29
375.129	303.25
375.578	279.84
376.027	291.54
376.475	286.86
376.924	333.67
377.373	350.06
377.822	324.31
378.27	312.61
378.719	314.95
379.167	244.73
379.616	354.74
380.064	357.08
380.512	256.43
380.961	347.72
381.409	317.29
381.857	240.05
382.305	289.2
382.753	340.69
383.201	298.56
383.649	314.95
384.097	277.5
384.545	296.22
384.992	298.56
385.44	347.72
385.888	249.41
386.335	324.31
386.783	375.8
387.231	263.46
387.678	275.16
388.125	268.14
388.573	343.03
389.02	345.38
389.467	345.38
389.914	289.2
390.362	300.91
390.809	305.59
391.256	343.03
391.703	277.5
392.15	277.5
392.596	261.12
393.043	254.09
393.49	254.09
393.937	324.31
394.383	272.82
394.83	357.08
395.276	307.93
395.723	275.16
396.169	300.91
396.616	387.5
397.062	307.93
397.508	249.41
397.954	289.2
398.401	279.84
398.847	289.2
399.293	347.72
399.739	338.35
400.185	286.86
400.631	282.18
401.076	272.82
401.522	373.46
401.968	293.88
402.414	300.91
402.859	307.93
403.305	298.56
403.75	375.8
404.196	378.14
404.641	387.5
405.086	319.63
405.532	319.63
405.977	350.06
406.422	345.38
406.867	298.56
407.312	289.2
407.757	354.74
408.202	340.69
408.647	263.46
409.092	324.31
409.537	314.95
409.982	366.44
410.426	340.69
410.871	321.97
411.316	319.63
411.76	244.73
412.205	340.69
412.649	303.25
413.093	364.1
413.538	303.25
413.982	354.74
414.426	326.65
414.87	284.52
415.314	319.63
415.758	350.06
416.202	343.03
416.646	324.31
417.09	364.1
417.534	303.25
417.978	289.2
418.421	314.95
418.865	310.27
419.309	380.48
419.752	293.88
420.196	305.59
420.639	380.48
421.083	396.87
421.526	328.99
421.969	321.97
422.412	263.46
422.856	352.4
423.299	378.14
423.742	373.46
424.185	340.69
424.628	331.33
425.071	455.38
425.513	298.56
425.956	343.03
426.399	382.82
426.842	364.1
427.284	361.76
427.727	366.44
428.169	357.08
428.612	375.8
429.054	403.89
429.497	380.48
429.939	392.19
430.381	378.14
430.823	350.06
431.265	317.29
431.707	389.85
432.149	375.8
432.591	401.55
433.033	443.68
433.475	427.29
433.917	436.66
434.359	443.68
434.8	469.42
435.242	523.26
435.684	483.47
436.125	469.42
436.567	453.04
437.008	434.32
437.449	464.74
437.891	455.38
438.332	476.45
438.773	499.85
439.214	448.36
439.656	446.02
440.097	469.42
440.538	492.83
440.978	481.13
441.419	530.28
441.86	544.32
442.301	546.66
442.742	474.1
443.182	551.34
443.623	544.32
444.063	527.94
444.504	504.53
444.944	488.15
445.385	483.47
445.825	565.39
446.265	448.36
446.706	474.1
447.146	495.17
447.586	502.19
448.026	570.07
448.466	511.55
448.906	488.15
449.346	525.6
449.786	460.06
450.225	450.7
450.665	455.38
451.105	485.81
451.544	541.98
451.984	471.76
452.424	453.04
452.863	502.19
453.302	422.61
453.742	511.55
454.181	499.85
454.62	471.76
455.059	492.83
455.499	439
455.938	408.57
456.377	490.49
456.816	467.08
457.254	394.53
457.693	413.25
458.132	441.34
458.571	420.27
459.01	408.57
459.448	467.08
459.887	378.14
460.325	448.36
460.764	436.66
461.202	464.74
461.641	483.47
462.079	429.63
462.517	413.25
462.955	478.79
463.393	399.21
463.832	464.74
464.27	478.79
464.708	396.87
465.145	420.27
465.583	343.03
466.021	408.57
466.459	434.32
466.897	307.93
467.334	413.25
467.772	399.21
468.209	408.57
468.647	439
469.084	436.66
469.522	401.55
469.959	347.72
470.396	366.44
470.833	427.29
471.271	413.25
471.708	385.16
472.145	401.55
472.582	401.55
473.019	394.53
473.456	410.91
473.892	368.78
474.329	389.85
474.766	422.61
475.202	382.82
475.639	352.4
476.076	373.46
476.512	366.44
476.949	382.82
477.385	399.21
477.821	357.08
478.258	333.67
478.694	424.95
479.13	375.8
479.566	408.57
480.002	410.91
480.438	366.44
480.874	359.42
481.31	396.87
481.746	375.8
482.181	361.76
482.617	415.59
483.053	359.42
483.488	457.72
483.924	523.26
484.36	483.47
484.795	354.74
485.23	443.68
485.666	446.02
486.101	380.48
486.536	469.42
486.971	422.61
487.407	415.59
487.842	441.34
488.277	399.21
488.712	359.42
489.146	415.59
489.581	392.19
490.016	462.4
490.451	446.02
490.885	429.63
491.32	378.14
491.755	492.83
492.189	378.14
492.624	441.34
493.058	347.72
493.492	373.46
493.927	343.03
494.361	406.23
494.795	457.72
495.229	406.23
495.663	422.61
496.097	422.61
496.531	401.55
496.965	408.57
497.399	434.32
497.833	420.27
498.266	434.32
498.7	366.44
499.134	357.08
499.567	406.23
500.001	352.4
500.434	359.42
500.868	443.68
501.301	434.32
501.734	448.36
502.168	441.34
502.601	373.46
503.034	373.46
503.467	345.38
503.9	366.44
504.333	350.06
504.766	371.12
505.199	441.34
505.632	333.67
506.064	364.1
506.497	429.63
506.93	394.53
507.362	368.78
507.795	361.76
508.227	394.53
508.66	417.93
509.092	415.59
509.524	345.38
509.956	375.8
510.389	481.13
510.821	455.38
511.253	457.72
511.685	366.44
512.117	457.72
512.549	462.4
512.981	408.57
513.412	427.29
513.844	373.46
514.276	422.61
514.707	453.04
515.139	399.21
515.571	450.7
516.002	446.02
516.433	410.91
516.865	485.81
517.296	488.15
517.727	406.23
518.159	474.1
518.59	417.93
519.021	492.83
519.452	467.08
519.883	424.95
520.314	478.79
520.744	361.76
521.175	488.15
521.606	441.34
522.037	364.1
522.467	429.63
522.898	431.98
523.328	373.46
523.759	401.55
524.189	520.92
524.62	375.8
525.05	453.04
525.48	446.02
525.91	497.51
526.341	417.93
526.771	439
527.201	420.27
527.631	460.06
528.061	410.91
528.49	380.48
528.92	413.25
529.35	389.85
529.78	467.08
530.209	431.98
530.639	357.08
531.068	462.4
531.498	441.34
531.927	417.93
532.357	406.23
532.786	359.42
533.215	490.49
533.644	448.36
534.074	455.38
534.503	345.38
534.932	406.23
535.361	443.68
535.79	492.83
536.218	460.06
536.647	464.74
537.076	392.19
537.505	424.95
537.933	441.34
538.362	499.85
538.79	460.06
539.219	525.6
539.647	490.49
540.076	523.26
540.504	467.08
540.932	490.49
541.36	673.05
541.788	668.37
542.217	722.2
542.645	717.52
543.073	719.86
543.5	726.88
543.928	804.12
544.356	710.5
544.784	773.69
545.211	769.01
545.639	684.75
546.067	680.07
546.494	591.13
546.922	628.58
547.349	616.88
547.776	523.26
548.204	506.87
548.631	546.66
549.058	481.13
549.485	483.47
549.912	549
550.339	481.13
550.766	509.21
551.193	532.62
551.62	534.96
552.047	469.42
552.474	485.81
552.9	495.17
553.327	413.25
553.754	481.13
554.18	471.76
554.607	446.02
555.033	474.1
555.459	509.21
555.886	387.5
556.312	434.32
556.738	422.61
557.164	343.03
557.59	424.95
558.016	410.91
558.442	467.08
558.868	410.91
559.294	352.4
559.72	462.4
560.145	455.38
560.571	469.42
560.997	431.98
561.422	413.25
561.848	406.23
562.273	399.21
562.699	518.57
563.124	448.36
563.549	420.27
563.974	457.72
564.4	427.29
564.825	424.95
565.25	436.66
565.675	446.02
566.1	413.25
566.525	427.29
566.95	368.78
567.374	446.02
567.799	413.25
568.224	410.91
568.648	403.89
569.073	373.46
569.497	441.34
569.922	457.72
570.346	357.08
570.771	420.27
571.195	450.7
571.619	457.72
572.043	450.7
572.467	401.55
572.891	366.44
573.315	429.63
573.739	375.8
574.163	457.72
574.587	422.61
575.011	396.87
575.435	441.34
575.858	406.23
576.282	408.57
576.705	429.63
577.129	439
577.552	457.72
577.976	448.36
578.399	464.74
578.822	464.74
579.245	427.29
579.669	455.38
580.092	436.66
580.515	464.74
580.938	427.29
581.361	474.1
581.784	436.66
582.206	455.38
582.629	446.02
583.052	520.92
583.474	427.29
583.897	427.29
584.32	385.16
584.742	417.93
585.165	460.06
585.587	446.02
586.009	417.93
586.431	448.36
586.854	460.06
587.276	518.57
587.698	441.34
588.12	469.42
588.542	469.42
588.964	462.4
589.386	471.76
589.807	396.87
590.229	406.23
590.651	490.49
591.073	490.49
591.494	415.59
591.916	471.76
592.337	387.5
592.759	481.13
593.18	387.5
593.601	354.74
594.022	443.68
594.444	476.45
594.865	392.19
595.286	471.76
595.707	389.85
596.128	467.08
596.549	343.03
596.97	427.29
597.39	406.23
597.811	338.35
598.232	375.8
598.652	460.06
599.073	516.23
599.494	378.14
599.914	415.59
600.334	415.59
600.755	415.59
601.175	424.95
601.595	406.23
602.015	406.23
602.436	443.68
602.856	513.89
603.276	396.87
603.696	420.27
604.115	396.87
604.535	359.42
604.955	403.89
605.375	368.78
605.794	380.48
606.214	378.14
606.634	373.46
607.053	401.55
607.473	439
607.892	441.34
608.311	453.04
608.731	375.8
609.15	450.7
609.569	534.96
609.988	602.83
610.407	733.9
610.826	827.53
611.245	743.27
611.664	733.9
612.083	747.95
612.501	668.37
612.92	598.15
613.339	635.6
613.757	546.66
614.176	492.83
614.594	490.49
615.013	539.64
615.431	385.16
615.85	420.27
616.268	385.16
616.686	382.82
617.104	446.02
617.522	439
617.94	427.29
618.358	340.69
618.776	385.16
619.194	394.53
619.612	469.42
620.03	422.61
620.447	378.14
620.865	434.32
621.282	429.63
621.7	462.4
622.117	382.82
622.535	368.78
622.952	368.78
623.369	385.16
623.787	410.91
624.204	455.38
624.621	382.82
625.038	392.19
625.455	467.08
625.872	324.31
626.289	385.16
626.706	371.12
627.123	366.44
627.539	361.76
627.956	380.48
628.373	392.19
628.789	403.89
629.206	396.87
629.622	347.72
630.038	385.16
630.455	427.29
630.871	387.5
631.287	448.36
631.703	373.46
632.12	406.23
632.536	343.03
632.952	392.19
633.368	389.85
633.783	361.76
634.199	303.25
634.615	338.35
635.031	291.54
635.446	352.4
635.862	338.35
636.277	345.38
636.693	392.19
637.108	359.42
637.524	371.12
637.939	307.93
638.354	361.76
638.77	352.4
639.185	378.14
639.6	343.03
640.015	347.72
640.43	361.76
640.845	291.54
641.259	359.42
641.674	319.63
642.089	340.69
642.504	380.48
642.918	350.06
643.333	354.74
643.747	326.65
644.162	354.74
644.576	399.21
644.991	321.97
645.405	324.31
645.819	328.99
646.233	366.44
646.647	347.72
647.061	340.69
647.475	371.12
647.889	350.06
648.303	373.46
648.717	331.33
649.131	279.84
649.545	389.85
649.958	317.29
650.372	347.72
650.785	326.65
651.199	357.08
651.612	314.95
652.026	310.27
652.439	373.46
652.852	310.27
653.266	364.1
653.679	357.08
654.092	364.1
654.505	357.08
654.918	364.1
655.331	347.72
655.744	307.93
656.156	375.8
656.569	317.29
656.982	338.35
657.394	336.01
657.807	277.5
658.22	307.93
658.632	328.99
659.044	279.84
659.457	333.67
659.869	338.35
660.281	343.03
660.693	326.65
661.106	305.59
661.518	314.95
661.93	279.84
662.342	249.41
662.754	371.12
663.165	324.31
663.577	277.5
663.989	314.95
664.401	305.59
664.812	333.67
665.224	324.31
665.635	389.85
666.047	305.59
666.458	324.31
666.869	310.27
667.281	380.48
667.692	352.4
668.103	300.91
668.514	347.72
668.925	340.69
669.336	319.63
669.747	291.54
670.158	345.38
670.569	387.5
670.979	256.43
671.39	293.88
671.801	378.14
672.211	310.27
672.622	359.42
673.032	387.5
673.443	303.25
673.853	321.97
674.263	303.25
674.674	284.52
675.084	312.61
675.494	293.88
675.904	410.91
676.314	265.8
676.724	293.88
677.134	340.69
677.544	336.01
677.953	371.12
678.363	340.69
678.773	312.61
679.182	307.93
679.592	338.35
680.001	300.91
680.411	298.56
680.82	256.43
681.23	357.08
681.639	396.87
682.048	265.8
682.457	328.99
682.866	331.33
683.275	303.25
683.684	275.16
684.093	331.33
684.502	303.25
684.911	270.48
685.32	359.42
685.728	331.33
686.137	354.74
686.546	326.65
686.954	371.12
687.363	331.33
687.771	326.65
688.179	282.18
688.588	310.27
688.996	319.63
689.404	275.16
689.812	338.35
690.22	312.61
690.628	345.38
691.036	293.88
691.444	331.33
691.852	303.25
692.26	350.06
692.667	328.99
693.075	340.69
693.483	340.69
693.89	289.2
694.298	331.33
694.705	312.61
695.112	378.14
695.52	307.93
695.927	305.59
696.334	289.2
696.741	303.25
697.148	289.2
697.555	357.08
697.962	380.48
698.369	338.35
698.776	340.69
699.183	319.63
699.59	336.01
699.996	319.63
700.403	303.25
700.81	326.65
701.216	293.88
701.623	366.44
702.029	312.61
702.435	312.61
702.842	343.03
703.248	293.88
703.654	275.16
704.06	336.01
704.466	317.29
704.872	296.22
705.278	326.65
705.684	336.01
706.09	366.44
706.496	399.21
706.901	305.59
707.307	305.59
707.712	310.27
708.118	364.1
708.523	286.86
708.929	394.53
709.334	347.72
709.74	331.33
710.145	300.91
710.55	347.72
710.955	326.65
711.36	303.25
711.765	279.84
712.17	321.97
712.575	387.5
712.98	937.53
713.385	364.1
713.789	333.67
714.194	303.25
714.599	303.25
715.003	289.2
715.408	282.18
715.812	347.72
716.217	364.1
716.621	326.65
717.025	319.63
717.429	275.16
717.833	331.33
718.238	314.95
718.642	277.5
719.046	340.69
719.449	265.8
719.853	317.29
720.257	319.63
720.661	305.59
721.065	326.65
721.468	359.42
721.872	352.4
722.275	261.12
722.679	314.95
723.082	291.54
723.485	317.29
723.889	272.82
724.292	282.18
724.695	310.27
725.098	387.5
725.501	333.67
725.904	247.07
726.307	317.29
726.71	270.48
727.113	382.82
727.516	268.14
727.918	293.88
728.321	286.86
728.724	319.63
729.126	328.99
729.529	324.31
729.931	284.52
730.333	244.73
730.736	265.8
731.138	284.52
731.54	324.31
731.942	354.74
732.344	368.78
732.746	279.84
733.148	293.88
733.55	343.03
733.952	310.27
734.354	270.48
734.756	291.54
735.157	279.84
735.559	291.54
735.96	326.65
736.362	282.18
736.763	364.1
737.165	319.63
737.566	317.29
737.967	207.28
738.368	312.61
738.77	244.73
739.171	368.78
739.572	305.59
739.973	284.52
740.374	279.84
740.774	270.48
741.175	275.16
741.576	282.18
741.977	279.84
742.377	277.5
742.778	361.76
743.178	326.65
743.579	401.55
743.979	305.59
744.379	324.31
744.78	343.03
745.18	371.12
745.58	352.4
745.98	352.4
746.38	277.5
746.78	380.48
747.18	319.63
747.58	333.67
747.98	319.63
748.38	286.86
748.779	263.46
749.179	336.01
749.578	282.18
749.978	265.8
750.377	324.31
750.777	321.97
751.176	371.12
751.575	251.75
751.975	331.33
752.374	338.35
752.773	293.88
753.172	328.99
753.571	291.54
753.97	321.97
754.369	312.61
754.768	247.07
755.166	331.33
755.565	237.71
755.964	354.74
756.362	312.61
756.761	345.38
757.159	345.38
757.558	354.74
757.956	296.22
758.354	307.93
758.753	328.99
759.151	282.18
759.549	319.63
759.947	286.86
760.345	272.82
760.743	293.88
761.141	279.84
761.539	354.74
761.936	338.35
762.334	293.88
762.732	312.61
763.129	244.73
763.527	300.91
763.924	331.33
764.322	321.97
764.719	270.48
765.117	303.25
765.514	326.65
765.911	321.97
766.308	289.2
766.705	310.27
767.102	247.07
767.499	314.95
767.896	307.93
768.293	286.86
768.69	326.65
769.086	331.33
769.483	366.44
769.88	300.91
770.276	305.59
770.673	366.44
771.069	317.29
771.466	364.1
771.862	321.97
772.258	300.91
772.654	368.78
773.05	291.54
773.447	314.95
773.843	303.25
774.239	270.48
774.634	448.36
775.03	317.29
775.426	352.4
775.822	321.97
776.218	300.91
776.613	286.86
777.009	333.67
777.404	328.99
777.8	270.48
778.195	307.93
778.59	305.59
778.986	277.5
779.381	303.25
779.776	268.14
780.171	300.91
780.566	310.27
780.961	296.22
781.356	279.84
781.751	319.63
782.146	354.74
782.54	312.61
782.935	343.03
783.33	310.27
783.724	298.56
784.119	347.72
784.513	279.84
784.908	286.86
785.302	303.25
785.696	343.03
786.09	303.25
786.485	282.18
786.879	310.27
787.273	289.2
787.667	310.27
788.061	326.65
788.454	275.16
788.848	298.56
789.242	282.18
789.636	321.97
790.029	314.95
790.423	293.88
790.816	347.72
791.21	233.03
791.603	279.84
791.997	314.95
792.39	326.65
792.783	298.56
793.176	258.78
793.569	263.46
793.962	300.91
794.355	347.72
794.748	286.86
795.141	300.91
795.534	270.48
795.927	307.93
796.319	312.61
796.712	277.5
797.105	251.75
797.497	314.95
797.89	371.12
798.282	303.25
798.674	310.27
799.067	338.35
799.459	328.99
799.851	310.27
800.243	336.01
800.635	289.2
801.027	303.25
801.419	331.33
801.811	284.52
802.203	352.4
802.594	314.95
802.986	289.2
803.378	279.84
803.769	275.16
804.161	258.78
804.552	282.18
804.944	338.35
805.335	319.63
805.726	368.78
806.118	258.78
806.509	284.52
806.9	298.56
807.291	289.2
807.682	317.29
808.073	357.08
808.464	247.07
808.855	296.22
809.245	296.22
809.636	291.54
810.027	307.93
810.417	279.84
810.808	268.14
811.198	343.03
811.589	298.56
811.979	310.27
812.369	305.59
812.759	375.8
813.15	352.4
813.54	310.27
813.93	289.2
814.32	375.8
814.71	195.58
815.1	319.63
815.489	289.2
815.879	254.09
816.269	345.38
816.658	333.67
817.048	251.75
817.438	272.82
817.827	326.65
818.216	338.35
818.606	319.63
818.995	310.27
819.384	270.48
819.773	282.18
820.163	331.33
820.552	373.46
820.941	303.25
821.33	268.14
821.718	289.2
822.107	326.65
822.496	296.22
822.885	279.84
823.273	314.95
823.662	361.76
824.05	343.03
824.439	268.14
824.827	277.5
825.216	291.54
825.604	343.03
825.992	258.78
826.38	357.08
826.768	314.95
827.156	275.16
827.544	333.67
827.932	343.03
828.32	331.33
828.708	300.91
829.096	284.52
829.483	347.72
829.871	249.41
830.259	256.43
830.646	242.39
831.034	303.25
831.421	368.78
831.808	272.82
832.196	312.61
832.583	319.63
832.97	312.61
833.357	340.69
833.744	270.48
834.131	303.25
834.518	284.52
834.905	284.52
835.292	340.69
835.678	268.14
836.065	298.56
836.452	303.25
836.838	237.71
837.225	317.29
837.611	277.5
837.998	385.16
838.384	279.84
838.77	359.42
839.157	314.95
839.543	296.22
839.929	275.16
840.315	314.95
840.701	321.97
841.087	282.18
841.473	300.91
841.858	312.61
842.244	277.5
842.63	303.25
843.015	303.25
843.401	598.15
843.787	368.78
844.172	314.95
844.557	373.46
844.943	312.61
845.328	314.95
845.713	340.69
846.098	324.31
846.483	254.09
846.868	265.8
847.253	361.76
847.638	251.75
848.023	385.16
848.408	340.69
848.793	387.5
849.177	324.31
849.562	328.99
849.947	307.93
850.331	321.97
850.715	326.65
851.1	291.54
851.484	331.33
851.868	263.46
852.253	303.25
852.637	296.22
853.021	265.8
853.405	350.06
853.789	312.61
854.173	251.75
854.557	361.76
854.94	261.12
855.324	293.88
855.708	293.88
856.091	296.22
856.475	357.08
856.858	249.41
857.242	279.84
857.625	317.29
858.009	338.35
858.392	345.38
858.775	277.5
859.158	371.12
859.541	352.4
859.924	321.97
860.307	249.41
860.69	338.35
861.073	361.76
861.456	282.18
861.838	359.42
862.221	324.31
862.604	298.56
862.986	314.95
863.369	345.38
863.751	317.29
864.133	296.22
864.516	300.91
864.898	300.91
865.28	268.14
865.662	291.54
866.044	352.4
866.426	317.29
866.808	340.69
867.19	310.27
867.572	279.84
867.954	357.08
868.336	314.95
868.717	331.33
869.099	364.1
869.48	277.5
869.862	336.01
870.243	328.99
870.625	321.97
871.006	333.67
871.387	371.12
871.768	300.91
872.149	321.97
872.53	247.07
872.911	305.59
873.292	343.03
873.673	256.43
874.054	293.88
874.435	326.65
874.815	291.54
875.196	291.54
875.577	214.31
875.957	312.61
876.338	347.72
876.718	401.55
877.098	317.29
877.479	249.41
877.859	303.25
878.239	279.84
878.619	249.41
878.999	268.14
879.379	319.63
879.759	298.56
880.139	272.82
880.519	286.86
880.898	352.4
881.278	261.12
881.658	333.67
882.037	293.88
882.417	286.86
882.796	263.46
883.176	328.99
883.555	328.99
883.934	321.97
884.313	319.63
884.693	303.25
885.072	237.71
885.451	289.2
885.83	326.65
886.209	326.65
886.587	378.14
886.966	275.16
887.345	277.5
887.724	324.31
888.102	300.91
888.481	317.29
888.859	364.1
889.238	319.63
889.616	324.31
889.994	275.16
890.373	333.67
890.751	272.82
891.129	289.2
891.507	300.91
891.885	336.01
892.263	282.18
892.641	331.33
893.019	310.27
893.396	340.69
893.774	305.59
894.152	307.93
894.529	317.29
894.907	251.75
895.284	298.56
895.662	263.46
896.039	314.95
896.416	319.63
896.794	310.27
897.171	319.63
897.548	359.42
897.925	338.35
898.302	270.48
898.679	298.56
899.056	270.48
899.433	279.84
899.809	289.2
900.186	380.48
900.563	305.59
900.939	282.18
901.316	249.41
901.692	310.27
902.069	361.76
902.445	314.95
902.821	326.65
903.197	310.27
903.574	312.61
903.95	305.59
904.326	338.35
904.702	343.03
905.078	284.52
905.454	317.29
905.829	282.18
906.205	265.8
906.581	314.95
906.956	336.01
907.332	305.59
907.707	368.78
908.083	321.97
908.458	357.08
908.833	385.16
909.209	314.95
909.584	275.16
909.959	326.65
910.334	392.19
910.709	368.78
911.084	230.69
911.459	289.2
911.834	380.48
912.209	310.27
912.583	275.16
912.958	258.78
913.333	277.5
913.707	324.31
914.082	429.63
914.456	237.71
914.83	263.46
915.205	343.03
915.579	258.78
915.953	305.59
916.327	242.39
916.701	242.39
917.075	338.35
917.449	296.22
917.823	263.46
918.197	268.14
918.571	328.99
918.944	256.43
919.318	375.8
919.692	303.25
920.065	286.86
920.438	307.93
920.812	298.56
921.185	284.52
921.558	354.74
921.932	343.03
922.305	263.46
922.678	305.59
923.051	307.93
923.424	254.09
923.797	230.69
924.17	298.56
924.542	272.82
924.915	226.01
925.288	317.29
925.661	328.99
926.033	249.41
926.406	289.2
926.778	317.29
927.15	338.35
927.523	261.12
927.895	319.63
928.267	286.86
928.639	286.86
929.011	279.84
929.383	277.5
929.755	247.07
930.127	310.27
930.499	310.27
930.871	300.91
931.242	328.99
931.614	321.97
931.986	321.97
932.357	265.8
932.729	331.33
933.1	270.48
933.471	303.25
933.843	312.61
934.214	214.31
934.585	303.25
934.956	305.59
935.327	261.12
935.698	275.16
936.069	277.5
936.44	317.29
936.811	347.72
937.182	268.14
937.552	275.16
937.923	268.14
938.293	343.03
938.664	233.03
939.034	319.63
939.405	303.25
939.775	291.54
940.145	291.54
940.516	347.72
940.886	303.25
941.256	279.84
941.626	303.25
941.996	321.97
942.366	350.06
942.735	321.97
943.105	286.86
943.475	284.52
943.845	340.69
944.214	303.25
944.584	293.88
944.953	282.18
945.323	331.33
945.692	326.65
946.061	279.84
946.43	209.62
946.8	326.65
947.169	298.56
947.538	240.05
947.907	221.33
948.276	284.52
948.645	328.99
949.013	300.91
949.382	277.5
949.751	328.99
950.119	303.25
950.488	289.2
950.857	378.14
951.225	221.33
951.593	265.8
951.962	331.33
952.33	296.22
952.698	256.43
953.066	347.72
953.434	293.88
953.802	270.48
954.17	258.78
954.538	200.26
954.906	265.8
955.274	293.88
955.642	314.95
956.009	272.82
956.377	307.93
956.744	261.12
957.112	336.01
957.479	286.86
957.847	321.97
958.214	319.63
958.581	328.99
958.948	347.72
959.315	324.31
959.683	326.65
960.05	321.97
960.416	359.42
960.783	228.35
961.15	272.82
961.517	296.22
961.884	233.03
962.25	298.56
962.617	331.33
962.983	345.38
963.35	361.76
963.716	277.5
964.082	291.54
964.449	298.56
964.815	300.91
965.181	333.67
965.547	338.35
965.913	345.38
966.279	324.31
966.645	270.48
967.011	300.91
967.377	279.84
967.742	314.95
968.108	328.99
968.474	296.22
968.839	326.65
969.205	310.27
969.57	305.59
969.935	289.2
970.301	258.78
970.666	296.22
971.031	321.97
971.396	319.63
971.761	371.12
972.126	286.86
972.491	282.18
972.856	261.12
973.221	279.84
973.586	277.5
973.95	296.22
974.315	284.52
974.679	324.31
975.044	240.05
975.408	310.27
975.773	263.46
976.137	284.52
976.501	263.46
976.866	300.91
977.23	303.25
977.594	293.88
977.958	303.25
978.322	270.48
978.686	312.61
979.049	261.12
979.413	326.65
979.777	321.97
980.141	324.31
980.504	293.88
980.868	263.46
981.231	244.73
981.595	298.56
981.958	291.54
982.321	307.93
982.684	284.52
983.048	331.33
983.411	254.09
983.774	242.39
984.137	286.86
984.5	284.52
984.862	331.33
985.225	340.69
985.588	282.18
985.951	366.44
986.313	326.65
986.676	331.33
987.038	336.01
987.401	228.35
987.763	340.69
988.125	300.91
988.488	345.38
988.85	319.63
989.212	317.29
989.574	270.48
989.936	293.88
990.298	324.31
990.66	336.01
991.022	319.63
991.383	305.59
991.745	345.38
992.107	314.95
992.468	319.63
992.83	298.56
993.191	361.76
993.553	263.46
993.914	300.91
994.275	204.94
994.637	310.27
994.998	258.78
995.359	326.65
995.72	275.16
996.081	324.31
996.442	289.2
996.803	291.54
997.163	296.22
997.524	359.42
997.885	328.99
998.245	310.27
998.606	275.16
998.966	300.91
999.327	340.69
999.687	350.06
1000.047	307.93
1000.408	345.38
1000.768	312.61
1001.128	321.97
1001.488	303.25
1001.848	324.31
1002.208	254.09
1002.568	247.07
1002.927	336.01
1003.287	275.16
1003.647	357.08
1004.007	312.61
1004.366	331.33
1004.726	338.35
1005.085	284.52
1005.444	317.29
1005.804	303.25
1006.163	279.84
1006.522	293.88
1006.881	312.61
1007.24	328.99
1007.599	275.16
1007.958	286.86
1008.317	298.56
1008.676	368.78
1009.035	307.93
1009.393	354.74
1009.752	296.22
1010.111	310.27
1010.469	331.33
1010.828	385.16
1011.186	366.44
1011.544	328.99
1011.903	326.65
1012.261	331.33
1012.619	331.33
1012.977	275.16
1013.335	251.75
1013.693	310.27
1014.051	242.39
1014.409	307.93
1014.767	256.43
1015.124	183.88
1015.482	275.16
1015.84	296.22
1016.197	286.86
1016.555	359.42
1016.912	300.91
1017.269	350.06
1017.627	314.95
1017.984	343.03
1018.341	345.38
1018.698	289.2
1019.055	293.88
1019.412	300.91
1019.769	314.95
1020.126	338.35
1020.483	319.63
1020.84	279.84
1021.196	307.93
1021.553	338.35
1021.909	345.38
1022.266	312.61
1022.622	319.63
1022.979	319.63
1023.335	326.65
1023.691	343.03
1024.047	228.35
1024.404	228.35
1024.76	326.65
1025.116	296.22
1025.472	352.4
1025.827	336.01
1026.183	279.84
1026.539	272.82
1026.895	258.78
1027.25	296.22
1027.606	366.44
1027.961	347.72
1028.317	284.52
1028.672	282.18
1029.028	277.5
1029.383	237.71
1029.738	312.61
1030.093	251.75
1030.448	303.25
1030.803	314.95
1031.158	298.56
1031.513	270.48
1031.868	338.35
1032.223	317.29
1032.577	254.09
1032.932	268.14
1033.287	305.59
1033.641	303.25
1033.996	282.18
1034.35	326.65
1034.704	310.27
1035.059	310.27
1035.413	321.97
1035.767	321.97
1036.121	321.97
