Data from Al_FLMS009871__311__12-24-06-642.txt Node

Date: Fri Mar 08 12:24:06 CST 2024
User: pe5414po
Spectrometer: FLMS00987
Trigger mode: 0
Integration Time (sec): 1.000000E-1
Scans to average: 1
Electric dark correction enabled: true
Nonlinearity correction enabled: false
Boxcar width: 0
XAxis mode: Wavelengths
Number of Pixels in Spectrum: 2048
>>>>>Begin Spectral Data<<<<<
188.938	-83.97
189.409	-83.97
189.879	-83.97
190.349	-76.95
190.819	-102.69
191.29	-20.77
191.76	-65.24
192.23	-109.71
192.7	-83.97
193.17	-58.22
193.64	0.29
194.109	-39.5
194.579	-30.13
195.049	-6.73
195.519	70.51
195.988	-2.05
196.458	65.83
196.927	19.02
197.397	114.98
197.866	75.19
198.336	70.51
198.805	180.51
199.274	119.66
199.744	203.92
200.213	110.3
200.682	182.85
201.151	194.56
201.62	239.03
202.089	229.67
202.558	253.07
203.027	239.03
203.495	313.92
203.964	290.52
204.433	276.48
204.902	320.95
205.37	243.71
205.839	262.43
206.307	320.95
206.776	290.52
207.244	288.18
207.712	344.35
208.181	302.22
208.649	260.09
209.117	292.86
209.585	276.48
210.053	299.88
210.521	250.73
210.989	318.61
211.457	264.77
211.925	253.07
212.393	311.58
212.861	257.75
213.328	367.76
213.796	283.5
214.264	339.67
214.731	320.95
215.199	248.39
215.666	246.05
216.133	194.56
216.601	208.6
217.068	292.86
217.535	257.75
218.003	250.73
218.47	299.88
218.937	246.05
219.404	250.73
219.871	248.39
220.338	323.29
220.805	241.37
221.271	250.73
221.738	299.88
222.205	295.2
222.671	290.52
223.138	229.67
223.605	262.43
224.071	283.5
224.538	313.92
225.004	246.05
225.47	323.29
225.937	283.5
226.403	269.45
226.869	267.11
227.335	339.67
227.801	318.61
228.267	297.54
228.733	243.71
229.199	342.01
229.665	255.41
230.131	297.54
230.597	285.84
231.062	255.41
231.528	253.07
231.994	278.82
232.459	271.79
232.925	257.75
233.39	250.73
233.856	250.73
234.321	215.62
234.786	330.31
235.252	271.79
235.717	304.56
236.182	257.75
236.647	288.18
237.112	255.41
237.577	274.14
238.042	285.84
238.507	243.71
238.972	243.71
239.436	288.18
239.901	269.45
240.366	267.11
240.83	292.86
241.295	274.14
241.76	257.75
242.224	243.71
242.688	271.79
243.153	278.82
243.617	330.31
244.081	239.03
244.545	260.09
245.01	316.26
245.474	304.56
245.938	297.54
246.402	257.75
246.866	257.75
247.33	323.29
247.793	229.67
248.257	262.43
248.721	253.07
249.185	234.35
249.648	224.98
250.112	276.48
250.575	297.54
251.039	325.63
251.502	278.82
251.965	274.14
252.429	253.07
252.892	243.71
253.355	299.88
253.818	281.16
254.281	316.26
254.744	227.32
255.207	260.09
255.67	330.31
256.133	236.69
256.596	243.71
257.059	283.5
257.522	281.16
257.984	236.69
258.447	297.54
258.909	325.63
259.372	241.37
259.834	283.5
260.297	269.45
260.759	239.03
261.221	323.29
261.684	262.43
262.146	269.45
262.608	285.84
263.07	276.48
263.532	309.24
263.994	283.5
264.456	332.65
264.918	271.79
265.38	229.67
265.842	260.09
266.303	302.22
266.765	257.75
267.227	302.22
267.688	290.52
268.15	299.88
268.611	316.26
269.072	248.39
269.534	306.9
269.995	250.73
270.456	236.69
270.918	281.16
271.379	295.2
271.84	323.29
272.301	224.98
272.762	320.95
273.223	288.18
273.684	370.1
274.144	332.65
274.605	311.58
275.066	255.41
275.527	323.29
275.987	318.61
276.448	243.71
276.908	208.6
277.369	297.54
277.829	281.16
278.289	297.54
278.75	278.82
279.21	222.64
279.67	323.29
280.13	246.05
280.59	342.01
281.05	248.39
281.51	243.71
281.97	342.01
282.43	255.41
282.89	285.84
283.35	224.98
283.809	269.45
284.269	295.2
284.729	260.09
285.188	332.65
285.648	311.58
286.107	356.05
286.567	281.16
287.026	295.2
287.485	285.84
287.944	292.86
288.404	278.82
288.863	330.31
289.322	248.39
289.781	309.24
290.24	297.54
290.699	271.79
291.158	311.58
291.616	290.52
292.075	246.05
292.534	342.01
292.992	316.26
293.451	232.01
293.91	288.18
294.368	330.31
294.827	370.1
295.285	262.43
295.743	267.11
296.202	257.75
296.66	325.63
297.118	267.11
297.576	334.99
298.034	309.24
298.492	309.24
298.95	295.2
299.408	295.2
299.866	295.2
300.324	316.26
300.781	306.9
301.239	290.52
301.697	351.37
302.154	327.97
302.612	285.84
303.069	285.84
303.527	269.45
303.984	327.97
304.441	325.63
304.899	281.16
305.356	332.65
305.813	248.39
306.27	367.76
306.727	295.2
307.184	302.22
307.641	253.07
308.098	304.56
308.555	334.99
309.012	290.52
309.468	269.45
309.925	316.26
310.382	262.43
310.838	262.43
311.295	278.82
311.751	299.88
312.208	332.65
312.664	269.45
313.12	330.31
313.577	313.92
314.033	288.18
314.489	281.16
314.945	304.56
315.401	260.09
315.857	337.33
316.313	318.61
316.769	274.14
317.225	239.03
317.681	290.52
318.136	302.22
318.592	344.35
319.048	311.58
319.503	337.33
319.959	264.77
320.414	311.58
320.869	351.37
321.325	311.58
321.78	330.31
322.235	278.82
322.691	255.41
323.146	346.69
323.601	292.86
324.056	302.22
324.511	337.33
324.966	274.14
325.421	339.67
325.875	189.88
326.33	325.63
326.785	363.08
327.24	325.63
327.694	302.22
328.149	330.31
328.603	281.16
329.058	299.88
329.512	271.79
329.966	269.45
330.421	264.77
330.875	363.08
331.329	320.95
331.783	255.41
332.237	356.05
332.691	283.5
333.145	299.88
333.599	288.18
334.053	283.5
334.507	302.22
334.96	330.31
335.414	292.86
335.868	318.61
336.321	250.73
336.775	278.82
337.228	288.18
337.682	288.18
338.135	250.73
338.588	332.65
339.042	327.97
339.495	299.88
339.948	342.01
340.401	309.24
340.854	388.82
341.307	381.8
341.76	283.5
342.213	295.2
342.666	311.58
343.119	337.33
343.571	304.56
344.024	227.32
344.477	346.69
344.929	297.54
345.382	292.86
345.834	327.97
346.287	278.82
346.739	288.18
347.191	285.84
347.644	311.58
348.096	283.5
348.548	318.61
349	342.01
349.452	295.2
349.904	311.58
350.356	264.77
350.808	297.54
351.26	299.88
351.711	327.97
352.163	330.31
352.615	288.18
353.066	299.88
353.518	339.67
353.969	283.5
354.421	320.95
354.872	281.16
355.324	292.86
355.775	302.22
356.226	255.41
356.677	325.63
357.128	316.26
357.579	306.9
358.03	288.18
358.481	316.26
358.932	295.2
359.383	285.84
359.834	281.16
360.285	239.03
360.735	271.79
361.186	309.24
361.637	337.33
362.087	269.45
362.538	351.37
362.988	302.22
363.438	330.31
363.889	334.99
364.339	281.16
364.789	262.43
365.239	330.31
365.689	274.14
366.139	290.52
366.589	344.35
367.039	297.54
367.489	288.18
367.939	367.76
368.389	292.86
368.839	374.78
369.288	299.88
369.738	332.65
370.187	255.41
370.637	325.63
371.086	292.86
371.536	269.45
371.985	313.92
372.434	325.63
372.884	365.42
373.333	316.26
373.782	327.97
374.231	262.43
374.68	318.61
375.129	391.16
375.578	365.42
376.027	311.58
376.475	278.82
376.924	353.71
377.373	351.37
377.822	316.26
378.27	316.26
378.719	313.92
379.167	346.69
379.616	323.29
380.064	356.05
380.512	239.03
380.961	285.84
381.409	344.35
381.857	299.88
382.305	260.09
382.753	295.2
383.201	356.05
383.649	332.65
384.097	377.12
384.545	323.29
384.992	332.65
385.44	330.31
385.888	262.43
386.335	302.22
386.783	285.84
387.231	360.74
387.678	339.67
388.125	349.03
388.573	246.05
389.02	267.11
389.467	309.24
389.914	269.45
390.362	325.63
390.809	264.77
391.256	295.2
391.703	306.9
392.15	374.78
392.596	356.05
393.043	302.22
393.49	299.88
393.937	323.29
394.383	278.82
394.83	405.21
395.276	274.14
395.723	391.16
396.169	257.75
396.616	323.29
397.062	260.09
397.508	246.05
397.954	332.65
398.401	295.2
398.847	323.29
399.293	318.61
399.739	325.63
400.185	346.69
400.631	356.05
401.076	262.43
401.522	274.14
401.968	346.69
402.414	288.18
402.859	363.08
403.305	283.5
403.75	334.99
404.196	278.82
404.641	318.61
405.086	379.46
405.532	330.31
405.977	342.01
406.422	332.65
406.867	320.95
407.312	342.01
407.757	283.5
408.202	337.33
408.647	332.65
409.092	334.99
409.537	365.42
409.982	353.71
410.426	358.39
410.871	285.84
411.316	290.52
411.76	302.22
412.205	351.37
412.649	372.44
413.093	309.24
413.538	246.05
413.982	320.95
414.426	356.05
414.87	262.43
415.314	363.08
415.758	325.63
416.202	358.39
416.646	320.95
417.09	274.14
417.534	285.84
417.978	365.42
418.421	339.67
418.865	353.71
419.309	320.95
419.752	299.88
420.196	288.18
420.639	316.26
421.083	323.29
421.526	320.95
421.969	330.31
422.412	360.74
422.856	356.05
423.299	370.1
423.742	391.16
424.185	349.03
424.628	402.86
425.071	325.63
425.513	342.01
425.956	346.69
426.399	372.44
426.842	353.71
427.284	370.1
427.727	356.05
428.169	367.76
428.612	393.5
429.054	459.04
429.497	365.42
429.939	386.48
430.381	372.44
430.823	381.8
431.265	372.44
431.707	353.71
432.149	386.48
432.591	393.5
433.033	444.99
433.475	477.76
433.917	393.5
434.359	400.52
434.8	433.29
435.242	491.81
435.684	526.91
436.125	526.91
436.567	449.68
437.008	456.7
437.449	416.91
437.891	456.7
438.332	494.15
438.773	405.21
439.214	468.4
439.656	477.76
440.097	426.27
440.538	463.72
440.978	409.89
441.419	526.91
441.86	447.33
442.301	473.08
442.742	505.85
443.182	496.49
443.623	564.36
444.063	543.3
444.504	533.93
444.944	494.15
445.385	550.32
445.825	461.38
446.265	512.87
446.706	559.68
447.146	501.17
447.586	566.7
448.026	601.81
448.466	594.79
448.906	519.89
449.346	519.89
449.786	463.72
450.225	475.42
450.665	547.98
451.105	510.53
451.544	571.38
451.984	468.4
452.424	487.12
452.863	482.44
453.302	473.08
453.742	489.46
454.181	480.1
454.62	512.87
455.059	444.99
455.499	468.4
455.938	452.02
456.377	386.48
456.816	491.81
457.254	543.3
457.693	475.42
458.132	377.12
458.571	461.38
459.01	426.27
459.448	452.02
459.887	412.23
460.325	433.29
460.764	433.29
461.202	454.36
461.641	409.89
462.079	381.8
462.517	400.52
462.955	409.89
463.393	449.68
463.832	398.18
464.27	430.95
464.708	407.55
465.145	430.95
465.583	409.89
466.021	454.36
466.459	363.08
466.897	374.78
467.334	437.97
467.772	407.55
468.209	346.69
468.647	393.5
469.084	386.48
469.522	393.5
469.959	435.63
470.396	414.57
470.833	447.33
471.271	391.16
471.708	391.16
472.145	374.78
472.582	405.21
473.019	388.82
473.456	393.5
473.892	407.55
474.329	334.99
474.766	428.61
475.202	416.91
475.639	414.57
476.076	379.46
476.512	388.82
476.949	365.42
477.385	430.95
477.821	377.12
478.258	379.46
478.694	370.1
479.13	339.67
479.566	400.52
480.002	405.21
480.438	426.27
480.874	337.33
481.31	391.16
481.746	370.1
482.181	400.52
482.617	393.5
483.053	433.29
483.488	473.08
483.924	421.59
484.36	398.18
484.795	423.93
485.23	419.25
485.666	421.59
486.101	461.38
486.536	468.4
486.971	381.8
487.407	454.36
487.842	409.89
488.277	419.25
488.712	414.57
489.146	449.68
489.581	473.08
490.016	426.27
490.451	398.18
490.885	512.87
491.32	367.76
491.755	463.72
492.189	398.18
492.624	398.18
493.058	412.23
493.492	423.93
493.927	398.18
494.361	398.18
494.795	416.91
495.229	334.99
495.663	423.93
496.097	360.74
496.531	370.1
496.965	398.18
497.399	435.63
497.833	414.57
498.266	435.63
498.7	444.99
499.134	384.14
499.567	426.27
500.001	437.97
500.434	402.86
500.868	379.46
501.301	442.65
501.734	402.86
502.168	473.08
502.601	428.61
503.034	379.46
503.467	377.12
503.9	447.33
504.333	426.27
504.766	393.5
505.199	454.36
505.632	405.21
506.064	468.4
506.497	351.37
506.93	433.29
507.362	454.36
507.795	386.48
508.227	377.12
508.66	402.86
509.092	395.84
509.524	421.59
509.956	395.84
510.389	349.03
510.821	381.8
511.253	433.29
511.685	386.48
512.117	381.8
512.549	447.33
512.981	407.55
513.412	395.84
513.844	405.21
514.276	459.04
514.707	430.95
515.139	473.08
515.571	386.48
516.002	461.38
516.433	452.02
516.865	363.08
517.296	370.1
517.727	423.93
518.159	447.33
518.59	498.83
519.021	487.12
519.452	421.59
519.883	423.93
520.314	388.82
520.744	423.93
521.175	461.38
521.606	414.57
522.037	456.7
522.467	351.37
522.898	419.25
523.328	409.89
523.759	475.42
524.189	440.31
524.62	473.08
525.05	449.68
525.48	393.5
525.91	416.91
526.341	437.97
526.771	473.08
527.201	386.48
527.631	423.93
528.061	435.63
528.49	449.68
528.92	426.27
529.35	433.29
529.78	447.33
530.209	393.5
530.639	423.93
531.068	444.99
531.498	391.16
531.927	454.36
532.357	419.25
532.786	442.65
533.215	505.85
533.644	416.91
534.074	412.23
534.503	407.55
534.932	480.1
535.361	395.84
535.79	435.63
536.218	437.97
536.647	426.27
537.076	494.15
537.505	395.84
537.933	533.93
538.362	473.08
538.79	491.81
539.219	463.72
539.647	400.52
540.076	508.19
540.504	552.66
540.932	501.17
541.36	613.51
541.788	683.73
542.217	662.66
542.645	690.75
543.073	711.82
543.5	758.63
543.928	746.92
544.356	585.43
544.784	730.54
545.211	779.69
545.639	746.92
546.067	707.13
546.494	627.56
546.922	550.32
547.349	559.68
547.776	524.57
548.204	501.17
548.631	484.78
549.058	477.76
549.485	473.08
549.912	512.87
550.339	533.93
550.766	510.53
551.193	508.19
551.62	477.76
552.047	449.68
552.474	461.38
552.9	482.44
553.327	517.55
553.754	494.15
554.18	423.93
554.607	456.7
555.033	459.04
555.459	419.25
555.886	459.04
556.312	452.02
556.738	374.78
557.164	442.65
557.59	440.31
558.016	470.74
558.442	470.74
558.868	433.29
559.294	442.65
559.72	377.12
560.145	405.21
560.571	409.89
560.997	405.21
561.422	475.42
561.848	405.21
562.273	353.71
562.699	421.59
563.124	428.61
563.549	351.37
563.974	456.7
564.4	388.82
564.825	419.25
565.25	435.63
565.675	412.23
566.1	454.36
566.525	402.86
566.95	421.59
567.374	449.68
567.799	470.74
568.224	384.14
568.648	423.93
569.073	442.65
569.497	414.57
569.922	419.25
570.346	405.21
570.771	409.89
571.195	447.33
571.619	456.7
572.043	416.91
572.467	428.61
572.891	393.5
573.315	426.27
573.739	421.59
574.163	449.68
574.587	440.31
575.011	447.33
575.435	430.95
575.858	400.52
576.282	414.57
576.705	419.25
577.129	384.14
577.552	470.74
577.976	421.59
578.399	414.57
578.822	459.04
579.245	419.25
579.669	414.57
580.092	484.78
580.515	480.1
580.938	494.15
581.361	440.31
581.784	517.55
582.206	473.08
582.629	536.28
583.052	491.81
583.474	480.1
583.897	466.06
584.32	491.81
584.742	461.38
585.165	501.17
585.587	503.51
586.009	491.81
586.431	426.27
586.854	517.55
587.276	538.62
587.698	524.57
588.12	449.68
588.542	435.63
588.964	433.29
589.386	491.81
589.807	428.61
590.229	456.7
590.651	444.99
591.073	423.93
591.494	449.68
591.916	468.4
592.337	426.27
592.759	407.55
593.18	428.61
593.601	358.39
594.022	377.12
594.444	356.05
594.865	449.68
595.286	398.18
595.707	386.48
596.128	400.52
596.549	433.29
596.97	391.16
597.39	421.59
597.811	405.21
598.232	384.14
598.652	447.33
599.073	421.59
599.494	419.25
599.914	377.12
600.334	428.61
600.755	426.27
601.175	400.52
601.595	388.82
602.015	428.61
602.436	388.82
602.856	557.34
603.276	360.74
603.696	332.65
604.115	346.69
604.535	323.29
604.955	421.59
605.375	388.82
605.794	360.74
606.214	325.63
606.634	398.18
607.053	442.65
607.473	426.27
607.892	388.82
608.311	412.23
608.731	491.81
609.15	494.15
609.569	501.17
609.988	627.56
610.407	775.01
610.826	730.54
611.245	824.16
611.664	796.07
612.083	742.24
612.501	693.09
612.92	583.09
613.339	578.4
613.757	620.53
614.176	550.32
614.594	494.15
615.013	480.1
615.431	388.82
615.85	442.65
616.268	416.91
616.686	365.42
617.104	452.02
617.522	374.78
617.94	395.84
618.358	449.68
618.776	400.52
619.194	400.52
619.612	414.57
620.03	419.25
620.447	395.84
620.865	379.46
621.282	412.23
621.7	395.84
622.117	412.23
622.535	409.89
622.952	402.86
623.369	334.99
623.787	386.48
624.204	423.93
624.621	430.95
625.038	391.16
625.455	370.1
625.872	391.16
626.289	377.12
626.706	391.16
627.123	440.31
627.539	412.23
627.956	416.91
628.373	372.44
628.789	356.05
629.206	395.84
629.622	353.71
630.038	304.56
630.455	370.1
630.871	442.65
631.287	419.25
631.703	351.37
632.12	365.42
632.536	379.46
632.952	334.99
633.368	356.05
633.783	332.65
634.199	428.61
634.615	360.74
635.031	360.74
635.446	288.18
635.862	337.33
636.277	351.37
636.693	281.16
637.108	337.33
637.524	407.55
637.939	311.58
638.354	351.37
638.77	292.86
639.185	316.26
639.6	370.1
640.015	325.63
640.43	327.97
640.845	395.84
641.259	374.78
641.674	365.42
642.089	356.05
642.504	330.31
642.918	292.86
643.333	339.67
643.747	344.35
644.162	367.76
644.576	386.48
644.991	363.08
645.405	405.21
645.819	313.92
646.233	292.86
646.647	320.95
647.061	365.42
647.475	334.99
647.889	342.01
648.303	372.44
648.717	339.67
649.131	306.9
649.545	351.37
649.958	313.92
650.372	370.1
650.785	349.03
651.199	374.78
651.612	327.97
652.026	365.42
652.439	337.33
652.852	344.35
653.266	339.67
653.679	367.76
654.092	377.12
654.505	330.31
654.918	351.37
655.331	353.71
655.744	302.22
656.156	306.9
656.569	372.44
656.982	342.01
657.394	370.1
657.807	334.99
658.22	346.69
658.632	412.23
659.044	370.1
659.457	253.07
659.869	351.37
660.281	437.97
660.693	278.82
661.106	337.33
661.518	330.31
661.93	388.82
662.342	327.97
662.754	290.52
663.165	353.71
663.577	302.22
663.989	313.92
664.401	334.99
664.812	339.67
665.224	346.69
665.635	311.58
666.047	332.65
666.458	299.88
666.869	339.67
667.281	344.35
667.692	306.9
668.103	356.05
668.514	377.12
668.925	288.18
669.336	346.69
669.747	304.56
670.158	325.63
670.569	288.18
670.979	327.97
671.39	339.67
671.801	290.52
672.211	318.61
672.622	299.88
673.032	344.35
673.443	349.03
673.853	311.58
674.263	400.52
674.674	334.99
675.084	379.46
675.494	255.41
675.904	302.22
676.314	299.88
676.724	388.82
677.134	356.05
677.544	306.9
677.953	302.22
678.363	311.58
678.773	351.37
679.182	274.14
679.592	323.29
680.001	363.08
680.411	306.9
680.82	313.92
681.23	320.95
681.639	318.61
682.048	323.29
682.457	299.88
682.866	384.14
683.275	302.22
683.684	344.35
684.093	304.56
684.502	325.63
684.911	306.9
685.32	325.63
685.728	370.1
686.137	412.23
686.546	295.2
686.954	398.18
687.363	337.33
687.771	365.42
688.179	330.31
688.588	276.48
688.996	318.61
689.404	306.9
689.812	246.05
690.22	334.99
690.628	304.56
691.036	320.95
691.444	346.69
691.852	320.95
692.26	313.92
692.667	360.74
693.075	363.08
693.483	278.82
693.89	330.31
694.298	271.79
694.705	337.33
695.112	342.01
695.52	271.79
695.927	292.86
696.334	320.95
696.741	288.18
697.148	276.48
697.555	325.63
697.962	330.31
698.369	334.99
698.776	304.56
699.183	351.37
699.59	281.16
699.996	320.95
700.403	285.84
700.81	267.11
701.216	304.56
701.623	260.09
702.029	325.63
702.435	290.52
702.842	342.01
703.248	332.65
703.654	285.84
704.06	332.65
704.466	386.48
704.872	243.71
705.278	351.37
705.684	379.46
706.09	276.48
706.496	353.71
706.901	353.71
707.307	327.97
707.712	365.42
708.118	313.92
708.523	388.82
708.929	351.37
709.334	302.22
709.74	325.63
710.145	398.18
710.55	327.97
710.955	318.61
711.36	306.9
711.765	393.5
712.17	365.42
712.575	344.35
712.98	976.3
713.385	407.55
713.789	344.35
714.194	367.76
714.599	313.92
715.003	344.35
715.408	337.33
715.812	281.16
716.217	297.54
716.621	313.92
717.025	327.97
717.429	363.08
717.833	316.26
718.238	267.11
718.642	346.69
719.046	292.86
719.449	281.16
719.853	332.65
720.257	253.07
720.661	255.41
721.065	302.22
721.468	339.67
721.872	309.24
722.275	306.9
722.679	283.5
723.082	302.22
723.485	320.95
723.889	292.86
724.292	299.88
724.695	363.08
725.098	283.5
725.501	297.54
725.904	339.67
726.307	292.86
726.71	299.88
727.113	353.71
727.516	285.84
727.918	334.99
728.321	306.9
728.724	269.45
729.126	299.88
729.529	365.42
729.931	257.75
730.333	299.88
730.736	318.61
731.138	363.08
731.54	349.03
731.942	346.69
732.344	306.9
732.746	320.95
733.148	356.05
733.55	288.18
733.952	358.39
734.354	267.11
734.756	297.54
735.157	320.95
735.559	342.01
735.96	250.73
736.362	332.65
736.763	257.75
737.165	320.95
737.566	318.61
737.967	351.37
738.368	276.48
738.77	309.24
739.171	386.48
739.572	302.22
739.973	299.88
740.374	281.16
740.774	264.77
741.175	292.86
741.576	302.22
741.977	311.58
742.377	302.22
742.778	283.5
743.178	325.63
743.579	302.22
743.979	283.5
744.379	274.14
744.78	339.67
745.18	360.74
745.58	330.31
745.98	325.63
746.38	288.18
746.78	330.31
747.18	267.11
747.58	320.95
747.98	332.65
748.38	285.84
748.779	339.67
749.179	337.33
749.578	330.31
749.978	309.24
750.377	384.14
750.777	349.03
751.176	264.77
751.575	302.22
751.975	334.99
752.374	292.86
752.773	330.31
753.172	278.82
753.571	311.58
753.97	351.37
754.369	386.48
754.768	288.18
755.166	281.16
755.565	302.22
755.964	346.69
756.362	363.08
756.761	304.56
757.159	283.5
757.558	349.03
757.956	269.45
758.354	342.01
758.753	346.69
759.151	302.22
759.549	330.31
759.947	318.61
760.345	290.52
760.743	297.54
761.141	255.41
761.539	358.39
761.936	330.31
762.334	302.22
762.732	285.84
763.129	297.54
763.527	325.63
763.924	278.82
764.322	330.31
764.719	323.29
765.117	313.92
765.514	323.29
765.911	281.16
766.308	325.63
766.705	337.33
767.102	313.92
767.499	327.97
767.896	306.9
768.293	295.2
768.69	302.22
769.086	346.69
769.483	269.45
769.88	234.35
770.276	271.79
770.673	316.26
771.069	339.67
771.466	239.03
771.862	316.26
772.258	241.37
772.654	262.43
773.05	334.99
773.447	262.43
773.843	374.78
774.239	304.56
774.634	344.35
775.03	290.52
775.426	316.26
775.822	344.35
776.218	295.2
776.613	342.01
777.009	292.86
777.404	346.69
777.8	285.84
778.195	253.07
778.59	356.05
778.986	367.76
779.381	283.5
779.776	281.16
780.171	269.45
780.566	302.22
780.961	325.63
781.356	391.16
781.751	349.03
782.146	295.2
782.54	292.86
782.935	290.52
783.33	220.3
783.724	349.03
784.119	346.69
784.513	311.58
784.908	306.9
785.302	309.24
785.696	278.82
786.09	344.35
786.485	302.22
786.879	327.97
787.273	274.14
787.667	304.56
788.061	271.79
788.454	255.41
788.848	316.26
789.242	274.14
789.636	379.46
790.029	255.41
790.423	236.69
790.816	299.88
791.21	372.44
791.603	309.24
791.997	339.67
792.39	311.58
792.783	320.95
793.176	323.29
793.569	353.71
793.962	292.86
794.355	297.54
794.748	358.39
795.141	281.16
795.534	342.01
795.927	288.18
796.319	388.82
796.712	302.22
797.105	330.31
797.497	299.88
797.89	299.88
798.282	313.92
798.674	316.26
799.067	386.48
799.459	325.63
799.851	260.09
800.243	309.24
800.635	281.16
801.027	372.44
801.419	262.43
801.811	313.92
802.203	334.99
802.594	311.58
802.986	262.43
803.378	288.18
803.769	318.61
804.161	327.97
804.552	316.26
804.944	269.45
805.335	295.2
805.726	297.54
806.118	260.09
806.509	262.43
806.9	323.29
807.291	304.56
807.682	281.16
808.073	327.97
808.464	320.95
808.855	281.16
809.245	304.56
809.636	311.58
810.027	339.67
810.417	325.63
810.808	320.95
811.198	346.69
811.589	353.71
811.979	311.58
812.369	327.97
812.759	377.12
813.15	311.58
813.54	323.29
813.93	297.54
814.32	311.58
814.71	302.22
815.1	241.37
815.489	327.97
815.879	299.88
816.269	330.31
816.658	288.18
817.048	239.03
817.438	377.12
817.827	316.26
818.216	274.14
818.606	337.33
818.995	299.88
819.384	302.22
819.773	309.24
820.163	330.31
820.552	367.76
820.941	311.58
821.33	325.63
821.718	311.58
822.107	334.99
822.496	306.9
822.885	311.58
823.273	304.56
823.662	302.22
824.05	309.24
824.439	253.07
824.827	250.73
825.216	304.56
825.604	297.54
825.992	339.67
826.38	330.31
826.768	285.84
827.156	356.05
827.544	295.2
827.932	292.86
828.32	292.86
828.708	299.88
829.096	311.58
829.483	271.79
829.871	363.08
830.259	302.22
830.646	288.18
831.034	274.14
831.421	302.22
831.808	327.97
832.196	241.37
832.583	346.69
832.97	325.63
833.357	381.8
833.744	316.26
834.131	276.48
834.518	222.64
834.905	332.65
835.292	318.61
835.678	337.33
836.065	313.92
836.452	304.56
836.838	309.24
837.225	325.63
837.611	339.67
837.998	290.52
838.384	285.84
838.77	311.58
839.157	332.65
839.543	325.63
839.929	330.31
840.315	257.75
840.701	250.73
841.087	309.24
841.473	304.56
841.858	292.86
842.244	313.92
842.63	309.24
843.015	330.31
843.401	711.82
843.787	334.99
844.172	267.11
844.557	339.67
844.943	260.09
845.328	292.86
845.713	271.79
846.098	285.84
846.483	292.86
846.868	262.43
847.253	283.5
847.638	297.54
848.023	262.43
848.408	292.86
848.793	283.5
849.177	330.31
849.562	318.61
849.947	302.22
850.331	325.63
850.715	325.63
851.1	241.37
851.484	274.14
851.868	325.63
852.253	323.29
852.637	370.1
853.021	281.16
853.405	264.77
853.789	267.11
854.173	281.16
854.557	281.16
854.94	330.31
855.324	320.95
855.708	351.37
856.091	316.26
856.475	283.5
856.858	358.39
857.242	372.44
857.625	327.97
858.009	299.88
858.392	339.67
858.775	325.63
859.158	285.84
859.541	269.45
859.924	269.45
860.307	264.77
860.69	337.33
861.073	276.48
861.456	360.74
861.838	332.65
862.221	255.41
862.604	339.67
862.986	337.33
863.369	332.65
863.751	346.69
864.133	306.9
864.516	269.45
864.898	283.5
865.28	276.48
865.662	320.95
866.044	327.97
866.426	253.07
866.808	316.26
867.19	304.56
867.572	325.63
867.954	325.63
868.336	339.67
868.717	304.56
869.099	313.92
869.48	299.88
869.862	342.01
870.243	288.18
870.625	332.65
871.006	267.11
871.387	353.71
871.768	379.46
872.149	356.05
872.53	398.18
872.911	281.16
873.292	299.88
873.673	243.71
874.054	316.26
874.435	365.42
874.815	353.71
875.196	316.26
875.577	325.63
875.957	285.84
876.338	227.32
876.718	360.74
877.098	299.88
877.479	271.79
877.859	384.14
878.239	292.86
878.619	299.88
878.999	260.09
879.379	330.31
879.759	283.5
880.139	330.31
880.519	344.35
880.898	384.14
881.278	334.99
881.658	264.77
882.037	297.54
882.417	267.11
882.796	264.77
883.176	342.01
883.555	283.5
883.934	313.92
884.313	215.62
884.693	316.26
885.072	318.61
885.451	269.45
885.83	356.05
886.209	288.18
886.587	374.78
886.966	367.76
887.345	379.46
887.724	302.22
888.102	262.43
888.481	353.71
888.859	306.9
889.238	309.24
889.616	260.09
889.994	241.37
890.373	285.84
890.751	290.52
891.129	283.5
891.507	299.88
891.885	313.92
892.263	229.67
892.641	306.9
893.019	325.63
893.396	316.26
893.774	351.37
894.152	285.84
894.529	313.92
894.907	257.75
895.284	281.16
895.662	309.24
896.039	262.43
896.416	318.61
896.794	327.97
897.171	232.01
897.548	292.86
897.925	311.58
898.302	274.14
898.679	353.71
899.056	323.29
899.433	344.35
899.809	288.18
900.186	278.82
900.563	285.84
900.939	360.74
901.316	309.24
901.692	337.33
902.069	337.33
902.445	309.24
902.821	318.61
903.197	302.22
903.574	297.54
903.95	297.54
904.326	232.01
904.702	292.86
905.078	330.31
905.454	285.84
905.829	346.69
906.205	327.97
906.581	278.82
906.956	353.71
907.332	285.84
907.707	344.35
908.083	330.31
908.458	384.14
908.833	318.61
909.209	356.05
909.584	313.92
909.959	278.82
910.334	316.26
910.709	311.58
911.084	283.5
911.459	337.33
911.834	379.46
912.209	276.48
912.583	344.35
912.958	269.45
913.333	297.54
913.707	271.79
914.082	337.33
914.456	262.43
914.83	309.24
915.205	313.92
915.579	344.35
915.953	349.03
916.327	316.26
916.701	306.9
917.075	332.65
917.449	337.33
917.823	334.99
918.197	323.29
918.571	267.11
918.944	295.2
919.318	325.63
919.692	323.29
920.065	304.56
920.438	304.56
920.812	304.56
921.185	309.24
921.558	337.33
921.932	248.39
922.305	304.56
922.678	304.56
923.051	246.05
923.424	325.63
923.797	285.84
924.17	262.43
924.542	337.33
924.915	311.58
925.288	313.92
925.661	267.11
926.033	311.58
926.406	311.58
926.778	278.82
927.15	337.33
927.523	281.16
927.895	283.5
928.267	330.31
928.639	309.24
929.011	292.86
929.383	297.54
929.755	250.73
930.127	302.22
930.499	232.01
930.871	316.26
931.242	267.11
931.614	346.69
931.986	311.58
932.357	327.97
932.729	267.11
933.1	267.11
933.471	353.71
933.843	325.63
934.214	302.22
934.585	323.29
934.956	299.88
935.327	309.24
935.698	309.24
936.069	306.9
936.44	318.61
936.811	349.03
937.182	283.5
937.552	306.9
937.923	351.37
938.293	302.22
938.664	311.58
939.034	292.86
939.405	248.39
939.775	323.29
940.145	297.54
940.516	278.82
940.886	306.9
941.256	342.01
941.626	304.56
941.996	365.42
942.366	332.65
942.735	309.24
943.105	332.65
943.475	309.24
943.845	353.71
944.214	295.2
944.584	311.58
944.953	281.16
945.323	316.26
945.692	304.56
946.061	323.29
946.43	292.86
946.8	353.71
947.169	342.01
947.538	370.1
947.907	267.11
948.276	297.54
948.645	299.88
949.013	337.33
949.382	318.61
949.751	271.79
950.119	257.75
950.488	320.95
950.857	306.9
951.225	250.73
951.593	297.54
951.962	304.56
952.33	264.77
952.698	299.88
953.066	313.92
953.434	337.33
953.802	360.74
954.17	353.71
954.538	250.73
954.906	299.88
955.274	320.95
955.642	285.84
956.009	262.43
956.377	290.52
956.744	325.63
957.112	260.09
957.479	285.84
957.847	283.5
958.214	325.63
958.581	309.24
958.948	332.65
959.315	299.88
959.683	306.9
960.05	299.88
960.416	325.63
960.783	360.74
961.15	358.39
961.517	337.33
961.884	306.9
962.25	262.43
962.617	285.84
962.983	288.18
963.35	353.71
963.716	309.24
964.082	358.39
964.449	318.61
964.815	337.33
965.181	332.65
965.547	306.9
965.913	297.54
966.279	358.39
966.645	297.54
967.011	257.75
967.377	239.03
967.742	342.01
968.108	278.82
968.474	257.75
968.839	290.52
969.205	309.24
969.57	323.29
969.935	281.16
970.301	299.88
970.666	325.63
971.031	302.22
971.396	257.75
971.761	269.45
972.126	344.35
972.491	370.1
972.856	320.95
973.221	295.2
973.586	342.01
973.95	342.01
974.315	351.37
974.679	274.14
975.044	299.88
975.408	285.84
975.773	281.16
976.137	281.16
976.501	302.22
976.866	306.9
977.23	360.74
977.594	330.31
977.958	405.21
978.322	358.39
978.686	299.88
979.049	309.24
979.413	260.09
979.777	320.95
980.141	316.26
980.504	349.03
980.868	306.9
981.231	346.69
981.595	246.05
981.958	295.2
982.321	274.14
982.684	285.84
983.048	278.82
983.411	311.58
983.774	290.52
984.137	274.14
984.5	342.01
984.862	313.92
985.225	306.9
985.588	349.03
985.951	278.82
986.313	323.29
986.676	309.24
987.038	299.88
987.401	241.37
987.763	281.16
988.125	332.65
988.488	316.26
988.85	306.9
989.212	323.29
989.574	320.95
989.936	309.24
990.298	271.79
990.66	313.92
991.022	299.88
991.383	377.12
991.745	316.26
992.107	260.09
992.468	342.01
992.83	260.09
993.191	344.35
993.553	295.2
993.914	327.97
994.275	271.79
994.637	318.61
994.998	285.84
995.359	299.88
995.72	311.58
996.081	316.26
996.442	274.14
996.803	304.56
997.163	349.03
997.524	344.35
997.885	295.2
998.245	288.18
998.606	257.75
998.966	320.95
999.327	253.07
999.687	262.43
1000.047	332.65
1000.408	304.56
1000.768	283.5
1001.128	302.22
1001.488	274.14
1001.848	295.2
1002.208	323.29
1002.568	325.63
1002.927	241.37
1003.287	292.86
1003.647	337.33
1004.007	346.69
1004.366	327.97
1004.726	285.84
1005.085	334.99
1005.444	306.9
1005.804	330.31
1006.163	334.99
1006.522	356.05
1006.881	332.65
1007.24	285.84
1007.599	306.9
1007.958	304.56
1008.317	363.08
1008.676	318.61
1009.035	351.37
1009.393	285.84
1009.752	351.37
1010.111	342.01
1010.469	297.54
1010.828	299.88
1011.186	304.56
1011.544	267.11
1011.903	210.94
1012.261	384.14
1012.619	260.09
1012.977	276.48
1013.335	351.37
1013.693	257.75
1014.051	311.58
1014.409	313.92
1014.767	304.56
1015.124	309.24
1015.482	304.56
1015.84	274.14
1016.197	299.88
1016.555	313.92
1016.912	311.58
1017.269	253.07
1017.627	297.54
1017.984	283.5
1018.341	290.52
1018.698	344.35
1019.055	330.31
1019.412	309.24
1019.769	363.08
1020.126	344.35
1020.483	290.52
1020.84	330.31
1021.196	334.99
1021.553	262.43
1021.909	304.56
1022.266	320.95
1022.622	302.22
1022.979	318.61
1023.335	339.67
1023.691	295.2
1024.047	227.32
1024.404	330.31
1024.76	292.86
1025.116	199.24
1025.472	262.43
1025.827	292.86
1026.183	358.39
1026.539	274.14
1026.895	217.96
1027.25	386.48
1027.606	320.95
1027.961	260.09
1028.317	255.41
1028.672	316.26
1029.028	255.41
1029.383	292.86
1029.738	313.92
1030.093	316.26
1030.448	309.24
1030.803	297.54
1031.158	246.05
1031.513	304.56
1031.868	337.33
1032.223	283.5
1032.577	285.84
1032.932	311.58
1033.287	262.43
1033.641	330.31
1033.996	339.67
1034.35	365.42
1034.704	302.22
1035.059	236.69
1035.413	414.57
1035.767	414.57
1036.121	414.57
