Data from Al_FLMS009871__304__12-24-05-942.txt Node

Date: Fri Mar 08 12:24:05 CST 2024
User: pe5414po
Spectrometer: FLMS00987
Trigger mode: 0
Integration Time (sec): 1.000000E-1
Scans to average: 1
Electric dark correction enabled: true
Nonlinearity correction enabled: false
Boxcar width: 0
XAxis mode: Wavelengths
Number of Pixels in Spectrum: 2048
>>>>>Begin Spectral Data<<<<<
188.938	-83.67
189.409	-83.67
189.879	-83.67
190.349	-76.65
190.819	-90.7
191.29	-53.25
191.76	-53.25
192.23	-90.7
192.7	-81.33
193.17	-78.99
193.64	-69.63
194.109	-8.78
194.579	-18.14
195.049	9.95
195.519	-4.1
195.988	19.31
196.458	63.78
196.927	63.78
197.397	91.87
197.866	145.7
198.336	63.78
198.805	171.44
199.274	251.02
199.744	190.17
200.213	192.51
200.682	208.89
201.151	244
201.62	251.02
202.089	197.19
202.558	286.13
203.027	295.49
203.495	321.24
203.964	255.7
204.433	297.83
204.902	262.73
205.37	290.81
205.839	253.36
206.307	248.68
206.776	330.6
207.244	325.92
207.712	368.05
208.181	335.28
208.649	304.85
209.117	272.09
209.585	297.83
210.053	262.73
210.521	265.07
210.989	337.62
211.457	325.92
211.925	344.64
212.393	241.66
212.861	328.26
213.328	307.2
213.796	297.83
214.264	302.51
214.731	382.09
215.199	307.2
215.666	307.2
216.133	265.07
216.601	290.81
217.068	213.57
217.535	311.88
218.003	330.6
218.47	309.54
218.937	232.3
219.404	269.75
219.871	276.77
220.338	281.45
220.805	297.83
221.271	330.6
221.738	330.6
222.205	225.28
222.671	274.43
223.138	255.7
223.605	295.49
224.071	239.32
224.538	307.2
225.004	286.13
225.47	248.68
225.937	300.17
226.403	262.73
226.869	302.51
227.335	286.13
227.801	304.85
228.267	232.3
228.733	199.53
229.199	253.36
229.665	281.45
230.131	253.36
230.597	339.96
231.062	295.49
231.528	255.7
231.994	241.66
232.459	246.34
232.925	304.85
233.39	267.41
233.856	290.81
234.321	283.79
234.786	309.54
235.252	304.85
235.717	220.6
236.182	274.43
236.647	253.36
237.112	302.51
237.577	281.45
238.042	272.09
238.507	300.17
238.972	274.43
239.436	272.09
239.901	293.15
240.366	325.92
240.83	269.75
241.295	281.45
241.76	297.83
242.224	300.17
242.688	218.25
243.153	283.79
243.617	316.56
244.081	297.83
244.545	321.24
245.01	290.81
245.474	337.62
245.938	349.32
246.402	307.2
246.866	281.45
247.33	311.88
247.793	279.11
248.257	304.85
248.721	251.02
249.185	269.75
249.648	304.85
250.112	260.38
250.575	290.81
251.039	339.96
251.502	279.11
251.965	248.68
252.429	208.89
252.892	260.38
253.355	244
253.818	339.96
254.281	300.17
254.744	295.49
255.207	274.43
255.67	283.79
256.133	342.3
256.596	330.6
257.059	314.22
257.522	286.13
257.984	323.58
258.447	281.45
258.909	318.9
259.372	304.85
259.834	351.67
260.297	323.58
260.759	283.79
261.221	293.15
261.684	351.67
262.146	272.09
262.608	286.13
263.07	286.13
263.532	281.45
263.994	295.49
264.456	311.88
264.918	262.73
265.38	304.85
265.842	288.47
266.303	332.94
266.765	276.77
267.227	302.51
267.688	314.22
268.15	339.96
268.611	328.26
269.072	281.45
269.534	314.22
269.995	337.62
270.456	253.36
270.918	330.6
271.379	302.51
271.84	304.85
272.301	325.92
272.762	349.32
273.223	323.58
273.684	239.32
274.144	314.22
274.605	358.69
275.066	286.13
275.527	304.85
275.987	318.9
276.448	225.28
276.908	323.58
277.369	281.45
277.829	342.3
278.289	274.43
278.75	297.83
279.21	328.26
279.67	330.6
280.13	323.58
280.59	323.58
281.05	274.43
281.51	325.92
281.97	384.43
282.43	290.81
282.89	314.22
283.35	276.77
283.809	288.47
284.269	227.62
284.729	321.24
285.188	276.77
285.648	314.22
286.107	316.56
286.567	281.45
287.026	295.49
287.485	342.3
287.944	309.54
288.404	339.96
288.863	274.43
289.322	337.62
289.781	286.13
290.24	307.2
290.699	346.98
291.158	323.58
291.616	325.92
292.075	318.9
292.534	213.57
292.992	297.83
293.451	281.45
293.91	293.15
294.368	265.07
294.827	293.15
295.285	222.94
295.743	293.15
296.202	337.62
296.66	318.9
297.118	239.32
297.576	325.92
298.034	286.13
298.492	396.14
298.95	321.24
299.408	304.85
299.866	330.6
300.324	253.36
300.781	332.94
301.239	323.58
301.697	351.67
302.154	267.41
302.612	325.92
303.069	361.03
303.527	295.49
303.984	328.26
304.441	356.35
304.899	372.73
305.356	253.36
305.813	323.58
306.27	344.64
306.727	302.51
307.184	321.24
307.641	321.24
308.098	300.17
308.555	274.43
309.012	346.98
309.468	323.58
309.925	332.94
310.382	288.47
310.838	314.22
311.295	293.15
311.751	262.73
312.208	304.85
312.664	269.75
313.12	286.13
313.577	332.94
314.033	227.62
314.489	356.35
314.945	307.2
315.401	295.49
315.857	272.09
316.313	332.94
316.769	288.47
317.225	321.24
317.681	337.62
318.136	288.47
318.592	323.58
319.048	344.64
319.503	421.88
319.959	274.43
320.414	265.07
320.869	267.41
321.325	265.07
321.78	321.24
322.235	295.49
322.691	281.45
323.146	262.73
323.601	332.94
324.056	272.09
324.511	309.54
324.966	279.11
325.421	349.32
325.875	323.58
326.33	335.28
326.785	344.64
327.24	260.38
327.694	346.98
328.149	286.13
328.603	283.79
329.058	349.32
329.512	274.43
329.966	274.43
330.421	281.45
330.875	375.07
331.329	295.49
331.783	351.67
332.237	323.58
332.691	344.64
333.145	297.83
333.599	351.67
334.053	361.03
334.507	342.3
334.96	335.28
335.414	354.01
335.868	281.45
336.321	304.85
336.775	337.62
337.228	335.28
337.682	302.51
338.135	288.47
338.588	365.71
339.042	363.37
339.495	349.32
339.948	379.75
340.401	288.47
340.854	354.01
341.307	330.6
341.76	375.07
342.213	375.07
342.666	354.01
343.119	400.82
343.571	323.58
344.024	335.28
344.477	325.92
344.929	316.56
345.382	363.37
345.834	318.9
346.287	279.11
346.739	293.15
347.191	283.79
347.644	311.88
348.096	311.88
348.548	283.79
349	346.98
349.452	225.28
349.904	318.9
350.356	295.49
350.808	300.17
351.26	330.6
351.711	283.79
352.163	368.05
352.615	309.54
353.066	274.43
353.518	318.9
353.969	332.94
354.421	342.3
354.872	344.64
355.324	323.58
355.775	386.77
356.226	332.94
356.677	309.54
357.128	344.64
357.579	421.88
358.03	295.49
358.481	351.67
358.932	307.2
359.383	354.01
359.834	316.56
360.285	328.26
360.735	304.85
361.186	344.64
361.637	302.51
362.087	297.83
362.538	372.73
362.988	342.3
363.438	325.92
363.889	346.98
364.339	330.6
364.789	283.79
365.239	351.67
365.689	349.32
366.139	288.47
366.589	365.71
367.039	328.26
367.489	356.35
367.939	300.17
368.389	325.92
368.839	339.96
369.288	344.64
369.738	354.01
370.187	368.05
370.637	335.28
371.086	389.11
371.536	307.2
371.985	344.64
372.434	370.39
372.884	377.41
373.333	351.67
373.782	302.51
374.231	414.86
374.68	337.62
375.129	337.62
375.578	304.85
376.027	356.35
376.475	375.07
376.924	382.09
377.373	349.32
377.822	342.3
378.27	414.86
378.719	288.47
379.167	293.15
379.616	389.11
380.064	304.85
380.512	286.13
380.961	279.11
381.409	318.9
381.857	314.22
382.305	351.67
382.753	309.54
383.201	335.28
383.649	302.51
384.097	332.94
384.545	253.36
384.992	382.09
385.44	321.24
385.888	323.58
386.335	361.03
386.783	325.92
387.231	325.92
387.678	300.17
388.125	309.54
388.573	337.62
389.02	302.51
389.467	377.41
389.914	372.73
390.362	321.24
390.809	297.83
391.256	356.35
391.703	361.03
392.15	325.92
392.596	342.3
393.043	335.28
393.49	349.32
393.937	365.71
394.383	349.32
394.83	281.45
395.276	274.43
395.723	281.45
396.169	307.2
396.616	300.17
397.062	344.64
397.508	328.26
397.954	311.88
398.401	293.15
398.847	307.2
399.293	307.2
399.739	311.88
400.185	332.94
400.631	328.26
401.076	283.79
401.522	349.32
401.968	323.58
402.414	272.09
402.859	372.73
403.305	393.8
403.75	281.45
404.196	356.35
404.641	410.18
405.086	372.73
405.532	288.47
405.977	311.88
406.422	288.47
406.867	274.43
407.312	368.05
407.757	344.64
408.202	346.98
408.647	330.6
409.092	346.98
409.537	304.85
409.982	354.01
410.426	302.51
410.871	314.22
411.316	349.32
411.76	290.81
412.205	288.47
412.649	375.07
413.093	375.07
413.538	361.03
413.982	349.32
414.426	339.96
414.87	396.14
415.314	358.69
415.758	365.71
416.202	342.3
416.646	365.71
417.09	332.94
417.534	323.58
417.978	288.47
418.421	332.94
418.865	283.79
419.309	300.17
419.752	290.81
420.196	382.09
420.639	361.03
421.083	384.43
421.526	382.09
421.969	307.2
422.412	325.92
422.856	314.22
423.299	382.09
423.742	410.18
424.185	316.56
424.628	339.96
425.071	323.58
425.513	354.01
425.956	377.41
426.399	344.64
426.842	384.43
427.284	351.67
427.727	330.6
428.169	398.48
428.612	377.41
429.054	358.69
429.497	365.71
429.939	365.71
430.381	421.88
430.823	389.11
431.265	379.75
431.707	372.73
432.149	414.86
432.591	410.18
433.033	482.74
433.475	426.56
433.917	438.27
434.359	468.69
434.8	578.7
435.242	520.18
435.684	510.82
436.125	531.89
436.567	442.95
437.008	489.76
437.449	515.5
437.891	440.61
438.332	517.84
438.773	435.92
439.214	534.23
439.656	410.18
440.097	456.99
440.538	468.69
440.978	524.87
441.419	517.84
441.86	536.57
442.301	494.44
442.742	559.97
443.182	508.48
443.623	492.1
444.063	590.4
444.504	531.89
444.944	541.25
445.385	478.05
445.825	576.36
446.265	517.84
446.706	527.21
447.146	499.12
447.586	541.25
448.026	520.18
448.466	496.78
448.906	520.18
449.346	440.61
449.786	466.35
450.225	538.91
450.665	517.84
451.105	487.42
451.544	541.25
451.984	499.12
452.424	543.59
452.863	464.01
453.302	456.99
453.742	489.76
454.181	449.97
454.62	400.82
455.059	435.92
455.499	503.8
455.938	421.88
456.377	466.35
456.816	452.31
457.254	412.52
457.693	452.31
458.132	466.35
458.571	382.09
459.01	393.8
459.448	452.31
459.887	445.29
460.325	428.9
460.764	480.39
461.202	419.54
461.641	398.48
462.079	426.56
462.517	456.99
462.955	346.98
463.393	372.73
463.832	459.33
464.27	426.56
464.708	433.58
465.145	461.67
465.583	452.31
466.021	419.54
466.459	356.35
466.897	417.2
467.334	384.43
467.772	412.52
468.209	414.86
468.647	428.9
469.084	384.43
469.522	466.35
469.959	386.77
470.396	398.48
470.833	438.27
471.271	382.09
471.708	414.86
472.145	417.2
472.582	412.52
473.019	410.18
473.456	386.77
473.892	356.35
474.329	449.97
474.766	410.18
475.202	405.5
475.639	459.33
476.076	382.09
476.512	471.03
476.949	358.69
477.385	417.2
477.821	414.86
478.258	414.86
478.694	389.11
479.13	337.62
479.566	421.88
480.002	403.16
480.438	351.67
480.874	412.52
481.31	396.14
481.746	335.28
482.181	414.86
482.617	365.71
483.053	405.5
483.488	426.56
483.924	377.41
484.36	421.88
484.795	522.52
485.23	454.65
485.666	407.84
486.101	492.1
486.536	400.82
486.971	466.35
487.407	473.37
487.842	351.67
488.277	454.65
488.712	466.35
489.146	447.63
489.581	421.88
490.016	412.52
490.451	426.56
490.885	391.45
491.32	428.9
491.755	531.89
492.189	485.08
492.624	421.88
493.058	442.95
493.492	410.18
493.927	419.54
494.361	400.82
494.795	452.31
495.229	459.33
495.663	456.99
496.097	428.9
496.531	400.82
496.965	379.75
497.399	391.45
497.833	382.09
498.266	485.08
498.7	428.9
499.134	449.97
499.567	396.14
500.001	344.64
500.434	339.96
500.868	433.58
501.301	438.27
501.734	435.92
502.168	442.95
502.601	393.8
503.034	370.39
503.467	452.31
503.9	431.24
504.333	365.71
504.766	368.05
505.199	510.82
505.632	449.97
506.064	386.77
506.497	428.9
506.93	435.92
507.362	370.39
507.795	382.09
508.227	492.1
508.66	424.22
509.092	412.52
509.524	426.56
509.956	494.44
510.389	417.2
510.821	398.48
511.253	424.22
511.685	435.92
512.117	442.95
512.549	454.65
512.981	445.29
513.412	426.56
513.844	496.78
514.276	398.48
514.707	393.8
515.139	379.75
515.571	426.56
516.002	494.44
516.433	468.69
516.865	405.5
517.296	510.82
517.727	407.84
518.159	433.58
518.59	480.39
519.021	426.56
519.452	440.61
519.883	468.69
520.314	435.92
520.744	487.42
521.175	426.56
521.606	452.31
522.037	424.22
522.467	464.01
522.898	452.31
523.328	440.61
523.759	435.92
524.189	431.24
524.62	478.05
525.05	426.56
525.48	414.86
525.91	440.61
526.341	499.12
526.771	503.8
527.201	421.88
527.631	417.2
528.061	499.12
528.49	473.37
528.92	372.73
529.35	447.63
529.78	398.48
530.209	482.74
530.639	449.97
531.068	405.5
531.498	438.27
531.927	445.29
532.357	492.1
532.786	419.54
533.215	398.48
533.644	475.71
534.074	398.48
534.503	417.2
534.932	456.99
535.361	426.56
535.79	414.86
536.218	449.97
536.647	454.65
537.076	489.76
537.505	449.97
537.933	478.05
538.362	456.99
538.79	459.33
539.219	557.63
539.647	485.08
540.076	545.93
540.504	545.93
540.932	569.34
541.36	609.12
541.788	714.45
542.217	735.51
542.645	782.32
543.073	728.49
543.5	812.75
543.928	772.96
544.356	791.69
544.784	679.34
545.211	723.81
545.639	705.09
546.067	679.34
546.494	669.98
546.922	576.36
547.349	562.31
547.776	515.5
548.204	529.55
548.631	562.31
549.058	576.36
549.485	522.52
549.912	517.84
550.339	529.55
550.766	456.99
551.193	566.99
551.62	494.44
552.047	449.97
552.474	496.78
552.9	456.99
553.327	492.1
553.754	503.8
554.18	447.63
554.607	414.86
555.033	480.39
555.459	398.48
555.886	480.39
556.312	480.39
556.738	478.05
557.164	515.5
557.59	464.01
558.016	426.56
558.442	440.61
558.868	456.99
559.294	494.44
559.72	417.2
560.145	417.2
560.571	489.76
560.997	400.82
561.422	414.86
561.848	403.16
562.273	445.29
562.699	403.16
563.124	489.76
563.549	454.65
563.974	480.39
564.4	449.97
564.825	485.08
565.25	417.2
565.675	454.65
566.1	440.61
566.525	410.18
566.95	442.95
567.374	459.33
567.799	426.56
568.224	419.54
568.648	410.18
569.073	403.16
569.497	513.16
569.922	449.97
570.346	419.54
570.771	508.48
571.195	466.35
571.619	475.71
572.043	372.73
572.467	438.27
572.891	492.1
573.315	438.27
573.739	466.35
574.163	466.35
574.587	442.95
575.011	431.24
575.435	414.86
575.858	419.54
576.282	471.03
576.705	445.29
577.129	447.63
577.552	524.87
577.976	480.39
578.399	393.8
578.822	501.46
579.245	480.39
579.669	480.39
580.092	478.05
580.515	499.12
580.938	529.55
581.361	524.87
581.784	445.29
582.206	485.08
582.629	407.84
583.052	501.46
583.474	456.99
583.897	468.69
584.32	461.67
584.742	459.33
585.165	459.33
585.587	372.73
586.009	461.67
586.431	473.37
586.854	456.99
587.276	527.21
587.698	471.03
588.12	468.69
588.542	520.18
588.964	447.63
589.386	515.5
589.807	407.84
590.229	489.76
590.651	445.29
591.073	442.95
591.494	438.27
591.916	431.24
592.337	445.29
592.759	407.84
593.18	515.5
593.601	480.39
594.022	433.58
594.444	464.01
594.865	449.97
595.286	428.9
595.707	412.52
596.128	426.56
596.549	379.75
596.97	405.5
597.39	377.41
597.811	396.14
598.232	346.98
598.652	407.84
599.073	454.65
599.494	412.52
599.914	403.16
600.334	461.67
600.755	365.71
601.175	412.52
601.595	424.22
602.015	372.73
602.436	351.67
602.856	536.57
603.276	405.5
603.696	421.88
604.115	428.9
604.535	346.98
604.955	449.97
605.375	356.35
605.794	419.54
606.214	400.82
606.634	368.05
607.053	471.03
607.473	456.99
607.892	480.39
608.311	442.95
608.731	454.65
609.15	449.97
609.569	620.83
609.988	651.25
610.407	707.43
610.826	754.24
611.245	808.07
611.664	815.09
612.083	810.41
612.501	730.83
612.92	590.4
613.339	543.59
613.757	634.87
614.176	520.18
614.594	471.03
615.013	592.74
615.431	452.31
615.85	456.99
616.268	440.61
616.686	417.2
617.104	454.65
617.522	407.84
617.94	372.73
618.358	372.73
618.776	426.56
619.194	417.2
619.612	440.61
620.03	433.58
620.447	405.5
620.865	346.98
621.282	389.11
621.7	428.9
622.117	445.29
622.535	384.43
622.952	461.67
623.369	337.62
623.787	307.2
624.204	478.05
624.621	377.41
625.038	459.33
625.455	354.01
625.872	368.05
626.289	372.73
626.706	403.16
627.123	428.9
627.539	382.09
627.956	379.75
628.373	485.08
628.789	405.5
629.206	396.14
629.622	368.05
630.038	398.48
630.455	461.67
630.871	440.61
631.287	384.43
631.703	356.35
632.12	356.35
632.536	421.88
632.952	414.86
633.368	344.64
633.783	428.9
634.199	386.77
634.615	433.58
635.031	351.67
635.446	377.41
635.862	368.05
636.277	403.16
636.693	304.85
637.108	337.62
637.524	351.67
637.939	412.52
638.354	339.96
638.77	356.35
639.185	349.32
639.6	361.03
640.015	316.56
640.43	328.26
640.845	400.82
641.259	304.85
641.674	314.22
642.089	354.01
642.504	321.24
642.918	349.32
643.333	389.11
643.747	356.35
644.162	363.37
644.576	323.58
644.991	379.75
645.405	384.43
645.819	321.24
646.233	354.01
646.647	365.71
647.061	346.98
647.475	354.01
647.889	384.43
648.303	288.47
648.717	321.24
649.131	311.88
649.545	325.92
649.958	335.28
650.372	344.64
650.785	318.9
651.199	407.84
651.612	330.6
652.026	471.03
652.439	363.37
652.852	354.01
653.266	290.81
653.679	323.58
654.092	346.98
654.505	330.6
654.918	321.24
655.331	269.75
655.744	314.22
656.156	354.01
656.569	351.67
656.982	314.22
657.394	311.88
657.807	346.98
658.22	438.27
658.632	370.39
659.044	328.26
659.457	346.98
659.869	321.24
660.281	354.01
660.693	309.54
661.106	400.82
661.518	400.82
661.93	328.26
662.342	354.01
662.754	325.92
663.165	377.41
663.577	400.82
663.989	358.69
664.401	358.69
664.812	368.05
665.224	309.54
665.635	344.64
666.047	370.39
666.458	375.07
666.869	328.26
667.281	325.92
667.692	311.88
668.103	295.49
668.514	274.43
668.925	368.05
669.336	274.43
669.747	361.03
670.158	300.17
670.569	379.75
670.979	351.67
671.39	314.22
671.801	295.49
672.211	335.28
672.622	370.39
673.032	403.16
673.443	398.48
673.853	281.45
674.263	391.45
674.674	375.07
675.084	377.41
675.494	351.67
675.904	349.32
676.314	344.64
676.724	325.92
677.134	300.17
677.544	346.98
677.953	332.94
678.363	358.69
678.773	377.41
679.182	316.56
679.592	311.88
680.001	351.67
680.411	346.98
680.82	379.75
681.23	279.11
681.639	323.58
682.048	337.62
682.457	382.09
682.866	300.17
683.275	330.6
683.684	262.73
684.093	325.92
684.502	288.47
684.911	335.28
685.32	318.9
685.728	325.92
686.137	335.28
686.546	405.5
686.954	354.01
687.363	325.92
687.771	400.82
688.179	297.83
688.588	361.03
688.996	368.05
689.404	358.69
689.812	377.41
690.22	288.47
690.628	365.71
691.036	328.26
691.444	314.22
691.852	393.8
692.26	279.11
692.667	274.43
693.075	377.41
693.483	300.17
693.89	396.14
694.298	358.69
694.705	379.75
695.112	286.13
695.52	382.09
695.927	351.67
696.334	304.85
696.741	318.9
697.148	286.13
697.555	316.56
697.962	318.9
698.369	309.54
698.776	386.77
699.183	309.54
699.59	288.47
699.996	316.56
700.403	344.64
700.81	304.85
701.216	321.24
701.623	302.51
702.029	297.83
702.435	265.07
702.842	332.94
703.248	342.3
703.654	300.17
704.06	330.6
704.466	393.8
704.872	351.67
705.278	361.03
705.684	321.24
706.09	379.75
706.496	316.56
706.901	379.75
707.307	393.8
707.712	365.71
708.118	361.03
708.523	339.96
708.929	337.62
709.334	321.24
709.74	363.37
710.145	328.26
710.55	393.8
710.955	344.64
711.36	342.3
711.765	358.69
712.17	391.45
712.575	344.64
712.98	985.95
713.385	468.69
713.789	403.16
714.194	330.6
714.599	344.64
715.003	361.03
715.408	269.75
715.812	265.07
716.217	328.26
716.621	330.6
717.025	314.22
717.429	316.56
717.833	304.85
718.238	255.7
718.642	328.26
719.046	314.22
719.449	344.64
719.853	304.85
720.257	300.17
720.661	316.56
721.065	342.3
721.468	307.2
721.872	323.58
722.275	321.24
722.679	246.34
723.082	323.58
723.485	321.24
723.889	309.54
724.292	318.9
724.695	328.26
725.098	337.62
725.501	328.26
725.904	396.14
726.307	358.69
726.71	265.07
727.113	330.6
727.516	321.24
727.918	323.58
728.321	356.35
728.724	318.9
729.126	328.26
729.529	389.11
729.931	342.3
730.333	283.79
730.736	232.3
731.138	321.24
731.54	337.62
731.942	342.3
732.344	267.41
732.746	279.11
733.148	365.71
733.55	354.01
733.952	295.49
734.354	351.67
734.756	372.73
735.157	297.83
735.559	297.83
735.96	351.67
736.362	370.39
736.763	349.32
737.165	288.47
737.566	307.2
737.967	337.62
738.368	337.62
738.77	328.26
739.171	363.37
739.572	354.01
739.973	349.32
740.374	288.47
740.774	307.2
741.175	311.88
741.576	283.79
741.977	290.81
742.377	354.01
742.778	363.37
743.178	356.35
743.579	389.11
743.979	354.01
744.379	391.45
744.78	335.28
745.18	316.56
745.58	281.45
745.98	325.92
746.38	344.64
746.78	297.83
747.18	321.24
747.58	330.6
747.98	349.32
748.38	321.24
748.779	316.56
749.179	314.22
749.578	361.03
749.978	314.22
750.377	365.71
750.777	396.14
751.176	300.17
751.575	309.54
751.975	332.94
752.374	344.64
752.773	332.94
753.172	255.7
753.571	316.56
753.97	267.41
754.369	339.96
754.768	379.75
755.166	314.22
755.565	283.79
755.964	365.71
756.362	328.26
756.761	337.62
757.159	314.22
757.558	262.73
757.956	396.14
758.354	283.79
758.753	354.01
759.151	365.71
759.549	405.5
759.947	318.9
760.345	332.94
760.743	339.96
761.141	349.32
761.539	356.35
761.936	377.41
762.334	351.67
762.732	351.67
763.129	379.75
763.527	288.47
763.924	323.58
764.322	295.49
764.719	309.54
765.117	328.26
765.514	354.01
765.911	253.36
766.308	332.94
766.705	344.64
767.102	311.88
767.499	358.69
767.896	297.83
768.293	295.49
768.69	311.88
769.086	290.81
769.483	342.3
769.88	382.09
770.276	300.17
770.673	389.11
771.069	339.96
771.466	365.71
771.862	265.07
772.258	335.28
772.654	323.58
773.05	332.94
773.447	339.96
773.843	356.35
774.239	269.75
774.634	276.77
775.03	328.26
775.426	267.41
775.822	354.01
776.218	339.96
776.613	304.85
777.009	339.96
777.404	332.94
777.8	339.96
778.195	323.58
778.59	300.17
778.986	276.77
779.381	332.94
779.776	281.45
780.171	351.67
780.566	321.24
780.961	356.35
781.356	365.71
781.751	302.51
782.146	346.98
782.54	375.07
782.935	372.73
783.33	311.88
783.724	314.22
784.119	297.83
784.513	279.11
784.908	335.28
785.302	323.58
785.696	346.98
786.09	283.79
786.485	330.6
786.879	349.32
787.273	234.64
787.667	330.6
788.061	314.22
788.454	314.22
788.848	295.49
789.242	330.6
789.636	304.85
790.029	328.26
790.423	276.77
790.816	314.22
791.21	323.58
791.603	337.62
791.997	354.01
792.39	281.45
792.783	342.3
793.176	262.73
793.569	316.56
793.962	354.01
794.355	302.51
794.748	328.26
795.141	339.96
795.534	316.56
795.927	297.83
796.319	342.3
796.712	302.51
797.105	272.09
797.497	311.88
797.89	283.79
798.282	295.49
798.674	300.17
799.067	368.05
799.459	342.3
799.851	365.71
800.243	365.71
800.635	279.11
801.027	356.35
801.419	318.9
801.811	339.96
802.203	293.15
802.594	307.2
802.986	288.47
803.378	293.15
803.769	309.54
804.161	337.62
804.552	283.79
804.944	321.24
805.335	290.81
805.726	293.15
806.118	321.24
806.509	258.04
806.9	328.26
807.291	325.92
807.682	314.22
808.073	323.58
808.464	295.49
808.855	335.28
809.245	335.28
809.636	323.58
810.027	342.3
810.417	346.98
810.808	307.2
811.198	330.6
811.589	384.43
811.979	258.04
812.369	339.96
812.759	274.43
813.15	248.68
813.54	410.18
813.93	295.49
814.32	389.11
814.71	332.94
815.1	346.98
815.489	335.28
815.879	300.17
816.269	314.22
816.658	346.98
817.048	325.92
817.438	269.75
817.827	372.73
818.216	379.75
818.606	354.01
818.995	311.88
819.384	335.28
819.773	321.24
820.163	342.3
820.552	316.56
820.941	332.94
821.33	297.83
821.718	389.11
822.107	300.17
822.496	302.51
822.885	361.03
823.273	363.37
823.662	281.45
824.05	269.75
824.439	337.62
824.827	346.98
825.216	283.79
825.604	330.6
825.992	382.09
826.38	349.32
826.768	372.73
827.156	323.58
827.544	300.17
827.932	335.28
828.32	309.54
828.708	349.32
829.096	276.77
829.483	283.79
829.871	307.2
830.259	260.38
830.646	365.71
831.034	318.9
831.421	389.11
831.808	321.24
832.196	288.47
832.583	372.73
832.97	349.32
833.357	304.85
833.744	393.8
834.131	307.2
834.518	311.88
834.905	314.22
835.292	375.07
835.678	391.45
836.065	354.01
836.452	361.03
836.838	309.54
837.225	288.47
837.611	344.64
837.998	335.28
838.384	309.54
838.77	325.92
839.157	382.09
839.543	358.69
839.929	288.47
840.315	316.56
840.701	227.62
841.087	279.11
841.473	332.94
841.858	316.56
842.244	293.15
842.63	337.62
843.015	311.88
843.401	702.75
843.787	311.88
844.172	337.62
844.557	279.11
844.943	356.35
845.328	321.24
845.713	342.3
846.098	335.28
846.483	293.15
846.868	321.24
847.253	286.13
847.638	332.94
848.023	288.47
848.408	286.13
848.793	229.96
849.177	304.85
849.562	323.58
849.947	335.28
850.331	328.26
850.715	281.45
851.1	346.98
851.484	337.62
851.868	307.2
852.253	307.2
852.637	344.64
853.021	330.6
853.405	307.2
853.789	354.01
854.173	335.28
854.557	321.24
854.94	323.58
855.324	396.14
855.708	363.37
856.091	358.69
856.475	356.35
856.858	286.13
857.242	351.67
857.625	316.56
858.009	342.3
858.392	316.56
858.775	253.36
859.158	309.54
859.541	349.32
859.924	323.58
860.307	302.51
860.69	339.96
861.073	368.05
861.456	375.07
861.838	304.85
862.221	304.85
862.604	290.81
862.986	337.62
863.369	344.64
863.751	384.43
864.133	412.52
864.516	311.88
864.898	297.83
865.28	316.56
865.662	377.41
866.044	349.32
866.426	286.13
866.808	288.47
867.19	311.88
867.572	281.45
867.954	365.71
868.336	356.35
868.717	316.56
869.099	314.22
869.48	377.41
869.862	344.64
870.243	377.41
870.625	349.32
871.006	351.67
871.387	384.43
871.768	297.83
872.149	295.49
872.53	314.22
872.911	318.9
873.292	293.15
873.673	274.43
874.054	323.58
874.435	309.54
874.815	335.28
875.196	272.09
875.577	304.85
875.957	318.9
876.338	330.6
876.718	222.94
877.098	339.96
877.479	403.16
877.859	260.38
878.239	314.22
878.619	293.15
878.999	332.94
879.379	344.64
879.759	279.11
880.139	318.9
880.519	304.85
880.898	272.09
881.278	330.6
881.658	330.6
882.037	396.14
882.417	337.62
882.796	325.92
883.176	262.73
883.555	337.62
883.934	290.81
884.313	321.24
884.693	335.28
885.072	335.28
885.451	307.2
885.83	372.73
886.209	417.2
886.587	368.05
886.966	325.92
887.345	400.82
887.724	363.37
888.102	375.07
888.481	346.98
888.859	288.47
889.238	358.69
889.616	297.83
889.994	302.51
890.373	307.2
890.751	335.28
891.129	300.17
891.507	335.28
891.885	295.49
892.263	339.96
892.641	325.92
893.019	283.79
893.396	386.77
893.774	300.17
894.152	389.11
894.529	269.75
894.907	300.17
895.284	276.77
895.662	260.38
896.039	318.9
896.416	302.51
896.794	274.43
897.171	342.3
897.548	335.28
897.925	311.88
898.302	328.26
898.679	346.98
899.056	323.58
899.433	316.56
899.809	342.3
900.186	344.64
900.563	316.56
900.939	351.67
901.316	283.79
901.692	258.04
902.069	330.6
902.445	330.6
902.821	375.07
903.197	323.58
903.574	258.04
903.95	332.94
904.326	323.58
904.702	236.98
905.078	309.54
905.454	356.35
905.829	300.17
906.205	323.58
906.581	281.45
906.956	283.79
907.332	386.77
907.707	321.24
908.083	328.26
908.458	316.56
908.833	295.49
909.209	323.58
909.584	290.81
909.959	260.38
910.334	227.62
910.709	342.3
911.084	318.9
911.459	358.69
911.834	321.24
912.209	253.36
912.583	332.94
912.958	302.51
913.333	272.09
913.707	318.9
914.082	325.92
914.456	281.45
914.83	361.03
915.205	307.2
915.579	302.51
915.953	288.47
916.327	279.11
916.701	290.81
917.075	377.41
917.449	272.09
917.823	377.41
918.197	307.2
918.571	358.69
918.944	328.26
919.318	311.88
919.692	314.22
920.065	274.43
920.438	286.13
920.812	321.24
921.185	332.94
921.558	304.85
921.932	281.45
922.305	356.35
922.678	407.84
923.051	328.26
923.424	342.3
923.797	344.64
924.17	316.56
924.542	351.67
924.915	297.83
925.288	328.26
925.661	339.96
926.033	288.47
926.406	328.26
926.778	344.64
927.15	288.47
927.523	328.26
927.895	293.15
928.267	354.01
928.639	274.43
929.011	349.32
929.383	321.24
929.755	389.11
930.127	316.56
930.499	206.55
930.871	323.58
931.242	276.77
931.614	281.45
931.986	335.28
932.357	330.6
932.729	295.49
933.1	304.85
933.471	302.51
933.843	321.24
934.214	276.77
934.585	323.58
934.956	281.45
935.327	342.3
935.698	295.49
936.069	346.98
936.44	295.49
936.811	325.92
937.182	276.77
937.552	281.45
937.923	349.32
938.293	346.98
938.664	316.56
939.034	342.3
939.405	269.75
939.775	342.3
940.145	363.37
940.516	302.51
940.886	318.9
941.256	372.73
941.626	361.03
941.996	274.43
942.366	398.48
942.735	349.32
943.105	297.83
943.475	248.68
943.845	332.94
944.214	295.49
944.584	323.58
944.953	307.2
945.323	365.71
945.692	318.9
946.061	290.81
946.43	328.26
946.8	330.6
947.169	349.32
947.538	274.43
947.907	316.56
948.276	335.28
948.645	337.62
949.013	300.17
949.382	379.75
949.751	293.15
950.119	316.56
950.488	354.01
950.857	349.32
951.225	290.81
951.593	342.3
951.962	339.96
952.33	335.28
952.698	323.58
953.066	335.28
953.434	290.81
953.802	318.9
954.17	349.32
954.538	398.48
954.906	372.73
955.274	307.2
955.642	335.28
956.009	346.98
956.377	300.17
956.744	316.56
957.112	246.34
957.479	325.92
957.847	325.92
958.214	302.51
958.581	354.01
958.948	342.3
959.315	349.32
959.683	382.09
960.05	276.77
960.416	283.79
960.783	332.94
961.15	337.62
961.517	283.79
961.884	328.26
962.25	281.45
962.617	328.26
962.983	339.96
963.35	337.62
963.716	269.75
964.082	311.88
964.449	368.05
964.815	314.22
965.181	344.64
965.547	339.96
965.913	332.94
966.279	351.67
966.645	342.3
967.011	260.38
967.377	267.41
967.742	361.03
968.108	342.3
968.474	314.22
968.839	269.75
969.205	337.62
969.57	351.67
969.935	356.35
970.301	314.22
970.666	316.56
971.031	391.45
971.396	314.22
971.761	302.51
972.126	286.13
972.491	372.73
972.856	297.83
973.221	328.26
973.586	351.67
973.95	304.85
974.315	307.2
974.679	349.32
975.044	382.09
975.408	304.85
975.773	323.58
976.137	325.92
976.501	351.67
976.866	325.92
977.23	290.81
977.594	323.58
977.958	302.51
978.322	290.81
978.686	279.11
979.049	330.6
979.413	286.13
979.777	309.54
980.141	325.92
980.504	419.54
980.868	337.62
981.231	328.26
981.595	325.92
981.958	288.47
982.321	293.15
982.684	321.24
983.048	260.38
983.411	307.2
983.774	330.6
984.137	323.58
984.5	379.75
984.862	297.83
985.225	321.24
985.588	342.3
985.951	365.71
986.313	267.41
986.676	335.28
987.038	323.58
987.401	300.17
987.763	311.88
988.125	346.98
988.488	344.64
988.85	323.58
989.212	368.05
989.574	351.67
989.936	246.34
990.298	288.47
990.66	300.17
991.022	295.49
991.383	346.98
991.745	332.94
992.107	307.2
992.468	297.83
992.83	337.62
993.191	302.51
993.553	361.03
993.914	293.15
994.275	396.14
994.637	316.56
994.998	225.28
995.359	346.98
995.72	318.9
996.081	272.09
996.442	349.32
996.803	349.32
997.163	400.82
997.524	400.82
997.885	321.24
998.245	365.71
998.606	328.26
998.966	311.88
999.327	330.6
999.687	337.62
1000.047	335.28
1000.408	339.96
1000.768	290.81
1001.128	244
1001.488	354.01
1001.848	297.83
1002.208	361.03
1002.568	297.83
1002.927	297.83
1003.287	344.64
1003.647	321.24
1004.007	258.04
1004.366	354.01
1004.726	269.75
1005.085	321.24
1005.444	309.54
1005.804	342.3
1006.163	321.24
1006.522	255.7
1006.881	314.22
1007.24	372.73
1007.599	304.85
1007.958	309.54
1008.317	398.48
1008.676	323.58
1009.035	339.96
1009.393	365.71
1009.752	330.6
1010.111	309.54
1010.469	370.39
1010.828	342.3
1011.186	335.28
1011.544	346.98
1011.903	354.01
1012.261	295.49
1012.619	309.54
1012.977	302.51
1013.335	368.05
1013.693	325.92
1014.051	314.22
1014.409	269.75
1014.767	323.58
1015.124	328.26
1015.482	386.77
1015.84	318.9
1016.197	297.83
1016.555	351.67
1016.912	288.47
1017.269	309.54
1017.627	311.88
1017.984	316.56
1018.341	272.09
1018.698	293.15
1019.055	368.05
1019.412	346.98
1019.769	316.56
1020.126	325.92
1020.483	332.94
1020.84	290.81
1021.196	330.6
1021.553	377.41
1021.909	349.32
1022.266	328.26
1022.622	297.83
1022.979	337.62
1023.335	328.26
1023.691	309.54
1024.047	293.15
1024.404	311.88
1024.76	311.88
1025.116	321.24
1025.472	396.14
1025.827	332.94
1026.183	332.94
1026.539	332.94
1026.895	356.35
1027.25	323.58
1027.606	356.35
1027.961	384.43
1028.317	253.36
1028.672	311.88
1029.028	309.54
1029.383	311.88
1029.738	325.92
1030.093	297.83
1030.448	272.09
1030.803	307.2
1031.158	314.22
1031.513	311.88
1031.868	279.11
1032.223	307.2
1032.577	316.56
1032.932	323.58
1033.287	361.03
1033.641	339.96
1033.996	255.7
1034.35	302.51
1034.704	262.73
1035.059	314.22
1035.413	300.17
1035.767	300.17
1036.121	300.17
