Data from Al_FLMS009871__314__12-24-06-942.txt Node

Date: Fri Mar 08 12:24:06 CST 2024
User: pe5414po
Spectrometer: FLMS00987
Trigger mode: 0
Integration Time (sec): 1.000000E-1
Scans to average: 1
Electric dark correction enabled: true
Nonlinearity correction enabled: false
Boxcar width: 0
XAxis mode: Wavelengths
Number of Pixels in Spectrum: 2048
>>>>>Begin Spectral Data<<<<<
188.938	-97.28
189.409	-97.28
189.879	-97.28
190.349	-148.77
190.819	-101.96
191.29	-99.62
191.76	-106.64
192.23	-99.62
192.7	-59.83
193.17	-31.74
193.64	-62.17
194.109	-20.04
194.579	-20.04
195.049	8.05
195.519	-15.36
195.988	26.77
196.458	52.52
196.927	24.43
197.397	89.96
197.866	181.25
198.336	132.09
198.805	143.8
199.274	129.75
199.744	129.75
200.213	171.88
200.682	164.86
201.151	232.74
201.62	235.08
202.089	249.12
202.558	209.33
203.027	288.91
203.495	235.08
203.964	225.72
204.433	284.23
204.902	293.59
205.37	230.4
205.839	277.21
206.307	291.25
206.776	312.32
207.244	335.72
207.712	293.59
208.181	335.72
208.649	305.29
209.117	345.08
209.585	333.38
210.053	260.82
210.521	328.7
210.989	302.95
211.457	319.34
211.925	265.5
212.393	272.53
212.861	230.4
213.328	288.91
213.796	277.21
214.264	293.59
214.731	277.21
215.199	256.14
215.666	239.76
216.133	279.55
216.601	228.06
217.068	317
217.535	284.23
218.003	284.23
218.47	249.12
218.937	246.78
219.404	258.48
219.871	284.23
220.338	209.33
220.805	307.63
221.271	251.46
221.738	288.91
222.205	209.33
222.671	237.42
223.138	258.48
223.605	305.29
224.071	277.21
224.538	270.19
225.004	274.87
225.47	214.01
225.937	279.55
226.403	265.5
226.869	197.63
227.335	293.59
227.801	249.12
228.267	272.53
228.733	246.78
229.199	235.08
229.665	288.91
230.131	223.37
230.597	263.16
231.062	274.87
231.528	267.85
231.994	202.31
232.459	249.12
232.925	286.57
233.39	312.32
233.856	214.01
234.321	251.46
234.786	265.5
235.252	298.27
235.717	228.06
236.182	206.99
236.647	235.08
237.112	317
237.577	249.12
238.042	270.19
238.507	291.25
238.972	328.7
239.436	295.93
239.901	279.55
240.366	239.76
240.83	272.53
241.295	258.48
241.76	284.23
242.224	249.12
242.688	279.55
243.153	309.97
243.617	279.55
244.081	302.95
244.545	312.32
245.01	272.53
245.474	319.34
245.938	286.57
246.402	256.14
246.866	307.63
247.33	305.29
247.793	267.85
248.257	270.19
248.721	251.46
249.185	258.48
249.648	312.32
250.112	288.91
250.575	295.93
251.039	305.29
251.502	293.59
251.965	298.27
252.429	295.93
252.892	218.69
253.355	237.42
253.818	321.68
254.281	305.29
254.744	265.5
255.207	223.37
255.67	228.06
256.133	279.55
256.596	265.5
257.059	242.1
257.522	384.87
257.984	251.46
258.447	319.34
258.909	256.14
259.372	281.89
259.834	333.38
260.297	272.53
260.759	291.25
261.221	307.63
261.684	258.48
262.146	349.76
262.608	309.97
263.07	291.25
263.532	239.76
263.994	335.72
264.456	279.55
264.918	253.8
265.38	352.1
265.842	326.36
266.303	295.93
266.765	267.85
267.227	342.74
267.688	288.91
268.15	305.29
268.611	279.55
269.072	256.14
269.534	288.91
269.995	286.57
270.456	274.87
270.918	281.89
271.379	312.32
271.84	277.21
272.301	340.4
272.762	307.63
273.223	305.29
273.684	326.36
274.144	307.63
274.605	317
275.066	295.93
275.527	293.59
275.987	235.08
276.448	324.02
276.908	338.06
277.369	237.42
277.829	321.68
278.289	291.25
278.75	256.14
279.21	286.57
279.67	274.87
280.13	321.68
280.59	244.44
281.05	279.55
281.51	335.72
281.97	288.91
282.43	256.14
282.89	305.29
283.35	272.53
283.809	352.1
284.269	272.53
284.729	331.04
285.188	359.13
285.648	286.57
286.107	317
286.567	263.16
287.026	293.59
287.485	293.59
287.944	223.37
288.404	338.06
288.863	291.25
289.322	260.82
289.781	302.95
290.24	291.25
290.699	314.66
291.158	324.02
291.616	295.93
292.075	288.91
292.534	286.57
292.992	265.5
293.451	251.46
293.91	345.08
294.368	277.21
294.827	265.5
295.285	288.91
295.743	314.66
296.202	333.38
296.66	284.23
297.118	307.63
297.576	305.29
298.034	326.36
298.492	302.95
298.95	284.23
299.408	309.97
299.866	331.04
300.324	272.53
300.781	312.32
301.239	242.1
301.697	333.38
302.154	265.5
302.612	235.08
303.069	373.17
303.527	272.53
303.984	293.59
304.441	279.55
304.899	324.02
305.356	309.97
305.813	235.08
306.27	270.19
306.727	324.02
307.184	274.87
307.641	309.97
308.098	258.48
308.555	314.66
309.012	260.82
309.468	298.27
309.925	328.7
310.382	284.23
310.838	349.76
311.295	295.93
311.751	333.38
312.208	375.51
312.664	326.36
313.12	312.32
313.577	387.21
314.033	284.23
314.489	300.61
314.945	286.57
315.401	284.23
315.857	288.91
316.313	302.95
316.769	305.29
317.225	265.5
317.681	242.1
318.136	309.97
318.592	363.81
319.048	298.27
319.503	302.95
319.959	267.85
320.414	295.93
320.869	286.57
321.325	305.29
321.78	288.91
322.235	274.87
322.691	293.59
323.146	373.17
323.601	302.95
324.056	314.66
324.511	312.32
324.966	345.08
325.421	309.97
325.875	279.55
326.33	279.55
326.785	298.27
327.24	295.93
327.694	305.29
328.149	277.21
328.603	324.02
329.058	291.25
329.512	302.95
329.966	321.68
330.421	274.87
330.875	270.19
331.329	319.34
331.783	293.59
332.237	307.63
332.691	335.72
333.145	347.42
333.599	300.61
334.053	279.55
334.507	324.02
334.96	277.21
335.414	277.21
335.868	333.38
336.321	272.53
336.775	345.08
337.228	349.76
337.682	274.87
338.135	321.68
338.588	338.06
339.042	342.74
339.495	288.91
339.948	288.91
340.401	340.4
340.854	352.1
341.307	331.04
341.76	272.53
342.213	281.89
342.666	270.19
343.119	312.32
343.571	298.27
344.024	309.97
344.477	324.02
344.929	333.38
345.382	340.4
345.834	319.34
346.287	361.47
346.739	284.23
347.191	298.27
347.644	274.87
348.096	277.21
348.548	246.78
349	335.72
349.452	295.93
349.904	317
350.356	345.08
350.808	284.23
351.26	258.48
351.711	302.95
352.163	286.57
352.615	295.93
353.066	349.76
353.518	326.36
353.969	298.27
354.421	279.55
354.872	312.32
355.324	302.95
355.775	277.21
356.226	366.15
356.677	328.7
357.128	279.55
357.579	317
358.03	326.36
358.481	286.57
358.932	267.85
359.383	309.97
359.834	295.93
360.285	291.25
360.735	317
361.186	302.95
361.637	295.93
362.087	326.36
362.538	356.79
362.988	235.08
363.438	331.04
363.889	321.68
364.339	305.29
364.789	324.02
365.239	305.29
365.689	349.76
366.139	284.23
366.589	293.59
367.039	331.04
367.489	317
367.939	345.08
368.389	331.04
368.839	256.14
369.288	335.72
369.738	309.97
370.187	361.47
370.637	270.19
371.086	307.63
371.536	277.21
371.985	300.61
372.434	331.04
372.884	361.47
373.333	267.85
373.782	331.04
374.231	361.47
374.68	345.08
375.129	354.44
375.578	326.36
376.027	317
376.475	288.91
376.924	319.34
377.373	370.83
377.822	267.85
378.27	263.16
378.719	267.85
379.167	319.34
379.616	340.4
380.064	326.36
380.512	319.34
380.961	307.63
381.409	309.97
381.857	288.91
382.305	314.66
382.753	281.89
383.201	277.21
383.649	328.7
384.097	319.34
384.545	321.68
384.992	342.74
385.44	349.76
385.888	319.34
386.335	263.16
386.783	335.72
387.231	302.95
387.678	377.85
388.125	384.87
388.573	319.34
389.02	361.47
389.467	293.59
389.914	284.23
390.362	412.96
390.809	324.02
391.256	279.55
391.703	326.36
392.15	359.13
392.596	356.79
393.043	340.4
393.49	324.02
393.937	309.97
394.383	298.27
394.83	286.57
395.276	274.87
395.723	368.49
396.169	277.21
396.616	267.85
397.062	377.85
397.508	359.13
397.954	317
398.401	349.76
398.847	335.72
399.293	284.23
399.739	293.59
400.185	352.1
400.631	307.63
401.076	286.57
401.522	391.89
401.968	326.36
402.414	279.55
402.859	333.38
403.305	335.72
403.75	328.7
404.196	380.19
404.641	338.06
405.086	302.95
405.532	380.19
405.977	328.7
406.422	288.91
406.867	347.42
407.312	317
407.757	368.49
408.202	281.89
408.647	333.38
409.092	305.29
409.537	300.61
409.982	321.68
410.426	352.1
410.871	335.72
411.316	331.04
411.76	319.34
412.205	340.4
412.649	302.95
413.093	244.44
413.538	317
413.982	319.34
414.426	317
414.87	321.68
415.314	291.25
415.758	319.34
416.202	342.74
416.646	333.38
417.09	335.72
417.534	342.74
417.978	338.06
418.421	312.32
418.865	317
419.309	272.53
419.752	326.36
420.196	328.7
420.639	335.72
421.083	291.25
421.526	333.38
421.969	398.92
422.412	347.42
422.856	394.23
423.299	361.47
423.742	377.85
424.185	382.53
424.628	342.74
425.071	338.06
425.513	345.08
425.956	298.27
426.399	314.66
426.842	354.44
427.284	403.6
427.727	333.38
428.169	352.1
428.612	368.49
429.054	338.06
429.497	417.64
429.939	345.08
430.381	373.17
430.823	335.72
431.265	398.92
431.707	415.3
432.149	375.51
432.591	455.09
433.033	384.87
433.475	349.76
433.917	429.34
434.359	412.96
434.8	499.56
435.242	572.11
435.684	508.92
436.125	501.9
436.567	487.86
437.008	513.6
437.449	478.49
437.891	424.66
438.332	508.92
438.773	464.45
439.214	422.32
439.656	464.45
440.097	476.15
440.538	471.47
440.978	480.83
441.419	464.45
441.86	551.05
442.301	459.77
442.742	508.92
443.182	471.47
443.623	527.64
444.063	459.77
444.504	581.48
444.944	485.51
445.385	527.64
445.825	513.6
446.265	525.3
446.706	398.92
447.146	511.26
447.586	462.11
448.026	529.99
448.466	464.45
448.906	555.73
449.346	485.51
449.786	452.75
450.225	490.2
450.665	513.6
451.105	499.56
451.544	520.62
451.984	527.64
452.424	466.79
452.863	492.54
453.302	434.02
453.742	546.37
454.181	462.11
454.62	529.99
455.059	452.75
455.499	419.98
455.938	485.51
456.377	485.51
456.816	434.02
457.254	471.47
457.693	422.32
458.132	403.6
458.571	394.23
459.01	405.94
459.448	438.7
459.887	450.41
460.325	412.96
460.764	375.51
461.202	363.81
461.641	417.64
462.079	370.83
462.517	394.23
462.955	459.77
463.393	464.45
463.832	363.81
464.27	438.7
464.708	450.41
465.145	464.45
465.583	424.66
466.021	361.47
466.459	361.47
466.897	370.83
467.334	410.62
467.772	396.57
468.209	377.85
468.647	508.92
469.084	373.17
469.522	375.51
469.959	387.21
470.396	391.89
470.833	391.89
471.271	436.36
471.708	324.02
472.145	476.15
472.582	436.36
473.019	375.51
473.456	391.89
473.892	429.34
474.329	427
474.766	377.85
475.202	305.29
475.639	398.92
476.076	412.96
476.512	391.89
476.949	340.4
477.385	410.62
477.821	410.62
478.258	389.55
478.694	398.92
479.13	405.94
479.566	384.87
480.002	347.42
480.438	354.44
480.874	326.36
481.31	434.02
481.746	366.15
482.181	394.23
482.617	380.19
483.053	356.79
483.488	331.04
483.924	333.38
484.36	408.28
484.795	499.56
485.23	384.87
485.666	462.11
486.101	405.94
486.536	476.15
486.971	457.43
487.407	506.58
487.842	448.07
488.277	443.39
488.712	417.64
489.146	417.64
489.581	417.64
490.016	445.73
490.451	429.34
490.885	415.3
491.32	401.26
491.755	373.17
492.189	466.79
492.624	384.87
493.058	434.02
493.492	319.34
493.927	473.81
494.361	403.6
494.795	417.64
495.229	419.98
495.663	450.41
496.097	419.98
496.531	380.19
496.965	424.66
497.399	478.49
497.833	389.55
498.266	408.28
498.7	434.02
499.134	438.7
499.567	375.51
500.001	415.3
500.434	382.53
500.868	368.49
501.301	394.23
501.734	445.73
502.168	448.07
502.601	389.55
503.034	382.53
503.467	398.92
503.9	359.13
504.333	408.28
504.766	424.66
505.199	431.68
505.632	415.3
506.064	340.4
506.497	443.39
506.93	419.98
507.362	422.32
507.795	345.08
508.227	415.3
508.66	424.66
509.092	473.81
509.524	441.04
509.956	394.23
510.389	405.94
510.821	405.94
511.253	415.3
511.685	389.55
512.117	417.64
512.549	424.66
512.981	387.21
513.412	401.26
513.844	471.47
514.276	466.79
514.707	396.57
515.139	438.7
515.571	356.79
516.002	312.32
516.433	398.92
516.865	396.57
517.296	333.38
517.727	408.28
518.159	424.66
518.59	424.66
519.021	434.02
519.452	462.11
519.883	476.15
520.314	377.85
520.744	415.3
521.175	485.51
521.606	438.7
522.037	469.13
522.467	391.89
522.898	424.66
523.328	431.68
523.759	436.36
524.189	398.92
524.62	398.92
525.05	382.53
525.48	478.49
525.91	462.11
526.341	424.66
526.771	410.62
527.201	487.86
527.631	487.86
528.061	419.98
528.49	410.62
528.92	450.41
529.35	408.28
529.78	412.96
530.209	459.77
530.639	459.77
531.068	417.64
531.498	462.11
531.927	394.23
532.357	483.17
532.786	366.15
533.215	424.66
533.644	354.44
534.074	398.92
534.503	424.66
534.932	436.36
535.361	382.53
535.79	398.92
536.218	419.98
536.647	471.47
537.076	434.02
537.505	450.41
537.933	457.43
538.362	469.13
538.79	452.75
539.219	466.79
539.647	487.86
540.076	539.35
540.504	520.62
540.932	611.9
541.36	628.29
541.788	703.18
542.217	658.71
542.645	686.8
543.073	733.61
543.5	782.76
543.928	703.18
544.356	686.8
544.784	696.16
545.211	738.29
545.639	752.34
546.067	670.42
546.494	663.4
546.922	625.95
547.349	604.88
547.776	527.64
548.204	574.46
548.631	497.22
549.058	544.03
549.485	579.14
549.912	518.28
550.339	471.47
550.766	520.62
551.193	492.54
551.62	441.04
552.047	499.56
552.474	434.02
552.9	466.79
553.327	471.47
553.754	459.77
554.18	466.79
554.607	448.07
555.033	478.49
555.459	410.62
555.886	441.04
556.312	483.17
556.738	384.87
557.164	370.83
557.59	427
558.016	455.09
558.442	452.75
558.868	427
559.294	443.39
559.72	443.39
560.145	443.39
560.571	438.7
560.997	424.66
561.422	457.43
561.848	438.7
562.273	429.34
562.699	403.6
563.124	434.02
563.549	515.94
563.974	455.09
564.4	469.13
564.825	412.96
565.25	410.62
565.675	417.64
566.1	438.7
566.525	380.19
566.95	441.04
567.374	398.92
567.799	466.79
568.224	384.87
568.648	401.26
569.073	431.68
569.497	429.34
569.922	417.64
570.346	412.96
570.771	483.17
571.195	384.87
571.619	361.47
572.043	513.6
572.467	464.45
572.891	391.89
573.315	370.83
573.739	396.57
574.163	441.04
574.587	387.21
575.011	408.28
575.435	476.15
575.858	415.3
576.282	417.64
576.705	443.39
577.129	490.2
577.552	469.13
577.976	415.3
578.399	438.7
578.822	485.51
579.245	508.92
579.669	506.58
580.092	499.56
580.515	483.17
580.938	473.81
581.361	452.75
581.784	427
582.206	415.3
582.629	462.11
583.052	466.79
583.474	494.88
583.897	438.7
584.32	438.7
584.742	419.98
585.165	412.96
585.587	412.96
586.009	417.64
586.431	478.49
586.854	436.36
587.276	478.49
587.698	511.26
588.12	448.07
588.542	469.13
588.964	438.7
589.386	427
589.807	476.15
590.229	455.09
590.651	394.23
591.073	459.77
591.494	438.7
591.916	403.6
592.337	405.94
592.759	408.28
593.18	398.92
593.601	412.96
594.022	403.6
594.444	504.24
594.865	391.89
595.286	452.75
595.707	431.68
596.128	380.19
596.549	445.73
596.97	417.64
597.39	443.39
597.811	375.51
598.232	452.75
598.652	452.75
599.073	410.62
599.494	424.66
599.914	370.83
600.334	363.81
600.755	415.3
601.175	403.6
601.595	387.21
602.015	405.94
602.436	427
602.856	490.2
603.276	333.38
603.696	368.49
604.115	363.81
604.535	396.57
604.955	485.51
605.375	377.85
605.794	373.17
606.214	427
606.634	363.81
607.053	398.92
607.473	326.36
607.892	394.23
608.311	382.53
608.731	422.32
609.15	532.33
609.569	534.67
609.988	609.56
610.407	651.69
610.826	792.13
611.245	862.34
611.664	782.76
612.083	675.1
612.501	691.48
612.92	532.33
613.339	604.88
613.757	579.14
614.176	520.62
614.594	539.35
615.013	520.62
615.431	480.83
615.85	445.73
616.268	499.56
616.686	424.66
617.104	382.53
617.522	359.13
617.94	448.07
618.358	419.98
618.776	419.98
619.194	412.96
619.612	396.57
620.03	445.73
620.447	422.32
620.865	422.32
621.282	417.64
621.7	401.26
622.117	443.39
622.535	389.55
622.952	441.04
623.369	359.13
623.787	422.32
624.204	396.57
624.621	345.08
625.038	422.32
625.455	401.26
625.872	375.51
626.289	443.39
626.706	403.6
627.123	352.1
627.539	347.42
627.956	352.1
628.373	391.89
628.789	352.1
629.206	368.49
629.622	431.68
630.038	396.57
630.455	441.04
630.871	326.36
631.287	424.66
631.703	403.6
632.12	401.26
632.536	366.15
632.952	361.47
633.368	331.04
633.783	380.19
634.199	356.79
634.615	352.1
635.031	326.36
635.446	359.13
635.862	317
636.277	333.38
636.693	331.04
637.108	380.19
637.524	377.85
637.939	342.74
638.354	335.72
638.77	298.27
639.185	373.17
639.6	321.68
640.015	326.36
640.43	300.61
640.845	347.42
641.259	384.87
641.674	368.49
642.089	324.02
642.504	333.38
642.918	408.28
643.333	398.92
643.747	317
644.162	359.13
644.576	368.49
644.991	312.32
645.405	368.49
645.819	384.87
646.233	331.04
646.647	354.44
647.061	298.27
647.475	340.4
647.889	295.93
648.303	396.57
648.717	314.66
649.131	291.25
649.545	298.27
649.958	321.68
650.372	354.44
650.785	387.21
651.199	333.38
651.612	361.47
652.026	288.91
652.439	366.15
652.852	331.04
653.266	326.36
653.679	260.82
654.092	352.1
654.505	309.97
654.918	340.4
655.331	356.79
655.744	305.29
656.156	354.44
656.569	300.61
656.982	302.95
657.394	352.1
657.807	354.44
658.22	342.74
658.632	324.02
659.044	363.81
659.457	354.44
659.869	333.38
660.281	373.17
660.693	274.87
661.106	295.93
661.518	305.29
661.93	326.36
662.342	272.53
662.754	354.44
663.165	307.63
663.577	335.72
663.989	342.74
664.401	295.93
664.812	305.29
665.224	352.1
665.635	347.42
666.047	335.72
666.458	359.13
666.869	345.08
667.281	317
667.692	366.15
668.103	300.61
668.514	302.95
668.925	338.06
669.336	309.97
669.747	324.02
670.158	300.61
670.569	368.49
670.979	286.57
671.39	324.02
671.801	377.85
672.211	309.97
672.622	288.91
673.032	265.5
673.443	302.95
673.853	265.5
674.263	319.34
674.674	324.02
675.084	312.32
675.494	317
675.904	288.91
676.314	338.06
676.724	340.4
677.134	298.27
677.544	389.55
677.953	291.25
678.363	319.34
678.773	401.26
679.182	338.06
679.592	312.32
680.001	394.23
680.411	295.93
680.82	356.79
681.23	352.1
681.639	321.68
682.048	319.34
682.457	377.85
682.866	305.29
683.275	321.68
683.684	335.72
684.093	291.25
684.502	298.27
684.911	302.95
685.32	321.68
685.728	333.38
686.137	253.8
686.546	333.38
686.954	359.13
687.363	307.63
687.771	302.95
688.179	328.7
688.588	312.32
688.996	317
689.404	333.38
689.812	377.85
690.22	230.4
690.628	298.27
691.036	356.79
691.444	270.19
691.852	335.72
692.26	340.4
692.667	380.19
693.075	333.38
693.483	295.93
693.89	295.93
694.298	387.21
694.705	331.04
695.112	293.59
695.52	354.44
695.927	363.81
696.334	335.72
696.741	251.46
697.148	246.78
697.555	277.21
697.962	361.47
698.369	361.47
698.776	319.34
699.183	321.68
699.59	321.68
699.996	340.4
700.403	340.4
700.81	235.08
701.216	368.49
701.623	377.85
702.029	340.4
702.435	354.44
702.842	384.87
703.248	335.72
703.654	345.08
704.06	335.72
704.466	211.67
704.872	370.83
705.278	295.93
705.684	244.44
706.09	380.19
706.496	274.87
706.901	349.76
707.307	326.36
707.712	305.29
708.118	438.7
708.523	373.17
708.929	377.85
709.334	412.96
709.74	368.49
710.145	272.53
710.55	328.7
710.955	387.21
711.36	380.19
711.765	359.13
712.17	333.38
712.575	328.7
712.98	1047.24
713.385	340.4
713.789	284.23
714.194	284.23
714.599	314.66
715.003	300.61
715.408	260.82
715.812	274.87
716.217	340.4
716.621	335.72
717.025	333.38
717.429	272.53
717.833	298.27
718.238	373.17
718.642	342.74
719.046	331.04
719.449	356.79
719.853	300.61
720.257	277.21
720.661	321.68
721.065	373.17
721.468	286.57
721.872	277.21
722.275	354.44
722.679	274.87
723.082	305.29
723.485	326.36
723.889	284.23
724.292	286.57
724.695	335.72
725.098	284.23
725.501	347.42
725.904	242.1
726.307	302.95
726.71	375.51
727.113	293.59
727.516	314.66
727.918	305.29
728.321	298.27
728.724	352.1
729.126	382.53
729.529	302.95
729.931	288.91
730.333	281.89
730.736	251.46
731.138	319.34
731.54	270.19
731.942	338.06
732.344	281.89
732.746	356.79
733.148	309.97
733.55	309.97
733.952	291.25
734.354	324.02
734.756	291.25
735.157	272.53
735.559	309.97
735.96	305.29
736.362	288.91
736.763	258.48
737.165	295.93
737.566	319.34
737.967	340.4
738.368	342.74
738.77	274.87
739.171	288.91
739.572	249.12
739.973	326.36
740.374	335.72
740.774	326.36
741.175	235.08
741.576	270.19
741.977	253.8
742.377	272.53
742.778	272.53
743.178	277.21
743.579	328.7
743.979	281.89
744.379	295.93
744.78	342.74
745.18	326.36
745.58	324.02
745.98	272.53
746.38	335.72
746.78	298.27
747.18	328.7
747.58	284.23
747.98	333.38
748.38	347.42
748.779	314.66
749.179	244.44
749.578	359.13
749.978	317
750.377	319.34
750.777	288.91
751.176	300.61
751.575	373.17
751.975	370.83
752.374	272.53
752.773	253.8
753.172	309.97
753.571	286.57
753.97	317
754.369	291.25
754.768	258.48
755.166	356.79
755.565	312.32
755.964	309.97
756.362	370.83
756.761	340.4
757.159	319.34
757.558	345.08
757.956	352.1
758.354	387.21
758.753	321.68
759.151	309.97
759.549	277.21
759.947	335.72
760.345	326.36
760.743	331.04
761.141	309.97
761.539	298.27
761.936	305.29
762.334	352.1
762.732	382.53
763.129	347.42
763.527	281.89
763.924	345.08
764.322	331.04
764.719	324.02
765.117	314.66
765.514	328.7
765.911	319.34
766.308	340.4
766.705	354.44
767.102	312.32
767.499	324.02
767.896	295.93
768.293	317
768.69	333.38
769.086	288.91
769.483	382.53
769.88	354.44
770.276	309.97
770.673	363.81
771.069	286.57
771.466	356.79
771.862	324.02
772.258	258.48
772.654	291.25
773.05	302.95
773.447	314.66
773.843	293.59
774.239	256.14
774.634	258.48
775.03	260.82
775.426	298.27
775.822	284.23
776.218	335.72
776.613	331.04
777.009	361.47
777.404	366.15
777.8	396.57
778.195	291.25
778.59	302.95
778.986	270.19
779.381	291.25
779.776	340.4
780.171	272.53
780.566	274.87
780.961	319.34
781.356	319.34
781.751	288.91
782.146	300.61
782.54	321.68
782.935	309.97
783.33	384.87
783.724	342.74
784.119	277.21
784.513	242.1
784.908	356.79
785.302	352.1
785.696	279.55
786.09	279.55
786.485	319.34
786.879	361.47
787.273	359.13
787.667	333.38
788.061	319.34
788.454	338.06
788.848	298.27
789.242	284.23
789.636	209.33
790.029	300.61
790.423	295.93
790.816	338.06
791.21	293.59
791.603	298.27
791.997	366.15
792.39	317
792.783	258.48
793.176	298.27
793.569	361.47
793.962	441.04
794.355	356.79
794.748	298.27
795.141	342.74
795.534	321.68
795.927	286.57
796.319	333.38
796.712	333.38
797.105	293.59
797.497	256.14
797.89	349.76
798.282	321.68
798.674	270.19
799.067	298.27
799.459	302.95
799.851	349.76
800.243	256.14
800.635	281.89
801.027	267.85
801.419	321.68
801.811	307.63
802.203	340.4
802.594	342.74
802.986	298.27
803.378	246.78
803.769	352.1
804.161	284.23
804.552	284.23
804.944	328.7
805.335	363.81
805.726	363.81
806.118	326.36
806.509	307.63
806.9	356.79
807.291	324.02
807.682	342.74
808.073	300.61
808.464	249.12
808.855	342.74
809.245	256.14
809.636	307.63
810.027	263.16
810.417	354.44
810.808	335.72
811.198	345.08
811.589	291.25
811.979	347.42
812.369	281.89
812.759	352.1
813.15	347.42
813.54	352.1
813.93	305.29
814.32	352.1
814.71	288.91
815.1	384.87
815.489	345.08
815.879	302.95
816.269	331.04
816.658	338.06
817.048	366.15
817.438	319.34
817.827	293.59
818.216	293.59
818.606	286.57
818.995	408.28
819.384	244.44
819.773	307.63
820.163	373.17
820.552	326.36
820.941	298.27
821.33	295.93
821.718	347.42
822.107	305.29
822.496	319.34
822.885	352.1
823.273	321.68
823.662	380.19
824.05	396.57
824.439	295.93
824.827	284.23
825.216	326.36
825.604	302.95
825.992	293.59
826.38	331.04
826.768	321.68
827.156	314.66
827.544	354.44
827.932	340.4
828.32	284.23
828.708	377.85
829.096	317
829.483	328.7
829.871	340.4
830.259	317
830.646	331.04
831.034	295.93
831.421	286.57
831.808	260.82
832.196	277.21
832.583	317
832.97	317
833.357	251.46
833.744	258.48
834.131	298.27
834.518	319.34
834.905	342.74
835.292	300.61
835.678	260.82
836.065	305.29
836.452	263.16
836.838	288.91
837.225	305.29
837.611	249.12
837.998	312.32
838.384	300.61
838.77	291.25
839.157	293.59
839.543	279.55
839.929	284.23
840.315	305.29
840.701	328.7
841.087	293.59
841.473	300.61
841.858	302.95
842.244	349.76
842.63	300.61
843.015	288.91
843.401	684.46
843.787	354.44
844.172	326.36
844.557	309.97
844.943	291.25
845.328	272.53
845.713	309.97
846.098	277.21
846.483	352.1
846.868	324.02
847.253	342.74
847.638	347.42
848.023	279.55
848.408	274.87
848.793	214.01
849.177	298.27
849.562	272.53
849.947	305.29
850.331	331.04
850.715	347.42
851.1	291.25
851.484	258.48
851.868	312.32
852.253	345.08
852.637	319.34
853.021	309.97
853.405	326.36
853.789	279.55
854.173	338.06
854.557	277.21
854.94	342.74
855.324	305.29
855.708	328.7
856.091	361.47
856.475	274.87
856.858	326.36
857.242	317
857.625	291.25
858.009	359.13
858.392	293.59
858.775	342.74
859.158	309.97
859.541	333.38
859.924	354.44
860.307	321.68
860.69	298.27
861.073	286.57
861.456	293.59
861.838	347.42
862.221	354.44
862.604	319.34
862.986	321.68
863.369	359.13
863.751	370.83
864.133	230.4
864.516	291.25
864.898	242.1
865.28	270.19
865.662	331.04
866.044	293.59
866.426	352.1
866.808	333.38
867.19	286.57
867.572	349.76
867.954	382.53
868.336	349.76
868.717	349.76
869.099	321.68
869.48	321.68
869.862	356.79
870.243	317
870.625	274.87
871.006	340.4
871.387	265.5
871.768	305.29
872.149	305.29
872.53	354.44
872.911	302.95
873.292	321.68
873.673	359.13
874.054	302.95
874.435	295.93
874.815	256.14
875.196	288.91
875.577	242.1
875.957	335.72
876.338	265.5
876.718	279.55
877.098	366.15
877.479	333.38
877.859	281.89
878.239	265.5
878.619	333.38
878.999	338.06
879.379	312.32
879.759	333.38
880.139	270.19
880.519	317
880.898	305.29
881.278	354.44
881.658	279.55
882.037	305.29
882.417	281.89
882.796	317
883.176	319.34
883.555	305.29
883.934	312.32
884.313	314.66
884.693	370.83
885.072	309.97
885.451	345.08
885.83	279.55
886.209	317
886.587	312.32
886.966	281.89
887.345	300.61
887.724	244.44
888.102	319.34
888.481	298.27
888.859	286.57
889.238	309.97
889.616	169.54
889.994	291.25
890.373	272.53
890.751	317
891.129	328.7
891.507	324.02
891.885	305.29
892.263	333.38
892.641	295.93
893.019	291.25
893.396	274.87
893.774	293.59
894.152	265.5
894.529	307.63
894.907	324.02
895.284	270.19
895.662	354.44
896.039	302.95
896.416	253.8
896.794	345.08
897.171	324.02
897.548	300.61
897.925	260.82
898.302	202.31
898.679	281.89
899.056	307.63
899.433	356.79
899.809	277.21
900.186	284.23
900.563	305.29
900.939	281.89
901.316	314.66
901.692	307.63
902.069	307.63
902.445	302.95
902.821	389.55
903.197	317
903.574	305.29
903.95	319.34
904.326	260.82
904.702	279.55
905.078	300.61
905.454	288.91
905.829	356.79
906.205	412.96
906.581	347.42
906.956	281.89
907.332	328.7
907.707	286.57
908.083	249.12
908.458	295.93
908.833	277.21
909.209	370.83
909.584	298.27
909.959	284.23
910.334	345.08
910.709	354.44
911.084	349.76
911.459	319.34
911.834	270.19
912.209	295.93
912.583	300.61
912.958	321.68
913.333	319.34
913.707	366.15
914.082	298.27
914.456	300.61
914.83	335.72
915.205	375.51
915.579	300.61
915.953	305.29
916.327	239.76
916.701	249.12
917.075	366.15
917.449	347.42
917.823	349.76
918.197	326.36
918.571	321.68
918.944	244.44
919.318	309.97
919.692	335.72
920.065	319.34
920.438	298.27
920.812	244.44
921.185	277.21
921.558	333.38
921.932	291.25
922.305	380.19
922.678	235.08
923.051	335.72
923.424	279.55
923.797	300.61
924.17	312.32
924.542	314.66
924.915	258.48
925.288	305.29
925.661	333.38
926.033	298.27
926.406	251.46
926.778	274.87
927.15	302.95
927.523	354.44
927.895	314.66
928.267	338.06
928.639	270.19
929.011	288.91
929.383	239.76
929.755	331.04
930.127	263.16
930.499	328.7
930.871	221.03
931.242	288.91
931.614	293.59
931.986	291.25
932.357	286.57
932.729	359.13
933.1	380.19
933.471	242.1
933.843	235.08
934.214	302.95
934.585	349.76
934.956	279.55
935.327	324.02
935.698	338.06
936.069	307.63
936.44	256.14
936.811	319.34
937.182	284.23
937.552	342.74
937.923	324.02
938.293	326.36
938.664	324.02
939.034	279.55
939.405	326.36
939.775	359.13
940.145	324.02
940.516	312.32
940.886	403.6
941.256	249.12
941.626	265.5
941.996	349.76
942.366	298.27
942.735	249.12
943.105	260.82
943.475	307.63
943.845	293.59
944.214	356.79
944.584	298.27
944.953	356.79
945.323	324.02
945.692	279.55
946.061	314.66
946.43	314.66
946.8	356.79
947.169	293.59
947.538	281.89
947.907	298.27
948.276	274.87
948.645	267.85
949.013	340.4
949.382	291.25
949.751	281.89
950.119	312.32
950.488	340.4
950.857	270.19
951.225	258.48
951.593	309.97
951.962	335.72
952.33	345.08
952.698	309.97
953.066	284.23
953.434	295.93
953.802	281.89
954.17	295.93
954.538	328.7
954.906	354.44
955.274	326.36
955.642	305.29
956.009	260.82
956.377	281.89
956.744	249.12
957.112	295.93
957.479	256.14
957.847	277.21
958.214	272.53
958.581	349.76
958.948	363.81
959.315	270.19
959.683	349.76
960.05	235.08
960.416	302.95
960.783	281.89
961.15	267.85
961.517	349.76
961.884	319.34
962.25	354.44
962.617	267.85
962.983	345.08
963.35	302.95
963.716	333.38
964.082	309.97
964.449	288.91
964.815	319.34
965.181	359.13
965.547	359.13
965.913	309.97
966.279	295.93
966.645	291.25
967.011	321.68
967.377	354.44
967.742	366.15
968.108	251.46
968.474	249.12
968.839	321.68
969.205	295.93
969.57	263.16
969.935	328.7
970.301	265.5
970.666	288.91
971.031	335.72
971.396	305.29
971.761	319.34
972.126	326.36
972.491	314.66
972.856	267.85
973.221	302.95
973.586	314.66
973.95	300.61
974.315	279.55
974.679	321.68
975.044	302.95
975.408	265.5
975.773	319.34
976.137	295.93
976.501	312.32
976.866	302.95
977.23	237.42
977.594	342.74
977.958	405.94
978.322	279.55
978.686	326.36
979.049	317
979.413	335.72
979.777	260.82
980.141	253.8
980.504	338.06
980.868	286.57
981.231	314.66
981.595	300.61
981.958	324.02
982.321	324.02
982.684	251.46
983.048	340.4
983.411	277.21
983.774	312.32
984.137	298.27
984.5	300.61
984.862	293.59
985.225	354.44
985.588	270.19
985.951	281.89
986.313	295.93
986.676	293.59
987.038	295.93
987.401	319.34
987.763	272.53
988.125	354.44
988.488	354.44
988.85	284.23
989.212	305.29
989.574	309.97
989.936	291.25
990.298	272.53
990.66	326.36
991.022	382.53
991.383	281.89
991.745	324.02
992.107	305.29
992.468	295.93
992.83	291.25
993.191	291.25
993.553	279.55
993.914	237.42
994.275	265.5
994.637	352.1
994.998	314.66
995.359	286.57
995.72	340.4
996.081	237.42
996.442	335.72
996.803	396.57
997.163	340.4
997.524	279.55
997.885	340.4
998.245	277.21
998.606	251.46
998.966	288.91
999.327	300.61
999.687	302.95
1000.047	312.32
1000.408	324.02
1000.768	286.57
1001.128	324.02
1001.488	331.04
1001.848	284.23
1002.208	256.14
1002.568	302.95
1002.927	317
1003.287	335.72
1003.647	363.81
1004.007	298.27
1004.366	293.59
1004.726	328.7
1005.085	281.89
1005.444	347.42
1005.804	366.15
1006.163	298.27
1006.522	356.79
1006.881	342.74
1007.24	286.57
1007.599	277.21
1007.958	314.66
1008.317	361.47
1008.676	279.55
1009.035	326.36
1009.393	382.53
1009.752	288.91
1010.111	335.72
1010.469	272.53
1010.828	286.57
1011.186	324.02
1011.544	324.02
1011.903	281.89
1012.261	333.38
1012.619	298.27
1012.977	317
1013.335	377.85
1013.693	309.97
1014.051	279.55
1014.409	300.61
1014.767	221.03
1015.124	312.32
1015.482	333.38
1015.84	375.51
1016.197	328.7
1016.555	293.59
1016.912	331.04
1017.269	331.04
1017.627	319.34
1017.984	263.16
1018.341	317
1018.698	349.76
1019.055	312.32
1019.412	267.85
1019.769	286.57
1020.126	291.25
1020.483	340.4
1020.84	335.72
1021.196	307.63
1021.553	317
1021.909	356.79
1022.266	228.06
1022.622	277.21
1022.979	380.19
1023.335	408.28
1023.691	361.47
1024.047	340.4
1024.404	326.36
1024.76	359.13
1025.116	368.49
1025.472	274.87
1025.827	331.04
1026.183	202.31
1026.539	340.4
1026.895	284.23
1027.25	293.59
1027.606	326.36
1027.961	274.87
1028.317	251.46
1028.672	256.14
1029.028	317
1029.383	324.02
1029.738	326.36
1030.093	295.93
1030.448	302.95
1030.803	295.93
1031.158	251.46
1031.513	347.42
1031.868	279.55
1032.223	284.23
1032.577	307.63
1032.932	347.42
1033.287	314.66
1033.641	300.61
1033.996	242.1
1034.35	338.06
1034.704	319.34
1035.059	232.74
1035.413	267.85
1035.767	267.85
1036.121	267.85
