Data from Al_FLMS009871__1124__16-34-12-094.txt Node

Date: Fri Mar 08 16:34:12 CST 2024
User: pe5414po
Spectrometer: FLMS00987
Trigger mode: 0
Integration Time (sec): 1.000000E-1
Scans to average: 1
Electric dark correction enabled: true
Nonlinearity correction enabled: false
Boxcar width: 0
XAxis mode: Wavelengths
Number of Pixels in Spectrum: 2048
>>>>>Begin Spectral Data<<<<<
188.938	-67.14
189.409	-67.14
189.879	-67.14
190.349	-149.06
190.819	-128
191.29	-99.91
191.76	-104.59
192.23	-149.06
192.7	-57.78
193.17	19.46
193.64	-32.04
194.109	-43.74
194.579	-104.59
195.049	-48.42
195.519	31.16
195.988	99.03
196.458	19.46
196.927	82.65
197.397	92.01
197.866	136.48
198.336	159.89
198.805	129.46
199.274	96.69
199.744	166.91
200.213	131.8
200.682	199.68
201.151	213.72
201.62	211.38
202.089	246.49
202.558	223.08
203.027	234.78
203.495	190.31
203.964	234.78
204.433	234.78
204.902	302.66
205.37	260.53
205.839	305
206.307	232.44
206.776	237.13
207.244	234.78
207.712	269.89
208.181	328.41
208.649	330.75
209.117	333.09
209.585	265.21
210.053	283.94
210.521	283.94
210.989	286.28
211.457	286.28
211.925	272.23
212.393	220.74
212.861	258.19
213.328	272.23
213.796	305
214.264	321.38
214.731	305
215.199	314.36
215.666	237.13
216.133	244.15
216.601	309.68
217.068	281.6
217.535	262.87
218.003	267.55
218.47	241.81
218.937	307.34
219.404	260.53
219.871	223.08
220.338	276.91
220.805	312.02
221.271	199.68
221.738	265.21
222.205	204.36
222.671	286.28
223.138	230.1
223.605	248.83
224.071	239.47
224.538	246.49
225.004	216.06
225.47	258.19
225.937	239.47
226.403	281.6
226.869	244.15
227.335	269.89
227.801	230.1
228.267	244.15
228.733	321.38
229.199	237.13
229.665	269.89
230.131	230.1
230.597	232.44
231.062	178.61
231.528	206.7
231.994	227.76
232.459	234.78
232.925	312.02
233.39	209.04
233.856	260.53
234.321	258.19
234.786	237.13
235.252	337.77
235.717	286.28
236.182	255.85
236.647	248.83
237.112	272.23
237.577	260.53
238.042	290.96
238.507	286.28
238.972	244.15
239.436	237.13
239.901	274.57
240.366	302.66
240.83	290.96
241.295	255.85
241.76	272.23
242.224	290.96
242.688	314.36
243.153	297.98
243.617	295.64
244.081	237.13
244.545	312.02
245.01	211.38
245.474	293.3
245.938	276.91
246.402	258.19
246.866	309.68
247.33	281.6
247.793	337.77
248.257	262.87
248.721	253.51
249.185	274.57
249.648	232.44
250.112	302.66
250.575	269.89
251.039	307.34
251.502	248.83
251.965	288.62
252.429	276.91
252.892	302.66
253.355	265.21
253.818	337.77
254.281	330.75
254.744	281.6
255.207	267.55
255.67	286.28
256.133	330.75
256.596	323.73
257.059	241.81
257.522	234.78
257.984	300.32
258.447	230.1
258.909	305
259.372	251.17
259.834	302.66
260.297	232.44
260.759	253.51
261.221	276.91
261.684	246.49
262.146	248.83
262.608	213.72
263.07	283.94
263.532	337.77
263.994	262.87
264.456	267.55
264.918	260.53
265.38	244.15
265.842	293.3
266.303	279.26
266.765	323.73
267.227	279.26
267.688	326.07
268.15	309.68
268.611	344.79
269.072	319.04
269.534	246.49
269.995	321.38
270.456	279.26
270.918	246.49
271.379	358.83
271.84	319.04
272.301	347.13
272.762	326.07
273.223	267.55
273.684	309.68
274.144	255.85
274.605	293.3
275.066	293.3
275.527	248.83
275.987	312.02
276.448	295.64
276.908	319.04
277.369	262.87
277.829	323.73
278.289	253.51
278.75	323.73
279.21	237.13
279.67	279.26
280.13	309.68
280.59	274.57
281.05	286.28
281.51	314.36
281.97	330.75
282.43	279.26
282.89	253.51
283.35	234.78
283.809	248.83
284.269	319.04
284.729	246.49
285.188	251.17
285.648	246.49
286.107	267.55
286.567	255.85
287.026	244.15
287.485	279.26
287.944	305
288.404	267.55
288.863	272.23
289.322	283.94
289.781	321.38
290.24	309.68
290.699	267.55
291.158	279.26
291.616	319.04
292.075	295.64
292.534	232.44
292.992	281.6
293.451	260.53
293.91	307.34
294.368	267.55
294.827	297.98
295.285	279.26
295.743	251.17
296.202	274.57
296.66	328.41
297.118	307.34
297.576	279.26
298.034	283.94
298.492	272.23
298.95	302.66
299.408	293.3
299.866	321.38
300.324	323.73
300.781	283.94
301.239	337.77
301.697	323.73
302.154	276.91
302.612	314.36
303.069	295.64
303.527	316.7
303.984	305
304.441	272.23
304.899	276.91
305.356	295.64
305.813	326.07
306.27	253.51
306.727	265.21
307.184	323.73
307.641	290.96
308.098	288.62
308.555	255.85
309.012	281.6
309.468	220.74
309.925	297.98
310.382	340.11
310.838	295.64
311.295	241.81
311.751	314.36
312.208	293.3
312.664	290.96
313.12	258.19
313.577	297.98
314.033	314.36
314.489	328.41
314.945	335.43
315.401	314.36
315.857	293.3
316.313	319.04
316.769	368.2
317.225	269.89
317.681	276.91
318.136	272.23
318.592	377.56
319.048	267.55
319.503	307.34
319.959	337.77
320.414	279.26
320.869	286.28
321.325	258.19
321.78	330.75
322.235	265.21
322.691	283.94
323.146	305
323.601	187.97
324.056	300.32
324.511	300.32
324.966	333.09
325.421	295.64
325.875	288.62
326.33	330.75
326.785	368.2
327.24	281.6
327.694	272.23
328.149	316.7
328.603	328.41
329.058	342.45
329.512	274.57
329.966	335.43
330.421	307.34
330.875	297.98
331.329	300.32
331.783	253.51
332.237	321.38
332.691	330.75
333.145	265.21
333.599	335.43
334.053	354.15
334.507	337.77
334.96	309.68
335.414	309.68
335.868	321.38
336.321	293.3
336.775	274.57
337.228	302.66
337.682	307.34
338.135	262.87
338.588	267.55
339.042	328.41
339.495	319.04
339.948	321.38
340.401	269.89
340.854	290.96
341.307	312.02
341.76	302.66
342.213	290.96
342.666	288.62
343.119	335.43
343.571	309.68
344.024	262.87
344.477	307.34
344.929	274.57
345.382	293.3
345.834	269.89
346.287	288.62
346.739	288.62
347.191	342.45
347.644	337.77
348.096	288.62
348.548	293.3
349	274.57
349.452	239.47
349.904	274.57
350.356	265.21
350.808	314.36
351.26	267.55
351.711	319.04
352.163	314.36
352.615	328.41
353.066	365.85
353.518	314.36
353.969	312.02
354.421	305
354.872	316.7
355.324	382.24
355.775	258.19
356.226	290.96
356.677	356.49
357.128	297.98
357.579	377.56
358.03	314.36
358.481	302.66
358.932	316.7
359.383	297.98
359.834	295.64
360.285	323.73
360.735	286.28
361.186	330.75
361.637	326.07
362.087	248.83
362.538	328.41
362.988	295.64
363.438	342.45
363.889	335.43
364.339	272.23
364.789	288.62
365.239	272.23
365.689	342.45
366.139	265.21
366.589	199.68
367.039	251.17
367.489	241.81
367.939	262.87
368.389	375.22
368.839	309.68
369.288	344.79
369.738	274.57
370.187	344.79
370.637	288.62
371.086	283.94
371.536	307.34
371.985	314.36
372.434	251.17
372.884	382.24
373.333	333.09
373.782	321.38
374.231	290.96
374.68	307.34
375.129	255.85
375.578	328.41
376.027	272.23
376.475	297.98
376.924	316.7
377.373	337.77
377.822	344.79
378.27	302.66
378.719	312.02
379.167	283.94
379.616	363.51
380.064	302.66
380.512	333.09
380.961	342.45
381.409	323.73
381.857	307.34
382.305	337.77
382.753	286.28
383.201	351.81
383.649	309.68
384.097	349.47
384.545	297.98
384.992	267.55
385.44	333.09
385.888	321.38
386.335	328.41
386.783	265.21
387.231	342.45
387.678	305
388.125	300.32
388.573	307.34
389.02	337.77
389.467	281.6
389.914	276.91
390.362	265.21
390.809	326.07
391.256	340.11
391.703	326.07
392.15	328.41
392.596	342.45
393.043	335.43
393.49	333.09
393.937	293.3
394.383	288.62
394.83	356.49
395.276	377.56
395.723	328.41
396.169	328.41
396.616	283.94
397.062	312.02
397.508	319.04
397.954	316.7
398.401	382.24
398.847	272.23
399.293	342.45
399.739	297.98
400.185	269.89
400.631	218.4
401.076	293.3
401.522	290.96
401.968	321.38
402.414	227.76
402.859	230.1
403.305	234.78
403.75	283.94
404.196	305
404.641	281.6
405.086	295.64
405.532	274.57
405.977	295.64
406.422	230.1
406.867	307.34
407.312	323.73
407.757	272.23
408.202	253.51
408.647	314.36
409.092	279.26
409.537	286.28
409.982	321.38
410.426	330.75
410.871	319.04
411.316	293.3
411.76	323.73
412.205	351.81
412.649	347.13
413.093	316.7
413.538	323.73
413.982	305
414.426	286.28
414.87	312.02
415.314	312.02
415.758	309.68
416.202	314.36
416.646	300.32
417.09	323.73
417.534	328.41
417.978	237.13
418.421	361.17
418.865	340.11
419.309	337.77
419.752	293.3
420.196	365.85
420.639	328.41
421.083	333.09
421.526	312.02
421.969	309.68
422.412	279.26
422.856	382.24
423.299	295.64
423.742	356.49
424.185	354.15
424.628	302.66
425.071	330.75
425.513	328.41
425.956	283.94
426.399	307.34
426.842	272.23
427.284	356.49
427.727	307.34
428.169	351.81
428.612	269.89
429.054	326.07
429.497	265.21
429.939	335.43
430.381	333.09
430.823	255.85
431.265	307.34
431.707	333.09
432.149	260.53
432.591	290.96
433.033	309.68
433.475	340.11
433.917	295.64
434.359	405.64
434.8	297.98
435.242	330.75
435.684	211.38
436.125	337.77
436.567	248.83
437.008	335.43
437.449	295.64
437.891	393.94
438.332	312.02
438.773	379.9
439.214	302.66
439.656	342.45
440.097	288.62
440.538	305
440.978	305
441.419	267.55
441.86	347.13
442.301	386.92
442.742	244.15
443.182	300.32
443.623	290.96
444.063	307.34
444.504	328.41
444.944	321.38
445.385	349.47
445.825	274.57
446.265	321.38
446.706	297.98
447.146	244.15
447.586	281.6
448.026	300.32
448.466	323.73
448.906	316.7
449.346	349.47
449.786	316.7
450.225	368.2
450.665	361.17
451.105	251.17
451.544	319.04
451.984	237.13
452.424	281.6
452.863	314.36
453.302	326.07
453.742	302.66
454.181	258.19
454.62	326.07
455.059	422.03
455.499	297.98
455.938	342.45
456.377	309.68
456.816	288.62
457.254	316.7
457.693	340.11
458.132	309.68
458.571	340.11
459.01	288.62
459.448	232.44
459.887	328.41
460.325	283.94
460.764	333.09
461.202	288.62
461.641	283.94
462.079	312.02
462.517	290.96
462.955	347.13
463.393	344.79
463.832	258.19
464.27	333.09
464.708	316.7
465.145	260.53
465.583	279.26
466.021	286.28
466.459	276.91
466.897	279.26
467.334	260.53
467.772	302.66
468.209	337.77
468.647	347.13
469.084	293.3
469.522	279.26
469.959	253.51
470.396	297.98
470.833	349.47
471.271	220.74
471.708	358.83
472.145	293.3
472.582	297.98
473.019	375.22
473.456	328.41
473.892	328.41
474.329	295.64
474.766	307.34
475.202	344.79
475.639	326.07
476.076	335.43
476.512	323.73
476.949	241.81
477.385	321.38
477.821	283.94
478.258	302.66
478.694	276.91
479.13	340.11
479.566	276.91
480.002	347.13
480.438	328.41
480.874	300.32
481.31	281.6
481.746	323.73
482.181	335.43
482.617	241.81
483.053	279.26
483.488	368.2
483.924	290.96
484.36	237.13
484.795	312.02
485.23	307.34
485.666	258.19
486.101	363.51
486.536	305
486.971	309.68
487.407	293.3
487.842	300.32
488.277	283.94
488.712	361.17
489.146	321.38
489.581	300.32
490.016	269.89
490.451	309.68
490.885	342.45
491.32	319.04
491.755	283.94
492.189	321.38
492.624	288.62
493.058	309.68
493.492	265.21
493.927	309.68
494.361	323.73
494.795	302.66
495.229	340.11
495.663	309.68
496.097	335.43
496.531	384.58
496.965	300.32
497.399	253.51
497.833	260.53
498.266	293.3
498.7	335.43
499.134	288.62
499.567	288.62
500.001	307.34
500.434	300.32
500.868	330.75
501.301	326.07
501.734	330.75
502.168	293.3
502.601	260.53
503.034	323.73
503.467	312.02
503.9	281.6
504.333	295.64
504.766	335.43
505.199	300.32
505.632	337.77
506.064	363.51
506.497	258.19
506.93	321.38
507.362	274.57
507.795	307.34
508.227	330.75
508.66	267.55
509.092	356.49
509.524	267.55
509.956	293.3
510.389	272.23
510.821	267.55
511.253	307.34
511.685	295.64
512.117	351.81
512.549	340.11
512.981	342.45
513.412	283.94
513.844	361.17
514.276	328.41
514.707	286.28
515.139	309.68
515.571	323.73
516.002	328.41
516.433	326.07
516.865	206.7
517.296	316.7
517.727	295.64
518.159	255.85
518.59	302.66
519.021	283.94
519.452	274.57
519.883	295.64
520.314	323.73
520.744	319.04
521.175	412.67
521.606	286.28
522.037	309.68
522.467	351.81
522.898	283.94
523.328	340.11
523.759	337.77
524.189	293.3
524.62	347.13
525.05	253.51
525.48	244.15
525.91	283.94
526.341	328.41
526.771	330.75
527.201	288.62
527.631	307.34
528.061	328.41
528.49	312.02
528.92	333.09
529.35	302.66
529.78	312.02
530.209	288.62
530.639	347.13
531.068	323.73
531.498	351.81
531.927	328.41
532.357	293.3
532.786	297.98
533.215	347.13
533.644	267.55
534.074	232.44
534.503	370.54
534.932	335.43
535.361	316.7
535.79	361.17
536.218	316.7
536.647	290.96
537.076	330.75
537.505	316.7
537.933	319.04
538.362	279.26
538.79	269.89
539.219	333.09
539.647	279.26
540.076	326.07
540.504	274.57
540.932	335.43
541.36	230.1
541.788	283.94
542.217	335.43
542.645	276.91
543.073	302.66
543.5	295.64
543.928	319.04
544.356	326.07
544.784	305
545.211	295.64
545.639	314.36
546.067	349.47
546.494	283.94
546.922	276.91
547.349	267.55
547.776	319.04
548.204	305
548.631	300.32
549.058	295.64
549.485	230.1
549.912	312.02
550.339	305
550.766	297.98
551.193	323.73
551.62	305
552.047	276.91
552.474	333.09
552.9	307.34
553.327	319.04
553.754	281.6
554.18	295.64
554.607	328.41
555.033	326.07
555.459	283.94
555.886	321.38
556.312	379.9
556.738	237.13
557.164	288.62
557.59	305
558.016	300.32
558.442	319.04
558.868	286.28
559.294	260.53
559.72	323.73
560.145	316.7
560.571	340.11
560.997	305
561.422	288.62
561.848	286.28
562.273	344.79
562.699	309.68
563.124	319.04
563.549	288.62
563.974	361.17
564.4	293.3
564.825	321.38
565.25	372.88
565.675	288.62
566.1	342.45
566.525	309.68
566.95	276.91
567.374	232.44
567.799	265.21
568.224	276.91
568.648	312.02
569.073	319.04
569.497	279.26
569.922	290.96
570.346	295.64
570.771	398.62
571.195	340.11
571.619	307.34
572.043	358.83
572.467	319.04
572.891	370.54
573.315	300.32
573.739	363.51
574.163	272.23
574.587	297.98
575.011	309.68
575.435	274.57
575.858	255.85
576.282	288.62
576.705	363.51
577.129	269.89
577.552	267.55
577.976	272.23
578.399	288.62
578.822	344.79
579.245	316.7
579.669	365.85
580.092	279.26
580.515	297.98
580.938	241.81
581.361	283.94
581.784	316.7
582.206	269.89
582.629	344.79
583.052	265.21
583.474	319.04
583.897	340.11
584.32	340.11
584.742	316.7
585.165	328.41
585.587	293.3
586.009	262.87
586.431	262.87
586.854	269.89
587.276	293.3
587.698	276.91
588.12	344.79
588.542	330.75
588.964	330.75
589.386	314.36
589.807	258.19
590.229	368.2
590.651	319.04
591.073	286.28
591.494	258.19
591.916	347.13
592.337	356.49
592.759	283.94
593.18	319.04
593.601	267.55
594.022	312.02
594.444	307.34
594.865	286.28
595.286	283.94
595.707	333.09
596.128	337.77
596.549	288.62
596.97	328.41
597.39	314.36
597.811	361.17
598.232	246.49
598.652	260.53
599.073	312.02
599.494	333.09
599.914	262.87
600.334	286.28
600.755	293.3
601.175	323.73
601.595	262.87
602.015	330.75
602.436	267.55
602.856	412.67
603.276	314.36
603.696	321.38
604.115	305
604.535	305
604.955	297.98
605.375	272.23
605.794	309.68
606.214	309.68
606.634	300.32
607.053	326.07
607.473	335.43
607.892	297.98
608.311	321.38
608.731	302.66
609.15	340.11
609.569	283.94
609.988	302.66
610.407	328.41
610.826	328.41
611.245	323.73
611.664	342.45
612.083	239.47
612.501	340.11
612.92	302.66
613.339	281.6
613.757	323.73
614.176	300.32
614.594	300.32
615.013	272.23
615.431	283.94
615.85	295.64
616.268	274.57
616.686	302.66
617.104	246.49
617.522	300.32
617.94	290.96
618.358	328.41
618.776	342.45
619.194	333.09
619.612	316.7
620.03	269.89
620.447	255.85
620.865	281.6
621.282	347.13
621.7	274.57
622.117	302.66
622.535	356.49
622.952	283.94
623.369	326.07
623.787	276.91
624.204	272.23
624.621	260.53
625.038	300.32
625.455	288.62
625.872	305
626.289	265.21
626.706	279.26
627.123	326.07
627.539	316.7
627.956	319.04
628.373	375.22
628.789	358.83
629.206	307.34
629.622	358.83
630.038	274.57
630.455	330.75
630.871	305
631.287	307.34
631.703	276.91
632.12	351.81
632.536	281.6
632.952	347.13
633.368	354.15
633.783	305
634.199	244.15
634.615	283.94
635.031	344.79
635.446	354.15
635.862	286.28
636.277	307.34
636.693	290.96
637.108	274.57
637.524	283.94
637.939	337.77
638.354	283.94
638.77	307.34
639.185	276.91
639.6	300.32
640.015	265.21
640.43	319.04
640.845	312.02
641.259	314.36
641.674	349.47
642.089	337.77
642.504	279.26
642.918	319.04
643.333	286.28
643.747	262.87
644.162	307.34
644.576	265.21
644.991	293.3
645.405	323.73
645.819	321.38
646.233	255.85
646.647	337.77
647.061	305
647.475	314.36
647.889	300.32
648.303	328.41
648.717	344.79
649.131	328.41
649.545	309.68
649.958	326.07
650.372	302.66
650.785	297.98
651.199	363.51
651.612	297.98
652.026	372.88
652.439	300.32
652.852	368.2
653.266	312.02
653.679	274.57
654.092	354.15
654.505	335.43
654.918	267.55
655.331	276.91
655.744	309.68
656.156	340.11
656.569	340.11
656.982	286.28
657.394	290.96
657.807	297.98
658.22	314.36
658.632	342.45
659.044	314.36
659.457	269.89
659.869	330.75
660.281	323.73
660.693	309.68
661.106	333.09
661.518	312.02
661.93	300.32
662.342	290.96
662.754	288.62
663.165	309.68
663.577	356.49
663.989	312.02
664.401	297.98
664.812	237.13
665.224	274.57
665.635	274.57
666.047	272.23
666.458	288.62
666.869	272.23
667.281	267.55
667.692	272.23
668.103	344.79
668.514	288.62
668.925	293.3
669.336	314.36
669.747	283.94
670.158	246.49
670.569	302.66
670.979	276.91
671.39	272.23
671.801	309.68
672.211	323.73
672.622	323.73
673.032	337.77
673.443	377.56
673.853	363.51
674.263	342.45
674.674	337.77
675.084	344.79
675.494	309.68
675.904	297.98
676.314	319.04
676.724	321.38
677.134	302.66
677.544	288.62
677.953	372.88
678.363	316.7
678.773	337.77
679.182	267.55
679.592	312.02
680.001	274.57
680.411	354.15
680.82	326.07
681.23	248.83
681.639	206.7
682.048	295.64
682.457	330.75
682.866	297.98
683.275	328.41
683.684	335.43
684.093	295.64
684.502	290.96
684.911	330.75
685.32	321.38
685.728	269.89
686.137	272.23
686.546	330.75
686.954	337.77
687.363	300.32
687.771	227.76
688.179	269.89
688.588	319.04
688.996	251.17
689.404	288.62
689.812	309.68
690.22	330.75
690.628	302.66
691.036	297.98
691.444	293.3
691.852	312.02
692.26	337.77
692.667	300.32
693.075	363.51
693.483	305
693.89	309.68
694.298	358.83
694.705	349.47
695.112	297.98
695.52	230.1
695.927	312.02
696.334	258.19
696.741	305
697.148	312.02
697.555	239.47
697.962	347.13
698.369	230.1
698.776	314.36
699.183	319.04
699.59	319.04
699.996	340.11
700.403	305
700.81	361.17
701.216	368.2
701.623	316.7
702.029	365.85
702.435	365.85
702.842	276.91
703.248	300.32
703.654	237.13
704.06	358.83
704.466	377.56
704.872	276.91
705.278	335.43
705.684	342.45
706.09	361.17
706.496	305
706.901	272.23
707.307	415.01
707.712	333.09
708.118	305
708.523	281.6
708.929	321.38
709.334	290.96
709.74	375.22
710.145	361.17
710.55	344.79
710.955	300.32
711.36	269.89
711.765	391.6
712.17	342.45
712.575	335.43
712.98	808.22
713.385	372.88
713.789	302.66
714.194	337.77
714.599	330.75
715.003	314.36
715.408	363.51
715.812	300.32
716.217	246.49
716.621	351.81
717.025	262.87
717.429	335.43
717.833	274.57
718.238	262.87
718.642	361.17
719.046	283.94
719.449	302.66
719.853	305
720.257	260.53
720.661	314.36
721.065	347.13
721.468	305
721.872	309.68
722.275	354.15
722.679	290.96
723.082	279.26
723.485	244.15
723.889	340.11
724.292	312.02
724.695	297.98
725.098	283.94
725.501	354.15
725.904	295.64
726.307	300.32
726.71	255.85
727.113	305
727.516	326.07
727.918	323.73
728.321	316.7
728.724	314.36
729.126	319.04
729.529	330.75
729.931	300.32
730.333	326.07
730.736	384.58
731.138	312.02
731.54	253.51
731.942	340.11
732.344	293.3
732.746	260.53
733.148	253.51
733.55	330.75
733.952	342.45
734.354	347.13
734.756	307.34
735.157	344.79
735.559	290.96
735.96	286.28
736.362	293.3
736.763	293.3
737.165	297.98
737.566	288.62
737.967	337.77
738.368	337.77
738.77	262.87
739.171	274.57
739.572	316.7
739.973	363.51
740.374	265.21
740.774	372.88
741.175	305
741.576	358.83
741.977	297.98
742.377	295.64
742.778	344.79
743.178	295.64
743.579	290.96
743.979	269.89
744.379	267.55
744.78	316.7
745.18	281.6
745.58	316.7
745.98	307.34
746.38	309.68
746.78	269.89
747.18	358.83
747.58	293.3
747.98	297.98
748.38	358.83
748.779	302.66
749.179	286.28
749.578	295.64
749.978	335.43
750.377	342.45
750.777	295.64
751.176	389.26
751.575	375.22
751.975	260.53
752.374	244.15
752.773	314.36
753.172	323.73
753.571	293.3
753.97	246.49
754.369	279.26
754.768	248.83
755.166	305
755.565	342.45
755.964	309.68
756.362	316.7
756.761	295.64
757.159	305
757.558	342.45
757.956	326.07
758.354	321.38
758.753	356.49
759.151	333.09
759.549	258.19
759.947	326.07
760.345	300.32
760.743	363.51
761.141	328.41
761.539	272.23
761.936	354.15
762.334	279.26
762.732	321.38
763.129	326.07
763.527	321.38
763.924	321.38
764.322	354.15
764.719	309.68
765.117	326.07
765.514	342.45
765.911	309.68
766.308	363.51
766.705	354.15
767.102	293.3
767.499	347.13
767.896	288.62
768.293	340.11
768.69	246.49
769.086	356.49
769.483	288.62
769.88	312.02
770.276	267.55
770.673	323.73
771.069	274.57
771.466	391.6
771.862	286.28
772.258	309.68
772.654	305
773.05	276.91
773.447	335.43
773.843	347.13
774.239	297.98
774.634	276.91
775.03	314.36
775.426	354.15
775.822	269.89
776.218	293.3
776.613	342.45
777.009	323.73
777.404	260.53
777.8	293.3
778.195	337.77
778.59	286.28
778.986	319.04
779.381	307.34
779.776	239.47
780.171	279.26
780.566	276.91
780.961	260.53
781.356	335.43
781.751	351.81
782.146	227.76
782.54	337.77
782.935	223.08
783.33	354.15
783.724	319.04
784.119	323.73
784.513	354.15
784.908	349.47
785.302	335.43
785.696	297.98
786.09	309.68
786.485	330.75
786.879	262.87
787.273	288.62
787.667	307.34
788.061	246.49
788.454	314.36
788.848	340.11
789.242	326.07
789.636	316.7
790.029	267.55
790.423	333.09
790.816	281.6
791.21	302.66
791.603	279.26
791.997	319.04
792.39	286.28
792.783	316.7
793.176	230.1
793.569	288.62
793.962	288.62
794.355	286.28
794.748	288.62
795.141	290.96
795.534	302.66
795.927	293.3
796.319	300.32
796.712	354.15
797.105	326.07
797.497	431.39
797.89	281.6
798.282	316.7
798.674	330.75
799.067	363.51
799.459	302.66
799.851	283.94
800.243	297.98
800.635	276.91
801.027	293.3
801.419	314.36
801.811	319.04
802.203	316.7
802.594	314.36
802.986	286.28
803.378	276.91
803.769	340.11
804.161	321.38
804.552	319.04
804.944	258.19
805.335	281.6
805.726	337.77
806.118	258.19
806.509	265.21
806.9	276.91
807.291	344.79
807.682	265.21
808.073	319.04
808.464	239.47
808.855	295.64
809.245	283.94
809.636	305
810.027	297.98
810.417	300.32
810.808	272.23
811.198	351.81
811.589	253.51
811.979	269.89
812.369	283.94
812.759	237.13
813.15	309.68
813.54	330.75
813.93	363.51
814.32	276.91
814.71	323.73
815.1	279.26
815.489	309.68
815.879	316.7
816.269	389.26
816.658	290.96
817.048	288.62
817.438	349.47
817.827	326.07
818.216	305
818.606	316.7
818.995	251.17
819.384	319.04
819.773	297.98
820.163	305
820.552	274.57
820.941	312.02
821.33	241.81
821.718	330.75
822.107	276.91
822.496	262.87
822.885	300.32
823.273	312.02
823.662	239.47
824.05	272.23
824.439	382.24
824.827	251.17
825.216	248.83
825.604	276.91
825.992	321.38
826.38	340.11
826.768	382.24
827.156	300.32
827.544	305
827.932	347.13
828.32	323.73
828.708	269.89
829.096	251.17
829.483	262.87
829.871	326.07
830.259	267.55
830.646	321.38
831.034	283.94
831.421	297.98
831.808	368.2
832.196	300.32
832.583	342.45
832.97	290.96
833.357	316.7
833.744	272.23
834.131	335.43
834.518	365.85
834.905	255.85
835.292	297.98
835.678	363.51
836.065	302.66
836.452	321.38
836.838	347.13
837.225	316.7
837.611	321.38
837.998	356.49
838.384	342.45
838.77	316.7
839.157	335.43
839.543	290.96
839.929	335.43
840.315	286.28
840.701	279.26
841.087	326.07
841.473	269.89
841.858	274.57
842.244	309.68
842.63	349.47
843.015	340.11
843.401	326.07
843.787	286.28
844.172	349.47
844.557	286.28
844.943	281.6
845.328	340.11
845.713	309.68
846.098	314.36
846.483	333.09
846.868	335.43
847.253	356.49
847.638	396.28
848.023	356.49
848.408	305
848.793	354.15
849.177	340.11
849.562	286.28
849.947	269.89
850.331	300.32
850.715	274.57
851.1	384.58
851.484	295.64
851.868	302.66
852.253	218.4
852.637	286.28
853.021	251.17
853.405	300.32
853.789	323.73
854.173	309.68
854.557	290.96
854.94	293.3
855.324	330.75
855.708	328.41
856.091	302.66
856.475	349.47
856.858	347.13
857.242	244.15
857.625	316.7
858.009	276.91
858.392	267.55
858.775	307.34
859.158	340.11
859.541	321.38
859.924	290.96
860.307	267.55
860.69	372.88
861.073	342.45
861.456	281.6
861.838	279.26
862.221	248.83
862.604	218.4
862.986	267.55
863.369	340.11
863.751	335.43
864.133	295.64
864.516	248.83
864.898	323.73
865.28	286.28
865.662	269.89
866.044	300.32
866.426	365.85
866.808	309.68
867.19	295.64
867.572	293.3
867.954	274.57
868.336	274.57
868.717	274.57
869.099	290.96
869.48	290.96
869.862	290.96
870.243	323.73
870.625	314.36
871.006	297.98
871.387	307.34
871.768	255.85
872.149	365.85
872.53	295.64
872.911	330.75
873.292	297.98
873.673	295.64
874.054	326.07
874.435	309.68
874.815	281.6
875.196	283.94
875.577	309.68
875.957	316.7
876.338	335.43
876.718	330.75
877.098	333.09
877.479	297.98
877.859	354.15
878.239	279.26
878.619	365.85
878.999	290.96
879.379	312.02
879.759	279.26
880.139	255.85
880.519	368.2
880.898	288.62
881.278	333.09
881.658	265.21
882.037	370.54
882.417	281.6
882.796	274.57
883.176	319.04
883.555	290.96
883.934	248.83
884.313	330.75
884.693	290.96
885.072	363.51
885.451	410.33
885.83	314.36
886.209	253.51
886.587	260.53
886.966	358.83
887.345	321.38
887.724	309.68
888.102	321.38
888.481	260.53
888.859	333.09
889.238	314.36
889.616	255.85
889.994	276.91
890.373	279.26
890.751	328.41
891.129	314.36
891.507	328.41
891.885	286.28
892.263	293.3
892.641	279.26
893.019	323.73
893.396	260.53
893.774	365.85
894.152	356.49
894.529	274.57
894.907	314.36
895.284	293.3
895.662	354.15
896.039	283.94
896.416	267.55
896.794	244.15
897.171	272.23
897.548	255.85
897.925	328.41
898.302	267.55
898.679	335.43
899.056	297.98
899.433	314.36
899.809	274.57
900.186	281.6
900.563	274.57
900.939	274.57
901.316	276.91
901.692	319.04
902.069	340.11
902.445	281.6
902.821	319.04
903.197	253.51
903.574	288.62
903.95	309.68
904.326	274.57
904.702	293.3
905.078	283.94
905.454	297.98
905.829	265.21
906.205	286.28
906.581	337.77
906.956	337.77
907.332	302.66
907.707	295.64
908.083	356.49
908.458	302.66
908.833	237.13
909.209	295.64
909.584	384.58
909.959	241.81
910.334	276.91
910.709	281.6
911.084	361.17
911.459	354.15
911.834	293.3
912.209	323.73
912.583	307.34
912.958	347.13
913.333	335.43
913.707	244.15
914.082	276.91
914.456	274.57
914.83	349.47
915.205	279.26
915.579	321.38
915.953	328.41
916.327	333.09
916.701	314.36
917.075	283.94
917.449	328.41
917.823	326.07
918.197	365.85
918.571	342.45
918.944	295.64
919.318	326.07
919.692	316.7
920.065	335.43
920.438	239.47
920.812	333.09
921.185	288.62
921.558	372.88
921.932	358.83
922.305	319.04
922.678	365.85
923.051	335.43
923.424	307.34
923.797	267.55
924.17	260.53
924.542	279.26
924.915	237.13
925.288	326.07
925.661	300.32
926.033	251.17
926.406	251.17
926.778	253.51
927.15	288.62
927.523	283.94
927.895	316.7
928.267	232.44
928.639	288.62
929.011	288.62
929.383	351.81
929.755	288.62
930.127	340.11
930.499	274.57
930.871	321.38
931.242	356.49
931.614	293.3
931.986	262.87
932.357	305
932.729	295.64
933.1	321.38
933.471	333.09
933.843	283.94
934.214	300.32
934.585	276.91
934.956	323.73
935.327	295.64
935.698	328.41
936.069	302.66
936.44	323.73
936.811	290.96
937.182	258.19
937.552	326.07
937.923	351.81
938.293	272.23
938.664	368.2
939.034	244.15
939.405	316.7
939.775	276.91
940.145	297.98
940.516	319.04
940.886	265.21
941.256	251.17
941.626	267.55
941.996	293.3
942.366	288.62
942.735	276.91
943.105	293.3
943.475	300.32
943.845	319.04
944.214	246.49
944.584	295.64
944.953	220.74
945.323	386.92
945.692	279.26
946.061	337.77
946.43	281.6
946.8	300.32
947.169	253.51
947.538	321.38
947.907	255.85
948.276	349.47
948.645	302.66
949.013	340.11
949.382	258.19
949.751	253.51
950.119	323.73
950.488	333.09
950.857	295.64
951.225	295.64
951.593	368.2
951.962	272.23
952.33	314.36
952.698	253.51
953.066	290.96
953.434	258.19
953.802	269.89
954.17	253.51
954.538	344.79
954.906	246.49
955.274	314.36
955.642	316.7
956.009	279.26
956.377	382.24
956.744	314.36
957.112	286.28
957.479	302.66
957.847	297.98
958.214	321.38
958.581	295.64
958.948	300.32
959.315	305
959.683	368.2
960.05	281.6
960.416	305
960.783	297.98
961.15	276.91
961.517	314.36
961.884	321.38
962.25	267.55
962.617	241.81
962.983	328.41
963.35	328.41
963.716	295.64
964.082	337.77
964.449	354.15
964.815	279.26
965.181	297.98
965.547	347.13
965.913	288.62
966.279	293.3
966.645	274.57
967.011	302.66
967.377	274.57
967.742	340.11
968.108	370.54
968.474	323.73
968.839	300.32
969.205	300.32
969.57	295.64
969.935	281.6
970.301	314.36
970.666	279.26
971.031	297.98
971.396	319.04
971.761	288.62
972.126	286.28
972.491	302.66
972.856	279.26
973.221	330.75
973.586	358.83
973.95	295.64
974.315	290.96
974.679	307.34
975.044	300.32
975.408	295.64
975.773	276.91
976.137	302.66
976.501	283.94
976.866	326.07
977.23	356.49
977.594	323.73
977.958	305
978.322	234.78
978.686	204.36
979.049	302.66
979.413	290.96
979.777	389.26
980.141	251.17
980.504	316.7
980.868	258.19
981.231	293.3
981.595	267.55
981.958	279.26
982.321	288.62
982.684	300.32
983.048	384.58
983.411	300.32
983.774	241.81
984.137	307.34
984.5	255.85
984.862	307.34
985.225	326.07
985.588	321.38
985.951	288.62
986.313	361.17
986.676	326.07
987.038	312.02
987.401	230.1
987.763	344.79
988.125	300.32
988.488	302.66
988.85	220.74
989.212	319.04
989.574	326.07
989.936	307.34
990.298	356.49
990.66	309.68
991.022	274.57
991.383	293.3
991.745	321.38
992.107	321.38
992.468	297.98
992.83	286.28
993.191	258.19
993.553	314.36
993.914	333.09
994.275	241.81
994.637	281.6
994.998	300.32
995.359	333.09
995.72	183.29
996.081	251.17
996.442	274.57
996.803	223.08
997.163	295.64
997.524	290.96
997.885	372.88
998.245	323.73
998.606	274.57
998.966	281.6
999.327	344.79
999.687	297.98
1000.047	314.36
1000.408	300.32
1000.768	340.11
1001.128	340.11
1001.488	269.89
1001.848	258.19
1002.208	269.89
1002.568	309.68
1002.927	281.6
1003.287	279.26
1003.647	300.32
1004.007	302.66
1004.366	340.11
1004.726	344.79
1005.085	288.62
1005.444	279.26
1005.804	342.45
1006.163	323.73
1006.522	316.7
1006.881	340.11
1007.24	297.98
1007.599	281.6
1007.958	309.68
1008.317	377.56
1008.676	290.96
1009.035	274.57
1009.393	293.3
1009.752	312.02
1010.111	300.32
1010.469	312.02
1010.828	328.41
1011.186	286.28
1011.544	323.73
1011.903	344.79
1012.261	300.32
1012.619	265.21
1012.977	328.41
1013.335	319.04
1013.693	316.7
1014.051	335.43
1014.409	342.45
1014.767	321.38
1015.124	344.79
1015.482	349.47
1015.84	297.98
1016.197	234.78
1016.555	323.73
1016.912	382.24
1017.269	314.36
1017.627	279.26
1017.984	297.98
1018.341	286.28
1018.698	288.62
1019.055	337.77
1019.412	283.94
1019.769	293.3
1020.126	365.85
1020.483	274.57
1020.84	302.66
1021.196	286.28
1021.553	262.87
1021.909	265.21
1022.266	328.41
1022.622	309.68
1022.979	305
1023.335	321.38
1023.691	300.32
1024.047	330.75
1024.404	321.38
1024.76	323.73
1025.116	347.13
1025.472	335.43
1025.827	370.54
1026.183	276.91
1026.539	276.91
1026.895	283.94
1027.25	386.92
1027.606	281.6
1027.961	295.64
1028.317	305
1028.672	248.83
1029.028	365.85
1029.383	335.43
1029.738	361.17
1030.093	290.96
1030.448	239.47
1030.803	227.76
1031.158	307.34
1031.513	314.36
1031.868	293.3
1032.223	248.83
1032.577	290.96
1032.932	269.89
1033.287	337.77
1033.641	286.28
1033.996	253.51
1034.35	354.15
1034.704	237.13
1035.059	340.11
1035.413	272.23
1035.767	272.23
1036.121	272.23
