Data from Al_FLMS009871__1134__16-34-13-094.txt Node

Date: Fri Mar 08 16:34:13 CST 2024
User: pe5414po
Spectrometer: FLMS00987
Trigger mode: 0
Integration Time (sec): 1.000000E-1
Scans to average: 1
Electric dark correction enabled: true
Nonlinearity correction enabled: false
Boxcar width: 0
XAxis mode: Wavelengths
Number of Pixels in Spectrum: 2048
>>>>>Begin Spectral Data<<<<<
188.938	-73.29
189.409	-73.29
189.879	-73.29
190.349	-77.97
190.819	-59.24
191.29	-120.1
191.76	-82.65
192.23	-138.82
192.7	-42.86
193.17	-113.08
193.64	-35.84
194.109	43.74
194.579	6.29
195.049	-40.52
195.519	32.04
195.988	6.29
196.458	69.48
196.927	64.8
197.397	55.44
197.866	193.53
198.336	102.25
198.805	151.4
199.274	158.43
199.744	195.87
200.213	280.13
200.682	209.92
201.151	254.39
201.62	252.05
202.089	228.64
202.558	256.73
203.027	296.52
203.495	385.46
203.964	242.68
204.433	263.75
204.902	287.15
205.37	247.37
205.839	301.2
206.307	317.58
206.776	319.92
207.244	303.54
207.712	343.33
208.181	385.46
208.649	336.31
209.117	301.2
209.585	296.52
210.053	336.31
210.521	263.75
210.989	238
211.457	329.28
211.925	280.13
212.393	298.86
212.861	324.6
213.328	305.88
213.796	315.24
214.264	266.09
214.731	228.64
215.199	275.45
215.666	266.09
216.133	317.58
216.601	287.15
217.068	287.15
217.535	305.88
218.003	277.79
218.47	298.86
218.937	294.18
219.404	303.54
219.871	350.35
220.338	261.41
220.805	252.05
221.271	282.47
221.738	357.37
222.205	319.92
222.671	331.62
223.138	322.26
223.605	221.62
224.071	287.15
224.538	254.39
225.004	291.84
225.47	319.92
225.937	298.86
226.403	275.45
226.869	263.75
227.335	310.56
227.801	390.14
228.267	355.03
228.733	202.9
229.199	291.84
229.665	254.39
230.131	322.26
230.597	303.54
231.062	331.62
231.528	324.6
231.994	329.28
232.459	245.02
232.925	268.43
233.39	259.07
233.856	275.45
234.321	282.47
234.786	296.52
235.252	266.09
235.717	284.81
236.182	319.92
236.647	259.07
237.112	326.94
237.577	301.2
238.042	301.2
238.507	254.39
238.972	247.37
239.436	303.54
239.901	282.47
240.366	338.65
240.83	287.15
241.295	333.97
241.76	310.56
242.224	249.71
242.688	277.79
243.153	308.22
243.617	331.62
244.081	259.07
244.545	256.73
245.01	280.13
245.474	270.77
245.938	296.52
246.402	284.81
246.866	291.84
247.33	284.81
247.793	317.58
248.257	284.81
248.721	301.2
249.185	287.15
249.648	287.15
250.112	261.41
250.575	287.15
251.039	338.65
251.502	294.18
251.965	308.22
252.429	308.22
252.892	298.86
253.355	291.84
253.818	348.01
254.281	270.77
254.744	284.81
255.207	266.09
255.67	287.15
256.133	291.84
256.596	238
257.059	319.92
257.522	310.56
257.984	331.62
258.447	315.24
258.909	296.52
259.372	268.43
259.834	282.47
260.297	357.37
260.759	298.86
261.221	266.09
261.684	219.28
262.146	277.79
262.608	329.28
263.07	331.62
263.532	301.2
263.994	282.47
264.456	317.58
264.918	249.71
265.38	380.78
265.842	315.24
266.303	277.79
266.765	308.22
267.227	350.35
267.688	289.5
268.15	289.5
268.611	303.54
269.072	294.18
269.534	301.2
269.995	266.09
270.456	303.54
270.918	277.79
271.379	296.52
271.84	268.43
272.301	324.6
272.762	305.88
273.223	233.32
273.684	247.37
274.144	336.31
274.605	359.71
275.066	312.9
275.527	294.18
275.987	315.24
276.448	233.32
276.908	212.26
277.369	376.09
277.829	296.52
278.289	270.77
278.75	317.58
279.21	266.09
279.67	348.01
280.13	317.58
280.59	280.13
281.05	294.18
281.51	291.84
281.97	366.73
282.43	364.39
282.89	355.03
283.35	287.15
283.809	329.28
284.269	249.71
284.729	266.09
285.188	326.94
285.648	369.07
286.107	310.56
286.567	312.9
287.026	254.39
287.485	312.9
287.944	343.33
288.404	371.41
288.863	319.92
289.322	282.47
289.781	319.92
290.24	345.67
290.699	275.45
291.158	324.6
291.616	273.11
292.075	310.56
292.534	322.26
292.992	329.28
293.451	312.9
293.91	282.47
294.368	277.79
294.827	310.56
295.285	310.56
295.743	273.11
296.202	362.05
296.66	294.18
297.118	287.15
297.576	296.52
298.034	319.92
298.492	331.62
298.95	362.05
299.408	331.62
299.866	219.28
300.324	291.84
300.781	315.24
301.239	275.45
301.697	263.75
302.154	315.24
302.612	310.56
303.069	270.77
303.527	277.79
303.984	324.6
304.441	331.62
304.899	343.33
305.356	289.5
305.813	294.18
306.27	331.62
306.727	371.41
307.184	303.54
307.641	336.31
308.098	343.33
308.555	329.28
309.012	298.86
309.468	221.62
309.925	336.31
310.382	322.26
310.838	366.73
311.295	336.31
311.751	308.22
312.208	308.22
312.664	352.69
313.12	245.02
313.577	336.31
314.033	340.99
314.489	340.99
314.945	355.03
315.401	305.88
315.857	355.03
316.313	348.01
316.769	287.15
317.225	317.58
317.681	378.44
318.136	317.58
318.592	333.97
319.048	345.67
319.503	373.75
319.959	357.37
320.414	256.73
320.869	340.99
321.325	298.86
321.78	303.54
322.235	301.2
322.691	305.88
323.146	348.01
323.601	355.03
324.056	291.84
324.511	333.97
324.966	326.94
325.421	310.56
325.875	275.45
326.33	291.84
326.785	345.67
327.24	355.03
327.694	296.52
328.149	362.05
328.603	259.07
329.058	331.62
329.512	317.58
329.966	284.81
330.421	340.99
330.875	340.99
331.329	319.92
331.783	280.13
332.237	287.15
332.691	315.24
333.145	352.69
333.599	329.28
334.053	294.18
334.507	238
334.96	373.75
335.414	345.67
335.868	245.02
336.321	254.39
336.775	310.56
337.228	312.9
337.682	350.35
338.135	333.97
338.588	324.6
339.042	338.65
339.495	277.79
339.948	366.73
340.401	345.67
340.854	303.54
341.307	343.33
341.76	294.18
342.213	310.56
342.666	369.07
343.119	315.24
343.571	275.45
344.024	301.2
344.477	319.92
344.929	329.28
345.382	256.73
345.834	371.41
346.287	319.92
346.739	357.37
347.191	277.79
347.644	324.6
348.096	294.18
348.548	348.01
349	324.6
349.452	317.58
349.904	303.54
350.356	348.01
350.808	310.56
351.26	322.26
351.711	256.73
352.163	277.79
352.615	282.47
353.066	357.37
353.518	343.33
353.969	343.33
354.421	340.99
354.872	296.52
355.324	296.52
355.775	350.35
356.226	364.39
356.677	324.6
357.128	355.03
357.579	322.26
358.03	315.24
358.481	256.73
358.932	326.94
359.383	294.18
359.834	324.6
360.285	340.99
360.735	282.47
361.186	298.86
361.637	352.69
362.087	331.62
362.538	230.98
362.988	324.6
363.438	345.67
363.889	340.99
364.339	343.33
364.789	298.86
365.239	298.86
365.689	298.86
366.139	343.33
366.589	308.22
367.039	406.52
367.489	303.54
367.939	373.75
368.389	312.9
368.839	340.99
369.288	282.47
369.738	282.47
370.187	340.99
370.637	343.33
371.086	333.97
371.536	301.2
371.985	315.24
372.434	343.33
372.884	392.48
373.333	266.09
373.782	329.28
374.231	308.22
374.68	364.39
375.129	350.35
375.578	277.79
376.027	296.52
376.475	345.67
376.924	340.99
377.373	366.73
377.822	289.5
378.27	364.39
378.719	308.22
379.167	310.56
379.616	362.05
380.064	326.94
380.512	331.62
380.961	303.54
381.409	324.6
381.857	345.67
382.305	317.58
382.753	273.11
383.201	310.56
383.649	378.44
384.097	336.31
384.545	266.09
384.992	324.6
385.44	277.79
385.888	296.52
386.335	322.26
386.783	291.84
387.231	312.9
387.678	326.94
388.125	340.99
388.573	282.47
389.02	329.28
389.467	343.33
389.914	317.58
390.362	362.05
390.809	329.28
391.256	287.15
391.703	322.26
392.15	331.62
392.596	340.99
393.043	310.56
393.49	294.18
393.937	338.65
394.383	296.52
394.83	376.09
395.276	315.24
395.723	376.09
396.169	301.2
396.616	350.35
397.062	301.2
397.508	350.35
397.954	333.97
398.401	418.22
398.847	348.01
399.293	319.92
399.739	310.56
400.185	331.62
400.631	331.62
401.076	390.14
401.522	348.01
401.968	352.69
402.414	348.01
402.859	352.69
403.305	373.75
403.75	371.41
404.196	322.26
404.641	277.79
405.086	406.52
405.532	322.26
405.977	326.94
406.422	348.01
406.867	336.31
407.312	333.97
407.757	254.39
408.202	340.99
408.647	268.43
409.092	331.62
409.537	359.71
409.982	296.52
410.426	305.88
410.871	359.71
411.316	296.52
411.76	404.18
412.205	359.71
412.649	294.18
413.093	362.05
413.538	340.99
413.982	366.73
414.426	324.6
414.87	348.01
415.314	336.31
415.758	305.88
416.202	324.6
416.646	312.9
417.09	324.6
417.534	364.39
417.978	340.99
418.421	355.03
418.865	324.6
419.309	308.22
419.752	298.86
420.196	348.01
420.639	270.77
421.083	308.22
421.526	331.62
421.969	242.68
422.412	319.92
422.856	331.62
423.299	280.13
423.742	352.69
424.185	373.75
424.628	315.24
425.071	319.92
425.513	373.75
425.956	359.71
426.399	359.71
426.842	317.58
427.284	324.6
427.727	308.22
428.169	371.41
428.612	324.6
429.054	312.9
429.497	317.58
429.939	303.54
430.381	326.94
430.823	326.94
431.265	324.6
431.707	308.22
432.149	338.65
432.591	364.39
433.033	345.67
433.475	340.99
433.917	387.8
434.359	371.41
434.8	359.71
435.242	373.75
435.684	310.56
436.125	352.69
436.567	355.03
437.008	319.92
437.449	294.18
437.891	324.6
438.332	298.86
438.773	284.81
439.214	305.88
439.656	329.28
440.097	331.62
440.538	308.22
440.978	319.92
441.419	242.68
441.86	404.18
442.301	333.97
442.742	326.94
443.182	296.52
443.623	340.99
444.063	343.33
444.504	298.86
444.944	294.18
445.385	312.9
445.825	338.65
446.265	317.58
446.706	355.03
447.146	301.2
447.586	352.69
448.026	301.2
448.466	326.94
448.906	336.31
449.346	301.2
449.786	289.5
450.225	268.43
450.665	298.86
451.105	322.26
451.544	338.65
451.984	359.71
452.424	252.05
452.863	331.62
453.302	413.54
453.742	305.88
454.181	343.33
454.62	326.94
455.059	263.75
455.499	357.37
455.938	294.18
456.377	284.81
456.816	308.22
457.254	315.24
457.693	357.37
458.132	394.82
458.571	324.6
459.01	345.67
459.448	298.86
459.887	343.33
460.325	348.01
460.764	331.62
461.202	350.35
461.641	369.07
462.079	322.26
462.517	352.69
462.955	315.24
463.393	362.05
463.832	366.73
464.27	291.84
464.708	331.62
465.145	331.62
465.583	397.16
466.021	343.33
466.459	319.92
466.897	329.28
467.334	287.15
467.772	207.58
468.209	392.48
468.647	338.65
469.084	263.75
469.522	392.48
469.959	319.92
470.396	303.54
470.833	329.28
471.271	343.33
471.708	355.03
472.145	319.92
472.582	291.84
473.019	394.82
473.456	369.07
473.892	340.99
474.329	301.2
474.766	315.24
475.202	390.14
475.639	329.28
476.076	380.78
476.512	305.88
476.949	289.5
477.385	326.94
477.821	329.28
478.258	312.9
478.694	326.94
479.13	355.03
479.566	383.12
480.002	324.6
480.438	348.01
480.874	340.99
481.31	369.07
481.746	355.03
482.181	369.07
482.617	338.65
483.053	343.33
483.488	296.52
483.924	373.75
484.36	319.92
484.795	319.92
485.23	308.22
485.666	308.22
486.101	345.67
486.536	310.56
486.971	277.79
487.407	340.99
487.842	322.26
488.277	345.67
488.712	385.46
489.146	397.16
489.581	352.69
490.016	348.01
490.451	256.73
490.885	329.28
491.32	366.73
491.755	345.67
492.189	333.97
492.624	333.97
493.058	366.73
493.492	329.28
493.927	340.99
494.361	359.71
494.795	289.5
495.229	338.65
495.663	338.65
496.097	385.46
496.531	296.52
496.965	378.44
497.399	268.43
497.833	296.52
498.266	296.52
498.7	355.03
499.134	362.05
499.567	289.5
500.001	345.67
500.434	350.35
500.868	383.12
501.301	387.8
501.734	312.9
502.168	275.45
502.601	310.56
503.034	284.81
503.467	376.09
503.9	305.88
504.333	319.92
504.766	277.79
505.199	380.78
505.632	291.84
506.064	322.26
506.497	324.6
506.93	331.62
507.362	355.03
507.795	357.37
508.227	305.88
508.66	336.31
509.092	362.05
509.524	326.94
509.956	376.09
510.389	270.77
510.821	359.71
511.253	373.75
511.685	322.26
512.117	333.97
512.549	270.77
512.981	315.24
513.412	378.44
513.844	324.6
514.276	350.35
514.707	317.58
515.139	298.86
515.571	394.82
516.002	345.67
516.433	352.69
516.865	303.54
517.296	378.44
517.727	273.11
518.159	355.03
518.59	294.18
519.021	390.14
519.452	263.75
519.883	380.78
520.314	303.54
520.744	366.73
521.175	294.18
521.606	329.28
522.037	252.05
522.467	319.92
522.898	338.65
523.328	315.24
523.759	338.65
524.189	312.9
524.62	371.41
525.05	352.69
525.48	298.86
525.91	343.33
526.341	296.52
526.771	340.99
527.201	369.07
527.631	331.62
528.061	317.58
528.49	303.54
528.92	338.65
529.35	338.65
529.78	301.2
530.209	317.58
530.639	385.46
531.068	343.33
531.498	273.11
531.927	315.24
532.357	336.31
532.786	305.88
533.215	364.39
533.644	352.69
534.074	326.94
534.503	369.07
534.932	303.54
535.361	401.84
535.79	364.39
536.218	331.62
536.647	319.92
537.076	254.39
537.505	369.07
537.933	317.58
538.362	371.41
538.79	319.92
539.219	315.24
539.647	338.65
540.076	355.03
540.504	397.16
540.932	338.65
541.36	350.35
541.788	277.79
542.217	275.45
542.645	305.88
543.073	343.33
543.5	305.88
543.928	312.9
544.356	329.28
544.784	373.75
545.211	322.26
545.639	298.86
546.067	310.56
546.494	376.09
546.922	298.86
547.349	394.82
547.776	331.62
548.204	352.69
548.631	371.41
549.058	322.26
549.485	329.28
549.912	329.28
550.339	317.58
550.766	369.07
551.193	357.37
551.62	408.86
552.047	422.91
552.474	373.75
552.9	394.82
553.327	291.84
553.754	359.71
554.18	380.78
554.607	345.67
555.033	329.28
555.459	413.54
555.886	352.69
556.312	373.75
556.738	336.31
557.164	287.15
557.59	324.6
558.016	303.54
558.442	364.39
558.868	322.26
559.294	322.26
559.72	331.62
560.145	343.33
560.571	326.94
560.997	305.88
561.422	362.05
561.848	301.2
562.273	378.44
562.699	317.58
563.124	340.99
563.549	340.99
563.974	319.92
564.4	362.05
564.825	312.9
565.25	333.97
565.675	366.73
566.1	338.65
566.525	401.84
566.95	362.05
567.374	378.44
567.799	352.69
568.224	282.47
568.648	326.94
569.073	350.35
569.497	319.92
569.922	331.62
570.346	404.18
570.771	317.58
571.195	348.01
571.619	348.01
572.043	249.71
572.467	315.24
572.891	308.22
573.315	310.56
573.739	329.28
574.163	270.77
574.587	284.81
575.011	340.99
575.435	296.52
575.858	390.14
576.282	312.9
576.705	343.33
577.129	352.69
577.552	312.9
577.976	266.09
578.399	291.84
578.822	289.5
579.245	350.35
579.669	333.97
580.092	338.65
580.515	352.69
580.938	308.22
581.361	315.24
581.784	387.8
582.206	254.39
582.629	359.71
583.052	322.26
583.474	345.67
583.897	343.33
584.32	352.69
584.742	343.33
585.165	310.56
585.587	298.86
586.009	401.84
586.431	308.22
586.854	326.94
587.276	338.65
587.698	303.54
588.12	266.09
588.542	345.67
588.964	340.99
589.386	366.73
589.807	329.28
590.229	305.88
590.651	434.61
591.073	357.37
591.494	319.92
591.916	366.73
592.337	336.31
592.759	301.2
593.18	319.92
593.601	282.47
594.022	315.24
594.444	284.81
594.865	315.24
595.286	390.14
595.707	376.09
596.128	308.22
596.549	329.28
596.97	369.07
597.39	340.99
597.811	376.09
598.232	308.22
598.652	315.24
599.073	273.11
599.494	394.82
599.914	315.24
600.334	308.22
600.755	312.9
601.175	296.52
601.595	282.47
602.015	317.58
602.436	317.58
602.856	432.27
603.276	331.62
603.696	380.78
604.115	256.73
604.535	317.58
604.955	333.97
605.375	324.6
605.794	284.81
606.214	315.24
606.634	387.8
607.053	326.94
607.473	369.07
607.892	338.65
608.311	355.03
608.731	329.28
609.15	298.86
609.569	263.75
609.988	305.88
610.407	326.94
610.826	301.2
611.245	387.8
611.664	296.52
612.083	345.67
612.501	312.9
612.92	371.41
613.339	305.88
613.757	340.99
614.176	270.77
614.594	291.84
615.013	350.35
615.431	373.75
615.85	348.01
616.268	322.26
616.686	357.37
617.104	287.15
617.522	308.22
617.94	371.41
618.358	338.65
618.776	357.37
619.194	303.54
619.612	336.31
620.03	308.22
620.447	319.92
620.865	277.79
621.282	310.56
621.7	355.03
622.117	326.94
622.535	287.15
622.952	336.31
623.369	324.6
623.787	322.26
624.204	355.03
624.621	345.67
625.038	336.31
625.455	355.03
625.872	376.09
626.289	284.81
626.706	378.44
627.123	322.26
627.539	331.62
627.956	282.47
628.373	366.73
628.789	357.37
629.206	385.46
629.622	343.33
630.038	371.41
630.455	301.2
630.871	394.82
631.287	333.97
631.703	331.62
632.12	298.86
632.536	343.33
632.952	310.56
633.368	345.67
633.783	380.78
634.199	322.26
634.615	355.03
635.031	348.01
635.446	322.26
635.862	275.45
636.277	343.33
636.693	355.03
637.108	380.78
637.524	371.41
637.939	399.5
638.354	345.67
638.77	322.26
639.185	350.35
639.6	373.75
640.015	294.18
640.43	298.86
640.845	362.05
641.259	348.01
641.674	355.03
642.089	362.05
642.504	326.94
642.918	317.58
643.333	296.52
643.747	364.39
644.162	331.62
644.576	336.31
644.991	275.45
645.405	340.99
645.819	312.9
646.233	291.84
646.647	392.48
647.061	277.79
647.475	315.24
647.889	348.01
648.303	319.92
648.717	326.94
649.131	298.86
649.545	369.07
649.958	324.6
650.372	371.41
650.785	261.41
651.199	214.6
651.612	348.01
652.026	326.94
652.439	355.03
652.852	298.86
653.266	303.54
653.679	296.52
654.092	350.35
654.505	355.03
654.918	284.81
655.331	362.05
655.744	275.45
656.156	348.01
656.569	312.9
656.982	291.84
657.394	369.07
657.807	333.97
658.22	460.35
658.632	352.69
659.044	343.33
659.457	371.41
659.869	303.54
660.281	324.6
660.693	350.35
661.106	355.03
661.518	289.5
661.93	338.65
662.342	331.62
662.754	352.69
663.165	350.35
663.577	284.81
663.989	376.09
664.401	329.28
664.812	350.35
665.224	305.88
665.635	357.37
666.047	259.07
666.458	343.33
666.869	385.46
667.281	345.67
667.692	273.11
668.103	345.67
668.514	406.52
668.925	319.92
669.336	317.58
669.747	385.46
670.158	340.99
670.569	305.88
670.979	371.41
671.39	397.16
671.801	343.33
672.211	352.69
672.622	336.31
673.032	322.26
673.443	333.97
673.853	280.13
674.263	322.26
674.674	355.03
675.084	291.84
675.494	345.67
675.904	270.77
676.314	315.24
676.724	415.88
677.134	319.92
677.544	294.18
677.953	411.2
678.363	364.39
678.773	427.59
679.182	305.88
679.592	324.6
680.001	331.62
680.411	317.58
680.82	345.67
681.23	280.13
681.639	369.07
682.048	357.37
682.457	308.22
682.866	289.5
683.275	364.39
683.684	287.15
684.093	310.56
684.502	303.54
684.911	336.31
685.32	312.9
685.728	322.26
686.137	385.46
686.546	357.37
686.954	331.62
687.363	348.01
687.771	357.37
688.179	343.33
688.588	371.41
688.996	366.73
689.404	390.14
689.812	343.33
690.22	340.99
690.628	331.62
691.036	329.28
691.444	345.67
691.852	340.99
692.26	319.92
692.667	371.41
693.075	319.92
693.483	294.18
693.89	343.33
694.298	315.24
694.705	336.31
695.112	319.92
695.52	352.69
695.927	336.31
696.334	317.58
696.741	308.22
697.148	319.92
697.555	387.8
697.962	336.31
698.369	308.22
698.776	401.84
699.183	324.6
699.59	319.92
699.996	406.52
700.403	294.18
700.81	383.12
701.216	308.22
701.623	305.88
702.029	287.15
702.435	333.97
702.842	317.58
703.248	387.8
703.654	284.81
704.06	266.09
704.466	355.03
704.872	383.12
705.278	338.65
705.684	343.33
706.09	291.84
706.496	312.9
706.901	364.39
707.307	348.01
707.712	369.07
708.118	371.41
708.523	263.75
708.929	284.81
709.334	319.92
709.74	338.65
710.145	340.99
710.55	366.73
710.955	315.24
711.36	333.97
711.765	277.79
712.17	319.92
712.575	366.73
712.98	771.65
713.385	340.99
713.789	331.62
714.194	380.78
714.599	324.6
715.003	376.09
715.408	343.33
715.812	305.88
716.217	336.31
716.621	345.67
717.025	305.88
717.429	289.5
717.833	317.58
718.238	312.9
718.642	308.22
719.046	355.03
719.449	289.5
719.853	284.81
720.257	273.11
720.661	266.09
721.065	312.9
721.468	378.44
721.872	273.11
722.275	362.05
722.679	296.52
723.082	319.92
723.485	329.28
723.889	296.52
724.292	326.94
724.695	364.39
725.098	329.28
725.501	343.33
725.904	289.5
726.307	298.86
726.71	280.13
727.113	273.11
727.516	355.03
727.918	326.94
728.321	322.26
728.724	266.09
729.126	366.73
729.529	322.26
729.931	345.67
730.333	287.15
730.736	249.71
731.138	338.65
731.54	348.01
731.942	355.03
732.344	359.71
732.746	308.22
733.148	357.37
733.55	357.37
733.952	359.71
734.354	333.97
734.756	298.86
735.157	376.09
735.559	333.97
735.96	385.46
736.362	336.31
736.763	345.67
737.165	333.97
737.566	350.35
737.967	357.37
738.368	355.03
738.77	322.26
739.171	284.81
739.572	376.09
739.973	422.91
740.374	322.26
740.774	333.97
741.175	343.33
741.576	357.37
741.977	329.28
742.377	315.24
742.778	387.8
743.178	340.99
743.579	319.92
743.979	305.88
744.379	289.5
744.78	319.92
745.18	263.75
745.58	277.79
745.98	406.52
746.38	340.99
746.78	273.11
747.18	333.97
747.58	298.86
747.98	343.33
748.38	282.47
748.779	380.78
749.179	326.94
749.578	294.18
749.978	303.54
750.377	324.6
750.777	350.35
751.176	308.22
751.575	371.41
751.975	371.41
752.374	369.07
752.773	348.01
753.172	275.45
753.571	326.94
753.97	294.18
754.369	333.97
754.768	315.24
755.166	352.69
755.565	331.62
755.964	291.84
756.362	322.26
756.761	340.99
757.159	350.35
757.558	343.33
757.956	343.33
758.354	324.6
758.753	263.75
759.151	371.41
759.549	355.03
759.947	340.99
760.345	326.94
760.743	291.84
761.141	378.44
761.539	275.45
761.936	310.56
762.334	294.18
762.732	268.43
763.129	319.92
763.527	371.41
763.924	216.94
764.322	376.09
764.719	294.18
765.117	338.65
765.514	326.94
765.911	268.43
766.308	385.46
766.705	338.65
767.102	338.65
767.499	369.07
767.896	298.86
768.293	277.79
768.69	380.78
769.086	371.41
769.483	348.01
769.88	280.13
770.276	294.18
770.673	383.12
771.069	289.5
771.466	235.66
771.862	345.67
772.258	329.28
772.654	322.26
773.05	336.31
773.447	366.73
773.843	364.39
774.239	282.47
774.634	348.01
775.03	345.67
775.426	338.65
775.822	322.26
776.218	296.52
776.613	329.28
777.009	331.62
777.404	301.2
777.8	352.69
778.195	312.9
778.59	268.43
778.986	263.75
779.381	310.56
779.776	336.31
780.171	324.6
780.566	289.5
780.961	357.37
781.356	352.69
781.751	364.39
782.146	326.94
782.54	350.35
782.935	329.28
783.33	242.68
783.724	392.48
784.119	383.12
784.513	362.05
784.908	352.69
785.302	411.2
785.696	298.86
786.09	322.26
786.485	322.26
786.879	364.39
787.273	359.71
787.667	350.35
788.061	333.97
788.454	343.33
788.848	322.26
789.242	273.11
789.636	366.73
790.029	270.77
790.423	355.03
790.816	319.92
791.21	310.56
791.603	329.28
791.997	308.22
792.39	331.62
792.783	385.46
793.176	324.6
793.569	305.88
793.962	289.5
794.355	343.33
794.748	394.82
795.141	331.62
795.534	326.94
795.927	289.5
796.319	317.58
796.712	390.14
797.105	329.28
797.497	252.05
797.89	294.18
798.282	350.35
798.674	350.35
799.067	348.01
799.459	308.22
799.851	357.37
800.243	319.92
800.635	291.84
801.027	343.33
801.419	289.5
801.811	408.86
802.203	319.92
802.594	357.37
802.986	298.86
803.378	369.07
803.769	350.35
804.161	362.05
804.552	263.75
804.944	340.99
805.335	371.41
805.726	348.01
806.118	355.03
806.509	319.92
806.9	352.69
807.291	322.26
807.682	305.88
808.073	284.81
808.464	259.07
808.855	383.12
809.245	357.37
809.636	331.62
810.027	301.2
810.417	331.62
810.808	340.99
811.198	282.47
811.589	277.79
811.979	305.88
812.369	343.33
812.759	305.88
813.15	305.88
813.54	373.75
813.93	308.22
814.32	373.75
814.71	340.99
815.1	359.71
815.489	369.07
815.879	359.71
816.269	340.99
816.658	282.47
817.048	282.47
817.438	362.05
817.827	352.69
818.216	338.65
818.606	348.01
818.995	324.6
819.384	336.31
819.773	308.22
820.163	385.46
820.552	301.2
820.941	294.18
821.33	355.03
821.718	317.58
822.107	305.88
822.496	305.88
822.885	324.6
823.273	340.99
823.662	350.35
824.05	331.62
824.439	280.13
824.827	317.58
825.216	287.15
825.604	305.88
825.992	301.2
826.38	359.71
826.768	289.5
827.156	331.62
827.544	364.39
827.932	273.11
828.32	254.39
828.708	331.62
829.096	310.56
829.483	322.26
829.871	348.01
830.259	348.01
830.646	301.2
831.034	305.88
831.421	371.41
831.808	319.92
832.196	319.92
832.583	301.2
832.97	266.09
833.357	312.9
833.744	301.2
834.131	333.97
834.518	348.01
834.905	329.28
835.292	371.41
835.678	343.33
836.065	322.26
836.452	273.11
836.838	333.97
837.225	359.71
837.611	280.13
837.998	296.52
838.384	305.88
838.77	373.75
839.157	305.88
839.543	331.62
839.929	359.71
840.315	336.31
840.701	294.18
841.087	322.26
841.473	296.52
841.858	343.33
842.244	289.5
842.63	329.28
843.015	324.6
843.401	383.12
843.787	355.03
844.172	359.71
844.557	352.69
844.943	331.62
845.328	298.86
845.713	326.94
846.098	282.47
846.483	326.94
846.868	310.56
847.253	298.86
847.638	345.67
848.023	254.39
848.408	369.07
848.793	296.52
849.177	326.94
849.562	317.58
849.947	333.97
850.331	291.84
850.715	275.45
851.1	350.35
851.484	317.58
851.868	364.39
852.253	348.01
852.637	348.01
853.021	305.88
853.405	275.45
853.789	322.26
854.173	343.33
854.557	315.24
854.94	345.67
855.324	319.92
855.708	329.28
856.091	383.12
856.475	336.31
856.858	378.44
857.242	296.52
857.625	357.37
858.009	303.54
858.392	298.86
858.775	338.65
859.158	312.9
859.541	376.09
859.924	301.2
860.307	369.07
860.69	305.88
861.073	319.92
861.456	240.34
861.838	296.52
862.221	249.71
862.604	383.12
862.986	310.56
863.369	331.62
863.751	369.07
864.133	312.9
864.516	355.03
864.898	319.92
865.28	390.14
865.662	371.41
866.044	357.37
866.426	336.31
866.808	333.97
867.19	336.31
867.572	364.39
867.954	282.47
868.336	364.39
868.717	280.13
869.099	378.44
869.48	336.31
869.862	338.65
870.243	233.32
870.625	331.62
871.006	296.52
871.387	340.99
871.768	301.2
872.149	312.9
872.53	324.6
872.911	322.26
873.292	324.6
873.673	329.28
874.054	268.43
874.435	326.94
874.815	333.97
875.196	298.86
875.577	329.28
875.957	298.86
876.338	359.71
876.718	308.22
877.098	336.31
877.479	324.6
877.859	298.86
878.239	291.84
878.619	312.9
878.999	350.35
879.379	303.54
879.759	350.35
880.139	333.97
880.519	338.65
880.898	291.84
881.278	315.24
881.658	404.18
882.037	331.62
882.417	366.73
882.796	296.52
883.176	312.9
883.555	362.05
883.934	348.01
884.313	305.88
884.693	238
885.072	301.2
885.451	308.22
885.83	319.92
886.209	289.5
886.587	338.65
886.966	310.56
887.345	378.44
887.724	296.52
888.102	298.86
888.481	301.2
888.859	240.34
889.238	287.15
889.616	336.31
889.994	298.86
890.373	315.24
890.751	303.54
891.129	331.62
891.507	317.58
891.885	378.44
892.263	312.9
892.641	216.94
893.019	376.09
893.396	326.94
893.774	277.79
894.152	315.24
894.529	376.09
894.907	301.2
895.284	345.67
895.662	322.26
896.039	322.26
896.416	338.65
896.794	287.15
897.171	308.22
897.548	305.88
897.925	376.09
898.302	315.24
898.679	298.86
899.056	294.18
899.433	359.71
899.809	296.52
900.186	420.57
900.563	289.5
900.939	348.01
901.316	324.6
901.692	294.18
902.069	322.26
902.445	350.35
902.821	319.92
903.197	350.35
903.574	324.6
903.95	408.86
904.326	352.69
904.702	394.82
905.078	338.65
905.454	397.16
905.829	369.07
906.205	284.81
906.581	315.24
906.956	277.79
907.332	371.41
907.707	310.56
908.083	324.6
908.458	369.07
908.833	303.54
909.209	369.07
909.584	296.52
909.959	350.35
910.334	259.07
910.709	291.84
911.084	362.05
911.459	364.39
911.834	310.56
912.209	312.9
912.583	329.28
912.958	350.35
913.333	322.26
913.707	319.92
914.082	277.79
914.456	333.97
914.83	338.65
915.205	394.82
915.579	329.28
915.953	266.09
916.327	373.75
916.701	329.28
917.075	305.88
917.449	291.84
917.823	291.84
918.197	336.31
918.571	263.75
918.944	275.45
919.318	329.28
919.692	287.15
920.065	364.39
920.438	329.28
920.812	310.56
921.185	352.69
921.558	298.86
921.932	336.31
922.305	338.65
922.678	348.01
923.051	308.22
923.424	275.45
923.797	284.81
924.17	362.05
924.542	329.28
924.915	261.41
925.288	338.65
925.661	348.01
926.033	326.94
926.406	352.69
926.778	233.32
927.15	324.6
927.523	291.84
927.895	322.26
928.267	303.54
928.639	326.94
929.011	322.26
929.383	371.41
929.755	319.92
930.127	291.84
930.499	359.71
930.871	329.28
931.242	233.32
931.614	268.43
931.986	315.24
932.357	324.6
932.729	296.52
933.1	331.62
933.471	322.26
933.843	401.84
934.214	289.5
934.585	340.99
934.956	329.28
935.327	352.69
935.698	303.54
936.069	294.18
936.44	319.92
936.811	338.65
937.182	345.67
937.552	348.01
937.923	310.56
938.293	296.52
938.664	338.65
939.034	401.84
939.405	301.2
939.775	357.37
940.145	369.07
940.516	352.69
940.886	308.22
941.256	291.84
941.626	291.84
941.996	287.15
942.366	266.09
942.735	326.94
943.105	348.01
943.475	352.69
943.845	326.94
944.214	287.15
944.584	340.99
944.953	333.97
945.323	340.99
945.692	252.05
946.061	383.12
946.43	249.71
946.8	289.5
947.169	291.84
947.538	350.35
947.907	355.03
948.276	369.07
948.645	312.9
949.013	263.75
949.382	287.15
949.751	322.26
950.119	305.88
950.488	324.6
950.857	319.92
951.225	284.81
951.593	338.65
951.962	345.67
952.33	322.26
952.698	310.56
953.066	333.97
953.434	301.2
953.802	340.99
954.17	333.97
954.538	310.56
954.906	317.58
955.274	319.92
955.642	329.28
956.009	336.31
956.377	390.14
956.744	289.5
957.112	301.2
957.479	366.73
957.847	345.67
958.214	303.54
958.581	308.22
958.948	333.97
959.315	366.73
959.683	359.71
960.05	301.2
960.416	355.03
960.783	326.94
961.15	324.6
961.517	305.88
961.884	333.97
962.25	308.22
962.617	364.39
962.983	340.99
963.35	322.26
963.716	270.77
964.082	298.86
964.449	294.18
964.815	348.01
965.181	310.56
965.547	322.26
965.913	317.58
966.279	277.79
966.645	273.11
967.011	324.6
967.377	305.88
967.742	350.35
968.108	284.81
968.474	319.92
968.839	312.9
969.205	350.35
969.57	296.52
969.935	324.6
970.301	343.33
970.666	315.24
971.031	329.28
971.396	340.99
971.761	317.58
972.126	303.54
972.491	280.13
972.856	291.84
973.221	348.01
973.586	317.58
973.95	338.65
974.315	266.09
974.679	343.33
975.044	315.24
975.408	298.86
975.773	399.5
976.137	385.46
976.501	378.44
976.866	317.58
977.23	317.58
977.594	312.9
977.958	338.65
978.322	282.47
978.686	345.67
979.049	350.35
979.413	310.56
979.777	362.05
980.141	296.52
980.504	303.54
980.868	301.2
981.231	305.88
981.595	233.32
981.958	383.12
982.321	371.41
982.684	287.15
983.048	340.99
983.411	322.26
983.774	317.58
984.137	331.62
984.5	294.18
984.862	305.88
985.225	329.28
985.588	326.94
985.951	338.65
986.313	329.28
986.676	322.26
987.038	315.24
987.401	298.86
987.763	268.43
988.125	329.28
988.488	277.79
988.85	294.18
989.212	317.58
989.574	322.26
989.936	310.56
990.298	336.31
990.66	362.05
991.022	247.37
991.383	329.28
991.745	352.69
992.107	326.94
992.468	298.86
992.83	324.6
993.191	333.97
993.553	312.9
993.914	275.45
994.275	289.5
994.637	322.26
994.998	303.54
995.359	263.75
995.72	301.2
996.081	312.9
996.442	352.69
996.803	357.37
997.163	329.28
997.524	291.84
997.885	390.14
998.245	345.67
998.606	291.84
998.966	324.6
999.327	282.47
999.687	317.58
1000.047	294.18
1000.408	282.47
1000.768	326.94
1001.128	362.05
1001.488	340.99
1001.848	329.28
1002.208	324.6
1002.568	336.31
1002.927	345.67
1003.287	329.28
1003.647	380.78
1004.007	345.67
1004.366	331.62
1004.726	364.39
1005.085	296.52
1005.444	294.18
1005.804	294.18
1006.163	329.28
1006.522	326.94
1006.881	280.13
1007.24	338.65
1007.599	338.65
1007.958	329.28
1008.317	345.67
1008.676	411.2
1009.035	310.56
1009.393	287.15
1009.752	273.11
1010.111	355.03
1010.469	359.71
1010.828	357.37
1011.186	275.45
1011.544	343.33
1011.903	289.5
1012.261	305.88
1012.619	315.24
1012.977	343.33
1013.335	364.39
1013.693	378.44
1014.051	256.73
1014.409	359.71
1014.767	331.62
1015.124	345.67
1015.482	282.47
1015.84	357.37
1016.197	338.65
1016.555	338.65
1016.912	336.31
1017.269	268.43
1017.627	348.01
1017.984	376.09
1018.341	348.01
1018.698	326.94
1019.055	350.35
1019.412	319.92
1019.769	357.37
1020.126	338.65
1020.483	336.31
1020.84	333.97
1021.196	371.41
1021.553	301.2
1021.909	282.47
1022.266	284.81
1022.622	298.86
1022.979	378.44
1023.335	305.88
1023.691	343.33
1024.047	291.84
1024.404	364.39
1024.76	301.2
1025.116	331.62
1025.472	326.94
1025.827	357.37
1026.183	247.37
1026.539	329.28
1026.895	333.97
1027.25	364.39
1027.606	338.65
1027.961	362.05
1028.317	348.01
1028.672	322.26
1029.028	331.62
1029.383	273.11
1029.738	340.99
1030.093	310.56
1030.448	338.65
1030.803	371.41
1031.158	216.94
1031.513	296.52
1031.868	305.88
1032.223	380.78
1032.577	275.45
1032.932	287.15
1033.287	336.31
1033.641	326.94
1033.996	317.58
1034.35	338.65
1034.704	266.09
1035.059	294.18
1035.413	326.94
1035.767	326.94
1036.121	326.94
