Data from Al_FLMS009871__1128__16-34-12-494.txt Node

Date: Fri Mar 08 16:34:12 CST 2024
User: pe5414po
Spectrometer: FLMS00987
Trigger mode: 0
Integration Time (sec): 1.000000E-1
Scans to average: 1
Electric dark correction enabled: true
Nonlinearity correction enabled: false
Boxcar width: 0
XAxis mode: Wavelengths
Number of Pixels in Spectrum: 2048
>>>>>Begin Spectral Data<<<<<
188.938	-123.17
189.409	-123.17
189.879	-123.17
190.349	-95.08
190.819	-111.47
191.29	-55.3
191.76	-99.77
192.23	-41.25
192.7	-97.42
193.17	-48.27
193.64	-29.55
194.109	-34.23
194.579	-50.61
195.049	33.65
195.519	85.14
195.988	5.56
196.458	-10.82
196.927	52.37
197.397	122.59
197.866	54.71
198.336	113.22
198.805	145.99
199.274	155.35
199.744	237.27
200.213	281.74
200.682	274.72
201.151	328.55
201.62	380.04
202.089	382.39
202.558	401.11
203.027	391.75
203.495	401.11
203.964	422.17
204.433	398.77
204.902	478.35
205.37	422.17
205.839	440.9
206.307	471.33
206.776	506.43
207.244	513.46
207.712	457.28
208.181	574.31
208.649	588.35
209.117	550.9
209.585	600.05
210.053	581.33
210.521	588.35
210.989	670.27
211.457	656.23
211.925	784.96
212.393	775.6
212.861	810.7
213.328	806.02
213.796	696.02
214.264	623.46
214.731	581.33
215.199	529.84
215.666	574.31
216.133	635.16
216.601	824.75
217.068	892.62
217.535	1063.48
218.003	1150.08
218.47	1423.92
218.937	1313.92
219.404	1107.95
219.871	1049.44
220.338	1110.29
220.805	1089.23
221.271	1037.74
221.738	789.64
222.205	836.45
222.671	824.75
223.138	972.2
223.605	1260.09
224.071	1065.82
224.538	995.61
225.004	817.72
225.47	1063.48
225.937	1232
226.403	1260.09
226.869	972.2
227.335	761.55
227.801	590.69
228.267	595.37
228.733	628.14
229.199	529.84
229.665	513.46
230.131	527.5
230.597	520.48
231.062	724.1
231.528	670.27
231.994	539.2
232.459	555.58
232.925	454.94
233.39	550.9
233.856	520.48
234.321	501.75
234.786	747.51
235.252	1026.03
235.717	1676.7
236.182	2523.98
236.647	2842.29
237.112	2172.89
237.577	1372.43
238.042	784.96
238.507	609.42
238.972	562.61
239.436	578.99
239.901	571.97
240.366	534.52
240.83	508.77
241.295	494.73
241.76	492.39
242.224	443.24
242.688	564.95
243.153	480.69
243.617	450.26
244.081	511.11
244.545	499.41
245.01	546.22
245.474	518.14
245.938	597.71
246.402	628.14
246.866	649.21
247.33	714.74
247.793	677.29
248.257	553.24
248.721	564.95
249.185	532.18
249.648	546.22
250.112	621.12
250.575	621.12
251.039	588.35
251.502	679.63
251.965	616.44
252.429	639.84
252.892	578.99
253.355	614.1
253.818	553.24
254.281	604.74
254.744	621.12
255.207	796.66
255.67	997.95
256.133	1430.95
256.596	2004.38
257.059	2259.49
257.522	1964.59
257.984	1199.23
258.447	1002.63
258.909	1089.23
259.372	1047.1
259.834	1086.89
260.297	930.07
260.759	934.75
261.221	813.04
261.684	1110.29
262.146	1693.09
262.608	2105.02
263.07	1957.57
263.532	1367.75
263.994	1002.63
264.456	993.26
264.918	1007.31
265.38	1042.42
265.842	1014.33
266.303	859.85
266.765	649.21
267.227	586.01
267.688	546.22
268.15	527.5
268.611	571.97
269.072	513.46
269.534	614.1
269.995	546.22
270.456	630.48
270.918	583.67
271.379	576.65
271.84	576.65
272.301	564.95
272.762	490.05
273.223	550.9
273.684	557.93
274.144	642.18
274.605	639.84
275.066	644.53
275.527	703.04
275.987	740.49
276.448	749.85
276.908	808.36
277.369	1026.03
277.829	1739.9
278.289	3308.05
278.75	5877.96
279.21	8096.79
279.67	8262.97
280.13	6086.27
280.59	4136.6
281.05	3347.84
281.51	2776.75
281.97	1887.35
282.43	911.35
282.89	651.55
283.35	590.69
283.809	642.18
284.269	941.77
284.729	1084.55
285.188	1030.71
285.648	878.58
286.107	637.5
286.567	529.84
287.026	609.42
287.485	597.71
287.944	604.74
288.404	658.57
288.863	684.31
289.322	714.74
289.781	623.46
290.24	754.53
290.699	667.93
291.158	686.65
291.616	756.87
292.075	787.3
292.534	932.41
292.992	1033.05
293.451	1103.27
293.91	960.5
294.368	761.55
294.827	726.44
295.285	616.44
295.743	534.52
296.202	529.84
296.66	476.01
297.118	492.39
297.576	492.39
298.034	433.88
298.492	459.62
298.95	426.86
299.408	445.58
299.866	436.22
300.324	466.64
300.781	461.96
301.239	464.3
301.697	478.35
302.154	450.26
302.612	501.75
303.069	494.73
303.527	501.75
303.984	574.31
304.441	611.76
304.899	768.57
305.356	890.28
305.813	909.01
306.27	883.26
306.727	1201.57
307.184	1814.79
307.641	3308.05
308.098	4801.32
308.555	6158.83
309.012	6519.27
309.468	5482.41
309.925	2779.09
310.382	1114.97
310.838	679.63
311.295	602.4
311.751	511.11
312.208	581.33
312.664	508.77
313.12	642.18
313.577	513.46
314.033	539.2
314.489	494.73
314.945	550.9
315.401	628.14
315.857	581.33
316.313	525.16
316.769	450.26
317.225	408.13
317.681	452.6
318.136	354.3
318.592	424.51
319.048	405.79
319.503	440.9
319.959	415.15
320.414	403.45
320.869	443.24
321.325	438.56
321.78	419.83
322.235	363.66
322.691	480.69
323.146	461.96
323.601	557.93
324.056	698.36
324.511	899.64
324.966	1014.33
325.421	775.6
325.875	586.01
326.33	539.2
326.785	611.76
327.24	831.77
327.694	843.47
328.149	773.25
328.603	614.1
329.058	452.6
329.512	445.58
329.966	461.96
330.421	497.07
330.875	450.26
331.329	419.83
331.783	483.03
332.237	466.64
332.691	560.27
333.145	597.71
333.599	600.05
334.053	614.1
334.507	628.14
334.96	604.74
335.414	674.95
335.868	738.15
336.321	773.25
336.775	813.04
337.228	674.95
337.682	635.16
338.135	548.56
338.588	497.07
339.042	487.71
339.495	433.88
339.948	492.39
340.401	440.9
340.854	476.01
341.307	466.64
341.76	447.92
342.213	501.75
342.666	433.88
343.119	487.71
343.571	473.67
344.024	515.8
344.477	492.39
344.929	466.64
345.382	438.56
345.834	454.94
346.287	508.77
346.739	445.58
347.191	529.84
347.644	487.71
348.096	553.24
348.548	490.05
349	520.48
349.452	464.3
349.904	504.09
350.356	405.79
350.808	476.01
351.26	459.62
351.711	454.94
352.163	497.07
352.615	588.35
353.066	539.2
353.518	518.14
353.969	553.24
354.421	578.99
354.872	497.07
355.324	529.84
355.775	630.48
356.226	625.8
356.677	787.3
357.128	1042.42
357.579	1498.82
358.03	2638.66
358.481	4564.92
358.932	5026.01
359.383	3874.46
359.834	2985.06
360.285	3198.05
360.735	2772.07
361.186	2140.13
361.637	1634.57
362.087	997.95
362.538	651.55
362.988	574.31
363.438	581.33
363.889	520.48
364.339	562.61
364.789	571.97
365.239	513.46
365.689	607.08
366.139	464.3
366.589	494.73
367.039	471.33
367.489	464.3
367.939	492.39
368.389	492.39
368.839	501.75
369.288	536.86
369.738	609.42
370.187	796.66
370.637	941.77
371.086	918.37
371.536	976.88
371.985	831.77
372.434	714.74
372.884	492.39
373.333	560.27
373.782	518.14
374.231	562.61
374.68	583.67
375.129	600.05
375.578	567.29
376.027	522.82
376.475	490.05
376.924	541.54
377.373	490.05
377.822	403.45
378.27	483.03
378.719	508.77
379.167	473.67
379.616	597.71
380.064	550.9
380.512	501.75
380.961	583.67
381.409	525.16
381.857	571.97
382.305	646.87
382.753	735.81
383.201	808.36
383.649	995.61
384.097	972.2
384.545	784.96
384.992	600.05
385.44	560.27
385.888	578.99
386.335	628.14
386.783	609.42
387.231	663.25
387.678	600.05
388.125	487.71
388.573	630.48
389.02	532.18
389.467	534.52
389.914	560.27
390.362	583.67
390.809	550.9
391.256	520.48
391.703	625.8
392.15	600.05
392.596	653.89
393.043	974.54
393.49	1470.73
393.937	2715.9
394.383	4408.11
394.83	5187.5
395.276	4188.1
395.723	4094.47
396.169	6126.06
396.616	6662.04
397.062	3925.96
397.508	1604.14
397.954	761.55
398.401	700.7
398.847	614.1
399.293	658.57
399.739	710.06
400.185	644.53
400.631	604.74
401.076	497.07
401.522	485.37
401.968	520.48
402.414	450.26
402.859	604.74
403.305	658.57
403.75	763.89
404.196	698.36
404.641	621.12
405.086	656.23
405.532	635.16
405.977	712.4
406.422	717.08
406.867	667.93
407.312	527.5
407.757	567.29
408.202	588.35
408.647	529.84
409.092	564.95
409.537	649.21
409.982	665.59
410.426	623.46
410.871	642.18
411.316	621.12
411.76	583.67
412.205	677.29
412.649	609.42
413.093	698.36
413.538	719.42
413.982	780.28
414.426	827.09
414.87	803.68
415.314	899.64
415.758	983.9
416.202	841.13
416.646	906.67
417.09	852.83
417.534	752.19
417.978	738.15
418.421	660.91
418.865	698.36
419.309	588.35
419.752	588.35
420.196	623.46
420.639	595.37
421.083	543.88
421.526	567.29
421.969	492.39
422.412	525.16
422.856	595.37
423.299	560.27
423.742	534.52
424.185	595.37
424.628	649.21
425.071	534.52
425.513	497.07
425.956	518.14
426.399	511.11
426.842	527.5
427.284	578.99
427.727	490.05
428.169	532.18
428.612	557.93
429.054	452.6
429.497	487.71
429.939	499.41
430.381	468.98
430.823	426.86
431.265	471.33
431.707	471.33
432.149	490.05
432.591	461.96
433.033	553.24
433.475	490.05
433.917	527.5
434.359	494.73
434.8	564.95
435.242	560.27
435.684	499.41
436.125	494.73
436.567	515.8
437.008	513.46
437.449	529.84
437.891	522.82
438.332	403.45
438.773	508.77
439.214	557.93
439.656	520.48
440.097	459.62
440.538	438.56
440.978	583.67
441.419	543.88
441.86	520.48
442.301	564.95
442.742	618.78
443.182	621.12
443.623	630.48
444.063	660.91
444.504	649.21
444.944	738.15
445.385	728.78
445.825	747.51
446.265	838.79
446.706	944.11
447.146	1114.97
447.586	1381.79
448.026	1746.92
448.466	1831.18
448.906	1554.99
449.346	1253.06
449.786	1058.8
450.225	983.9
450.665	1044.76
451.105	1126.68
451.544	1423.92
451.984	1753.94
452.424	1547.97
452.863	1737.56
453.302	2147.15
453.742	2179.92
454.181	1491.8
454.62	1000.29
455.059	749.85
455.499	607.08
455.938	562.61
456.377	546.22
456.816	529.84
457.254	527.5
457.693	459.62
458.132	504.09
458.571	457.28
459.01	478.35
459.448	522.82
459.887	546.22
460.325	487.71
460.764	487.71
461.202	546.22
461.641	576.65
462.079	518.14
462.517	569.63
462.955	546.22
463.393	597.71
463.832	689
464.27	578.99
464.708	595.37
465.145	625.8
465.583	651.55
466.021	693.68
466.459	824.75
466.897	1133.7
467.334	899.64
467.772	637.5
468.209	625.8
468.647	508.77
469.084	518.14
469.522	550.9
469.959	499.41
470.396	520.48
470.833	518.14
471.271	532.18
471.708	553.24
472.145	504.09
472.582	436.22
473.019	513.46
473.456	468.98
473.892	466.64
474.329	534.52
474.766	440.9
475.202	347.28
475.639	401.11
476.076	464.3
476.512	541.54
476.949	443.24
477.385	499.41
477.821	520.48
478.258	450.26
478.694	581.33
479.13	443.24
479.566	536.86
480.002	511.11
480.438	616.44
480.874	513.46
481.31	494.73
481.746	457.28
482.181	497.07
482.617	501.75
483.053	557.93
483.488	497.07
483.924	464.3
484.36	518.14
484.795	539.2
485.23	567.29
485.666	644.53
486.101	745.17
486.536	738.15
486.971	735.81
487.407	684.31
487.842	609.42
488.277	562.61
488.712	548.56
489.146	534.52
489.581	550.9
490.016	513.46
490.451	522.82
490.885	534.52
491.32	518.14
491.755	529.84
492.189	553.24
492.624	534.52
493.058	527.5
493.492	546.22
493.927	492.39
494.361	522.82
494.795	555.58
495.229	532.18
495.663	433.88
496.097	487.71
496.531	506.43
496.965	457.28
497.399	501.75
497.833	550.9
498.266	541.54
498.7	593.03
499.134	586.01
499.567	674.95
500.001	782.62
500.434	894.96
500.868	990.92
501.301	974.54
501.734	817.72
502.168	693.68
502.601	548.56
503.034	525.16
503.467	466.64
503.9	522.82
504.333	555.58
504.766	553.24
505.199	560.27
505.632	553.24
506.064	539.2
506.497	485.37
506.93	513.46
507.362	539.2
507.795	518.14
508.227	614.1
508.66	562.61
509.092	586.01
509.524	548.56
509.956	555.58
510.389	548.56
510.821	578.99
511.253	511.11
511.685	520.48
512.117	522.82
512.549	562.61
512.981	604.74
513.412	562.61
513.844	618.78
514.276	576.65
514.707	611.76
515.139	628.14
515.571	616.44
516.002	667.93
516.433	623.46
516.865	639.84
517.296	728.78
517.727	740.49
518.159	803.68
518.59	773.25
519.021	742.83
519.452	740.49
519.883	630.48
520.314	590.69
520.744	642.18
521.175	621.12
521.606	667.93
522.037	653.89
522.467	658.57
522.898	651.55
523.328	611.76
523.759	527.5
524.189	590.69
524.62	583.67
525.05	618.78
525.48	602.4
525.91	653.89
526.341	663.25
526.771	681.97
527.201	625.8
527.631	747.51
528.061	824.75
528.49	871.56
528.92	960.5
529.35	1241.36
529.78	2631.64
530.209	12403.38
530.639	30476.99
531.068	47635.46
531.498	63043.21
531.927	63043.21
532.357	63043.21
532.786	63043.21
533.215	63043.21
533.644	42390.32
534.074	15572.46
534.503	6245.43
534.932	2949.95
535.361	1608.83
535.79	1110.29
536.218	841.13
536.647	799
537.076	658.57
537.505	642.18
537.933	595.37
538.362	609.42
538.79	569.63
539.219	536.86
539.647	468.98
540.076	529.84
540.504	555.58
540.932	464.3
541.36	480.69
541.788	494.73
542.217	483.03
542.645	490.05
543.073	478.35
543.5	429.2
543.928	440.9
544.356	436.22
544.784	532.18
545.211	494.73
545.639	398.77
546.067	494.73
546.494	473.67
546.922	422.17
547.349	436.22
547.776	422.17
548.204	459.62
548.631	454.94
549.058	452.6
549.485	459.62
549.912	471.33
550.339	466.64
550.766	445.58
551.193	447.92
551.62	405.79
552.047	499.41
552.474	492.39
552.9	487.71
553.327	515.8
553.754	485.37
554.18	480.69
554.607	483.03
555.033	480.69
555.459	471.33
555.886	431.54
556.312	457.28
556.738	468.98
557.164	401.11
557.59	424.51
558.016	443.24
558.442	450.26
558.868	480.69
559.294	576.65
559.72	728.78
560.145	719.42
560.571	756.87
560.997	578.99
561.422	492.39
561.848	487.71
562.273	450.26
562.699	459.62
563.124	468.98
563.549	394.09
563.974	485.37
564.4	485.37
564.825	490.05
565.25	485.37
565.675	429.2
566.1	487.71
566.525	464.3
566.95	476.01
567.374	581.33
567.799	642.18
568.224	667.93
568.648	698.36
569.073	838.79
569.497	944.11
569.922	1255.4
570.346	1838.2
570.771	1498.82
571.195	904.32
571.619	782.62
572.043	663.25
572.467	780.28
572.891	1089.23
573.315	979.22
573.739	745.17
574.163	553.24
574.587	443.24
575.011	480.69
575.435	497.07
575.858	440.9
576.282	405.79
576.705	424.51
577.129	396.43
577.552	476.01
577.976	447.92
578.399	433.88
578.822	373.02
579.245	401.11
579.669	426.86
580.092	445.58
580.515	476.01
580.938	398.77
581.361	389.41
581.784	389.41
582.206	417.49
582.629	394.09
583.052	408.13
583.474	347.28
583.897	398.77
584.32	445.58
584.742	405.79
585.165	450.26
585.587	405.79
586.009	412.81
586.431	412.81
586.854	410.47
587.276	447.92
587.698	405.79
588.12	433.88
588.542	405.79
588.964	492.39
589.386	394.09
589.807	433.88
590.229	443.24
590.651	387.07
591.073	394.09
591.494	340.26
591.916	438.56
592.337	405.79
592.759	429.2
593.18	476.01
593.601	452.6
594.022	431.54
594.444	466.64
594.865	445.58
595.286	431.54
595.707	452.6
596.128	363.66
596.549	492.39
596.97	422.17
597.39	438.56
597.811	373.02
598.232	361.32
598.652	394.09
599.073	405.79
599.494	398.77
599.914	366
600.334	375.36
600.755	415.15
601.175	457.28
601.595	459.62
602.015	401.11
602.436	424.51
602.856	546.22
603.276	408.13
603.696	415.15
604.115	408.13
604.535	340.26
604.955	335.57
605.375	431.54
605.794	363.66
606.214	319.19
606.634	330.89
607.053	328.55
607.473	447.92
607.892	380.04
608.311	401.11
608.731	368.34
609.15	396.43
609.569	384.73
609.988	464.3
610.407	436.22
610.826	415.15
611.245	391.75
611.664	391.75
612.083	384.73
612.501	450.26
612.92	443.24
613.339	408.13
613.757	351.96
614.176	410.47
614.594	382.39
615.013	410.47
615.431	342.6
615.85	403.45
616.268	389.41
616.686	380.04
617.104	417.49
617.522	408.13
617.94	410.47
618.358	398.77
618.776	445.58
619.194	473.67
619.612	436.22
620.03	468.98
620.447	450.26
620.865	337.91
621.282	459.62
621.7	436.22
622.117	494.73
622.535	541.54
622.952	550.9
623.369	663.25
623.787	880.92
624.204	909.01
624.621	937.09
625.038	1044.76
625.455	1030.71
625.872	817.72
626.289	663.25
626.706	518.14
627.123	440.9
627.539	377.7
627.956	415.15
628.373	403.45
628.789	433.88
629.206	335.57
629.622	438.56
630.038	363.66
630.455	387.07
630.871	382.39
631.287	370.68
631.703	380.04
632.12	384.73
632.536	387.07
632.952	454.94
633.368	389.41
633.783	342.6
634.199	419.83
634.615	340.26
635.031	347.28
635.446	403.45
635.862	337.91
636.277	309.83
636.693	382.39
637.108	312.17
637.524	377.7
637.939	387.07
638.354	391.75
638.77	389.41
639.185	335.57
639.6	410.47
640.015	349.62
640.43	403.45
640.845	342.6
641.259	417.49
641.674	333.23
642.089	368.34
642.504	373.02
642.918	389.41
643.333	337.91
643.747	436.22
644.162	354.3
644.576	342.6
644.991	356.64
645.405	377.7
645.819	398.77
646.233	375.36
646.647	366
647.061	363.66
647.475	382.39
647.889	426.86
648.303	401.11
648.717	321.53
649.131	342.6
649.545	436.22
649.958	384.73
650.372	408.13
650.785	344.94
651.199	398.77
651.612	375.36
652.026	387.07
652.439	384.73
652.852	375.36
653.266	328.55
653.679	410.47
654.092	447.92
654.505	410.47
654.918	452.6
655.331	424.51
655.744	515.8
656.156	609.42
656.569	735.81
656.982	906.67
657.394	817.72
657.807	653.89
658.22	490.05
658.632	459.62
659.044	440.9
659.457	377.7
659.869	412.81
660.281	373.02
660.693	382.39
661.106	391.75
661.518	373.02
661.93	415.15
662.342	384.73
662.754	408.13
663.165	389.41
663.577	389.41
663.989	335.57
664.401	363.66
664.812	398.77
665.224	384.73
665.635	333.23
666.047	380.04
666.458	337.91
666.869	394.09
667.281	316.85
667.692	347.28
668.103	333.23
668.514	377.7
668.925	396.43
669.336	314.51
669.747	354.3
670.158	370.68
670.569	387.07
670.979	373.02
671.39	333.23
671.801	366
672.211	389.41
672.622	382.39
673.032	347.28
673.443	337.91
673.853	340.26
674.263	436.22
674.674	309.83
675.084	368.34
675.494	302.81
675.904	307.49
676.314	309.83
676.724	368.34
677.134	354.3
677.544	382.39
677.953	328.55
678.363	312.17
678.773	354.3
679.182	305.15
679.592	333.23
680.001	358.98
680.411	330.89
680.82	356.64
681.23	394.09
681.639	366
682.048	396.43
682.457	410.47
682.866	401.11
683.275	457.28
683.684	396.43
684.093	358.98
684.502	464.3
684.911	436.22
685.32	394.09
685.728	368.34
686.137	340.26
686.546	426.86
686.954	384.73
687.363	391.75
687.771	330.89
688.179	326.21
688.588	342.6
688.996	335.57
689.404	333.23
689.812	335.57
690.22	337.91
690.628	328.55
691.036	281.74
691.444	380.04
691.852	342.6
692.26	373.02
692.667	401.11
693.075	363.66
693.483	356.64
693.89	398.77
694.298	347.28
694.705	351.96
695.112	398.77
695.52	354.3
695.927	309.83
696.334	316.85
696.741	305.15
697.148	333.23
697.555	281.74
697.962	344.94
698.369	319.19
698.776	309.83
699.183	295.79
699.59	354.3
699.996	314.51
700.403	363.66
700.81	335.57
701.216	333.23
701.623	337.91
702.029	403.45
702.435	361.32
702.842	422.17
703.248	351.96
703.654	373.02
704.06	461.96
704.466	567.29
704.872	635.16
705.278	590.69
705.684	562.61
706.09	532.18
706.496	548.56
706.901	468.98
707.307	438.56
707.712	330.89
708.118	347.28
708.523	417.49
708.929	298.13
709.334	337.91
709.74	312.17
710.145	387.07
710.55	389.41
710.955	342.6
711.36	396.43
711.765	368.34
712.17	335.57
712.575	375.36
712.98	824.75
713.385	349.62
713.789	340.26
714.194	328.55
714.599	344.94
715.003	349.62
715.408	344.94
715.812	415.15
716.217	349.62
716.621	277.06
717.025	387.07
717.429	356.64
717.833	363.66
718.238	340.26
718.642	351.96
719.046	260.68
719.449	307.49
719.853	295.79
720.257	358.98
720.661	342.6
721.065	253.66
721.468	291.1
721.872	366
722.275	382.39
722.679	281.74
723.082	330.89
723.485	307.49
723.889	293.44
724.292	333.23
724.695	354.3
725.098	302.81
725.501	356.64
725.904	377.7
726.307	347.28
726.71	309.83
727.113	405.79
727.516	354.3
727.918	321.53
728.321	354.3
728.724	349.62
729.126	288.76
729.529	337.91
729.931	363.66
730.333	356.64
730.736	354.3
731.138	305.15
731.54	340.26
731.942	347.28
732.344	321.53
732.746	366
733.148	398.77
733.55	293.44
733.952	368.34
734.354	279.4
734.756	354.3
735.157	300.47
735.559	265.36
735.96	358.98
736.362	342.6
736.763	347.28
737.165	363.66
737.566	335.57
737.967	307.49
738.368	305.15
738.77	363.66
739.171	380.04
739.572	277.06
739.973	328.55
740.374	328.55
740.774	323.87
741.175	342.6
741.576	309.83
741.977	382.39
742.377	349.62
742.778	300.47
743.178	394.09
743.579	288.76
743.979	356.64
744.379	354.3
744.78	298.13
745.18	429.2
745.58	347.28
745.98	307.49
746.38	319.19
746.78	454.94
747.18	431.54
747.58	424.51
747.98	431.54
748.38	330.89
748.779	389.41
749.179	335.57
749.578	377.7
749.978	288.76
750.377	358.98
750.777	347.28
751.176	314.51
751.575	321.53
751.975	351.96
752.374	316.85
752.773	349.62
753.172	361.32
753.571	284.08
753.97	333.23
754.369	314.51
754.768	330.89
755.166	333.23
755.565	307.49
755.964	295.79
756.362	328.55
756.761	326.21
757.159	375.36
757.558	389.41
757.956	342.6
758.354	284.08
758.753	272.38
759.151	335.57
759.549	319.19
759.947	291.1
760.345	321.53
760.743	401.11
761.141	375.36
761.539	330.89
761.936	330.89
762.334	335.57
762.732	351.96
763.129	293.44
763.527	340.26
763.924	340.26
764.322	347.28
764.719	323.87
765.117	354.3
765.514	340.26
765.911	298.13
766.308	326.21
766.705	384.73
767.102	272.38
767.499	260.68
767.896	366
768.293	328.55
768.69	349.62
769.086	307.49
769.483	267.7
769.88	321.53
770.276	349.62
770.673	344.94
771.069	342.6
771.466	333.23
771.862	368.34
772.258	298.13
772.654	361.32
773.05	309.83
773.447	370.68
773.843	363.66
774.239	309.83
774.634	337.91
775.03	349.62
775.426	319.19
775.822	361.32
776.218	349.62
776.613	358.98
777.009	452.6
777.404	363.66
777.8	417.49
778.195	447.92
778.59	368.34
778.986	363.66
779.381	309.83
779.776	398.77
780.171	398.77
780.566	326.21
780.961	253.66
781.356	312.17
781.751	300.47
782.146	347.28
782.54	366
782.935	377.7
783.33	326.21
783.724	382.39
784.119	302.81
784.513	354.3
784.908	340.26
785.302	356.64
785.696	295.79
786.09	288.76
786.485	361.32
786.879	335.57
787.273	279.4
787.667	356.64
788.061	314.51
788.454	361.32
788.848	356.64
789.242	380.04
789.636	363.66
790.029	389.41
790.423	295.79
790.816	349.62
791.21	366
791.603	337.91
791.997	286.42
792.39	295.79
792.783	330.89
793.176	349.62
793.569	335.57
793.962	356.64
794.355	309.83
794.748	335.57
795.141	270.04
795.534	309.83
795.927	312.17
796.319	344.94
796.712	347.28
797.105	281.74
797.497	349.62
797.89	274.72
798.282	347.28
798.674	363.66
799.067	330.89
799.459	316.85
799.851	410.47
800.243	363.66
800.635	314.51
801.027	363.66
801.419	366
801.811	333.23
802.203	309.83
802.594	319.19
802.986	347.28
803.378	340.26
803.769	342.6
804.161	321.53
804.552	373.02
804.944	302.81
805.335	330.89
805.726	319.19
806.118	344.94
806.509	253.66
806.9	302.81
807.291	335.57
807.682	349.62
808.073	286.42
808.464	358.98
808.855	363.66
809.245	319.19
809.636	330.89
810.027	351.96
810.417	340.26
810.808	267.7
811.198	349.62
811.589	354.3
811.979	253.66
812.369	373.02
812.759	356.64
813.15	298.13
813.54	323.87
813.93	368.34
814.32	333.23
814.71	326.21
815.1	309.83
815.489	253.66
815.879	265.36
816.269	281.74
816.658	426.86
817.048	335.57
817.438	251.32
817.827	251.32
818.216	321.53
818.606	309.83
818.995	337.91
819.384	286.42
819.773	305.15
820.163	391.75
820.552	373.02
820.941	354.3
821.33	314.51
821.718	333.23
822.107	337.91
822.496	309.83
822.885	394.09
823.273	328.55
823.662	375.36
824.05	270.04
824.439	326.21
824.827	368.34
825.216	279.4
825.604	298.13
825.992	295.79
826.38	300.47
826.768	373.02
827.156	370.68
827.544	333.23
827.932	286.42
828.32	382.39
828.708	361.32
829.096	263.02
829.483	300.47
829.871	253.66
830.259	403.45
830.646	277.06
831.034	373.02
831.421	270.04
831.808	349.62
832.196	321.53
832.583	342.6
832.97	351.96
833.357	337.91
833.744	358.98
834.131	274.72
834.518	314.51
834.905	295.79
835.292	358.98
835.678	330.89
836.065	335.57
836.452	253.66
836.838	234.93
837.225	330.89
837.611	288.76
837.998	314.51
838.384	373.02
838.77	340.26
839.157	316.85
839.543	258.34
839.929	286.42
840.315	323.87
840.701	335.57
841.087	384.73
841.473	305.15
841.858	337.91
842.244	305.15
842.63	305.15
843.015	316.85
843.401	342.6
843.787	349.62
844.172	314.51
844.557	272.38
844.943	337.91
845.328	291.1
845.713	270.04
846.098	370.68
846.483	326.21
846.868	307.49
847.253	279.4
847.638	309.83
848.023	272.38
848.408	314.51
848.793	319.19
849.177	328.55
849.562	288.76
849.947	256
850.331	370.68
850.715	307.49
851.1	312.17
851.484	370.68
851.868	302.81
852.253	333.23
852.637	328.55
853.021	279.4
853.405	225.57
853.789	382.39
854.173	305.15
854.557	326.21
854.94	230.25
855.324	368.34
855.708	328.55
856.091	295.79
856.475	342.6
856.858	394.09
857.242	284.08
857.625	340.26
858.009	356.64
858.392	347.28
858.775	316.85
859.158	293.44
859.541	330.89
859.924	312.17
860.307	316.85
860.69	277.06
861.073	335.57
861.456	232.59
861.838	307.49
862.221	314.51
862.604	319.19
862.986	389.41
863.369	291.1
863.751	333.23
864.133	295.79
864.516	340.26
864.898	305.15
865.28	256
865.662	323.87
866.044	323.87
866.426	358.98
866.808	281.74
867.19	326.21
867.572	300.47
867.954	328.55
868.336	326.21
868.717	251.32
869.099	342.6
869.48	344.94
869.862	312.17
870.243	291.1
870.625	319.19
871.006	351.96
871.387	328.55
871.768	298.13
872.149	326.21
872.53	368.34
872.911	309.83
873.292	358.98
873.673	323.87
874.054	323.87
874.435	274.72
874.815	358.98
875.196	298.13
875.577	375.36
875.957	375.36
876.338	377.7
876.718	312.17
877.098	286.42
877.479	363.66
877.859	312.17
878.239	279.4
878.619	344.94
878.999	277.06
879.379	295.79
879.759	349.62
880.139	267.7
880.519	328.55
880.898	291.1
881.278	389.41
881.658	335.57
882.037	361.32
882.417	326.21
882.796	246.63
883.176	333.23
883.555	366
883.934	328.55
884.313	309.83
884.693	326.21
885.072	375.36
885.451	354.3
885.83	298.13
886.209	274.72
886.587	300.47
886.966	302.81
887.345	333.23
887.724	384.73
888.102	270.04
888.481	340.26
888.859	363.66
889.238	319.19
889.616	340.26
889.994	248.97
890.373	298.13
890.751	337.91
891.129	298.13
891.507	284.08
891.885	361.32
892.263	356.64
892.641	344.94
893.019	295.79
893.396	265.36
893.774	333.23
894.152	293.44
894.529	319.19
894.907	286.42
895.284	335.57
895.662	286.42
896.039	330.89
896.416	260.68
896.794	333.23
897.171	342.6
897.548	295.79
897.925	284.08
898.302	347.28
898.679	286.42
899.056	281.74
899.433	375.36
899.809	279.4
900.186	354.3
900.563	277.06
900.939	326.21
901.316	340.26
901.692	263.02
902.069	272.38
902.445	380.04
902.821	337.91
903.197	340.26
903.574	344.94
903.95	270.04
904.326	351.96
904.702	330.89
905.078	349.62
905.454	314.51
905.829	356.64
906.205	342.6
906.581	307.49
906.956	330.89
907.332	300.47
907.707	321.53
908.083	347.28
908.458	314.51
908.833	270.04
909.209	274.72
909.584	298.13
909.959	335.57
910.334	305.15
910.709	286.42
911.084	321.53
911.459	319.19
911.834	309.83
912.209	342.6
912.583	314.51
912.958	344.94
913.333	298.13
913.707	321.53
914.082	356.64
914.456	314.51
914.83	263.02
915.205	422.17
915.579	316.85
915.953	279.4
916.327	347.28
916.701	288.76
917.075	316.85
917.449	300.47
917.823	291.1
918.197	302.81
918.571	314.51
918.944	366
919.318	298.13
919.692	344.94
920.065	298.13
920.438	380.04
920.812	316.85
921.185	361.32
921.558	281.74
921.932	342.6
922.305	333.23
922.678	281.74
923.051	263.02
923.424	321.53
923.797	337.91
924.17	323.87
924.542	358.98
924.915	340.26
925.288	274.72
925.661	284.08
926.033	370.68
926.406	344.94
926.778	279.4
927.15	340.26
927.523	279.4
927.895	272.38
928.267	323.87
928.639	347.28
929.011	321.53
929.383	384.73
929.755	354.3
930.127	337.91
930.499	293.44
930.871	349.62
931.242	326.21
931.614	305.15
931.986	246.63
932.357	326.21
932.729	274.72
933.1	366
933.471	286.42
933.843	340.26
934.214	314.51
934.585	326.21
934.956	288.76
935.327	295.79
935.698	284.08
936.069	323.87
936.44	295.79
936.811	342.6
937.182	300.47
937.552	298.13
937.923	295.79
938.293	281.74
938.664	309.83
939.034	410.47
939.405	314.51
939.775	314.51
940.145	265.36
940.516	321.53
940.886	202.16
941.256	244.29
941.626	291.1
941.996	302.81
942.366	270.04
942.735	337.91
943.105	326.21
943.475	274.72
943.845	279.4
944.214	263.02
944.584	349.62
944.953	323.87
945.323	344.94
945.692	319.19
946.061	312.17
946.43	321.53
946.8	323.87
947.169	337.91
947.538	335.57
947.907	307.49
948.276	316.85
948.645	342.6
949.013	340.26
949.382	309.83
949.751	319.19
950.119	323.87
950.488	286.42
950.857	274.72
951.225	279.4
951.593	288.76
951.962	323.87
952.33	277.06
952.698	302.81
953.066	319.19
953.434	314.51
953.802	328.55
954.17	305.15
954.538	344.94
954.906	316.85
955.274	337.91
955.642	288.76
956.009	263.02
956.377	333.23
956.744	300.47
957.112	298.13
957.479	370.68
957.847	344.94
958.214	286.42
958.581	316.85
958.948	300.47
959.315	319.19
959.683	403.45
960.05	314.51
960.416	319.19
960.783	363.66
961.15	270.04
961.517	312.17
961.884	319.19
962.25	326.21
962.617	356.64
962.983	295.79
963.35	316.85
963.716	358.98
964.082	295.79
964.449	316.85
964.815	286.42
965.181	286.42
965.547	293.44
965.913	295.79
966.279	309.83
966.645	328.55
967.011	267.7
967.377	316.85
967.742	277.06
968.108	260.68
968.474	330.89
968.839	258.34
969.205	309.83
969.57	403.45
969.935	305.15
970.301	284.08
970.666	319.19
971.031	316.85
971.396	274.72
971.761	319.19
972.126	302.81
972.491	340.26
972.856	258.34
973.221	321.53
973.586	326.21
973.95	293.44
974.315	298.13
974.679	337.91
975.044	349.62
975.408	361.32
975.773	335.57
976.137	319.19
976.501	298.13
976.866	349.62
977.23	295.79
977.594	375.36
977.958	265.36
978.322	328.55
978.686	293.44
979.049	328.55
979.413	340.26
979.777	265.36
980.141	241.95
980.504	340.26
980.868	316.85
981.231	312.17
981.595	260.68
981.958	305.15
982.321	260.68
982.684	286.42
983.048	358.98
983.411	272.38
983.774	305.15
984.137	337.91
984.5	356.64
984.862	270.04
985.225	344.94
985.588	351.96
985.951	330.89
986.313	298.13
986.676	375.36
987.038	309.83
987.401	244.29
987.763	293.44
988.125	333.23
988.488	274.72
988.85	391.75
989.212	335.57
989.574	270.04
989.936	319.19
990.298	344.94
990.66	319.19
991.022	267.7
991.383	342.6
991.745	321.53
992.107	356.64
992.468	321.53
992.83	328.55
993.191	361.32
993.553	363.66
993.914	288.76
994.275	387.07
994.637	344.94
994.998	309.83
995.359	333.23
995.72	309.83
996.081	344.94
996.442	300.47
996.803	335.57
997.163	309.83
997.524	335.57
997.885	267.7
998.245	330.89
998.606	323.87
998.966	279.4
999.327	309.83
999.687	291.1
1000.047	270.04
1000.408	323.87
1000.768	309.83
1001.128	279.4
1001.488	354.3
1001.848	351.96
1002.208	361.32
1002.568	312.17
1002.927	333.23
1003.287	286.42
1003.647	333.23
1004.007	333.23
1004.366	363.66
1004.726	295.79
1005.085	333.23
1005.444	295.79
1005.804	263.02
1006.163	281.74
1006.522	328.55
1006.881	366
1007.24	319.19
1007.599	354.3
1007.958	340.26
1008.317	307.49
1008.676	349.62
1009.035	330.89
1009.393	328.55
1009.752	326.21
1010.111	319.19
1010.469	279.4
1010.828	321.53
1011.186	256
1011.544	286.42
1011.903	321.53
1012.261	300.47
1012.619	302.81
1012.977	284.08
1013.335	337.91
1013.693	326.21
1014.051	260.68
1014.409	307.49
1014.767	312.17
1015.124	293.44
1015.482	314.51
1015.84	337.91
1016.197	314.51
1016.555	326.21
1016.912	330.89
1017.269	277.06
1017.627	344.94
1017.984	300.47
1018.341	351.96
1018.698	316.85
1019.055	319.19
1019.412	337.91
1019.769	340.26
1020.126	328.55
1020.483	277.06
1020.84	274.72
1021.196	302.81
1021.553	316.85
1021.909	326.21
1022.266	267.7
1022.622	288.76
1022.979	391.75
1023.335	309.83
1023.691	309.83
1024.047	258.34
1024.404	263.02
1024.76	394.09
1025.116	284.08
1025.472	321.53
1025.827	253.66
1026.183	330.89
1026.539	368.34
1026.895	274.72
1027.25	288.76
1027.606	326.21
1027.961	387.07
1028.317	298.13
1028.672	321.53
1029.028	291.1
1029.383	337.91
1029.738	335.57
1030.093	295.79
1030.448	274.72
1030.803	377.7
1031.158	326.21
1031.513	295.79
1031.868	366
1032.223	302.81
1032.577	284.08
1032.932	277.06
1033.287	253.66
1033.641	312.17
1033.996	377.7
1034.35	349.62
1034.704	309.83
1035.059	335.57
1035.413	307.49
1035.767	307.49
1036.121	307.49
