Data from Al_FLMS009871__1130__16-34-12-694.txt Node

Date: Fri Mar 08 16:34:12 CST 2024
User: pe5414po
Spectrometer: FLMS00987
Trigger mode: 0
Integration Time (sec): 1.000000E-1
Scans to average: 1
Electric dark correction enabled: true
Nonlinearity correction enabled: false
Boxcar width: 0
XAxis mode: Wavelengths
Number of Pixels in Spectrum: 2048
>>>>>Begin Spectral Data<<<<<
188.938	-104.74
189.409	-104.74
189.879	-104.74
190.349	-135.17
190.819	-170.27
191.29	-160.91
191.76	-107.08
192.23	-36.86
192.7	-57.93
193.17	-20.48
193.64	-39.2
194.109	-6.44
194.579	-36.86
195.049	16.97
195.519	12.29
195.988	63.78
196.458	9.95
196.927	98.89
197.397	59.1
197.866	117.61
198.336	87.18
198.805	178.47
199.274	176.13
199.744	201.87
200.213	255.7
200.682	183.15
201.151	141.02
201.62	255.7
202.089	241.66
202.558	215.91
203.027	213.57
203.495	239.32
203.964	281.45
204.433	199.53
204.902	262.73
205.37	251.02
205.839	269.75
206.307	225.28
206.776	328.26
207.244	262.73
207.712	293.15
208.181	302.51
208.649	300.17
209.117	304.85
209.585	276.77
210.053	290.81
210.521	304.85
210.989	229.96
211.457	302.51
211.925	288.47
212.393	229.96
212.861	297.83
213.328	311.88
213.796	276.77
214.264	325.92
214.731	236.98
215.199	255.7
215.666	244
216.133	339.96
216.601	222.94
217.068	262.73
217.535	197.19
218.003	267.41
218.47	192.51
218.937	269.75
219.404	300.17
219.871	300.17
220.338	251.02
220.805	269.75
221.271	307.2
221.738	286.13
222.205	239.32
222.671	279.11
223.138	236.98
223.605	255.7
224.071	279.11
224.538	260.38
225.004	288.47
225.47	244
225.937	309.54
226.403	241.66
226.869	265.07
227.335	251.02
227.801	323.58
228.267	248.68
228.733	274.43
229.199	206.55
229.665	246.34
230.131	227.62
230.597	241.66
231.062	197.19
231.528	178.47
231.994	239.32
232.459	248.68
232.925	213.57
233.39	225.28
233.856	197.19
234.321	232.3
234.786	246.34
235.252	349.32
235.717	262.73
236.182	225.28
236.647	241.66
237.112	248.68
237.577	300.17
238.042	258.04
238.507	290.81
238.972	265.07
239.436	293.15
239.901	206.55
240.366	316.56
240.83	253.36
241.295	229.96
241.76	258.04
242.224	276.77
242.688	227.62
243.153	337.62
243.617	311.88
244.081	255.7
244.545	288.47
245.01	276.77
245.474	248.68
245.938	272.09
246.402	220.6
246.866	293.15
247.33	311.88
247.793	288.47
248.257	314.22
248.721	265.07
249.185	332.94
249.648	309.54
250.112	297.83
250.575	293.15
251.039	229.96
251.502	236.98
251.965	295.49
252.429	283.79
252.892	272.09
253.355	321.24
253.818	356.35
254.281	241.66
254.744	197.19
255.207	272.09
255.67	300.17
256.133	262.73
256.596	307.2
257.059	272.09
257.522	258.04
257.984	248.68
258.447	253.36
258.909	279.11
259.372	351.67
259.834	330.6
260.297	236.98
260.759	290.81
261.221	236.98
261.684	283.79
262.146	290.81
262.608	318.9
263.07	314.22
263.532	337.62
263.994	304.85
264.456	337.62
264.918	304.85
265.38	297.83
265.842	300.17
266.303	279.11
266.765	328.26
267.227	307.2
267.688	321.24
268.15	286.13
268.611	241.66
269.072	286.13
269.534	279.11
269.995	248.68
270.456	236.98
270.918	321.24
271.379	307.2
271.84	316.56
272.301	335.28
272.762	286.13
273.223	272.09
273.684	251.02
274.144	246.34
274.605	311.88
275.066	274.43
275.527	295.49
275.987	335.28
276.448	248.68
276.908	281.45
277.369	234.64
277.829	218.25
278.289	349.32
278.75	288.47
279.21	272.09
279.67	295.49
280.13	267.41
280.59	328.26
281.05	330.6
281.51	267.41
281.97	349.32
282.43	265.07
282.89	192.51
283.35	309.54
283.809	335.28
284.269	281.45
284.729	229.96
285.188	321.24
285.648	300.17
286.107	246.34
286.567	244
287.026	302.51
287.485	281.45
287.944	272.09
288.404	304.85
288.863	328.26
289.322	248.68
289.781	318.9
290.24	183.15
290.699	325.92
291.158	356.35
291.616	251.02
292.075	286.13
292.534	307.2
292.992	288.47
293.451	342.3
293.91	377.41
294.368	293.15
294.827	227.62
295.285	274.43
295.743	288.47
296.202	187.83
296.66	276.77
297.118	295.49
297.576	304.85
298.034	269.75
298.492	225.28
298.95	222.94
299.408	339.96
299.866	349.32
300.324	302.51
300.781	323.58
301.239	335.28
301.697	258.04
302.154	351.67
302.612	290.81
303.069	307.2
303.527	316.56
303.984	321.24
304.441	283.79
304.899	281.45
305.356	260.38
305.813	311.88
306.27	258.04
306.727	253.36
307.184	314.22
307.641	283.79
308.098	314.22
308.555	293.15
309.012	332.94
309.468	274.43
309.925	332.94
310.382	293.15
310.838	290.81
311.295	321.24
311.751	234.64
312.208	344.64
312.664	309.54
313.12	323.58
313.577	239.32
314.033	314.22
314.489	321.24
314.945	328.26
315.401	283.79
315.857	269.75
316.313	293.15
316.769	318.9
317.225	300.17
317.681	262.73
318.136	283.79
318.592	300.17
319.048	346.98
319.503	262.73
319.959	290.81
320.414	309.54
320.869	295.49
321.325	300.17
321.78	258.04
322.235	328.26
322.691	314.22
323.146	311.88
323.601	248.68
324.056	255.7
324.511	272.09
324.966	302.51
325.421	309.54
325.875	321.24
326.33	276.77
326.785	267.41
327.24	318.9
327.694	304.85
328.149	304.85
328.603	297.83
329.058	372.73
329.512	286.13
329.966	269.75
330.421	325.92
330.875	339.96
331.329	297.83
331.783	283.79
332.237	302.51
332.691	330.6
333.145	290.81
333.599	265.07
334.053	356.35
334.507	248.68
334.96	253.36
335.414	323.58
335.868	267.41
336.321	281.45
336.775	255.7
337.228	295.49
337.682	222.94
338.135	307.2
338.588	309.54
339.042	276.77
339.495	325.92
339.948	288.47
340.401	316.56
340.854	300.17
341.307	297.83
341.76	321.24
342.213	400.82
342.666	302.51
343.119	239.32
343.571	269.75
344.024	323.58
344.477	330.6
344.929	323.58
345.382	321.24
345.834	297.83
346.287	279.11
346.739	300.17
347.191	316.56
347.644	365.71
348.096	293.15
348.548	265.07
349	286.13
349.452	325.92
349.904	346.98
350.356	286.13
350.808	337.62
351.26	344.64
351.711	349.32
352.163	281.45
352.615	246.34
353.066	290.81
353.518	297.83
353.969	290.81
354.421	300.17
354.872	323.58
355.324	290.81
355.775	377.41
356.226	351.67
356.677	314.22
357.128	251.02
357.579	384.43
358.03	304.85
358.481	274.43
358.932	265.07
359.383	349.32
359.834	342.3
360.285	288.47
360.735	300.17
361.186	206.55
361.637	290.81
362.087	382.09
362.538	265.07
362.988	314.22
363.438	290.81
363.889	286.13
364.339	288.47
364.789	295.49
365.239	279.11
365.689	286.13
366.139	297.83
366.589	274.43
367.039	293.15
367.489	396.14
367.939	288.47
368.389	330.6
368.839	295.49
369.288	309.54
369.738	244
370.187	236.98
370.637	267.41
371.086	274.43
371.536	318.9
371.985	290.81
372.434	342.3
372.884	283.79
373.333	309.54
373.782	281.45
374.231	323.58
374.68	330.6
375.129	314.22
375.578	276.77
376.027	295.49
376.475	274.43
376.924	234.64
377.373	283.79
377.822	255.7
378.27	316.56
378.719	309.54
379.167	375.07
379.616	351.67
380.064	309.54
380.512	339.96
380.961	286.13
381.409	286.13
381.857	274.43
382.305	337.62
382.753	323.58
383.201	316.56
383.649	339.96
384.097	290.81
384.545	323.58
384.992	339.96
385.44	363.37
385.888	356.35
386.335	346.98
386.783	358.69
387.231	318.9
387.678	288.47
388.125	403.16
388.573	314.22
389.02	304.85
389.467	258.04
389.914	307.2
390.362	295.49
390.809	316.56
391.256	330.6
391.703	325.92
392.15	283.79
392.596	316.56
393.043	283.79
393.49	295.49
393.937	302.51
394.383	323.58
394.83	307.2
395.276	272.09
395.723	236.98
396.169	323.58
396.616	368.05
397.062	363.37
397.508	346.98
397.954	361.03
398.401	311.88
398.847	267.41
399.293	302.51
399.739	286.13
400.185	260.38
400.631	286.13
401.076	311.88
401.522	332.94
401.968	330.6
402.414	255.7
402.859	311.88
403.305	290.81
403.75	358.69
404.196	318.9
404.641	332.94
405.086	286.13
405.532	337.62
405.977	323.58
406.422	248.68
406.867	405.5
407.312	293.15
407.757	272.09
408.202	311.88
408.647	302.51
409.092	244
409.537	318.9
409.982	304.85
410.426	328.26
410.871	300.17
411.316	351.67
411.76	356.35
412.205	316.56
412.649	300.17
413.093	332.94
413.538	288.47
413.982	295.49
414.426	293.15
414.87	346.98
415.314	372.73
415.758	307.2
416.202	279.11
416.646	304.85
417.09	318.9
417.534	293.15
417.978	297.83
418.421	325.92
418.865	316.56
419.309	258.04
419.752	281.45
420.196	307.2
420.639	382.09
421.083	297.83
421.526	325.92
421.969	309.54
422.412	302.51
422.856	368.05
423.299	297.83
423.742	302.51
424.185	337.62
424.628	290.81
425.071	351.67
425.513	293.15
425.956	290.81
426.399	361.03
426.842	309.54
427.284	302.51
427.727	323.58
428.169	300.17
428.612	330.6
429.054	304.85
429.497	262.73
429.939	260.38
430.381	351.67
430.823	262.73
431.265	241.66
431.707	346.98
432.149	358.69
432.591	330.6
433.033	290.81
433.475	232.3
433.917	332.94
434.359	309.54
434.8	300.17
435.242	379.75
435.684	269.75
436.125	297.83
436.567	286.13
437.008	276.77
437.449	316.56
437.891	307.2
438.332	269.75
438.773	297.83
439.214	344.64
439.656	293.15
440.097	335.28
440.538	307.2
440.978	335.28
441.419	293.15
441.86	295.49
442.301	302.51
442.742	279.11
443.182	311.88
443.623	328.26
444.063	354.01
444.504	300.17
444.944	344.64
445.385	346.98
445.825	300.17
446.265	279.11
446.706	304.85
447.146	307.2
447.586	314.22
448.026	314.22
448.466	325.92
448.906	279.11
449.346	293.15
449.786	279.11
450.225	335.28
450.665	377.41
451.105	321.24
451.544	332.94
451.984	265.07
452.424	321.24
452.863	356.35
453.302	304.85
453.742	354.01
454.181	351.67
454.62	346.98
455.059	346.98
455.499	297.83
455.938	269.75
456.377	377.41
456.816	290.81
457.254	370.39
457.693	372.73
458.132	279.11
458.571	286.13
459.01	262.73
459.448	344.64
459.887	344.64
460.325	260.38
460.764	358.69
461.202	370.39
461.641	372.73
462.079	307.2
462.517	321.24
462.955	318.9
463.393	302.51
463.832	311.88
464.27	349.32
464.708	281.45
465.145	361.03
465.583	309.54
466.021	342.3
466.459	309.54
466.897	286.13
467.334	311.88
467.772	393.8
468.209	307.2
468.647	337.62
469.084	325.92
469.522	342.3
469.959	328.26
470.396	283.79
470.833	295.49
471.271	279.11
471.708	293.15
472.145	356.35
472.582	375.07
473.019	330.6
473.456	316.56
473.892	267.41
474.329	332.94
474.766	356.35
475.202	295.49
475.639	330.6
476.076	330.6
476.512	302.51
476.949	346.98
477.385	335.28
477.821	314.22
478.258	304.85
478.694	290.81
479.13	314.22
479.566	316.56
480.002	293.15
480.438	325.92
480.874	309.54
481.31	288.47
481.746	330.6
482.181	300.17
482.617	354.01
483.053	290.81
483.488	358.69
483.924	346.98
484.36	272.09
484.795	344.64
485.23	272.09
485.666	239.32
486.101	356.35
486.536	295.49
486.971	330.6
487.407	290.81
487.842	302.51
488.277	346.98
488.712	222.94
489.146	295.49
489.581	332.94
490.016	323.58
490.451	300.17
490.885	321.24
491.32	349.32
491.755	279.11
492.189	335.28
492.624	361.03
493.058	332.94
493.492	365.71
493.927	297.83
494.361	330.6
494.795	297.83
495.229	349.32
495.663	365.71
496.097	274.43
496.531	337.62
496.965	297.83
497.399	309.54
497.833	332.94
498.266	365.71
498.7	262.73
499.134	321.24
499.567	286.13
500.001	283.79
500.434	309.54
500.868	253.36
501.301	365.71
501.734	293.15
502.168	281.45
502.601	323.58
503.034	318.9
503.467	314.22
503.9	337.62
504.333	309.54
504.766	274.43
505.199	304.85
505.632	274.43
506.064	323.58
506.497	328.26
506.93	276.77
507.362	302.51
507.795	244
508.227	297.83
508.66	300.17
509.092	311.88
509.524	276.77
509.956	351.67
510.389	236.98
510.821	286.13
511.253	323.58
511.685	354.01
512.117	358.69
512.549	323.58
512.981	330.6
513.412	330.6
513.844	297.83
514.276	318.9
514.707	377.41
515.139	295.49
515.571	356.35
516.002	330.6
516.433	337.62
516.865	328.26
517.296	325.92
517.727	314.22
518.159	332.94
518.59	304.85
519.021	314.22
519.452	321.24
519.883	344.64
520.314	269.75
520.744	325.92
521.175	368.05
521.606	309.54
522.037	307.2
522.467	330.6
522.898	344.64
523.328	267.41
523.759	323.58
524.189	316.56
524.62	276.77
525.05	335.28
525.48	297.83
525.91	321.24
526.341	344.64
526.771	330.6
527.201	293.15
527.631	311.88
528.061	332.94
528.49	279.11
528.92	318.9
529.35	332.94
529.78	304.85
530.209	293.15
530.639	274.43
531.068	346.98
531.498	269.75
531.927	307.2
532.357	356.35
532.786	314.22
533.215	337.62
533.644	344.64
534.074	410.18
534.503	267.41
534.932	344.64
535.361	337.62
535.79	307.2
536.218	339.96
536.647	297.83
537.076	386.77
537.505	393.8
537.933	339.96
538.362	304.85
538.79	325.92
539.219	361.03
539.647	286.13
540.076	318.9
540.504	330.6
540.932	330.6
541.36	330.6
541.788	354.01
542.217	286.13
542.645	281.45
543.073	346.98
543.5	361.03
543.928	358.69
544.356	325.92
544.784	253.36
545.211	267.41
545.639	302.51
546.067	393.8
546.494	330.6
546.922	342.3
547.349	349.32
547.776	309.54
548.204	328.26
548.631	318.9
549.058	269.75
549.485	337.62
549.912	346.98
550.339	272.09
550.766	267.41
551.193	302.51
551.62	309.54
552.047	361.03
552.474	309.54
552.9	316.56
553.327	332.94
553.754	290.81
554.18	265.07
554.607	300.17
555.033	358.69
555.459	297.83
555.886	375.07
556.312	337.62
556.738	295.49
557.164	286.13
557.59	274.43
558.016	332.94
558.442	393.8
558.868	307.2
559.294	316.56
559.72	309.54
560.145	236.98
560.571	267.41
560.997	307.2
561.422	335.28
561.848	314.22
562.273	337.62
562.699	260.38
563.124	325.92
563.549	283.79
563.974	330.6
564.4	370.39
564.825	283.79
565.25	307.2
565.675	314.22
566.1	248.68
566.525	283.79
566.95	323.58
567.374	307.2
567.799	274.43
568.224	255.7
568.648	398.48
569.073	241.66
569.497	293.15
569.922	286.13
570.346	300.17
570.771	339.96
571.195	400.82
571.619	375.07
572.043	288.47
572.467	276.77
572.891	304.85
573.315	302.51
573.739	220.6
574.163	316.56
574.587	321.24
575.011	297.83
575.435	346.98
575.858	293.15
576.282	279.11
576.705	295.49
577.129	325.92
577.552	328.26
577.976	248.68
578.399	349.32
578.822	363.37
579.245	363.37
579.669	290.81
580.092	269.75
580.515	267.41
580.938	382.09
581.361	302.51
581.784	239.32
582.206	330.6
582.629	293.15
583.052	297.83
583.474	314.22
583.897	316.56
584.32	267.41
584.742	262.73
585.165	260.38
585.587	316.56
586.009	283.79
586.431	265.07
586.854	309.54
587.276	288.47
587.698	330.6
588.12	328.26
588.542	314.22
588.964	286.13
589.386	288.47
589.807	361.03
590.229	281.45
590.651	321.24
591.073	335.28
591.494	293.15
591.916	288.47
592.337	286.13
592.759	309.54
593.18	274.43
593.601	351.67
594.022	339.96
594.444	269.75
594.865	332.94
595.286	351.67
595.707	396.14
596.128	290.81
596.549	311.88
596.97	354.01
597.39	279.11
597.811	276.77
598.232	337.62
598.652	346.98
599.073	316.56
599.494	339.96
599.914	330.6
600.334	332.94
600.755	351.67
601.175	302.51
601.595	332.94
602.015	295.49
602.436	265.07
602.856	447.63
603.276	314.22
603.696	330.6
604.115	307.2
604.535	262.73
604.955	274.43
605.375	274.43
605.794	281.45
606.214	311.88
606.634	309.54
607.053	253.36
607.473	309.54
607.892	290.81
608.311	267.41
608.731	370.39
609.15	314.22
609.569	295.49
609.988	300.17
610.407	325.92
610.826	344.64
611.245	316.56
611.664	307.2
612.083	342.3
612.501	269.75
612.92	288.47
613.339	279.11
613.757	218.25
614.176	325.92
614.594	265.07
615.013	335.28
615.431	325.92
615.85	323.58
616.268	222.94
616.686	332.94
617.104	297.83
617.522	255.7
617.94	255.7
618.358	293.15
618.776	325.92
619.194	358.69
619.612	342.3
620.03	323.58
620.447	309.54
620.865	251.02
621.282	370.39
621.7	297.83
622.117	297.83
622.535	323.58
622.952	377.41
623.369	307.2
623.787	321.24
624.204	330.6
624.621	325.92
625.038	346.98
625.455	297.83
625.872	314.22
626.289	332.94
626.706	311.88
627.123	318.9
627.539	302.51
627.956	302.51
628.373	307.2
628.789	309.54
629.206	332.94
629.622	361.03
630.038	323.58
630.455	307.2
630.871	309.54
631.287	297.83
631.703	325.92
632.12	311.88
632.536	307.2
632.952	318.9
633.368	288.47
633.783	325.92
634.199	304.85
634.615	386.77
635.031	342.3
635.446	302.51
635.862	330.6
636.277	339.96
636.693	300.17
637.108	269.75
637.524	300.17
637.939	276.77
638.354	328.26
638.77	332.94
639.185	330.6
639.6	276.77
640.015	330.6
640.43	295.49
640.845	307.2
641.259	323.58
641.674	232.3
642.089	375.07
642.504	302.51
642.918	288.47
643.333	311.88
643.747	293.15
644.162	267.41
644.576	309.54
644.991	344.64
645.405	337.62
645.819	304.85
646.233	302.51
646.647	351.67
647.061	302.51
647.475	300.17
647.889	283.79
648.303	234.64
648.717	274.43
649.131	300.17
649.545	272.09
649.958	323.58
650.372	346.98
650.785	323.58
651.199	346.98
651.612	281.45
652.026	297.83
652.439	276.77
652.852	335.28
653.266	379.75
653.679	314.22
654.092	321.24
654.505	302.51
654.918	311.88
655.331	302.51
655.744	302.51
656.156	262.73
656.569	323.58
656.982	300.17
657.394	304.85
657.807	295.49
658.22	389.11
658.632	363.37
659.044	290.81
659.457	363.37
659.869	208.89
660.281	368.05
660.693	363.37
661.106	323.58
661.518	283.79
661.93	365.71
662.342	276.77
662.754	335.28
663.165	321.24
663.577	225.28
663.989	328.26
664.401	307.2
664.812	354.01
665.224	351.67
665.635	253.36
666.047	295.49
666.458	274.43
666.869	279.11
667.281	330.6
667.692	351.67
668.103	311.88
668.514	323.58
668.925	311.88
669.336	351.67
669.747	213.57
670.158	309.54
670.569	297.83
670.979	272.09
671.39	335.28
671.801	358.69
672.211	276.77
672.622	321.24
673.032	318.9
673.443	283.79
673.853	365.71
674.263	349.32
674.674	337.62
675.084	351.67
675.494	300.17
675.904	300.17
676.314	328.26
676.724	253.36
677.134	274.43
677.544	328.26
677.953	300.17
678.363	337.62
678.773	323.58
679.182	342.3
679.592	276.77
680.001	318.9
680.411	337.62
680.82	293.15
681.23	255.7
681.639	283.79
682.048	276.77
682.457	281.45
682.866	295.49
683.275	304.85
683.684	314.22
684.093	283.79
684.502	361.03
684.911	335.28
685.32	349.32
685.728	307.2
686.137	314.22
686.546	269.75
686.954	279.11
687.363	389.11
687.771	293.15
688.179	293.15
688.588	339.96
688.996	265.07
689.404	311.88
689.812	365.71
690.22	342.3
690.628	276.77
691.036	328.26
691.444	361.03
691.852	309.54
692.26	307.2
692.667	311.88
693.075	318.9
693.483	335.28
693.89	351.67
694.298	325.92
694.705	332.94
695.112	295.49
695.52	283.79
695.927	297.83
696.334	307.2
696.741	302.51
697.148	265.07
697.555	300.17
697.962	325.92
698.369	335.28
698.776	342.3
699.183	328.26
699.59	272.09
699.996	335.28
700.403	316.56
700.81	311.88
701.216	346.98
701.623	318.9
702.029	316.56
702.435	344.64
702.842	309.54
703.248	281.45
703.654	314.22
704.06	354.01
704.466	293.15
704.872	332.94
705.278	342.3
705.684	363.37
706.09	339.96
706.496	365.71
706.901	321.24
707.307	302.51
707.712	283.79
708.118	337.62
708.523	300.17
708.929	304.85
709.334	290.81
709.74	323.58
710.145	318.9
710.55	346.98
710.955	339.96
711.36	328.26
711.765	260.38
712.17	234.64
712.575	295.49
712.98	787.01
713.385	286.13
713.789	316.56
714.194	332.94
714.599	321.24
715.003	272.09
715.408	330.6
715.812	283.79
716.217	316.56
716.621	276.77
717.025	314.22
717.429	314.22
717.833	281.45
718.238	260.38
718.642	339.96
719.046	349.32
719.449	279.11
719.853	290.81
720.257	344.64
720.661	300.17
721.065	351.67
721.468	311.88
721.872	309.54
722.275	368.05
722.679	304.85
723.082	330.6
723.485	281.45
723.889	309.54
724.292	346.98
724.695	344.64
725.098	290.81
725.501	309.54
725.904	318.9
726.307	295.49
726.71	293.15
727.113	267.41
727.516	290.81
727.918	304.85
728.321	279.11
728.724	323.58
729.126	311.88
729.529	309.54
729.931	358.69
730.333	339.96
730.736	288.47
731.138	318.9
731.54	290.81
731.942	276.77
732.344	332.94
732.746	302.51
733.148	323.58
733.55	300.17
733.952	316.56
734.354	307.2
734.756	281.45
735.157	302.51
735.559	267.41
735.96	302.51
736.362	339.96
736.763	356.35
737.165	351.67
737.566	274.43
737.967	318.9
738.368	262.73
738.77	365.71
739.171	279.11
739.572	346.98
739.973	314.22
740.374	248.68
740.774	361.03
741.175	311.88
741.576	267.41
741.977	260.38
742.377	283.79
742.778	330.6
743.178	361.03
743.579	325.92
743.979	321.24
744.379	267.41
744.78	295.49
745.18	325.92
745.58	218.25
745.98	272.09
746.38	251.02
746.78	279.11
747.18	265.07
747.58	276.77
747.98	281.45
748.38	288.47
748.779	321.24
749.179	314.22
749.578	311.88
749.978	328.26
750.377	307.2
750.777	314.22
751.176	297.83
751.575	337.62
751.975	276.77
752.374	330.6
752.773	335.28
753.172	354.01
753.571	314.22
753.97	321.24
754.369	309.54
754.768	358.69
755.166	279.11
755.565	293.15
755.964	258.04
756.362	304.85
756.761	262.73
757.159	283.79
757.558	356.35
757.956	321.24
758.354	330.6
758.753	332.94
759.151	248.68
759.549	337.62
759.947	318.9
760.345	318.9
760.743	344.64
761.141	349.32
761.539	281.45
761.936	361.03
762.334	356.35
762.732	274.43
763.129	328.26
763.527	300.17
763.924	386.77
764.322	258.04
764.719	290.81
765.117	351.67
765.514	295.49
765.911	365.71
766.308	293.15
766.705	379.75
767.102	354.01
767.499	386.77
767.896	244
768.293	286.13
768.69	302.51
769.086	265.07
769.483	356.35
769.88	286.13
770.276	325.92
770.673	286.13
771.069	286.13
771.466	332.94
771.862	311.88
772.258	325.92
772.654	344.64
773.05	321.24
773.447	288.47
773.843	328.26
774.239	279.11
774.634	316.56
775.03	300.17
775.426	372.73
775.822	337.62
776.218	325.92
776.613	293.15
777.009	304.85
777.404	297.83
777.8	286.13
778.195	358.69
778.59	328.26
778.986	349.32
779.381	330.6
779.776	307.2
780.171	314.22
780.566	393.8
780.961	342.3
781.356	314.22
781.751	325.92
782.146	307.2
782.54	262.73
782.935	321.24
783.33	307.2
783.724	335.28
784.119	335.28
784.513	300.17
784.908	318.9
785.302	349.32
785.696	339.96
786.09	307.2
786.485	375.07
786.879	272.09
787.273	300.17
787.667	290.81
788.061	260.38
788.454	281.45
788.848	272.09
789.242	314.22
789.636	276.77
790.029	279.11
790.423	253.36
790.816	332.94
791.21	330.6
791.603	293.15
791.997	279.11
792.39	300.17
792.783	321.24
793.176	272.09
793.569	300.17
793.962	274.43
794.355	379.75
794.748	375.07
795.141	314.22
795.534	304.85
795.927	318.9
796.319	325.92
796.712	337.62
797.105	316.56
797.497	316.56
797.89	342.3
798.282	311.88
798.674	318.9
799.067	274.43
799.459	325.92
799.851	311.88
800.243	304.85
800.635	323.58
801.027	314.22
801.419	344.64
801.811	262.73
802.203	344.64
802.594	307.2
802.986	302.51
803.378	279.11
803.769	253.36
804.161	279.11
804.552	288.47
804.944	351.67
805.335	293.15
805.726	281.45
806.118	251.02
806.509	302.51
806.9	265.07
807.291	356.35
807.682	309.54
808.073	283.79
808.464	361.03
808.855	365.71
809.245	332.94
809.636	300.17
810.027	258.04
810.417	302.51
810.808	267.41
811.198	335.28
811.589	304.85
811.979	325.92
812.369	290.81
812.759	349.32
813.15	335.28
813.54	339.96
813.93	358.69
814.32	318.9
814.71	323.58
815.1	288.47
815.489	276.77
815.879	346.98
816.269	370.39
816.658	269.75
817.048	349.32
817.438	307.2
817.827	337.62
818.216	255.7
818.606	265.07
818.995	300.17
819.384	236.98
819.773	323.58
820.163	309.54
820.552	361.03
820.941	290.81
821.33	206.55
821.718	269.75
822.107	342.3
822.496	400.82
822.885	281.45
823.273	328.26
823.662	255.7
824.05	339.96
824.439	368.05
824.827	323.58
825.216	332.94
825.604	323.58
825.992	351.67
826.38	309.54
826.768	297.83
827.156	349.32
827.544	325.92
827.932	325.92
828.32	244
828.708	307.2
829.096	234.64
829.483	293.15
829.871	307.2
830.259	314.22
830.646	339.96
831.034	262.73
831.421	253.36
831.808	358.69
832.196	302.51
832.583	258.04
832.97	304.85
833.357	403.16
833.744	337.62
834.131	300.17
834.518	344.64
834.905	330.6
835.292	276.77
835.678	384.43
836.065	281.45
836.452	288.47
836.838	304.85
837.225	260.38
837.611	328.26
837.998	286.13
838.384	344.64
838.77	330.6
839.157	297.83
839.543	309.54
839.929	283.79
840.315	269.75
840.701	239.32
841.087	311.88
841.473	281.45
841.858	295.49
842.244	321.24
842.63	274.43
843.015	290.81
843.401	370.39
843.787	246.34
844.172	318.9
844.557	286.13
844.943	258.04
845.328	283.79
845.713	318.9
846.098	365.71
846.483	325.92
846.868	363.37
847.253	361.03
847.638	295.49
848.023	272.09
848.408	288.47
848.793	344.64
849.177	321.24
849.562	316.56
849.947	244
850.331	251.02
850.715	279.11
851.1	332.94
851.484	311.88
851.868	337.62
852.253	260.38
852.637	316.56
853.021	297.83
853.405	346.98
853.789	304.85
854.173	302.51
854.557	311.88
854.94	274.43
855.324	337.62
855.708	311.88
856.091	267.41
856.475	290.81
856.858	361.03
857.242	295.49
857.625	332.94
858.009	279.11
858.392	300.17
858.775	339.96
859.158	279.11
859.541	339.96
859.924	274.43
860.307	290.81
860.69	267.41
861.073	293.15
861.456	309.54
861.838	290.81
862.221	276.77
862.604	302.51
862.986	267.41
863.369	309.54
863.751	323.58
864.133	288.47
864.516	300.17
864.898	316.56
865.28	309.54
865.662	335.28
866.044	255.7
866.426	304.85
866.808	302.51
867.19	300.17
867.572	279.11
867.954	258.04
868.336	288.47
868.717	290.81
869.099	365.71
869.48	279.11
869.862	288.47
870.243	330.6
870.625	375.07
871.006	361.03
871.387	293.15
871.768	311.88
872.149	346.98
872.53	323.58
872.911	316.56
873.292	276.77
873.673	253.36
874.054	272.09
874.435	274.43
874.815	311.88
875.196	339.96
875.577	314.22
875.957	314.22
876.338	281.45
876.718	290.81
877.098	290.81
877.479	255.7
877.859	316.56
878.239	309.54
878.619	286.13
878.999	290.81
879.379	332.94
879.759	335.28
880.139	267.41
880.519	274.43
880.898	337.62
881.278	349.32
881.658	321.24
882.037	339.96
882.417	337.62
882.796	384.43
883.176	229.96
883.555	314.22
883.934	281.45
884.313	309.54
884.693	332.94
885.072	274.43
885.451	368.05
885.83	239.32
886.209	262.73
886.587	279.11
886.966	356.35
887.345	356.35
887.724	236.98
888.102	332.94
888.481	283.79
888.859	318.9
889.238	337.62
889.616	300.17
889.994	241.66
890.373	314.22
890.751	379.75
891.129	286.13
891.507	309.54
891.885	274.43
892.263	344.64
892.641	302.51
893.019	297.83
893.396	314.22
893.774	304.85
894.152	251.02
894.529	295.49
894.907	265.07
895.284	265.07
895.662	372.73
896.039	358.69
896.416	246.34
896.794	379.75
897.171	314.22
897.548	339.96
897.925	286.13
898.302	356.35
898.679	246.34
899.056	311.88
899.433	276.77
899.809	321.24
900.186	328.26
900.563	314.22
900.939	342.3
901.316	283.79
901.692	295.49
902.069	346.98
902.445	297.83
902.821	354.01
903.197	318.9
903.574	321.24
903.95	351.67
904.326	297.83
904.702	335.28
905.078	314.22
905.454	290.81
905.829	325.92
906.205	297.83
906.581	339.96
906.956	325.92
907.332	290.81
907.707	265.07
908.083	325.92
908.458	304.85
908.833	344.64
909.209	272.09
909.584	323.58
909.959	316.56
910.334	321.24
910.709	246.34
911.084	314.22
911.459	307.2
911.834	368.05
912.209	267.41
912.583	290.81
912.958	265.07
913.333	297.83
913.707	318.9
914.082	279.11
914.456	229.96
914.83	351.67
915.205	316.56
915.579	300.17
915.953	372.73
916.327	269.75
916.701	311.88
917.075	265.07
917.449	328.26
917.823	316.56
918.197	260.38
918.571	239.32
918.944	300.17
919.318	332.94
919.692	311.88
920.065	316.56
920.438	260.38
920.812	272.09
921.185	307.2
921.558	304.85
921.932	279.11
922.305	293.15
922.678	314.22
923.051	321.24
923.424	251.02
923.797	339.96
924.17	304.85
924.542	307.2
924.915	304.85
925.288	302.51
925.661	281.45
926.033	302.51
926.406	339.96
926.778	311.88
927.15	272.09
927.523	276.77
927.895	309.54
928.267	346.98
928.639	314.22
929.011	220.6
929.383	325.92
929.755	323.58
930.127	300.17
930.499	311.88
930.871	307.2
931.242	302.51
931.614	265.07
931.986	281.45
932.357	300.17
932.729	279.11
933.1	262.73
933.471	346.98
933.843	253.36
934.214	290.81
934.585	354.01
934.956	323.58
935.327	323.58
935.698	300.17
936.069	295.49
936.44	279.11
936.811	279.11
937.182	265.07
937.552	318.9
937.923	279.11
938.293	358.69
938.664	302.51
939.034	286.13
939.405	304.85
939.775	307.2
940.145	290.81
940.516	295.49
940.886	283.79
941.256	279.11
941.626	316.56
941.996	337.62
942.366	279.11
942.735	337.62
943.105	311.88
943.475	274.43
943.845	365.71
944.214	354.01
944.584	342.3
944.953	375.07
945.323	290.81
945.692	309.54
946.061	307.2
946.43	269.75
946.8	304.85
947.169	323.58
947.538	337.62
947.907	302.51
948.276	265.07
948.645	307.2
949.013	339.96
949.382	337.62
949.751	351.67
950.119	323.58
950.488	297.83
950.857	337.62
951.225	342.3
951.593	283.79
951.962	354.01
952.33	349.32
952.698	309.54
953.066	269.75
953.434	384.43
953.802	293.15
954.17	281.45
954.538	309.54
954.906	302.51
955.274	286.13
955.642	356.35
956.009	281.45
956.377	309.54
956.744	272.09
957.112	335.28
957.479	229.96
957.847	248.68
958.214	309.54
958.581	337.62
958.948	311.88
959.315	335.28
959.683	321.24
960.05	309.54
960.416	328.26
960.783	304.85
961.15	297.83
961.517	304.85
961.884	332.94
962.25	300.17
962.617	288.47
962.983	325.92
963.35	293.15
963.716	391.45
964.082	248.68
964.449	349.32
964.815	279.11
965.181	309.54
965.547	293.15
965.913	293.15
966.279	346.98
966.645	311.88
967.011	309.54
967.377	281.45
967.742	295.49
968.108	314.22
968.474	300.17
968.839	328.26
969.205	309.54
969.57	321.24
969.935	307.2
970.301	309.54
970.666	295.49
971.031	276.77
971.396	342.3
971.761	325.92
972.126	361.03
972.491	288.47
972.856	297.83
973.221	349.32
973.586	288.47
973.95	349.32
974.315	335.28
974.679	288.47
975.044	267.41
975.408	251.02
975.773	318.9
976.137	339.96
976.501	297.83
976.866	293.15
977.23	302.51
977.594	323.58
977.958	262.73
978.322	297.83
978.686	262.73
979.049	295.49
979.413	302.51
979.777	342.3
980.141	297.83
980.504	332.94
980.868	288.47
981.231	262.73
981.595	335.28
981.958	265.07
982.321	293.15
982.684	307.2
983.048	281.45
983.411	316.56
983.774	253.36
984.137	300.17
984.5	260.38
984.862	239.32
985.225	288.47
985.588	248.68
985.951	351.67
986.313	236.98
986.676	265.07
987.038	339.96
987.401	339.96
987.763	283.79
988.125	304.85
988.488	309.54
988.85	304.85
989.212	234.64
989.574	295.49
989.936	339.96
990.298	295.49
990.66	297.83
991.022	248.68
991.383	386.77
991.745	309.54
992.107	344.64
992.468	307.2
992.83	339.96
993.191	290.81
993.553	276.77
993.914	288.47
994.275	265.07
994.637	328.26
994.998	290.81
995.359	297.83
995.72	325.92
996.081	300.17
996.442	351.67
996.803	290.81
997.163	330.6
997.524	293.15
997.885	356.35
998.245	330.6
998.606	332.94
998.966	318.9
999.327	253.36
999.687	318.9
1000.047	276.77
1000.408	349.32
1000.768	286.13
1001.128	281.45
1001.488	332.94
1001.848	311.88
1002.208	332.94
1002.568	255.7
1002.927	318.9
1003.287	293.15
1003.647	365.71
1004.007	335.28
1004.366	351.67
1004.726	318.9
1005.085	342.3
1005.444	309.54
1005.804	269.75
1006.163	316.56
1006.522	318.9
1006.881	269.75
1007.24	351.67
1007.599	339.96
1007.958	368.05
1008.317	304.85
1008.676	246.34
1009.035	368.05
1009.393	253.36
1009.752	309.54
1010.111	274.43
1010.469	262.73
1010.828	248.68
1011.186	272.09
1011.544	314.22
1011.903	281.45
1012.261	300.17
1012.619	307.2
1012.977	314.22
1013.335	274.43
1013.693	262.73
1014.051	314.22
1014.409	269.75
1014.767	288.47
1015.124	239.32
1015.482	286.13
1015.84	265.07
1016.197	307.2
1016.555	316.56
1016.912	279.11
1017.269	283.79
1017.627	304.85
1017.984	288.47
1018.341	279.11
1018.698	283.79
1019.055	332.94
1019.412	274.43
1019.769	283.79
1020.126	288.47
1020.483	248.68
1020.84	321.24
1021.196	314.22
1021.553	272.09
1021.909	297.83
1022.266	283.79
1022.622	365.71
1022.979	335.28
1023.335	351.67
1023.691	302.51
1024.047	248.68
1024.404	304.85
1024.76	339.96
1025.116	339.96
1025.472	314.22
1025.827	260.38
1026.183	321.24
1026.539	253.36
1026.895	323.58
1027.25	377.41
1027.606	325.92
1027.961	342.3
1028.317	253.36
1028.672	297.83
1029.028	314.22
1029.383	293.15
1029.738	265.07
1030.093	318.9
1030.448	307.2
1030.803	354.01
1031.158	300.17
1031.513	267.41
1031.868	314.22
1032.223	316.56
1032.577	241.66
1032.932	328.26
1033.287	251.02
1033.641	283.79
1033.996	382.09
1034.35	349.32
1034.704	304.85
1035.059	325.92
1035.413	337.62
1035.767	337.62
1036.121	337.62
