Data from Al_FLMS009871__1123__16-34-11-995.txt Node

Date: Fri Mar 08 16:34:11 CST 2024
User: pe5414po
Spectrometer: FLMS00987
Trigger mode: 0
Integration Time (sec): 1.000000E-1
Scans to average: 1
Electric dark correction enabled: true
Nonlinearity correction enabled: false
Boxcar width: 0
XAxis mode: Wavelengths
Number of Pixels in Spectrum: 2048
>>>>>Begin Spectral Data<<<<<
188.938	-81.33
189.409	-81.33
189.879	-81.33
190.349	-107.08
190.819	-88.36
191.29	-83.67
191.76	-57.93
192.23	-74.31
192.7	-57.93
193.17	-118.78
193.64	-69.63
194.109	-62.61
194.579	-46.23
195.049	35.69
195.519	28.67
195.988	82.5
196.458	14.63
196.927	108.25
197.397	49.74
197.866	108.25
198.336	143.36
198.805	162.08
199.274	176.13
199.744	159.74
200.213	129.31
200.682	253.36
201.151	239.32
201.62	251.02
202.089	248.68
202.558	274.43
203.027	225.28
203.495	227.62
203.964	283.79
204.433	208.89
204.902	342.3
205.37	248.68
205.839	286.13
206.307	309.54
206.776	304.85
207.244	227.62
207.712	274.43
208.181	269.75
208.649	309.54
209.117	269.75
209.585	295.49
210.053	323.58
210.521	311.88
210.989	244
211.457	227.62
211.925	297.83
212.393	293.15
212.861	309.54
213.328	253.36
213.796	300.17
214.264	307.2
214.731	258.04
215.199	253.36
215.666	244
216.133	290.81
216.601	283.79
217.068	241.66
217.535	215.91
218.003	220.6
218.47	248.68
218.937	248.68
219.404	255.7
219.871	220.6
220.338	274.43
220.805	236.98
221.271	255.7
221.738	309.54
222.205	293.15
222.671	220.6
223.138	229.96
223.605	318.9
224.071	314.22
224.538	253.36
225.004	321.24
225.47	307.2
225.937	300.17
226.403	302.51
226.869	248.68
227.335	290.81
227.801	204.21
228.267	234.64
228.733	314.22
229.199	246.34
229.665	272.09
230.131	325.92
230.597	262.73
231.062	269.75
231.528	253.36
231.994	229.96
232.459	325.92
232.925	337.62
233.39	302.51
233.856	295.49
234.321	316.56
234.786	265.07
235.252	286.13
235.717	379.75
236.182	260.38
236.647	232.3
237.112	239.32
237.577	279.11
238.042	246.34
238.507	293.15
238.972	339.96
239.436	208.89
239.901	288.47
240.366	248.68
240.83	286.13
241.295	309.54
241.76	356.35
242.224	293.15
242.688	297.83
243.153	251.02
243.617	281.45
244.081	267.41
244.545	253.36
245.01	297.83
245.474	232.3
245.938	314.22
246.402	283.79
246.866	286.13
247.33	251.02
247.793	260.38
248.257	302.51
248.721	290.81
249.185	293.15
249.648	316.56
250.112	293.15
250.575	253.36
251.039	300.17
251.502	272.09
251.965	283.79
252.429	318.9
252.892	262.73
253.355	300.17
253.818	295.49
254.281	286.13
254.744	290.81
255.207	328.26
255.67	314.22
256.133	283.79
256.596	227.62
257.059	267.41
257.522	295.49
257.984	255.7
258.447	262.73
258.909	300.17
259.372	311.88
259.834	302.51
260.297	295.49
260.759	295.49
261.221	281.45
261.684	267.41
262.146	314.22
262.608	297.83
263.07	269.75
263.532	276.77
263.994	283.79
264.456	339.96
264.918	307.2
265.38	311.88
265.842	260.38
266.303	276.77
266.765	304.85
267.227	288.47
267.688	300.17
268.15	260.38
268.611	293.15
269.072	274.43
269.534	232.3
269.995	286.13
270.456	283.79
270.918	290.81
271.379	276.77
271.84	269.75
272.301	269.75
272.762	281.45
273.223	304.85
273.684	241.66
274.144	246.34
274.605	265.07
275.066	332.94
275.527	344.64
275.987	321.24
276.448	304.85
276.908	281.45
277.369	316.56
277.829	236.98
278.289	314.22
278.75	293.15
279.21	258.04
279.67	316.56
280.13	234.64
280.59	297.83
281.05	253.36
281.51	269.75
281.97	293.15
282.43	253.36
282.89	283.79
283.35	342.3
283.809	288.47
284.269	304.85
284.729	309.54
285.188	314.22
285.648	236.98
286.107	279.11
286.567	260.38
287.026	328.26
287.485	293.15
287.944	262.73
288.404	293.15
288.863	302.51
289.322	318.9
289.781	267.41
290.24	351.67
290.699	286.13
291.158	215.91
291.616	318.9
292.075	321.24
292.534	297.83
292.992	349.32
293.451	328.26
293.91	337.62
294.368	290.81
294.827	293.15
295.285	323.58
295.743	272.09
296.202	318.9
296.66	304.85
297.118	286.13
297.576	255.7
298.034	300.17
298.492	314.22
298.95	354.01
299.408	288.47
299.866	337.62
300.324	281.45
300.781	293.15
301.239	358.69
301.697	358.69
302.154	403.16
302.612	290.81
303.069	314.22
303.527	332.94
303.984	281.45
304.441	323.58
304.899	267.41
305.356	265.07
305.813	307.2
306.27	323.58
306.727	307.2
307.184	311.88
307.641	323.58
308.098	293.15
308.555	279.11
309.012	255.7
309.468	272.09
309.925	311.88
310.382	300.17
310.838	311.88
311.295	304.85
311.751	286.13
312.208	304.85
312.664	286.13
313.12	281.45
313.577	293.15
314.033	400.82
314.489	297.83
314.945	325.92
315.401	323.58
315.857	351.67
316.313	297.83
316.769	349.32
317.225	274.43
317.681	372.73
318.136	311.88
318.592	339.96
319.048	300.17
319.503	248.68
319.959	236.98
320.414	295.49
320.869	332.94
321.325	328.26
321.78	339.96
322.235	337.62
322.691	297.83
323.146	302.51
323.601	281.45
324.056	361.03
324.511	318.9
324.966	293.15
325.421	332.94
325.875	370.39
326.33	307.2
326.785	318.9
327.24	300.17
327.694	316.56
328.149	260.38
328.603	354.01
329.058	346.98
329.512	356.35
329.966	307.2
330.421	321.24
330.875	241.66
331.329	323.58
331.783	309.54
332.237	311.88
332.691	309.54
333.145	325.92
333.599	344.64
334.053	276.77
334.507	342.3
334.96	304.85
335.414	372.73
335.868	293.15
336.321	358.69
336.775	349.32
337.228	302.51
337.682	344.64
338.135	337.62
338.588	328.26
339.042	375.07
339.495	346.98
339.948	288.47
340.401	286.13
340.854	318.9
341.307	332.94
341.76	342.3
342.213	368.05
342.666	293.15
343.119	318.9
343.571	293.15
344.024	330.6
344.477	248.68
344.929	379.75
345.382	351.67
345.834	309.54
346.287	346.98
346.739	330.6
347.191	307.2
347.644	358.69
348.096	342.3
348.548	342.3
349	328.26
349.452	344.64
349.904	300.17
350.356	321.24
350.808	325.92
351.26	314.22
351.711	325.92
352.163	323.58
352.615	281.45
353.066	321.24
353.518	325.92
353.969	307.2
354.421	311.88
354.872	318.9
355.324	300.17
355.775	265.07
356.226	386.77
356.677	272.09
357.128	365.71
357.579	323.58
358.03	318.9
358.481	304.85
358.932	304.85
359.383	361.03
359.834	311.88
360.285	286.13
360.735	335.28
361.186	330.6
361.637	293.15
362.087	267.41
362.538	311.88
362.988	302.51
363.438	304.85
363.889	309.54
364.339	316.56
364.789	244
365.239	290.81
365.689	391.45
366.139	351.67
366.589	344.64
367.039	276.77
367.489	262.73
367.939	297.83
368.389	339.96
368.839	307.2
369.288	358.69
369.738	337.62
370.187	372.73
370.637	314.22
371.086	307.2
371.536	384.43
371.985	314.22
372.434	354.01
372.884	325.92
373.333	382.09
373.782	304.85
374.231	339.96
374.68	311.88
375.129	297.83
375.578	325.92
376.027	330.6
376.475	318.9
376.924	314.22
377.373	265.07
377.822	297.83
378.27	356.35
378.719	356.35
379.167	330.6
379.616	295.49
380.064	335.28
380.512	290.81
380.961	346.98
381.409	337.62
381.857	344.64
382.305	251.02
382.753	290.81
383.201	332.94
383.649	351.67
384.097	302.51
384.545	302.51
384.992	276.77
385.44	265.07
385.888	279.11
386.335	328.26
386.783	295.49
387.231	335.28
387.678	309.54
388.125	293.15
388.573	351.67
389.02	349.32
389.467	321.24
389.914	393.8
390.362	304.85
390.809	302.51
391.256	309.54
391.703	281.45
392.15	290.81
392.596	363.37
393.043	351.67
393.49	295.49
393.937	304.85
394.383	328.26
394.83	335.28
395.276	363.37
395.723	274.43
396.169	283.79
396.616	309.54
397.062	307.2
397.508	251.02
397.954	262.73
398.401	295.49
398.847	332.94
399.293	335.28
399.739	339.96
400.185	356.35
400.631	372.73
401.076	241.66
401.522	339.96
401.968	314.22
402.414	318.9
402.859	349.32
403.305	386.77
403.75	332.94
404.196	368.05
404.641	342.3
405.086	286.13
405.532	267.41
405.977	358.69
406.422	318.9
406.867	396.14
407.312	321.24
407.757	325.92
408.202	351.67
408.647	295.49
409.092	328.26
409.537	318.9
409.982	311.88
410.426	316.56
410.871	274.43
411.316	267.41
411.76	267.41
412.205	328.26
412.649	269.75
413.093	234.64
413.538	349.32
413.982	354.01
414.426	309.54
414.87	354.01
415.314	356.35
415.758	375.07
416.202	283.79
416.646	328.26
417.09	279.11
417.534	281.45
417.978	318.9
418.421	337.62
418.865	328.26
419.309	293.15
419.752	272.09
420.196	337.62
420.639	314.22
421.083	309.54
421.526	332.94
421.969	370.39
422.412	258.04
422.856	358.69
423.299	351.67
423.742	400.82
424.185	307.2
424.628	283.79
425.071	309.54
425.513	316.56
425.956	311.88
426.399	325.92
426.842	328.26
427.284	407.84
427.727	335.28
428.169	337.62
428.612	325.92
429.054	304.85
429.497	354.01
429.939	372.73
430.381	346.98
430.823	363.37
431.265	330.6
431.707	344.64
432.149	339.96
432.591	309.54
433.033	335.28
433.475	351.67
433.917	321.24
434.359	346.98
434.8	346.98
435.242	382.09
435.684	269.75
436.125	328.26
436.567	337.62
437.008	309.54
437.449	325.92
437.891	316.56
438.332	314.22
438.773	323.58
439.214	328.26
439.656	344.64
440.097	349.32
440.538	279.11
440.978	330.6
441.419	346.98
441.86	283.79
442.301	351.67
442.742	316.56
443.182	375.07
443.623	370.39
444.063	356.35
444.504	265.07
444.944	293.15
445.385	281.45
445.825	288.47
446.265	290.81
446.706	337.62
447.146	262.73
447.586	356.35
448.026	321.24
448.466	342.3
448.906	375.07
449.346	295.49
449.786	356.35
450.225	356.35
450.665	330.6
451.105	351.67
451.544	311.88
451.984	337.62
452.424	356.35
452.863	229.96
453.302	363.37
453.742	272.09
454.181	342.3
454.62	328.26
455.059	269.75
455.499	302.51
455.938	342.3
456.377	297.83
456.816	318.9
457.254	325.92
457.693	323.58
458.132	349.32
458.571	335.28
459.01	318.9
459.448	321.24
459.887	325.92
460.325	300.17
460.764	339.96
461.202	332.94
461.641	389.11
462.079	339.96
462.517	356.35
462.955	365.71
463.393	335.28
463.832	354.01
464.27	300.17
464.708	300.17
465.145	309.54
465.583	265.07
466.021	335.28
466.459	286.13
466.897	295.49
467.334	323.58
467.772	332.94
468.209	335.28
468.647	283.79
469.084	325.92
469.522	325.92
469.959	251.02
470.396	372.73
470.833	342.3
471.271	330.6
471.708	307.2
472.145	368.05
472.582	330.6
473.019	311.88
473.456	346.98
473.892	297.83
474.329	309.54
474.766	309.54
475.202	295.49
475.639	356.35
476.076	293.15
476.512	272.09
476.949	286.13
477.385	363.37
477.821	379.75
478.258	356.35
478.694	370.39
479.13	297.83
479.566	358.69
480.002	316.56
480.438	314.22
480.874	339.96
481.31	344.64
481.746	356.35
482.181	335.28
482.617	321.24
483.053	323.58
483.488	293.15
483.924	286.13
484.36	288.47
484.795	314.22
485.23	372.73
485.666	361.03
486.101	358.69
486.536	283.79
486.971	236.98
487.407	293.15
487.842	339.96
488.277	323.58
488.712	295.49
489.146	323.58
489.581	323.58
490.016	332.94
490.451	269.75
490.885	297.83
491.32	283.79
491.755	255.7
492.189	283.79
492.624	330.6
493.058	405.5
493.492	272.09
493.927	370.39
494.361	375.07
494.795	276.77
495.229	229.96
495.663	346.98
496.097	311.88
496.531	309.54
496.965	251.02
497.399	279.11
497.833	346.98
498.266	281.45
498.7	346.98
499.134	325.92
499.567	344.64
500.001	323.58
500.434	370.39
500.868	328.26
501.301	349.32
501.734	283.79
502.168	279.11
502.601	325.92
503.034	361.03
503.467	328.26
503.9	323.58
504.333	321.24
504.766	363.37
505.199	363.37
505.632	346.98
506.064	339.96
506.497	328.26
506.93	339.96
507.362	297.83
507.795	309.54
508.227	337.62
508.66	318.9
509.092	337.62
509.524	358.69
509.956	351.67
510.389	328.26
510.821	281.45
511.253	393.8
511.685	253.36
512.117	339.96
512.549	318.9
512.981	272.09
513.412	379.75
513.844	337.62
514.276	356.35
514.707	314.22
515.139	389.11
515.571	405.5
516.002	337.62
516.433	323.58
516.865	293.15
517.296	251.02
517.727	379.75
518.159	346.98
518.59	344.64
519.021	351.67
519.452	349.32
519.883	335.28
520.314	332.94
520.744	330.6
521.175	288.47
521.606	239.32
522.037	354.01
522.467	297.83
522.898	346.98
523.328	354.01
523.759	372.73
524.189	316.56
524.62	321.24
525.05	295.49
525.48	358.69
525.91	288.47
526.341	325.92
526.771	328.26
527.201	279.11
527.631	332.94
528.061	363.37
528.49	335.28
528.92	332.94
529.35	344.64
529.78	335.28
530.209	316.56
530.639	335.28
531.068	391.45
531.498	302.51
531.927	335.28
532.357	265.07
532.786	344.64
533.215	297.83
533.644	346.98
534.074	283.79
534.503	332.94
534.932	293.15
535.361	321.24
535.79	398.48
536.218	304.85
536.647	307.2
537.076	286.13
537.505	337.62
537.933	335.28
538.362	316.56
538.79	279.11
539.219	316.56
539.647	351.67
540.076	307.2
540.504	316.56
540.932	265.07
541.36	391.45
541.788	265.07
542.217	302.51
542.645	354.01
543.073	342.3
543.5	330.6
543.928	323.58
544.356	295.49
544.784	363.37
545.211	260.38
545.639	356.35
546.067	311.88
546.494	260.38
546.922	377.41
547.349	363.37
547.776	276.77
548.204	337.62
548.631	325.92
549.058	342.3
549.485	335.28
549.912	325.92
550.339	337.62
550.766	325.92
551.193	293.15
551.62	251.02
552.047	316.56
552.474	272.09
552.9	269.75
553.327	351.67
553.754	372.73
554.18	302.51
554.607	351.67
555.033	255.7
555.459	293.15
555.886	344.64
556.312	323.58
556.738	321.24
557.164	323.58
557.59	304.85
558.016	335.28
558.442	297.83
558.868	309.54
559.294	335.28
559.72	386.77
560.145	344.64
560.571	377.41
560.997	309.54
561.422	297.83
561.848	342.3
562.273	335.28
562.699	229.96
563.124	337.62
563.549	330.6
563.974	344.64
564.4	311.88
564.825	400.82
565.25	361.03
565.675	337.62
566.1	363.37
566.525	323.58
566.95	354.01
567.374	302.51
567.799	361.03
568.224	330.6
568.648	325.92
569.073	283.79
569.497	262.73
569.922	339.96
570.346	314.22
570.771	344.64
571.195	318.9
571.619	290.81
572.043	304.85
572.467	283.79
572.891	293.15
573.315	267.41
573.739	361.03
574.163	321.24
574.587	286.13
575.011	314.22
575.435	335.28
575.858	363.37
576.282	384.43
576.705	330.6
577.129	325.92
577.552	339.96
577.976	368.05
578.399	337.62
578.822	323.58
579.245	283.79
579.669	300.17
580.092	300.17
580.515	295.49
580.938	311.88
581.361	304.85
581.784	342.3
582.206	351.67
582.629	316.56
583.052	300.17
583.474	316.56
583.897	410.18
584.32	241.66
584.742	339.96
585.165	258.04
585.587	358.69
586.009	302.51
586.431	307.2
586.854	370.39
587.276	382.09
587.698	281.45
588.12	300.17
588.542	382.09
588.964	372.73
589.386	311.88
589.807	272.09
590.229	332.94
590.651	311.88
591.073	307.2
591.494	375.07
591.916	314.22
592.337	330.6
592.759	286.13
593.18	325.92
593.601	272.09
594.022	311.88
594.444	304.85
594.865	293.15
595.286	363.37
595.707	323.58
596.128	328.26
596.549	283.79
596.97	318.9
597.39	405.5
597.811	307.2
598.232	337.62
598.652	323.58
599.073	318.9
599.494	267.41
599.914	288.47
600.334	346.98
600.755	358.69
601.175	384.43
601.595	330.6
602.015	274.43
602.436	332.94
602.856	426.56
603.276	281.45
603.696	314.22
604.115	351.67
604.535	302.51
604.955	297.83
605.375	304.85
605.794	405.5
606.214	265.07
606.634	314.22
607.053	321.24
607.473	325.92
607.892	356.35
608.311	337.62
608.731	377.41
609.15	276.77
609.569	363.37
609.988	272.09
610.407	309.54
610.826	304.85
611.245	297.83
611.664	349.32
612.083	309.54
612.501	323.58
612.92	251.02
613.339	325.92
613.757	314.22
614.176	304.85
614.594	307.2
615.013	297.83
615.431	283.79
615.85	354.01
616.268	363.37
616.686	339.96
617.104	311.88
617.522	276.77
617.94	339.96
618.358	293.15
618.776	356.35
619.194	361.03
619.612	349.32
620.03	314.22
620.447	281.45
620.865	286.13
621.282	330.6
621.7	304.85
622.117	302.51
622.535	328.26
622.952	325.92
623.369	276.77
623.787	307.2
624.204	332.94
624.621	365.71
625.038	316.56
625.455	325.92
625.872	325.92
626.289	255.7
626.706	361.03
627.123	269.75
627.539	307.2
627.956	302.51
628.373	300.17
628.789	269.75
629.206	283.79
629.622	302.51
630.038	346.98
630.455	309.54
630.871	358.69
631.287	290.81
631.703	314.22
632.12	258.04
632.536	262.73
632.952	309.54
633.368	304.85
633.783	302.51
634.199	297.83
634.615	351.67
635.031	393.8
635.446	274.43
635.862	314.22
636.277	344.64
636.693	349.32
637.108	300.17
637.524	309.54
637.939	335.28
638.354	363.37
638.77	361.03
639.185	337.62
639.6	314.22
640.015	344.64
640.43	354.01
640.845	311.88
641.259	318.9
641.674	297.83
642.089	386.77
642.504	307.2
642.918	323.58
643.333	403.16
643.747	325.92
644.162	314.22
644.576	377.41
644.991	316.56
645.405	300.17
645.819	288.47
646.233	330.6
646.647	356.35
647.061	330.6
647.475	328.26
647.889	330.6
648.303	300.17
648.717	323.58
649.131	351.67
649.545	309.54
649.958	290.81
650.372	356.35
650.785	344.64
651.199	335.28
651.612	328.26
652.026	379.75
652.439	295.49
652.852	316.56
653.266	288.47
653.679	323.58
654.092	297.83
654.505	265.07
654.918	302.51
655.331	311.88
655.744	307.2
656.156	321.24
656.569	370.39
656.982	389.11
657.394	286.13
657.807	349.32
658.22	309.54
658.632	260.38
659.044	321.24
659.457	321.24
659.869	337.62
660.281	290.81
660.693	260.38
661.106	286.13
661.518	370.39
661.93	318.9
662.342	267.41
662.754	363.37
663.165	269.75
663.577	283.79
663.989	318.9
664.401	311.88
664.812	274.43
665.224	363.37
665.635	356.35
666.047	323.58
666.458	365.71
666.869	337.62
667.281	283.79
667.692	342.3
668.103	297.83
668.514	379.75
668.925	318.9
669.336	304.85
669.747	311.88
670.158	311.88
670.569	377.41
670.979	300.17
671.39	354.01
671.801	342.3
672.211	309.54
672.622	281.45
673.032	328.26
673.443	274.43
673.853	279.11
674.263	337.62
674.674	332.94
675.084	262.73
675.494	290.81
675.904	288.47
676.314	300.17
676.724	302.51
677.134	309.54
677.544	337.62
677.953	339.96
678.363	351.67
678.773	375.07
679.182	379.75
679.592	281.45
680.001	342.3
680.411	368.05
680.82	281.45
681.23	335.28
681.639	328.26
682.048	302.51
682.457	342.3
682.866	300.17
683.275	325.92
683.684	272.09
684.093	300.17
684.502	307.2
684.911	332.94
685.32	325.92
685.728	417.2
686.137	253.36
686.546	288.47
686.954	391.45
687.363	265.07
687.771	372.73
688.179	375.07
688.588	377.41
688.996	330.6
689.404	337.62
689.812	354.01
690.22	314.22
690.628	304.85
691.036	295.49
691.444	314.22
691.852	269.75
692.26	368.05
692.667	358.69
693.075	297.83
693.483	344.64
693.89	227.62
694.298	393.8
694.705	323.58
695.112	293.15
695.52	325.92
695.927	351.67
696.334	295.49
696.741	316.56
697.148	244
697.555	325.92
697.962	339.96
698.369	325.92
698.776	358.69
699.183	290.81
699.59	339.96
699.996	286.13
700.403	354.01
700.81	323.58
701.216	375.07
701.623	290.81
702.029	372.73
702.435	349.32
702.842	269.75
703.248	281.45
703.654	276.77
704.06	251.02
704.466	300.17
704.872	307.2
705.278	290.81
705.684	316.56
706.09	293.15
706.496	370.39
706.901	349.32
707.307	272.09
707.712	246.34
708.118	295.49
708.523	302.51
708.929	328.26
709.334	253.36
709.74	346.98
710.145	358.69
710.55	403.16
710.955	332.94
711.36	361.03
711.765	346.98
712.17	337.62
712.575	244
712.98	822.11
713.385	363.37
713.789	314.22
714.194	328.26
714.599	346.98
715.003	293.15
715.408	321.24
715.812	311.88
716.217	314.22
716.621	356.35
717.025	356.35
717.429	295.49
717.833	258.04
718.238	311.88
718.642	417.2
719.046	323.58
719.449	354.01
719.853	339.96
720.257	328.26
720.661	354.01
721.065	349.32
721.468	302.51
721.872	328.26
722.275	272.09
722.679	302.51
723.082	281.45
723.485	262.73
723.889	300.17
724.292	314.22
724.695	267.41
725.098	300.17
725.501	370.39
725.904	361.03
726.307	297.83
726.71	339.96
727.113	295.49
727.516	279.11
727.918	354.01
728.321	293.15
728.724	328.26
729.126	321.24
729.529	344.64
729.931	335.28
730.333	314.22
730.736	318.9
731.138	314.22
731.54	297.83
731.942	335.28
732.344	372.73
732.746	314.22
733.148	368.05
733.55	330.6
733.952	344.64
734.354	344.64
734.756	363.37
735.157	300.17
735.559	328.26
735.96	260.38
736.362	363.37
736.763	358.69
737.165	309.54
737.566	300.17
737.967	293.15
738.368	330.6
738.77	346.98
739.171	290.81
739.572	309.54
739.973	286.13
740.374	351.67
740.774	309.54
741.175	276.77
741.576	389.11
741.977	330.6
742.377	283.79
742.778	407.84
743.178	339.96
743.579	293.15
743.979	281.45
744.379	318.9
744.78	269.75
745.18	318.9
745.58	332.94
745.98	272.09
746.38	346.98
746.78	307.2
747.18	332.94
747.58	344.64
747.98	323.58
748.38	361.03
748.779	311.88
749.179	349.32
749.578	288.47
749.978	297.83
750.377	325.92
750.777	304.85
751.176	356.35
751.575	260.38
751.975	344.64
752.374	307.2
752.773	293.15
753.172	286.13
753.571	283.79
753.97	307.2
754.369	339.96
754.768	300.17
755.166	260.38
755.565	370.39
755.964	405.5
756.362	356.35
756.761	332.94
757.159	297.83
757.558	330.6
757.956	328.26
758.354	286.13
758.753	265.07
759.151	358.69
759.549	332.94
759.947	290.81
760.345	325.92
760.743	267.41
761.141	318.9
761.539	293.15
761.936	332.94
762.334	358.69
762.732	358.69
763.129	328.26
763.527	314.22
763.924	297.83
764.322	300.17
764.719	276.77
765.117	300.17
765.514	269.75
765.911	274.43
766.308	323.58
766.705	311.88
767.102	248.68
767.499	307.2
767.896	323.58
768.293	269.75
768.69	323.58
769.086	321.24
769.483	316.56
769.88	325.92
770.276	339.96
770.673	297.83
771.069	351.67
771.466	269.75
771.862	302.51
772.258	328.26
772.654	302.51
773.05	335.28
773.447	307.2
773.843	309.54
774.239	365.71
774.634	346.98
775.03	302.51
775.426	330.6
775.822	281.45
776.218	304.85
776.613	309.54
777.009	323.58
777.404	323.58
777.8	309.54
778.195	297.83
778.59	332.94
778.986	363.37
779.381	316.56
779.776	286.13
780.171	311.88
780.566	339.96
780.961	330.6
781.356	311.88
781.751	302.51
782.146	328.26
782.54	258.04
782.935	337.62
783.33	300.17
783.724	295.49
784.119	407.84
784.513	344.64
784.908	328.26
785.302	286.13
785.696	358.69
786.09	354.01
786.485	297.83
786.879	314.22
787.273	269.75
787.667	309.54
788.061	316.56
788.454	297.83
788.848	293.15
789.242	386.77
789.636	290.81
790.029	297.83
790.423	344.64
790.816	295.49
791.21	318.9
791.603	295.49
791.997	382.09
792.39	307.2
792.783	283.79
793.176	328.26
793.569	358.69
793.962	316.56
794.355	358.69
794.748	281.45
795.141	370.39
795.534	337.62
795.927	269.75
796.319	281.45
796.712	295.49
797.105	307.2
797.497	314.22
797.89	321.24
798.282	328.26
798.674	265.07
799.067	246.34
799.459	349.32
799.851	309.54
800.243	332.94
800.635	332.94
801.027	281.45
801.419	318.9
801.811	337.62
802.203	368.05
802.594	321.24
802.986	314.22
803.378	314.22
803.769	342.3
804.161	295.49
804.552	290.81
804.944	283.79
805.335	311.88
805.726	325.92
806.118	321.24
806.509	309.54
806.9	365.71
807.291	337.62
807.682	297.83
808.073	351.67
808.464	314.22
808.855	309.54
809.245	300.17
809.636	297.83
810.027	311.88
810.417	368.05
810.808	342.3
811.198	276.77
811.589	396.14
811.979	300.17
812.369	328.26
812.759	354.01
813.15	311.88
813.54	328.26
813.93	318.9
814.32	337.62
814.71	382.09
815.1	323.58
815.489	300.17
815.879	351.67
816.269	318.9
816.658	302.51
817.048	349.32
817.438	253.36
817.827	330.6
818.216	304.85
818.606	248.68
818.995	323.58
819.384	304.85
819.773	346.98
820.163	232.3
820.552	293.15
820.941	265.07
821.33	283.79
821.718	295.49
822.107	307.2
822.496	337.62
822.885	323.58
823.273	328.26
823.662	302.51
824.05	325.92
824.439	229.96
824.827	293.15
825.216	304.85
825.604	300.17
825.992	316.56
826.38	288.47
826.768	328.26
827.156	293.15
827.544	375.07
827.932	307.2
828.32	321.24
828.708	323.58
829.096	318.9
829.483	361.03
829.871	330.6
830.259	337.62
830.646	302.51
831.034	295.49
831.421	354.01
831.808	346.98
832.196	332.94
832.583	286.13
832.97	293.15
833.357	344.64
833.744	286.13
834.131	330.6
834.518	302.51
834.905	332.94
835.292	344.64
835.678	330.6
836.065	337.62
836.452	244
836.838	297.83
837.225	246.34
837.611	281.45
837.998	300.17
838.384	281.45
838.77	307.2
839.157	375.07
839.543	290.81
839.929	318.9
840.315	323.58
840.701	260.38
841.087	304.85
841.473	304.85
841.858	304.85
842.244	288.47
842.63	260.38
843.015	265.07
843.401	372.73
843.787	274.43
844.172	344.64
844.557	321.24
844.943	290.81
845.328	246.34
845.713	295.49
846.098	307.2
846.483	337.62
846.868	248.68
847.253	281.45
847.638	335.28
848.023	354.01
848.408	281.45
848.793	302.51
849.177	281.45
849.562	283.79
849.947	251.02
850.331	332.94
850.715	351.67
851.1	332.94
851.484	309.54
851.868	316.56
852.253	302.51
852.637	330.6
853.021	321.24
853.405	323.58
853.789	311.88
854.173	281.45
854.557	328.26
854.94	258.04
855.324	269.75
855.708	300.17
856.091	393.8
856.475	248.68
856.858	363.37
857.242	311.88
857.625	318.9
858.009	351.67
858.392	358.69
858.775	283.79
859.158	365.71
859.541	267.41
859.924	274.43
860.307	361.03
860.69	290.81
861.073	304.85
861.456	311.88
861.838	384.43
862.221	325.92
862.604	342.3
862.986	311.88
863.369	346.98
863.751	337.62
864.133	410.18
864.516	302.51
864.898	351.67
865.28	262.73
865.662	351.67
866.044	339.96
866.426	286.13
866.808	307.2
867.19	342.3
867.572	293.15
867.954	365.71
868.336	354.01
868.717	311.88
869.099	358.69
869.48	290.81
869.862	337.62
870.243	288.47
870.625	286.13
871.006	290.81
871.387	314.22
871.768	337.62
872.149	396.14
872.53	274.43
872.911	323.58
873.292	311.88
873.673	346.98
874.054	318.9
874.435	328.26
874.815	283.79
875.196	323.58
875.577	356.35
875.957	328.26
876.338	281.45
876.718	342.3
877.098	344.64
877.479	276.77
877.859	375.07
878.239	323.58
878.619	386.77
878.999	339.96
879.379	335.28
879.759	332.94
880.139	293.15
880.519	286.13
880.898	328.26
881.278	330.6
881.658	269.75
882.037	304.85
882.417	302.51
882.796	323.58
883.176	286.13
883.555	321.24
883.934	307.2
884.313	323.58
884.693	311.88
885.072	330.6
885.451	300.17
885.83	321.24
886.209	321.24
886.587	351.67
886.966	346.98
887.345	295.49
887.724	314.22
888.102	309.54
888.481	325.92
888.859	351.67
889.238	246.34
889.616	288.47
889.994	342.3
890.373	339.96
890.751	316.56
891.129	361.03
891.507	279.11
891.885	297.83
892.263	332.94
892.641	307.2
893.019	335.28
893.396	321.24
893.774	330.6
894.152	279.11
894.529	372.73
894.907	283.79
895.284	286.13
895.662	328.26
896.039	269.75
896.416	316.56
896.794	323.58
897.171	269.75
897.548	304.85
897.925	344.64
898.302	382.09
898.679	316.56
899.056	316.56
899.433	325.92
899.809	293.15
900.186	288.47
900.563	335.28
900.939	279.11
901.316	279.11
901.692	346.98
902.069	255.7
902.445	335.28
902.821	330.6
903.197	307.2
903.574	286.13
903.95	309.54
904.326	265.07
904.702	295.49
905.078	311.88
905.454	363.37
905.829	295.49
906.205	361.03
906.581	269.75
906.956	435.92
907.332	335.28
907.707	372.73
908.083	349.32
908.458	325.92
908.833	344.64
909.209	358.69
909.584	279.11
909.959	272.09
910.334	293.15
910.709	297.83
911.084	342.3
911.459	330.6
911.834	304.85
912.209	323.58
912.583	302.51
912.958	363.37
913.333	332.94
913.707	255.7
914.082	307.2
914.456	328.26
914.83	316.56
915.205	288.47
915.579	332.94
915.953	307.2
916.327	384.43
916.701	288.47
917.075	400.82
917.449	335.28
917.823	279.11
918.197	393.8
918.571	307.2
918.944	335.28
919.318	358.69
919.692	325.92
920.065	295.49
920.438	354.01
920.812	354.01
921.185	304.85
921.558	307.2
921.932	307.2
922.305	297.83
922.678	330.6
923.051	283.79
923.424	307.2
923.797	293.15
924.17	288.47
924.542	328.26
924.915	314.22
925.288	354.01
925.661	318.9
926.033	316.56
926.406	318.9
926.778	260.38
927.15	288.47
927.523	267.41
927.895	288.47
928.267	295.49
928.639	274.43
929.011	297.83
929.383	325.92
929.755	316.56
930.127	260.38
930.499	286.13
930.871	293.15
931.242	293.15
931.614	269.75
931.986	269.75
932.357	293.15
932.729	337.62
933.1	365.71
933.471	316.56
933.843	382.09
934.214	332.94
934.585	356.35
934.956	300.17
935.327	344.64
935.698	349.32
936.069	288.47
936.44	314.22
936.811	318.9
937.182	335.28
937.552	295.49
937.923	330.6
938.293	241.66
938.664	295.49
939.034	265.07
939.405	265.07
939.775	295.49
940.145	330.6
940.516	354.01
940.886	290.81
941.256	244
941.626	321.24
941.996	365.71
942.366	311.88
942.735	318.9
943.105	309.54
943.475	314.22
943.845	295.49
944.214	318.9
944.584	323.58
944.953	314.22
945.323	316.56
945.692	222.94
946.061	370.39
946.43	279.11
946.8	316.56
947.169	288.47
947.538	283.79
947.907	316.56
948.276	354.01
948.645	302.51
949.013	321.24
949.382	295.49
949.751	302.51
950.119	400.82
950.488	342.3
950.857	314.22
951.225	316.56
951.593	300.17
951.962	349.32
952.33	316.56
952.698	307.2
953.066	297.83
953.434	346.98
953.802	370.39
954.17	307.2
954.538	325.92
954.906	316.56
955.274	361.03
955.642	311.88
956.009	307.2
956.377	344.64
956.744	335.28
957.112	330.6
957.479	361.03
957.847	288.47
958.214	339.96
958.581	251.02
958.948	337.62
959.315	307.2
959.683	265.07
960.05	356.35
960.416	279.11
960.783	281.45
961.15	293.15
961.517	290.81
961.884	342.3
962.25	354.01
962.617	300.17
962.983	332.94
963.35	332.94
963.716	311.88
964.082	372.73
964.449	295.49
964.815	265.07
965.181	265.07
965.547	286.13
965.913	307.2
966.279	325.92
966.645	286.13
967.011	272.09
967.377	330.6
967.742	311.88
968.108	279.11
968.474	344.64
968.839	229.96
969.205	295.49
969.57	281.45
969.935	330.6
970.301	265.07
970.666	260.38
971.031	279.11
971.396	323.58
971.761	304.85
972.126	323.58
972.491	288.47
972.856	325.92
973.221	377.41
973.586	363.37
973.95	302.51
974.315	236.98
974.679	363.37
975.044	300.17
975.408	302.51
975.773	262.73
976.137	272.09
976.501	302.51
976.866	244
977.23	332.94
977.594	356.35
977.958	337.62
978.322	328.26
978.686	356.35
979.049	405.5
979.413	346.98
979.777	323.58
980.141	314.22
980.504	332.94
980.868	361.03
981.231	365.71
981.595	354.01
981.958	339.96
982.321	269.75
982.684	316.56
983.048	304.85
983.411	382.09
983.774	309.54
984.137	316.56
984.5	307.2
984.862	297.83
985.225	293.15
985.588	361.03
985.951	307.2
986.313	321.24
986.676	344.64
987.038	248.68
987.401	335.28
987.763	265.07
988.125	290.81
988.488	283.79
988.85	307.2
989.212	265.07
989.574	267.41
989.936	318.9
990.298	300.17
990.66	279.11
991.022	300.17
991.383	297.83
991.745	318.9
992.107	398.48
992.468	344.64
992.83	393.8
993.191	386.77
993.553	351.67
993.914	297.83
994.275	222.94
994.637	304.85
994.998	332.94
995.359	274.43
995.72	311.88
996.081	349.32
996.442	265.07
996.803	321.24
997.163	295.49
997.524	290.81
997.885	309.54
998.245	304.85
998.606	370.39
998.966	279.11
999.327	393.8
999.687	328.26
1000.047	339.96
1000.408	344.64
1000.768	316.56
1001.128	281.45
1001.488	314.22
1001.848	225.28
1002.208	265.07
1002.568	269.75
1002.927	286.13
1003.287	311.88
1003.647	318.9
1004.007	318.9
1004.366	279.11
1004.726	316.56
1005.085	244
1005.444	332.94
1005.804	323.58
1006.163	335.28
1006.522	302.51
1006.881	337.62
1007.24	274.43
1007.599	265.07
1007.958	339.96
1008.317	272.09
1008.676	328.26
1009.035	351.67
1009.393	332.94
1009.752	337.62
1010.111	314.22
1010.469	295.49
1010.828	321.24
1011.186	325.92
1011.544	328.26
1011.903	368.05
1012.261	349.32
1012.619	318.9
1012.977	260.38
1013.335	286.13
1013.693	295.49
1014.051	281.45
1014.409	356.35
1014.767	330.6
1015.124	255.7
1015.482	335.28
1015.84	229.96
1016.197	220.6
1016.555	304.85
1016.912	300.17
1017.269	311.88
1017.627	297.83
1017.984	297.83
1018.341	325.92
1018.698	267.41
1019.055	295.49
1019.412	302.51
1019.769	260.38
1020.126	283.79
1020.483	279.11
1020.84	311.88
1021.196	337.62
1021.553	358.69
1021.909	328.26
1022.266	311.88
1022.622	290.81
1022.979	323.58
1023.335	384.43
1023.691	337.62
1024.047	365.71
1024.404	276.77
1024.76	283.79
1025.116	281.45
1025.472	295.49
1025.827	346.98
1026.183	321.24
1026.539	304.85
1026.895	267.41
1027.25	330.6
1027.606	323.58
1027.961	346.98
1028.317	283.79
1028.672	283.79
1029.028	295.49
1029.383	321.24
1029.738	323.58
1030.093	276.77
1030.448	351.67
1030.803	265.07
1031.158	295.49
1031.513	316.56
1031.868	339.96
1032.223	330.6
1032.577	276.77
1032.932	307.2
1033.287	344.64
1033.641	342.3
1033.996	304.85
1034.35	307.2
1034.704	283.79
1035.059	344.64
1035.413	269.75
1035.767	269.75
1036.121	269.75
