Data from Al_FLMS009871__1131__16-34-12-797.txt Node

Date: Fri Mar 08 16:34:12 CST 2024
User: pe5414po
Spectrometer: FLMS00987
Trigger mode: 0
Integration Time (sec): 1.000000E-1
Scans to average: 1
Electric dark correction enabled: true
Nonlinearity correction enabled: false
Boxcar width: 0
XAxis mode: Wavelengths
Number of Pixels in Spectrum: 2048
>>>>>Begin Spectral Data<<<<<
188.938	-45.49
189.409	-45.49
189.879	-45.49
190.349	-127.41
190.819	-162.52
191.29	-160.18
191.76	-82.94
192.23	-132.09
192.7	-94.65
193.17	-26.77
193.64	-50.18
194.109	17.7
194.579	-64.22
195.049	6
195.519	50.47
195.988	24.72
196.458	24.72
196.927	92.6
197.397	146.43
197.866	101.96
198.336	146.43
198.805	188.56
199.274	169.84
199.744	193.24
200.213	221.33
200.682	151.11
201.151	228.35
201.62	251.75
202.089	188.56
202.558	207.28
203.027	265.8
203.495	265.8
203.964	272.82
204.433	190.9
204.902	293.88
205.37	312.61
205.839	336.01
206.307	289.2
206.776	265.8
207.244	317.29
207.712	303.25
208.181	310.27
208.649	319.63
209.117	317.29
209.585	324.31
210.053	293.88
210.521	270.48
210.989	293.88
211.457	343.03
211.925	347.72
212.393	265.8
212.861	291.54
213.328	298.56
213.796	291.54
214.264	275.16
214.731	284.52
215.199	256.43
215.666	244.73
216.133	326.65
216.601	279.84
217.068	340.69
217.535	303.25
218.003	307.93
218.47	254.09
218.937	305.59
219.404	289.2
219.871	233.03
220.338	319.63
220.805	209.62
221.271	249.41
221.738	221.33
222.205	221.33
222.671	218.99
223.138	223.67
223.605	249.41
224.071	254.09
224.538	282.18
225.004	233.03
225.47	254.09
225.937	263.46
226.403	307.93
226.869	326.65
227.335	282.18
227.801	279.84
228.267	275.16
228.733	254.09
229.199	249.41
229.665	265.8
230.131	249.41
230.597	317.29
231.062	289.2
231.528	244.73
231.994	251.75
232.459	286.86
232.925	324.31
233.39	272.82
233.856	284.52
234.321	207.28
234.786	230.69
235.252	254.09
235.717	265.8
236.182	284.52
236.647	312.61
237.112	333.67
237.577	284.52
238.042	247.07
238.507	298.56
238.972	303.25
239.436	300.91
239.901	293.88
240.366	261.12
240.83	235.37
241.295	317.29
241.76	298.56
242.224	265.8
242.688	272.82
243.153	223.67
243.617	277.5
244.081	296.22
244.545	261.12
245.01	279.84
245.474	310.27
245.938	394.53
246.402	286.86
246.866	244.73
247.33	296.22
247.793	340.69
248.257	293.88
248.721	310.27
249.185	172.18
249.648	300.91
250.112	336.01
250.575	298.56
251.039	284.52
251.502	326.65
251.965	293.88
252.429	272.82
252.892	268.14
253.355	312.61
253.818	314.95
254.281	242.39
254.744	312.61
255.207	282.18
255.67	242.39
256.133	258.78
256.596	216.65
257.059	340.69
257.522	354.74
257.984	286.86
258.447	254.09
258.909	270.48
259.372	247.07
259.834	328.99
260.297	286.86
260.759	270.48
261.221	282.18
261.684	275.16
262.146	307.93
262.608	272.82
263.07	347.72
263.532	284.52
263.994	242.39
264.456	235.37
264.918	265.8
265.38	279.84
265.842	256.43
266.303	296.22
266.765	218.99
267.227	233.03
267.688	347.72
268.15	336.01
268.611	319.63
269.072	321.97
269.534	380.48
269.995	312.61
270.456	328.99
270.918	317.29
271.379	321.97
271.84	305.59
272.301	359.42
272.762	237.71
273.223	347.72
273.684	279.84
274.144	314.95
274.605	387.5
275.066	303.25
275.527	256.43
275.987	338.35
276.448	268.14
276.908	307.93
277.369	279.84
277.829	307.93
278.289	233.03
278.75	286.86
279.21	347.72
279.67	300.91
280.13	263.46
280.59	282.18
281.05	282.18
281.51	312.61
281.97	345.38
282.43	364.1
282.89	350.06
283.35	223.67
283.809	279.84
284.269	258.78
284.729	319.63
285.188	289.2
285.648	314.95
286.107	310.27
286.567	277.5
287.026	317.29
287.485	296.22
287.944	300.91
288.404	321.97
288.863	282.18
289.322	296.22
289.781	314.95
290.24	307.93
290.699	293.88
291.158	359.42
291.616	300.91
292.075	268.14
292.534	305.59
292.992	247.07
293.451	312.61
293.91	340.69
294.368	277.5
294.827	296.22
295.285	284.52
295.743	284.52
296.202	265.8
296.66	347.72
297.118	291.54
297.576	298.56
298.034	326.65
298.492	279.84
298.95	270.48
299.408	336.01
299.866	333.67
300.324	314.95
300.781	296.22
301.239	380.48
301.697	333.67
302.154	286.86
302.612	296.22
303.069	254.09
303.527	343.03
303.984	314.95
304.441	305.59
304.899	314.95
305.356	293.88
305.813	296.22
306.27	296.22
306.727	338.35
307.184	300.91
307.641	242.39
308.098	296.22
308.555	249.41
309.012	293.88
309.468	284.52
309.925	282.18
310.382	338.35
310.838	328.99
311.295	284.52
311.751	321.97
312.208	247.07
312.664	265.8
313.12	364.1
313.577	303.25
314.033	331.33
314.489	298.56
314.945	321.97
315.401	211.96
315.857	331.33
316.313	303.25
316.769	282.18
317.225	326.65
317.681	319.63
318.136	317.29
318.592	298.56
319.048	279.84
319.503	305.59
319.959	279.84
320.414	282.18
320.869	291.54
321.325	347.72
321.78	338.35
322.235	282.18
322.691	293.88
323.146	336.01
323.601	303.25
324.056	303.25
324.511	284.52
324.966	284.52
325.421	324.31
325.875	317.29
326.33	321.97
326.785	289.2
327.24	317.29
327.694	347.72
328.149	277.5
328.603	293.88
329.058	314.95
329.512	347.72
329.966	303.25
330.421	258.78
330.875	261.12
331.329	277.5
331.783	331.33
332.237	265.8
332.691	328.99
333.145	249.41
333.599	272.82
334.053	293.88
334.507	392.19
334.96	312.61
335.414	361.76
335.868	242.39
336.321	331.33
336.775	310.27
337.228	293.88
337.682	375.8
338.135	319.63
338.588	233.03
339.042	279.84
339.495	326.65
339.948	321.97
340.401	312.61
340.854	305.59
341.307	352.4
341.76	333.67
342.213	345.38
342.666	364.1
343.119	286.86
343.571	263.46
344.024	328.99
344.477	254.09
344.929	319.63
345.382	389.85
345.834	256.43
346.287	275.16
346.739	289.2
347.191	326.65
347.644	357.08
348.096	303.25
348.548	298.56
349	314.95
349.452	277.5
349.904	279.84
350.356	307.93
350.808	310.27
351.26	268.14
351.711	361.76
352.163	272.82
352.615	272.82
353.066	350.06
353.518	352.4
353.969	352.4
354.421	364.1
354.872	293.88
355.324	307.93
355.775	272.82
356.226	338.35
356.677	291.54
357.128	382.82
357.579	328.99
358.03	326.65
358.481	275.16
358.932	289.2
359.383	333.67
359.834	303.25
360.285	310.27
360.735	317.29
361.186	328.99
361.637	282.18
362.087	293.88
362.538	336.01
362.988	240.05
363.438	270.48
363.889	307.93
364.339	326.65
364.789	240.05
365.239	310.27
365.689	371.12
366.139	300.91
366.589	314.95
367.039	314.95
367.489	350.06
367.939	352.4
368.389	289.2
368.839	277.5
369.288	319.63
369.738	303.25
370.187	286.86
370.637	328.99
371.086	291.54
371.536	321.97
371.985	298.56
372.434	249.41
372.884	336.01
373.333	326.65
373.782	321.97
374.231	328.99
374.68	254.09
375.129	352.4
375.578	310.27
376.027	326.65
376.475	354.74
376.924	256.43
377.373	328.99
377.822	303.25
378.27	347.72
378.719	286.86
379.167	298.56
379.616	364.1
380.064	265.8
380.512	331.33
380.961	263.46
381.409	333.67
381.857	305.59
382.305	298.56
382.753	336.01
383.201	378.14
383.649	314.95
384.097	343.03
384.545	305.59
384.992	380.48
385.44	350.06
385.888	305.59
386.335	338.35
386.783	338.35
387.231	305.59
387.678	317.29
388.125	338.35
388.573	345.38
389.02	307.93
389.467	286.86
389.914	258.78
390.362	261.12
390.809	324.31
391.256	305.59
391.703	286.86
392.15	305.59
392.596	328.99
393.043	314.95
393.49	300.91
393.937	282.18
394.383	305.59
394.83	303.25
395.276	343.03
395.723	265.8
396.169	336.01
396.616	254.09
397.062	312.61
397.508	221.33
397.954	340.69
398.401	291.54
398.847	312.61
399.293	279.84
399.739	347.72
400.185	284.52
400.631	340.69
401.076	284.52
401.522	385.16
401.968	293.88
402.414	317.29
402.859	247.07
403.305	298.56
403.75	359.42
404.196	359.42
404.641	291.54
405.086	307.93
405.532	361.76
405.977	317.29
406.422	326.65
406.867	378.14
407.312	347.72
407.757	357.08
408.202	272.82
408.647	324.31
409.092	336.01
409.537	331.33
409.982	321.97
410.426	298.56
410.871	328.99
411.316	328.99
411.76	331.33
412.205	289.2
412.649	347.72
413.093	336.01
413.538	279.84
413.982	256.43
414.426	314.95
414.87	336.01
415.314	352.4
415.758	296.22
416.202	350.06
416.646	268.14
417.09	305.59
417.534	296.22
417.978	347.72
418.421	401.55
418.865	333.67
419.309	366.44
419.752	249.41
420.196	265.8
420.639	366.44
421.083	282.18
421.526	261.12
421.969	324.31
422.412	303.25
422.856	307.93
423.299	340.69
423.742	338.35
424.185	375.8
424.628	275.16
425.071	333.67
425.513	265.8
425.956	326.65
426.399	312.61
426.842	321.97
427.284	361.76
427.727	307.93
428.169	338.35
428.612	275.16
429.054	275.16
429.497	319.63
429.939	343.03
430.381	275.16
430.823	251.75
431.265	392.19
431.707	373.46
432.149	310.27
432.591	340.69
433.033	343.03
433.475	338.35
433.917	324.31
434.359	350.06
434.8	317.29
435.242	300.91
435.684	326.65
436.125	314.95
436.567	303.25
437.008	328.99
437.449	326.65
437.891	300.91
438.332	371.12
438.773	289.2
439.214	321.97
439.656	314.95
440.097	350.06
440.538	333.67
440.978	366.44
441.419	270.48
441.86	305.59
442.301	233.03
442.742	328.99
443.182	350.06
443.623	399.21
444.063	352.4
444.504	352.4
444.944	326.65
445.385	261.12
445.825	272.82
446.265	319.63
446.706	268.14
447.146	338.35
447.586	319.63
448.026	279.84
448.466	293.88
448.906	291.54
449.346	293.88
449.786	251.75
450.225	314.95
450.665	307.93
451.105	326.65
451.544	312.61
451.984	389.85
452.424	333.67
452.863	324.31
453.302	357.08
453.742	326.65
454.181	305.59
454.62	319.63
455.059	338.35
455.499	326.65
455.938	314.95
456.377	347.72
456.816	284.52
457.254	312.61
457.693	310.27
458.132	282.18
458.571	378.14
459.01	345.38
459.448	298.56
459.887	373.46
460.325	382.82
460.764	303.25
461.202	296.22
461.641	328.99
462.079	310.27
462.517	361.76
462.955	279.84
463.393	328.99
463.832	368.78
464.27	303.25
464.708	324.31
465.145	282.18
465.583	326.65
466.021	387.5
466.459	317.29
466.897	305.59
467.334	247.07
467.772	291.54
468.209	275.16
468.647	324.31
469.084	343.03
469.522	261.12
469.959	350.06
470.396	401.55
470.833	338.35
471.271	343.03
471.708	263.46
472.145	368.78
472.582	333.67
473.019	396.87
473.456	333.67
473.892	392.19
474.329	270.48
474.766	300.91
475.202	382.82
475.639	268.14
476.076	333.67
476.512	291.54
476.949	368.78
477.385	324.31
477.821	286.86
478.258	343.03
478.694	336.01
479.13	270.48
479.566	314.95
480.002	291.54
480.438	371.12
480.874	352.4
481.31	324.31
481.746	357.08
482.181	331.33
482.617	300.91
483.053	286.86
483.488	328.99
483.924	307.93
484.36	279.84
484.795	228.35
485.23	319.63
485.666	307.93
486.101	333.67
486.536	230.69
486.971	293.88
487.407	354.74
487.842	333.67
488.277	272.82
488.712	328.99
489.146	284.52
489.581	352.4
490.016	319.63
490.451	293.88
490.885	326.65
491.32	289.2
491.755	296.22
492.189	364.1
492.624	270.48
493.058	300.91
493.492	305.59
493.927	338.35
494.361	375.8
494.795	268.14
495.229	312.61
495.663	333.67
496.097	382.82
496.531	392.19
496.965	328.99
497.399	331.33
497.833	338.35
498.266	333.67
498.7	277.5
499.134	326.65
499.567	303.25
500.001	303.25
500.434	282.18
500.868	352.4
501.301	408.57
501.734	340.69
502.168	293.88
502.601	279.84
503.034	282.18
503.467	305.59
503.9	359.42
504.333	303.25
504.766	291.54
505.199	326.65
505.632	272.82
506.064	317.29
506.497	251.75
506.93	298.56
507.362	230.69
507.795	326.65
508.227	333.67
508.66	333.67
509.092	333.67
509.524	352.4
509.956	296.22
510.389	343.03
510.821	314.95
511.253	300.91
511.685	352.4
512.117	357.08
512.549	300.91
512.981	296.22
513.412	289.2
513.844	328.99
514.276	289.2
514.707	354.74
515.139	328.99
515.571	371.12
516.002	396.87
516.433	296.22
516.865	300.91
517.296	321.97
517.727	366.44
518.159	340.69
518.59	338.35
519.021	350.06
519.452	321.97
519.883	312.61
520.314	350.06
520.744	336.01
521.175	340.69
521.606	317.29
522.037	303.25
522.467	284.52
522.898	296.22
523.328	293.88
523.759	319.63
524.189	293.88
524.62	396.87
525.05	300.91
525.48	345.38
525.91	336.01
526.341	364.1
526.771	331.33
527.201	326.65
527.631	328.99
528.061	310.27
528.49	300.91
528.92	321.97
529.35	338.35
529.78	359.42
530.209	279.84
530.639	284.52
531.068	326.65
531.498	307.93
531.927	331.33
532.357	244.73
532.786	284.52
533.215	328.99
533.644	324.31
534.074	312.61
534.503	247.07
534.932	354.74
535.361	401.55
535.79	296.22
536.218	317.29
536.647	340.69
537.076	305.59
537.505	338.35
537.933	324.31
538.362	310.27
538.79	321.97
539.219	347.72
539.647	317.29
540.076	338.35
540.504	298.56
540.932	275.16
541.36	331.33
541.788	305.59
542.217	307.93
542.645	328.99
543.073	317.29
543.5	331.33
543.928	319.63
544.356	394.53
544.784	251.75
545.211	296.22
545.639	284.52
546.067	326.65
546.494	303.25
546.922	371.12
547.349	296.22
547.776	261.12
548.204	291.54
548.631	317.29
549.058	389.85
549.485	366.44
549.912	324.31
550.339	307.93
550.766	357.08
551.193	300.91
551.62	307.93
552.047	328.99
552.474	263.46
552.9	242.39
553.327	265.8
553.754	371.12
554.18	336.01
554.607	326.65
555.033	328.99
555.459	275.16
555.886	296.22
556.312	371.12
556.738	291.54
557.164	317.29
557.59	317.29
558.016	272.82
558.442	282.18
558.868	331.33
559.294	300.91
559.72	272.82
560.145	340.69
560.571	298.56
560.997	312.61
561.422	359.42
561.848	200.26
562.273	331.33
562.699	328.99
563.124	298.56
563.549	331.33
563.974	298.56
564.4	345.38
564.825	289.2
565.25	291.54
565.675	307.93
566.1	310.27
566.525	347.72
566.95	328.99
567.374	265.8
567.799	361.76
568.224	336.01
568.648	368.78
569.073	312.61
569.497	368.78
569.922	286.86
570.346	366.44
570.771	312.61
571.195	392.19
571.619	387.5
572.043	300.91
572.467	261.12
572.891	340.69
573.315	240.05
573.739	359.42
574.163	307.93
574.587	324.31
575.011	321.97
575.435	343.03
575.858	247.07
576.282	324.31
576.705	310.27
577.129	336.01
577.552	343.03
577.976	312.61
578.399	305.59
578.822	345.38
579.245	305.59
579.669	291.54
580.092	387.5
580.515	310.27
580.938	291.54
581.361	272.82
581.784	378.14
582.206	303.25
582.629	298.56
583.052	401.55
583.474	298.56
583.897	303.25
584.32	303.25
584.742	300.91
585.165	286.86
585.587	305.59
586.009	289.2
586.431	279.84
586.854	312.61
587.276	282.18
587.698	357.08
588.12	291.54
588.542	277.5
588.964	279.84
589.386	364.1
589.807	336.01
590.229	181.54
590.651	300.91
591.073	291.54
591.494	291.54
591.916	268.14
592.337	289.2
592.759	279.84
593.18	317.29
593.601	336.01
594.022	296.22
594.444	343.03
594.865	371.12
595.286	314.95
595.707	357.08
596.128	324.31
596.549	268.14
596.97	352.4
597.39	319.63
597.811	289.2
598.232	333.67
598.652	305.59
599.073	338.35
599.494	298.56
599.914	314.95
600.334	324.31
600.755	328.99
601.175	326.65
601.595	314.95
602.015	314.95
602.436	310.27
602.856	415.59
603.276	328.99
603.696	291.54
604.115	300.91
604.535	265.8
604.955	354.74
605.375	340.69
605.794	340.69
606.214	298.56
606.634	336.01
607.053	263.46
607.473	312.61
607.892	289.2
608.311	361.76
608.731	319.63
609.15	293.88
609.569	317.29
609.988	324.31
610.407	300.91
610.826	331.33
611.245	261.12
611.664	324.31
612.083	296.22
612.501	317.29
612.92	312.61
613.339	357.08
613.757	338.35
614.176	258.78
614.594	338.35
615.013	359.42
615.431	293.88
615.85	261.12
616.268	300.91
616.686	326.65
617.104	312.61
617.522	317.29
617.94	319.63
618.358	289.2
618.776	319.63
619.194	345.38
619.612	300.91
620.03	336.01
620.447	347.72
620.865	336.01
621.282	314.95
621.7	340.69
622.117	305.59
622.535	289.2
622.952	296.22
623.369	296.22
623.787	303.25
624.204	300.91
624.621	333.67
625.038	333.67
625.455	272.82
625.872	233.03
626.289	242.39
626.706	361.76
627.123	314.95
627.539	289.2
627.956	277.5
628.373	286.86
628.789	277.5
629.206	324.31
629.622	333.67
630.038	268.14
630.455	319.63
630.871	254.09
631.287	310.27
631.703	357.08
632.12	277.5
632.536	359.42
632.952	270.48
633.368	289.2
633.783	293.88
634.199	343.03
634.615	321.97
635.031	328.99
635.446	338.35
635.862	289.2
636.277	328.99
636.693	321.97
637.108	275.16
637.524	312.61
637.939	310.27
638.354	247.07
638.77	321.97
639.185	275.16
639.6	298.56
640.015	317.29
640.43	317.29
640.845	359.42
641.259	298.56
641.674	263.46
642.089	258.78
642.504	357.08
642.918	265.8
643.333	366.44
643.747	326.65
644.162	366.44
644.576	345.38
644.991	345.38
645.405	350.06
645.819	282.18
646.233	251.75
646.647	291.54
647.061	328.99
647.475	275.16
647.889	275.16
648.303	300.91
648.717	354.74
649.131	307.93
649.545	307.93
649.958	326.65
650.372	415.59
650.785	352.4
651.199	333.67
651.612	314.95
652.026	338.35
652.439	279.84
652.852	333.67
653.266	291.54
653.679	305.59
654.092	293.88
654.505	310.27
654.918	249.41
655.331	303.25
655.744	357.08
656.156	247.07
656.569	251.75
656.982	300.91
657.394	275.16
657.807	326.65
658.22	317.29
658.632	305.59
659.044	293.88
659.457	242.39
659.869	328.99
660.281	291.54
660.693	399.21
661.106	345.38
661.518	319.63
661.93	321.97
662.342	368.78
662.754	300.91
663.165	268.14
663.577	368.78
663.989	284.52
664.401	265.8
664.812	312.61
665.224	324.31
665.635	279.84
666.047	284.52
666.458	340.69
666.869	350.06
667.281	305.59
667.692	305.59
668.103	336.01
668.514	321.97
668.925	373.46
669.336	291.54
669.747	357.08
670.158	361.76
670.569	303.25
670.979	277.5
671.39	345.38
671.801	331.33
672.211	305.59
672.622	321.97
673.032	300.91
673.443	333.67
673.853	368.78
674.263	286.86
674.674	317.29
675.084	359.42
675.494	324.31
675.904	336.01
676.314	371.12
676.724	296.22
677.134	298.56
677.544	305.59
677.953	357.08
678.363	324.31
678.773	394.53
679.182	319.63
679.592	300.91
680.001	298.56
680.411	319.63
680.82	265.8
681.23	303.25
681.639	354.74
682.048	282.18
682.457	331.33
682.866	303.25
683.275	336.01
683.684	310.27
684.093	350.06
684.502	340.69
684.911	303.25
685.32	305.59
685.728	228.35
686.137	293.88
686.546	359.42
686.954	336.01
687.363	319.63
687.771	354.74
688.179	331.33
688.588	279.84
688.996	343.03
689.404	293.88
689.812	282.18
690.22	289.2
690.628	314.95
691.036	235.37
691.444	284.52
691.852	270.48
692.26	352.4
692.667	310.27
693.075	331.33
693.483	317.29
693.89	291.54
694.298	333.67
694.705	312.61
695.112	340.69
695.52	286.86
695.927	279.84
696.334	328.99
696.741	345.38
697.148	317.29
697.555	286.86
697.962	319.63
698.369	340.69
698.776	305.59
699.183	357.08
699.59	333.67
699.996	303.25
700.403	317.29
700.81	310.27
701.216	307.93
701.623	366.44
702.029	336.01
702.435	310.27
702.842	350.06
703.248	352.4
703.654	317.29
704.06	347.72
704.466	321.97
704.872	354.74
705.278	357.08
705.684	328.99
706.09	359.42
706.496	364.1
706.901	296.22
707.307	336.01
707.712	312.61
708.118	293.88
708.523	314.95
708.929	371.12
709.334	324.31
709.74	298.56
710.145	298.56
710.55	361.76
710.955	286.86
711.36	305.59
711.765	300.91
712.17	385.16
712.575	343.03
712.98	815.82
713.385	305.59
713.789	293.88
714.194	293.88
714.599	328.99
715.003	270.48
715.408	333.67
715.812	392.19
716.217	242.39
716.621	336.01
717.025	296.22
717.429	310.27
717.833	324.31
718.238	324.31
718.642	357.08
719.046	319.63
719.449	331.33
719.853	310.27
720.257	282.18
720.661	289.2
721.065	289.2
721.468	303.25
721.872	321.97
722.275	326.65
722.679	296.22
723.082	319.63
723.485	336.01
723.889	298.56
724.292	305.59
724.695	296.22
725.098	359.42
725.501	375.8
725.904	310.27
726.307	249.41
726.71	319.63
727.113	284.52
727.516	387.5
727.918	336.01
728.321	296.22
728.724	340.69
729.126	265.8
729.529	336.01
729.931	314.95
730.333	300.91
730.736	345.38
731.138	284.52
731.54	268.14
731.942	328.99
732.344	378.14
732.746	244.73
733.148	354.74
733.55	272.82
733.952	317.29
734.354	336.01
734.756	364.1
735.157	361.76
735.559	350.06
735.96	328.99
736.362	277.5
736.763	324.31
737.165	324.31
737.566	265.8
737.967	336.01
738.368	282.18
738.77	268.14
739.171	328.99
739.572	321.97
739.973	296.22
740.374	251.75
740.774	277.5
741.175	312.61
741.576	279.84
741.977	277.5
742.377	338.35
742.778	333.67
743.178	293.88
743.579	352.4
743.979	272.82
744.379	364.1
744.78	361.76
745.18	321.97
745.58	286.86
745.98	345.38
746.38	305.59
746.78	300.91
747.18	242.39
747.58	305.59
747.98	333.67
748.38	328.99
748.779	293.88
749.179	361.76
749.578	277.5
749.978	314.95
750.377	331.33
750.777	293.88
751.176	319.63
751.575	272.82
751.975	333.67
752.374	326.65
752.773	317.29
753.172	354.74
753.571	284.52
753.97	310.27
754.369	319.63
754.768	282.18
755.166	268.14
755.565	298.56
755.964	350.06
756.362	275.16
756.761	307.93
757.159	249.41
757.558	277.5
757.956	275.16
758.354	326.65
758.753	296.22
759.151	333.67
759.549	314.95
759.947	298.56
760.345	319.63
760.743	286.86
761.141	333.67
761.539	333.67
761.936	347.72
762.334	392.19
762.732	314.95
763.129	314.95
763.527	254.09
763.924	289.2
764.322	361.76
764.719	310.27
765.117	343.03
765.514	340.69
765.911	343.03
766.308	305.59
766.705	242.39
767.102	357.08
767.499	321.97
767.896	380.48
768.293	338.35
768.69	328.99
769.086	298.56
769.483	293.88
769.88	328.99
770.276	261.12
770.673	354.74
771.069	310.27
771.466	350.06
771.862	289.2
772.258	333.67
772.654	347.72
773.05	331.33
773.447	284.52
773.843	319.63
774.239	258.78
774.634	317.29
775.03	340.69
775.426	364.1
775.822	251.75
776.218	324.31
776.613	338.35
777.009	284.52
777.404	310.27
777.8	300.91
778.195	272.82
778.59	265.8
778.986	350.06
779.381	298.56
779.776	293.88
780.171	298.56
780.566	350.06
780.961	317.29
781.356	310.27
781.751	242.39
782.146	314.95
782.54	293.88
782.935	305.59
783.33	317.29
783.724	375.8
784.119	375.8
784.513	378.14
784.908	333.67
785.302	333.67
785.696	326.65
786.09	270.48
786.485	331.33
786.879	328.99
787.273	310.27
787.667	310.27
788.061	314.95
788.454	312.61
788.848	270.48
789.242	336.01
789.636	317.29
790.029	324.31
790.423	345.38
790.816	300.91
791.21	347.72
791.603	300.91
791.997	263.46
792.39	272.82
792.783	336.01
793.176	270.48
793.569	326.65
793.962	317.29
794.355	289.2
794.748	328.99
795.141	286.86
795.534	296.22
795.927	333.67
796.319	328.99
796.712	261.12
797.105	291.54
797.497	314.95
797.89	357.08
798.282	289.2
798.674	347.72
799.067	312.61
799.459	268.14
799.851	298.56
800.243	277.5
800.635	265.8
801.027	331.33
801.419	324.31
801.811	296.22
802.203	324.31
802.594	265.8
802.986	275.16
803.378	296.22
803.769	272.82
804.161	263.46
804.552	373.46
804.944	354.74
805.335	272.82
805.726	345.38
806.118	345.38
806.509	296.22
806.9	286.86
807.291	307.93
807.682	272.82
808.073	310.27
808.464	314.95
808.855	296.22
809.245	314.95
809.636	298.56
810.027	321.97
810.417	314.95
810.808	333.67
811.198	296.22
811.589	240.05
811.979	275.16
812.369	226.01
812.759	328.99
813.15	300.91
813.54	352.4
813.93	321.97
814.32	331.33
814.71	321.97
815.1	354.74
815.489	319.63
815.879	331.33
816.269	317.29
816.658	317.29
817.048	310.27
817.438	326.65
817.827	289.2
818.216	310.27
818.606	296.22
818.995	312.61
819.384	300.91
819.773	314.95
820.163	265.8
820.552	277.5
820.941	261.12
821.33	279.84
821.718	338.35
822.107	336.01
822.496	291.54
822.885	357.08
823.273	352.4
823.662	336.01
824.05	319.63
824.439	247.07
824.827	340.69
825.216	296.22
825.604	319.63
825.992	331.33
826.38	256.43
826.768	378.14
827.156	291.54
827.544	270.48
827.932	396.87
828.32	368.78
828.708	275.16
829.096	317.29
829.483	338.35
829.871	410.91
830.259	289.2
830.646	359.42
831.034	277.5
831.421	284.52
831.808	347.72
832.196	296.22
832.583	284.52
832.97	343.03
833.357	317.29
833.744	270.48
834.131	347.72
834.518	303.25
834.905	361.76
835.292	300.91
835.678	357.08
836.065	317.29
836.452	312.61
836.838	347.72
837.225	354.74
837.611	345.38
837.998	310.27
838.384	307.93
838.77	284.52
839.157	291.54
839.543	254.09
839.929	307.93
840.315	357.08
840.701	303.25
841.087	368.78
841.473	279.84
841.858	263.46
842.244	354.74
842.63	270.48
843.015	289.2
843.401	366.44
843.787	256.43
844.172	254.09
844.557	291.54
844.943	328.99
845.328	368.78
845.713	303.25
846.098	279.84
846.483	331.33
846.868	284.52
847.253	233.03
847.638	350.06
848.023	296.22
848.408	326.65
848.793	284.52
849.177	300.91
849.562	364.1
849.947	314.95
850.331	282.18
850.715	336.01
851.1	275.16
851.484	286.86
851.868	277.5
852.253	261.12
852.637	305.59
853.021	331.33
853.405	319.63
853.789	319.63
854.173	338.35
854.557	324.31
854.94	321.97
855.324	387.5
855.708	321.97
856.091	256.43
856.475	296.22
856.858	350.06
857.242	256.43
857.625	336.01
858.009	265.8
858.392	352.4
858.775	350.06
859.158	321.97
859.541	258.78
859.924	326.65
860.307	319.63
860.69	289.2
861.073	321.97
861.456	296.22
861.838	305.59
862.221	317.29
862.604	319.63
862.986	317.29
863.369	319.63
863.751	291.54
864.133	324.31
864.516	312.61
864.898	268.14
865.28	303.25
865.662	293.88
866.044	347.72
866.426	275.16
866.808	343.03
867.19	279.84
867.572	312.61
867.954	265.8
868.336	373.46
868.717	338.35
869.099	291.54
869.48	317.29
869.862	336.01
870.243	310.27
870.625	317.29
871.006	317.29
871.387	310.27
871.768	314.95
872.149	293.88
872.53	357.08
872.911	347.72
873.292	317.29
873.673	296.22
874.054	293.88
874.435	317.29
874.815	303.25
875.196	305.59
875.577	305.59
875.957	331.33
876.338	314.95
876.718	350.06
877.098	310.27
877.479	338.35
877.859	350.06
878.239	324.31
878.619	247.07
878.999	284.52
879.379	350.06
879.759	350.06
880.139	310.27
880.519	298.56
880.898	284.52
881.278	345.38
881.658	336.01
882.037	279.84
882.417	300.91
882.796	331.33
883.176	333.67
883.555	240.05
883.934	338.35
884.313	293.88
884.693	293.88
885.072	305.59
885.451	272.82
885.83	270.48
886.209	312.61
886.587	298.56
886.966	263.46
887.345	256.43
887.724	258.78
888.102	331.33
888.481	328.99
888.859	317.29
889.238	331.33
889.616	240.05
889.994	303.25
890.373	307.93
890.751	371.12
891.129	307.93
891.507	291.54
891.885	336.01
892.263	347.72
892.641	343.03
893.019	333.67
893.396	251.75
893.774	319.63
894.152	270.48
894.529	305.59
894.907	352.4
895.284	314.95
895.662	284.52
896.039	291.54
896.416	338.35
896.794	310.27
897.171	310.27
897.548	312.61
897.925	345.38
898.302	307.93
898.679	307.93
899.056	340.69
899.433	354.74
899.809	314.95
900.186	319.63
900.563	277.5
900.939	279.84
901.316	310.27
901.692	389.85
902.069	298.56
902.445	413.25
902.821	357.08
903.197	298.56
903.574	394.53
903.95	258.78
904.326	326.65
904.702	261.12
905.078	319.63
905.454	303.25
905.829	310.27
906.205	258.78
906.581	333.67
906.956	336.01
907.332	279.84
907.707	303.25
908.083	291.54
908.458	319.63
908.833	291.54
909.209	291.54
909.584	293.88
909.959	368.78
910.334	350.06
910.709	331.33
911.084	251.75
911.459	303.25
911.834	275.16
912.209	326.65
912.583	331.33
912.958	258.78
913.333	336.01
913.707	364.1
914.082	268.14
914.456	307.93
914.83	286.86
915.205	305.59
915.579	310.27
915.953	314.95
916.327	352.4
916.701	305.59
917.075	282.18
917.449	350.06
917.823	291.54
918.197	291.54
918.571	310.27
918.944	331.33
919.318	345.38
919.692	303.25
920.065	321.97
920.438	340.69
920.812	284.52
921.185	333.67
921.558	284.52
921.932	364.1
922.305	275.16
922.678	275.16
923.051	282.18
923.424	303.25
923.797	305.59
924.17	303.25
924.542	321.97
924.915	307.93
925.288	336.01
925.661	268.14
926.033	270.48
926.406	321.97
926.778	244.73
927.15	328.99
927.523	249.41
927.895	244.73
928.267	293.88
928.639	317.29
929.011	275.16
929.383	343.03
929.755	284.52
930.127	326.65
930.499	333.67
930.871	321.97
931.242	296.22
931.614	256.43
931.986	305.59
932.357	310.27
932.729	303.25
933.1	310.27
933.471	261.12
933.843	324.31
934.214	312.61
934.585	270.48
934.956	223.67
935.327	324.31
935.698	286.86
936.069	340.69
936.44	282.18
936.811	235.37
937.182	300.91
937.552	333.67
937.923	326.65
938.293	298.56
938.664	265.8
939.034	321.97
939.405	319.63
939.775	277.5
940.145	324.31
940.516	279.84
940.886	293.88
941.256	279.84
941.626	277.5
941.996	352.4
942.366	300.91
942.735	331.33
943.105	319.63
943.475	240.05
943.845	319.63
944.214	279.84
944.584	298.56
944.953	307.93
945.323	338.35
945.692	270.48
946.061	277.5
946.43	296.22
946.8	343.03
947.169	279.84
947.538	314.95
947.907	286.86
948.276	240.05
948.645	314.95
949.013	305.59
949.382	244.73
949.751	300.91
950.119	286.86
950.488	324.31
950.857	277.5
951.225	242.39
951.593	326.65
951.962	291.54
952.33	305.59
952.698	300.91
953.066	324.31
953.434	286.86
953.802	312.61
954.17	310.27
954.538	336.01
954.906	300.91
955.274	347.72
955.642	331.33
956.009	293.88
956.377	347.72
956.744	284.52
957.112	312.61
957.479	251.75
957.847	298.56
958.214	256.43
958.581	382.82
958.948	298.56
959.315	328.99
959.683	310.27
960.05	317.29
960.416	328.99
960.783	305.59
961.15	279.84
961.517	350.06
961.884	328.99
962.25	326.65
962.617	272.82
962.983	319.63
963.35	350.06
963.716	336.01
964.082	394.53
964.449	378.14
964.815	265.8
965.181	247.07
965.547	305.59
965.913	279.84
966.279	312.61
966.645	303.25
967.011	284.52
967.377	300.91
967.742	268.14
968.108	303.25
968.474	312.61
968.839	307.93
969.205	293.88
969.57	347.72
969.935	336.01
970.301	378.14
970.666	282.18
971.031	312.61
971.396	317.29
971.761	296.22
972.126	293.88
972.491	321.97
972.856	336.01
973.221	291.54
973.586	296.22
973.95	326.65
974.315	312.61
974.679	333.67
975.044	392.19
975.408	357.08
975.773	352.4
976.137	275.16
976.501	319.63
976.866	319.63
977.23	321.97
977.594	310.27
977.958	312.61
978.322	293.88
978.686	312.61
979.049	261.12
979.413	326.65
979.777	289.2
980.141	284.52
980.504	345.38
980.868	282.18
981.231	272.82
981.595	333.67
981.958	275.16
982.321	347.72
982.684	378.14
983.048	368.78
983.411	338.35
983.774	312.61
984.137	289.2
984.5	331.33
984.862	364.1
985.225	284.52
985.588	293.88
985.951	347.72
986.313	218.99
986.676	272.82
987.038	298.56
987.401	373.46
987.763	261.12
988.125	307.93
988.488	303.25
988.85	371.12
989.212	300.91
989.574	338.35
989.936	385.16
990.298	275.16
990.66	314.95
991.022	350.06
991.383	303.25
991.745	321.97
992.107	251.75
992.468	235.37
992.83	270.48
993.191	336.01
993.553	293.88
993.914	286.86
994.275	265.8
994.637	338.35
994.998	314.95
995.359	317.29
995.72	305.59
996.081	284.52
996.442	289.2
996.803	300.91
997.163	314.95
997.524	422.61
997.885	251.75
998.245	300.91
998.606	279.84
998.966	254.09
999.327	284.52
999.687	324.31
1000.047	298.56
1000.408	282.18
1000.768	354.74
1001.128	340.69
1001.488	338.35
1001.848	282.18
1002.208	307.93
1002.568	263.46
1002.927	321.97
1003.287	270.48
1003.647	392.19
1004.007	314.95
1004.366	321.97
1004.726	364.1
1005.085	277.5
1005.444	314.95
1005.804	324.31
1006.163	382.82
1006.522	314.95
1006.881	277.5
1007.24	319.63
1007.599	254.09
1007.958	324.31
1008.317	282.18
1008.676	300.91
1009.035	307.93
1009.393	331.33
1009.752	314.95
1010.111	354.74
1010.469	303.25
1010.828	347.72
1011.186	331.33
1011.544	333.67
1011.903	305.59
1012.261	336.01
1012.619	293.88
1012.977	284.52
1013.335	305.59
1013.693	338.35
1014.051	328.99
1014.409	303.25
1014.767	303.25
1015.124	343.03
1015.482	307.93
1015.84	293.88
1016.197	303.25
1016.555	312.61
1016.912	291.54
1017.269	338.35
1017.627	289.2
1017.984	303.25
1018.341	303.25
1018.698	270.48
1019.055	298.56
1019.412	352.4
1019.769	317.29
1020.126	307.93
1020.483	343.03
1020.84	249.41
1021.196	366.44
1021.553	310.27
1021.909	328.99
1022.266	314.95
1022.622	310.27
1022.979	354.74
1023.335	336.01
1023.691	312.61
1024.047	352.4
1024.404	270.48
1024.76	347.72
1025.116	235.37
1025.472	336.01
1025.827	328.99
1026.183	263.46
1026.539	265.8
1026.895	289.2
1027.25	343.03
1027.606	218.99
1027.961	293.88
1028.317	303.25
1028.672	300.91
1029.028	314.95
1029.383	307.93
1029.738	345.38
1030.093	317.29
1030.448	321.97
1030.803	352.4
1031.158	319.63
1031.513	282.18
1031.868	291.54
1032.223	275.16
1032.577	282.18
1032.932	326.65
1033.287	293.88
1033.641	312.61
1033.996	293.88
1034.35	326.65
1034.704	258.78
1035.059	317.29
1035.413	303.25
1035.767	303.25
1036.121	303.25
