Data from Al_FLMS009871__1138__16-34-13-494.txt Node

Date: Fri Mar 08 16:34:13 CST 2024
User: pe5414po
Spectrometer: FLMS00987
Trigger mode: 0
Integration Time (sec): 1.000000E-1
Scans to average: 1
Electric dark correction enabled: true
Nonlinearity correction enabled: false
Boxcar width: 0
XAxis mode: Wavelengths
Number of Pixels in Spectrum: 2048
>>>>>Begin Spectral Data<<<<<
188.938	-38.03
189.409	-38.03
189.879	-38.03
190.349	-54.42
190.819	-105.91
191.29	-143.36
191.76	-77.82
192.23	-89.53
192.7	-75.48
193.17	-49.74
193.64	-7.61
194.109	-49.74
194.579	-56.76
195.049	-49.74
195.519	29.84
195.988	13.46
196.458	95.38
196.927	90.7
197.397	62.61
197.866	167.93
198.336	139.85
198.805	116.44
199.274	263.9
199.744	179.64
200.213	259.21
200.682	231.13
201.151	238.15
201.62	280.28
202.089	252.19
202.558	296.66
203.027	357.52
203.495	275.6
203.964	235.81
204.433	282.62
204.902	263.9
205.37	289.64
205.839	233.47
206.307	252.19
206.776	308.37
207.244	308.37
207.712	259.21
208.181	277.94
208.649	263.9
209.117	306.03
209.585	324.75
210.053	240.49
210.521	352.84
210.989	289.64
211.457	338.79
211.925	301.34
212.393	282.62
212.861	287.3
213.328	221.77
213.796	270.92
214.264	327.09
214.731	275.6
215.199	291.98
215.666	277.94
216.133	371.56
216.601	296.66
217.068	294.32
217.535	303.68
218.003	235.81
218.47	338.79
218.937	268.58
219.404	266.24
219.871	284.96
220.338	345.81
220.805	266.24
221.271	282.62
221.738	280.28
222.205	242.83
222.671	268.58
223.138	270.92
223.605	261.55
224.071	221.77
224.538	235.81
225.004	231.13
225.47	287.3
225.937	273.26
226.403	287.3
226.869	299
227.335	315.39
227.801	315.39
228.267	252.19
228.733	338.79
229.199	249.85
229.665	301.34
230.131	217.08
230.597	320.07
231.062	369.22
231.528	291.98
231.994	219.43
232.459	327.09
232.925	252.19
233.39	294.32
233.856	228.79
234.321	247.51
234.786	296.66
235.252	301.34
235.717	228.79
236.182	256.87
236.647	247.51
237.112	273.26
237.577	299
238.042	294.32
238.507	181.98
238.972	233.47
239.436	303.68
239.901	259.21
240.366	313.05
240.83	308.37
241.295	301.34
241.76	313.05
242.224	301.34
242.688	280.28
243.153	268.58
243.617	275.6
244.081	327.09
244.545	299
245.01	277.94
245.474	357.52
245.938	341.13
246.402	231.13
246.866	291.98
247.33	329.43
247.793	270.92
248.257	313.05
248.721	282.62
249.185	210.06
249.648	275.6
250.112	296.66
250.575	242.83
251.039	280.28
251.502	308.37
251.965	294.32
252.429	296.66
252.892	287.3
253.355	268.58
253.818	282.62
254.281	247.51
254.744	273.26
255.207	306.03
255.67	296.66
256.133	317.73
256.596	247.51
257.059	322.41
257.522	263.9
257.984	320.07
258.447	320.07
258.909	275.6
259.372	336.45
259.834	284.96
260.297	355.18
260.759	336.45
261.221	280.28
261.684	254.53
262.146	299
262.608	263.9
263.07	217.08
263.532	362.2
263.994	308.37
264.456	352.84
264.918	308.37
265.38	252.19
265.842	334.11
266.303	277.94
266.765	287.3
267.227	306.03
267.688	315.39
268.15	263.9
268.611	282.62
269.072	273.26
269.534	315.39
269.995	338.79
270.456	317.73
270.918	266.24
271.379	289.64
271.84	259.21
272.301	275.6
272.762	352.84
273.223	322.41
273.684	338.79
274.144	306.03
274.605	336.45
275.066	273.26
275.527	331.77
275.987	284.96
276.448	329.43
276.908	320.07
277.369	303.68
277.829	294.32
278.289	289.64
278.75	280.28
279.21	383.26
279.67	308.37
280.13	322.41
280.59	193.68
281.05	277.94
281.51	315.39
281.97	329.43
282.43	303.68
282.89	310.71
283.35	334.11
283.809	291.98
284.269	350.5
284.729	336.45
285.188	303.68
285.648	287.3
286.107	280.28
286.567	266.24
287.026	254.53
287.485	275.6
287.944	291.98
288.404	296.66
288.863	261.55
289.322	327.09
289.781	331.77
290.24	336.45
290.699	357.52
291.158	329.43
291.616	259.21
292.075	373.9
292.534	306.03
292.992	252.19
293.451	336.45
293.91	291.98
294.368	263.9
294.827	273.26
295.285	320.07
295.743	324.75
296.202	303.68
296.66	331.77
297.118	327.09
297.576	280.28
298.034	263.9
298.492	317.73
298.95	252.19
299.408	296.66
299.866	315.39
300.324	359.86
300.781	315.39
301.239	273.26
301.697	301.34
302.154	324.75
302.612	242.83
303.069	301.34
303.527	322.41
303.984	270.92
304.441	306.03
304.899	296.66
305.356	275.6
305.813	355.18
306.27	282.62
306.727	329.43
307.184	329.43
307.641	299
308.098	282.62
308.555	266.24
309.012	313.05
309.468	336.45
309.925	357.52
310.382	355.18
310.838	313.05
311.295	327.09
311.751	310.71
312.208	284.96
312.664	315.39
313.12	284.96
313.577	306.03
314.033	210.06
314.489	336.45
314.945	380.92
315.401	270.92
315.857	338.79
316.313	289.64
316.769	291.98
317.225	334.11
317.681	306.03
318.136	350.5
318.592	348.15
319.048	242.83
319.503	221.77
319.959	273.26
320.414	392.62
320.869	280.28
321.325	268.58
321.78	296.66
322.235	322.41
322.691	301.34
323.146	329.43
323.601	259.21
324.056	334.11
324.511	299
324.966	341.13
325.421	317.73
325.875	268.58
326.33	310.71
326.785	287.3
327.24	308.37
327.694	263.9
328.149	348.15
328.603	252.19
329.058	320.07
329.512	277.94
329.966	425.39
330.421	266.24
330.875	320.07
331.329	345.81
331.783	291.98
332.237	336.45
332.691	345.81
333.145	299
333.599	315.39
334.053	336.45
334.507	315.39
334.96	306.03
335.414	394.97
335.868	348.15
336.321	320.07
336.775	320.07
337.228	320.07
337.682	303.68
338.135	261.55
338.588	322.41
339.042	350.5
339.495	364.54
339.948	270.92
340.401	376.24
340.854	336.45
341.307	327.09
341.76	282.62
342.213	315.39
342.666	294.32
343.119	287.3
343.571	348.15
344.024	322.41
344.477	310.71
344.929	350.5
345.382	324.75
345.834	317.73
346.287	242.83
346.739	341.13
347.191	266.24
347.644	310.71
348.096	315.39
348.548	357.52
349	284.96
349.452	294.32
349.904	317.73
350.356	320.07
350.808	294.32
351.26	322.41
351.711	331.77
352.163	320.07
352.615	392.62
353.066	336.45
353.518	317.73
353.969	284.96
354.421	317.73
354.872	329.43
355.324	324.75
355.775	371.56
356.226	401.99
356.677	324.75
357.128	345.81
357.579	306.03
358.03	334.11
358.481	310.71
358.932	310.71
359.383	343.47
359.834	287.3
360.285	357.52
360.735	284.96
361.186	364.54
361.637	366.88
362.087	329.43
362.538	327.09
362.988	355.18
363.438	352.84
363.889	317.73
364.339	303.68
364.789	306.03
365.239	371.56
365.689	320.07
366.139	343.47
366.589	284.96
367.039	273.26
367.489	320.07
367.939	322.41
368.389	334.11
368.839	280.28
369.288	331.77
369.738	280.28
370.187	331.77
370.637	334.11
371.086	291.98
371.536	350.5
371.985	338.79
372.434	341.13
372.884	315.39
373.333	242.83
373.782	294.32
374.231	308.37
374.68	313.05
375.129	273.26
375.578	366.88
376.027	322.41
376.475	334.11
376.924	350.5
377.373	355.18
377.822	369.22
378.27	299
378.719	324.75
379.167	369.22
379.616	301.34
380.064	327.09
380.512	259.21
380.961	296.66
381.409	322.41
381.857	261.55
382.305	329.43
382.753	296.66
383.201	287.3
383.649	350.5
384.097	329.43
384.545	364.54
384.992	329.43
385.44	380.92
385.888	313.05
386.335	308.37
386.783	329.43
387.231	336.45
387.678	306.03
388.125	270.92
388.573	282.62
389.02	228.79
389.467	306.03
389.914	357.52
390.362	324.75
390.809	355.18
391.256	383.26
391.703	310.71
392.15	308.37
392.596	334.11
393.043	291.98
393.49	329.43
393.937	252.19
394.383	310.71
394.83	338.79
395.276	383.26
395.723	383.26
396.169	380.92
396.616	317.73
397.062	345.81
397.508	348.15
397.954	296.66
398.401	324.75
398.847	352.84
399.293	329.43
399.739	303.68
400.185	343.47
400.631	320.07
401.076	343.47
401.522	327.09
401.968	266.24
402.414	338.79
402.859	284.96
403.305	334.11
403.75	320.07
404.196	303.68
404.641	284.96
405.086	350.5
405.532	324.75
405.977	327.09
406.422	331.77
406.867	266.24
407.312	252.19
407.757	394.97
408.202	366.88
408.647	327.09
409.092	336.45
409.537	334.11
409.982	322.41
410.426	313.05
410.871	324.75
411.316	310.71
411.76	348.15
412.205	373.9
412.649	289.64
413.093	315.39
413.538	331.77
413.982	387.94
414.426	240.49
414.87	320.07
415.314	324.75
415.758	364.54
416.202	303.68
416.646	315.39
417.09	378.58
417.534	348.15
417.978	338.79
418.421	350.5
418.865	324.75
419.309	299
419.752	327.09
420.196	327.09
420.639	350.5
421.083	348.15
421.526	310.71
421.969	282.62
422.412	315.39
422.856	289.64
423.299	327.09
423.742	327.09
424.185	369.22
424.628	310.71
425.071	334.11
425.513	320.07
425.956	310.71
426.399	350.5
426.842	327.09
427.284	320.07
427.727	299
428.169	322.41
428.612	364.54
429.054	324.75
429.497	327.09
429.939	357.52
430.381	336.45
430.823	315.39
431.265	324.75
431.707	366.88
432.149	317.73
432.591	343.47
433.033	343.47
433.475	366.88
433.917	373.9
434.359	380.92
434.8	366.88
435.242	329.43
435.684	313.05
436.125	277.94
436.567	380.92
437.008	331.77
437.449	270.92
437.891	345.81
438.332	315.39
438.773	329.43
439.214	336.45
439.656	362.2
440.097	338.79
440.538	320.07
440.978	355.18
441.419	249.85
441.86	301.34
442.301	350.5
442.742	327.09
443.182	324.75
443.623	366.88
444.063	284.96
444.504	294.32
444.944	343.47
445.385	324.75
445.825	299
446.265	317.73
446.706	341.13
447.146	301.34
447.586	273.26
448.026	334.11
448.466	287.3
448.906	359.86
449.346	303.68
449.786	303.68
450.225	334.11
450.665	376.24
451.105	299
451.544	313.05
451.984	345.81
452.424	385.6
452.863	327.09
453.302	329.43
453.742	299
454.181	287.3
454.62	308.37
455.059	362.2
455.499	317.73
455.938	366.88
456.377	362.2
456.816	306.03
457.254	334.11
457.693	334.11
458.132	336.45
458.571	320.07
459.01	371.56
459.448	371.56
459.887	343.47
460.325	338.79
460.764	327.09
461.202	315.39
461.641	371.56
462.079	371.56
462.517	317.73
462.955	334.11
463.393	334.11
463.832	413.69
464.27	324.75
464.708	366.88
465.145	320.07
465.583	380.92
466.021	313.05
466.459	366.88
466.897	345.81
467.334	341.13
467.772	291.98
468.209	317.73
468.647	331.77
469.084	291.98
469.522	383.26
469.959	289.64
470.396	357.52
470.833	331.77
471.271	327.09
471.708	282.62
472.145	329.43
472.582	275.6
473.019	294.32
473.456	362.2
473.892	322.41
474.329	336.45
474.766	341.13
475.202	294.32
475.639	348.15
476.076	322.41
476.512	301.34
476.949	322.41
477.385	341.13
477.821	303.68
478.258	369.22
478.694	341.13
479.13	359.86
479.566	270.92
480.002	294.32
480.438	355.18
480.874	256.87
481.31	331.77
481.746	329.43
482.181	327.09
482.617	338.79
483.053	345.81
483.488	378.58
483.924	336.45
484.36	343.47
484.795	359.86
485.23	352.84
485.666	369.22
486.101	338.79
486.536	338.79
486.971	341.13
487.407	329.43
487.842	341.13
488.277	341.13
488.712	341.13
489.146	327.09
489.581	369.22
490.016	327.09
490.451	355.18
490.885	341.13
491.32	315.39
491.755	373.9
492.189	245.17
492.624	315.39
493.058	280.28
493.492	380.92
493.927	329.43
494.361	322.41
494.795	254.53
495.229	315.39
495.663	338.79
496.097	345.81
496.531	369.22
496.965	294.32
497.399	291.98
497.833	341.13
498.266	282.62
498.7	261.55
499.134	387.94
499.567	289.64
500.001	425.39
500.434	387.94
500.868	291.98
501.301	294.32
501.734	338.79
502.168	350.5
502.601	322.41
503.034	289.64
503.467	355.18
503.9	327.09
504.333	317.73
504.766	308.37
505.199	357.52
505.632	306.03
506.064	334.11
506.497	320.07
506.93	315.39
507.362	350.5
507.795	310.71
508.227	362.2
508.66	341.13
509.092	315.39
509.524	336.45
509.956	322.41
510.389	334.11
510.821	341.13
511.253	329.43
511.685	310.71
512.117	387.94
512.549	371.56
512.981	299
513.412	373.9
513.844	275.6
514.276	313.05
514.707	324.75
515.139	273.26
515.571	348.15
516.002	341.13
516.433	378.58
516.865	287.3
517.296	322.41
517.727	322.41
518.159	294.32
518.59	327.09
519.021	376.24
519.452	256.87
519.883	210.06
520.314	308.37
520.744	329.43
521.175	336.45
521.606	406.67
522.037	327.09
522.467	390.28
522.898	317.73
523.328	352.84
523.759	364.54
524.189	338.79
524.62	366.88
525.05	301.34
525.48	324.75
525.91	282.62
526.341	383.26
526.771	369.22
527.201	350.5
527.631	259.21
528.061	327.09
528.49	235.81
528.92	378.58
529.35	345.81
529.78	418.37
530.209	301.34
530.639	345.81
531.068	327.09
531.498	324.75
531.927	338.79
532.357	383.26
532.786	310.71
533.215	254.53
533.644	390.28
534.074	308.37
534.503	306.03
534.932	280.28
535.361	294.32
535.79	296.66
536.218	390.28
536.647	320.07
537.076	310.71
537.505	308.37
537.933	329.43
538.362	324.75
538.79	350.5
539.219	373.9
539.647	291.98
540.076	406.67
540.504	338.79
540.932	373.9
541.36	399.65
541.788	369.22
542.217	345.81
542.645	284.96
543.073	301.34
543.5	352.84
543.928	317.73
544.356	254.53
544.784	336.45
545.211	341.13
545.639	263.9
546.067	320.07
546.494	373.9
546.922	310.71
547.349	294.32
547.776	355.18
548.204	317.73
548.631	343.47
549.058	270.92
549.485	322.41
549.912	352.84
550.339	343.47
550.766	324.75
551.193	376.24
551.62	369.22
552.047	343.47
552.474	310.71
552.9	310.71
553.327	317.73
553.754	331.77
554.18	357.52
554.607	308.37
555.033	303.68
555.459	306.03
555.886	364.54
556.312	303.68
556.738	366.88
557.164	313.05
557.59	343.47
558.016	315.39
558.442	313.05
558.868	299
559.294	331.77
559.72	301.34
560.145	268.58
560.571	317.73
560.997	352.84
561.422	369.22
561.848	359.86
562.273	357.52
562.699	273.26
563.124	282.62
563.549	284.96
563.974	266.24
564.4	313.05
564.825	327.09
565.25	294.32
565.675	369.22
566.1	252.19
566.525	336.45
566.95	296.66
567.374	327.09
567.799	294.32
568.224	366.88
568.648	306.03
569.073	310.71
569.497	301.34
569.922	345.81
570.346	392.62
570.771	380.92
571.195	299
571.619	327.09
572.043	338.79
572.467	291.98
572.891	329.43
573.315	310.71
573.739	320.07
574.163	364.54
574.587	303.68
575.011	303.68
575.435	284.96
575.858	345.81
576.282	343.47
576.705	313.05
577.129	401.99
577.552	336.45
577.976	291.98
578.399	348.15
578.822	350.5
579.245	282.62
579.669	380.92
580.092	355.18
580.515	313.05
580.938	284.96
581.361	224.11
581.784	343.47
582.206	296.66
582.629	350.5
583.052	303.68
583.474	287.3
583.897	348.15
584.32	301.34
584.742	289.64
585.165	317.73
585.587	296.66
586.009	322.41
586.431	294.32
586.854	301.34
587.276	320.07
587.698	315.39
588.12	355.18
588.542	331.77
588.964	327.09
589.386	299
589.807	282.62
590.229	287.3
590.651	369.22
591.073	306.03
591.494	390.28
591.916	317.73
592.337	287.3
592.759	303.68
593.18	320.07
593.601	385.6
594.022	301.34
594.444	334.11
594.865	355.18
595.286	299
595.707	299
596.128	336.45
596.549	320.07
596.97	315.39
597.39	343.47
597.811	310.71
598.232	291.98
598.652	256.87
599.073	301.34
599.494	329.43
599.914	345.81
600.334	308.37
600.755	350.5
601.175	317.73
601.595	322.41
602.015	324.75
602.436	324.75
602.856	458.16
603.276	432.41
603.696	317.73
604.115	287.3
604.535	315.39
604.955	348.15
605.375	322.41
605.794	306.03
606.214	376.24
606.634	320.07
607.053	378.58
607.473	327.09
607.892	352.84
608.311	369.22
608.731	359.86
609.15	373.9
609.569	399.65
609.988	357.52
610.407	284.96
610.826	364.54
611.245	362.2
611.664	310.71
612.083	327.09
612.501	345.81
612.92	423.05
613.339	366.88
613.757	383.26
614.176	324.75
614.594	409.01
615.013	341.13
615.431	331.77
615.85	329.43
616.268	296.66
616.686	362.2
617.104	364.54
617.522	284.96
617.94	355.18
618.358	301.34
618.776	334.11
619.194	348.15
619.612	336.45
620.03	329.43
620.447	364.54
620.865	366.88
621.282	359.86
621.7	348.15
622.117	387.94
622.535	315.39
622.952	303.68
623.369	270.92
623.787	327.09
624.204	233.47
624.621	268.58
625.038	336.45
625.455	324.75
625.872	249.85
626.289	324.75
626.706	409.01
627.123	310.71
627.539	296.66
627.956	334.11
628.373	362.2
628.789	334.11
629.206	345.81
629.622	362.2
630.038	324.75
630.455	320.07
630.871	287.3
631.287	338.79
631.703	315.39
632.12	301.34
632.536	327.09
632.952	310.71
633.368	280.28
633.783	301.34
634.199	275.6
634.615	404.33
635.031	350.5
635.446	329.43
635.862	266.24
636.277	345.81
636.693	378.58
637.108	256.87
637.524	355.18
637.939	341.13
638.354	338.79
638.77	369.22
639.185	350.5
639.6	315.39
640.015	313.05
640.43	317.73
640.845	327.09
641.259	336.45
641.674	334.11
642.089	336.45
642.504	352.84
642.918	324.75
643.333	348.15
643.747	324.75
644.162	310.71
644.576	320.07
644.991	348.15
645.405	308.37
645.819	310.71
646.233	341.13
646.647	313.05
647.061	397.31
647.475	282.62
647.889	327.09
648.303	341.13
648.717	355.18
649.131	294.32
649.545	308.37
649.958	273.26
650.372	383.26
650.785	301.34
651.199	359.86
651.612	245.17
652.026	228.79
652.439	315.39
652.852	313.05
653.266	289.64
653.679	303.68
654.092	299
654.505	343.47
654.918	256.87
655.331	273.26
655.744	327.09
656.156	338.79
656.569	385.6
656.982	364.54
657.394	313.05
657.807	324.75
658.22	383.26
658.632	317.73
659.044	296.66
659.457	308.37
659.869	296.66
660.281	235.81
660.693	287.3
661.106	320.07
661.518	334.11
661.93	310.71
662.342	299
662.754	343.47
663.165	327.09
663.577	301.34
663.989	341.13
664.401	315.39
664.812	301.34
665.224	226.45
665.635	322.41
666.047	341.13
666.458	338.79
666.869	299
667.281	341.13
667.692	289.64
668.103	275.6
668.514	294.32
668.925	310.71
669.336	317.73
669.747	338.79
670.158	289.64
670.569	345.81
670.979	327.09
671.39	362.2
671.801	284.96
672.211	371.56
672.622	334.11
673.032	296.66
673.443	301.34
673.853	247.51
674.263	320.07
674.674	296.66
675.084	273.26
675.494	313.05
675.904	355.18
676.314	369.22
676.724	324.75
677.134	327.09
677.544	341.13
677.953	315.39
678.363	411.35
678.773	329.43
679.182	362.2
679.592	322.41
680.001	324.75
680.411	338.79
680.82	327.09
681.23	366.88
681.639	266.24
682.048	352.84
682.457	299
682.866	324.75
683.275	308.37
683.684	327.09
684.093	338.79
684.502	263.9
684.911	291.98
685.32	338.79
685.728	371.56
686.137	378.58
686.546	369.22
686.954	341.13
687.363	341.13
687.771	348.15
688.179	341.13
688.588	317.73
688.996	327.09
689.404	299
689.812	317.73
690.22	336.45
690.628	301.34
691.036	329.43
691.444	296.66
691.852	306.03
692.26	329.43
692.667	387.94
693.075	336.45
693.483	380.92
693.89	324.75
694.298	369.22
694.705	299
695.112	282.62
695.52	301.34
695.927	306.03
696.334	294.32
696.741	310.71
697.148	322.41
697.555	308.37
697.962	296.66
698.369	289.64
698.776	284.96
699.183	294.32
699.59	352.84
699.996	343.47
700.403	301.34
700.81	345.81
701.216	350.5
701.623	306.03
702.029	338.79
702.435	345.81
702.842	343.47
703.248	373.9
703.654	329.43
704.06	289.64
704.466	338.79
704.872	291.98
705.278	320.07
705.684	322.41
706.09	306.03
706.496	336.45
706.901	317.73
707.307	308.37
707.712	299
708.118	334.11
708.523	320.07
708.929	296.66
709.334	310.71
709.74	291.98
710.145	306.03
710.55	299
710.955	380.92
711.36	373.9
711.765	322.41
712.17	324.75
712.575	343.47
712.98	853.71
713.385	437.1
713.789	303.68
714.194	371.56
714.599	301.34
715.003	345.81
715.408	324.75
715.812	317.73
716.217	366.88
716.621	350.5
717.025	310.71
717.429	324.75
717.833	310.71
718.238	317.73
718.642	350.5
719.046	303.68
719.449	343.47
719.853	299
720.257	357.52
720.661	336.45
721.065	369.22
721.468	263.9
721.872	282.62
722.275	313.05
722.679	324.75
723.082	233.47
723.485	355.18
723.889	327.09
724.292	303.68
724.695	315.39
725.098	324.75
725.501	380.92
725.904	296.66
726.307	355.18
726.71	320.07
727.113	296.66
727.516	362.2
727.918	329.43
728.321	329.43
728.724	299
729.126	254.53
729.529	320.07
729.931	336.45
730.333	369.22
730.736	296.66
731.138	341.13
731.54	233.47
731.942	296.66
732.344	345.81
732.746	320.07
733.148	317.73
733.55	348.15
733.952	357.52
734.354	334.11
734.756	322.41
735.157	301.34
735.559	261.55
735.96	350.5
736.362	320.07
736.763	313.05
737.165	299
737.566	338.79
737.967	303.68
738.368	369.22
738.77	228.79
739.171	357.52
739.572	289.64
739.973	327.09
740.374	373.9
740.774	313.05
741.175	355.18
741.576	352.84
741.977	329.43
742.377	306.03
742.778	313.05
743.178	282.62
743.579	273.26
743.979	303.68
744.379	404.33
744.78	359.86
745.18	341.13
745.58	345.81
745.98	327.09
746.38	275.6
746.78	266.24
747.18	411.35
747.58	366.88
747.98	338.79
748.38	317.73
748.779	299
749.179	306.03
749.578	364.54
749.978	341.13
750.377	338.79
750.777	357.52
751.176	348.15
751.575	296.66
751.975	341.13
752.374	317.73
752.773	284.96
753.172	331.77
753.571	320.07
753.97	341.13
754.369	315.39
754.768	336.45
755.166	350.5
755.565	373.9
755.964	350.5
756.362	320.07
756.761	310.71
757.159	322.41
757.558	343.47
757.956	345.81
758.354	322.41
758.753	364.54
759.151	336.45
759.549	287.3
759.947	329.43
760.345	327.09
760.743	329.43
761.141	296.66
761.539	352.84
761.936	359.86
762.334	287.3
762.732	284.96
763.129	315.39
763.527	324.75
763.924	313.05
764.322	301.34
764.719	327.09
765.117	320.07
765.514	296.66
765.911	341.13
766.308	308.37
766.705	324.75
767.102	303.68
767.499	245.17
767.896	228.79
768.293	334.11
768.69	315.39
769.086	341.13
769.483	299
769.88	345.81
770.276	291.98
770.673	394.97
771.069	406.67
771.466	296.66
771.862	268.58
772.258	369.22
772.654	397.31
773.05	327.09
773.447	348.15
773.843	301.34
774.239	299
774.634	270.92
775.03	249.85
775.426	341.13
775.822	331.77
776.218	315.39
776.613	362.2
777.009	343.47
777.404	345.81
777.8	294.32
778.195	320.07
778.59	320.07
778.986	329.43
779.381	334.11
779.776	317.73
780.171	270.92
780.566	355.18
780.961	350.5
781.356	380.92
781.751	366.88
782.146	273.26
782.54	282.62
782.935	397.31
783.33	324.75
783.724	345.81
784.119	345.81
784.513	317.73
784.908	322.41
785.302	240.49
785.696	390.28
786.09	338.79
786.485	390.28
786.879	336.45
787.273	315.39
787.667	320.07
788.061	364.54
788.454	296.66
788.848	268.58
789.242	291.98
789.636	373.9
790.029	385.6
790.423	306.03
790.816	310.71
791.21	317.73
791.603	357.52
791.997	308.37
792.39	259.21
792.783	308.37
793.176	329.43
793.569	289.64
793.962	376.24
794.355	338.79
794.748	310.71
795.141	331.77
795.534	273.26
795.927	345.81
796.319	364.54
796.712	322.41
797.105	397.31
797.497	345.81
797.89	324.75
798.282	385.6
798.674	364.54
799.067	308.37
799.459	390.28
799.851	315.39
800.243	336.45
800.635	268.58
801.027	348.15
801.419	324.75
801.811	277.94
802.203	366.88
802.594	296.66
802.986	256.87
803.378	352.84
803.769	273.26
804.161	266.24
804.552	380.92
804.944	270.92
805.335	320.07
805.726	261.55
806.118	313.05
806.509	306.03
806.9	301.34
807.291	322.41
807.682	320.07
808.073	336.45
808.464	282.62
808.855	322.41
809.245	294.32
809.636	299
810.027	357.52
810.417	350.5
810.808	331.77
811.198	294.32
811.589	315.39
811.979	327.09
812.369	345.81
812.759	369.22
813.15	313.05
813.54	352.84
813.93	320.07
814.32	310.71
814.71	327.09
815.1	242.83
815.489	306.03
815.879	266.24
816.269	336.45
816.658	352.84
817.048	329.43
817.438	338.79
817.827	345.81
818.216	352.84
818.606	338.79
818.995	284.96
819.384	327.09
819.773	329.43
820.163	259.21
820.552	355.18
820.941	355.18
821.33	324.75
821.718	364.54
822.107	282.62
822.496	366.88
822.885	366.88
823.273	329.43
823.662	287.3
824.05	317.73
824.439	317.73
824.827	331.77
825.216	294.32
825.604	310.71
825.992	343.47
826.38	385.6
826.768	270.92
827.156	275.6
827.544	252.19
827.932	282.62
828.32	303.68
828.708	315.39
829.096	284.96
829.483	306.03
829.871	275.6
830.259	275.6
830.646	334.11
831.034	299
831.421	352.84
831.808	313.05
832.196	327.09
832.583	296.66
832.97	296.66
833.357	277.94
833.744	261.55
834.131	334.11
834.518	277.94
834.905	329.43
835.292	296.66
835.678	380.92
836.065	315.39
836.452	343.47
836.838	313.05
837.225	310.71
837.611	254.53
837.998	306.03
838.384	277.94
838.77	303.68
839.157	294.32
839.543	317.73
839.929	334.11
840.315	315.39
840.701	294.32
841.087	313.05
841.473	296.66
841.858	301.34
842.244	329.43
842.63	350.5
843.015	322.41
843.401	409.01
843.787	322.41
844.172	303.68
844.557	308.37
844.943	369.22
845.328	352.84
845.713	317.73
846.098	373.9
846.483	315.39
846.868	317.73
847.253	329.43
847.638	343.47
848.023	282.62
848.408	306.03
848.793	277.94
849.177	308.37
849.562	324.75
849.947	359.86
850.331	320.07
850.715	376.24
851.1	334.11
851.484	357.52
851.868	336.45
852.253	275.6
852.637	313.05
853.021	301.34
853.405	341.13
853.789	334.11
854.173	369.22
854.557	308.37
854.94	256.87
855.324	369.22
855.708	306.03
856.091	294.32
856.475	315.39
856.858	289.64
857.242	341.13
857.625	343.47
858.009	350.5
858.392	418.37
858.775	315.39
859.158	308.37
859.541	296.66
859.924	294.32
860.307	259.21
860.69	371.56
861.073	348.15
861.456	352.84
861.838	350.5
862.221	334.11
862.604	291.98
862.986	345.81
863.369	287.3
863.751	331.77
864.133	291.98
864.516	359.86
864.898	277.94
865.28	320.07
865.662	284.96
866.044	359.86
866.426	345.81
866.808	296.66
867.19	303.68
867.572	308.37
867.954	359.86
868.336	334.11
868.717	320.07
869.099	331.77
869.48	357.52
869.862	275.6
870.243	296.66
870.625	345.81
871.006	317.73
871.387	280.28
871.768	359.86
872.149	291.98
872.53	268.58
872.911	352.84
873.292	362.2
873.673	294.32
874.054	331.77
874.435	324.75
874.815	324.75
875.196	296.66
875.577	322.41
875.957	303.68
876.338	268.58
876.718	306.03
877.098	287.3
877.479	387.94
877.859	317.73
878.239	385.6
878.619	343.47
878.999	390.28
879.379	355.18
879.759	329.43
880.139	327.09
880.519	306.03
880.898	235.81
881.278	296.66
881.658	252.19
882.037	231.13
882.417	371.56
882.796	331.77
883.176	343.47
883.555	306.03
883.934	343.47
884.313	362.2
884.693	322.41
885.072	334.11
885.451	315.39
885.83	362.2
886.209	366.88
886.587	327.09
886.966	343.47
887.345	366.88
887.724	352.84
888.102	345.81
888.481	320.07
888.859	320.07
889.238	341.13
889.616	301.34
889.994	273.26
890.373	364.54
890.751	378.58
891.129	317.73
891.507	266.24
891.885	350.5
892.263	324.75
892.641	313.05
893.019	306.03
893.396	294.32
893.774	275.6
894.152	306.03
894.529	327.09
894.907	301.34
895.284	313.05
895.662	350.5
896.039	254.53
896.416	320.07
896.794	350.5
897.171	270.92
897.548	270.92
897.925	331.77
898.302	294.32
898.679	336.45
899.056	273.26
899.433	343.47
899.809	327.09
900.186	284.96
900.563	329.43
900.939	331.77
901.316	334.11
901.692	240.49
902.069	341.13
902.445	359.86
902.821	327.09
903.197	366.88
903.574	296.66
903.95	345.81
904.326	322.41
904.702	310.71
905.078	359.86
905.454	343.47
905.829	334.11
906.205	331.77
906.581	345.81
906.956	294.32
907.332	385.6
907.707	334.11
908.083	350.5
908.458	301.34
908.833	289.64
909.209	336.45
909.584	324.75
909.959	327.09
910.334	387.94
910.709	343.47
911.084	291.98
911.459	338.79
911.834	324.75
912.209	313.05
912.583	348.15
912.958	299
913.333	280.28
913.707	268.58
914.082	336.45
914.456	256.87
914.83	357.52
915.205	334.11
915.579	338.79
915.953	301.34
916.327	322.41
916.701	322.41
917.075	329.43
917.449	299
917.823	317.73
918.197	266.24
918.571	299
918.944	275.6
919.318	334.11
919.692	366.88
920.065	359.86
920.438	291.98
920.812	313.05
921.185	348.15
921.558	289.64
921.932	299
922.305	313.05
922.678	317.73
923.051	392.62
923.424	301.34
923.797	338.79
924.17	294.32
924.542	306.03
924.915	263.9
925.288	303.68
925.661	327.09
926.033	280.28
926.406	338.79
926.778	359.86
927.15	327.09
927.523	268.58
927.895	315.39
928.267	303.68
928.639	336.45
929.011	301.34
929.383	254.53
929.755	268.58
930.127	336.45
930.499	357.52
930.871	303.68
931.242	294.32
931.614	366.88
931.986	287.3
932.357	345.81
932.729	289.64
933.1	350.5
933.471	359.86
933.843	338.79
934.214	259.21
934.585	310.71
934.956	308.37
935.327	331.77
935.698	308.37
936.069	259.21
936.44	345.81
936.811	348.15
937.182	261.55
937.552	310.71
937.923	329.43
938.293	268.58
938.664	284.96
939.034	268.58
939.405	289.64
939.775	294.32
940.145	352.84
940.516	308.37
940.886	315.39
941.256	343.47
941.626	336.45
941.996	315.39
942.366	343.47
942.735	329.43
943.105	362.2
943.475	324.75
943.845	306.03
944.214	376.24
944.584	261.55
944.953	324.75
945.323	338.79
945.692	371.56
946.061	369.22
946.43	301.34
946.8	385.6
947.169	327.09
947.538	310.71
947.907	341.13
948.276	350.5
948.645	331.77
949.013	296.66
949.382	284.96
949.751	294.32
950.119	378.58
950.488	247.51
950.857	371.56
951.225	303.68
951.593	331.77
951.962	317.73
952.33	327.09
952.698	357.52
953.066	313.05
953.434	313.05
953.802	320.07
954.17	324.75
954.538	369.22
954.906	289.64
955.274	280.28
955.642	303.68
956.009	291.98
956.377	345.81
956.744	366.88
957.112	324.75
957.479	294.32
957.847	331.77
958.214	315.39
958.581	378.58
958.948	371.56
959.315	294.32
959.683	313.05
960.05	329.43
960.416	270.92
960.783	217.08
961.15	373.9
961.517	308.37
961.884	369.22
962.25	277.94
962.617	284.96
962.983	315.39
963.35	254.53
963.716	303.68
964.082	287.3
964.449	331.77
964.815	291.98
965.181	317.73
965.547	317.73
965.913	310.71
966.279	322.41
966.645	341.13
967.011	296.66
967.377	324.75
967.742	331.77
968.108	364.54
968.474	373.9
968.839	301.34
969.205	315.39
969.57	331.77
969.935	301.34
970.301	376.24
970.666	373.9
971.031	371.56
971.396	299
971.761	387.94
972.126	313.05
972.491	320.07
972.856	310.71
973.221	273.26
973.586	280.28
973.95	350.5
974.315	336.45
974.679	345.81
975.044	336.45
975.408	296.66
975.773	284.96
976.137	291.98
976.501	376.24
976.866	348.15
977.23	320.07
977.594	345.81
977.958	303.68
978.322	345.81
978.686	364.54
979.049	308.37
979.413	268.58
979.777	364.54
980.141	306.03
980.504	287.3
980.868	273.26
981.231	301.34
981.595	277.94
981.958	338.79
982.321	315.39
982.684	331.77
983.048	345.81
983.411	348.15
983.774	345.81
984.137	334.11
984.5	327.09
984.862	366.88
985.225	378.58
985.588	324.75
985.951	366.88
986.313	249.85
986.676	322.41
987.038	355.18
987.401	301.34
987.763	294.32
988.125	329.43
988.488	378.58
988.85	362.2
989.212	327.09
989.574	331.77
989.936	284.96
990.298	280.28
990.66	306.03
991.022	352.84
991.383	299
991.745	364.54
992.107	301.34
992.468	306.03
992.83	287.3
993.191	352.84
993.553	226.45
993.914	313.05
994.275	296.66
994.637	352.84
994.998	296.66
995.359	308.37
995.72	341.13
996.081	306.03
996.442	329.43
996.803	343.47
997.163	324.75
997.524	378.58
997.885	343.47
998.245	313.05
998.606	343.47
998.966	306.03
999.327	256.87
999.687	338.79
1000.047	242.83
1000.408	273.26
1000.768	329.43
1001.128	252.19
1001.488	327.09
1001.848	446.46
1002.208	322.41
1002.568	327.09
1002.927	306.03
1003.287	310.71
1003.647	390.28
1004.007	313.05
1004.366	315.39
1004.726	259.21
1005.085	331.77
1005.444	413.69
1005.804	359.86
1006.163	352.84
1006.522	268.58
1006.881	313.05
1007.24	331.77
1007.599	317.73
1007.958	366.88
1008.317	338.79
1008.676	331.77
1009.035	359.86
1009.393	362.2
1009.752	364.54
1010.111	336.45
1010.469	341.13
1010.828	322.41
1011.186	310.71
1011.544	291.98
1011.903	287.3
1012.261	270.92
1012.619	303.68
1012.977	313.05
1013.335	261.55
1013.693	371.56
1014.051	212.4
1014.409	383.26
1014.767	256.87
1015.124	324.75
1015.482	338.79
1015.84	310.71
1016.197	254.53
1016.555	224.11
1016.912	357.52
1017.269	299
1017.627	355.18
1017.984	345.81
1018.341	231.13
1018.698	364.54
1019.055	268.58
1019.412	329.43
1019.769	352.84
1020.126	324.75
1020.483	320.07
1020.84	306.03
1021.196	313.05
1021.553	352.84
1021.909	287.3
1022.266	341.13
1022.622	287.3
1022.979	369.22
1023.335	334.11
1023.691	338.79
1024.047	317.73
1024.404	380.92
1024.76	322.41
1025.116	324.75
1025.472	331.77
1025.827	296.66
1026.183	329.43
1026.539	303.68
1026.895	282.62
1027.25	317.73
1027.606	357.52
1027.961	303.68
1028.317	313.05
1028.672	369.22
1029.028	306.03
1029.383	270.92
1029.738	313.05
1030.093	294.32
1030.448	256.87
1030.803	306.03
1031.158	268.58
1031.513	270.92
1031.868	345.81
1032.223	275.6
1032.577	310.71
1032.932	301.34
1033.287	334.11
1033.641	296.66
1033.996	308.37
1034.35	313.05
1034.704	364.54
1035.059	268.58
1035.413	329.43
1035.767	329.43
1036.121	329.43
