Data from Al_FLMS009871__441__14-30-11-040.txt Node

Date: Fri Mar 08 14:30:11 CST 2024
User: pe5414po
Spectrometer: FLMS00987
Trigger mode: 0
Integration Time (sec): 1.000000E-1
Scans to average: 1
Electric dark correction enabled: true
Nonlinearity correction enabled: false
Boxcar width: 0
XAxis mode: Wavelengths
Number of Pixels in Spectrum: 2048
>>>>>Begin Spectral Data<<<<<
188.938	-29.84
189.409	-29.84
189.879	-29.84
190.349	-62.61
190.819	-109.42
191.29	-100.06
191.76	-86.01
192.23	-97.72
192.7	-27.5
193.17	-64.95
193.64	-50.91
194.109	-29.84
194.579	-39.2
195.049	-13.46
195.519	38.03
195.988	40.37
196.458	54.42
196.927	87.18
197.397	73.14
197.866	108.25
198.336	108.25
198.805	176.13
199.274	136.34
199.744	176.13
200.213	218.25
200.682	190.17
201.151	218.25
201.62	241.66
202.089	218.25
202.558	309.54
203.027	267.41
203.495	215.91
203.964	213.57
204.433	290.81
204.902	253.36
205.37	251.02
205.839	346.98
206.307	283.79
206.776	323.58
207.244	323.58
207.712	283.79
208.181	276.77
208.649	290.81
209.117	354.01
209.585	260.38
210.053	267.41
210.521	283.79
210.989	328.26
211.457	283.79
211.925	283.79
212.393	232.3
212.861	323.58
213.328	304.85
213.796	258.04
214.264	253.36
214.731	293.15
215.199	279.11
215.666	269.75
216.133	279.11
216.601	304.85
217.068	248.68
217.535	283.79
218.003	251.02
218.47	288.47
218.937	227.62
219.404	293.15
219.871	304.85
220.338	208.89
220.805	283.79
221.271	225.28
221.738	262.73
222.205	307.2
222.671	281.45
223.138	346.98
223.605	281.45
224.071	276.77
224.538	311.88
225.004	234.64
225.47	229.96
225.937	244
226.403	227.62
226.869	258.04
227.335	239.32
227.801	321.24
228.267	239.32
228.733	342.3
229.199	307.2
229.665	218.25
230.131	267.41
230.597	222.94
231.062	279.11
231.528	283.79
231.994	314.22
232.459	330.6
232.925	269.75
233.39	269.75
233.856	262.73
234.321	293.15
234.786	229.96
235.252	185.49
235.717	241.66
236.182	155.06
236.647	304.85
237.112	307.2
237.577	265.07
238.042	288.47
238.507	222.94
238.972	288.47
239.436	255.7
239.901	281.45
240.366	316.56
240.83	279.11
241.295	293.15
241.76	253.36
242.224	304.85
242.688	321.24
243.153	255.7
243.617	314.22
244.081	314.22
244.545	255.7
245.01	295.49
245.474	300.17
245.938	255.7
246.402	316.56
246.866	220.6
247.33	269.75
247.793	281.45
248.257	286.13
248.721	316.56
249.185	283.79
249.648	274.43
250.112	262.73
250.575	288.47
251.039	283.79
251.502	314.22
251.965	309.54
252.429	332.94
252.892	260.38
253.355	323.58
253.818	344.64
254.281	309.54
254.744	288.47
255.207	260.38
255.67	321.24
256.133	232.3
256.596	258.04
257.059	255.7
257.522	311.88
257.984	281.45
258.447	307.2
258.909	251.02
259.372	286.13
259.834	215.91
260.297	225.28
260.759	227.62
261.221	297.83
261.684	246.34
262.146	309.54
262.608	234.64
263.07	304.85
263.532	293.15
263.994	332.94
264.456	337.62
264.918	276.77
265.38	260.38
265.842	314.22
266.303	307.2
266.765	351.67
267.227	251.02
267.688	311.88
268.15	293.15
268.611	339.96
269.072	227.62
269.534	227.62
269.995	262.73
270.456	300.17
270.918	262.73
271.379	309.54
271.84	239.32
272.301	276.77
272.762	272.09
273.223	328.26
273.684	286.13
274.144	311.88
274.605	311.88
275.066	309.54
275.527	295.49
275.987	293.15
276.448	304.85
276.908	304.85
277.369	304.85
277.829	321.24
278.289	281.45
278.75	358.69
279.21	288.47
279.67	297.83
280.13	276.77
280.59	295.49
281.05	304.85
281.51	288.47
281.97	283.79
282.43	330.6
282.89	288.47
283.35	283.79
283.809	279.11
284.269	304.85
284.729	295.49
285.188	283.79
285.648	290.81
286.107	251.02
286.567	321.24
287.026	335.28
287.485	281.45
287.944	309.54
288.404	274.43
288.863	272.09
289.322	265.07
289.781	300.17
290.24	337.62
290.699	323.58
291.158	304.85
291.616	258.04
292.075	318.9
292.534	309.54
292.992	269.75
293.451	325.92
293.91	321.24
294.368	332.94
294.827	290.81
295.285	236.98
295.743	311.88
296.202	267.41
296.66	316.56
297.118	309.54
297.576	375.07
298.034	239.32
298.492	302.51
298.95	260.38
299.408	295.49
299.866	351.67
300.324	307.2
300.781	337.62
301.239	368.05
301.697	321.24
302.154	330.6
302.612	255.7
303.069	295.49
303.527	300.17
303.984	286.13
304.441	332.94
304.899	300.17
305.356	297.83
305.813	328.26
306.27	311.88
306.727	265.07
307.184	248.68
307.641	349.32
308.098	304.85
308.555	295.49
309.012	328.26
309.468	354.01
309.925	262.73
310.382	316.56
310.838	255.7
311.295	290.81
311.751	330.6
312.208	276.77
312.664	391.45
313.12	300.17
313.577	370.39
314.033	328.26
314.489	325.92
314.945	316.56
315.401	351.67
315.857	293.15
316.313	323.58
316.769	321.24
317.225	321.24
317.681	279.11
318.136	272.09
318.592	288.47
319.048	304.85
319.503	323.58
319.959	302.51
320.414	281.45
320.869	302.51
321.325	344.64
321.78	377.41
322.235	244
322.691	281.45
323.146	314.22
323.601	288.47
324.056	281.45
324.511	262.73
324.966	323.58
325.421	368.05
325.875	302.51
326.33	286.13
326.785	253.36
327.24	400.82
327.694	295.49
328.149	276.77
328.603	368.05
329.058	276.77
329.512	255.7
329.966	236.98
330.421	330.6
330.875	337.62
331.329	321.24
331.783	295.49
332.237	342.3
332.691	328.26
333.145	309.54
333.599	272.09
334.053	307.2
334.507	321.24
334.96	267.41
335.414	258.04
335.868	361.03
336.321	288.47
336.775	314.22
337.228	311.88
337.682	335.28
338.135	349.32
338.588	293.15
339.042	354.01
339.495	290.81
339.948	316.56
340.401	375.07
340.854	295.49
341.307	325.92
341.76	187.83
342.213	302.51
342.666	276.77
343.119	283.79
343.571	274.43
344.024	318.9
344.477	295.49
344.929	358.69
345.382	370.39
345.834	234.64
346.287	248.68
346.739	335.28
347.191	281.45
347.644	363.37
348.096	234.64
348.548	279.11
349	316.56
349.452	323.58
349.904	358.69
350.356	365.71
350.808	311.88
351.26	307.2
351.711	297.83
352.163	328.26
352.615	286.13
353.066	332.94
353.518	382.09
353.969	265.07
354.421	272.09
354.872	307.2
355.324	293.15
355.775	293.15
356.226	346.98
356.677	229.96
357.128	325.92
357.579	248.68
358.03	356.35
358.481	375.07
358.932	297.83
359.383	349.32
359.834	293.15
360.285	281.45
360.735	309.54
361.186	293.15
361.637	328.26
362.087	323.58
362.538	286.13
362.988	267.41
363.438	253.36
363.889	375.07
364.339	311.88
364.789	354.01
365.239	354.01
365.689	276.77
366.139	328.26
366.589	318.9
367.039	330.6
367.489	368.05
367.939	377.41
368.389	337.62
368.839	314.22
369.288	323.58
369.738	295.49
370.187	337.62
370.637	295.49
371.086	307.2
371.536	335.28
371.985	339.96
372.434	309.54
372.884	311.88
373.333	302.51
373.782	321.24
374.231	309.54
374.68	328.26
375.129	356.35
375.578	309.54
376.027	244
376.475	337.62
376.924	337.62
377.373	323.58
377.822	304.85
378.27	323.58
378.719	346.98
379.167	318.9
379.616	349.32
380.064	293.15
380.512	344.64
380.961	295.49
381.409	290.81
381.857	309.54
382.305	300.17
382.753	274.43
383.201	363.37
383.649	267.41
384.097	286.13
384.545	323.58
384.992	295.49
385.44	382.09
385.888	344.64
386.335	297.83
386.783	279.11
387.231	283.79
387.678	349.32
388.125	339.96
388.573	339.96
389.02	302.51
389.467	328.26
389.914	295.49
390.362	346.98
390.809	337.62
391.256	314.22
391.703	318.9
392.15	349.32
392.596	295.49
393.043	356.35
393.49	349.32
393.937	253.36
394.383	342.3
394.83	354.01
395.276	295.49
395.723	286.13
396.169	342.3
396.616	260.38
397.062	358.69
397.508	302.51
397.954	236.98
398.401	269.75
398.847	297.83
399.293	332.94
399.739	337.62
400.185	332.94
400.631	307.2
401.076	260.38
401.522	363.37
401.968	314.22
402.414	288.47
402.859	354.01
403.305	297.83
403.75	330.6
404.196	349.32
404.641	293.15
405.086	330.6
405.532	400.82
405.977	276.77
406.422	342.3
406.867	300.17
407.312	346.98
407.757	302.51
408.202	358.69
408.647	358.69
409.092	309.54
409.537	244
409.982	361.03
410.426	351.67
410.871	384.43
411.316	370.39
411.76	304.85
412.205	307.2
412.649	335.28
413.093	314.22
413.538	330.6
413.982	339.96
414.426	302.51
414.87	307.2
415.314	265.07
415.758	290.81
416.202	300.17
416.646	318.9
417.09	321.24
417.534	281.45
417.978	398.48
418.421	258.04
418.865	323.58
419.309	248.68
419.752	300.17
420.196	302.51
420.639	232.3
421.083	344.64
421.526	316.56
421.969	393.8
422.412	323.58
422.856	251.02
423.299	311.88
423.742	311.88
424.185	318.9
424.628	236.98
425.071	316.56
425.513	276.77
425.956	318.9
426.399	351.67
426.842	314.22
427.284	354.01
427.727	283.79
428.169	309.54
428.612	274.43
429.054	335.28
429.497	321.24
429.939	356.35
430.381	332.94
430.823	337.62
431.265	311.88
431.707	253.36
432.149	304.85
432.591	344.64
433.033	323.58
433.475	281.45
433.917	337.62
434.359	222.94
434.8	293.15
435.242	368.05
435.684	342.3
436.125	286.13
436.567	297.83
437.008	281.45
437.449	318.9
437.891	293.15
438.332	321.24
438.773	339.96
439.214	332.94
439.656	332.94
440.097	332.94
440.538	323.58
440.978	276.77
441.419	330.6
441.86	302.51
442.301	349.32
442.742	283.79
443.182	293.15
443.623	253.36
444.063	267.41
444.504	332.94
444.944	323.58
445.385	342.3
445.825	346.98
446.265	246.34
446.706	330.6
447.146	330.6
447.586	405.5
448.026	323.58
448.466	351.67
448.906	328.26
449.346	309.54
449.786	272.09
450.225	335.28
450.665	288.47
451.105	337.62
451.544	384.43
451.984	365.71
452.424	288.47
452.863	325.92
453.302	304.85
453.742	328.26
454.181	309.54
454.62	302.51
455.059	288.47
455.499	293.15
455.938	365.71
456.377	356.35
456.816	351.67
457.254	288.47
457.693	337.62
458.132	412.52
458.571	304.85
459.01	330.6
459.448	274.43
459.887	375.07
460.325	309.54
460.764	325.92
461.202	403.16
461.641	300.17
462.079	281.45
462.517	337.62
462.955	274.43
463.393	328.26
463.832	346.98
464.27	253.36
464.708	337.62
465.145	276.77
465.583	323.58
466.021	346.98
466.459	328.26
466.897	300.17
467.334	316.56
467.772	339.96
468.209	351.67
468.647	323.58
469.084	295.49
469.522	358.69
469.959	314.22
470.396	349.32
470.833	279.11
471.271	316.56
471.708	290.81
472.145	307.2
472.582	351.67
473.019	288.47
473.456	297.83
473.892	342.3
474.329	344.64
474.766	255.7
475.202	339.96
475.639	447.63
476.076	274.43
476.512	358.69
476.949	281.45
477.385	286.13
477.821	283.79
478.258	361.03
478.694	346.98
479.13	365.71
479.566	316.56
480.002	337.62
480.438	358.69
480.874	314.22
481.31	379.75
481.746	279.11
482.181	332.94
482.617	356.35
483.053	279.11
483.488	297.83
483.924	316.56
484.36	293.15
484.795	356.35
485.23	325.92
485.666	307.2
486.101	363.37
486.536	300.17
486.971	337.62
487.407	335.28
487.842	358.69
488.277	377.41
488.712	361.03
489.146	258.04
489.581	307.2
490.016	295.49
490.451	286.13
490.885	349.32
491.32	255.7
491.755	297.83
492.189	302.51
492.624	288.47
493.058	379.75
493.492	272.09
493.927	311.88
494.361	356.35
494.795	269.75
495.229	302.51
495.663	309.54
496.097	272.09
496.531	356.35
496.965	325.92
497.399	323.58
497.833	370.39
498.266	304.85
498.7	272.09
499.134	246.34
499.567	316.56
500.001	307.2
500.434	274.43
500.868	309.54
501.301	361.03
501.734	297.83
502.168	377.41
502.601	304.85
503.034	332.94
503.467	321.24
503.9	349.32
504.333	337.62
504.766	279.11
505.199	354.01
505.632	300.17
506.064	304.85
506.497	318.9
506.93	358.69
507.362	255.7
507.795	332.94
508.227	321.24
508.66	328.26
509.092	286.13
509.524	272.09
509.956	307.2
510.389	281.45
510.821	314.22
511.253	414.86
511.685	304.85
512.117	335.28
512.549	332.94
512.981	316.56
513.412	262.73
513.844	339.96
514.276	302.51
514.707	293.15
515.139	410.18
515.571	248.68
516.002	384.43
516.433	407.84
516.865	262.73
517.296	311.88
517.727	307.2
518.159	351.67
518.59	372.73
519.021	342.3
519.452	309.54
519.883	321.24
520.314	321.24
520.744	358.69
521.175	302.51
521.606	248.68
522.037	328.26
522.467	304.85
522.898	318.9
523.328	309.54
523.759	311.88
524.189	323.58
524.62	349.32
525.05	346.98
525.48	258.04
525.91	267.41
526.341	349.32
526.771	304.85
527.201	314.22
527.631	358.69
528.061	302.51
528.49	286.13
528.92	386.77
529.35	255.7
529.78	337.62
530.209	295.49
530.639	363.37
531.068	375.07
531.498	332.94
531.927	328.26
532.357	358.69
532.786	325.92
533.215	393.8
533.644	330.6
534.074	342.3
534.503	361.03
534.932	316.56
535.361	281.45
535.79	304.85
536.218	344.64
536.647	307.2
537.076	325.92
537.505	300.17
537.933	354.01
538.362	316.56
538.79	316.56
539.219	311.88
539.647	328.26
540.076	349.32
540.504	279.11
540.932	363.37
541.36	309.54
541.788	342.3
542.217	351.67
542.645	307.2
543.073	269.75
543.5	267.41
543.928	358.69
544.356	339.96
544.784	349.32
545.211	307.2
545.639	279.11
546.067	318.9
546.494	304.85
546.922	318.9
547.349	269.75
547.776	269.75
548.204	337.62
548.631	283.79
549.058	328.26
549.485	349.32
549.912	321.24
550.339	262.73
550.766	267.41
551.193	323.58
551.62	286.13
552.047	346.98
552.474	304.85
552.9	307.2
553.327	339.96
553.754	339.96
554.18	337.62
554.607	321.24
555.033	321.24
555.459	342.3
555.886	332.94
556.312	328.26
556.738	290.81
557.164	304.85
557.59	344.64
558.016	405.5
558.442	309.54
558.868	332.94
559.294	325.92
559.72	269.75
560.145	328.26
560.571	337.62
560.997	302.51
561.422	311.88
561.848	316.56
562.273	314.22
562.699	314.22
563.124	328.26
563.549	309.54
563.974	316.56
564.4	307.2
564.825	330.6
565.25	346.98
565.675	304.85
566.1	311.88
566.525	344.64
566.95	318.9
567.374	342.3
567.799	274.43
568.224	267.41
568.648	302.51
569.073	328.26
569.497	321.24
569.922	337.62
570.346	330.6
570.771	304.85
571.195	337.62
571.619	346.98
572.043	300.17
572.467	309.54
572.891	274.43
573.315	351.67
573.739	337.62
574.163	361.03
574.587	262.73
575.011	314.22
575.435	279.11
575.858	328.26
576.282	358.69
576.705	403.16
577.129	368.05
577.552	339.96
577.976	300.17
578.399	351.67
578.822	337.62
579.245	323.58
579.669	361.03
580.092	290.81
580.515	307.2
580.938	314.22
581.361	349.32
581.784	410.18
582.206	267.41
582.629	311.88
583.052	316.56
583.474	309.54
583.897	368.05
584.32	311.88
584.742	323.58
585.165	325.92
585.587	309.54
586.009	309.54
586.431	295.49
586.854	307.2
587.276	307.2
587.698	309.54
588.12	323.58
588.542	377.41
588.964	325.92
589.386	325.92
589.807	314.22
590.229	344.64
590.651	267.41
591.073	363.37
591.494	354.01
591.916	297.83
592.337	241.66
592.759	339.96
593.18	325.92
593.601	311.88
594.022	246.34
594.444	302.51
594.865	220.6
595.286	283.79
595.707	229.96
596.128	300.17
596.549	365.71
596.97	302.51
597.39	342.3
597.811	339.96
598.232	365.71
598.652	258.04
599.073	300.17
599.494	316.56
599.914	295.49
600.334	323.58
600.755	297.83
601.175	286.13
601.595	363.37
602.015	349.32
602.436	325.92
602.856	442.95
603.276	307.2
603.696	283.79
604.115	253.36
604.535	297.83
604.955	318.9
605.375	349.32
605.794	398.48
606.214	328.26
606.634	358.69
607.053	342.3
607.473	323.58
607.892	316.56
608.311	276.77
608.731	328.26
609.15	297.83
609.569	414.86
609.988	363.37
610.407	344.64
610.826	286.13
611.245	358.69
611.664	361.03
612.083	358.69
612.501	302.51
612.92	330.6
613.339	361.03
613.757	354.01
614.176	332.94
614.594	267.41
615.013	314.22
615.431	307.2
615.85	316.56
616.268	316.56
616.686	283.79
617.104	321.24
617.522	344.64
617.94	302.51
618.358	372.73
618.776	328.26
619.194	272.09
619.612	307.2
620.03	290.81
620.447	339.96
620.865	286.13
621.282	281.45
621.7	307.2
622.117	272.09
622.535	281.45
622.952	274.43
623.369	328.26
623.787	344.64
624.204	314.22
624.621	239.32
625.038	342.3
625.455	304.85
625.872	302.51
626.289	311.88
626.706	288.47
627.123	344.64
627.539	349.32
627.956	309.54
628.373	342.3
628.789	279.11
629.206	363.37
629.622	304.85
630.038	286.13
630.455	307.2
630.871	368.05
631.287	265.07
631.703	335.28
632.12	293.15
632.536	297.83
632.952	290.81
633.368	309.54
633.783	349.32
634.199	323.58
634.615	325.92
635.031	328.26
635.446	328.26
635.862	323.58
636.277	302.51
636.693	382.09
637.108	300.17
637.524	342.3
637.939	274.43
638.354	318.9
638.77	288.47
639.185	361.03
639.6	344.64
640.015	346.98
640.43	262.73
640.845	344.64
641.259	344.64
641.674	349.32
642.089	253.36
642.504	361.03
642.918	339.96
643.333	321.24
643.747	393.8
644.162	314.22
644.576	349.32
644.991	323.58
645.405	323.58
645.819	337.62
646.233	358.69
646.647	356.35
647.061	302.51
647.475	316.56
647.889	351.67
648.303	346.98
648.717	337.62
649.131	318.9
649.545	330.6
649.958	316.56
650.372	328.26
650.785	332.94
651.199	290.81
651.612	389.11
652.026	288.47
652.439	332.94
652.852	293.15
653.266	309.54
653.679	335.28
654.092	293.15
654.505	344.64
654.918	332.94
655.331	318.9
655.744	274.43
656.156	314.22
656.569	321.24
656.982	293.15
657.394	342.3
657.807	318.9
658.22	405.5
658.632	304.85
659.044	253.36
659.457	372.73
659.869	281.45
660.281	365.71
660.693	255.7
661.106	323.58
661.518	283.79
661.93	309.54
662.342	318.9
662.754	314.22
663.165	335.28
663.577	365.71
663.989	370.39
664.401	286.13
664.812	265.07
665.224	344.64
665.635	286.13
666.047	288.47
666.458	307.2
666.869	267.41
667.281	325.92
667.692	316.56
668.103	288.47
668.514	311.88
668.925	330.6
669.336	382.09
669.747	311.88
670.158	302.51
670.569	332.94
670.979	276.77
671.39	330.6
671.801	281.45
672.211	318.9
672.622	297.83
673.032	279.11
673.443	286.13
673.853	314.22
674.263	379.75
674.674	335.28
675.084	311.88
675.494	288.47
675.904	288.47
676.314	354.01
676.724	316.56
677.134	304.85
677.544	405.5
677.953	283.79
678.363	279.11
678.773	335.28
679.182	344.64
679.592	276.77
680.001	337.62
680.411	241.66
680.82	283.79
681.23	339.96
681.639	302.51
682.048	290.81
682.457	302.51
682.866	332.94
683.275	295.49
683.684	314.22
684.093	318.9
684.502	332.94
684.911	372.73
685.32	302.51
685.728	363.37
686.137	361.03
686.546	321.24
686.954	339.96
687.363	286.13
687.771	349.32
688.179	311.88
688.588	314.22
688.996	300.17
689.404	279.11
689.812	346.98
690.22	342.3
690.628	358.69
691.036	314.22
691.444	279.11
691.852	290.81
692.26	386.77
692.667	318.9
693.075	227.62
693.483	372.73
693.89	286.13
694.298	323.58
694.705	276.77
695.112	304.85
695.52	316.56
695.927	293.15
696.334	307.2
696.741	307.2
697.148	325.92
697.555	316.56
697.962	332.94
698.369	358.69
698.776	321.24
699.183	330.6
699.59	227.62
699.996	293.15
700.403	332.94
700.81	314.22
701.216	318.9
701.623	384.43
702.029	267.41
702.435	311.88
702.842	330.6
703.248	290.81
703.654	351.67
704.06	232.3
704.466	276.77
704.872	328.26
705.278	389.11
705.684	382.09
706.09	321.24
706.496	297.83
706.901	267.41
707.307	236.98
707.712	311.88
708.118	328.26
708.523	316.56
708.929	307.2
709.334	290.81
709.74	290.81
710.145	379.75
710.55	321.24
710.955	316.56
711.36	323.58
711.765	332.94
712.17	274.43
712.575	281.45
712.98	911.05
713.385	358.69
713.789	330.6
714.194	304.85
714.599	323.58
715.003	267.41
715.408	314.22
715.812	361.03
716.217	335.28
716.621	321.24
717.025	330.6
717.429	349.32
717.833	283.79
718.238	297.83
718.642	375.07
719.046	295.49
719.449	351.67
719.853	365.71
720.257	307.2
720.661	356.35
721.065	311.88
721.468	349.32
721.872	318.9
722.275	316.56
722.679	332.94
723.082	328.26
723.485	281.45
723.889	346.98
724.292	307.2
724.695	260.38
725.098	258.04
725.501	300.17
725.904	309.54
726.307	311.88
726.71	251.02
727.113	302.51
727.516	379.75
727.918	337.62
728.321	370.39
728.724	335.28
729.126	314.22
729.529	302.51
729.931	286.13
730.333	293.15
730.736	288.47
731.138	321.24
731.54	272.09
731.942	325.92
732.344	375.07
732.746	293.15
733.148	318.9
733.55	318.9
733.952	321.24
734.354	290.81
734.756	262.73
735.157	300.17
735.559	262.73
735.96	276.77
736.362	281.45
736.763	318.9
737.165	309.54
737.566	323.58
737.967	358.69
738.368	300.17
738.77	332.94
739.171	328.26
739.572	349.32
739.973	375.07
740.374	276.77
740.774	316.56
741.175	361.03
741.576	361.03
741.977	309.54
742.377	316.56
742.778	391.45
743.178	288.47
743.579	307.2
743.979	267.41
744.379	297.83
744.78	293.15
745.18	344.64
745.58	297.83
745.98	283.79
746.38	265.07
746.78	276.77
747.18	279.11
747.58	288.47
747.98	295.49
748.38	361.03
748.779	302.51
749.179	330.6
749.578	368.05
749.978	358.69
750.377	325.92
750.777	309.54
751.176	332.94
751.575	323.58
751.975	318.9
752.374	335.28
752.773	361.03
753.172	307.2
753.571	377.41
753.97	295.49
754.369	307.2
754.768	344.64
755.166	311.88
755.565	323.58
755.964	246.34
756.362	265.07
756.761	325.92
757.159	342.3
757.558	274.43
757.956	375.07
758.354	365.71
758.753	344.64
759.151	246.34
759.549	267.41
759.947	290.81
760.345	379.75
760.743	382.09
761.141	314.22
761.539	325.92
761.936	337.62
762.334	321.24
762.732	400.82
763.129	269.75
763.527	311.88
763.924	225.28
764.322	248.68
764.719	330.6
765.117	269.75
765.514	342.3
765.911	290.81
766.308	382.09
766.705	365.71
767.102	283.79
767.499	311.88
767.896	267.41
768.293	302.51
768.69	309.54
769.086	281.45
769.483	201.87
769.88	274.43
770.276	342.3
770.673	281.45
771.069	328.26
771.466	307.2
771.862	262.73
772.258	260.38
772.654	215.91
773.05	258.04
773.447	325.92
773.843	318.9
774.239	279.11
774.634	332.94
775.03	222.94
775.426	311.88
775.822	314.22
776.218	321.24
776.613	321.24
777.009	344.64
777.404	304.85
777.8	274.43
778.195	346.98
778.59	286.13
778.986	236.98
779.381	311.88
779.776	314.22
780.171	295.49
780.566	344.64
780.961	318.9
781.356	346.98
781.751	349.32
782.146	279.11
782.54	344.64
782.935	351.67
783.33	304.85
783.724	262.73
784.119	330.6
784.513	325.92
784.908	377.41
785.302	335.28
785.696	276.77
786.09	318.9
786.485	325.92
786.879	346.98
787.273	363.37
787.667	363.37
788.061	314.22
788.454	344.64
788.848	300.17
789.242	321.24
789.636	330.6
790.029	302.51
790.423	283.79
790.816	337.62
791.21	309.54
791.603	318.9
791.997	379.75
792.39	244
792.783	300.17
793.176	229.96
793.569	276.77
793.962	274.43
794.355	295.49
794.748	332.94
795.141	279.11
795.534	283.79
795.927	318.9
796.319	297.83
796.712	321.24
797.105	325.92
797.497	346.98
797.89	337.62
798.282	339.96
798.674	351.67
799.067	335.28
799.459	304.85
799.851	323.58
800.243	314.22
800.635	396.14
801.027	325.92
801.419	279.11
801.811	297.83
802.203	358.69
802.594	295.49
802.986	382.09
803.378	325.92
803.769	311.88
804.161	309.54
804.552	349.32
804.944	297.83
805.335	288.47
805.726	290.81
806.118	365.71
806.509	351.67
806.9	339.96
807.291	358.69
807.682	328.26
808.073	346.98
808.464	269.75
808.855	332.94
809.245	346.98
809.636	314.22
810.027	258.04
810.417	330.6
810.808	330.6
811.198	258.04
811.589	335.28
811.979	386.77
812.369	272.09
812.759	300.17
813.15	339.96
813.54	330.6
813.93	300.17
814.32	295.49
814.71	337.62
815.1	286.13
815.489	276.77
815.879	295.49
816.269	311.88
816.658	361.03
817.048	302.51
817.438	368.05
817.827	372.73
818.216	286.13
818.606	297.83
818.995	286.13
819.384	290.81
819.773	316.56
820.163	349.32
820.552	288.47
820.941	321.24
821.33	337.62
821.718	344.64
822.107	201.87
822.496	288.47
822.885	290.81
823.273	361.03
823.662	321.24
824.05	307.2
824.439	330.6
824.827	309.54
825.216	344.64
825.604	318.9
825.992	335.28
826.38	351.67
826.768	337.62
827.156	386.77
827.544	258.04
827.932	339.96
828.32	269.75
828.708	290.81
829.096	244
829.483	358.69
829.871	286.13
830.259	316.56
830.646	328.26
831.034	337.62
831.421	300.17
831.808	382.09
832.196	283.79
832.583	290.81
832.97	290.81
833.357	304.85
833.744	325.92
834.131	267.41
834.518	272.09
834.905	332.94
835.292	297.83
835.678	302.51
836.065	269.75
836.452	220.6
836.838	227.62
837.225	283.79
837.611	258.04
837.998	321.24
838.384	311.88
838.77	318.9
839.157	304.85
839.543	349.32
839.929	281.45
840.315	244
840.701	314.22
841.087	307.2
841.473	309.54
841.858	346.98
842.244	365.71
842.63	311.88
843.015	293.15
843.401	576.36
843.787	379.75
844.172	276.77
844.557	286.13
844.943	370.39
845.328	297.83
845.713	246.34
846.098	288.47
846.483	288.47
846.868	260.38
847.253	339.96
847.638	337.62
848.023	241.66
848.408	354.01
848.793	293.15
849.177	281.45
849.562	309.54
849.947	307.2
850.331	321.24
850.715	281.45
851.1	323.58
851.484	361.03
851.868	265.07
852.253	328.26
852.637	253.36
853.021	316.56
853.405	288.47
853.789	342.3
854.173	356.35
854.557	304.85
854.94	344.64
855.324	265.07
855.708	283.79
856.091	290.81
856.475	269.75
856.858	283.79
857.242	332.94
857.625	281.45
858.009	290.81
858.392	274.43
858.775	351.67
859.158	288.47
859.541	332.94
859.924	365.71
860.307	295.49
860.69	283.79
861.073	349.32
861.456	302.51
861.838	272.09
862.221	311.88
862.604	318.9
862.986	342.3
863.369	361.03
863.751	314.22
864.133	309.54
864.516	281.45
864.898	293.15
865.28	269.75
865.662	368.05
866.044	300.17
866.426	332.94
866.808	318.9
867.19	311.88
867.572	300.17
867.954	337.62
868.336	311.88
868.717	332.94
869.099	300.17
869.48	323.58
869.862	328.26
870.243	332.94
870.625	288.47
871.006	323.58
871.387	311.88
871.768	300.17
872.149	283.79
872.53	330.6
872.911	321.24
873.292	337.62
873.673	300.17
874.054	332.94
874.435	276.77
874.815	370.39
875.196	379.75
875.577	295.49
875.957	293.15
876.338	269.75
876.718	335.28
877.098	265.07
877.479	325.92
877.859	309.54
878.239	321.24
878.619	339.96
878.999	370.39
879.379	302.51
879.759	375.07
880.139	393.8
880.519	356.35
880.898	316.56
881.278	351.67
881.658	323.58
882.037	332.94
882.417	318.9
882.796	302.51
883.176	302.51
883.555	307.2
883.934	363.37
884.313	272.09
884.693	286.13
885.072	276.77
885.451	400.82
885.83	288.47
886.209	290.81
886.587	288.47
886.966	283.79
887.345	349.32
887.724	288.47
888.102	304.85
888.481	293.15
888.859	276.77
889.238	337.62
889.616	293.15
889.994	274.43
890.373	304.85
890.751	293.15
891.129	318.9
891.507	309.54
891.885	346.98
892.263	321.24
892.641	361.03
893.019	286.13
893.396	323.58
893.774	337.62
894.152	258.04
894.529	302.51
894.907	260.38
895.284	302.51
895.662	304.85
896.039	307.2
896.416	309.54
896.794	307.2
897.171	351.67
897.548	330.6
897.925	325.92
898.302	281.45
898.679	302.51
899.056	251.02
899.433	314.22
899.809	265.07
900.186	342.3
900.563	342.3
900.939	396.14
901.316	293.15
901.692	328.26
902.069	246.34
902.445	335.28
902.821	318.9
903.197	262.73
903.574	356.35
903.95	356.35
904.326	391.45
904.702	389.11
905.078	258.04
905.454	314.22
905.829	332.94
906.205	316.56
906.581	218.25
906.956	372.73
907.332	344.64
907.707	265.07
908.083	372.73
908.458	342.3
908.833	316.56
909.209	279.11
909.584	262.73
909.959	386.77
910.334	307.2
910.709	302.51
911.084	297.83
911.459	239.32
911.834	290.81
912.209	288.47
912.583	346.98
912.958	311.88
913.333	265.07
913.707	323.58
914.082	297.83
914.456	332.94
914.83	337.62
915.205	342.3
915.579	279.11
915.953	316.56
916.327	335.28
916.701	379.75
917.075	339.96
917.449	335.28
917.823	302.51
918.197	265.07
918.571	297.83
918.944	267.41
919.318	330.6
919.692	286.13
920.065	267.41
920.438	307.2
920.812	255.7
921.185	332.94
921.558	311.88
921.932	330.6
922.305	386.77
922.678	356.35
923.051	311.88
923.424	304.85
923.797	304.85
924.17	328.26
924.542	258.04
924.915	286.13
925.288	368.05
925.661	325.92
926.033	337.62
926.406	297.83
926.778	335.28
927.15	356.35
927.523	335.28
927.895	276.77
928.267	288.47
928.639	293.15
929.011	328.26
929.383	269.75
929.755	358.69
930.127	288.47
930.499	281.45
930.871	295.49
931.242	279.11
931.614	356.35
931.986	302.51
932.357	351.67
932.729	335.28
933.1	325.92
933.471	304.85
933.843	267.41
934.214	311.88
934.585	302.51
934.956	269.75
935.327	325.92
935.698	241.66
936.069	304.85
936.44	253.36
936.811	236.98
937.182	293.15
937.552	297.83
937.923	279.11
938.293	309.54
938.664	328.26
939.034	262.73
939.405	279.11
939.775	344.64
940.145	309.54
940.516	304.85
940.886	300.17
941.256	302.51
941.626	325.92
941.996	314.22
942.366	321.24
942.735	328.26
943.105	276.77
943.475	302.51
943.845	302.51
944.214	342.3
944.584	300.17
944.953	302.51
945.323	309.54
945.692	281.45
946.061	377.41
946.43	295.49
946.8	318.9
947.169	384.43
947.538	300.17
947.907	272.09
948.276	260.38
948.645	267.41
949.013	300.17
949.382	258.04
949.751	323.58
950.119	255.7
950.488	316.56
950.857	318.9
951.225	260.38
951.593	307.2
951.962	286.13
952.33	372.73
952.698	342.3
953.066	325.92
953.434	302.51
953.802	307.2
954.17	279.11
954.538	330.6
954.906	316.56
955.274	248.68
955.642	283.79
956.009	307.2
956.377	281.45
956.744	265.07
957.112	269.75
957.479	239.32
957.847	260.38
958.214	295.49
958.581	276.77
958.948	349.32
959.315	321.24
959.683	307.2
960.05	358.69
960.416	325.92
960.783	295.49
961.15	314.22
961.517	349.32
961.884	351.67
962.25	354.01
962.617	344.64
962.983	297.83
963.35	351.67
963.716	297.83
964.082	279.11
964.449	311.88
964.815	325.92
965.181	335.28
965.547	349.32
965.913	265.07
966.279	286.13
966.645	288.47
967.011	302.51
967.377	318.9
967.742	295.49
968.108	335.28
968.474	358.69
968.839	220.6
969.205	356.35
969.57	283.79
969.935	316.56
970.301	304.85
970.666	358.69
971.031	323.58
971.396	286.13
971.761	307.2
972.126	307.2
972.491	290.81
972.856	344.64
973.221	288.47
973.586	335.28
973.95	339.96
974.315	314.22
974.679	283.79
975.044	269.75
975.408	302.51
975.773	295.49
976.137	330.6
976.501	258.04
976.866	279.11
977.23	290.81
977.594	354.01
977.958	332.94
978.322	227.62
978.686	288.47
979.049	304.85
979.413	344.64
979.777	339.96
980.141	304.85
980.504	311.88
980.868	288.47
981.231	279.11
981.595	215.91
981.958	330.6
982.321	276.77
982.684	293.15
983.048	368.05
983.411	300.17
983.774	290.81
984.137	274.43
984.5	346.98
984.862	342.3
985.225	314.22
985.588	295.49
985.951	267.41
986.313	286.13
986.676	363.37
987.038	316.56
987.401	311.88
987.763	311.88
988.125	260.38
988.488	311.88
988.85	311.88
989.212	304.85
989.574	342.3
989.936	339.96
990.298	323.58
990.66	323.58
991.022	269.75
991.383	311.88
991.745	342.3
992.107	297.83
992.468	325.92
992.83	330.6
993.191	290.81
993.553	349.32
993.914	307.2
994.275	241.66
994.637	304.85
994.998	314.22
995.359	290.81
995.72	283.79
996.081	251.02
996.442	400.82
996.803	307.2
997.163	323.58
997.524	318.9
997.885	279.11
998.245	363.37
998.606	269.75
998.966	368.05
999.327	337.62
999.687	316.56
1000.047	325.92
1000.408	311.88
1000.768	328.26
1001.128	375.07
1001.488	283.79
1001.848	330.6
1002.208	328.26
1002.568	253.36
1002.927	295.49
1003.287	272.09
1003.647	346.98
1004.007	295.49
1004.366	262.73
1004.726	236.98
1005.085	295.49
1005.444	309.54
1005.804	354.01
1006.163	248.68
1006.522	328.26
1006.881	293.15
1007.24	356.35
1007.599	335.28
1007.958	349.32
1008.317	379.75
1008.676	375.07
1009.035	281.45
1009.393	335.28
1009.752	304.85
1010.111	382.09
1010.469	332.94
1010.828	309.54
1011.186	335.28
1011.544	269.75
1011.903	241.66
1012.261	297.83
1012.619	332.94
1012.977	335.28
1013.335	372.73
1013.693	321.24
1014.051	344.64
1014.409	325.92
1014.767	405.5
1015.124	358.69
1015.482	309.54
1015.84	354.01
1016.197	339.96
1016.555	290.81
1016.912	304.85
1017.269	286.13
1017.627	302.51
1017.984	300.17
1018.341	332.94
1018.698	311.88
1019.055	325.92
1019.412	295.49
1019.769	290.81
1020.126	288.47
1020.483	379.75
1020.84	307.2
1021.196	297.83
1021.553	328.26
1021.909	316.56
1022.266	297.83
1022.622	260.38
1022.979	302.51
1023.335	421.88
1023.691	311.88
1024.047	344.64
1024.404	260.38
1024.76	267.41
1025.116	337.62
1025.472	314.22
1025.827	293.15
1026.183	288.47
1026.539	269.75
1026.895	281.45
1027.25	288.47
1027.606	267.41
1027.961	307.2
1028.317	325.92
1028.672	309.54
1029.028	335.28
1029.383	339.96
1029.738	251.02
1030.093	316.56
1030.448	290.81
1030.803	283.79
1031.158	234.64
1031.513	349.32
1031.868	339.96
1032.223	253.36
1032.577	290.81
1032.932	262.73
1033.287	332.94
1033.641	365.71
1033.996	272.09
1034.35	314.22
1034.704	286.13
1035.059	307.2
1035.413	361.03
1035.767	361.03
1036.121	361.03
