Data from Al_FLMS009871__442__14-30-11-140.txt Node

Date: Fri Mar 08 14:30:11 CST 2024
User: pe5414po
Spectrometer: FLMS00987
Trigger mode: 0
Integration Time (sec): 1.000000E-1
Scans to average: 1
Electric dark correction enabled: true
Nonlinearity correction enabled: false
Boxcar width: 0
XAxis mode: Wavelengths
Number of Pixels in Spectrum: 2048
>>>>>Begin Spectral Data<<<<<
188.938	-119.37
189.409	-119.37
189.879	-119.37
190.349	-18.72
190.819	-112.35
191.29	-81.92
191.76	-72.56
192.23	-98.3
192.7	-77.24
193.17	-86.6
193.64	-86.6
194.109	-35.11
194.579	-4.68
195.049	18.72
195.519	-0
195.988	-18.72
196.458	72.56
196.927	23.41
197.397	175.54
197.866	114.69
198.336	156.82
198.805	210.65
199.274	135.75
199.744	257.46
200.213	208.31
200.682	234.05
201.151	224.69
201.62	238.73
202.089	271.5
202.558	287.89
203.027	259.8
203.495	250.44
203.964	280.86
204.433	362.78
204.902	280.86
205.37	285.55
205.839	262.14
206.307	231.71
206.776	266.82
207.244	315.97
207.712	304.27
208.181	334.7
208.649	299.59
209.117	280.86
209.585	294.91
210.053	337.04
210.521	332.36
210.989	278.52
211.457	269.16
211.925	266.82
212.393	311.29
212.861	313.63
213.328	327.67
213.796	294.91
214.264	304.27
214.731	301.93
215.199	248.1
215.666	297.25
216.133	304.27
216.601	266.82
217.068	255.12
217.535	238.73
218.003	262.14
218.47	290.23
218.937	229.37
219.404	269.16
219.871	252.78
220.338	264.48
220.805	297.25
221.271	308.95
221.738	304.27
222.205	320.65
222.671	259.8
223.138	262.14
223.605	297.25
224.071	276.18
224.538	348.74
225.004	299.59
225.47	264.48
225.937	224.69
226.403	266.82
226.869	301.93
227.335	222.35
227.801	273.84
228.267	278.52
228.733	224.69
229.199	236.39
229.665	294.91
230.131	301.93
230.597	294.91
231.062	236.39
231.528	264.48
231.994	294.91
232.459	259.8
232.925	248.1
233.39	287.89
233.856	297.25
234.321	280.86
234.786	271.5
235.252	266.82
235.717	201.29
236.182	280.86
236.647	297.25
237.112	245.76
237.577	276.18
238.042	304.27
238.507	297.25
238.972	285.55
239.436	227.03
239.901	252.78
240.366	243.42
240.83	294.91
241.295	285.55
241.76	292.57
242.224	283.2
242.688	287.89
243.153	238.73
243.617	262.14
244.081	245.76
244.545	278.52
245.01	266.82
245.474	243.42
245.938	278.52
246.402	264.48
246.866	308.95
247.33	276.18
247.793	297.25
248.257	327.67
248.721	315.97
249.185	292.57
249.648	248.1
250.112	257.46
250.575	203.63
251.039	304.27
251.502	353.42
251.965	271.5
252.429	285.55
252.892	308.95
253.355	313.63
253.818	365.12
254.281	259.8
254.744	346.4
255.207	297.25
255.67	337.04
256.133	320.65
256.596	304.27
257.059	245.76
257.522	262.14
257.984	241.08
258.447	348.74
258.909	318.31
259.372	241.08
259.834	325.33
260.297	271.5
260.759	287.89
261.221	292.57
261.684	308.95
262.146	266.82
262.608	292.57
263.07	294.91
263.532	250.44
263.994	259.8
264.456	276.18
264.918	259.8
265.38	248.1
265.842	322.99
266.303	271.5
266.765	318.31
267.227	243.42
267.688	290.23
268.15	308.95
268.611	264.48
269.072	255.12
269.534	292.57
269.995	297.25
270.456	255.12
270.918	330.02
271.379	353.42
271.84	320.65
272.301	308.95
272.762	320.65
273.223	344.06
273.684	308.95
274.144	325.33
274.605	264.48
275.066	292.57
275.527	346.4
275.987	255.12
276.448	313.63
276.908	306.61
277.369	362.78
277.829	255.12
278.289	264.48
278.75	290.23
279.21	290.23
279.67	262.14
280.13	269.16
280.59	292.57
281.05	311.29
281.51	330.02
281.97	348.74
282.43	346.4
282.89	278.52
283.35	315.97
283.809	320.65
284.269	297.25
284.729	287.89
285.188	280.86
285.648	322.99
286.107	227.03
286.567	313.63
287.026	304.27
287.485	353.42
287.944	294.91
288.404	325.33
288.863	294.91
289.322	308.95
289.781	308.95
290.24	341.72
290.699	383.85
291.158	308.95
291.616	344.06
292.075	264.48
292.534	271.5
292.992	278.52
293.451	325.33
293.91	262.14
294.368	264.48
294.827	376.83
295.285	308.95
295.743	308.95
296.202	278.52
296.66	222.35
297.118	339.38
297.576	325.33
298.034	264.48
298.492	318.31
298.95	299.59
299.408	287.89
299.866	294.91
300.324	367.46
300.781	348.74
301.239	283.2
301.697	318.31
302.154	243.42
302.612	330.02
303.069	301.93
303.527	334.7
303.984	339.38
304.441	259.8
304.899	372.15
305.356	236.39
305.813	337.04
306.27	306.61
306.727	276.18
307.184	290.23
307.641	311.29
308.098	353.42
308.555	271.5
309.012	332.36
309.468	297.25
309.925	315.97
310.382	280.86
310.838	315.97
311.295	313.63
311.751	299.59
312.208	299.59
312.664	236.39
313.12	327.67
313.577	332.36
314.033	358.1
314.489	231.71
314.945	273.84
315.401	339.38
315.857	322.99
316.313	292.57
316.769	304.27
317.225	311.29
317.681	400.23
318.136	318.31
318.592	367.46
319.048	351.08
319.503	320.65
319.959	322.99
320.414	306.61
320.869	255.12
321.325	308.95
321.78	283.2
322.235	238.73
322.691	294.91
323.146	283.2
323.601	344.06
324.056	292.57
324.511	351.08
324.966	332.36
325.421	311.29
325.875	280.86
326.33	320.65
326.785	294.91
327.24	351.08
327.694	334.7
328.149	287.89
328.603	311.29
329.058	271.5
329.512	318.31
329.966	332.36
330.421	262.14
330.875	311.29
331.329	344.06
331.783	381.51
332.237	322.99
332.691	297.25
333.145	320.65
333.599	374.49
334.053	294.91
334.507	351.08
334.96	337.04
335.414	330.02
335.868	315.97
336.321	285.55
336.775	332.36
337.228	250.44
337.682	334.7
338.135	299.59
338.588	304.27
339.042	351.08
339.495	313.63
339.948	341.72
340.401	330.02
340.854	308.95
341.307	262.14
341.76	341.72
342.213	351.08
342.666	320.65
343.119	278.52
343.571	306.61
344.024	346.4
344.477	379.17
344.929	292.57
345.382	294.91
345.834	355.76
346.287	297.25
346.739	360.44
347.191	311.29
347.644	280.86
348.096	325.33
348.548	337.04
349	337.04
349.452	325.33
349.904	292.57
350.356	313.63
350.808	362.78
351.26	353.42
351.711	294.91
352.163	315.97
352.615	346.4
353.066	346.4
353.518	290.23
353.969	280.86
354.421	355.76
354.872	334.7
355.324	362.78
355.775	334.7
356.226	400.23
356.677	320.65
357.128	327.67
357.579	322.99
358.03	308.95
358.481	355.76
358.932	255.12
359.383	255.12
359.834	346.4
360.285	306.61
360.735	330.02
361.186	372.15
361.637	330.02
362.087	301.93
362.538	285.55
362.988	334.7
363.438	257.46
363.889	320.65
364.339	348.74
364.789	294.91
365.239	257.46
365.689	313.63
366.139	320.65
366.589	325.33
367.039	322.99
367.489	308.95
367.939	308.95
368.389	330.02
368.839	294.91
369.288	327.67
369.738	292.57
370.187	344.06
370.637	320.65
371.086	304.27
371.536	287.89
371.985	255.12
372.434	327.67
372.884	372.15
373.333	276.18
373.782	360.44
374.231	344.06
374.68	348.74
375.129	313.63
375.578	313.63
376.027	351.08
376.475	327.67
376.924	339.38
377.373	262.14
377.822	313.63
378.27	351.08
378.719	344.06
379.167	273.84
379.616	292.57
380.064	327.67
380.512	365.12
380.961	351.08
381.409	330.02
381.857	320.65
382.305	334.7
382.753	330.02
383.201	285.55
383.649	353.42
384.097	245.76
384.545	266.82
384.992	264.48
385.44	346.4
385.888	341.72
386.335	315.97
386.783	322.99
387.231	325.33
387.678	278.52
388.125	322.99
388.573	369.8
389.02	332.36
389.467	304.27
389.914	304.27
390.362	271.5
390.809	285.55
391.256	355.76
391.703	327.67
392.15	318.31
392.596	367.46
393.043	332.36
393.49	301.93
393.937	292.57
394.383	358.1
394.83	325.33
395.276	365.12
395.723	348.74
396.169	315.97
396.616	315.97
397.062	365.12
397.508	339.38
397.954	236.39
398.401	365.12
398.847	337.04
399.293	339.38
399.739	311.29
400.185	315.97
400.631	301.93
401.076	269.16
401.522	339.38
401.968	297.25
402.414	337.04
402.859	353.42
403.305	280.86
403.75	311.29
404.196	322.99
404.641	287.89
405.086	355.76
405.532	292.57
405.977	348.74
406.422	341.72
406.867	252.78
407.312	306.61
407.757	315.97
408.202	339.38
408.647	290.23
409.092	339.38
409.537	262.14
409.982	313.63
410.426	339.38
410.871	334.7
411.316	362.78
411.76	372.15
412.205	313.63
412.649	250.44
413.093	304.27
413.538	402.57
413.982	299.59
414.426	304.27
414.87	355.76
415.314	313.63
415.758	306.61
416.202	362.78
416.646	299.59
417.09	231.71
417.534	262.14
417.978	243.42
418.421	332.36
418.865	334.7
419.309	346.4
419.752	315.97
420.196	311.29
420.639	369.8
421.083	365.12
421.526	297.25
421.969	290.23
422.412	330.02
422.856	280.86
423.299	344.06
423.742	341.72
424.185	320.65
424.628	301.93
425.071	287.89
425.513	290.23
425.956	379.17
426.399	390.87
426.842	339.38
427.284	379.17
427.727	330.02
428.169	346.4
428.612	313.63
429.054	283.2
429.497	234.05
429.939	334.7
430.381	297.25
430.823	313.63
431.265	315.97
431.707	362.78
432.149	327.67
432.591	304.27
433.033	360.44
433.475	332.36
433.917	365.12
434.359	344.06
434.8	327.67
435.242	327.67
435.684	313.63
436.125	330.02
436.567	374.49
437.008	292.57
437.449	306.61
437.891	383.85
438.332	330.02
438.773	245.76
439.214	283.2
439.656	271.5
440.097	353.42
440.538	269.16
440.978	339.38
441.419	348.74
441.86	315.97
442.301	318.31
442.742	393.21
443.182	306.61
443.623	334.7
444.063	327.67
444.504	315.97
444.944	264.48
445.385	280.86
445.825	318.31
446.265	301.93
446.706	313.63
447.146	269.16
447.586	348.74
448.026	330.02
448.466	381.51
448.906	327.67
449.346	355.76
449.786	278.52
450.225	334.7
450.665	327.67
451.105	325.33
451.544	348.74
451.984	280.86
452.424	299.59
452.863	301.93
453.302	388.53
453.742	320.65
454.181	339.38
454.62	269.16
455.059	348.74
455.499	304.27
455.938	301.93
456.377	297.25
456.816	351.08
457.254	311.29
457.693	294.91
458.132	339.38
458.571	271.5
459.01	355.76
459.448	320.65
459.887	322.99
460.325	358.1
460.764	330.02
461.202	297.25
461.641	376.83
462.079	397.89
462.517	311.29
462.955	362.78
463.393	318.31
463.832	376.83
464.27	318.31
464.708	339.38
465.145	276.18
465.583	400.23
466.021	372.15
466.459	320.65
466.897	376.83
467.334	355.76
467.772	351.08
468.209	355.76
468.647	306.61
469.084	320.65
469.522	381.51
469.959	318.31
470.396	283.2
470.833	383.85
471.271	395.55
471.708	313.63
472.145	231.71
472.582	297.25
473.019	334.7
473.456	339.38
473.892	341.72
474.329	252.78
474.766	238.73
475.202	369.8
475.639	297.25
476.076	351.08
476.512	362.78
476.949	304.27
477.385	351.08
477.821	346.4
478.258	322.99
478.694	322.99
479.13	285.55
479.566	322.99
480.002	264.48
480.438	313.63
480.874	346.4
481.31	257.46
481.746	285.55
482.181	325.33
482.617	243.42
483.053	334.7
483.488	318.31
483.924	360.44
484.36	388.53
484.795	320.65
485.23	285.55
485.666	292.57
486.101	262.14
486.536	346.4
486.971	236.39
487.407	313.63
487.842	339.38
488.277	301.93
488.712	306.61
489.146	348.74
489.581	332.36
490.016	264.48
490.451	428.32
490.885	351.08
491.32	330.02
491.755	332.36
492.189	278.52
492.624	327.67
493.058	351.08
493.492	353.42
493.927	374.49
494.361	327.67
494.795	358.1
495.229	257.46
495.663	308.95
496.097	344.06
496.531	245.76
496.965	306.61
497.399	355.76
497.833	404.91
498.266	337.04
498.7	320.65
499.134	304.27
499.567	325.33
500.001	325.33
500.434	339.38
500.868	283.2
501.301	280.86
501.734	308.95
502.168	299.59
502.601	330.02
503.034	330.02
503.467	255.12
503.9	372.15
504.333	344.06
504.766	315.97
505.199	358.1
505.632	362.78
506.064	294.91
506.497	285.55
506.93	351.08
507.362	301.93
507.795	313.63
508.227	355.76
508.66	313.63
509.092	435.34
509.524	278.52
509.956	388.53
510.389	334.7
510.821	313.63
511.253	290.23
511.685	346.4
512.117	280.86
512.549	337.04
512.981	271.5
513.412	325.33
513.844	315.97
514.276	353.42
514.707	409.59
515.139	311.29
515.571	355.76
516.002	294.91
516.433	308.95
516.865	294.91
517.296	311.29
517.727	362.78
518.159	351.08
518.59	339.38
519.021	313.63
519.452	255.12
519.883	327.67
520.314	299.59
520.744	315.97
521.175	285.55
521.606	353.42
522.037	273.84
522.467	255.12
522.898	266.82
523.328	322.99
523.759	322.99
524.189	320.65
524.62	325.33
525.05	322.99
525.48	271.5
525.91	337.04
526.341	315.97
526.771	313.63
527.201	351.08
527.631	339.38
528.061	273.84
528.49	337.04
528.92	313.63
529.35	355.76
529.78	362.78
530.209	353.42
530.639	344.06
531.068	313.63
531.498	297.25
531.927	276.18
532.357	290.23
532.786	294.91
533.215	341.72
533.644	304.27
534.074	318.31
534.503	292.57
534.932	308.95
535.361	313.63
535.79	290.23
536.218	334.7
536.647	241.08
537.076	259.8
537.505	322.99
537.933	231.71
538.362	276.18
538.79	374.49
539.219	341.72
539.647	337.04
540.076	313.63
540.504	327.67
540.932	311.29
541.36	327.67
541.788	306.61
542.217	318.31
542.645	367.46
543.073	278.52
543.5	362.78
543.928	266.82
544.356	315.97
544.784	297.25
545.211	327.67
545.639	360.44
546.067	337.04
546.494	388.53
546.922	346.4
547.349	311.29
547.776	308.95
548.204	297.25
548.631	355.76
549.058	344.06
549.485	287.89
549.912	269.16
550.339	327.67
550.766	344.06
551.193	360.44
551.62	337.04
552.047	299.59
552.474	330.02
552.9	341.72
553.327	351.08
553.754	376.83
554.18	348.74
554.607	315.97
555.033	337.04
555.459	294.91
555.886	297.25
556.312	390.87
556.738	262.14
557.164	287.89
557.59	322.99
558.016	290.23
558.442	322.99
558.868	292.57
559.294	360.44
559.72	332.36
560.145	273.84
560.571	280.86
560.997	339.38
561.422	332.36
561.848	322.99
562.273	334.7
562.699	297.25
563.124	348.74
563.549	313.63
563.974	280.86
564.4	383.85
564.825	369.8
565.25	320.65
565.675	341.72
566.1	344.06
566.525	348.74
566.95	318.31
567.374	273.84
567.799	337.04
568.224	341.72
568.648	334.7
569.073	376.83
569.497	348.74
569.922	334.7
570.346	294.91
570.771	276.18
571.195	334.7
571.619	297.25
572.043	318.31
572.467	304.27
572.891	346.4
573.315	369.8
573.739	383.85
574.163	339.38
574.587	327.67
575.011	344.06
575.435	252.78
575.858	311.29
576.282	325.33
576.705	334.7
577.129	280.86
577.552	250.44
577.976	306.61
578.399	299.59
578.822	313.63
579.245	311.29
579.669	322.99
580.092	351.08
580.515	320.65
580.938	374.49
581.361	334.7
581.784	290.23
582.206	276.18
582.629	334.7
583.052	344.06
583.474	299.59
583.897	325.33
584.32	313.63
584.742	327.67
585.165	299.59
585.587	376.83
586.009	341.72
586.431	327.67
586.854	301.93
587.276	330.02
587.698	320.65
588.12	327.67
588.542	344.06
588.964	315.97
589.386	255.12
589.807	264.48
590.229	353.42
590.651	318.31
591.073	383.85
591.494	297.25
591.916	311.29
592.337	341.72
592.759	315.97
593.18	386.19
593.601	393.21
594.022	311.29
594.444	313.63
594.865	304.27
595.286	297.25
595.707	376.83
596.128	292.57
596.549	322.99
596.97	271.5
597.39	290.23
597.811	315.97
598.232	287.89
598.652	327.67
599.073	315.97
599.494	292.57
599.914	290.23
600.334	308.95
600.755	339.38
601.175	337.04
601.595	334.7
602.015	292.57
602.436	264.48
602.856	428.32
603.276	325.33
603.696	322.99
604.115	315.97
604.535	287.89
604.955	341.72
605.375	276.18
605.794	280.86
606.214	318.31
606.634	355.76
607.053	308.95
607.473	304.27
607.892	301.93
608.311	301.93
608.731	306.61
609.15	320.65
609.569	351.08
609.988	320.65
610.407	255.12
610.826	294.91
611.245	330.02
611.664	393.21
612.083	339.38
612.501	315.97
612.92	276.18
613.339	339.38
613.757	348.74
614.176	292.57
614.594	252.78
615.013	229.37
615.431	325.33
615.85	287.89
616.268	301.93
616.686	278.52
617.104	346.4
617.522	383.85
617.94	318.31
618.358	358.1
618.776	322.99
619.194	362.78
619.612	301.93
620.03	273.84
620.447	273.84
620.865	308.95
621.282	322.99
621.7	381.51
622.117	278.52
622.535	320.65
622.952	362.78
623.369	388.53
623.787	327.67
624.204	294.91
624.621	325.33
625.038	351.08
625.455	360.44
625.872	320.65
626.289	304.27
626.706	346.4
627.123	304.27
627.539	374.49
627.956	287.89
628.373	266.82
628.789	320.65
629.206	322.99
629.622	315.97
630.038	355.76
630.455	351.08
630.871	325.33
631.287	341.72
631.703	304.27
632.12	292.57
632.536	290.23
632.952	271.5
633.368	318.31
633.783	327.67
634.199	278.52
634.615	395.55
635.031	428.32
635.446	330.02
635.862	306.61
636.277	304.27
636.693	353.42
637.108	304.27
637.524	358.1
637.939	346.4
638.354	308.95
638.77	337.04
639.185	402.57
639.6	320.65
640.015	283.2
640.43	259.8
640.845	273.84
641.259	287.89
641.674	315.97
642.089	315.97
642.504	299.59
642.918	330.02
643.333	341.72
643.747	308.95
644.162	276.18
644.576	362.78
644.991	353.42
645.405	337.04
645.819	344.06
646.233	355.76
646.647	332.36
647.061	322.99
647.475	353.42
647.889	402.57
648.303	348.74
648.717	271.5
649.131	383.85
649.545	351.08
649.958	311.29
650.372	344.06
650.785	301.93
651.199	344.06
651.612	332.36
652.026	344.06
652.439	280.86
652.852	320.65
653.266	388.53
653.679	337.04
654.092	276.18
654.505	334.7
654.918	358.1
655.331	313.63
655.744	325.33
656.156	318.31
656.569	313.63
656.982	372.15
657.394	304.27
657.807	266.82
658.22	301.93
658.632	322.99
659.044	290.23
659.457	304.27
659.869	369.8
660.281	315.97
660.693	327.67
661.106	287.89
661.518	379.17
661.93	285.55
662.342	337.04
662.754	330.02
663.165	294.91
663.577	393.21
663.989	327.67
664.401	283.2
664.812	311.29
665.224	308.95
665.635	264.48
666.047	301.93
666.458	334.7
666.869	367.46
667.281	325.33
667.692	301.93
668.103	306.61
668.514	285.55
668.925	311.29
669.336	332.36
669.747	287.89
670.158	346.4
670.569	299.59
670.979	315.97
671.39	388.53
671.801	313.63
672.211	358.1
672.622	301.93
673.032	299.59
673.443	285.55
673.853	290.23
674.263	358.1
674.674	283.2
675.084	301.93
675.494	313.63
675.904	320.65
676.314	390.87
676.724	353.42
677.134	334.7
677.544	383.85
677.953	273.84
678.363	280.86
678.773	346.4
679.182	290.23
679.592	287.89
680.001	292.57
680.411	362.78
680.82	269.16
681.23	315.97
681.639	341.72
682.048	390.87
682.457	360.44
682.866	308.95
683.275	280.86
683.684	294.91
684.093	337.04
684.502	351.08
684.911	358.1
685.32	315.97
685.728	337.04
686.137	334.7
686.546	341.72
686.954	278.52
687.363	369.8
687.771	330.02
688.179	393.21
688.588	332.36
688.996	393.21
689.404	379.17
689.812	386.19
690.22	306.61
690.628	337.04
691.036	301.93
691.444	243.42
691.852	381.51
692.26	322.99
692.667	292.57
693.075	292.57
693.483	269.16
693.89	304.27
694.298	294.91
694.705	259.8
695.112	353.42
695.52	337.04
695.927	313.63
696.334	374.49
696.741	294.91
697.148	210.65
697.555	348.74
697.962	318.31
698.369	344.06
698.776	276.18
699.183	369.8
699.59	325.33
699.996	330.02
700.403	294.91
700.81	322.99
701.216	351.08
701.623	374.49
702.029	306.61
702.435	327.67
702.842	369.8
703.248	397.89
703.654	320.65
704.06	308.95
704.466	315.97
704.872	355.76
705.278	360.44
705.684	306.61
706.09	348.74
706.496	318.31
706.901	278.52
707.307	318.31
707.712	332.36
708.118	278.52
708.523	264.48
708.929	322.99
709.334	339.38
709.74	383.85
710.145	360.44
710.55	353.42
710.955	243.42
711.36	325.33
711.765	344.06
712.17	299.59
712.575	271.5
712.98	943.24
713.385	327.67
713.789	280.86
714.194	315.97
714.599	320.65
715.003	308.95
715.408	297.25
715.812	301.93
716.217	355.76
716.621	344.06
717.025	339.38
717.429	327.67
717.833	348.74
718.238	390.87
718.642	327.67
719.046	320.65
719.449	334.7
719.853	311.29
720.257	299.59
720.661	301.93
721.065	339.38
721.468	369.8
721.872	292.57
722.275	348.74
722.679	273.84
723.082	330.02
723.485	290.23
723.889	339.38
724.292	339.38
724.695	292.57
725.098	367.46
725.501	367.46
725.904	358.1
726.307	320.65
726.71	334.7
727.113	325.33
727.516	367.46
727.918	273.84
728.321	320.65
728.724	337.04
729.126	337.04
729.529	381.51
729.931	358.1
730.333	297.25
730.736	264.48
731.138	283.2
731.54	332.36
731.942	283.2
732.344	365.12
732.746	339.38
733.148	320.65
733.55	383.85
733.952	339.38
734.354	311.29
734.756	376.83
735.157	283.2
735.559	344.06
735.96	344.06
736.362	348.74
736.763	297.25
737.165	306.61
737.566	299.59
737.967	299.59
738.368	372.15
738.77	318.31
739.171	351.08
739.572	334.7
739.973	283.2
740.374	355.76
740.774	301.93
741.175	290.23
741.576	332.36
741.977	348.74
742.377	367.46
742.778	283.2
743.178	348.74
743.579	365.12
743.979	376.83
744.379	297.25
744.78	315.97
745.18	348.74
745.58	358.1
745.98	348.74
746.38	318.31
746.78	285.55
747.18	283.2
747.58	320.65
747.98	353.42
748.38	301.93
748.779	280.86
749.179	315.97
749.578	344.06
749.978	383.85
750.377	325.33
750.777	330.02
751.176	290.23
751.575	322.99
751.975	339.38
752.374	290.23
752.773	311.29
753.172	353.42
753.571	332.36
753.97	339.38
754.369	334.7
754.768	287.89
755.166	280.86
755.565	351.08
755.964	367.46
756.362	346.4
756.761	346.4
757.159	330.02
757.558	308.95
757.956	395.55
758.354	297.25
758.753	367.46
759.151	283.2
759.549	381.51
759.947	358.1
760.345	346.4
760.743	320.65
761.141	320.65
761.539	257.46
761.936	344.06
762.334	334.7
762.732	339.38
763.129	255.12
763.527	290.23
763.924	355.76
764.322	327.67
764.719	259.8
765.117	339.38
765.514	325.33
765.911	330.02
766.308	348.74
766.705	280.86
767.102	287.89
767.499	346.4
767.896	348.74
768.293	283.2
768.69	292.57
769.086	280.86
769.483	334.7
769.88	330.02
770.276	334.7
770.673	390.87
771.069	297.25
771.466	360.44
771.862	241.08
772.258	332.36
772.654	318.31
773.05	346.4
773.447	351.08
773.843	327.67
774.239	313.63
774.634	287.89
775.03	339.38
775.426	351.08
775.822	334.7
776.218	327.67
776.613	299.59
777.009	344.06
777.404	346.4
777.8	318.31
778.195	306.61
778.59	330.02
778.986	313.63
779.381	255.12
779.776	400.23
780.171	280.86
780.566	348.74
780.961	280.86
781.356	325.33
781.751	322.99
782.146	358.1
782.54	339.38
782.935	259.8
783.33	355.76
783.724	308.95
784.119	320.65
784.513	311.29
784.908	271.5
785.302	372.15
785.696	301.93
786.09	386.19
786.485	358.1
786.879	283.2
787.273	346.4
787.667	306.61
788.061	334.7
788.454	315.97
788.848	297.25
789.242	348.74
789.636	304.27
790.029	276.18
790.423	332.36
790.816	355.76
791.21	315.97
791.603	355.76
791.997	365.12
792.39	280.86
792.783	297.25
793.176	271.5
793.569	264.48
793.962	306.61
794.355	292.57
794.748	299.59
795.141	287.89
795.534	367.46
795.927	337.04
796.319	297.25
796.712	297.25
797.105	388.53
797.497	320.65
797.89	306.61
798.282	355.76
798.674	355.76
799.067	322.99
799.459	353.42
799.851	318.31
800.243	353.42
800.635	348.74
801.027	332.36
801.419	294.91
801.811	311.29
802.203	337.04
802.594	320.65
802.986	262.14
803.378	346.4
803.769	311.29
804.161	339.38
804.552	330.02
804.944	367.46
805.335	306.61
805.726	269.16
806.118	344.06
806.509	292.57
806.9	315.97
807.291	337.04
807.682	355.76
808.073	341.72
808.464	311.29
808.855	355.76
809.245	278.52
809.636	353.42
810.027	318.31
810.417	292.57
810.808	325.33
811.198	294.91
811.589	327.67
811.979	273.84
812.369	320.65
812.759	252.78
813.15	327.67
813.54	273.84
813.93	306.61
814.32	334.7
814.71	269.16
815.1	381.51
815.489	358.1
815.879	341.72
816.269	299.59
816.658	299.59
817.048	271.5
817.438	245.76
817.827	271.5
818.216	259.8
818.606	273.84
818.995	334.7
819.384	273.84
819.773	306.61
820.163	346.4
820.552	372.15
820.941	351.08
821.33	301.93
821.718	327.67
822.107	367.46
822.496	360.44
822.885	313.63
823.273	297.25
823.662	330.02
824.05	306.61
824.439	280.86
824.827	313.63
825.216	346.4
825.604	344.06
825.992	327.67
826.38	283.2
826.768	285.55
827.156	330.02
827.544	304.27
827.932	250.44
828.32	353.42
828.708	276.18
829.096	241.08
829.483	327.67
829.871	280.86
830.259	304.27
830.646	294.91
831.034	360.44
831.421	212.99
831.808	269.16
832.196	351.08
832.583	365.12
832.97	341.72
833.357	313.63
833.744	294.91
834.131	304.27
834.518	297.25
834.905	346.4
835.292	308.95
835.678	355.76
836.065	257.46
836.452	290.23
836.838	269.16
837.225	311.29
837.611	320.65
837.998	322.99
838.384	306.61
838.77	308.95
839.157	269.16
839.543	297.25
839.929	355.76
840.315	299.59
840.701	264.48
841.087	322.99
841.473	374.49
841.858	255.12
842.244	287.89
842.63	339.38
843.015	337.04
843.401	606.2
843.787	297.25
844.172	332.36
844.557	315.97
844.943	311.29
845.328	360.44
845.713	294.91
846.098	290.23
846.483	262.14
846.868	334.7
847.253	365.12
847.638	337.04
848.023	292.57
848.408	320.65
848.793	369.8
849.177	334.7
849.562	325.33
849.947	367.46
850.331	283.2
850.715	327.67
851.1	355.76
851.484	337.04
851.868	311.29
852.253	334.7
852.637	306.61
853.021	283.2
853.405	325.33
853.789	311.29
854.173	299.59
854.557	318.31
854.94	353.42
855.324	327.67
855.708	283.2
856.091	320.65
856.475	297.25
856.858	299.59
857.242	269.16
857.625	278.52
858.009	315.97
858.392	220.01
858.775	297.25
859.158	322.99
859.541	308.95
859.924	346.4
860.307	318.31
860.69	294.91
861.073	304.27
861.456	301.93
861.838	330.02
862.221	315.97
862.604	243.42
862.986	285.55
863.369	287.89
863.751	358.1
864.133	308.95
864.516	353.42
864.898	369.8
865.28	327.67
865.662	250.44
866.044	339.38
866.426	341.72
866.808	280.86
867.19	339.38
867.572	318.31
867.954	278.52
868.336	276.18
868.717	334.7
869.099	287.89
869.48	334.7
869.862	374.49
870.243	294.91
870.625	290.23
871.006	327.67
871.387	388.53
871.768	348.74
872.149	290.23
872.53	334.7
872.911	367.46
873.292	397.89
873.673	320.65
874.054	273.84
874.435	369.8
874.815	315.97
875.196	294.91
875.577	348.74
875.957	287.89
876.338	360.44
876.718	313.63
877.098	360.44
877.479	311.29
877.859	440.02
878.239	313.63
878.619	318.31
878.999	304.27
879.379	330.02
879.759	320.65
880.139	308.95
880.519	283.2
880.898	346.4
881.278	339.38
881.658	297.25
882.037	344.06
882.417	283.2
882.796	348.74
883.176	297.25
883.555	351.08
883.934	360.44
884.313	358.1
884.693	301.93
885.072	313.63
885.451	308.95
885.83	276.18
886.209	306.61
886.587	339.38
886.966	365.12
887.345	315.97
887.724	304.27
888.102	374.49
888.481	362.78
888.859	320.65
889.238	355.76
889.616	234.05
889.994	325.33
890.373	285.55
890.751	311.29
891.129	297.25
891.507	367.46
891.885	313.63
892.263	294.91
892.641	287.89
893.019	294.91
893.396	292.57
893.774	355.76
894.152	322.99
894.529	299.59
894.907	365.12
895.284	372.15
895.662	330.02
896.039	332.36
896.416	358.1
896.794	311.29
897.171	304.27
897.548	273.84
897.925	332.36
898.302	315.97
898.679	297.25
899.056	355.76
899.433	367.46
899.809	304.27
900.186	351.08
900.563	318.31
900.939	297.25
901.316	367.46
901.692	332.36
902.069	294.91
902.445	301.93
902.821	308.95
903.197	320.65
903.574	308.95
903.95	262.14
904.326	353.42
904.702	306.61
905.078	348.74
905.454	292.57
905.829	311.29
906.205	294.91
906.581	318.31
906.956	287.89
907.332	353.42
907.707	325.33
908.083	290.23
908.458	334.7
908.833	290.23
909.209	318.31
909.584	248.1
909.959	297.25
910.334	337.04
910.709	339.38
911.084	297.25
911.459	304.27
911.834	327.67
912.209	264.48
912.583	372.15
912.958	257.46
913.333	308.95
913.707	390.87
914.082	306.61
914.456	266.82
914.83	346.4
915.205	231.71
915.579	327.67
915.953	294.91
916.327	285.55
916.701	367.46
917.075	332.36
917.449	330.02
917.823	365.12
918.197	360.44
918.571	320.65
918.944	360.44
919.318	301.93
919.692	325.33
920.065	299.59
920.438	315.97
920.812	365.12
921.185	297.25
921.558	308.95
921.932	376.83
922.305	337.04
922.678	306.61
923.051	294.91
923.424	348.74
923.797	334.7
924.17	231.71
924.542	308.95
924.915	280.86
925.288	283.2
925.661	332.36
926.033	337.04
926.406	245.76
926.778	311.29
927.15	269.16
927.523	257.46
927.895	306.61
928.267	334.7
928.639	325.33
929.011	294.91
929.383	360.44
929.755	322.99
930.127	365.12
930.499	313.63
930.871	276.18
931.242	294.91
931.614	290.23
931.986	339.38
932.357	318.31
932.729	262.14
933.1	322.99
933.471	325.33
933.843	306.61
934.214	376.83
934.585	273.84
934.956	285.55
935.327	332.36
935.698	294.91
936.069	334.7
936.44	320.65
936.811	346.4
937.182	308.95
937.552	299.59
937.923	280.86
938.293	325.33
938.664	301.93
939.034	311.29
939.405	269.16
939.775	344.06
940.145	332.36
940.516	353.42
940.886	320.65
941.256	313.63
941.626	360.44
941.996	341.72
942.366	322.99
942.735	297.25
943.105	337.04
943.475	322.99
943.845	257.46
944.214	308.95
944.584	332.36
944.953	306.61
945.323	341.72
945.692	308.95
946.061	367.46
946.43	304.27
946.8	346.4
947.169	271.5
947.538	348.74
947.907	344.06
948.276	276.18
948.645	386.19
949.013	297.25
949.382	292.57
949.751	299.59
950.119	294.91
950.488	311.29
950.857	486.83
951.225	315.97
951.593	339.38
951.962	327.67
952.33	348.74
952.698	339.38
953.066	337.04
953.434	353.42
953.802	315.97
954.17	334.7
954.538	292.57
954.906	339.38
955.274	299.59
955.642	304.27
956.009	276.18
956.377	362.78
956.744	283.2
957.112	358.1
957.479	322.99
957.847	327.67
958.214	299.59
958.581	348.74
958.948	348.74
959.315	346.4
959.683	330.02
960.05	311.29
960.416	306.61
960.783	301.93
961.15	311.29
961.517	287.89
961.884	353.42
962.25	332.36
962.617	306.61
962.983	315.97
963.35	351.08
963.716	341.72
964.082	322.99
964.449	304.27
964.815	332.36
965.181	351.08
965.547	299.59
965.913	337.04
966.279	346.4
966.645	294.91
967.011	337.04
967.377	339.38
967.742	320.65
968.108	301.93
968.474	351.08
968.839	273.84
969.205	283.2
969.57	395.55
969.935	269.16
970.301	360.44
970.666	330.02
971.031	301.93
971.396	320.65
971.761	271.5
972.126	308.95
972.491	292.57
972.856	273.84
973.221	264.48
973.586	241.08
973.95	334.7
974.315	325.33
974.679	297.25
975.044	311.29
975.408	346.4
975.773	313.63
976.137	327.67
976.501	313.63
976.866	320.65
977.23	311.29
977.594	360.44
977.958	297.25
978.322	341.72
978.686	292.57
979.049	278.52
979.413	304.27
979.777	402.57
980.141	308.95
980.504	301.93
980.868	355.76
981.231	271.5
981.595	250.44
981.958	306.61
982.321	287.89
982.684	423.64
983.048	344.06
983.411	407.25
983.774	280.86
984.137	290.23
984.5	325.33
984.862	313.63
985.225	383.85
985.588	330.02
985.951	297.25
986.313	341.72
986.676	285.55
987.038	358.1
987.401	311.29
987.763	337.04
988.125	313.63
988.488	341.72
988.85	320.65
989.212	292.57
989.574	362.78
989.936	341.72
990.298	351.08
990.66	297.25
991.022	301.93
991.383	318.31
991.745	337.04
992.107	332.36
992.468	327.67
992.83	325.33
993.191	283.2
993.553	362.78
993.914	271.5
994.275	278.52
994.637	351.08
994.998	287.89
995.359	351.08
995.72	315.97
996.081	379.17
996.442	332.36
996.803	308.95
997.163	322.99
997.524	318.31
997.885	313.63
998.245	322.99
998.606	320.65
998.966	276.18
999.327	297.25
999.687	322.99
1000.047	332.36
1000.408	264.48
1000.768	351.08
1001.128	360.44
1001.488	332.36
1001.848	313.63
1002.208	334.7
1002.568	271.5
1002.927	266.82
1003.287	299.59
1003.647	346.4
1004.007	308.95
1004.366	283.2
1004.726	304.27
1005.085	283.2
1005.444	344.06
1005.804	269.16
1006.163	301.93
1006.522	243.42
1006.881	367.46
1007.24	299.59
1007.599	257.46
1007.958	273.84
1008.317	287.89
1008.676	311.29
1009.035	404.91
1009.393	304.27
1009.752	292.57
1010.111	271.5
1010.469	362.78
1010.828	348.74
1011.186	294.91
1011.544	358.1
1011.903	287.89
1012.261	327.67
1012.619	287.89
1012.977	299.59
1013.335	344.06
1013.693	365.12
1014.051	330.02
1014.409	285.55
1014.767	287.89
1015.124	327.67
1015.482	372.15
1015.84	301.93
1016.197	257.46
1016.555	266.82
1016.912	273.84
1017.269	318.31
1017.627	311.29
1017.984	280.86
1018.341	327.67
1018.698	301.93
1019.055	297.25
1019.412	334.7
1019.769	362.78
1020.126	306.61
1020.483	278.52
1020.84	313.63
1021.196	332.36
1021.553	322.99
1021.909	365.12
1022.266	346.4
1022.622	379.17
1022.979	346.4
1023.335	308.95
1023.691	344.06
1024.047	278.52
1024.404	327.67
1024.76	292.57
1025.116	278.52
1025.472	332.36
1025.827	299.59
1026.183	301.93
1026.539	255.12
1026.895	341.72
1027.25	238.73
1027.606	278.52
1027.961	255.12
1028.317	320.65
1028.672	290.23
1029.028	318.31
1029.383	290.23
1029.738	278.52
1030.093	269.16
1030.448	245.76
1030.803	292.57
1031.158	330.02
1031.513	337.04
1031.868	322.99
1032.223	320.65
1032.577	203.63
1032.932	339.38
1033.287	269.16
1033.641	365.12
1033.996	325.33
1034.35	322.99
1034.704	325.33
1035.059	322.99
1035.413	325.33
1035.767	325.33
1036.121	325.33
