Data from Al_FLMS009871__225__12-14-44-154.txt Node

Date: Fri Mar 08 12:14:44 CST 2024
User: pe5414po
Spectrometer: FLMS00987
Trigger mode: 0
Integration Time (sec): 1.000000E-1
Scans to average: 1
Electric dark correction enabled: true
Nonlinearity correction enabled: false
Boxcar width: 0
XAxis mode: Wavelengths
Number of Pixels in Spectrum: 2048
>>>>>Begin Spectral Data<<<<<
188.938	-80.31
189.409	-80.31
189.879	-80.31
190.349	-124.78
190.819	-94.35
191.29	-82.65
191.76	-84.99
192.23	-157.55
192.7	-70.95
193.17	-10.09
193.64	-49.88
194.109	-19.46
194.579	6.29
195.049	-7.75
195.519	-56.9
195.988	50.76
196.458	50.76
196.927	83.53
197.397	146.72
197.866	116.3
198.336	85.87
198.805	160.77
199.274	172.47
199.744	181.83
200.213	207.58
200.682	235.66
201.151	230.98
201.62	202.9
202.089	146.72
202.558	301.2
203.027	230.98
203.495	270.77
203.964	275.45
204.433	312.9
204.902	315.24
205.37	294.18
205.839	317.58
206.307	348.01
206.776	259.07
207.244	289.5
207.712	310.56
208.181	336.31
208.649	226.3
209.117	312.9
209.585	298.86
210.053	277.79
210.521	317.58
210.989	324.6
211.457	319.92
211.925	322.26
212.393	303.54
212.861	294.18
213.328	317.58
213.796	333.97
214.264	240.34
214.731	263.75
215.199	324.6
215.666	308.22
216.133	303.54
216.601	228.64
217.068	207.58
217.535	289.5
218.003	308.22
218.47	343.33
218.937	216.94
219.404	324.6
219.871	242.68
220.338	247.37
220.805	266.09
221.271	287.15
221.738	247.37
222.205	275.45
222.671	273.11
223.138	287.15
223.605	266.09
224.071	198.21
224.538	301.2
225.004	216.94
225.47	233.32
225.937	259.07
226.403	287.15
226.869	291.84
227.335	282.47
227.801	247.37
228.267	312.9
228.733	340.99
229.199	338.65
229.665	287.15
230.131	296.52
230.597	277.79
231.062	282.47
231.528	296.52
231.994	298.86
232.459	223.96
232.925	340.99
233.39	254.39
233.856	298.86
234.321	317.58
234.786	209.92
235.252	249.71
235.717	310.56
236.182	275.45
236.647	256.73
237.112	245.02
237.577	350.35
238.042	273.11
238.507	305.88
238.972	371.41
239.436	268.43
239.901	319.92
240.366	291.84
240.83	247.37
241.295	247.37
241.76	261.41
242.224	315.24
242.688	366.73
243.153	273.11
243.617	291.84
244.081	280.13
244.545	322.26
245.01	240.34
245.474	324.6
245.938	338.65
246.402	270.77
246.866	235.66
247.33	289.5
247.793	261.41
248.257	240.34
248.721	322.26
249.185	301.2
249.648	266.09
250.112	256.73
250.575	303.54
251.039	376.09
251.502	240.34
251.965	273.11
252.429	291.84
252.892	324.6
253.355	245.02
253.818	331.62
254.281	282.47
254.744	296.52
255.207	340.99
255.67	296.52
256.133	268.43
256.596	230.98
257.059	322.26
257.522	329.28
257.984	289.5
258.447	294.18
258.909	266.09
259.372	245.02
259.834	310.56
260.297	326.94
260.759	315.24
261.221	249.71
261.684	357.37
262.146	324.6
262.608	326.94
263.07	242.68
263.532	308.22
263.994	371.41
264.456	340.99
264.918	284.81
265.38	317.58
265.842	266.09
266.303	298.86
266.765	235.66
267.227	301.2
267.688	247.37
268.15	333.97
268.611	261.41
269.072	277.79
269.534	338.65
269.995	324.6
270.456	312.9
270.918	247.37
271.379	294.18
271.84	273.11
272.301	317.58
272.762	296.52
273.223	273.11
273.684	305.88
274.144	305.88
274.605	312.9
275.066	275.45
275.527	315.24
275.987	270.77
276.448	312.9
276.908	329.28
277.369	343.33
277.829	312.9
278.289	284.81
278.75	319.92
279.21	319.92
279.67	284.81
280.13	249.71
280.59	235.66
281.05	287.15
281.51	319.92
281.97	240.34
282.43	331.62
282.89	310.56
283.35	261.41
283.809	343.33
284.269	326.94
284.729	259.07
285.188	329.28
285.648	298.86
286.107	284.81
286.567	326.94
287.026	359.71
287.485	277.79
287.944	355.03
288.404	380.78
288.863	322.26
289.322	287.15
289.781	364.39
290.24	340.99
290.699	364.39
291.158	338.65
291.616	340.99
292.075	303.54
292.534	348.01
292.992	317.58
293.451	287.15
293.91	366.73
294.368	329.28
294.827	277.79
295.285	303.54
295.743	308.22
296.202	310.56
296.66	291.84
297.118	303.54
297.576	366.73
298.034	298.86
298.492	291.84
298.95	263.75
299.408	343.33
299.866	259.07
300.324	270.77
300.781	324.6
301.239	291.84
301.697	289.5
302.154	340.99
302.612	289.5
303.069	303.54
303.527	366.73
303.984	298.86
304.441	301.2
304.899	373.75
305.356	259.07
305.813	319.92
306.27	247.37
306.727	287.15
307.184	303.54
307.641	298.86
308.098	291.84
308.555	324.6
309.012	317.58
309.468	296.52
309.925	340.99
310.382	338.65
310.838	280.13
311.295	312.9
311.751	261.41
312.208	301.2
312.664	348.01
313.12	284.81
313.577	287.15
314.033	373.75
314.489	352.69
314.945	348.01
315.401	315.24
315.857	364.39
316.313	312.9
316.769	326.94
317.225	315.24
317.681	340.99
318.136	275.45
318.592	329.28
319.048	336.31
319.503	294.18
319.959	329.28
320.414	376.09
320.869	315.24
321.325	326.94
321.78	301.2
322.235	319.92
322.691	305.88
323.146	275.45
323.601	331.62
324.056	319.92
324.511	282.47
324.966	284.81
325.421	240.34
325.875	315.24
326.33	287.15
326.785	324.6
327.24	287.15
327.694	298.86
328.149	397.16
328.603	340.99
329.058	284.81
329.512	326.94
329.966	326.94
330.421	310.56
330.875	310.56
331.329	348.01
331.783	280.13
332.237	340.99
332.691	343.33
333.145	324.6
333.599	324.6
334.053	331.62
334.507	352.69
334.96	298.86
335.414	294.18
335.868	303.54
336.321	273.11
336.775	289.5
337.228	289.5
337.682	362.05
338.135	301.2
338.588	301.2
339.042	303.54
339.495	378.44
339.948	378.44
340.401	343.33
340.854	310.56
341.307	319.92
341.76	273.11
342.213	333.97
342.666	340.99
343.119	287.15
343.571	310.56
344.024	348.01
344.477	317.58
344.929	305.88
345.382	317.58
345.834	301.2
346.287	366.73
346.739	350.35
347.191	294.18
347.644	284.81
348.096	291.84
348.548	329.28
349	338.65
349.452	362.05
349.904	287.15
350.356	263.75
350.808	305.88
351.26	362.05
351.711	312.9
352.163	303.54
352.615	380.78
353.066	322.26
353.518	322.26
353.969	352.69
354.421	296.52
354.872	294.18
355.324	291.84
355.775	310.56
356.226	359.71
356.677	369.07
357.128	324.6
357.579	399.5
358.03	287.15
358.481	296.52
358.932	287.15
359.383	312.9
359.834	331.62
360.285	317.58
360.735	345.67
361.186	364.39
361.637	287.15
362.087	348.01
362.538	270.77
362.988	308.22
363.438	326.94
363.889	298.86
364.339	329.28
364.789	308.22
365.239	322.26
365.689	340.99
366.139	308.22
366.589	333.97
367.039	406.52
367.489	348.01
367.939	348.01
368.389	326.94
368.839	308.22
369.288	385.46
369.738	413.54
370.187	315.24
370.637	359.71
371.086	331.62
371.536	240.34
371.985	291.84
372.434	242.68
372.884	296.52
373.333	366.73
373.782	373.75
374.231	366.73
374.68	326.94
375.129	322.26
375.578	268.43
376.027	345.67
376.475	338.65
376.924	298.86
377.373	319.92
377.822	331.62
378.27	340.99
378.719	282.47
379.167	298.86
379.616	357.37
380.064	380.78
380.512	277.79
380.961	362.05
381.409	289.5
381.857	268.43
382.305	275.45
382.753	345.67
383.201	373.75
383.649	345.67
384.097	331.62
384.545	357.37
384.992	331.62
385.44	340.99
385.888	392.48
386.335	305.88
386.783	362.05
387.231	338.65
387.678	352.69
388.125	275.45
388.573	308.22
389.02	406.52
389.467	296.52
389.914	331.62
390.362	315.24
390.809	312.9
391.256	315.24
391.703	373.75
392.15	291.84
392.596	298.86
393.043	380.78
393.49	303.54
393.937	247.37
394.383	310.56
394.83	322.26
395.276	336.31
395.723	282.47
396.169	348.01
396.616	329.28
397.062	376.09
397.508	373.75
397.954	301.2
398.401	376.09
398.847	319.92
399.293	338.65
399.739	340.99
400.185	366.73
400.631	357.37
401.076	366.73
401.522	371.41
401.968	380.78
402.414	333.97
402.859	343.33
403.305	362.05
403.75	369.07
404.196	331.62
404.641	336.31
405.086	387.8
405.532	298.86
405.977	399.5
406.422	338.65
406.867	252.05
407.312	291.84
407.757	401.84
408.202	373.75
408.647	319.92
409.092	317.58
409.537	277.79
409.982	364.39
410.426	270.77
410.871	390.14
411.316	350.35
411.76	340.99
412.205	340.99
412.649	336.31
413.093	308.22
413.538	366.73
413.982	338.65
414.426	305.88
414.87	298.86
415.314	322.26
415.758	380.78
416.202	343.33
416.646	355.03
417.09	406.52
417.534	366.73
417.978	336.31
418.421	326.94
418.865	345.67
419.309	436.95
419.752	329.28
420.196	364.39
420.639	336.31
421.083	331.62
421.526	331.62
421.969	338.65
422.412	359.71
422.856	359.71
423.299	315.24
423.742	357.37
424.185	427.59
424.628	404.18
425.071	352.69
425.513	355.03
425.956	343.33
426.399	331.62
426.842	376.09
427.284	350.35
427.727	364.39
428.169	350.35
428.612	385.46
429.054	408.86
429.497	432.27
429.939	373.75
430.381	333.97
430.823	305.88
431.265	415.88
431.707	422.91
432.149	336.31
432.591	392.48
433.033	472.06
433.475	362.05
433.917	422.91
434.359	509.51
434.8	509.51
435.242	605.47
435.684	537.59
436.125	516.53
436.567	450.99
437.008	469.72
437.449	490.78
437.891	483.76
438.332	427.59
438.773	483.76
439.214	465.04
439.656	460.35
440.097	514.19
440.538	453.33
440.978	453.33
441.419	425.25
441.86	465.04
442.301	462.69
442.742	530.57
443.182	502.48
443.623	469.72
444.063	495.46
444.504	516.53
444.944	453.33
445.385	504.82
445.825	539.93
446.265	575.04
446.706	511.85
447.146	539.93
447.586	434.61
448.026	528.23
448.466	507.16
448.906	495.46
449.346	537.59
449.786	530.57
450.225	488.44
450.665	455.67
451.105	500.14
451.544	479.08
451.984	514.19
452.424	460.35
452.863	504.82
453.302	436.95
453.742	436.95
454.181	453.33
454.62	483.76
455.059	504.82
455.499	500.14
455.938	458.01
456.377	474.4
456.816	467.38
457.254	486.1
457.693	469.72
458.132	481.42
458.571	434.61
459.01	429.93
459.448	406.52
459.887	422.91
460.325	488.44
460.764	366.73
461.202	401.84
461.641	399.5
462.079	418.22
462.517	385.46
462.955	455.67
463.393	397.16
463.832	359.71
464.27	392.48
464.708	408.86
465.145	411.2
465.583	446.31
466.021	436.95
466.459	369.07
466.897	458.01
467.334	443.97
467.772	350.35
468.209	406.52
468.647	376.09
469.084	429.93
469.522	343.33
469.959	413.54
470.396	380.78
470.833	319.92
471.271	434.61
471.708	340.99
472.145	394.82
472.582	411.2
473.019	432.27
473.456	399.5
473.892	408.86
474.329	413.54
474.766	397.16
475.202	380.78
475.639	364.39
476.076	397.16
476.512	380.78
476.949	366.73
477.385	364.39
477.821	415.88
478.258	436.95
478.694	322.26
479.13	357.37
479.566	383.12
480.002	390.14
480.438	359.71
480.874	390.14
481.31	394.82
481.746	326.94
482.181	387.8
482.617	427.59
483.053	434.61
483.488	333.97
483.924	383.12
484.36	413.54
484.795	429.93
485.23	422.91
485.666	495.46
486.101	476.74
486.536	376.09
486.971	369.07
487.407	422.91
487.842	359.71
488.277	462.69
488.712	511.85
489.146	362.05
489.581	469.72
490.016	493.12
490.451	455.67
490.885	472.06
491.32	425.25
491.755	422.91
492.189	406.52
492.624	453.33
493.058	422.91
493.492	352.69
493.927	436.95
494.361	436.95
494.795	441.63
495.229	404.18
495.663	326.94
496.097	439.29
496.531	406.52
496.965	385.46
497.399	352.69
497.833	448.65
498.266	369.07
498.7	432.27
499.134	380.78
499.567	392.48
500.001	420.57
500.434	427.59
500.868	413.54
501.301	406.52
501.734	429.93
502.168	420.57
502.601	355.03
503.034	394.82
503.467	385.46
503.9	359.71
504.333	406.52
504.766	378.44
505.199	418.22
505.632	404.18
506.064	418.22
506.497	394.82
506.93	390.14
507.362	387.8
507.795	315.24
508.227	462.69
508.66	399.5
509.092	378.44
509.524	394.82
509.956	401.84
510.389	450.99
510.821	425.25
511.253	493.12
511.685	450.99
512.117	481.42
512.549	460.35
512.981	404.18
513.412	434.61
513.844	436.95
514.276	418.22
514.707	422.91
515.139	474.4
515.571	441.63
516.002	472.06
516.433	481.42
516.865	450.99
517.296	425.25
517.727	479.08
518.159	460.35
518.59	469.72
519.021	418.22
519.452	380.78
519.883	446.31
520.314	390.14
520.744	380.78
521.175	439.29
521.606	486.1
522.037	397.16
522.467	439.29
522.898	504.82
523.328	434.61
523.759	415.88
524.189	399.5
524.62	429.93
525.05	434.61
525.48	455.67
525.91	404.18
526.341	467.38
526.771	448.65
527.201	408.86
527.631	420.57
528.061	390.14
528.49	387.8
528.92	453.33
529.35	406.52
529.78	439.29
530.209	373.75
530.639	418.22
531.068	418.22
531.498	441.63
531.927	401.84
532.357	383.12
532.786	458.01
533.215	406.52
533.644	427.59
534.074	415.88
534.503	486.1
534.932	476.74
535.361	441.63
535.79	509.51
536.218	418.22
536.647	415.88
537.076	439.29
537.505	446.31
537.933	413.54
538.362	490.78
538.79	535.25
539.219	500.14
539.647	575.04
540.076	535.25
540.504	549.29
540.932	572.7
541.36	624.19
541.788	642.92
542.217	703.77
542.645	724.83
543.073	745.9
543.5	743.56
543.928	771.65
544.356	671
544.784	783.35
545.211	799.73
545.639	802.07
546.067	745.9
546.494	649.94
546.922	579.72
547.349	568.02
547.776	546.95
548.204	434.61
548.631	530.57
549.058	551.64
549.485	495.46
549.912	544.61
550.339	577.38
550.766	528.23
551.193	561
551.62	542.27
552.047	525.89
552.474	514.19
552.9	465.04
553.327	504.82
553.754	467.38
554.18	488.44
554.607	458.01
555.033	448.65
555.459	467.38
555.886	411.2
556.312	418.22
556.738	439.29
557.164	429.93
557.59	434.61
558.016	392.48
558.442	443.97
558.868	453.33
559.294	406.52
559.72	465.04
560.145	443.97
560.571	432.27
560.997	483.76
561.422	399.5
561.848	373.75
562.273	390.14
562.699	385.46
563.124	420.57
563.549	425.25
563.974	514.19
564.4	420.57
564.825	404.18
565.25	401.84
565.675	446.31
566.1	401.84
566.525	429.93
566.95	357.37
567.374	401.84
567.799	462.69
568.224	467.38
568.648	415.88
569.073	376.09
569.497	383.12
569.922	333.97
570.346	458.01
570.771	319.92
571.195	404.18
571.619	458.01
572.043	378.44
572.467	355.03
572.891	469.72
573.315	413.54
573.739	392.48
574.163	436.95
574.587	401.84
575.011	380.78
575.435	460.35
575.858	495.46
576.282	397.16
576.705	458.01
577.129	453.33
577.552	404.18
577.976	462.69
578.399	418.22
578.822	420.57
579.245	479.08
579.669	376.09
580.092	450.99
580.515	490.78
580.938	429.93
581.361	502.48
581.784	422.91
582.206	422.91
582.629	474.4
583.052	439.29
583.474	369.07
583.897	507.16
584.32	483.76
584.742	453.33
585.165	429.93
585.587	432.27
586.009	432.27
586.431	453.33
586.854	539.93
587.276	453.33
587.698	422.91
588.12	441.63
588.542	521.21
588.964	509.51
589.386	497.8
589.807	455.67
590.229	507.16
590.651	453.33
591.073	436.95
591.494	488.44
591.916	467.38
592.337	404.18
592.759	436.95
593.18	443.97
593.601	371.41
594.022	401.84
594.444	404.18
594.865	415.88
595.286	427.59
595.707	350.35
596.128	434.61
596.549	418.22
596.97	436.95
597.39	434.61
597.811	394.82
598.232	390.14
598.652	411.2
599.073	429.93
599.494	408.86
599.914	399.5
600.334	411.2
600.755	401.84
601.175	406.52
601.595	378.44
602.015	331.62
602.436	340.99
602.856	537.59
603.276	408.86
603.696	465.04
604.115	422.91
604.535	399.5
604.955	371.41
605.375	411.2
605.794	392.48
606.214	348.01
606.634	373.75
607.053	387.8
607.473	355.03
607.892	350.35
608.311	422.91
608.731	448.65
609.15	539.93
609.569	551.64
609.988	680.36
610.407	731.86
610.826	799.73
611.245	827.82
611.664	785.69
612.083	776.33
612.501	750.58
612.92	600.79
613.339	605.47
613.757	561
614.176	495.46
614.594	516.53
615.013	530.57
615.431	528.23
615.85	486.1
616.268	443.97
616.686	479.08
617.104	472.06
617.522	474.4
617.94	420.57
618.358	422.91
618.776	450.99
619.194	455.67
619.612	406.52
620.03	406.52
620.447	441.63
620.865	450.99
621.282	397.16
621.7	418.22
622.117	394.82
622.535	418.22
622.952	432.27
623.369	376.09
623.787	406.52
624.204	418.22
624.621	406.52
625.038	366.73
625.455	376.09
625.872	371.41
626.289	415.88
626.706	404.18
627.123	376.09
627.539	399.5
627.956	434.61
628.373	362.05
628.789	465.04
629.206	408.86
629.622	369.07
630.038	352.69
630.455	373.75
630.871	397.16
631.287	476.74
631.703	460.35
632.12	453.33
632.536	401.84
632.952	348.01
633.368	406.52
633.783	399.5
634.199	362.05
634.615	378.44
635.031	291.84
635.446	408.86
635.862	345.67
636.277	350.35
636.693	338.65
637.108	352.69
637.524	397.16
637.939	345.67
638.354	310.56
638.77	394.82
639.185	308.22
639.6	315.24
640.015	336.31
640.43	352.69
640.845	376.09
641.259	355.03
641.674	336.31
642.089	317.58
642.504	392.48
642.918	362.05
643.333	322.26
643.747	317.58
644.162	340.99
644.576	355.03
644.991	425.25
645.405	305.88
645.819	397.16
646.233	287.15
646.647	392.48
647.061	357.37
647.475	340.99
647.889	399.5
648.303	345.67
648.717	322.26
649.131	385.46
649.545	305.88
649.958	397.16
650.372	401.84
650.785	380.78
651.199	404.18
651.612	345.67
652.026	380.78
652.439	378.44
652.852	364.39
653.266	319.92
653.679	312.9
654.092	340.99
654.505	310.56
654.918	322.26
655.331	348.01
655.744	333.97
656.156	352.69
656.569	338.65
656.982	315.24
657.394	366.73
657.807	355.03
658.22	322.26
658.632	371.41
659.044	326.94
659.457	338.65
659.869	308.22
660.281	324.6
660.693	326.94
661.106	280.13
661.518	287.15
661.93	326.94
662.342	369.07
662.754	326.94
663.165	275.45
663.577	364.39
663.989	364.39
664.401	333.97
664.812	275.45
665.224	338.65
665.635	280.13
666.047	345.67
666.458	322.26
666.869	319.92
667.281	348.01
667.692	322.26
668.103	317.58
668.514	380.78
668.925	305.88
669.336	399.5
669.747	319.92
670.158	317.58
670.569	308.22
670.979	345.67
671.39	359.71
671.801	305.88
672.211	340.99
672.622	284.81
673.032	345.67
673.443	385.46
673.853	322.26
674.263	338.65
674.674	371.41
675.084	322.26
675.494	343.33
675.904	329.28
676.314	329.28
676.724	364.39
677.134	338.65
677.544	369.07
677.953	376.09
678.363	343.33
678.773	415.88
679.182	324.6
679.592	362.05
680.001	357.37
680.411	322.26
680.82	315.24
681.23	303.54
681.639	308.22
682.048	362.05
682.457	352.69
682.866	298.86
683.275	338.65
683.684	378.44
684.093	355.03
684.502	256.73
684.911	378.44
685.32	277.79
685.728	343.33
686.137	326.94
686.546	296.52
686.954	263.75
687.363	303.54
687.771	364.39
688.179	387.8
688.588	317.58
688.996	287.15
689.404	291.84
689.812	308.22
690.22	408.86
690.628	312.9
691.036	364.39
691.444	338.65
691.852	355.03
692.26	397.16
692.667	329.28
693.075	392.48
693.483	287.15
693.89	345.67
694.298	277.79
694.705	329.28
695.112	387.8
695.52	355.03
695.927	359.71
696.334	387.8
696.741	324.6
697.148	352.69
697.555	294.18
697.962	315.24
698.369	371.41
698.776	289.5
699.183	373.75
699.59	296.52
699.996	355.03
700.403	284.81
700.81	284.81
701.216	387.8
701.623	336.31
702.029	289.5
702.435	273.11
702.842	376.09
703.248	305.88
703.654	322.26
704.06	340.99
704.466	343.33
704.872	315.24
705.278	308.22
705.684	333.97
706.09	348.01
706.496	364.39
706.901	355.03
707.307	411.2
707.712	340.99
708.118	371.41
708.523	401.84
708.929	336.31
709.334	387.8
709.74	338.65
710.145	340.99
710.55	312.9
710.955	331.62
711.36	371.41
711.765	338.65
712.17	408.86
712.575	380.78
712.98	951.87
713.385	401.84
713.789	357.37
714.194	331.62
714.599	336.31
715.003	340.99
715.408	355.03
715.812	315.24
716.217	366.73
716.621	387.8
717.025	352.69
717.429	364.39
717.833	359.71
718.238	338.65
718.642	376.09
719.046	303.54
719.449	345.67
719.853	305.88
720.257	338.65
720.661	296.52
721.065	329.28
721.468	289.5
721.872	266.09
722.275	343.33
722.679	340.99
723.082	357.37
723.485	326.94
723.889	315.24
724.292	303.54
724.695	324.6
725.098	333.97
725.501	350.35
725.904	345.67
726.307	254.39
726.71	308.22
727.113	294.18
727.516	282.47
727.918	308.22
728.321	263.75
728.724	303.54
729.126	296.52
729.529	352.69
729.931	284.81
730.333	357.37
730.736	394.82
731.138	331.62
731.54	350.35
731.942	343.33
732.344	305.88
732.746	263.75
733.148	333.97
733.55	343.33
733.952	317.58
734.354	326.94
734.756	287.15
735.157	294.18
735.559	294.18
735.96	294.18
736.362	364.39
736.763	289.5
737.165	362.05
737.566	352.69
737.967	343.33
738.368	322.26
738.77	345.67
739.171	294.18
739.572	378.44
739.973	345.67
740.374	305.88
740.774	247.37
741.175	301.2
741.576	380.78
741.977	317.58
742.377	383.12
742.778	385.46
743.178	315.24
743.579	373.75
743.979	331.62
744.379	350.35
744.78	291.84
745.18	322.26
745.58	350.35
745.98	319.92
746.38	315.24
746.78	362.05
747.18	348.01
747.58	324.6
747.98	282.47
748.38	308.22
748.779	355.03
749.179	319.92
749.578	345.67
749.978	310.56
750.377	355.03
750.777	322.26
751.176	310.56
751.575	284.81
751.975	343.33
752.374	336.31
752.773	324.6
753.172	301.2
753.571	301.2
753.97	233.32
754.369	270.77
754.768	326.94
755.166	357.37
755.565	357.37
755.964	345.67
756.362	336.31
756.761	350.35
757.159	357.37
757.558	305.88
757.956	355.03
758.354	326.94
758.753	357.37
759.151	319.92
759.549	340.99
759.947	317.58
760.345	284.81
760.743	310.56
761.141	301.2
761.539	310.56
761.936	359.71
762.334	319.92
762.732	296.52
763.129	291.84
763.527	310.56
763.924	357.37
764.322	385.46
764.719	345.67
765.117	348.01
765.514	249.71
765.911	348.01
766.308	287.15
766.705	331.62
767.102	348.01
767.499	331.62
767.896	357.37
768.293	359.71
768.69	319.92
769.086	296.52
769.483	296.52
769.88	338.65
770.276	277.79
770.673	315.24
771.069	364.39
771.466	340.99
771.862	296.52
772.258	308.22
772.654	303.54
773.05	280.13
773.447	329.28
773.843	336.31
774.239	350.35
774.634	273.11
775.03	294.18
775.426	310.56
775.822	317.58
776.218	357.37
776.613	343.33
777.009	333.97
777.404	371.41
777.8	303.54
778.195	282.47
778.59	308.22
778.986	355.03
779.381	373.75
779.776	301.2
780.171	338.65
780.566	355.03
780.961	223.96
781.356	336.31
781.751	333.97
782.146	329.28
782.54	340.99
782.935	378.44
783.33	345.67
783.724	284.81
784.119	296.52
784.513	282.47
784.908	333.97
785.302	359.71
785.696	296.52
786.09	340.99
786.485	291.84
786.879	322.26
787.273	390.14
787.667	303.54
788.061	319.92
788.454	329.28
788.848	319.92
789.242	373.75
789.636	348.01
790.029	329.28
790.423	343.33
790.816	319.92
791.21	322.26
791.603	301.2
791.997	319.92
792.39	298.86
792.783	245.02
793.176	357.37
793.569	329.28
793.962	301.2
794.355	294.18
794.748	235.66
795.141	399.5
795.534	282.47
795.927	329.28
796.319	277.79
796.712	305.88
797.105	331.62
797.497	287.15
797.89	310.56
798.282	317.58
798.674	289.5
799.067	296.52
799.459	298.86
799.851	418.22
800.243	425.25
800.635	336.31
801.027	340.99
801.419	401.84
801.811	364.39
802.203	338.65
802.594	383.12
802.986	362.05
803.378	326.94
803.769	312.9
804.161	305.88
804.552	308.22
804.944	298.86
805.335	340.99
805.726	287.15
806.118	280.13
806.509	312.9
806.9	284.81
807.291	296.52
807.682	303.54
808.073	345.67
808.464	287.15
808.855	291.84
809.245	364.39
809.636	319.92
810.027	322.26
810.417	336.31
810.808	287.15
811.198	317.58
811.589	287.15
811.979	301.2
812.369	294.18
812.759	326.94
813.15	298.86
813.54	340.99
813.93	319.92
814.32	277.79
814.71	317.58
815.1	280.13
815.489	385.46
815.879	305.88
816.269	280.13
816.658	331.62
817.048	317.58
817.438	277.79
817.827	336.31
818.216	256.73
818.606	296.52
818.995	326.94
819.384	312.9
819.773	387.8
820.163	343.33
820.552	369.07
820.941	284.81
821.33	305.88
821.718	319.92
822.107	355.03
822.496	273.11
822.885	287.15
823.273	359.71
823.662	357.37
824.05	322.26
824.439	277.79
824.827	317.58
825.216	380.78
825.604	268.43
825.992	287.15
826.38	340.99
826.768	303.54
827.156	308.22
827.544	401.84
827.932	336.31
828.32	338.65
828.708	315.24
829.096	242.68
829.483	355.03
829.871	298.86
830.259	315.24
830.646	294.18
831.034	331.62
831.421	303.54
831.808	331.62
832.196	223.96
832.583	282.47
832.97	404.18
833.357	310.56
833.744	348.01
834.131	383.12
834.518	343.33
834.905	376.09
835.292	319.92
835.678	324.6
836.065	247.37
836.452	322.26
836.838	329.28
837.225	362.05
837.611	308.22
837.998	301.2
838.384	277.79
838.77	305.88
839.157	340.99
839.543	275.45
839.929	254.39
840.315	289.5
840.701	303.54
841.087	305.88
841.473	287.15
841.858	366.73
842.244	308.22
842.63	301.2
843.015	294.18
843.401	411.2
843.787	329.28
844.172	233.32
844.557	380.78
844.943	296.52
845.328	350.35
845.713	385.46
846.098	331.62
846.483	345.67
846.868	326.94
847.253	399.5
847.638	380.78
848.023	291.84
848.408	350.35
848.793	359.71
849.177	345.67
849.562	303.54
849.947	305.88
850.331	352.69
850.715	343.33
851.1	294.18
851.484	352.69
851.868	355.03
852.253	298.86
852.637	284.81
853.021	418.22
853.405	359.71
853.789	415.88
854.173	312.9
854.557	291.84
854.94	331.62
855.324	376.09
855.708	348.01
856.091	324.6
856.475	282.47
856.858	338.65
857.242	291.84
857.625	338.65
858.009	280.13
858.392	376.09
858.775	296.52
859.158	357.37
859.541	357.37
859.924	289.5
860.307	296.52
860.69	284.81
861.073	385.46
861.456	324.6
861.838	322.26
862.221	326.94
862.604	301.2
862.986	343.33
863.369	280.13
863.751	343.33
864.133	364.39
864.516	357.37
864.898	308.22
865.28	289.5
865.662	294.18
866.044	373.75
866.426	301.2
866.808	261.41
867.19	350.35
867.572	357.37
867.954	326.94
868.336	324.6
868.717	369.07
869.099	315.24
869.48	338.65
869.862	336.31
870.243	336.31
870.625	319.92
871.006	340.99
871.387	338.65
871.768	355.03
872.149	378.44
872.53	324.6
872.911	310.56
873.292	343.33
873.673	345.67
874.054	315.24
874.435	345.67
874.815	226.3
875.196	378.44
875.577	266.09
875.957	326.94
876.338	317.58
876.718	348.01
877.098	343.33
877.479	305.88
877.859	387.8
878.239	350.35
878.619	324.6
878.999	280.13
879.379	350.35
879.759	366.73
880.139	357.37
880.519	308.22
880.898	369.07
881.278	338.65
881.658	310.56
882.037	324.6
882.417	350.35
882.796	380.78
883.176	348.01
883.555	441.63
883.934	331.62
884.313	385.46
884.693	387.8
885.072	305.88
885.451	362.05
885.83	333.97
886.209	287.15
886.587	338.65
886.966	326.94
887.345	312.9
887.724	345.67
888.102	247.37
888.481	291.84
888.859	312.9
889.238	305.88
889.616	411.2
889.994	329.28
890.373	376.09
890.751	287.15
891.129	340.99
891.507	350.35
891.885	333.97
892.263	357.37
892.641	308.22
893.019	287.15
893.396	329.28
893.774	359.71
894.152	282.47
894.529	252.05
894.907	294.18
895.284	352.69
895.662	254.39
896.039	310.56
896.416	294.18
896.794	352.69
897.171	340.99
897.548	282.47
897.925	310.56
898.302	343.33
898.679	340.99
899.056	324.6
899.433	352.69
899.809	362.05
900.186	373.75
900.563	324.6
900.939	294.18
901.316	317.58
901.692	261.41
902.069	275.45
902.445	340.99
902.821	348.01
903.197	298.86
903.574	303.54
903.95	310.56
904.326	315.24
904.702	338.65
905.078	275.45
905.454	408.86
905.829	436.95
906.205	303.54
906.581	329.28
906.956	324.6
907.332	312.9
907.707	326.94
908.083	301.2
908.458	305.88
908.833	308.22
909.209	329.28
909.584	326.94
909.959	259.07
910.334	355.03
910.709	312.9
911.084	301.2
911.459	387.8
911.834	336.31
912.209	280.13
912.583	324.6
912.958	343.33
913.333	296.52
913.707	280.13
914.082	312.9
914.456	326.94
914.83	350.35
915.205	308.22
915.579	289.5
915.953	301.2
916.327	312.9
916.701	263.75
917.075	364.39
917.449	355.03
917.823	333.97
918.197	324.6
918.571	319.92
918.944	275.45
919.318	331.62
919.692	256.73
920.065	340.99
920.438	273.11
920.812	282.47
921.185	315.24
921.558	333.97
921.932	371.41
922.305	357.37
922.678	352.69
923.051	322.26
923.424	312.9
923.797	364.39
924.17	315.24
924.542	322.26
924.915	338.65
925.288	319.92
925.661	247.37
926.033	294.18
926.406	343.33
926.778	366.73
927.15	319.92
927.523	301.2
927.895	343.33
928.267	298.86
928.639	371.41
929.011	333.97
929.383	273.11
929.755	331.62
930.127	369.07
930.499	284.81
930.871	336.31
931.242	329.28
931.614	324.6
931.986	390.14
932.357	254.39
932.729	401.84
933.1	366.73
933.471	359.71
933.843	326.94
934.214	343.33
934.585	340.99
934.956	343.33
935.327	371.41
935.698	331.62
936.069	340.99
936.44	319.92
936.811	312.9
937.182	308.22
937.552	357.37
937.923	319.92
938.293	329.28
938.664	324.6
939.034	387.8
939.405	333.97
939.775	329.28
940.145	343.33
940.516	326.94
940.886	380.78
941.256	294.18
941.626	315.24
941.996	345.67
942.366	359.71
942.735	298.86
943.105	315.24
943.475	280.13
943.845	214.6
944.214	357.37
944.584	350.35
944.953	317.58
945.323	340.99
945.692	336.31
946.061	343.33
946.43	310.56
946.8	312.9
947.169	380.78
947.538	322.26
947.907	350.35
948.276	348.01
948.645	352.69
949.013	294.18
949.382	338.65
949.751	268.43
950.119	305.88
950.488	308.22
950.857	296.52
951.225	259.07
951.593	294.18
951.962	355.03
952.33	322.26
952.698	275.45
953.066	383.12
953.434	371.41
953.802	387.8
954.17	315.24
954.538	315.24
954.906	331.62
955.274	336.31
955.642	343.33
956.009	308.22
956.377	303.54
956.744	348.01
957.112	298.86
957.479	252.05
957.847	336.31
958.214	263.75
958.581	319.92
958.948	364.39
959.315	373.75
959.683	303.54
960.05	352.69
960.416	226.3
960.783	345.67
961.15	345.67
961.517	301.2
961.884	355.03
962.25	268.43
962.617	308.22
962.983	308.22
963.35	277.79
963.716	336.31
964.082	256.73
964.449	331.62
964.815	275.45
965.181	364.39
965.547	275.45
965.913	319.92
966.279	357.37
966.645	329.28
967.011	289.5
967.377	366.73
967.742	352.69
968.108	343.33
968.474	385.46
968.839	340.99
969.205	343.33
969.57	280.13
969.935	317.58
970.301	277.79
970.666	226.3
971.031	308.22
971.396	364.39
971.761	336.31
972.126	303.54
972.491	319.92
972.856	340.99
973.221	275.45
973.586	280.13
973.95	305.88
974.315	282.47
974.679	268.43
975.044	357.37
975.408	326.94
975.773	303.54
976.137	333.97
976.501	326.94
976.866	404.18
977.23	326.94
977.594	291.84
977.958	284.81
978.322	242.68
978.686	310.56
979.049	280.13
979.413	343.33
979.777	282.47
980.141	322.26
980.504	338.65
980.868	350.35
981.231	261.41
981.595	301.2
981.958	348.01
982.321	352.69
982.684	446.31
983.048	340.99
983.411	291.84
983.774	319.92
984.137	294.18
984.5	280.13
984.862	371.41
985.225	324.6
985.588	310.56
985.951	315.24
986.313	308.22
986.676	373.75
987.038	425.25
987.401	287.15
987.763	317.58
988.125	425.25
988.488	284.81
988.85	343.33
989.212	303.54
989.574	411.2
989.936	343.33
990.298	333.97
990.66	369.07
991.022	352.69
991.383	331.62
991.745	294.18
992.107	280.13
992.468	319.92
992.83	322.26
993.191	301.2
993.553	329.28
993.914	308.22
994.275	324.6
994.637	310.56
994.998	301.2
995.359	343.33
995.72	326.94
996.081	326.94
996.442	310.56
996.803	324.6
997.163	336.31
997.524	303.54
997.885	373.75
998.245	329.28
998.606	331.62
998.966	289.5
999.327	301.2
999.687	355.03
1000.047	315.24
1000.408	333.97
1000.768	355.03
1001.128	329.28
1001.488	373.75
1001.848	303.54
1002.208	303.54
1002.568	355.03
1002.927	319.92
1003.287	336.31
1003.647	329.28
1004.007	310.56
1004.366	322.26
1004.726	315.24
1005.085	242.68
1005.444	305.88
1005.804	324.6
1006.163	394.82
1006.522	308.22
1006.881	364.39
1007.24	336.31
1007.599	340.99
1007.958	380.78
1008.317	331.62
1008.676	289.5
1009.035	359.71
1009.393	343.33
1009.752	331.62
1010.111	305.88
1010.469	336.31
1010.828	352.69
1011.186	256.73
1011.544	319.92
1011.903	355.03
1012.261	312.9
1012.619	284.81
1012.977	273.11
1013.335	357.37
1013.693	317.58
1014.051	329.28
1014.409	352.69
1014.767	352.69
1015.124	338.65
1015.482	322.26
1015.84	277.79
1016.197	322.26
1016.555	284.81
1016.912	273.11
1017.269	282.47
1017.627	331.62
1017.984	301.2
1018.341	324.6
1018.698	319.92
1019.055	329.28
1019.412	319.92
1019.769	333.97
1020.126	308.22
1020.483	305.88
1020.84	319.92
1021.196	296.52
1021.553	303.54
1021.909	383.12
1022.266	331.62
1022.622	287.15
1022.979	345.67
1023.335	348.01
1023.691	242.68
1024.047	296.52
1024.404	429.93
1024.76	303.54
1025.116	343.33
1025.472	326.94
1025.827	364.39
1026.183	331.62
1026.539	305.88
1026.895	298.86
1027.25	303.54
1027.606	275.45
1027.961	319.92
1028.317	266.09
1028.672	312.9
1029.028	362.05
1029.383	319.92
1029.738	291.84
1030.093	301.2
1030.448	301.2
1030.803	326.94
1031.158	305.88
1031.513	324.6
1031.868	324.6
1032.223	273.11
1032.577	378.44
1032.932	280.13
1033.287	270.77
1033.641	369.07
1033.996	329.28
1034.35	371.41
1034.704	345.67
1035.059	345.67
1035.413	329.28
1035.767	329.28
1036.121	329.28
