Data from Al_FLMS009871__723__15-12-40-029.txt Node

Date: Fri Mar 08 15:12:40 CST 2024
User: pe5414po
Spectrometer: FLMS00987
Trigger mode: 0
Integration Time (sec): 1.000000E-1
Scans to average: 1
Electric dark correction enabled: true
Nonlinearity correction enabled: false
Boxcar width: 0
XAxis mode: Wavelengths
Number of Pixels in Spectrum: 2048
>>>>>Begin Spectral Data<<<<<
188.938	-92.3
189.409	-92.3
189.879	-92.3
190.349	-136.78
190.819	-66.56
191.29	-92.3
191.76	-120.39
192.23	-104.01
192.7	-36.13
193.17	13.02
193.64	-92.3
194.109	-17.41
194.579	17.7
195.049	-22.09
195.519	34.08
195.988	-50.18
196.458	71.53
196.927	92.6
197.397	55.15
197.866	125.36
198.336	125.36
198.805	87.92
199.274	162.81
199.744	172.18
200.213	249.41
200.682	165.15
201.151	226.01
201.62	207.28
202.089	202.6
202.558	242.39
203.027	317.29
203.495	165.15
203.964	254.09
204.433	251.75
204.902	256.43
205.37	218.99
205.839	293.88
206.307	296.22
206.776	317.29
207.244	305.59
207.712	268.14
208.181	310.27
208.649	284.52
209.117	247.07
209.585	345.38
210.053	261.12
210.521	282.18
210.989	216.65
211.457	333.67
211.925	312.61
212.393	307.93
212.861	254.09
213.328	310.27
213.796	270.48
214.264	216.65
214.731	186.22
215.199	207.28
215.666	240.05
216.133	312.61
216.601	226.01
217.068	256.43
217.535	291.54
218.003	298.56
218.47	216.65
218.937	282.18
219.404	272.82
219.871	244.73
220.338	247.07
220.805	202.6
221.271	216.65
221.738	268.14
222.205	268.14
222.671	272.82
223.138	275.16
223.605	240.05
224.071	223.67
224.538	270.48
225.004	226.01
225.47	235.37
225.937	247.07
226.403	265.8
226.869	242.39
227.335	235.37
227.801	277.5
228.267	300.91
228.733	268.14
229.199	261.12
229.665	310.27
230.131	279.84
230.597	324.31
231.062	275.16
231.528	233.03
231.994	235.37
232.459	214.31
232.925	242.39
233.39	282.18
233.856	279.84
234.321	291.54
234.786	218.99
235.252	293.88
235.717	291.54
236.182	275.16
236.647	305.59
237.112	282.18
237.577	183.88
238.042	254.09
238.507	235.37
238.972	340.69
239.436	296.22
239.901	270.48
240.366	240.05
240.83	314.95
241.295	314.95
241.76	317.29
242.224	256.43
242.688	237.71
243.153	307.93
243.617	289.2
244.081	317.29
244.545	254.09
245.01	230.69
245.474	256.43
245.938	233.03
246.402	270.48
246.866	263.46
247.33	242.39
247.793	319.63
248.257	275.16
248.721	251.75
249.185	207.28
249.648	209.62
250.112	244.73
250.575	282.18
251.039	233.03
251.502	268.14
251.965	240.05
252.429	291.54
252.892	254.09
253.355	289.2
253.818	275.16
254.281	218.99
254.744	310.27
255.207	249.41
255.67	303.25
256.133	244.73
256.596	296.22
257.059	277.5
257.522	279.84
257.984	291.54
258.447	286.86
258.909	345.38
259.372	251.75
259.834	289.2
260.297	272.82
260.759	279.84
261.221	256.43
261.684	247.07
262.146	275.16
262.608	272.82
263.07	265.8
263.532	296.22
263.994	286.86
264.456	221.33
264.918	347.72
265.38	328.99
265.842	298.56
266.303	317.29
266.765	270.48
267.227	226.01
267.688	300.91
268.15	265.8
268.611	251.75
269.072	261.12
269.534	254.09
269.995	258.78
270.456	338.35
270.918	251.75
271.379	247.07
271.84	249.41
272.301	406.23
272.762	286.86
273.223	354.74
273.684	263.46
274.144	237.71
274.605	282.18
275.066	340.69
275.527	247.07
275.987	286.86
276.448	300.91
276.908	282.18
277.369	244.73
277.829	310.27
278.289	303.25
278.75	291.54
279.21	357.08
279.67	286.86
280.13	324.31
280.59	347.72
281.05	291.54
281.51	338.35
281.97	293.88
282.43	247.07
282.89	254.09
283.35	343.03
283.809	249.41
284.269	263.46
284.729	263.46
285.188	230.69
285.648	270.48
286.107	265.8
286.567	314.95
287.026	305.59
287.485	237.71
287.944	298.56
288.404	258.78
288.863	326.65
289.322	289.2
289.781	263.46
290.24	228.35
290.699	317.29
291.158	340.69
291.616	321.97
292.075	343.03
292.534	324.31
292.992	317.29
293.451	300.91
293.91	263.46
294.368	336.01
294.827	256.43
295.285	336.01
295.743	282.18
296.202	314.95
296.66	298.56
297.118	286.86
297.576	289.2
298.034	286.86
298.492	214.31
298.95	321.97
299.408	242.39
299.866	256.43
300.324	247.07
300.781	364.1
301.239	333.67
301.697	270.48
302.154	314.95
302.612	338.35
303.069	340.69
303.527	284.52
303.984	256.43
304.441	307.93
304.899	286.86
305.356	300.91
305.813	300.91
306.27	310.27
306.727	279.84
307.184	321.97
307.641	268.14
308.098	268.14
308.555	324.31
309.012	275.16
309.468	314.95
309.925	228.35
310.382	261.12
310.838	317.29
311.295	310.27
311.751	303.25
312.208	268.14
312.664	331.33
313.12	350.06
313.577	235.37
314.033	361.76
314.489	303.25
314.945	291.54
315.401	296.22
315.857	338.35
316.313	312.61
316.769	300.91
317.225	314.95
317.681	340.69
318.136	361.76
318.592	300.91
319.048	282.18
319.503	307.93
319.959	347.72
320.414	284.52
320.869	258.78
321.325	352.4
321.78	321.97
322.235	286.86
322.691	249.41
323.146	345.38
323.601	340.69
324.056	291.54
324.511	326.65
324.966	279.84
325.421	270.48
325.875	221.33
326.33	314.95
326.785	275.16
327.24	350.06
327.694	354.74
328.149	265.8
328.603	321.97
329.058	258.78
329.512	343.03
329.966	345.38
330.421	333.67
330.875	258.78
331.329	293.88
331.783	336.01
332.237	364.1
332.691	307.93
333.145	293.88
333.599	310.27
334.053	293.88
334.507	307.93
334.96	303.25
335.414	319.63
335.868	305.59
336.321	286.86
336.775	275.16
337.228	244.73
337.682	258.78
338.135	279.84
338.588	251.75
339.042	333.67
339.495	291.54
339.948	228.35
340.401	214.31
340.854	242.39
341.307	275.16
341.76	296.22
342.213	352.4
342.666	293.88
343.119	340.69
343.571	291.54
344.024	359.42
344.477	228.35
344.929	314.95
345.382	202.6
345.834	305.59
346.287	310.27
346.739	305.59
347.191	359.42
347.644	317.29
348.096	265.8
348.548	310.27
349	270.48
349.452	357.08
349.904	321.97
350.356	221.33
350.808	282.18
351.26	326.65
351.711	333.67
352.163	249.41
352.615	251.75
353.066	282.18
353.518	275.16
353.969	345.38
354.421	223.67
354.872	312.61
355.324	244.73
355.775	254.09
356.226	331.33
356.677	307.93
357.128	328.99
357.579	319.63
358.03	310.27
358.481	314.95
358.932	233.03
359.383	314.95
359.834	324.31
360.285	286.86
360.735	336.01
361.186	303.25
361.637	270.48
362.087	303.25
362.538	279.84
362.988	256.43
363.438	328.99
363.889	345.38
364.339	338.35
364.789	307.93
365.239	319.63
365.689	319.63
366.139	317.29
366.589	347.72
367.039	270.48
367.489	324.31
367.939	366.44
368.389	284.52
368.839	310.27
369.288	368.78
369.738	251.75
370.187	277.5
370.637	305.59
371.086	357.08
371.536	296.22
371.985	340.69
372.434	303.25
372.884	350.06
373.333	324.31
373.782	298.56
374.231	305.59
374.68	319.63
375.129	300.91
375.578	298.56
376.027	279.84
376.475	336.01
376.924	263.46
377.373	352.4
377.822	317.29
378.27	368.78
378.719	312.61
379.167	286.86
379.616	321.97
380.064	303.25
380.512	310.27
380.961	310.27
381.409	317.29
381.857	338.35
382.305	296.22
382.753	291.54
383.201	338.35
383.649	303.25
384.097	338.35
384.545	284.52
384.992	291.54
385.44	258.78
385.888	338.35
386.335	347.72
386.783	272.82
387.231	324.31
387.678	307.93
388.125	380.48
388.573	291.54
389.02	296.22
389.467	307.93
389.914	336.01
390.362	340.69
390.809	314.95
391.256	340.69
391.703	307.93
392.15	293.88
392.596	319.63
393.043	289.2
393.49	310.27
393.937	354.74
394.383	333.67
394.83	296.22
395.276	293.88
395.723	305.59
396.169	317.29
396.616	284.52
397.062	312.61
397.508	319.63
397.954	284.52
398.401	340.69
398.847	286.86
399.293	286.86
399.739	310.27
400.185	282.18
400.631	268.14
401.076	321.97
401.522	275.16
401.968	291.54
402.414	296.22
402.859	373.46
403.305	258.78
403.75	310.27
404.196	352.4
404.641	293.88
405.086	265.8
405.532	345.38
405.977	305.59
406.422	317.29
406.867	291.54
407.312	338.35
407.757	326.65
408.202	289.2
408.647	247.07
409.092	319.63
409.537	314.95
409.982	331.33
410.426	279.84
410.871	286.86
411.316	314.95
411.76	247.07
412.205	319.63
412.649	293.88
413.093	331.33
413.538	312.61
413.982	333.67
414.426	310.27
414.87	343.03
415.314	324.31
415.758	291.54
416.202	321.97
416.646	357.08
417.09	284.52
417.534	270.48
417.978	300.91
418.421	333.67
418.865	338.35
419.309	371.12
419.752	307.93
420.196	282.18
420.639	279.84
421.083	291.54
421.526	321.97
421.969	340.69
422.412	347.72
422.856	317.29
423.299	286.86
423.742	282.18
424.185	305.59
424.628	291.54
425.071	242.39
425.513	298.56
425.956	310.27
426.399	312.61
426.842	258.78
427.284	331.33
427.727	233.03
428.169	263.46
428.612	291.54
429.054	256.43
429.497	333.67
429.939	345.38
430.381	258.78
430.823	310.27
431.265	314.95
431.707	350.06
432.149	298.56
432.591	303.25
433.033	291.54
433.475	261.12
433.917	305.59
434.359	312.61
434.8	310.27
435.242	333.67
435.684	354.74
436.125	265.8
436.567	343.03
437.008	314.95
437.449	312.61
437.891	321.97
438.332	277.5
438.773	350.06
439.214	265.8
439.656	263.46
440.097	282.18
440.538	284.52
440.978	268.14
441.419	282.18
441.86	310.27
442.301	291.54
442.742	286.86
443.182	336.01
443.623	282.18
444.063	286.86
444.504	310.27
444.944	354.74
445.385	331.33
445.825	324.31
446.265	364.1
446.706	314.95
447.146	298.56
447.586	328.99
448.026	326.65
448.466	261.12
448.906	326.65
449.346	312.61
449.786	361.76
450.225	298.56
450.665	359.42
451.105	336.01
451.544	314.95
451.984	331.33
452.424	321.97
452.863	328.99
453.302	270.48
453.742	289.2
454.181	291.54
454.62	385.16
455.059	300.91
455.499	331.33
455.938	326.65
456.377	282.18
456.816	305.59
457.254	263.46
457.693	268.14
458.132	336.01
458.571	300.91
459.01	359.42
459.448	296.22
459.887	307.93
460.325	345.38
460.764	268.14
461.202	399.21
461.641	364.1
462.079	331.33
462.517	284.52
462.955	340.69
463.393	293.88
463.832	279.84
464.27	272.82
464.708	319.63
465.145	286.86
465.583	328.99
466.021	326.65
466.459	263.46
466.897	338.35
467.334	284.52
467.772	277.5
468.209	307.93
468.647	338.35
469.084	314.95
469.522	319.63
469.959	303.25
470.396	345.38
470.833	277.5
471.271	279.84
471.708	300.91
472.145	338.35
472.582	340.69
473.019	326.65
473.456	340.69
473.892	352.4
474.329	305.59
474.766	371.12
475.202	307.93
475.639	263.46
476.076	256.43
476.512	298.56
476.949	340.69
477.385	275.16
477.821	310.27
478.258	277.5
478.694	270.48
479.13	375.8
479.566	343.03
480.002	314.95
480.438	275.16
480.874	275.16
481.31	357.08
481.746	293.88
482.181	312.61
482.617	226.01
483.053	277.5
483.488	291.54
483.924	399.21
484.36	310.27
484.795	296.22
485.23	293.88
485.666	282.18
486.101	326.65
486.536	343.03
486.971	354.74
487.407	319.63
487.842	310.27
488.277	247.07
488.712	336.01
489.146	307.93
489.581	277.5
490.016	268.14
490.451	338.35
490.885	303.25
491.32	298.56
491.755	298.56
492.189	354.74
492.624	319.63
493.058	268.14
493.492	378.14
493.927	312.61
494.361	209.62
494.795	366.44
495.229	307.93
495.663	286.86
496.097	282.18
496.531	282.18
496.965	272.82
497.399	340.69
497.833	265.8
498.266	291.54
498.7	328.99
499.134	300.91
499.567	314.95
500.001	291.54
500.434	328.99
500.868	286.86
501.301	282.18
501.734	312.61
502.168	347.72
502.601	305.59
503.034	350.06
503.467	361.76
503.9	366.44
504.333	296.22
504.766	321.97
505.199	291.54
505.632	336.01
506.064	338.35
506.497	284.52
506.93	296.22
507.362	296.22
507.795	336.01
508.227	343.03
508.66	286.86
509.092	331.33
509.524	233.03
509.956	326.65
510.389	317.29
510.821	317.29
511.253	352.4
511.685	284.52
512.117	321.97
512.549	307.93
512.981	284.52
513.412	303.25
513.844	310.27
514.276	226.01
514.707	270.48
515.139	314.95
515.571	296.22
516.002	249.41
516.433	314.95
516.865	284.52
517.296	396.87
517.727	279.84
518.159	298.56
518.59	331.33
519.021	286.86
519.452	305.59
519.883	303.25
520.314	307.93
520.744	268.14
521.175	321.97
521.606	331.33
522.037	296.22
522.467	326.65
522.898	261.12
523.328	347.72
523.759	296.22
524.189	331.33
524.62	312.61
525.05	321.97
525.48	343.03
525.91	326.65
526.341	347.72
526.771	328.99
527.201	277.5
527.631	312.61
528.061	345.38
528.49	333.67
528.92	324.31
529.35	401.55
529.78	333.67
530.209	289.2
530.639	373.46
531.068	293.88
531.498	298.56
531.927	378.14
532.357	228.35
532.786	312.61
533.215	268.14
533.644	303.25
534.074	305.59
534.503	300.91
534.932	300.91
535.361	303.25
535.79	361.76
536.218	331.33
536.647	324.31
537.076	249.41
537.505	272.82
537.933	307.93
538.362	319.63
538.79	317.29
539.219	289.2
539.647	277.5
540.076	298.56
540.504	291.54
540.932	270.48
541.36	331.33
541.788	261.12
542.217	312.61
542.645	319.63
543.073	298.56
543.5	263.46
543.928	321.97
544.356	324.31
544.784	300.91
545.211	359.42
545.639	324.31
546.067	272.82
546.494	317.29
546.922	305.59
547.349	371.12
547.776	303.25
548.204	319.63
548.631	298.56
549.058	378.14
549.485	336.01
549.912	272.82
550.339	277.5
550.766	265.8
551.193	300.91
551.62	368.78
552.047	268.14
552.474	354.74
552.9	361.76
553.327	314.95
553.754	249.41
554.18	336.01
554.607	298.56
555.033	307.93
555.459	289.2
555.886	303.25
556.312	270.48
556.738	284.52
557.164	321.97
557.59	350.06
558.016	286.86
558.442	307.93
558.868	347.72
559.294	347.72
559.72	282.18
560.145	340.69
560.571	270.48
560.997	291.54
561.422	207.28
561.848	263.46
562.273	282.18
562.699	289.2
563.124	305.59
563.549	296.22
563.974	333.67
564.4	277.5
564.825	307.93
565.25	312.61
565.675	336.01
566.1	321.97
566.525	251.75
566.95	303.25
567.374	366.44
567.799	331.33
568.224	296.22
568.648	265.8
569.073	328.99
569.497	314.95
569.922	310.27
570.346	326.65
570.771	296.22
571.195	282.18
571.619	373.46
572.043	300.91
572.467	340.69
572.891	312.61
573.315	277.5
573.739	345.38
574.163	277.5
574.587	328.99
575.011	286.86
575.435	284.52
575.858	350.06
576.282	256.43
576.705	277.5
577.129	396.87
577.552	282.18
577.976	249.41
578.399	352.4
578.822	307.93
579.245	343.03
579.669	282.18
580.092	307.93
580.515	336.01
580.938	317.29
581.361	321.97
581.784	296.22
582.206	321.97
582.629	359.42
583.052	340.69
583.474	282.18
583.897	275.16
584.32	343.03
584.742	272.82
585.165	258.78
585.587	300.91
586.009	291.54
586.431	289.2
586.854	268.14
587.276	364.1
587.698	319.63
588.12	319.63
588.542	326.65
588.964	350.06
589.386	298.56
589.807	240.05
590.229	328.99
590.651	265.8
591.073	333.67
591.494	237.71
591.916	270.48
592.337	263.46
592.759	296.22
593.18	289.2
593.601	300.91
594.022	364.1
594.444	235.37
594.865	265.8
595.286	307.93
595.707	249.41
596.128	350.06
596.549	310.27
596.97	291.54
597.39	350.06
597.811	307.93
598.232	268.14
598.652	328.99
599.073	314.95
599.494	314.95
599.914	368.78
600.334	317.29
600.755	286.86
601.175	350.06
601.595	284.52
602.015	310.27
602.436	364.1
602.856	410.91
603.276	258.78
603.696	319.63
604.115	314.95
604.535	345.38
604.955	275.16
605.375	270.48
605.794	282.18
606.214	321.97
606.634	270.48
607.053	291.54
607.473	303.25
607.892	333.67
608.311	380.48
608.731	317.29
609.15	286.86
609.569	324.31
609.988	289.2
610.407	251.75
610.826	312.61
611.245	387.5
611.664	293.88
612.083	331.33
612.501	312.61
612.92	254.09
613.339	305.59
613.757	305.59
614.176	314.95
614.594	324.31
615.013	310.27
615.431	279.84
615.85	317.29
616.268	298.56
616.686	289.2
617.104	268.14
617.522	303.25
617.94	303.25
618.358	382.82
618.776	336.01
619.194	251.75
619.612	249.41
620.03	226.01
620.447	209.62
620.865	293.88
621.282	270.48
621.7	336.01
622.117	305.59
622.535	338.35
622.952	254.09
623.369	275.16
623.787	289.2
624.204	275.16
624.621	258.78
625.038	305.59
625.455	282.18
625.872	307.93
626.289	343.03
626.706	331.33
627.123	312.61
627.539	380.48
627.956	321.97
628.373	312.61
628.789	314.95
629.206	300.91
629.622	284.52
630.038	328.99
630.455	282.18
630.871	284.52
631.287	272.82
631.703	244.73
632.12	300.91
632.536	366.44
632.952	291.54
633.368	324.31
633.783	385.16
634.199	314.95
634.615	277.5
635.031	286.86
635.446	317.29
635.862	324.31
636.277	265.8
636.693	317.29
637.108	251.75
637.524	298.56
637.939	289.2
638.354	305.59
638.77	317.29
639.185	303.25
639.6	270.48
640.015	307.93
640.43	242.39
640.845	270.48
641.259	352.4
641.674	289.2
642.089	317.29
642.504	284.52
642.918	298.56
643.333	284.52
643.747	354.74
644.162	293.88
644.576	296.22
644.991	336.01
645.405	310.27
645.819	279.84
646.233	258.78
646.647	293.88
647.061	336.01
647.475	305.59
647.889	289.2
648.303	284.52
648.717	305.59
649.131	336.01
649.545	312.61
649.958	317.29
650.372	296.22
650.785	307.93
651.199	317.29
651.612	319.63
652.026	289.2
652.439	350.06
652.852	340.69
653.266	293.88
653.679	328.99
654.092	317.29
654.505	296.22
654.918	286.86
655.331	371.12
655.744	361.76
656.156	345.38
656.569	326.65
656.982	331.33
657.394	256.43
657.807	317.29
658.22	251.75
658.632	270.48
659.044	296.22
659.457	343.03
659.869	265.8
660.281	289.2
660.693	331.33
661.106	298.56
661.518	331.33
661.93	296.22
662.342	275.16
662.754	268.14
663.165	303.25
663.577	338.35
663.989	247.07
664.401	305.59
664.812	336.01
665.224	277.5
665.635	268.14
666.047	300.91
666.458	303.25
666.869	289.2
667.281	350.06
667.692	303.25
668.103	249.41
668.514	380.48
668.925	312.61
669.336	277.5
669.747	263.46
670.158	293.88
670.569	293.88
670.979	357.08
671.39	303.25
671.801	291.54
672.211	291.54
672.622	333.67
673.032	357.08
673.443	319.63
673.853	291.54
674.263	300.91
674.674	326.65
675.084	328.99
675.494	328.99
675.904	352.4
676.314	305.59
676.724	270.48
677.134	286.86
677.544	235.37
677.953	326.65
678.363	289.2
678.773	293.88
679.182	317.29
679.592	357.08
680.001	354.74
680.411	345.38
680.82	305.59
681.23	307.93
681.639	319.63
682.048	289.2
682.457	326.65
682.866	293.88
683.275	298.56
683.684	319.63
684.093	326.65
684.502	195.58
684.911	296.22
685.32	359.42
685.728	291.54
686.137	326.65
686.546	312.61
686.954	251.75
687.363	314.95
687.771	277.5
688.179	279.84
688.588	300.91
688.996	284.52
689.404	270.48
689.812	321.97
690.22	242.39
690.628	272.82
691.036	277.5
691.444	345.38
691.852	296.22
692.26	326.65
692.667	291.54
693.075	303.25
693.483	270.48
693.89	368.78
694.298	284.52
694.705	291.54
695.112	221.33
695.52	307.93
695.927	263.46
696.334	277.5
696.741	272.82
697.148	317.29
697.555	237.71
697.962	328.99
698.369	307.93
698.776	258.78
699.183	331.33
699.59	254.09
699.996	282.18
700.403	317.29
700.81	303.25
701.216	333.67
701.623	282.18
702.029	272.82
702.435	289.2
702.842	314.95
703.248	345.38
703.654	272.82
704.06	328.99
704.466	331.33
704.872	382.82
705.278	289.2
705.684	282.18
706.09	319.63
706.496	357.08
706.901	336.01
707.307	261.12
707.712	300.91
708.118	240.05
708.523	272.82
708.929	321.97
709.334	321.97
709.74	296.22
710.145	275.16
710.55	254.09
710.955	305.59
711.36	296.22
711.765	284.52
712.17	347.72
712.575	282.18
712.98	902.42
713.385	321.97
713.789	272.82
714.194	254.09
714.599	296.22
715.003	263.46
715.408	347.72
715.812	282.18
716.217	357.08
716.621	279.84
717.025	277.5
717.429	310.27
717.833	240.05
718.238	319.63
718.642	275.16
719.046	373.46
719.449	324.31
719.853	307.93
720.257	338.35
720.661	314.95
721.065	331.33
721.468	387.5
721.872	233.03
722.275	314.95
722.679	326.65
723.082	333.67
723.485	291.54
723.889	326.65
724.292	373.46
724.695	275.16
725.098	336.01
725.501	282.18
725.904	284.52
726.307	270.48
726.71	286.86
727.113	284.52
727.516	268.14
727.918	333.67
728.321	312.61
728.724	275.16
729.126	310.27
729.529	289.2
729.931	359.42
730.333	277.5
730.736	371.12
731.138	291.54
731.54	396.87
731.942	277.5
732.344	340.69
732.746	298.56
733.148	249.41
733.55	296.22
733.952	261.12
734.354	328.99
734.756	307.93
735.157	345.38
735.559	284.52
735.96	317.29
736.362	361.76
736.763	336.01
737.165	317.29
737.566	338.35
737.967	331.33
738.368	284.52
738.77	279.84
739.171	284.52
739.572	296.22
739.973	286.86
740.374	291.54
740.774	307.93
741.175	305.59
741.576	321.97
741.977	298.56
742.377	338.35
742.778	279.84
743.178	303.25
743.579	417.93
743.979	270.48
744.379	296.22
744.78	336.01
745.18	296.22
745.58	256.43
745.98	307.93
746.38	378.14
746.78	275.16
747.18	312.61
747.58	300.91
747.98	279.84
748.38	300.91
748.779	296.22
749.179	314.95
749.578	286.86
749.978	289.2
750.377	286.86
750.777	289.2
751.176	321.97
751.575	275.16
751.975	321.97
752.374	256.43
752.773	251.75
753.172	319.63
753.571	277.5
753.97	314.95
754.369	319.63
754.768	354.74
755.166	300.91
755.565	354.74
755.964	293.88
756.362	286.86
756.761	200.26
757.159	352.4
757.558	340.69
757.956	324.31
758.354	275.16
758.753	314.95
759.151	326.65
759.549	333.67
759.947	350.06
760.345	328.99
760.743	312.61
761.141	345.38
761.539	321.97
761.936	277.5
762.334	319.63
762.732	314.95
763.129	242.39
763.527	277.5
763.924	256.43
764.322	263.46
764.719	359.42
765.117	275.16
765.514	312.61
765.911	291.54
766.308	291.54
766.705	310.27
767.102	338.35
767.499	300.91
767.896	277.5
768.293	272.82
768.69	291.54
769.086	291.54
769.483	375.8
769.88	284.52
770.276	258.78
770.673	328.99
771.069	300.91
771.466	282.18
771.862	324.31
772.258	209.62
772.654	244.73
773.05	319.63
773.447	310.27
773.843	307.93
774.239	314.95
774.634	305.59
775.03	286.86
775.426	343.03
775.822	307.93
776.218	279.84
776.613	293.88
777.009	317.29
777.404	261.12
777.8	303.25
778.195	336.01
778.59	296.22
778.986	256.43
779.381	279.84
779.776	333.67
780.171	293.88
780.566	303.25
780.961	324.31
781.356	279.84
781.751	284.52
782.146	333.67
782.54	347.72
782.935	340.69
783.33	312.61
783.724	305.59
784.119	289.2
784.513	277.5
784.908	268.14
785.302	272.82
785.696	289.2
786.09	364.1
786.485	242.39
786.879	270.48
787.273	296.22
787.667	289.2
788.061	326.65
788.454	261.12
788.848	233.03
789.242	331.33
789.636	298.56
790.029	303.25
790.423	270.48
790.816	298.56
791.21	300.91
791.603	307.93
791.997	366.44
792.39	247.07
792.783	256.43
793.176	347.72
793.569	326.65
793.962	235.37
794.355	296.22
794.748	277.5
795.141	254.09
795.534	251.75
795.927	343.03
796.319	261.12
796.712	298.56
797.105	333.67
797.497	326.65
797.89	321.97
798.282	336.01
798.674	303.25
799.067	237.71
799.459	204.94
799.851	333.67
800.243	279.84
800.635	310.27
801.027	249.41
801.419	265.8
801.811	326.65
802.203	340.69
802.594	305.59
802.986	321.97
803.378	333.67
803.769	298.56
804.161	361.76
804.552	298.56
804.944	300.91
805.335	289.2
805.726	392.19
806.118	364.1
806.509	350.06
806.9	286.86
807.291	265.8
807.682	279.84
808.073	261.12
808.464	310.27
808.855	331.33
809.245	300.91
809.636	317.29
810.027	303.25
810.417	310.27
810.808	272.82
811.198	254.09
811.589	321.97
811.979	357.08
812.369	277.5
812.759	282.18
813.15	305.59
813.54	263.46
813.93	361.76
814.32	317.29
814.71	338.35
815.1	312.61
815.489	305.59
815.879	368.78
816.269	265.8
816.658	296.22
817.048	333.67
817.438	312.61
817.827	282.18
818.216	282.18
818.606	298.56
818.995	270.48
819.384	282.18
819.773	305.59
820.163	314.95
820.552	326.65
820.941	350.06
821.33	343.03
821.718	265.8
822.107	284.52
822.496	340.69
822.885	305.59
823.273	307.93
823.662	357.08
824.05	314.95
824.439	296.22
824.827	261.12
825.216	279.84
825.604	282.18
825.992	336.01
826.38	265.8
826.768	293.88
827.156	228.35
827.544	282.18
827.932	317.29
828.32	286.86
828.708	333.67
829.096	366.44
829.483	282.18
829.871	317.29
830.259	284.52
830.646	251.75
831.034	272.82
831.421	272.82
831.808	256.43
832.196	258.78
832.583	289.2
832.97	296.22
833.357	282.18
833.744	343.03
834.131	284.52
834.518	354.74
834.905	321.97
835.292	258.78
835.678	350.06
836.065	361.76
836.452	350.06
836.838	328.99
837.225	312.61
837.611	357.08
837.998	293.88
838.384	314.95
838.77	277.5
839.157	282.18
839.543	244.73
839.929	324.31
840.315	321.97
840.701	340.69
841.087	338.35
841.473	282.18
841.858	293.88
842.244	230.69
842.63	263.46
843.015	338.35
843.401	525.6
843.787	291.54
844.172	312.61
844.557	291.54
844.943	347.72
845.328	277.5
845.713	328.99
846.098	296.22
846.483	305.59
846.868	244.73
847.253	293.88
847.638	314.95
848.023	256.43
848.408	354.74
848.793	258.78
849.177	258.78
849.562	228.35
849.947	296.22
850.331	261.12
850.715	284.52
851.1	298.56
851.484	343.03
851.868	303.25
852.253	270.48
852.637	249.41
853.021	242.39
853.405	289.2
853.789	291.54
854.173	270.48
854.557	303.25
854.94	307.93
855.324	289.2
855.708	328.99
856.091	373.46
856.475	286.86
856.858	331.33
857.242	270.48
857.625	310.27
858.009	275.16
858.392	289.2
858.775	277.5
859.158	270.48
859.541	314.95
859.924	249.41
860.307	307.93
860.69	317.29
861.073	336.01
861.456	321.97
861.838	270.48
862.221	284.52
862.604	307.93
862.986	331.33
863.369	282.18
863.751	298.56
864.133	296.22
864.516	289.2
864.898	314.95
865.28	314.95
865.662	317.29
866.044	284.52
866.426	298.56
866.808	289.2
867.19	312.61
867.572	321.97
867.954	249.41
868.336	317.29
868.717	289.2
869.099	361.76
869.48	324.31
869.862	303.25
870.243	298.56
870.625	378.14
871.006	378.14
871.387	256.43
871.768	240.05
872.149	251.75
872.53	319.63
872.911	310.27
873.292	324.31
873.673	298.56
874.054	364.1
874.435	263.46
874.815	305.59
875.196	289.2
875.577	251.75
875.957	321.97
876.338	333.67
876.718	284.52
877.098	303.25
877.479	251.75
877.859	333.67
878.239	340.69
878.619	258.78
878.999	328.99
879.379	373.46
879.759	340.69
880.139	357.08
880.519	228.35
880.898	333.67
881.278	350.06
881.658	286.86
882.037	310.27
882.417	244.73
882.796	275.16
883.176	324.31
883.555	317.29
883.934	291.54
884.313	328.99
884.693	324.31
885.072	247.07
885.451	345.38
885.83	314.95
886.209	291.54
886.587	298.56
886.966	296.22
887.345	312.61
887.724	293.88
888.102	282.18
888.481	326.65
888.859	387.5
889.238	310.27
889.616	296.22
889.994	347.72
890.373	359.42
890.751	333.67
891.129	328.99
891.507	321.97
891.885	300.91
892.263	286.86
892.641	256.43
893.019	268.14
893.396	314.95
893.774	319.63
894.152	354.74
894.529	352.4
894.907	279.84
895.284	336.01
895.662	277.5
896.039	350.06
896.416	350.06
896.794	237.71
897.171	279.84
897.548	336.01
897.925	305.59
898.302	343.03
898.679	305.59
899.056	307.93
899.433	214.31
899.809	289.2
900.186	256.43
900.563	312.61
900.939	251.75
901.316	321.97
901.692	289.2
902.069	333.67
902.445	277.5
902.821	270.48
903.197	300.91
903.574	336.01
903.95	345.38
904.326	312.61
904.702	284.52
905.078	347.72
905.454	284.52
905.829	293.88
906.205	338.35
906.581	286.86
906.956	314.95
907.332	314.95
907.707	352.4
908.083	352.4
908.458	275.16
908.833	303.25
909.209	317.29
909.584	326.65
909.959	350.06
910.334	277.5
910.709	263.46
911.084	307.93
911.459	303.25
911.834	314.95
912.209	364.1
912.583	324.31
912.958	359.42
913.333	310.27
913.707	336.01
914.082	289.2
914.456	261.12
914.83	282.18
915.205	366.44
915.579	284.52
915.953	251.75
916.327	242.39
916.701	282.18
917.075	310.27
917.449	305.59
917.823	284.52
918.197	307.93
918.571	268.14
918.944	272.82
919.318	275.16
919.692	328.99
920.065	359.42
920.438	354.74
920.812	272.82
921.185	300.91
921.558	319.63
921.932	286.86
922.305	275.16
922.678	328.99
923.051	319.63
923.424	263.46
923.797	350.06
924.17	300.91
924.542	347.72
924.915	352.4
925.288	328.99
925.661	361.76
926.033	305.59
926.406	319.63
926.778	270.48
927.15	277.5
927.523	275.16
927.895	247.07
928.267	380.48
928.639	303.25
929.011	242.39
929.383	314.95
929.755	235.37
930.127	293.88
930.499	277.5
930.871	345.38
931.242	275.16
931.614	296.22
931.986	324.31
932.357	270.48
932.729	261.12
933.1	235.37
933.471	270.48
933.843	312.61
934.214	298.56
934.585	354.74
934.956	333.67
935.327	289.2
935.698	268.14
936.069	303.25
936.44	326.65
936.811	261.12
937.182	340.69
937.552	336.01
937.923	277.5
938.293	218.99
938.664	307.93
939.034	310.27
939.405	298.56
939.775	354.74
940.145	352.4
940.516	312.61
940.886	286.86
941.256	293.88
941.626	326.65
941.996	312.61
942.366	291.54
942.735	317.29
943.105	319.63
943.475	307.93
943.845	314.95
944.214	319.63
944.584	317.29
944.953	258.78
945.323	345.38
945.692	261.12
946.061	277.5
946.43	279.84
946.8	345.38
947.169	256.43
947.538	275.16
947.907	298.56
948.276	312.61
948.645	340.69
949.013	268.14
949.382	319.63
949.751	312.61
950.119	310.27
950.488	305.59
950.857	204.94
951.225	314.95
951.593	254.09
951.962	361.76
952.33	326.65
952.698	336.01
953.066	354.74
953.434	254.09
953.802	251.75
954.17	233.03
954.538	382.82
954.906	336.01
955.274	310.27
955.642	321.97
956.009	326.65
956.377	307.93
956.744	317.29
957.112	314.95
957.479	324.31
957.847	298.56
958.214	237.71
958.581	237.71
958.948	350.06
959.315	331.33
959.683	284.52
960.05	268.14
960.416	305.59
960.783	319.63
961.15	324.31
961.517	300.91
961.884	317.29
962.25	307.93
962.617	291.54
962.983	289.2
963.35	347.72
963.716	312.61
964.082	307.93
964.449	254.09
964.815	331.33
965.181	324.31
965.547	324.31
965.913	233.03
966.279	319.63
966.645	328.99
967.011	265.8
967.377	336.01
967.742	270.48
968.108	263.46
968.474	282.18
968.839	314.95
969.205	307.93
969.57	256.43
969.935	216.65
970.301	258.78
970.666	307.93
971.031	251.75
971.396	282.18
971.761	324.31
972.126	307.93
972.491	279.84
972.856	354.74
973.221	361.76
973.586	293.88
973.95	340.69
974.315	247.07
974.679	331.33
975.044	256.43
975.408	263.46
975.773	291.54
976.137	258.78
976.501	291.54
976.866	305.59
977.23	310.27
977.594	314.95
977.958	303.25
978.322	296.22
978.686	284.52
979.049	272.82
979.413	275.16
979.777	258.78
980.141	261.12
980.504	300.91
980.868	277.5
981.231	277.5
981.595	237.71
981.958	303.25
982.321	300.91
982.684	317.29
983.048	307.93
983.411	314.95
983.774	324.31
984.137	319.63
984.5	345.38
984.862	284.52
985.225	303.25
985.588	228.35
985.951	310.27
986.313	331.33
986.676	403.89
987.038	380.48
987.401	319.63
987.763	338.35
988.125	300.91
988.488	296.22
988.85	382.82
989.212	324.31
989.574	249.41
989.936	310.27
990.298	275.16
990.66	293.88
991.022	275.16
991.383	265.8
991.745	277.5
992.107	291.54
992.468	333.67
992.83	188.56
993.191	343.03
993.553	228.35
993.914	286.86
994.275	298.56
994.637	333.67
994.998	275.16
995.359	258.78
995.72	270.48
996.081	275.16
996.442	331.33
996.803	291.54
997.163	293.88
997.524	307.93
997.885	244.73
998.245	291.54
998.606	254.09
998.966	211.96
999.327	233.03
999.687	235.37
1000.047	305.59
1000.408	310.27
1000.768	190.9
1001.128	265.8
1001.488	310.27
1001.848	350.06
1002.208	314.95
1002.568	338.35
1002.927	300.91
1003.287	286.86
1003.647	324.31
1004.007	289.2
1004.366	282.18
1004.726	319.63
1005.085	289.2
1005.444	340.69
1005.804	354.74
1006.163	333.67
1006.522	310.27
1006.881	303.25
1007.24	300.91
1007.599	317.29
1007.958	307.93
1008.317	328.99
1008.676	258.78
1009.035	338.35
1009.393	326.65
1009.752	261.12
1010.111	366.44
1010.469	307.93
1010.828	286.86
1011.186	233.03
1011.544	340.69
1011.903	291.54
1012.261	340.69
1012.619	265.8
1012.977	279.84
1013.335	258.78
1013.693	282.18
1014.051	352.4
1014.409	240.05
1014.767	331.33
1015.124	293.88
1015.482	338.35
1015.84	303.25
1016.197	289.2
1016.555	314.95
1016.912	328.99
1017.269	319.63
1017.627	296.22
1017.984	298.56
1018.341	298.56
1018.698	296.22
1019.055	263.46
1019.412	303.25
1019.769	312.61
1020.126	312.61
1020.483	326.65
1020.84	319.63
1021.196	310.27
1021.553	296.22
1021.909	277.5
1022.266	345.38
1022.622	230.69
1022.979	310.27
1023.335	359.42
1023.691	317.29
1024.047	275.16
1024.404	387.5
1024.76	399.21
1025.116	310.27
1025.472	307.93
1025.827	282.18
1026.183	282.18
1026.539	289.2
1026.895	235.37
1027.25	265.8
1027.606	319.63
1027.961	296.22
1028.317	303.25
1028.672	305.59
1029.028	314.95
1029.383	343.03
1029.738	312.61
1030.093	319.63
1030.448	289.2
1030.803	340.69
1031.158	275.16
1031.513	352.4
1031.868	314.95
1032.223	307.93
1032.577	258.78
1032.932	286.86
1033.287	331.33
1033.641	265.8
1033.996	307.93
1034.35	326.65
1034.704	326.65
1035.059	277.5
1035.413	375.8
1035.767	375.8
1036.121	375.8
