Data from Al_FLMS009871__727__15-12-40-429.txt Node

Date: Fri Mar 08 15:12:40 CST 2024
User: pe5414po
Spectrometer: FLMS00987
Trigger mode: 0
Integration Time (sec): 1.000000E-1
Scans to average: 1
Electric dark correction enabled: true
Nonlinearity correction enabled: false
Boxcar width: 0
XAxis mode: Wavelengths
Number of Pixels in Spectrum: 2048
>>>>>Begin Spectral Data<<<<<
188.938	-5.56
189.409	-5.56
189.879	-5.56
190.349	-138.97
190.819	-87.48
191.29	-120.25
191.76	-127.27
192.23	-35.99
192.7	-45.35
193.17	-66.41
193.64	-68.75
194.109	15.51
194.579	15.51
195.049	-3.22
195.519	36.57
195.988	-24.28
196.458	55.3
196.927	27.21
197.397	88.06
197.866	111.47
198.336	141.89
198.805	97.42
199.274	177
199.744	207.43
200.213	205.09
200.682	221.47
201.151	193.39
201.62	251.9
202.089	287.01
202.558	228.49
203.027	317.44
203.495	312.75
203.964	237.86
204.433	284.67
204.902	268.28
205.37	270.62
205.839	296.37
206.307	329.14
206.776	315.09
207.244	317.44
207.712	354.88
208.181	251.9
208.649	329.14
209.117	336.16
209.585	308.07
210.053	298.71
210.521	294.03
210.989	324.46
211.457	247.22
211.925	326.8
212.393	336.16
212.861	329.14
213.328	289.35
213.796	235.52
214.264	336.16
214.731	256.58
215.199	272.96
215.666	219.13
216.133	310.41
216.601	275.31
217.068	258.92
217.535	230.84
218.003	272.96
218.47	296.37
218.937	272.96
219.404	270.62
219.871	270.62
220.338	244.88
220.805	256.58
221.271	202.75
221.738	294.03
222.205	284.67
222.671	277.65
223.138	324.46
223.605	298.71
224.071	282.33
224.538	272.96
225.004	275.31
225.47	317.44
225.937	237.86
226.403	333.82
226.869	249.56
227.335	291.69
227.801	275.31
228.267	333.82
228.733	354.88
229.199	312.75
229.665	310.41
230.131	333.82
230.597	233.18
231.062	284.67
231.528	305.73
231.994	296.37
232.459	289.35
232.925	354.88
233.39	254.24
233.856	265.94
234.321	312.75
234.786	322.12
235.252	303.39
235.717	291.69
236.182	221.47
236.647	263.6
237.112	268.28
237.577	305.73
238.042	291.69
238.507	270.62
238.972	244.88
239.436	233.18
239.901	275.31
240.366	268.28
240.83	331.48
241.295	277.65
241.76	336.16
242.224	315.09
242.688	312.75
243.153	240.2
243.617	322.12
244.081	294.03
244.545	303.39
245.01	296.37
245.474	261.26
245.938	258.92
246.402	301.05
246.866	305.73
247.33	359.56
247.793	242.54
248.257	298.71
248.721	277.65
249.185	275.31
249.648	301.05
250.112	265.94
250.575	265.94
251.039	284.67
251.502	254.24
251.965	296.37
252.429	235.52
252.892	244.88
253.355	315.09
253.818	216.79
254.281	326.8
254.744	291.69
255.207	263.6
255.67	265.94
256.133	282.33
256.596	265.94
257.059	268.28
257.522	291.69
257.984	263.6
258.447	287.01
258.909	338.5
259.372	284.67
259.834	263.6
260.297	366.59
260.759	279.99
261.221	258.92
261.684	240.2
262.146	282.33
262.608	287.01
263.07	270.62
263.532	279.99
263.994	326.8
264.456	310.41
264.918	331.48
265.38	214.45
265.842	312.75
266.303	298.71
266.765	389.99
267.227	282.33
267.688	298.71
268.15	343.18
268.611	317.44
269.072	298.71
269.534	296.37
269.995	340.84
270.456	354.88
270.918	294.03
271.379	294.03
271.84	294.03
272.301	319.78
272.762	354.88
273.223	268.28
273.684	329.14
274.144	343.18
274.605	375.95
275.066	331.48
275.527	308.07
275.987	305.73
276.448	265.94
276.908	343.18
277.369	296.37
277.829	279.99
278.289	261.26
278.75	319.78
279.21	298.71
279.67	308.07
280.13	228.49
280.59	345.52
281.05	329.14
281.51	364.25
281.97	312.75
282.43	343.18
282.89	322.12
283.35	338.5
283.809	270.62
284.269	258.92
284.729	284.67
285.188	287.01
285.648	324.46
286.107	368.93
286.567	270.62
287.026	371.27
287.485	279.99
287.944	350.2
288.404	315.09
288.863	312.75
289.322	317.44
289.781	354.88
290.24	268.28
290.699	308.07
291.158	301.05
291.616	294.03
292.075	322.12
292.534	340.84
292.992	265.94
293.451	268.28
293.91	333.82
294.368	319.78
294.827	268.28
295.285	305.73
295.743	261.26
296.202	279.99
296.66	230.84
297.118	279.99
297.576	256.58
298.034	284.67
298.492	298.71
298.95	350.2
299.408	331.48
299.866	315.09
300.324	329.14
300.781	364.25
301.239	310.41
301.697	272.96
302.154	331.48
302.612	305.73
303.069	298.71
303.527	310.41
303.984	282.33
304.441	315.09
304.899	270.62
305.356	326.8
305.813	301.05
306.27	296.37
306.727	317.44
307.184	251.9
307.641	275.31
308.098	310.41
308.555	298.71
309.012	345.52
309.468	298.71
309.925	249.56
310.382	296.37
310.838	331.48
311.295	275.31
311.751	345.52
312.208	219.13
312.664	312.75
313.12	347.86
313.577	296.37
314.033	322.12
314.489	315.09
314.945	291.69
315.401	347.86
315.857	303.39
316.313	333.82
316.769	308.07
317.225	329.14
317.681	310.41
318.136	291.69
318.592	326.8
319.048	350.2
319.503	291.69
319.959	324.46
320.414	287.01
320.869	322.12
321.325	291.69
321.78	258.92
322.235	298.71
322.691	308.07
323.146	310.41
323.601	235.52
324.056	354.88
324.511	340.84
324.966	312.75
325.421	352.54
325.875	263.6
326.33	312.75
326.785	338.5
327.24	315.09
327.694	378.29
328.149	385.31
328.603	319.78
329.058	315.09
329.512	354.88
329.966	315.09
330.421	301.05
330.875	258.92
331.329	284.67
331.783	279.99
332.237	284.67
332.691	310.41
333.145	340.84
333.599	357.22
334.053	326.8
334.507	305.73
334.96	305.73
335.414	324.46
335.868	333.82
336.321	289.35
336.775	219.13
337.228	303.39
337.682	279.99
338.135	345.52
338.588	312.75
339.042	319.78
339.495	319.78
339.948	340.84
340.401	294.03
340.854	305.73
341.307	319.78
341.76	263.6
342.213	357.22
342.666	371.27
343.119	312.75
343.571	324.46
344.024	347.86
344.477	347.86
344.929	322.12
345.382	380.63
345.834	298.71
346.287	249.56
346.739	329.14
347.191	272.96
347.644	223.81
348.096	331.48
348.548	345.52
349	357.22
349.452	329.14
349.904	345.52
350.356	343.18
350.808	359.56
351.26	287.01
351.711	287.01
352.163	340.84
352.615	312.75
353.066	333.82
353.518	303.39
353.969	350.2
354.421	343.18
354.872	272.96
355.324	275.31
355.775	263.6
356.226	394.67
356.677	387.65
357.128	347.86
357.579	324.46
358.03	315.09
358.481	310.41
358.932	301.05
359.383	287.01
359.834	336.16
360.285	284.67
360.735	343.18
361.186	343.18
361.637	317.44
362.087	308.07
362.538	347.86
362.988	308.07
363.438	345.52
363.889	317.44
364.339	336.16
364.789	287.01
365.239	298.71
365.689	350.2
366.139	326.8
366.589	317.44
367.039	317.44
367.489	331.48
367.939	254.24
368.389	326.8
368.839	322.12
369.288	326.8
369.738	329.14
370.187	287.01
370.637	298.71
371.086	343.18
371.536	294.03
371.985	333.82
372.434	256.58
372.884	326.8
373.333	336.16
373.782	272.96
374.231	317.44
374.68	277.65
375.129	354.88
375.578	312.75
376.027	380.63
376.475	326.8
376.924	368.93
377.373	284.67
377.822	338.5
378.27	336.16
378.719	354.88
379.167	347.86
379.616	301.05
380.064	301.05
380.512	364.25
380.961	397.01
381.409	319.78
381.857	324.46
382.305	385.31
382.753	331.48
383.201	324.46
383.649	287.01
384.097	298.71
384.545	333.82
384.992	357.22
385.44	284.67
385.888	289.35
386.335	373.61
386.783	317.44
387.231	385.31
387.678	338.5
388.125	303.39
388.573	340.84
389.02	279.99
389.467	366.59
389.914	319.78
390.362	347.86
390.809	315.09
391.256	392.33
391.703	371.27
392.15	324.46
392.596	399.35
393.043	345.52
393.49	322.12
393.937	322.12
394.383	345.52
394.83	284.67
395.276	303.39
395.723	296.37
396.169	291.69
396.616	312.75
397.062	272.96
397.508	338.5
397.954	284.67
398.401	287.01
398.847	301.05
399.293	258.92
399.739	333.82
400.185	319.78
400.631	350.2
401.076	329.14
401.522	331.48
401.968	289.35
402.414	333.82
402.859	361.91
403.305	338.5
403.75	413.4
404.196	354.88
404.641	364.25
405.086	336.16
405.532	296.37
405.977	371.27
406.422	251.9
406.867	284.67
407.312	364.25
407.757	298.71
408.202	340.84
408.647	345.52
409.092	338.5
409.537	251.9
409.982	270.62
410.426	254.24
410.871	350.2
411.316	343.18
411.76	340.84
412.205	350.2
412.649	254.24
413.093	263.6
413.538	331.48
413.982	258.92
414.426	319.78
414.87	329.14
415.314	343.18
415.758	371.27
416.202	298.71
416.646	301.05
417.09	343.18
417.534	326.8
417.978	336.16
418.421	354.88
418.865	319.78
419.309	322.12
419.752	373.61
420.196	326.8
420.639	350.2
421.083	389.99
421.526	296.37
421.969	382.97
422.412	303.39
422.856	324.46
423.299	289.35
423.742	331.48
424.185	345.52
424.628	296.37
425.071	308.07
425.513	294.03
425.956	301.05
426.399	294.03
426.842	336.16
427.284	364.25
427.727	329.14
428.169	352.54
428.612	366.59
429.054	331.48
429.497	345.52
429.939	338.5
430.381	392.33
430.823	305.73
431.265	258.92
431.707	340.84
432.149	338.5
432.591	401.69
433.033	345.52
433.475	336.16
433.917	333.82
434.359	315.09
434.8	350.2
435.242	294.03
435.684	331.48
436.125	368.93
436.567	340.84
437.008	347.86
437.449	333.82
437.891	315.09
438.332	338.5
438.773	343.18
439.214	324.46
439.656	308.07
440.097	256.58
440.538	333.82
440.978	294.03
441.419	378.29
441.86	350.2
442.301	305.73
442.742	322.12
443.182	375.95
443.623	361.91
444.063	343.18
444.504	294.03
444.944	301.05
445.385	301.05
445.825	336.16
446.265	345.52
446.706	343.18
447.146	310.41
447.586	301.05
448.026	345.52
448.466	326.8
448.906	279.99
449.346	282.33
449.786	301.05
450.225	279.99
450.665	322.12
451.105	354.88
451.544	329.14
451.984	319.78
452.424	326.8
452.863	352.54
453.302	289.35
453.742	319.78
454.181	324.46
454.62	340.84
455.059	294.03
455.499	303.39
455.938	319.78
456.377	284.67
456.816	282.33
457.254	338.5
457.693	408.72
458.132	244.88
458.571	310.41
459.01	310.41
459.448	310.41
459.887	326.8
460.325	296.37
460.764	338.5
461.202	282.33
461.641	296.37
462.079	336.16
462.517	303.39
462.955	319.78
463.393	357.22
463.832	308.07
464.27	284.67
464.708	361.91
465.145	282.33
465.583	296.37
466.021	326.8
466.459	296.37
466.897	223.81
467.334	282.33
467.772	317.44
468.209	326.8
468.647	368.93
469.084	298.71
469.522	319.78
469.959	350.2
470.396	298.71
470.833	347.86
471.271	373.61
471.708	357.22
472.145	324.46
472.582	331.48
473.019	319.78
473.456	312.75
473.892	333.82
474.329	322.12
474.766	366.59
475.202	310.41
475.639	277.65
476.076	350.2
476.512	399.35
476.949	347.86
477.385	296.37
477.821	317.44
478.258	287.01
478.694	298.71
479.13	338.5
479.566	336.16
480.002	364.25
480.438	326.8
480.874	265.94
481.31	310.41
481.746	275.31
482.181	312.75
482.617	354.88
483.053	319.78
483.488	282.33
483.924	315.09
484.36	352.54
484.795	312.75
485.23	301.05
485.666	389.99
486.101	331.48
486.536	303.39
486.971	347.86
487.407	287.01
487.842	340.84
488.277	371.27
488.712	385.31
489.146	324.46
489.581	373.61
490.016	329.14
490.451	256.58
490.885	366.59
491.32	350.2
491.755	354.88
492.189	347.86
492.624	333.82
493.058	343.18
493.492	287.01
493.927	256.58
494.361	333.82
494.795	265.94
495.229	336.16
495.663	382.97
496.097	305.73
496.531	340.84
496.965	347.86
497.399	382.97
497.833	359.56
498.266	312.75
498.7	366.59
499.134	287.01
499.567	336.16
500.001	301.05
500.434	366.59
500.868	324.46
501.301	294.03
501.734	308.07
502.168	338.5
502.601	287.01
503.034	368.93
503.467	338.5
503.9	336.16
504.333	310.41
504.766	303.39
505.199	352.54
505.632	319.78
506.064	284.67
506.497	319.78
506.93	296.37
507.362	345.52
507.795	343.18
508.227	338.5
508.66	338.5
509.092	322.12
509.524	336.16
509.956	322.12
510.389	380.63
510.821	305.73
511.253	319.78
511.685	331.48
512.117	385.31
512.549	387.65
512.981	279.99
513.412	361.91
513.844	333.82
514.276	352.54
514.707	343.18
515.139	364.25
515.571	326.8
516.002	284.67
516.433	340.84
516.865	378.29
517.296	359.56
517.727	256.58
518.159	347.86
518.59	319.78
519.021	375.95
519.452	315.09
519.883	357.22
520.314	277.65
520.744	333.82
521.175	357.22
521.606	312.75
522.037	333.82
522.467	312.75
522.898	368.93
523.328	291.69
523.759	296.37
524.189	364.25
524.62	315.09
525.05	305.73
525.48	357.22
525.91	322.12
526.341	350.2
526.771	326.8
527.201	317.44
527.631	305.73
528.061	333.82
528.49	324.46
528.92	237.86
529.35	308.07
529.78	284.67
530.209	317.44
530.639	279.99
531.068	291.69
531.498	345.52
531.927	380.63
532.357	354.88
532.786	350.2
533.215	282.33
533.644	368.93
534.074	350.2
534.503	336.16
534.932	310.41
535.361	347.86
535.79	329.14
536.218	347.86
536.647	303.39
537.076	319.78
537.505	389.99
537.933	277.65
538.362	329.14
538.79	324.46
539.219	357.22
539.647	340.84
540.076	308.07
540.504	343.18
540.932	270.62
541.36	343.18
541.788	385.31
542.217	368.93
542.645	312.75
543.073	340.84
543.5	336.16
543.928	357.22
544.356	305.73
544.784	296.37
545.211	329.14
545.639	326.8
546.067	315.09
546.494	326.8
546.922	331.48
547.349	282.33
547.776	411.06
548.204	364.25
548.631	322.12
549.058	305.73
549.485	333.82
549.912	312.75
550.339	350.2
550.766	324.46
551.193	303.39
551.62	294.03
552.047	338.5
552.474	296.37
552.9	350.2
553.327	324.46
553.754	291.69
554.18	287.01
554.607	336.16
555.033	380.63
555.459	298.71
555.886	329.14
556.312	340.84
556.738	331.48
557.164	298.71
557.59	331.48
558.016	343.18
558.442	352.54
558.868	315.09
559.294	364.25
559.72	301.05
560.145	354.88
560.571	364.25
560.997	364.25
561.422	303.39
561.848	282.33
562.273	364.25
562.699	350.2
563.124	303.39
563.549	319.78
563.974	324.46
564.4	303.39
564.825	324.46
565.25	338.5
565.675	282.33
566.1	406.38
566.525	394.67
566.95	317.44
567.374	319.78
567.799	268.28
568.224	375.95
568.648	352.54
569.073	303.39
569.497	315.09
569.922	270.62
570.346	301.05
570.771	294.03
571.195	366.59
571.619	364.25
572.043	364.25
572.467	296.37
572.891	310.41
573.315	347.86
573.739	298.71
574.163	387.65
574.587	294.03
575.011	315.09
575.435	347.86
575.858	373.61
576.282	338.5
576.705	324.46
577.129	322.12
577.552	263.6
577.976	237.86
578.399	310.41
578.822	350.2
579.245	287.01
579.669	305.73
580.092	310.41
580.515	338.5
580.938	319.78
581.361	284.67
581.784	331.48
582.206	357.22
582.629	301.05
583.052	333.82
583.474	324.46
583.897	352.54
584.32	324.46
584.742	277.65
585.165	350.2
585.587	275.31
586.009	359.56
586.431	359.56
586.854	298.71
587.276	319.78
587.698	315.09
588.12	380.63
588.542	329.14
588.964	303.39
589.386	305.73
589.807	284.67
590.229	331.48
590.651	361.91
591.073	361.91
591.494	317.44
591.916	352.54
592.337	301.05
592.759	331.48
593.18	265.94
593.601	373.61
594.022	336.16
594.444	347.86
594.865	282.33
595.286	394.67
595.707	298.71
596.128	350.2
596.549	352.54
596.97	319.78
597.39	305.73
597.811	382.97
598.232	291.69
598.652	289.35
599.073	343.18
599.494	289.35
599.914	289.35
600.334	329.14
600.755	303.39
601.175	317.44
601.595	284.67
602.015	359.56
602.436	310.41
602.856	450.85
603.276	294.03
603.696	324.46
604.115	263.6
604.535	347.86
604.955	310.41
605.375	324.46
605.794	303.39
606.214	319.78
606.634	338.5
607.053	287.01
607.473	345.52
607.892	324.46
608.311	315.09
608.731	291.69
609.15	336.16
609.569	359.56
609.988	340.84
610.407	308.07
610.826	315.09
611.245	336.16
611.664	338.5
612.083	352.54
612.501	298.71
612.92	359.56
613.339	392.33
613.757	352.54
614.176	331.48
614.594	378.29
615.013	343.18
615.431	345.52
615.85	265.94
616.268	301.05
616.686	347.86
617.104	387.65
617.522	401.69
617.94	338.5
618.358	296.37
618.776	366.59
619.194	305.73
619.612	336.16
620.03	347.86
620.447	378.29
620.865	301.05
621.282	326.8
621.7	317.44
622.117	343.18
622.535	305.73
622.952	380.63
623.369	326.8
623.787	303.39
624.204	317.44
624.621	359.56
625.038	279.99
625.455	350.2
625.872	254.24
626.289	298.71
626.706	338.5
627.123	336.16
627.539	301.05
627.956	329.14
628.373	331.48
628.789	315.09
629.206	308.07
629.622	301.05
630.038	319.78
630.455	347.86
630.871	359.56
631.287	312.75
631.703	230.84
632.12	343.18
632.536	230.84
632.952	310.41
633.368	324.46
633.783	331.48
634.199	237.86
634.615	350.2
635.031	333.82
635.446	317.44
635.862	343.18
636.277	319.78
636.693	329.14
637.108	326.8
637.524	350.2
637.939	350.2
638.354	347.86
638.77	352.54
639.185	359.56
639.6	375.95
640.015	352.54
640.43	315.09
640.845	284.67
641.259	319.78
641.674	338.5
642.089	312.75
642.504	326.8
642.918	263.6
643.333	324.46
643.747	404.03
644.162	329.14
644.576	331.48
644.991	338.5
645.405	331.48
645.819	357.22
646.233	277.65
646.647	305.73
647.061	315.09
647.475	338.5
647.889	310.41
648.303	308.07
648.717	373.61
649.131	354.88
649.545	338.5
649.958	324.46
650.372	415.74
650.785	378.29
651.199	354.88
651.612	338.5
652.026	289.35
652.439	357.22
652.852	310.41
653.266	364.25
653.679	282.33
654.092	345.52
654.505	315.09
654.918	305.73
655.331	322.12
655.744	347.86
656.156	331.48
656.569	275.31
656.982	256.58
657.394	324.46
657.807	347.86
658.22	301.05
658.632	310.41
659.044	324.46
659.457	359.56
659.869	343.18
660.281	333.82
660.693	343.18
661.106	284.67
661.518	338.5
661.93	289.35
662.342	336.16
662.754	298.71
663.165	375.95
663.577	315.09
663.989	378.29
664.401	340.84
664.812	331.48
665.224	329.14
665.635	308.07
666.047	343.18
666.458	310.41
666.869	305.73
667.281	361.91
667.692	340.84
668.103	331.48
668.514	361.91
668.925	340.84
669.336	308.07
669.747	375.95
670.158	338.5
670.569	312.75
670.979	352.54
671.39	303.39
671.801	338.5
672.211	366.59
672.622	333.82
673.032	331.48
673.443	361.91
673.853	282.33
674.263	315.09
674.674	368.93
675.084	357.22
675.494	326.8
675.904	352.54
676.314	345.52
676.724	343.18
677.134	357.22
677.544	289.35
677.953	317.44
678.363	322.12
678.773	322.12
679.182	296.37
679.592	378.29
680.001	331.48
680.411	324.46
680.82	352.54
681.23	340.84
681.639	329.14
682.048	343.18
682.457	322.12
682.866	284.67
683.275	347.86
683.684	291.69
684.093	308.07
684.502	324.46
684.911	301.05
685.32	347.86
685.728	296.37
686.137	340.84
686.546	354.88
686.954	418.08
687.363	343.18
687.771	303.39
688.179	343.18
688.588	308.07
688.996	364.25
689.404	279.99
689.812	319.78
690.22	326.8
690.628	331.48
691.036	354.88
691.444	364.25
691.852	399.35
692.26	359.56
692.667	324.46
693.075	340.84
693.483	368.93
693.89	364.25
694.298	329.14
694.705	364.25
695.112	361.91
695.52	329.14
695.927	289.35
696.334	375.95
696.741	340.84
697.148	345.52
697.555	324.46
697.962	359.56
698.369	296.37
698.776	282.33
699.183	373.61
699.59	350.2
699.996	272.96
700.403	289.35
700.81	310.41
701.216	368.93
701.623	296.37
702.029	375.95
702.435	317.44
702.842	305.73
703.248	333.82
703.654	275.31
704.06	333.82
704.466	354.88
704.872	326.8
705.278	425.1
705.684	324.46
706.09	279.99
706.496	331.48
706.901	336.16
707.307	249.56
707.712	368.93
708.118	340.84
708.523	319.78
708.929	382.97
709.334	326.8
709.74	324.46
710.145	333.82
710.55	352.54
710.955	354.88
711.36	322.12
711.765	279.99
712.17	312.75
712.575	312.75
712.98	925.97
713.385	361.91
713.789	312.75
714.194	319.78
714.599	287.01
715.003	261.26
715.408	429.78
715.812	287.01
716.217	305.73
716.621	382.97
717.025	359.56
717.429	406.38
717.833	387.65
718.238	331.48
718.642	359.56
719.046	343.18
719.449	371.27
719.853	343.18
720.257	375.95
720.661	371.27
721.065	303.39
721.468	298.71
721.872	317.44
722.275	347.86
722.679	336.16
723.082	329.14
723.485	373.61
723.889	368.93
724.292	347.86
724.695	289.35
725.098	315.09
725.501	308.07
725.904	357.22
726.307	291.69
726.71	340.84
727.113	326.8
727.516	308.07
727.918	338.5
728.321	338.5
728.724	301.05
729.126	312.75
729.529	326.8
729.931	291.69
730.333	226.15
730.736	315.09
731.138	324.46
731.54	382.97
731.942	338.5
732.344	272.96
732.746	237.86
733.148	354.88
733.55	354.88
733.952	366.59
734.354	347.86
734.756	366.59
735.157	275.31
735.559	322.12
735.96	301.05
736.362	310.41
736.763	277.65
737.165	282.33
737.566	272.96
737.967	371.27
738.368	254.24
738.77	279.99
739.171	249.56
739.572	315.09
739.973	378.29
740.374	319.78
740.774	303.39
741.175	359.56
741.576	340.84
741.977	338.5
742.377	301.05
742.778	305.73
743.178	338.5
743.579	375.95
743.979	343.18
744.379	343.18
744.78	345.52
745.18	268.28
745.58	329.14
745.98	317.44
746.38	308.07
746.78	298.71
747.18	345.52
747.58	329.14
747.98	336.16
748.38	331.48
748.779	368.93
749.179	303.39
749.578	319.78
749.978	308.07
750.377	296.37
750.777	315.09
751.176	287.01
751.575	375.95
751.975	308.07
752.374	326.8
752.773	336.16
753.172	294.03
753.571	319.78
753.97	308.07
754.369	284.67
754.768	317.44
755.166	352.54
755.565	310.41
755.964	298.71
756.362	347.86
756.761	279.99
757.159	303.39
757.558	324.46
757.956	303.39
758.354	324.46
758.753	378.29
759.151	301.05
759.549	387.65
759.947	361.91
760.345	368.93
760.743	333.82
761.141	333.82
761.539	291.69
761.936	322.12
762.334	357.22
762.732	270.62
763.129	373.61
763.527	254.24
763.924	296.37
764.322	361.91
764.719	289.35
765.117	340.84
765.514	338.5
765.911	340.84
766.308	350.2
766.705	368.93
767.102	291.69
767.499	319.78
767.896	352.54
768.293	282.33
768.69	282.33
769.086	352.54
769.483	319.78
769.88	270.62
770.276	305.73
770.673	366.59
771.069	322.12
771.466	310.41
771.862	359.56
772.258	364.25
772.654	352.54
773.05	324.46
773.447	366.59
773.843	263.6
774.239	303.39
774.634	312.75
775.03	289.35
775.426	371.27
775.822	380.63
776.218	287.01
776.613	366.59
777.009	336.16
777.404	308.07
777.8	326.8
778.195	270.62
778.59	329.14
778.986	392.33
779.381	279.99
779.776	359.56
780.171	322.12
780.566	315.09
780.961	322.12
781.356	322.12
781.751	338.5
782.146	291.69
782.54	312.75
782.935	347.86
783.33	324.46
783.724	347.86
784.119	338.5
784.513	301.05
784.908	324.46
785.302	340.84
785.696	343.18
786.09	315.09
786.485	310.41
786.879	354.88
787.273	366.59
787.667	336.16
788.061	354.88
788.454	315.09
788.848	406.38
789.242	333.82
789.636	382.97
790.029	364.25
790.423	340.84
790.816	277.65
791.21	289.35
791.603	345.52
791.997	284.67
792.39	305.73
792.783	326.8
793.176	331.48
793.569	406.38
793.962	371.27
794.355	331.48
794.748	345.52
795.141	333.82
795.534	361.91
795.927	359.56
796.319	338.5
796.712	270.62
797.105	415.74
797.497	275.31
797.89	324.46
798.282	287.01
798.674	312.75
799.067	301.05
799.459	315.09
799.851	308.07
800.243	368.93
800.635	319.78
801.027	324.46
801.419	279.99
801.811	251.9
802.203	319.78
802.594	324.46
802.986	298.71
803.378	322.12
803.769	308.07
804.161	347.86
804.552	331.48
804.944	294.03
805.335	324.46
805.726	345.52
806.118	324.46
806.509	408.72
806.9	310.41
807.291	326.8
807.682	284.67
808.073	289.35
808.464	378.29
808.855	324.46
809.245	303.39
809.636	315.09
810.027	294.03
810.417	291.69
810.808	350.2
811.198	352.54
811.589	308.07
811.979	305.73
812.369	287.01
812.759	338.5
813.15	308.07
813.54	265.94
813.93	331.48
814.32	350.2
814.71	347.86
815.1	326.8
815.489	282.33
815.879	352.54
816.269	329.14
816.658	385.31
817.048	284.67
817.438	254.24
817.827	378.29
818.216	338.5
818.606	282.33
818.995	296.37
819.384	329.14
819.773	357.22
820.163	394.67
820.552	291.69
820.941	336.16
821.33	319.78
821.718	287.01
822.107	347.86
822.496	371.27
822.885	265.94
823.273	333.82
823.662	275.31
824.05	324.46
824.439	340.84
824.827	319.78
825.216	298.71
825.604	310.41
825.992	289.35
826.38	258.92
826.768	361.91
827.156	336.16
827.544	310.41
827.932	308.07
828.32	270.62
828.708	359.56
829.096	251.9
829.483	338.5
829.871	317.44
830.259	331.48
830.646	366.59
831.034	294.03
831.421	319.78
831.808	284.67
832.196	319.78
832.583	291.69
832.97	347.86
833.357	333.82
833.744	315.09
834.131	305.73
834.518	301.05
834.905	361.91
835.292	312.75
835.678	354.88
836.065	331.48
836.452	305.73
836.838	261.26
837.225	333.82
837.611	317.44
837.998	329.14
838.384	340.84
838.77	331.48
839.157	382.97
839.543	331.48
839.929	277.65
840.315	333.82
840.701	305.73
841.087	345.52
841.473	343.18
841.858	359.56
842.244	237.86
842.63	312.75
843.015	322.12
843.401	617.02
843.787	319.78
844.172	310.41
844.557	347.86
844.943	319.78
845.328	336.16
845.713	282.33
846.098	277.65
846.483	310.41
846.868	357.22
847.253	359.56
847.638	319.78
848.023	279.99
848.408	310.41
848.793	361.91
849.177	254.24
849.562	258.92
849.947	298.71
850.331	357.22
850.715	350.2
851.1	357.22
851.484	326.8
851.868	368.93
852.253	287.01
852.637	287.01
853.021	375.95
853.405	364.25
853.789	310.41
854.173	298.71
854.557	368.93
854.94	282.33
855.324	382.97
855.708	366.59
856.091	336.16
856.475	319.78
856.858	258.92
857.242	322.12
857.625	291.69
858.009	294.03
858.392	305.73
858.775	345.52
859.158	366.59
859.541	319.78
859.924	291.69
860.307	279.99
860.69	368.93
861.073	287.01
861.456	305.73
861.838	315.09
862.221	387.65
862.604	347.86
862.986	397.01
863.369	270.62
863.751	317.44
864.133	361.91
864.516	272.96
864.898	319.78
865.28	312.75
865.662	303.39
866.044	326.8
866.426	329.14
866.808	338.5
867.19	291.69
867.572	305.73
867.954	237.86
868.336	291.69
868.717	301.05
869.099	333.82
869.48	340.84
869.862	315.09
870.243	413.4
870.625	338.5
871.006	331.48
871.387	310.41
871.768	406.38
872.149	263.6
872.53	366.59
872.911	338.5
873.292	310.41
873.673	272.96
874.054	287.01
874.435	301.05
874.815	315.09
875.196	371.27
875.577	366.59
875.957	265.94
876.338	352.54
876.718	345.52
877.098	294.03
877.479	338.5
877.859	305.73
878.239	247.22
878.619	303.39
878.999	268.28
879.379	310.41
879.759	279.99
880.139	277.65
880.519	296.37
880.898	354.88
881.278	333.82
881.658	345.52
882.037	270.62
882.417	265.94
882.796	298.71
883.176	350.2
883.555	326.8
883.934	392.33
884.313	338.5
884.693	345.52
885.072	291.69
885.451	317.44
885.83	397.01
886.209	343.18
886.587	354.88
886.966	305.73
887.345	364.25
887.724	287.01
888.102	359.56
888.481	270.62
888.859	303.39
889.238	345.52
889.616	251.9
889.994	296.37
890.373	298.71
890.751	385.31
891.129	270.62
891.507	322.12
891.885	312.75
892.263	401.69
892.641	258.92
893.019	261.26
893.396	272.96
893.774	263.6
894.152	275.31
894.529	275.31
894.907	326.8
895.284	291.69
895.662	268.28
896.039	305.73
896.416	329.14
896.794	317.44
897.171	310.41
897.548	303.39
897.925	420.42
898.302	282.33
898.679	364.25
899.056	338.5
899.433	324.46
899.809	303.39
900.186	333.82
900.563	345.52
900.939	338.5
901.316	350.2
901.692	357.22
902.069	368.93
902.445	368.93
902.821	324.46
903.197	375.95
903.574	287.01
903.95	254.24
904.326	287.01
904.702	279.99
905.078	352.54
905.454	368.93
905.829	305.73
906.205	279.99
906.581	326.8
906.956	294.03
907.332	347.86
907.707	322.12
908.083	303.39
908.458	350.2
908.833	287.01
909.209	343.18
909.584	347.86
909.959	319.78
910.334	343.18
910.709	364.25
911.084	322.12
911.459	333.82
911.834	347.86
912.209	312.75
912.583	294.03
912.958	352.54
913.333	322.12
913.707	329.14
914.082	333.82
914.456	277.65
914.83	312.75
915.205	310.41
915.579	385.31
915.953	322.12
916.327	298.71
916.701	352.54
917.075	301.05
917.449	347.86
917.823	333.82
918.197	368.93
918.571	373.61
918.944	301.05
919.318	324.46
919.692	298.71
920.065	310.41
920.438	354.88
920.812	347.86
921.185	303.39
921.558	270.62
921.932	333.82
922.305	317.44
922.678	329.14
923.051	352.54
923.424	312.75
923.797	312.75
924.17	354.88
924.542	347.86
924.915	303.39
925.288	287.01
925.661	347.86
926.033	298.71
926.406	258.92
926.778	319.78
927.15	228.49
927.523	272.96
927.895	345.52
928.267	279.99
928.639	343.18
929.011	282.33
929.383	296.37
929.755	270.62
930.127	368.93
930.499	359.56
930.871	347.86
931.242	308.07
931.614	331.48
931.986	305.73
932.357	352.54
932.729	352.54
933.1	345.52
933.471	333.82
933.843	289.35
934.214	265.94
934.585	364.25
934.956	279.99
935.327	312.75
935.698	303.39
936.069	329.14
936.44	265.94
936.811	275.31
937.182	310.41
937.552	333.82
937.923	315.09
938.293	305.73
938.664	347.86
939.034	347.86
939.405	368.93
939.775	270.62
940.145	312.75
940.516	352.54
940.886	329.14
941.256	277.65
941.626	364.25
941.996	277.65
942.366	294.03
942.735	296.37
943.105	317.44
943.475	308.07
943.845	294.03
944.214	291.69
944.584	326.8
944.953	308.07
945.323	354.88
945.692	301.05
946.061	338.5
946.43	237.86
946.8	350.2
947.169	284.67
947.538	357.22
947.907	282.33
948.276	352.54
948.645	319.78
949.013	301.05
949.382	329.14
949.751	305.73
950.119	237.86
950.488	319.78
950.857	371.27
951.225	352.54
951.593	247.22
951.962	338.5
952.33	301.05
952.698	308.07
953.066	275.31
953.434	375.95
953.802	272.96
954.17	282.33
954.538	340.84
954.906	333.82
955.274	333.82
955.642	305.73
956.009	268.28
956.377	291.69
956.744	233.18
957.112	279.99
957.479	322.12
957.847	331.48
958.214	361.91
958.581	279.99
958.948	364.25
959.315	319.78
959.683	305.73
960.05	331.48
960.416	340.84
960.783	312.75
961.15	305.73
961.517	354.88
961.884	366.59
962.25	324.46
962.617	324.46
962.983	294.03
963.35	312.75
963.716	329.14
964.082	289.35
964.449	303.39
964.815	296.37
965.181	296.37
965.547	371.27
965.913	284.67
966.279	333.82
966.645	303.39
967.011	359.56
967.377	303.39
967.742	268.28
968.108	322.12
968.474	361.91
968.839	329.14
969.205	291.69
969.57	303.39
969.935	277.65
970.301	373.61
970.666	296.37
971.031	343.18
971.396	357.22
971.761	340.84
972.126	228.49
972.491	308.07
972.856	322.12
973.221	352.54
973.586	272.96
973.95	272.96
974.315	289.35
974.679	375.95
975.044	289.35
975.408	366.59
975.773	272.96
976.137	261.26
976.501	282.33
976.866	322.12
977.23	296.37
977.594	347.86
977.958	331.48
978.322	282.33
978.686	347.86
979.049	261.26
979.413	301.05
979.777	301.05
980.141	338.5
980.504	404.03
980.868	354.88
981.231	291.69
981.595	310.41
981.958	361.91
982.321	361.91
982.684	336.16
983.048	291.69
983.411	301.05
983.774	326.8
984.137	364.25
984.5	317.44
984.862	268.28
985.225	315.09
985.588	336.16
985.951	354.88
986.313	331.48
986.676	308.07
987.038	256.58
987.401	336.16
987.763	308.07
988.125	375.95
988.488	279.99
988.85	338.5
989.212	298.71
989.574	326.8
989.936	296.37
990.298	265.94
990.66	310.41
991.022	265.94
991.383	294.03
991.745	345.52
992.107	319.78
992.468	301.05
992.83	287.01
993.191	371.27
993.553	364.25
993.914	361.91
994.275	310.41
994.637	261.26
994.998	247.22
995.359	331.48
995.72	354.88
996.081	361.91
996.442	279.99
996.803	329.14
997.163	338.5
997.524	317.44
997.885	294.03
998.245	378.29
998.606	357.22
998.966	282.33
999.327	354.88
999.687	385.31
1000.047	343.18
1000.408	287.01
1000.768	287.01
1001.128	275.31
1001.488	301.05
1001.848	279.99
1002.208	294.03
1002.568	354.88
1002.927	347.86
1003.287	343.18
1003.647	401.69
1004.007	319.78
1004.366	303.39
1004.726	329.14
1005.085	247.22
1005.444	298.71
1005.804	315.09
1006.163	324.46
1006.522	338.5
1006.881	305.73
1007.24	312.75
1007.599	298.71
1007.958	350.2
1008.317	305.73
1008.676	303.39
1009.035	244.88
1009.393	284.67
1009.752	277.65
1010.111	326.8
1010.469	338.5
1010.828	319.78
1011.186	291.69
1011.544	345.52
1011.903	317.44
1012.261	385.31
1012.619	347.86
1012.977	352.54
1013.335	340.84
1013.693	322.12
1014.051	310.41
1014.409	272.96
1014.767	336.16
1015.124	319.78
1015.482	385.31
1015.84	319.78
1016.197	301.05
1016.555	331.48
1016.912	361.91
1017.269	319.78
1017.627	291.69
1017.984	319.78
1018.341	305.73
1018.698	265.94
1019.055	310.41
1019.412	338.5
1019.769	244.88
1020.126	298.71
1020.483	329.14
1020.84	268.28
1021.196	305.73
1021.553	343.18
1021.909	350.2
1022.266	343.18
1022.622	312.75
1022.979	326.8
1023.335	354.88
1023.691	291.69
1024.047	317.44
1024.404	324.46
1024.76	303.39
1025.116	336.16
1025.472	361.91
1025.827	350.2
1026.183	284.67
1026.539	305.73
1026.895	326.8
1027.25	340.84
1027.606	352.54
1027.961	357.22
1028.317	336.16
1028.672	303.39
1029.028	324.46
1029.383	284.67
1029.738	301.05
1030.093	326.8
1030.448	282.33
1030.803	303.39
1031.158	343.18
1031.513	287.01
1031.868	289.35
1032.223	287.01
1032.577	324.46
1032.932	289.35
1033.287	411.06
1033.641	279.99
1033.996	322.12
1034.35	289.35
1034.704	294.03
1035.059	289.35
1035.413	326.8
1035.767	326.8
1036.121	326.8
