Data from Al_FLMS009871__728__15-12-40-529.txt Node

Date: Fri Mar 08 15:12:40 CST 2024
User: pe5414po
Spectrometer: FLMS00987
Trigger mode: 0
Integration Time (sec): 1.000000E-1
Scans to average: 1
Electric dark correction enabled: true
Nonlinearity correction enabled: false
Boxcar width: 0
XAxis mode: Wavelengths
Number of Pixels in Spectrum: 2048
>>>>>Begin Spectral Data<<<<<
188.938	-64.8
189.409	-64.8
189.879	-64.8
190.349	-118.64
190.819	-106.93
191.29	-118.64
191.76	-90.55
192.23	-113.95
192.7	-76.51
193.17	-27.36
193.64	-53.1
194.109	-43.74
194.579	-22.67
195.049	42.86
195.519	63.93
195.988	-1.61
196.458	54.56
196.927	103.71
197.397	89.67
197.866	122.44
198.336	70.95
198.805	122.44
199.274	195
199.744	178.61
200.213	185.63
200.682	159.89
201.151	213.72
201.62	290.96
202.089	255.85
202.558	216.06
203.027	260.53
203.495	281.6
203.964	288.62
204.433	204.36
204.902	241.81
205.37	286.28
205.839	297.98
206.307	300.32
206.776	309.68
207.244	295.64
207.712	319.04
208.181	239.47
208.649	288.62
209.117	316.7
209.585	323.73
210.053	316.7
210.521	239.47
210.989	333.09
211.457	314.36
211.925	258.19
212.393	309.68
212.861	323.73
213.328	276.91
213.796	290.96
214.264	323.73
214.731	283.94
215.199	295.64
215.666	253.51
216.133	255.85
216.601	230.1
217.068	223.08
217.535	281.6
218.003	237.13
218.47	204.36
218.937	253.51
219.404	276.91
219.871	255.85
220.338	283.94
220.805	234.78
221.271	265.21
221.738	290.96
222.205	265.21
222.671	241.81
223.138	293.3
223.605	265.21
224.071	218.4
224.538	293.3
225.004	220.74
225.47	241.81
225.937	223.08
226.403	293.3
226.869	255.85
227.335	239.47
227.801	290.96
228.267	286.28
228.733	190.31
229.199	265.21
229.665	314.36
230.131	316.7
230.597	253.51
231.062	251.17
231.528	274.57
231.994	300.32
232.459	319.04
232.925	288.62
233.39	300.32
233.856	265.21
234.321	204.36
234.786	274.57
235.252	248.83
235.717	288.62
236.182	241.81
236.647	305
237.112	269.89
237.577	262.87
238.042	234.78
238.507	192.66
238.972	258.19
239.436	216.06
239.901	255.85
240.366	269.89
240.83	262.87
241.295	281.6
241.76	344.79
242.224	237.13
242.688	286.28
243.153	288.62
243.617	302.66
244.081	244.15
244.545	246.49
245.01	319.04
245.474	276.91
245.938	265.21
246.402	269.89
246.866	340.11
247.33	349.47
247.793	230.1
248.257	269.89
248.721	244.15
249.185	288.62
249.648	302.66
250.112	276.91
250.575	253.51
251.039	293.3
251.502	244.15
251.965	293.3
252.429	337.77
252.892	335.43
253.355	302.66
253.818	302.66
254.281	251.17
254.744	288.62
255.207	244.15
255.67	297.98
256.133	283.94
256.596	267.55
257.059	276.91
257.522	302.66
257.984	253.51
258.447	241.81
258.909	272.23
259.372	290.96
259.834	316.7
260.297	232.44
260.759	323.73
261.221	255.85
261.684	307.34
262.146	319.04
262.608	300.32
263.07	323.73
263.532	302.66
263.994	206.7
264.456	274.57
264.918	316.7
265.38	253.51
265.842	274.57
266.303	251.17
266.765	335.43
267.227	244.15
267.688	283.94
268.15	316.7
268.611	309.68
269.072	197.34
269.534	330.75
269.995	237.13
270.456	276.91
270.918	297.98
271.379	297.98
271.84	321.38
272.301	279.26
272.762	262.87
273.223	300.32
273.684	272.23
274.144	227.76
274.605	248.83
275.066	326.07
275.527	302.66
275.987	312.02
276.448	293.3
276.908	192.66
277.369	281.6
277.829	279.26
278.289	312.02
278.75	312.02
279.21	300.32
279.67	297.98
280.13	290.96
280.59	260.53
281.05	297.98
281.51	326.07
281.97	305
282.43	330.75
282.89	314.36
283.35	300.32
283.809	286.28
284.269	272.23
284.729	279.26
285.188	286.28
285.648	386.92
286.107	286.28
286.567	269.89
287.026	258.19
287.485	356.49
287.944	279.26
288.404	323.73
288.863	309.68
289.322	333.09
289.781	269.89
290.24	253.51
290.699	333.09
291.158	312.02
291.616	276.91
292.075	337.77
292.534	279.26
292.992	309.68
293.451	316.7
293.91	305
294.368	335.43
294.827	295.64
295.285	312.02
295.743	290.96
296.202	309.68
296.66	319.04
297.118	248.83
297.576	344.79
298.034	321.38
298.492	293.3
298.95	274.57
299.408	290.96
299.866	281.6
300.324	321.38
300.781	283.94
301.239	326.07
301.697	363.51
302.154	251.17
302.612	279.26
303.069	326.07
303.527	314.36
303.984	328.41
304.441	305
304.899	272.23
305.356	286.28
305.813	333.09
306.27	316.7
306.727	216.06
307.184	269.89
307.641	370.54
308.098	300.32
308.555	295.64
309.012	279.26
309.468	234.78
309.925	290.96
310.382	293.3
310.838	253.51
311.295	342.45
311.751	279.26
312.208	307.34
312.664	330.75
313.12	358.83
313.577	309.68
314.033	333.09
314.489	253.51
314.945	326.07
315.401	279.26
315.857	330.75
316.313	295.64
316.769	260.53
317.225	375.22
317.681	309.68
318.136	227.76
318.592	319.04
319.048	281.6
319.503	283.94
319.959	316.7
320.414	344.79
320.869	321.38
321.325	288.62
321.78	288.62
322.235	267.55
322.691	295.64
323.146	260.53
323.601	314.36
324.056	220.74
324.511	328.41
324.966	323.73
325.421	375.22
325.875	347.13
326.33	262.87
326.785	283.94
327.24	365.85
327.694	307.34
328.149	288.62
328.603	312.02
329.058	293.3
329.512	302.66
329.966	305
330.421	295.64
330.875	302.66
331.329	321.38
331.783	274.57
332.237	276.91
332.691	253.51
333.145	368.2
333.599	237.13
334.053	302.66
334.507	314.36
334.96	368.2
335.414	316.7
335.868	265.21
336.321	307.34
336.775	319.04
337.228	302.66
337.682	239.47
338.135	363.51
338.588	290.96
339.042	316.7
339.495	326.07
339.948	342.45
340.401	323.73
340.854	302.66
341.307	314.36
341.76	351.81
342.213	286.28
342.666	272.23
343.119	386.92
343.571	286.28
344.024	290.96
344.477	323.73
344.929	321.38
345.382	326.07
345.834	286.28
346.287	297.98
346.739	286.28
347.191	358.83
347.644	319.04
348.096	333.09
348.548	281.6
349	300.32
349.452	209.04
349.904	316.7
350.356	384.58
350.808	297.98
351.26	340.11
351.711	274.57
352.163	286.28
352.615	326.07
353.066	258.19
353.518	321.38
353.969	349.47
354.421	258.19
354.872	314.36
355.324	314.36
355.775	255.85
356.226	372.88
356.677	300.32
357.128	342.45
357.579	295.64
358.03	330.75
358.481	253.51
358.932	349.47
359.383	295.64
359.834	314.36
360.285	358.83
360.735	326.07
361.186	279.26
361.637	328.41
362.087	337.77
362.538	326.07
362.988	333.09
363.438	295.64
363.889	288.62
364.339	283.94
364.789	286.28
365.239	248.83
365.689	323.73
366.139	290.96
366.589	316.7
367.039	276.91
367.489	309.68
367.939	365.85
368.389	232.44
368.839	314.36
369.288	295.64
369.738	326.07
370.187	358.83
370.637	272.23
371.086	300.32
371.536	281.6
371.985	305
372.434	274.57
372.884	307.34
373.333	307.34
373.782	321.38
374.231	305
374.68	274.57
375.129	375.22
375.578	305
376.027	316.7
376.475	375.22
376.924	293.3
377.373	265.21
377.822	305
378.27	309.68
378.719	316.7
379.167	326.07
379.616	349.47
380.064	342.45
380.512	363.51
380.961	314.36
381.409	319.04
381.857	363.51
382.305	281.6
382.753	239.47
383.201	356.49
383.649	358.83
384.097	319.04
384.545	297.98
384.992	337.77
385.44	330.75
385.888	269.89
386.335	302.66
386.783	267.55
387.231	316.7
387.678	307.34
388.125	375.22
388.573	279.26
389.02	365.85
389.467	319.04
389.914	300.32
390.362	312.02
390.809	276.91
391.256	372.88
391.703	358.83
392.15	363.51
392.596	307.34
393.043	295.64
393.49	281.6
393.937	344.79
394.383	333.09
394.83	365.85
395.276	384.58
395.723	312.02
396.169	375.22
396.616	305
397.062	330.75
397.508	344.79
397.954	344.79
398.401	312.02
398.847	351.81
399.293	293.3
399.739	267.55
400.185	356.49
400.631	316.7
401.076	314.36
401.522	321.38
401.968	290.96
402.414	358.83
402.859	333.09
403.305	333.09
403.75	246.49
404.196	265.21
404.641	274.57
405.086	286.28
405.532	361.17
405.977	330.75
406.422	344.79
406.867	321.38
407.312	305
407.757	337.77
408.202	330.75
408.647	319.04
409.092	307.34
409.537	248.83
409.982	335.43
410.426	326.07
410.871	321.38
411.316	272.23
411.76	286.28
412.205	342.45
412.649	333.09
413.093	297.98
413.538	321.38
413.982	248.83
414.426	342.45
414.87	248.83
415.314	295.64
415.758	302.66
416.202	272.23
416.646	361.17
417.09	286.28
417.534	295.64
417.978	302.66
418.421	326.07
418.865	286.28
419.309	314.36
419.752	370.54
420.196	396.28
420.639	276.91
421.083	351.81
421.526	309.68
421.969	295.64
422.412	297.98
422.856	272.23
423.299	333.09
423.742	293.3
424.185	328.41
424.628	305
425.071	340.11
425.513	351.81
425.956	307.34
426.399	312.02
426.842	314.36
427.284	288.62
427.727	286.28
428.169	300.32
428.612	340.11
429.054	361.17
429.497	272.23
429.939	314.36
430.381	283.94
430.823	312.02
431.265	309.68
431.707	237.13
432.149	375.22
432.591	386.92
433.033	265.21
433.475	307.34
433.917	293.3
434.359	302.66
434.8	340.11
435.242	279.26
435.684	347.13
436.125	283.94
436.567	340.11
437.008	283.94
437.449	342.45
437.891	307.34
438.332	297.98
438.773	312.02
439.214	302.66
439.656	314.36
440.097	314.36
440.538	319.04
440.978	269.89
441.419	283.94
441.86	290.96
442.301	290.96
442.742	302.66
443.182	351.81
443.623	358.83
444.063	246.49
444.504	297.98
444.944	363.51
445.385	300.32
445.825	312.02
446.265	335.43
446.706	309.68
447.146	305
447.586	344.79
448.026	260.53
448.466	305
448.906	260.53
449.346	328.41
449.786	333.09
450.225	309.68
450.665	393.94
451.105	295.64
451.544	321.38
451.984	361.17
452.424	330.75
452.863	279.26
453.302	234.78
453.742	340.11
454.181	319.04
454.62	241.81
455.059	281.6
455.499	344.79
455.938	330.75
456.377	358.83
456.816	314.36
457.254	321.38
457.693	379.9
458.132	368.2
458.571	312.02
459.01	305
459.448	330.75
459.887	295.64
460.325	321.38
460.764	358.83
461.202	262.87
461.641	344.79
462.079	314.36
462.517	279.26
462.955	297.98
463.393	312.02
463.832	286.28
464.27	323.73
464.708	337.77
465.145	286.28
465.583	354.15
466.021	300.32
466.459	244.15
466.897	312.02
467.334	305
467.772	258.19
468.209	368.2
468.647	302.66
469.084	386.92
469.522	305
469.959	333.09
470.396	312.02
470.833	344.79
471.271	316.7
471.708	314.36
472.145	351.81
472.582	265.21
473.019	295.64
473.456	244.15
473.892	384.58
474.329	328.41
474.766	349.47
475.202	328.41
475.639	330.75
476.076	260.53
476.512	307.34
476.949	269.89
477.385	354.15
477.821	358.83
478.258	295.64
478.694	351.81
479.13	295.64
479.566	276.91
480.002	265.21
480.438	347.13
480.874	262.87
481.31	276.91
481.746	319.04
482.181	279.26
482.617	302.66
483.053	372.88
483.488	244.15
483.924	354.15
484.36	309.68
484.795	293.3
485.23	309.68
485.666	297.98
486.101	276.91
486.536	307.34
486.971	293.3
487.407	288.62
487.842	328.41
488.277	272.23
488.712	314.36
489.146	321.38
489.581	417.35
490.016	326.07
490.451	288.62
490.885	258.19
491.32	293.3
491.755	276.91
492.189	333.09
492.624	342.45
493.058	295.64
493.492	344.79
493.927	314.36
494.361	272.23
494.795	276.91
495.229	267.55
495.663	314.36
496.097	248.83
496.531	279.26
496.965	309.68
497.399	258.19
497.833	206.7
498.266	319.04
498.7	244.15
499.134	344.79
499.567	300.32
500.001	297.98
500.434	377.56
500.868	297.98
501.301	300.32
501.734	293.3
502.168	305
502.601	330.75
503.034	309.68
503.467	274.57
503.9	260.53
504.333	309.68
504.766	330.75
505.199	241.81
505.632	349.47
506.064	253.51
506.497	297.98
506.93	312.02
507.362	370.54
507.795	255.85
508.227	279.26
508.66	351.81
509.092	293.3
509.524	323.73
509.956	354.15
510.389	323.73
510.821	248.83
511.253	283.94
511.685	300.32
512.117	337.77
512.549	253.51
512.981	276.91
513.412	288.62
513.844	368.2
514.276	293.3
514.707	377.56
515.139	356.49
515.571	347.13
516.002	293.3
516.433	293.3
516.865	297.98
517.296	297.98
517.727	297.98
518.159	283.94
518.59	349.47
519.021	309.68
519.452	319.04
519.883	239.47
520.314	255.85
520.744	288.62
521.175	307.34
521.606	279.26
522.037	300.32
522.467	260.53
522.898	305
523.328	328.41
523.759	323.73
524.189	288.62
524.62	365.85
525.05	300.32
525.48	283.94
525.91	319.04
526.341	276.91
526.771	297.98
527.201	307.34
527.631	307.34
528.061	354.15
528.49	267.55
528.92	309.68
529.35	286.28
529.78	319.04
530.209	248.83
530.639	347.13
531.068	279.26
531.498	323.73
531.927	358.83
532.357	337.77
532.786	302.66
533.215	309.68
533.644	319.04
534.074	293.3
534.503	326.07
534.932	316.7
535.361	312.02
535.79	326.07
536.218	307.34
536.647	314.36
537.076	309.68
537.505	330.75
537.933	319.04
538.362	361.17
538.79	309.68
539.219	382.24
539.647	326.07
540.076	326.07
540.504	333.09
540.932	349.47
541.36	272.23
541.788	286.28
542.217	342.45
542.645	272.23
543.073	358.83
543.5	283.94
543.928	286.28
544.356	305
544.784	312.02
545.211	349.47
545.639	255.85
546.067	323.73
546.494	276.91
546.922	354.15
547.349	307.34
547.776	307.34
548.204	337.77
548.631	314.36
549.058	337.77
549.485	333.09
549.912	262.87
550.339	269.89
550.766	258.19
551.193	293.3
551.62	342.45
552.047	358.83
552.474	342.45
552.9	351.81
553.327	316.7
553.754	314.36
554.18	340.11
554.607	286.28
555.033	370.54
555.459	314.36
555.886	314.36
556.312	307.34
556.738	290.96
557.164	337.77
557.59	351.81
558.016	309.68
558.442	305
558.868	251.17
559.294	307.34
559.72	295.64
560.145	312.02
560.571	337.77
560.997	309.68
561.422	230.1
561.848	295.64
562.273	330.75
562.699	260.53
563.124	283.94
563.549	342.45
563.974	384.58
564.4	312.02
564.825	351.81
565.25	358.83
565.675	262.87
566.1	307.34
566.525	288.62
566.95	309.68
567.374	349.47
567.799	344.79
568.224	300.32
568.648	295.64
569.073	330.75
569.497	251.17
569.922	276.91
570.346	288.62
570.771	323.73
571.195	269.89
571.619	262.87
572.043	356.49
572.467	286.28
572.891	286.28
573.315	333.09
573.739	340.11
574.163	312.02
574.587	337.77
575.011	337.77
575.435	281.6
575.858	288.62
576.282	302.66
576.705	335.43
577.129	302.66
577.552	283.94
577.976	286.28
578.399	297.98
578.822	286.28
579.245	349.47
579.669	344.79
580.092	309.68
580.515	300.32
580.938	323.73
581.361	288.62
581.784	337.77
582.206	269.89
582.629	363.51
583.052	361.17
583.474	323.73
583.897	307.34
584.32	337.77
584.742	319.04
585.165	305
585.587	272.23
586.009	276.91
586.431	316.7
586.854	321.38
587.276	309.68
587.698	363.51
588.12	276.91
588.542	323.73
588.964	302.66
589.386	251.17
589.807	328.41
590.229	300.32
590.651	286.28
591.073	302.66
591.494	272.23
591.916	321.38
592.337	326.07
592.759	281.6
593.18	293.3
593.601	363.51
594.022	316.7
594.444	272.23
594.865	321.38
595.286	307.34
595.707	319.04
596.128	290.96
596.549	335.43
596.97	349.47
597.39	351.81
597.811	223.08
598.232	335.43
598.652	337.77
599.073	326.07
599.494	347.13
599.914	356.49
600.334	365.85
600.755	321.38
601.175	248.83
601.595	260.53
602.015	349.47
602.436	340.11
602.856	452.45
603.276	342.45
603.696	328.41
604.115	326.07
604.535	321.38
604.955	340.11
605.375	365.85
605.794	293.3
606.214	319.04
606.634	363.51
607.053	293.3
607.473	326.07
607.892	260.53
608.311	349.47
608.731	305
609.15	396.28
609.569	389.26
609.988	309.68
610.407	269.89
610.826	323.73
611.245	312.02
611.664	323.73
612.083	316.7
612.501	379.9
612.92	300.32
613.339	335.43
613.757	314.36
614.176	347.13
614.594	333.09
615.013	283.94
615.431	375.22
615.85	305
616.268	293.3
616.686	305
617.104	340.11
617.522	293.3
617.94	337.77
618.358	307.34
618.776	295.64
619.194	288.62
619.612	279.26
620.03	283.94
620.447	300.32
620.865	300.32
621.282	272.23
621.7	342.45
622.117	251.17
622.535	330.75
622.952	274.57
623.369	312.02
623.787	328.41
624.204	295.64
624.621	302.66
625.038	349.47
625.455	340.11
625.872	288.62
626.289	286.28
626.706	321.38
627.123	307.34
627.539	372.88
627.956	314.36
628.373	342.45
628.789	302.66
629.206	333.09
629.622	258.19
630.038	333.09
630.455	309.68
630.871	335.43
631.287	314.36
631.703	300.32
632.12	370.54
632.536	279.26
632.952	281.6
633.368	314.36
633.783	340.11
634.199	281.6
634.615	342.45
635.031	419.69
635.446	323.73
635.862	330.75
636.277	265.21
636.693	300.32
637.108	267.55
637.524	328.41
637.939	307.34
638.354	302.66
638.77	358.83
639.185	351.81
639.6	391.6
640.015	290.96
640.43	330.75
640.845	330.75
641.259	272.23
641.674	309.68
642.089	330.75
642.504	265.21
642.918	251.17
643.333	349.47
643.747	274.57
644.162	354.15
644.576	344.79
644.991	379.9
645.405	316.7
645.819	354.15
646.233	305
646.647	319.04
647.061	276.91
647.475	305
647.889	319.04
648.303	300.32
648.717	297.98
649.131	244.15
649.545	342.45
649.958	269.89
650.372	293.3
650.785	272.23
651.199	340.11
651.612	356.49
652.026	267.55
652.439	358.83
652.852	302.66
653.266	265.21
653.679	279.26
654.092	323.73
654.505	321.38
654.918	274.57
655.331	293.3
655.744	333.09
656.156	365.85
656.569	274.57
656.982	330.75
657.394	316.7
657.807	253.51
658.22	340.11
658.632	335.43
659.044	246.49
659.457	234.78
659.869	307.34
660.281	307.34
660.693	300.32
661.106	335.43
661.518	321.38
661.93	290.96
662.342	342.45
662.754	307.34
663.165	361.17
663.577	368.2
663.989	307.34
664.401	295.64
664.812	323.73
665.224	356.49
665.635	302.66
666.047	351.81
666.458	314.36
666.869	290.96
667.281	330.75
667.692	321.38
668.103	328.41
668.514	347.13
668.925	340.11
669.336	307.34
669.747	283.94
670.158	358.83
670.569	279.26
670.979	321.38
671.39	290.96
671.801	260.53
672.211	335.43
672.622	267.55
673.032	293.3
673.443	293.3
673.853	305
674.263	370.54
674.674	286.28
675.084	349.47
675.494	297.98
675.904	272.23
676.314	305
676.724	295.64
677.134	312.02
677.544	328.41
677.953	293.3
678.363	305
678.773	375.22
679.182	312.02
679.592	265.21
680.001	330.75
680.411	272.23
680.82	274.57
681.23	279.26
681.639	297.98
682.048	297.98
682.457	307.34
682.866	377.56
683.275	314.36
683.684	323.73
684.093	333.09
684.502	272.23
684.911	363.51
685.32	295.64
685.728	290.96
686.137	319.04
686.546	354.15
686.954	267.55
687.363	276.91
687.771	312.02
688.179	302.66
688.588	286.28
688.996	365.85
689.404	309.68
689.812	330.75
690.22	195
690.628	314.36
691.036	335.43
691.444	293.3
691.852	279.26
692.26	272.23
692.667	319.04
693.075	323.73
693.483	335.43
693.89	281.6
694.298	396.28
694.705	302.66
695.112	286.28
695.52	272.23
695.927	363.51
696.334	297.98
696.741	251.17
697.148	323.73
697.555	274.57
697.962	309.68
698.369	300.32
698.776	323.73
699.183	286.28
699.59	307.34
699.996	326.07
700.403	344.79
700.81	300.32
701.216	202.02
701.623	244.15
702.029	347.13
702.435	295.64
702.842	293.3
703.248	323.73
703.654	316.7
704.06	316.7
704.466	328.41
704.872	316.7
705.278	300.32
705.684	295.64
706.09	300.32
706.496	279.26
706.901	323.73
707.307	316.7
707.712	248.83
708.118	335.43
708.523	379.9
708.929	347.13
709.334	347.13
709.74	305
710.145	300.32
710.55	248.83
710.955	302.66
711.36	255.85
711.765	272.23
712.17	354.15
712.575	244.15
712.98	934.61
713.385	326.07
713.789	283.94
714.194	370.54
714.599	335.43
715.003	314.36
715.408	286.28
715.812	340.11
716.217	305
716.621	365.85
717.025	290.96
717.429	300.32
717.833	326.07
718.238	314.36
718.642	246.49
719.046	321.38
719.449	344.79
719.853	342.45
720.257	375.22
720.661	307.34
721.065	382.24
721.468	337.77
721.872	295.64
722.275	237.13
722.679	337.77
723.082	281.6
723.485	218.4
723.889	351.81
724.292	321.38
724.695	354.15
725.098	312.02
725.501	307.34
725.904	347.13
726.307	344.79
726.71	314.36
727.113	307.34
727.516	328.41
727.918	288.62
728.321	244.15
728.724	305
729.126	328.41
729.529	330.75
729.931	309.68
730.333	349.47
730.736	375.22
731.138	297.98
731.54	312.02
731.942	288.62
732.344	330.75
732.746	335.43
733.148	384.58
733.55	363.51
733.952	305
734.354	279.26
734.756	267.55
735.157	307.34
735.559	328.41
735.96	351.81
736.362	342.45
736.763	272.23
737.165	286.28
737.566	279.26
737.967	342.45
738.368	309.68
738.77	297.98
739.171	262.87
739.572	290.96
739.973	323.73
740.374	330.75
740.774	286.28
741.175	316.7
741.576	335.43
741.977	276.91
742.377	288.62
742.778	244.15
743.178	314.36
743.579	281.6
743.979	281.6
744.379	295.64
744.78	255.85
745.18	300.32
745.58	312.02
745.98	283.94
746.38	309.68
746.78	307.34
747.18	372.88
747.58	321.38
747.98	335.43
748.38	321.38
748.779	309.68
749.179	300.32
749.578	307.34
749.978	319.04
750.377	288.62
750.777	246.49
751.176	312.02
751.575	389.26
751.975	293.3
752.374	295.64
752.773	265.21
753.172	255.85
753.571	309.68
753.97	265.21
754.369	286.28
754.768	358.83
755.166	312.02
755.565	288.62
755.964	372.88
756.362	309.68
756.761	340.11
757.159	335.43
757.558	328.41
757.956	305
758.354	400.96
758.753	386.92
759.151	267.55
759.549	307.34
759.947	262.87
760.345	244.15
760.743	358.83
761.141	295.64
761.539	305
761.936	340.11
762.334	363.51
762.732	293.3
763.129	305
763.527	365.85
763.924	340.11
764.322	412.67
764.719	307.34
765.117	328.41
765.514	297.98
765.911	340.11
766.308	321.38
766.705	323.73
767.102	377.56
767.499	328.41
767.896	312.02
768.293	340.11
768.69	328.41
769.086	335.43
769.483	297.98
769.88	279.26
770.276	335.43
770.673	274.57
771.069	244.15
771.466	314.36
771.862	314.36
772.258	276.91
772.654	340.11
773.05	269.89
773.447	305
773.843	356.49
774.239	267.55
774.634	335.43
775.03	309.68
775.426	328.41
775.822	274.57
776.218	347.13
776.613	295.64
777.009	321.38
777.404	386.92
777.8	307.34
778.195	335.43
778.59	276.91
778.986	368.2
779.381	316.7
779.776	314.36
780.171	244.15
780.566	342.45
780.961	354.15
781.356	342.45
781.751	347.13
782.146	321.38
782.54	281.6
782.935	281.6
783.33	319.04
783.724	330.75
784.119	382.24
784.513	251.17
784.908	321.38
785.302	269.89
785.696	265.21
786.09	262.87
786.485	328.41
786.879	354.15
787.273	276.91
787.667	344.79
788.061	349.47
788.454	368.2
788.848	281.6
789.242	375.22
789.636	290.96
790.029	251.17
790.423	316.7
790.816	316.7
791.21	260.53
791.603	312.02
791.997	300.32
792.39	253.51
792.783	342.45
793.176	342.45
793.569	349.47
793.962	330.75
794.355	260.53
794.748	356.49
795.141	323.73
795.534	260.53
795.927	297.98
796.319	314.36
796.712	326.07
797.105	295.64
797.497	202.02
797.89	290.96
798.282	319.04
798.674	351.81
799.067	314.36
799.459	295.64
799.851	358.83
800.243	297.98
800.635	342.45
801.027	333.09
801.419	267.55
801.811	288.62
802.203	328.41
802.594	286.28
802.986	347.13
803.378	337.77
803.769	389.26
804.161	302.66
804.552	361.17
804.944	302.66
805.335	368.2
805.726	337.77
806.118	312.02
806.509	323.73
806.9	363.51
807.291	246.49
807.682	307.34
808.073	326.07
808.464	267.55
808.855	290.96
809.245	330.75
809.636	323.73
810.027	319.04
810.417	262.87
810.808	354.15
811.198	283.94
811.589	323.73
811.979	293.3
812.369	265.21
812.759	281.6
813.15	326.07
813.54	248.83
813.93	321.38
814.32	288.62
814.71	283.94
815.1	351.81
815.489	342.45
815.879	349.47
816.269	300.32
816.658	312.02
817.048	286.28
817.438	258.19
817.827	288.62
818.216	312.02
818.606	321.38
818.995	272.23
819.384	234.78
819.773	328.41
820.163	269.89
820.552	335.43
820.941	321.38
821.33	213.72
821.718	241.81
822.107	323.73
822.496	290.96
822.885	293.3
823.273	276.91
823.662	286.28
824.05	300.32
824.439	293.3
824.827	288.62
825.216	258.19
825.604	314.36
825.992	297.98
826.38	316.7
826.768	220.74
827.156	314.36
827.544	305
827.932	328.41
828.32	253.51
828.708	295.64
829.096	342.45
829.483	290.96
829.871	358.83
830.259	368.2
830.646	370.54
831.034	389.26
831.421	288.62
831.808	283.94
832.196	354.15
832.583	300.32
832.97	361.17
833.357	290.96
833.744	363.51
834.131	361.17
834.518	330.75
834.905	319.04
835.292	377.56
835.678	328.41
836.065	309.68
836.452	307.34
836.838	307.34
837.225	349.47
837.611	316.7
837.998	340.11
838.384	286.28
838.77	342.45
839.157	335.43
839.543	314.36
839.929	288.62
840.315	230.1
840.701	309.68
841.087	333.09
841.473	323.73
841.858	342.45
842.244	305
842.63	349.47
843.015	309.68
843.401	613.95
843.787	342.45
844.172	290.96
844.557	321.38
844.943	307.34
845.328	314.36
845.713	319.04
846.098	330.75
846.483	307.34
846.868	323.73
847.253	272.23
847.638	307.34
848.023	302.66
848.408	328.41
848.793	272.23
849.177	316.7
849.562	281.6
849.947	312.02
850.331	316.7
850.715	274.57
851.1	323.73
851.484	288.62
851.868	330.75
852.253	314.36
852.637	302.66
853.021	286.28
853.405	328.41
853.789	326.07
854.173	319.04
854.557	307.34
854.94	300.32
855.324	354.15
855.708	412.67
856.091	330.75
856.475	342.45
856.858	218.4
857.242	276.91
857.625	316.7
858.009	330.75
858.392	328.41
858.775	312.02
859.158	300.32
859.541	323.73
859.924	340.11
860.307	312.02
860.69	368.2
861.073	279.26
861.456	305
861.838	326.07
862.221	279.26
862.604	297.98
862.986	333.09
863.369	333.09
863.751	276.91
864.133	314.36
864.516	281.6
864.898	253.51
865.28	337.77
865.662	295.64
866.044	290.96
866.426	227.76
866.808	372.88
867.19	326.07
867.572	290.96
867.954	316.7
868.336	358.83
868.717	244.15
869.099	351.81
869.48	354.15
869.862	305
870.243	307.34
870.625	377.56
871.006	347.13
871.387	328.41
871.768	290.96
872.149	384.58
872.53	321.38
872.911	344.79
873.292	326.07
873.673	344.79
874.054	326.07
874.435	302.66
874.815	328.41
875.196	328.41
875.577	286.28
875.957	272.23
876.338	293.3
876.718	316.7
877.098	246.49
877.479	290.96
877.859	354.15
878.239	382.24
878.619	328.41
878.999	326.07
879.379	288.62
879.759	333.09
880.139	319.04
880.519	265.21
880.898	319.04
881.278	333.09
881.658	305
882.037	269.89
882.417	312.02
882.796	326.07
883.176	314.36
883.555	295.64
883.934	305
884.313	283.94
884.693	253.51
885.072	300.32
885.451	356.49
885.83	281.6
886.209	302.66
886.587	344.79
886.966	293.3
887.345	302.66
887.724	293.3
888.102	316.7
888.481	323.73
888.859	316.7
889.238	326.07
889.616	354.15
889.994	295.64
890.373	295.64
890.751	323.73
891.129	309.68
891.507	290.96
891.885	342.45
892.263	300.32
892.641	276.91
893.019	269.89
893.396	269.89
893.774	272.23
894.152	312.02
894.529	347.13
894.907	305
895.284	290.96
895.662	293.3
896.039	307.34
896.416	316.7
896.794	333.09
897.171	241.81
897.548	265.21
897.925	337.77
898.302	319.04
898.679	309.68
899.056	262.87
899.433	363.51
899.809	269.89
900.186	349.47
900.563	227.76
900.939	288.62
901.316	253.51
901.692	295.64
902.069	288.62
902.445	326.07
902.821	342.45
903.197	297.98
903.574	328.41
903.95	365.85
904.326	290.96
904.702	305
905.078	314.36
905.454	293.3
905.829	316.7
906.205	288.62
906.581	323.73
906.956	281.6
907.332	321.38
907.707	305
908.083	267.55
908.458	319.04
908.833	251.17
909.209	312.02
909.584	319.04
909.959	286.28
910.334	283.94
910.709	314.36
911.084	293.3
911.459	293.3
911.834	295.64
912.209	260.53
912.583	379.9
912.958	269.89
913.333	316.7
913.707	375.22
914.082	347.13
914.456	319.04
914.83	305
915.205	314.36
915.579	288.62
915.953	321.38
916.327	307.34
916.701	244.15
917.075	347.13
917.449	286.28
917.823	349.47
918.197	328.41
918.571	340.11
918.944	307.34
919.318	286.28
919.692	255.85
920.065	293.3
920.438	288.62
920.812	314.36
921.185	328.41
921.558	265.21
921.932	279.26
922.305	267.55
922.678	276.91
923.051	260.53
923.424	307.34
923.797	323.73
924.17	267.55
924.542	309.68
924.915	323.73
925.288	356.49
925.661	290.96
926.033	328.41
926.406	330.75
926.778	314.36
927.15	241.81
927.523	269.89
927.895	293.3
928.267	297.98
928.639	290.96
929.011	248.83
929.383	272.23
929.755	307.34
930.127	309.68
930.499	307.34
930.871	333.09
931.242	246.49
931.614	281.6
931.986	349.47
932.357	262.87
932.729	276.91
933.1	358.83
933.471	204.36
933.843	349.47
934.214	297.98
934.585	290.96
934.956	279.26
935.327	267.55
935.698	260.53
936.069	295.64
936.44	302.66
936.811	314.36
937.182	379.9
937.552	379.9
937.923	314.36
938.293	307.34
938.664	323.73
939.034	347.13
939.405	309.68
939.775	295.64
940.145	342.45
940.516	337.77
940.886	288.62
941.256	312.02
941.626	333.09
941.996	305
942.366	279.26
942.735	248.83
943.105	326.07
943.475	337.77
943.845	407.98
944.214	328.41
944.584	333.09
944.953	309.68
945.323	330.75
945.692	398.62
946.061	321.38
946.43	290.96
946.8	265.21
947.169	307.34
947.538	295.64
947.907	321.38
948.276	307.34
948.645	312.02
949.013	309.68
949.382	314.36
949.751	279.26
950.119	290.96
950.488	297.98
950.857	302.66
951.225	309.68
951.593	305
951.962	255.85
952.33	305
952.698	307.34
953.066	307.34
953.434	337.77
953.802	312.02
954.17	356.49
954.538	309.68
954.906	276.91
955.274	288.62
955.642	307.34
956.009	293.3
956.377	274.57
956.744	370.54
957.112	234.78
957.479	347.13
957.847	288.62
958.214	340.11
958.581	347.13
958.948	297.98
959.315	274.57
959.683	356.49
960.05	312.02
960.416	297.98
960.783	281.6
961.15	251.17
961.517	326.07
961.884	297.98
962.25	286.28
962.617	330.75
962.983	314.36
963.35	342.45
963.716	342.45
964.082	361.17
964.449	316.7
964.815	234.78
965.181	337.77
965.547	309.68
965.913	262.87
966.279	262.87
966.645	312.02
967.011	302.66
967.377	312.02
967.742	283.94
968.108	269.89
968.474	326.07
968.839	302.66
969.205	316.7
969.57	293.3
969.935	295.64
970.301	309.68
970.666	363.51
971.031	328.41
971.396	312.02
971.761	305
972.126	283.94
972.491	244.15
972.856	288.62
973.221	326.07
973.586	323.73
973.95	274.57
974.315	349.47
974.679	393.94
975.044	337.77
975.408	262.87
975.773	330.75
976.137	269.89
976.501	335.43
976.866	293.3
977.23	358.83
977.594	297.98
977.958	286.28
978.322	314.36
978.686	297.98
979.049	241.81
979.413	319.04
979.777	272.23
980.141	309.68
980.504	347.13
980.868	337.77
981.231	297.98
981.595	307.34
981.958	288.62
982.321	269.89
982.684	354.15
983.048	319.04
983.411	337.77
983.774	328.41
984.137	305
984.5	305
984.862	312.02
985.225	288.62
985.588	255.85
985.951	305
986.313	286.28
986.676	293.3
987.038	262.87
987.401	344.79
987.763	361.17
988.125	267.55
988.488	293.3
988.85	312.02
989.212	314.36
989.574	295.64
989.936	258.19
990.298	302.66
990.66	340.11
991.022	286.28
991.383	305
991.745	333.09
992.107	288.62
992.468	307.34
992.83	262.87
993.191	319.04
993.553	333.09
993.914	379.9
994.275	300.32
994.637	386.92
994.998	260.53
995.359	337.77
995.72	295.64
996.081	297.98
996.442	269.89
996.803	239.47
997.163	283.94
997.524	286.28
997.885	342.45
998.245	342.45
998.606	258.19
998.966	274.57
999.327	248.83
999.687	286.28
1000.047	328.41
1000.408	347.13
1000.768	288.62
1001.128	267.55
1001.488	272.23
1001.848	354.15
1002.208	312.02
1002.568	314.36
1002.927	244.15
1003.287	340.11
1003.647	276.91
1004.007	283.94
1004.366	314.36
1004.726	321.38
1005.085	344.79
1005.444	281.6
1005.804	302.66
1006.163	333.09
1006.522	340.11
1006.881	295.64
1007.24	293.3
1007.599	330.75
1007.958	262.87
1008.317	279.26
1008.676	300.32
1009.035	260.53
1009.393	340.11
1009.752	265.21
1010.111	351.81
1010.469	316.7
1010.828	286.28
1011.186	218.4
1011.544	330.75
1011.903	300.32
1012.261	314.36
1012.619	333.09
1012.977	344.79
1013.335	288.62
1013.693	302.66
1014.051	319.04
1014.409	356.49
1014.767	370.54
1015.124	258.19
1015.482	321.38
1015.84	307.34
1016.197	297.98
1016.555	337.77
1016.912	333.09
1017.269	297.98
1017.627	244.15
1017.984	290.96
1018.341	354.15
1018.698	276.91
1019.055	323.73
1019.412	307.34
1019.769	344.79
1020.126	323.73
1020.483	248.83
1020.84	305
1021.196	290.96
1021.553	351.81
1021.909	286.28
1022.266	333.09
1022.622	314.36
1022.979	316.7
1023.335	365.85
1023.691	347.13
1024.047	300.32
1024.404	337.77
1024.76	281.6
1025.116	283.94
1025.472	340.11
1025.827	297.98
1026.183	302.66
1026.539	279.26
1026.895	335.43
1027.25	330.75
1027.606	262.87
1027.961	396.28
1028.317	365.85
1028.672	281.6
1029.028	316.7
1029.383	312.02
1029.738	283.94
1030.093	372.88
1030.448	302.66
1030.803	309.68
1031.158	279.26
1031.513	316.7
1031.868	258.19
1032.223	274.57
1032.577	312.02
1032.932	253.51
1033.287	290.96
1033.641	305
1033.996	302.66
1034.35	326.07
1034.704	302.66
1035.059	274.57
1035.413	276.91
1035.767	276.91
1036.121	276.91
