Data from Al_FLMS009871__732__15-12-40-932.txt Node

Date: Fri Mar 08 15:12:40 CST 2024
User: pe5414po
Spectrometer: FLMS00987
Trigger mode: 0
Integration Time (sec): 1.000000E-1
Scans to average: 1
Electric dark correction enabled: true
Nonlinearity correction enabled: false
Boxcar width: 0
XAxis mode: Wavelengths
Number of Pixels in Spectrum: 2048
>>>>>Begin Spectral Data<<<<<
188.938	-107.08
189.409	-107.08
189.879	-107.08
190.349	-109.42
190.819	-121.12
191.29	-121.12
191.76	-100.06
192.23	-13.46
192.7	-64.95
193.17	-43.89
193.64	-57.93
194.109	-41.54
194.579	-41.54
195.049	31.01
195.519	33.35
195.988	45.06
196.458	42.71
196.927	70.8
197.397	75.48
197.866	94.21
198.336	91.87
198.805	164.42
199.274	276.77
199.744	162.08
200.213	199.53
200.682	236.98
201.151	276.77
201.62	197.19
202.089	229.96
202.558	318.9
203.027	295.49
203.495	295.49
203.964	251.02
204.433	290.81
204.902	274.43
205.37	290.81
205.839	267.41
206.307	269.75
206.776	293.15
207.244	295.49
207.712	227.62
208.181	272.09
208.649	260.38
209.117	253.36
209.585	281.45
210.053	281.45
210.521	283.79
210.989	302.51
211.457	274.43
211.925	288.47
212.393	293.15
212.861	290.81
213.328	328.26
213.796	295.49
214.264	302.51
214.731	318.9
215.199	274.43
215.666	274.43
216.133	337.62
216.601	290.81
217.068	279.11
217.535	267.41
218.003	281.45
218.47	316.56
218.937	316.56
219.404	316.56
219.871	258.04
220.338	274.43
220.805	297.83
221.271	260.38
221.738	269.75
222.205	300.17
222.671	211.23
223.138	288.47
223.605	255.7
224.071	265.07
224.538	288.47
225.004	239.32
225.47	208.89
225.937	323.58
226.403	323.58
226.869	279.11
227.335	234.64
227.801	318.9
228.267	304.85
228.733	276.77
229.199	307.2
229.665	208.89
230.131	232.3
230.597	225.28
231.062	276.77
231.528	251.02
231.994	206.55
232.459	283.79
232.925	279.11
233.39	314.22
233.856	232.3
234.321	265.07
234.786	304.85
235.252	330.6
235.717	258.04
236.182	269.75
236.647	286.13
237.112	272.09
237.577	290.81
238.042	262.73
238.507	354.01
238.972	309.54
239.436	293.15
239.901	293.15
240.366	279.11
240.83	339.96
241.295	265.07
241.76	361.03
242.224	192.51
242.688	236.98
243.153	295.49
243.617	346.98
244.081	365.71
244.545	262.73
245.01	295.49
245.474	309.54
245.938	330.6
246.402	279.11
246.866	227.62
247.33	281.45
247.793	293.15
248.257	272.09
248.721	227.62
249.185	295.49
249.648	279.11
250.112	300.17
250.575	330.6
251.039	332.94
251.502	286.13
251.965	335.28
252.429	255.7
252.892	304.85
253.355	276.77
253.818	272.09
254.281	288.47
254.744	272.09
255.207	309.54
255.67	267.41
256.133	260.38
256.596	260.38
257.059	288.47
257.522	297.83
257.984	300.17
258.447	222.94
258.909	335.28
259.372	311.88
259.834	246.34
260.297	251.02
260.759	274.43
261.221	307.2
261.684	272.09
262.146	281.45
262.608	283.79
263.07	314.22
263.532	344.64
263.994	288.47
264.456	307.2
264.918	356.35
265.38	314.22
265.842	316.56
266.303	349.32
266.765	302.51
267.227	325.92
267.688	248.68
268.15	311.88
268.611	304.85
269.072	229.96
269.534	307.2
269.995	328.26
270.456	229.96
270.918	351.67
271.379	290.81
271.84	302.51
272.301	325.92
272.762	253.36
273.223	290.81
273.684	330.6
274.144	290.81
274.605	344.64
275.066	293.15
275.527	251.02
275.987	248.68
276.448	344.64
276.908	396.14
277.369	304.85
277.829	246.34
278.289	267.41
278.75	269.75
279.21	267.41
279.67	281.45
280.13	328.26
280.59	248.68
281.05	297.83
281.51	304.85
281.97	274.43
282.43	335.28
282.89	342.3
283.35	354.01
283.809	234.64
284.269	323.58
284.729	368.05
285.188	342.3
285.648	265.07
286.107	279.11
286.567	365.71
287.026	309.54
287.485	342.3
287.944	328.26
288.404	321.24
288.863	335.28
289.322	330.6
289.781	384.43
290.24	265.07
290.699	314.22
291.158	302.51
291.616	318.9
292.075	236.98
292.534	314.22
292.992	351.67
293.451	440.61
293.91	349.32
294.368	286.13
294.827	309.54
295.285	318.9
295.743	339.96
296.202	300.17
296.66	365.71
297.118	307.2
297.576	316.56
298.034	351.67
298.492	288.47
298.95	307.2
299.408	354.01
299.866	316.56
300.324	337.62
300.781	283.79
301.239	316.56
301.697	335.28
302.154	330.6
302.612	368.05
303.069	300.17
303.527	363.37
303.984	265.07
304.441	286.13
304.899	304.85
305.356	260.38
305.813	265.07
306.27	258.04
306.727	295.49
307.184	290.81
307.641	302.51
308.098	253.36
308.555	239.32
309.012	323.58
309.468	325.92
309.925	295.49
310.382	265.07
310.838	290.81
311.295	267.41
311.751	368.05
312.208	323.58
312.664	365.71
313.12	311.88
313.577	300.17
314.033	379.75
314.489	356.35
314.945	410.18
315.401	290.81
315.857	302.51
316.313	370.39
316.769	325.92
317.225	307.2
317.681	311.88
318.136	272.09
318.592	281.45
319.048	283.79
319.503	339.96
319.959	286.13
320.414	368.05
320.869	274.43
321.325	332.94
321.78	332.94
322.235	318.9
322.691	262.73
323.146	332.94
323.601	262.73
324.056	356.35
324.511	297.83
324.966	302.51
325.421	300.17
325.875	316.56
326.33	316.56
326.785	293.15
327.24	318.9
327.694	255.7
328.149	339.96
328.603	321.24
329.058	323.58
329.512	325.92
329.966	318.9
330.421	323.58
330.875	267.41
331.329	370.39
331.783	321.24
332.237	344.64
332.691	337.62
333.145	314.22
333.599	304.85
334.053	342.3
334.507	279.11
334.96	316.56
335.414	304.85
335.868	304.85
336.321	300.17
336.775	344.64
337.228	386.77
337.682	318.9
338.135	304.85
338.588	325.92
339.042	302.51
339.495	262.73
339.948	325.92
340.401	304.85
340.854	307.2
341.307	346.98
341.76	330.6
342.213	325.92
342.666	337.62
343.119	368.05
343.571	297.83
344.024	337.62
344.477	382.09
344.929	325.92
345.382	361.03
345.834	354.01
346.287	368.05
346.739	316.56
347.191	302.51
347.644	314.22
348.096	372.73
348.548	337.62
349	335.28
349.452	337.62
349.904	370.39
350.356	255.7
350.808	321.24
351.26	386.77
351.711	302.51
352.163	361.03
352.615	304.85
353.066	314.22
353.518	295.49
353.969	286.13
354.421	356.35
354.872	295.49
355.324	290.81
355.775	323.58
356.226	253.36
356.677	335.28
357.128	384.43
357.579	330.6
358.03	314.22
358.481	335.28
358.932	269.75
359.383	396.14
359.834	262.73
360.285	290.81
360.735	344.64
361.186	386.77
361.637	239.32
362.087	236.98
362.538	302.51
362.988	302.51
363.438	286.13
363.889	332.94
364.339	309.54
364.789	323.58
365.239	309.54
365.689	318.9
366.139	318.9
366.589	330.6
367.039	253.36
367.489	288.47
367.939	279.11
368.389	339.96
368.839	337.62
369.288	339.96
369.738	311.88
370.187	293.15
370.637	365.71
371.086	316.56
371.536	337.62
371.985	318.9
372.434	295.49
372.884	349.32
373.333	321.24
373.782	339.96
374.231	316.56
374.68	267.41
375.129	328.26
375.578	332.94
376.027	328.26
376.475	335.28
376.924	314.22
377.373	321.24
377.822	365.71
378.27	382.09
378.719	311.88
379.167	346.98
379.616	267.41
380.064	335.28
380.512	325.92
380.961	356.35
381.409	344.64
381.857	342.3
382.305	335.28
382.753	316.56
383.201	354.01
383.649	293.15
384.097	337.62
384.545	283.79
384.992	222.94
385.44	354.01
385.888	337.62
386.335	330.6
386.783	351.67
387.231	344.64
387.678	265.07
388.125	297.83
388.573	323.58
389.02	304.85
389.467	325.92
389.914	346.98
390.362	414.86
390.809	318.9
391.256	361.03
391.703	307.2
392.15	274.43
392.596	361.03
393.043	354.01
393.49	328.26
393.937	311.88
394.383	290.81
394.83	328.26
395.276	377.41
395.723	335.28
396.169	337.62
396.616	288.47
397.062	321.24
397.508	370.39
397.954	363.37
398.401	372.73
398.847	330.6
399.293	323.58
399.739	318.9
400.185	330.6
400.631	274.43
401.076	290.81
401.522	300.17
401.968	241.66
402.414	332.94
402.859	304.85
403.305	288.47
403.75	358.69
404.196	330.6
404.641	323.58
405.086	276.77
405.532	265.07
405.977	314.22
406.422	290.81
406.867	356.35
407.312	328.26
407.757	314.22
408.202	356.35
408.647	321.24
409.092	307.2
409.537	358.69
409.982	295.49
410.426	330.6
410.871	323.58
411.316	307.2
411.76	272.09
412.205	300.17
412.649	300.17
413.093	323.58
413.538	339.96
413.982	349.32
414.426	325.92
414.87	274.43
415.314	248.68
415.758	314.22
416.202	318.9
416.646	344.64
417.09	272.09
417.534	318.9
417.978	342.3
418.421	222.94
418.865	316.56
419.309	307.2
419.752	368.05
420.196	328.26
420.639	283.79
421.083	372.73
421.526	307.2
421.969	318.9
422.412	321.24
422.856	309.54
423.299	335.28
423.742	344.64
424.185	354.01
424.628	295.49
425.071	405.5
425.513	307.2
425.956	325.92
426.399	382.09
426.842	365.71
427.284	407.84
427.727	335.28
428.169	311.88
428.612	302.51
429.054	354.01
429.497	318.9
429.939	330.6
430.381	318.9
430.823	300.17
431.265	377.41
431.707	307.2
432.149	337.62
432.591	339.96
433.033	358.69
433.475	318.9
433.917	339.96
434.359	344.64
434.8	290.81
435.242	332.94
435.684	325.92
436.125	328.26
436.567	330.6
437.008	335.28
437.449	332.94
437.891	325.92
438.332	311.88
438.773	304.85
439.214	279.11
439.656	323.58
440.097	311.88
440.538	239.32
440.978	314.22
441.419	358.69
441.86	304.85
442.301	314.22
442.742	309.54
443.182	323.58
443.623	323.58
444.063	337.62
444.504	286.13
444.944	293.15
445.385	332.94
445.825	314.22
446.265	368.05
446.706	323.58
447.146	328.26
447.586	318.9
448.026	337.62
448.466	286.13
448.906	342.3
449.346	330.6
449.786	339.96
450.225	344.64
450.665	361.03
451.105	389.11
451.544	323.58
451.984	342.3
452.424	344.64
452.863	323.58
453.302	314.22
453.742	276.77
454.181	295.49
454.62	311.88
455.059	365.71
455.499	258.04
455.938	295.49
456.377	314.22
456.816	309.54
457.254	325.92
457.693	337.62
458.132	281.45
458.571	290.81
459.01	279.11
459.448	302.51
459.887	316.56
460.325	311.88
460.764	274.43
461.202	260.38
461.641	267.41
462.079	325.92
462.517	370.39
462.955	361.03
463.393	288.47
463.832	370.39
464.27	368.05
464.708	337.62
465.145	314.22
465.583	283.79
466.021	384.43
466.459	328.26
466.897	316.56
467.334	300.17
467.772	323.58
468.209	349.32
468.647	405.5
469.084	372.73
469.522	339.96
469.959	318.9
470.396	332.94
470.833	304.85
471.271	358.69
471.708	337.62
472.145	354.01
472.582	323.58
473.019	314.22
473.456	323.58
473.892	302.51
474.329	330.6
474.766	379.75
475.202	304.85
475.639	304.85
476.076	421.88
476.512	318.9
476.949	370.39
477.385	318.9
477.821	262.73
478.258	325.92
478.694	297.83
479.13	314.22
479.566	279.11
480.002	391.45
480.438	386.77
480.874	382.09
481.31	337.62
481.746	307.2
482.181	386.77
482.617	365.71
483.053	297.83
483.488	321.24
483.924	293.15
484.36	332.94
484.795	368.05
485.23	339.96
485.666	300.17
486.101	328.26
486.536	295.49
486.971	286.13
487.407	323.58
487.842	325.92
488.277	339.96
488.712	328.26
489.146	351.67
489.581	398.48
490.016	321.24
490.451	304.85
490.885	311.88
491.32	375.07
491.755	328.26
492.189	342.3
492.624	361.03
493.058	342.3
493.492	316.56
493.927	316.56
494.361	304.85
494.795	332.94
495.229	356.35
495.663	325.92
496.097	405.5
496.531	328.26
496.965	337.62
497.399	279.11
497.833	302.51
498.266	309.54
498.7	297.83
499.134	274.43
499.567	325.92
500.001	370.39
500.434	311.88
500.868	410.18
501.301	337.62
501.734	339.96
502.168	309.54
502.601	328.26
503.034	279.11
503.467	372.73
503.9	389.11
504.333	372.73
504.766	377.41
505.199	307.2
505.632	302.51
506.064	286.13
506.497	358.69
506.93	318.9
507.362	251.02
507.795	304.85
508.227	407.84
508.66	323.58
509.092	358.69
509.524	335.28
509.956	286.13
510.389	314.22
510.821	356.35
511.253	286.13
511.685	302.51
512.117	323.58
512.549	356.35
512.981	386.77
513.412	337.62
513.844	361.03
514.276	346.98
514.707	344.64
515.139	375.07
515.571	311.88
516.002	253.36
516.433	363.37
516.865	382.09
517.296	311.88
517.727	384.43
518.159	382.09
518.59	339.96
519.021	307.2
519.452	314.22
519.883	265.07
520.314	405.5
520.744	323.58
521.175	330.6
521.606	318.9
522.037	328.26
522.467	286.13
522.898	300.17
523.328	290.81
523.759	363.37
524.189	311.88
524.62	365.71
525.05	279.11
525.48	321.24
525.91	358.69
526.341	309.54
526.771	307.2
527.201	274.43
527.631	314.22
528.061	398.48
528.49	368.05
528.92	325.92
529.35	323.58
529.78	346.98
530.209	398.48
530.639	332.94
531.068	297.83
531.498	356.35
531.927	339.96
532.357	370.39
532.786	295.49
533.215	335.28
533.644	307.2
534.074	304.85
534.503	239.32
534.932	323.58
535.361	344.64
535.79	274.43
536.218	346.98
536.647	351.67
537.076	431.24
537.505	335.28
537.933	342.3
538.362	382.09
538.79	304.85
539.219	344.64
539.647	344.64
540.076	332.94
540.504	339.96
540.932	290.81
541.36	302.51
541.788	335.28
542.217	337.62
542.645	328.26
543.073	325.92
543.5	361.03
543.928	307.2
544.356	297.83
544.784	363.37
545.211	330.6
545.639	337.62
546.067	297.83
546.494	279.11
546.922	349.32
547.349	361.03
547.776	358.69
548.204	307.2
548.631	307.2
549.058	323.58
549.485	286.13
549.912	375.07
550.339	349.32
550.766	302.51
551.193	300.17
551.62	295.49
552.047	363.37
552.474	286.13
552.9	328.26
553.327	302.51
553.754	276.77
554.18	297.83
554.607	300.17
555.033	358.69
555.459	323.58
555.886	365.71
556.312	297.83
556.738	307.2
557.164	309.54
557.59	300.17
558.016	335.28
558.442	330.6
558.868	288.47
559.294	311.88
559.72	321.24
560.145	311.88
560.571	314.22
560.997	274.43
561.422	300.17
561.848	337.62
562.273	337.62
562.699	337.62
563.124	304.85
563.549	283.79
563.974	363.37
564.4	349.32
564.825	344.64
565.25	314.22
565.675	337.62
566.1	307.2
566.525	314.22
566.95	377.41
567.374	323.58
567.799	325.92
568.224	283.79
568.648	337.62
569.073	314.22
569.497	272.09
569.922	330.6
570.346	295.49
570.771	382.09
571.195	309.54
571.619	372.73
572.043	323.58
572.467	309.54
572.891	297.83
573.315	339.96
573.739	311.88
574.163	300.17
574.587	382.09
575.011	297.83
575.435	295.49
575.858	389.11
576.282	288.47
576.705	363.37
577.129	344.64
577.552	314.22
577.976	318.9
578.399	335.28
578.822	363.37
579.245	354.01
579.669	332.94
580.092	274.43
580.515	354.01
580.938	400.82
581.361	335.28
581.784	342.3
582.206	342.3
582.629	265.07
583.052	251.02
583.474	377.41
583.897	300.17
584.32	318.9
584.742	346.98
585.165	391.45
585.587	314.22
586.009	288.47
586.431	307.2
586.854	307.2
587.276	339.96
587.698	361.03
588.12	316.56
588.542	311.88
588.964	297.83
589.386	300.17
589.807	332.94
590.229	288.47
590.651	318.9
591.073	335.28
591.494	316.56
591.916	309.54
592.337	344.64
592.759	321.24
593.18	307.2
593.601	321.24
594.022	372.73
594.444	321.24
594.865	318.9
595.286	349.32
595.707	370.39
596.128	354.01
596.549	300.17
596.97	372.73
597.39	323.58
597.811	342.3
598.232	354.01
598.652	311.88
599.073	358.69
599.494	351.67
599.914	286.13
600.334	344.64
600.755	389.11
601.175	258.04
601.595	332.94
602.015	337.62
602.436	321.24
602.856	440.61
603.276	300.17
603.696	337.62
604.115	335.28
604.535	365.71
604.955	330.6
605.375	283.79
605.794	335.28
606.214	288.47
606.634	325.92
607.053	318.9
607.473	342.3
607.892	330.6
608.311	377.41
608.731	307.2
609.15	255.7
609.569	365.71
609.988	323.58
610.407	304.85
610.826	354.01
611.245	384.43
611.664	311.88
612.083	337.62
612.501	314.22
612.92	307.2
613.339	330.6
613.757	342.3
614.176	288.47
614.594	365.71
615.013	302.51
615.431	346.98
615.85	318.9
616.268	302.51
616.686	363.37
617.104	300.17
617.522	316.56
617.94	260.38
618.358	304.85
618.776	325.92
619.194	307.2
619.612	283.79
620.03	349.32
620.447	318.9
620.865	368.05
621.282	321.24
621.7	337.62
622.117	318.9
622.535	325.92
622.952	304.85
623.369	295.49
623.787	297.83
624.204	302.51
624.621	377.41
625.038	332.94
625.455	332.94
625.872	330.6
626.289	332.94
626.706	262.73
627.123	304.85
627.539	337.62
627.956	286.13
628.373	323.58
628.789	255.7
629.206	328.26
629.622	349.32
630.038	323.58
630.455	342.3
630.871	351.67
631.287	307.2
631.703	328.26
632.12	337.62
632.536	365.71
632.952	323.58
633.368	293.15
633.783	265.07
634.199	307.2
634.615	339.96
635.031	361.03
635.446	314.22
635.862	318.9
636.277	339.96
636.693	309.54
637.108	318.9
637.524	389.11
637.939	354.01
638.354	346.98
638.77	377.41
639.185	339.96
639.6	300.17
640.015	339.96
640.43	354.01
640.845	300.17
641.259	365.71
641.674	377.41
642.089	309.54
642.504	372.73
642.918	363.37
643.333	335.28
643.747	342.3
644.162	349.32
644.576	354.01
644.991	363.37
645.405	339.96
645.819	318.9
646.233	361.03
646.647	293.15
647.061	311.88
647.475	295.49
647.889	302.51
648.303	384.43
648.717	370.39
649.131	332.94
649.545	290.81
649.958	361.03
650.372	419.54
650.785	272.09
651.199	332.94
651.612	349.32
652.026	309.54
652.439	330.6
652.852	316.56
653.266	337.62
653.679	295.49
654.092	354.01
654.505	342.3
654.918	302.51
655.331	307.2
655.744	304.85
656.156	344.64
656.569	351.67
656.982	323.58
657.394	307.2
657.807	332.94
658.22	321.24
658.632	314.22
659.044	267.41
659.457	344.64
659.869	267.41
660.281	342.3
660.693	365.71
661.106	351.67
661.518	293.15
661.93	337.62
662.342	304.85
662.754	302.51
663.165	417.2
663.577	290.81
663.989	349.32
664.401	454.65
664.812	267.41
665.224	318.9
665.635	316.56
666.047	286.13
666.458	258.04
666.869	389.11
667.281	339.96
667.692	382.09
668.103	342.3
668.514	262.73
668.925	361.03
669.336	295.49
669.747	265.07
670.158	286.13
670.569	330.6
670.979	332.94
671.39	248.68
671.801	267.41
672.211	375.07
672.622	328.26
673.032	370.39
673.443	361.03
673.853	318.9
674.263	391.45
674.674	316.56
675.084	342.3
675.494	337.62
675.904	307.2
676.314	330.6
676.724	335.28
677.134	398.48
677.544	307.2
677.953	354.01
678.363	370.39
678.773	410.18
679.182	379.75
679.592	349.32
680.001	293.15
680.411	304.85
680.82	283.79
681.23	318.9
681.639	309.54
682.048	314.22
682.457	290.81
682.866	342.3
683.275	307.2
683.684	325.92
684.093	393.8
684.502	377.41
684.911	286.13
685.32	330.6
685.728	377.41
686.137	297.83
686.546	337.62
686.954	332.94
687.363	332.94
687.771	286.13
688.179	335.28
688.588	339.96
688.996	375.07
689.404	370.39
689.812	323.58
690.22	354.01
690.628	318.9
691.036	377.41
691.444	361.03
691.852	262.73
692.26	354.01
692.667	321.24
693.075	346.98
693.483	281.45
693.89	372.73
694.298	354.01
694.705	286.13
695.112	325.92
695.52	316.56
695.927	330.6
696.334	307.2
696.741	309.54
697.148	354.01
697.555	368.05
697.962	328.26
698.369	307.2
698.776	321.24
699.183	330.6
699.59	346.98
699.996	349.32
700.403	297.83
700.81	370.39
701.216	281.45
701.623	377.41
702.029	304.85
702.435	311.88
702.842	337.62
703.248	321.24
703.654	318.9
704.06	323.58
704.466	370.39
704.872	293.15
705.278	286.13
705.684	265.07
706.09	300.17
706.496	300.17
706.901	295.49
707.307	304.85
707.712	314.22
708.118	297.83
708.523	368.05
708.929	267.41
709.334	318.9
709.74	272.09
710.145	372.73
710.55	272.09
710.955	286.13
711.36	232.3
711.765	325.92
712.17	311.88
712.575	363.37
712.98	889.99
713.385	405.5
713.789	354.01
714.194	351.67
714.599	339.96
715.003	241.66
715.408	290.81
715.812	293.15
716.217	309.54
716.621	346.98
717.025	307.2
717.429	302.51
717.833	332.94
718.238	330.6
718.642	400.82
719.046	288.47
719.449	351.67
719.853	356.35
720.257	314.22
720.661	311.88
721.065	311.88
721.468	351.67
721.872	321.24
722.275	304.85
722.679	267.41
723.082	309.54
723.485	286.13
723.889	323.58
724.292	393.8
724.695	286.13
725.098	302.51
725.501	351.67
725.904	253.36
726.307	269.75
726.71	337.62
727.113	300.17
727.516	403.16
727.918	335.28
728.321	330.6
728.724	311.88
729.126	335.28
729.529	311.88
729.931	335.28
730.333	295.49
730.736	332.94
731.138	339.96
731.54	351.67
731.942	307.2
732.344	361.03
732.746	304.85
733.148	314.22
733.55	342.3
733.952	236.98
734.354	290.81
734.756	309.54
735.157	356.35
735.559	318.9
735.96	351.67
736.362	368.05
736.763	293.15
737.165	354.01
737.566	316.56
737.967	351.67
738.368	286.13
738.77	337.62
739.171	297.83
739.572	349.32
739.973	290.81
740.374	351.67
740.774	316.56
741.175	311.88
741.576	276.77
741.977	297.83
742.377	276.77
742.778	321.24
743.178	328.26
743.579	262.73
743.979	297.83
744.379	332.94
744.78	337.62
745.18	316.56
745.58	335.28
745.98	354.01
746.38	365.71
746.78	349.32
747.18	335.28
747.58	283.79
747.98	307.2
748.38	339.96
748.779	314.22
749.179	325.92
749.578	318.9
749.978	288.47
750.377	314.22
750.777	389.11
751.176	311.88
751.575	339.96
751.975	302.51
752.374	300.17
752.773	300.17
753.172	337.62
753.571	295.49
753.97	361.03
754.369	335.28
754.768	349.32
755.166	283.79
755.565	328.26
755.964	304.85
756.362	325.92
756.761	337.62
757.159	300.17
757.558	321.24
757.956	267.41
758.354	288.47
758.753	372.73
759.151	372.73
759.549	309.54
759.947	328.26
760.345	321.24
760.743	349.32
761.141	316.56
761.539	316.56
761.936	372.73
762.334	300.17
762.732	300.17
763.129	330.6
763.527	311.88
763.924	283.79
764.322	339.96
764.719	377.41
765.117	309.54
765.514	323.58
765.911	309.54
766.308	365.71
766.705	337.62
767.102	265.07
767.499	281.45
767.896	297.83
768.293	274.43
768.69	339.96
769.086	318.9
769.483	279.11
769.88	302.51
770.276	365.71
770.673	328.26
771.069	236.98
771.466	265.07
771.862	328.26
772.258	307.2
772.654	325.92
773.05	304.85
773.447	351.67
773.843	335.28
774.239	321.24
774.634	382.09
775.03	248.68
775.426	365.71
775.822	307.2
776.218	332.94
776.613	424.22
777.009	342.3
777.404	335.28
777.8	293.15
778.195	375.07
778.59	342.3
778.986	276.77
779.381	321.24
779.776	323.58
780.171	335.28
780.566	286.13
780.961	328.26
781.356	328.26
781.751	384.43
782.146	269.75
782.54	304.85
782.935	293.15
783.33	279.11
783.724	335.28
784.119	325.92
784.513	351.67
784.908	323.58
785.302	288.47
785.696	297.83
786.09	344.64
786.485	332.94
786.879	318.9
787.273	335.28
787.667	302.51
788.061	316.56
788.454	267.41
788.848	325.92
789.242	330.6
789.636	365.71
790.029	349.32
790.423	346.98
790.816	339.96
791.21	328.26
791.603	288.47
791.997	332.94
792.39	363.37
792.783	365.71
793.176	316.56
793.569	363.37
793.962	295.49
794.355	251.02
794.748	325.92
795.141	297.83
795.534	283.79
795.927	258.04
796.319	311.88
796.712	339.96
797.105	297.83
797.497	337.62
797.89	346.98
798.282	393.8
798.674	318.9
799.067	316.56
799.459	260.38
799.851	307.2
800.243	311.88
800.635	283.79
801.027	330.6
801.419	321.24
801.811	335.28
802.203	286.13
802.594	365.71
802.986	379.75
803.378	361.03
803.769	335.28
804.161	300.17
804.552	344.64
804.944	300.17
805.335	332.94
805.726	344.64
806.118	307.2
806.509	316.56
806.9	330.6
807.291	276.77
807.682	330.6
808.073	283.79
808.464	377.41
808.855	318.9
809.245	328.26
809.636	356.35
810.027	332.94
810.417	253.36
810.808	321.24
811.198	325.92
811.589	325.92
811.979	314.22
812.369	283.79
812.759	281.45
813.15	279.11
813.54	321.24
813.93	309.54
814.32	286.13
814.71	358.69
815.1	297.83
815.489	337.62
815.879	335.28
816.269	318.9
816.658	351.67
817.048	386.77
817.438	297.83
817.827	307.2
818.216	279.11
818.606	356.35
818.995	323.58
819.384	316.56
819.773	307.2
820.163	321.24
820.552	274.43
820.941	328.26
821.33	358.69
821.718	344.64
822.107	304.85
822.496	314.22
822.885	307.2
823.273	295.49
823.662	283.79
824.05	346.98
824.439	328.26
824.827	293.15
825.216	309.54
825.604	328.26
825.992	330.6
826.38	363.37
826.768	346.98
827.156	349.32
827.544	288.47
827.932	295.49
828.32	330.6
828.708	302.51
829.096	281.45
829.483	311.88
829.871	286.13
830.259	272.09
830.646	365.71
831.034	311.88
831.421	370.39
831.808	267.41
832.196	283.79
832.583	349.32
832.97	300.17
833.357	361.03
833.744	276.77
834.131	323.58
834.518	304.85
834.905	283.79
835.292	342.3
835.678	351.67
836.065	295.49
836.452	300.17
836.838	276.77
837.225	309.54
837.611	272.09
837.998	332.94
838.384	311.88
838.77	323.58
839.157	325.92
839.543	302.51
839.929	281.45
840.315	365.71
840.701	314.22
841.087	386.77
841.473	346.98
841.858	349.32
842.244	283.79
842.63	346.98
843.015	332.94
843.401	648.91
843.787	370.39
844.172	286.13
844.557	283.79
844.943	300.17
845.328	351.67
845.713	318.9
846.098	370.39
846.483	304.85
846.868	344.64
847.253	290.81
847.638	354.01
848.023	276.77
848.408	365.71
848.793	330.6
849.177	302.51
849.562	372.73
849.947	276.77
850.331	265.07
850.715	332.94
851.1	314.22
851.484	302.51
851.868	314.22
852.253	281.45
852.637	323.58
853.021	248.68
853.405	262.73
853.789	323.58
854.173	307.2
854.557	281.45
854.94	295.49
855.324	330.6
855.708	318.9
856.091	372.73
856.475	391.45
856.858	342.3
857.242	337.62
857.625	349.32
858.009	377.41
858.392	330.6
858.775	295.49
859.158	344.64
859.541	370.39
859.924	304.85
860.307	286.13
860.69	356.35
861.073	396.14
861.456	370.39
861.838	314.22
862.221	389.11
862.604	335.28
862.986	342.3
863.369	286.13
863.751	337.62
864.133	314.22
864.516	288.47
864.898	384.43
865.28	337.62
865.662	274.43
866.044	318.9
866.426	274.43
866.808	335.28
867.19	321.24
867.572	337.62
867.954	227.62
868.336	267.41
868.717	260.38
869.099	300.17
869.48	339.96
869.862	323.58
870.243	290.81
870.625	311.88
871.006	297.83
871.387	304.85
871.768	304.85
872.149	330.6
872.53	361.03
872.911	269.75
873.292	351.67
873.673	365.71
874.054	328.26
874.435	323.58
874.815	354.01
875.196	375.07
875.577	316.56
875.957	297.83
876.338	300.17
876.718	255.7
877.098	339.96
877.479	288.47
877.859	368.05
878.239	354.01
878.619	332.94
878.999	304.85
879.379	391.45
879.759	300.17
880.139	339.96
880.519	309.54
880.898	361.03
881.278	297.83
881.658	321.24
882.037	318.9
882.417	349.32
882.796	267.41
883.176	302.51
883.555	342.3
883.934	316.56
884.313	332.94
884.693	314.22
885.072	328.26
885.451	365.71
885.83	302.51
886.209	361.03
886.587	346.98
886.966	354.01
887.345	246.34
887.724	351.67
888.102	384.43
888.481	358.69
888.859	302.51
889.238	318.9
889.616	253.36
889.994	363.37
890.373	318.9
890.751	281.45
891.129	339.96
891.507	269.75
891.885	358.69
892.263	335.28
892.641	311.88
893.019	295.49
893.396	330.6
893.774	337.62
894.152	274.43
894.529	290.81
894.907	295.49
895.284	328.26
895.662	283.79
896.039	262.73
896.416	321.24
896.794	295.49
897.171	311.88
897.548	314.22
897.925	297.83
898.302	346.98
898.679	314.22
899.056	314.22
899.433	290.81
899.809	274.43
900.186	288.47
900.563	346.98
900.939	318.9
901.316	302.51
901.692	290.81
902.069	288.47
902.445	358.69
902.821	363.37
903.197	328.26
903.574	344.64
903.95	297.83
904.326	281.45
904.702	335.28
905.078	349.32
905.454	325.92
905.829	302.51
906.205	316.56
906.581	354.01
906.956	389.11
907.332	325.92
907.707	286.13
908.083	330.6
908.458	335.28
908.833	295.49
909.209	354.01
909.584	346.98
909.959	323.58
910.334	330.6
910.709	248.68
911.084	339.96
911.459	339.96
911.834	272.09
912.209	323.58
912.583	314.22
912.958	351.67
913.333	309.54
913.707	311.88
914.082	318.9
914.456	375.07
914.83	323.58
915.205	302.51
915.579	295.49
915.953	288.47
916.327	368.05
916.701	379.75
917.075	398.48
917.449	346.98
917.823	339.96
918.197	332.94
918.571	337.62
918.944	337.62
919.318	274.43
919.692	323.58
920.065	337.62
920.438	302.51
920.812	311.88
921.185	300.17
921.558	300.17
921.932	339.96
922.305	262.73
922.678	379.75
923.051	302.51
923.424	316.56
923.797	337.62
924.17	297.83
924.542	304.85
924.915	398.48
925.288	354.01
925.661	316.56
926.033	293.15
926.406	314.22
926.778	295.49
927.15	288.47
927.523	358.69
927.895	300.17
928.267	379.75
928.639	295.49
929.011	321.24
929.383	304.85
929.755	316.56
930.127	361.03
930.499	332.94
930.871	272.09
931.242	351.67
931.614	311.88
931.986	328.26
932.357	365.71
932.729	260.38
933.1	309.54
933.471	276.77
933.843	316.56
934.214	311.88
934.585	297.83
934.956	307.2
935.327	290.81
935.698	339.96
936.069	356.35
936.44	307.2
936.811	386.77
937.182	307.2
937.552	276.77
937.923	316.56
938.293	265.07
938.664	361.03
939.034	330.6
939.405	361.03
939.775	311.88
940.145	342.3
940.516	346.98
940.886	365.71
941.256	295.49
941.626	356.35
941.996	304.85
942.366	279.11
942.735	316.56
943.105	267.41
943.475	335.28
943.845	281.45
944.214	349.32
944.584	330.6
944.953	361.03
945.323	339.96
945.692	269.75
946.061	356.35
946.43	281.45
946.8	314.22
947.169	290.81
947.538	246.34
947.907	255.7
948.276	321.24
948.645	300.17
949.013	354.01
949.382	276.77
949.751	351.67
950.119	244
950.488	307.2
950.857	283.79
951.225	323.58
951.593	342.3
951.962	321.24
952.33	339.96
952.698	337.62
953.066	328.26
953.434	286.13
953.802	300.17
954.17	290.81
954.538	325.92
954.906	344.64
955.274	286.13
955.642	288.47
956.009	311.88
956.377	325.92
956.744	288.47
957.112	365.71
957.479	311.88
957.847	290.81
958.214	311.88
958.581	372.73
958.948	293.15
959.315	337.62
959.683	372.73
960.05	351.67
960.416	311.88
960.783	393.8
961.15	316.56
961.517	321.24
961.884	332.94
962.25	342.3
962.617	335.28
962.983	283.79
963.35	272.09
963.716	332.94
964.082	337.62
964.449	335.28
964.815	276.77
965.181	325.92
965.547	328.26
965.913	255.7
966.279	307.2
966.645	337.62
967.011	316.56
967.377	325.92
967.742	332.94
968.108	358.69
968.474	232.3
968.839	302.51
969.205	316.56
969.57	295.49
969.935	300.17
970.301	372.73
970.666	346.98
971.031	358.69
971.396	375.07
971.761	316.56
972.126	307.2
972.491	283.79
972.856	379.75
973.221	330.6
973.586	358.69
973.95	311.88
974.315	323.58
974.679	314.22
975.044	290.81
975.408	304.85
975.773	365.71
976.137	318.9
976.501	332.94
976.866	302.51
977.23	328.26
977.594	354.01
977.958	325.92
978.322	323.58
978.686	384.43
979.049	325.92
979.413	368.05
979.777	330.6
980.141	290.81
980.504	354.01
980.868	363.37
981.231	290.81
981.595	332.94
981.958	330.6
982.321	321.24
982.684	293.15
983.048	316.56
983.411	295.49
983.774	281.45
984.137	314.22
984.5	258.04
984.862	307.2
985.225	258.04
985.588	325.92
985.951	346.98
986.313	300.17
986.676	283.79
987.038	304.85
987.401	302.51
987.763	316.56
988.125	293.15
988.488	346.98
988.85	318.9
989.212	407.84
989.574	269.75
989.936	365.71
990.298	335.28
990.66	274.43
991.022	346.98
991.383	330.6
991.745	325.92
992.107	316.56
992.468	332.94
992.83	330.6
993.191	304.85
993.553	316.56
993.914	311.88
994.275	356.35
994.637	328.26
994.998	356.35
995.359	297.83
995.72	300.17
996.081	311.88
996.442	325.92
996.803	283.79
997.163	274.43
997.524	311.88
997.885	342.3
998.245	372.73
998.606	318.9
998.966	314.22
999.327	309.54
999.687	365.71
1000.047	255.7
1000.408	321.24
1000.768	244
1001.128	335.28
1001.488	288.47
1001.848	323.58
1002.208	272.09
1002.568	302.51
1002.927	325.92
1003.287	396.14
1003.647	332.94
1004.007	307.2
1004.366	323.58
1004.726	344.64
1005.085	351.67
1005.444	281.45
1005.804	349.32
1006.163	309.54
1006.522	391.45
1006.881	276.77
1007.24	265.07
1007.599	332.94
1007.958	358.69
1008.317	354.01
1008.676	267.41
1009.035	272.09
1009.393	309.54
1009.752	309.54
1010.111	302.51
1010.469	309.54
1010.828	279.11
1011.186	241.66
1011.544	311.88
1011.903	332.94
1012.261	339.96
1012.619	316.56
1012.977	335.28
1013.335	309.54
1013.693	300.17
1014.051	262.73
1014.409	349.32
1014.767	321.24
1015.124	316.56
1015.482	354.01
1015.84	283.79
1016.197	346.98
1016.555	361.03
1016.912	232.3
1017.269	311.88
1017.627	318.9
1017.984	325.92
1018.341	342.3
1018.698	330.6
1019.055	328.26
1019.412	354.01
1019.769	335.28
1020.126	309.54
1020.483	328.26
1020.84	363.37
1021.196	344.64
1021.553	274.43
1021.909	274.43
1022.266	251.02
1022.622	316.56
1022.979	330.6
1023.335	328.26
1023.691	314.22
1024.047	386.77
1024.404	344.64
1024.76	346.98
1025.116	307.2
1025.472	356.35
1025.827	304.85
1026.183	302.51
1026.539	297.83
1026.895	302.51
1027.25	316.56
1027.606	244
1027.961	286.13
1028.317	302.51
1028.672	314.22
1029.028	339.96
1029.383	316.56
1029.738	393.8
1030.093	286.13
1030.448	262.73
1030.803	267.41
1031.158	358.69
1031.513	297.83
1031.868	398.48
1032.223	339.96
1032.577	309.54
1032.932	346.98
1033.287	321.24
1033.641	356.35
1033.996	281.45
1034.35	293.15
1034.704	283.79
1035.059	318.9
1035.413	321.24
1035.767	321.24
1036.121	321.24
