Data from Al_FLMS009871__733__15-12-41-029.txt Node

Date: Fri Mar 08 15:12:41 CST 2024
User: pe5414po
Spectrometer: FLMS00987
Trigger mode: 0
Integration Time (sec): 1.000000E-1
Scans to average: 1
Electric dark correction enabled: true
Nonlinearity correction enabled: false
Boxcar width: 0
XAxis mode: Wavelengths
Number of Pixels in Spectrum: 2048
>>>>>Begin Spectral Data<<<<<
188.938	-138.09
189.409	-138.09
189.879	-138.09
190.349	-100.64
190.819	-91.28
191.29	-98.3
191.76	-154.48
192.23	-102.98
192.7	-46.81
193.17	-154.48
193.64	-23.41
194.109	-4.68
194.579	16.38
195.049	44.47
195.519	-4.68
195.988	42.13
196.458	23.41
196.927	35.11
197.397	156.82
197.866	107.66
198.336	163.84
198.805	177.88
199.274	161.5
199.744	72.56
200.213	131.07
200.682	163.84
201.151	245.76
201.62	248.1
202.089	180.22
202.558	184.9
203.027	205.97
203.495	266.82
203.964	252.78
204.433	262.14
204.902	269.16
205.37	353.42
205.839	322.99
206.307	259.8
206.776	306.61
207.244	259.8
207.712	241.08
208.181	332.36
208.649	287.89
209.117	339.38
209.585	245.76
210.053	334.7
210.521	257.46
210.989	236.39
211.457	318.31
211.925	262.14
212.393	255.12
212.861	318.31
213.328	346.4
213.796	283.2
214.264	339.38
214.731	220.01
215.199	241.08
215.666	301.93
216.133	290.23
216.601	248.1
217.068	322.99
217.535	222.35
218.003	276.18
218.47	287.89
218.937	238.73
219.404	299.59
219.871	264.48
220.338	266.82
220.805	198.95
221.271	238.73
221.738	189.58
222.205	262.14
222.671	229.37
223.138	220.01
223.605	238.73
224.071	257.46
224.538	241.08
225.004	299.59
225.47	243.42
225.937	229.37
226.403	243.42
226.869	231.71
227.335	283.2
227.801	236.39
228.267	266.82
228.733	315.97
229.199	259.8
229.665	290.23
230.131	290.23
230.597	276.18
231.062	259.8
231.528	273.84
231.994	264.48
232.459	287.89
232.925	238.73
233.39	236.39
233.856	224.69
234.321	248.1
234.786	287.89
235.252	280.86
235.717	318.31
236.182	241.08
236.647	285.55
237.112	255.12
237.577	255.12
238.042	250.44
238.507	241.08
238.972	262.14
239.436	290.23
239.901	299.59
240.366	236.39
240.83	259.8
241.295	273.84
241.76	297.25
242.224	208.31
242.688	294.91
243.153	301.93
243.617	276.18
244.081	255.12
244.545	276.18
245.01	308.95
245.474	313.63
245.938	280.86
246.402	322.99
246.866	318.31
247.33	259.8
247.793	271.5
248.257	315.97
248.721	290.23
249.185	269.16
249.648	311.29
250.112	301.93
250.575	241.08
251.039	273.84
251.502	287.89
251.965	271.5
252.429	290.23
252.892	339.38
253.355	318.31
253.818	236.39
254.281	292.57
254.744	273.84
255.207	299.59
255.67	330.02
256.133	224.69
256.596	299.59
257.059	196.61
257.522	283.2
257.984	280.86
258.447	245.76
258.909	273.84
259.372	264.48
259.834	308.95
260.297	269.16
260.759	248.1
261.221	248.1
261.684	280.86
262.146	339.38
262.608	306.61
263.07	308.95
263.532	304.27
263.994	259.8
264.456	304.27
264.918	287.89
265.38	259.8
265.842	191.92
266.303	231.71
266.765	266.82
267.227	250.44
267.688	306.61
268.15	313.63
268.611	353.42
269.072	351.08
269.534	241.08
269.995	241.08
270.456	280.86
270.918	301.93
271.379	290.23
271.84	273.84
272.301	208.31
272.762	297.25
273.223	276.18
273.684	245.76
274.144	238.73
274.605	299.59
275.066	259.8
275.527	294.91
275.987	266.82
276.448	276.18
276.908	297.25
277.369	325.33
277.829	276.18
278.289	332.36
278.75	285.55
279.21	325.33
279.67	269.16
280.13	322.99
280.59	299.59
281.05	243.42
281.51	273.84
281.97	344.06
282.43	313.63
282.89	292.57
283.35	236.39
283.809	304.27
284.269	278.52
284.729	252.78
285.188	337.04
285.648	220.01
286.107	280.86
286.567	315.97
287.026	315.97
287.485	287.89
287.944	285.55
288.404	297.25
288.863	278.52
289.322	315.97
289.781	372.15
290.24	294.91
290.699	245.76
291.158	320.65
291.616	283.2
292.075	273.84
292.534	346.4
292.992	322.99
293.451	346.4
293.91	322.99
294.368	327.67
294.827	259.8
295.285	262.14
295.743	241.08
296.202	351.08
296.66	273.84
297.118	287.89
297.576	311.29
298.034	362.78
298.492	201.29
298.95	210.65
299.408	325.33
299.866	332.36
300.324	287.89
300.781	271.5
301.239	280.86
301.697	404.91
302.154	257.46
302.612	297.25
303.069	320.65
303.527	278.52
303.984	280.86
304.441	280.86
304.899	320.65
305.356	365.12
305.813	273.84
306.27	297.25
306.727	278.52
307.184	304.27
307.641	292.57
308.098	337.04
308.555	269.16
309.012	273.84
309.468	257.46
309.925	285.55
310.382	287.89
310.838	320.65
311.295	308.95
311.751	299.59
312.208	327.67
312.664	292.57
313.12	313.63
313.577	306.61
314.033	311.29
314.489	315.97
314.945	327.67
315.401	313.63
315.857	334.7
316.313	290.23
316.769	311.29
317.225	348.74
317.681	374.49
318.136	198.95
318.592	325.33
319.048	313.63
319.503	337.04
319.959	297.25
320.414	271.5
320.869	320.65
321.325	280.86
321.78	301.93
322.235	287.89
322.691	259.8
323.146	271.5
323.601	283.2
324.056	285.55
324.511	269.16
324.966	264.48
325.421	245.76
325.875	332.36
326.33	238.73
326.785	414.27
327.24	280.86
327.694	341.72
328.149	238.73
328.603	374.49
329.058	280.86
329.512	297.25
329.966	276.18
330.421	346.4
330.875	325.33
331.329	367.46
331.783	325.33
332.237	271.5
332.691	320.65
333.145	334.7
333.599	327.67
334.053	344.06
334.507	330.02
334.96	276.18
335.414	292.57
335.868	390.87
336.321	320.65
336.775	313.63
337.228	271.5
337.682	313.63
338.135	283.2
338.588	369.8
339.042	290.23
339.495	278.52
339.948	271.5
340.401	276.18
340.854	322.99
341.307	367.46
341.76	339.38
342.213	273.84
342.666	304.27
343.119	266.82
343.571	322.99
344.024	299.59
344.477	290.23
344.929	280.86
345.382	290.23
345.834	383.85
346.287	320.65
346.739	358.1
347.191	301.93
347.644	330.02
348.096	245.76
348.548	280.86
349	290.23
349.452	299.59
349.904	308.95
350.356	290.23
350.808	231.71
351.26	306.61
351.711	273.84
352.163	358.1
352.615	320.65
353.066	358.1
353.518	339.38
353.969	346.4
354.421	299.59
354.872	327.67
355.324	276.18
355.775	285.55
356.226	334.7
356.677	297.25
357.128	353.42
357.579	294.91
358.03	238.73
358.481	306.61
358.932	287.89
359.383	287.89
359.834	276.18
360.285	322.99
360.735	283.2
361.186	330.02
361.637	269.16
362.087	299.59
362.538	374.49
362.988	322.99
363.438	332.36
363.889	334.7
364.339	353.42
364.789	334.7
365.239	327.67
365.689	365.12
366.139	283.2
366.589	372.15
367.039	334.7
367.489	344.06
367.939	306.61
368.389	294.91
368.839	315.97
369.288	334.7
369.738	306.61
370.187	325.33
370.637	327.67
371.086	339.38
371.536	297.25
371.985	315.97
372.434	287.89
372.884	269.16
373.333	308.95
373.782	320.65
374.231	353.42
374.68	362.78
375.129	283.2
375.578	264.48
376.027	290.23
376.475	320.65
376.924	292.57
377.373	318.31
377.822	351.08
378.27	306.61
378.719	351.08
379.167	304.27
379.616	344.06
380.064	266.82
380.512	330.02
380.961	337.04
381.409	332.36
381.857	283.2
382.305	243.42
382.753	313.63
383.201	301.93
383.649	355.76
384.097	341.72
384.545	320.65
384.992	294.91
385.44	308.95
385.888	320.65
386.335	322.99
386.783	304.27
387.231	313.63
387.678	283.2
388.125	280.86
388.573	346.4
389.02	322.99
389.467	294.91
389.914	276.18
390.362	311.29
390.809	339.38
391.256	266.82
391.703	304.27
392.15	360.44
392.596	313.63
393.043	360.44
393.49	313.63
393.937	332.36
394.383	304.27
394.83	365.12
395.276	346.4
395.723	294.91
396.169	276.18
396.616	318.31
397.062	358.1
397.508	330.02
397.954	308.95
398.401	299.59
398.847	292.57
399.293	308.95
399.739	262.14
400.185	404.91
400.631	292.57
401.076	313.63
401.522	320.65
401.968	404.91
402.414	322.99
402.859	294.91
403.305	304.27
403.75	313.63
404.196	294.91
404.641	308.95
405.086	290.23
405.532	322.99
405.977	337.04
406.422	322.99
406.867	320.65
407.312	339.38
407.757	248.1
408.202	334.7
408.647	294.91
409.092	313.63
409.537	285.55
409.982	322.99
410.426	278.52
410.871	318.31
411.316	313.63
411.76	276.18
412.205	341.72
412.649	339.38
413.093	311.29
413.538	276.18
413.982	285.55
414.426	374.49
414.87	327.67
415.314	294.91
415.758	276.18
416.202	290.23
416.646	367.46
417.09	315.97
417.534	351.08
417.978	299.59
418.421	273.84
418.865	294.91
419.309	297.25
419.752	369.8
420.196	325.33
420.639	299.59
421.083	304.27
421.526	353.42
421.969	374.49
422.412	283.2
422.856	311.29
423.299	332.36
423.742	311.29
424.185	297.25
424.628	280.86
425.071	285.55
425.513	318.31
425.956	285.55
426.399	236.39
426.842	250.44
427.284	346.4
427.727	353.42
428.169	318.31
428.612	360.44
429.054	255.12
429.497	292.57
429.939	306.61
430.381	311.29
430.823	304.27
431.265	341.72
431.707	341.72
432.149	311.29
432.591	290.23
433.033	280.86
433.475	313.63
433.917	318.31
434.359	318.31
434.8	292.57
435.242	292.57
435.684	318.31
436.125	320.65
436.567	339.38
437.008	290.23
437.449	299.59
437.891	339.38
438.332	299.59
438.773	290.23
439.214	334.7
439.656	353.42
440.097	341.72
440.538	330.02
440.978	344.06
441.419	311.29
441.86	386.19
442.301	383.85
442.742	374.49
443.182	320.65
443.623	351.08
444.063	360.44
444.504	283.2
444.944	269.16
445.385	332.36
445.825	369.8
446.265	360.44
446.706	285.55
447.146	353.42
447.586	276.18
448.026	341.72
448.466	351.08
448.906	290.23
449.346	330.02
449.786	355.76
450.225	337.04
450.665	332.36
451.105	311.29
451.544	341.72
451.984	330.02
452.424	344.06
452.863	379.17
453.302	308.95
453.742	308.95
454.181	425.98
454.62	344.06
455.059	294.91
455.499	348.74
455.938	315.97
456.377	322.99
456.816	306.61
457.254	313.63
457.693	313.63
458.132	325.33
458.571	299.59
459.01	273.84
459.448	337.04
459.887	313.63
460.325	330.02
460.764	287.89
461.202	318.31
461.641	301.93
462.079	252.78
462.517	332.36
462.955	278.52
463.393	236.39
463.832	322.99
464.27	292.57
464.708	290.23
465.145	273.84
465.583	341.72
466.021	322.99
466.459	318.31
466.897	372.15
467.334	313.63
467.772	332.36
468.209	299.59
468.647	283.2
469.084	292.57
469.522	318.31
469.959	322.99
470.396	320.65
470.833	346.4
471.271	294.91
471.708	264.48
472.145	299.59
472.582	346.4
473.019	315.97
473.456	304.27
473.892	299.59
474.329	250.44
474.766	339.38
475.202	292.57
475.639	327.67
476.076	287.89
476.512	287.89
476.949	341.72
477.385	299.59
477.821	330.02
478.258	348.74
478.694	386.19
479.13	322.99
479.566	330.02
480.002	341.72
480.438	276.18
480.874	304.27
481.31	294.91
481.746	276.18
482.181	346.4
482.617	327.67
483.053	308.95
483.488	332.36
483.924	332.36
484.36	348.74
484.795	315.97
485.23	273.84
485.666	280.86
486.101	327.67
486.536	280.86
486.971	283.2
487.407	243.42
487.842	292.57
488.277	269.16
488.712	311.29
489.146	313.63
489.581	311.29
490.016	294.91
490.451	311.29
490.885	313.63
491.32	285.55
491.755	327.67
492.189	280.86
492.624	337.04
493.058	327.67
493.492	299.59
493.927	334.7
494.361	344.06
494.795	320.65
495.229	362.78
495.663	358.1
496.097	372.15
496.531	334.7
496.965	304.27
497.399	306.61
497.833	365.12
498.266	334.7
498.7	330.02
499.134	318.31
499.567	348.74
500.001	283.2
500.434	358.1
500.868	304.27
501.301	381.51
501.734	337.04
502.168	280.86
502.601	266.82
503.034	266.82
503.467	301.93
503.9	358.1
504.333	325.33
504.766	388.53
505.199	346.4
505.632	308.95
506.064	322.99
506.497	330.02
506.93	397.89
507.362	358.1
507.795	306.61
508.227	308.95
508.66	332.36
509.092	299.59
509.524	351.08
509.956	287.89
510.389	301.93
510.821	383.85
511.253	306.61
511.685	290.23
512.117	381.51
512.549	346.4
512.981	372.15
513.412	320.65
513.844	259.8
514.276	367.46
514.707	372.15
515.139	301.93
515.571	266.82
516.002	372.15
516.433	252.78
516.865	292.57
517.296	318.31
517.727	337.04
518.159	255.12
518.59	367.46
519.021	290.23
519.452	278.52
519.883	287.89
520.314	290.23
520.744	276.18
521.175	334.7
521.606	330.02
522.037	339.38
522.467	320.65
522.898	271.5
523.328	358.1
523.759	327.67
524.189	318.31
524.62	318.31
525.05	227.03
525.48	285.55
525.91	344.06
526.341	264.48
526.771	236.39
527.201	285.55
527.631	341.72
528.061	315.97
528.49	257.46
528.92	252.78
529.35	308.95
529.78	304.27
530.209	241.08
530.639	313.63
531.068	259.8
531.498	283.2
531.927	337.04
532.357	269.16
532.786	313.63
533.215	278.52
533.644	248.1
534.074	362.78
534.503	362.78
534.932	318.31
535.361	255.12
535.79	304.27
536.218	339.38
536.647	297.25
537.076	320.65
537.505	290.23
537.933	313.63
538.362	308.95
538.79	264.48
539.219	351.08
539.647	386.19
540.076	318.31
540.504	269.16
540.932	374.49
541.36	337.04
541.788	285.55
542.217	301.93
542.645	292.57
543.073	344.06
543.5	306.61
543.928	313.63
544.356	327.67
544.784	280.86
545.211	381.51
545.639	362.78
546.067	299.59
546.494	301.93
546.922	315.97
547.349	353.42
547.776	400.23
548.204	325.33
548.631	322.99
549.058	259.8
549.485	259.8
549.912	306.61
550.339	306.61
550.766	313.63
551.193	372.15
551.62	269.16
552.047	344.06
552.474	259.8
552.9	280.86
553.327	273.84
553.754	348.74
554.18	264.48
554.607	325.33
555.033	301.93
555.459	341.72
555.886	337.04
556.312	313.63
556.738	348.74
557.164	299.59
557.59	285.55
558.016	362.78
558.442	313.63
558.868	332.36
559.294	297.25
559.72	294.91
560.145	315.97
560.571	304.27
560.997	322.99
561.422	334.7
561.848	276.18
562.273	358.1
562.699	262.14
563.124	308.95
563.549	353.42
563.974	355.76
564.4	304.27
564.825	245.76
565.25	292.57
565.675	330.02
566.1	273.84
566.525	257.46
566.95	294.91
567.374	252.78
567.799	327.67
568.224	257.46
568.648	266.82
569.073	313.63
569.497	344.06
569.922	381.51
570.346	294.91
570.771	285.55
571.195	276.18
571.619	255.12
572.043	311.29
572.467	290.23
572.891	337.04
573.315	332.36
573.739	346.4
574.163	299.59
574.587	334.7
575.011	330.02
575.435	322.99
575.858	292.57
576.282	339.38
576.705	325.33
577.129	337.04
577.552	238.73
577.976	346.4
578.399	271.5
578.822	334.7
579.245	334.7
579.669	266.82
580.092	390.87
580.515	334.7
580.938	301.93
581.361	320.65
581.784	346.4
582.206	269.16
582.629	301.93
583.052	379.17
583.474	304.27
583.897	353.42
584.32	287.89
584.742	327.67
585.165	308.95
585.587	304.27
586.009	325.33
586.431	287.89
586.854	320.65
587.276	283.2
587.698	397.89
588.12	306.61
588.542	348.74
588.964	290.23
589.386	322.99
589.807	322.99
590.229	255.12
590.651	318.31
591.073	330.02
591.494	327.67
591.916	285.55
592.337	346.4
592.759	372.15
593.18	318.31
593.601	344.06
594.022	355.76
594.444	376.83
594.865	315.97
595.286	339.38
595.707	311.29
596.128	292.57
596.549	346.4
596.97	334.7
597.39	346.4
597.811	257.46
598.232	402.57
598.652	315.97
599.073	292.57
599.494	297.25
599.914	243.42
600.334	264.48
600.755	325.33
601.175	355.76
601.595	269.16
602.015	311.29
602.436	290.23
602.856	433
603.276	367.46
603.696	306.61
604.115	248.1
604.535	344.06
604.955	379.17
605.375	318.31
605.794	259.8
606.214	271.5
606.634	334.7
607.053	271.5
607.473	348.74
607.892	311.29
608.311	311.29
608.731	367.46
609.15	273.84
609.569	332.36
609.988	322.99
610.407	351.08
610.826	346.4
611.245	290.23
611.664	294.91
612.083	299.59
612.501	257.46
612.92	320.65
613.339	311.29
613.757	393.21
614.176	362.78
614.594	290.23
615.013	313.63
615.431	355.76
615.85	292.57
616.268	255.12
616.686	334.7
617.104	327.67
617.522	334.7
617.94	285.55
618.358	285.55
618.776	283.2
619.194	301.93
619.612	320.65
620.03	318.31
620.447	290.23
620.865	332.36
621.282	322.99
621.7	337.04
622.117	301.93
622.535	325.33
622.952	355.76
623.369	318.31
623.787	315.97
624.204	327.67
624.621	339.38
625.038	315.97
625.455	320.65
625.872	311.29
626.289	390.87
626.706	262.14
627.123	344.06
627.539	299.59
627.956	299.59
628.373	283.2
628.789	292.57
629.206	297.25
629.622	334.7
630.038	264.48
630.455	365.12
630.871	294.91
631.287	386.19
631.703	344.06
632.12	304.27
632.536	325.33
632.952	294.91
633.368	304.27
633.783	381.51
634.199	369.8
634.615	315.97
635.031	341.72
635.446	332.36
635.862	306.61
636.277	374.49
636.693	245.76
637.108	257.46
637.524	262.14
637.939	362.78
638.354	311.29
638.77	271.5
639.185	369.8
639.6	330.02
640.015	325.33
640.43	285.55
640.845	376.83
641.259	407.25
641.674	355.76
642.089	315.97
642.504	304.27
642.918	276.18
643.333	294.91
643.747	325.33
644.162	278.52
644.576	294.91
644.991	332.36
645.405	215.33
645.819	367.46
646.233	297.25
646.647	285.55
647.061	374.49
647.475	301.93
647.889	341.72
648.303	362.78
648.717	285.55
649.131	348.74
649.545	294.91
649.958	276.18
650.372	297.25
650.785	271.5
651.199	355.76
651.612	313.63
652.026	280.86
652.439	344.06
652.852	269.16
653.266	325.33
653.679	257.46
654.092	353.42
654.505	292.57
654.918	273.84
655.331	353.42
655.744	355.76
656.156	269.16
656.569	290.23
656.982	313.63
657.394	311.29
657.807	339.38
658.22	330.02
658.632	362.78
659.044	238.73
659.457	262.14
659.869	327.67
660.281	308.95
660.693	315.97
661.106	276.18
661.518	292.57
661.93	334.7
662.342	255.12
662.754	306.61
663.165	341.72
663.577	346.4
663.989	320.65
664.401	322.99
664.812	297.25
665.224	290.23
665.635	311.29
666.047	299.59
666.458	280.86
666.869	353.42
667.281	376.83
667.692	318.31
668.103	320.65
668.514	344.06
668.925	311.29
669.336	262.14
669.747	292.57
670.158	299.59
670.569	259.8
670.979	313.63
671.39	301.93
671.801	290.23
672.211	344.06
672.622	278.52
673.032	355.76
673.443	351.08
673.853	292.57
674.263	212.99
674.674	339.38
675.084	301.93
675.494	360.44
675.904	337.04
676.314	250.44
676.724	341.72
677.134	271.5
677.544	355.76
677.953	334.7
678.363	306.61
678.773	365.12
679.182	381.51
679.592	264.48
680.001	255.12
680.411	306.61
680.82	283.2
681.23	297.25
681.639	271.5
682.048	341.72
682.457	344.06
682.866	327.67
683.275	311.29
683.684	311.29
684.093	248.1
684.502	278.52
684.911	390.87
685.32	327.67
685.728	341.72
686.137	313.63
686.546	301.93
686.954	278.52
687.363	292.57
687.771	285.55
688.179	360.44
688.588	374.49
688.996	297.25
689.404	360.44
689.812	313.63
690.22	290.23
690.628	395.55
691.036	292.57
691.444	294.91
691.852	322.99
692.26	283.2
692.667	327.67
693.075	318.31
693.483	346.4
693.89	327.67
694.298	337.04
694.705	325.33
695.112	372.15
695.52	306.61
695.927	362.78
696.334	320.65
696.741	245.76
697.148	334.7
697.555	259.8
697.962	334.7
698.369	313.63
698.776	290.23
699.183	311.29
699.59	311.29
699.996	376.83
700.403	271.5
700.81	283.2
701.216	248.1
701.623	308.95
702.029	355.76
702.435	306.61
702.842	360.44
703.248	313.63
703.654	358.1
704.06	273.84
704.466	301.93
704.872	369.8
705.278	290.23
705.684	337.04
706.09	351.08
706.496	271.5
706.901	374.49
707.307	344.06
707.712	320.65
708.118	280.86
708.523	311.29
708.929	306.61
709.334	306.61
709.74	238.73
710.145	236.39
710.55	248.1
710.955	315.97
711.36	306.61
711.765	355.76
712.17	224.69
712.575	327.67
712.98	901.11
713.385	348.74
713.789	330.02
714.194	306.61
714.599	287.89
715.003	313.63
715.408	294.91
715.812	294.91
716.217	334.7
716.621	306.61
717.025	313.63
717.429	280.86
717.833	271.5
718.238	301.93
718.642	339.38
719.046	355.76
719.449	250.44
719.853	297.25
720.257	355.76
720.661	271.5
721.065	283.2
721.468	320.65
721.872	241.08
722.275	353.42
722.679	344.06
723.082	327.67
723.485	290.23
723.889	311.29
724.292	287.89
724.695	306.61
725.098	306.61
725.501	306.61
725.904	322.99
726.307	283.2
726.71	339.38
727.113	330.02
727.516	334.7
727.918	285.55
728.321	327.67
728.724	243.42
729.126	341.72
729.529	245.76
729.931	262.14
730.333	334.7
730.736	311.29
731.138	290.23
731.54	271.5
731.942	339.38
732.344	264.48
732.746	318.31
733.148	301.93
733.55	330.02
733.952	337.04
734.354	285.55
734.756	334.7
735.157	262.14
735.559	280.86
735.96	320.65
736.362	346.4
736.763	301.93
737.165	278.52
737.566	320.65
737.967	351.08
738.368	344.06
738.77	266.82
739.171	287.89
739.572	341.72
739.973	257.46
740.374	264.48
740.774	294.91
741.175	334.7
741.576	341.72
741.977	294.91
742.377	285.55
742.778	322.99
743.178	292.57
743.579	280.86
743.979	285.55
744.379	308.95
744.78	318.31
745.18	257.46
745.58	306.61
745.98	337.04
746.38	334.7
746.78	311.29
747.18	341.72
747.58	283.2
747.98	231.71
748.38	315.97
748.779	285.55
749.179	327.67
749.578	257.46
749.978	297.25
750.377	283.2
750.777	369.8
751.176	259.8
751.575	313.63
751.975	358.1
752.374	327.67
752.773	304.27
753.172	334.7
753.571	351.08
753.97	285.55
754.369	376.83
754.768	313.63
755.166	325.33
755.565	196.61
755.964	327.67
756.362	308.95
756.761	271.5
757.159	344.06
757.558	348.74
757.956	358.1
758.354	362.78
758.753	269.16
759.151	372.15
759.549	294.91
759.947	285.55
760.345	273.84
760.743	339.38
761.141	283.2
761.539	304.27
761.936	308.95
762.334	299.59
762.732	304.27
763.129	365.12
763.527	341.72
763.924	344.06
764.322	362.78
764.719	355.76
765.117	311.29
765.514	332.36
765.911	311.29
766.308	325.33
766.705	306.61
767.102	322.99
767.499	308.95
767.896	280.86
768.293	297.25
768.69	315.97
769.086	327.67
769.483	320.65
769.88	320.65
770.276	255.12
770.673	344.06
771.069	297.25
771.466	322.99
771.862	285.55
772.258	280.86
772.654	306.61
773.05	320.65
773.447	337.04
773.843	271.5
774.239	315.97
774.634	259.8
775.03	308.95
775.426	353.42
775.822	301.93
776.218	273.84
776.613	320.65
777.009	306.61
777.404	273.84
777.8	294.91
778.195	308.95
778.59	308.95
778.986	325.33
779.381	318.31
779.776	346.4
780.171	292.57
780.566	344.06
780.961	301.93
781.356	278.52
781.751	348.74
782.146	257.46
782.54	339.38
782.935	308.95
783.33	217.67
783.724	238.73
784.119	313.63
784.513	252.78
784.908	306.61
785.302	280.86
785.696	337.04
786.09	276.18
786.485	311.29
786.879	320.65
787.273	334.7
787.667	269.16
788.061	304.27
788.454	285.55
788.848	374.49
789.242	358.1
789.636	287.89
790.029	308.95
790.423	308.95
790.816	311.29
791.21	308.95
791.603	353.42
791.997	330.02
792.39	283.2
792.783	234.05
793.176	269.16
793.569	297.25
793.962	280.86
794.355	322.99
794.748	315.97
795.141	297.25
795.534	250.44
795.927	297.25
796.319	280.86
796.712	330.02
797.105	390.87
797.497	320.65
797.89	348.74
798.282	306.61
798.674	341.72
799.067	334.7
799.459	280.86
799.851	313.63
800.243	292.57
800.635	285.55
801.027	250.44
801.419	358.1
801.811	299.59
802.203	290.23
802.594	313.63
802.986	231.71
803.378	285.55
803.769	320.65
804.161	231.71
804.552	229.37
804.944	311.29
805.335	346.4
805.726	304.27
806.118	381.51
806.509	313.63
806.9	294.91
807.291	330.02
807.682	337.04
808.073	292.57
808.464	266.82
808.855	290.23
809.245	337.04
809.636	306.61
810.027	276.18
810.417	308.95
810.808	245.76
811.198	339.38
811.589	320.65
811.979	308.95
812.369	320.65
812.759	276.18
813.15	332.36
813.54	304.27
813.93	301.93
814.32	341.72
814.71	327.67
815.1	280.86
815.489	313.63
815.879	299.59
816.269	280.86
816.658	311.29
817.048	292.57
817.438	304.27
817.827	259.8
818.216	315.97
818.606	308.95
818.995	294.91
819.384	308.95
819.773	292.57
820.163	259.8
820.552	297.25
820.941	369.8
821.33	339.38
821.718	337.04
822.107	292.57
822.496	245.76
822.885	304.27
823.273	299.59
823.662	325.33
824.05	341.72
824.439	238.73
824.827	332.36
825.216	264.48
825.604	353.42
825.992	280.86
826.38	327.67
826.768	290.23
827.156	318.31
827.544	287.89
827.932	348.74
828.32	353.42
828.708	334.7
829.096	367.46
829.483	330.02
829.871	337.04
830.259	330.02
830.646	311.29
831.034	313.63
831.421	374.49
831.808	315.97
832.196	318.31
832.583	248.1
832.97	337.04
833.357	278.52
833.744	301.93
834.131	325.33
834.518	243.42
834.905	353.42
835.292	283.2
835.678	276.18
836.065	283.2
836.452	278.52
836.838	330.02
837.225	294.91
837.611	322.99
837.998	308.95
838.384	301.93
838.77	332.36
839.157	276.18
839.543	308.95
839.929	325.33
840.315	271.5
840.701	374.49
841.087	346.4
841.473	311.29
841.858	283.2
842.244	292.57
842.63	320.65
843.015	320.65
843.401	627.26
843.787	271.5
844.172	271.5
844.557	290.23
844.943	252.78
845.328	339.38
845.713	330.02
846.098	362.78
846.483	315.97
846.868	283.2
847.253	332.36
847.638	318.31
848.023	315.97
848.408	269.16
848.793	327.67
849.177	322.99
849.562	320.65
849.947	334.7
850.331	315.97
850.715	362.78
851.1	276.18
851.484	351.08
851.868	306.61
852.253	287.89
852.637	306.61
853.021	313.63
853.405	407.25
853.789	344.06
854.173	278.52
854.557	301.93
854.94	346.4
855.324	285.55
855.708	353.42
856.091	311.29
856.475	252.78
856.858	334.7
857.242	341.72
857.625	287.89
858.009	290.23
858.392	330.02
858.775	269.16
859.158	393.21
859.541	334.7
859.924	287.89
860.307	304.27
860.69	306.61
861.073	287.89
861.456	362.78
861.838	334.7
862.221	322.99
862.604	325.33
862.986	339.38
863.369	330.02
863.751	269.16
864.133	243.42
864.516	325.33
864.898	262.14
865.28	294.91
865.662	330.02
866.044	320.65
866.426	311.29
866.808	348.74
867.19	322.99
867.572	248.1
867.954	346.4
868.336	248.1
868.717	262.14
869.099	341.72
869.48	341.72
869.862	344.06
870.243	369.8
870.625	325.33
871.006	304.27
871.387	308.95
871.768	320.65
872.149	332.36
872.53	297.25
872.911	271.5
873.292	367.46
873.673	318.31
874.054	299.59
874.435	353.42
874.815	348.74
875.196	360.44
875.577	301.93
875.957	386.19
876.338	269.16
876.718	379.17
877.098	308.95
877.479	290.23
877.859	285.55
878.239	273.84
878.619	304.27
878.999	287.89
879.379	278.52
879.759	299.59
880.139	365.12
880.519	341.72
880.898	358.1
881.278	278.52
881.658	311.29
882.037	311.29
882.417	294.91
882.796	262.14
883.176	334.7
883.555	346.4
883.934	252.78
884.313	276.18
884.693	315.97
885.072	283.2
885.451	306.61
885.83	330.02
886.209	285.55
886.587	362.78
886.966	299.59
887.345	269.16
887.724	327.67
888.102	308.95
888.481	292.57
888.859	306.61
889.238	278.52
889.616	273.84
889.994	283.2
890.373	313.63
890.751	297.25
891.129	278.52
891.507	271.5
891.885	327.67
892.263	351.08
892.641	344.06
893.019	376.83
893.396	259.8
893.774	278.52
894.152	308.95
894.529	292.57
894.907	379.17
895.284	278.52
895.662	315.97
896.039	376.83
896.416	294.91
896.794	280.86
897.171	301.93
897.548	301.93
897.925	313.63
898.302	271.5
898.679	269.16
899.056	327.67
899.433	355.76
899.809	327.67
900.186	273.84
900.563	372.15
900.939	320.65
901.316	306.61
901.692	259.8
902.069	285.55
902.445	362.78
902.821	280.86
903.197	344.06
903.574	339.38
903.95	271.5
904.326	283.2
904.702	325.33
905.078	311.29
905.454	388.53
905.829	292.57
906.205	271.5
906.581	334.7
906.956	299.59
907.332	252.78
907.707	322.99
908.083	376.83
908.458	344.06
908.833	245.76
909.209	362.78
909.584	365.12
909.959	322.99
910.334	273.84
910.709	341.72
911.084	339.38
911.459	306.61
911.834	299.59
912.209	304.27
912.583	308.95
912.958	308.95
913.333	381.51
913.707	273.84
914.082	318.31
914.456	306.61
914.83	278.52
915.205	269.16
915.579	257.46
915.953	344.06
916.327	315.97
916.701	330.02
917.075	311.29
917.449	346.4
917.823	292.57
918.197	255.12
918.571	290.23
918.944	299.59
919.318	283.2
919.692	318.31
920.065	337.04
920.438	283.2
920.812	339.38
921.185	285.55
921.558	269.16
921.932	315.97
922.305	332.36
922.678	276.18
923.051	290.23
923.424	330.02
923.797	372.15
924.17	304.27
924.542	332.36
924.915	292.57
925.288	299.59
925.661	255.12
926.033	304.27
926.406	332.36
926.778	351.08
927.15	287.89
927.523	304.27
927.895	332.36
928.267	229.37
928.639	294.91
929.011	259.8
929.383	262.14
929.755	365.12
930.127	327.67
930.499	294.91
930.871	353.42
931.242	301.93
931.614	283.2
931.986	306.61
932.357	252.78
932.729	264.48
933.1	346.4
933.471	299.59
933.843	320.65
934.214	348.74
934.585	383.85
934.956	339.38
935.327	297.25
935.698	341.72
936.069	322.99
936.44	287.89
936.811	266.82
937.182	334.7
937.552	308.95
937.923	327.67
938.293	301.93
938.664	318.31
939.034	339.38
939.405	344.06
939.775	311.29
940.145	369.8
940.516	297.25
940.886	304.27
941.256	330.02
941.626	304.27
941.996	351.08
942.366	306.61
942.735	369.8
943.105	369.8
943.475	337.04
943.845	290.23
944.214	320.65
944.584	341.72
944.953	313.63
945.323	297.25
945.692	339.38
946.061	290.23
946.43	308.95
946.8	294.91
947.169	325.33
947.538	318.31
947.907	297.25
948.276	311.29
948.645	304.27
949.013	311.29
949.382	292.57
949.751	222.35
950.119	351.08
950.488	252.78
950.857	332.36
951.225	266.82
951.593	423.64
951.962	262.14
952.33	358.1
952.698	318.31
953.066	299.59
953.434	327.67
953.802	339.38
954.17	308.95
954.538	255.12
954.906	339.38
955.274	339.38
955.642	257.46
956.009	287.89
956.377	280.86
956.744	346.4
957.112	318.31
957.479	294.91
957.847	287.89
958.214	330.02
958.581	297.25
958.948	334.7
959.315	341.72
959.683	344.06
960.05	290.23
960.416	320.65
960.783	278.52
961.15	266.82
961.517	259.8
961.884	306.61
962.25	313.63
962.617	315.97
962.983	313.63
963.35	269.16
963.716	330.02
964.082	215.33
964.449	344.06
964.815	280.86
965.181	320.65
965.547	290.23
965.913	367.46
966.279	353.42
966.645	269.16
967.011	238.73
967.377	358.1
967.742	351.08
968.108	283.2
968.474	255.12
968.839	257.46
969.205	262.14
969.57	299.59
969.935	276.18
970.301	257.46
970.666	332.36
971.031	259.8
971.396	306.61
971.761	290.23
972.126	308.95
972.491	266.82
972.856	315.97
973.221	259.8
973.586	367.46
973.95	344.06
974.315	308.95
974.679	330.02
975.044	348.74
975.408	318.31
975.773	278.52
976.137	217.67
976.501	341.72
976.866	322.99
977.23	287.89
977.594	278.52
977.958	313.63
978.322	280.86
978.686	290.23
979.049	353.42
979.413	241.08
979.777	252.78
980.141	348.74
980.504	353.42
980.868	301.93
981.231	283.2
981.595	320.65
981.958	351.08
982.321	348.74
982.684	304.27
983.048	318.31
983.411	332.36
983.774	308.95
984.137	332.36
984.5	252.78
984.862	315.97
985.225	280.86
985.588	325.33
985.951	294.91
986.313	292.57
986.676	358.1
987.038	315.97
987.401	320.65
987.763	276.18
988.125	290.23
988.488	276.18
988.85	269.16
989.212	322.99
989.574	355.76
989.936	301.93
990.298	332.36
990.66	367.46
991.022	280.86
991.383	320.65
991.745	327.67
992.107	346.4
992.468	280.86
992.83	292.57
993.191	365.12
993.553	367.46
993.914	334.7
994.275	325.33
994.637	262.14
994.998	325.33
995.359	322.99
995.72	320.65
996.081	320.65
996.442	339.38
996.803	344.06
997.163	271.5
997.524	271.5
997.885	280.86
998.245	313.63
998.606	353.42
998.966	278.52
999.327	283.2
999.687	344.06
1000.047	285.55
1000.408	334.7
1000.768	269.16
1001.128	351.08
1001.488	259.8
1001.848	308.95
1002.208	386.19
1002.568	278.52
1002.927	304.27
1003.287	278.52
1003.647	353.42
1004.007	280.86
1004.366	264.48
1004.726	327.67
1005.085	297.25
1005.444	344.06
1005.804	292.57
1006.163	290.23
1006.522	320.65
1006.881	301.93
1007.24	339.38
1007.599	285.55
1007.958	344.06
1008.317	308.95
1008.676	304.27
1009.035	304.27
1009.393	341.72
1009.752	292.57
1010.111	292.57
1010.469	304.27
1010.828	252.78
1011.186	252.78
1011.544	257.46
1011.903	299.59
1012.261	327.67
1012.619	320.65
1012.977	311.29
1013.335	393.21
1013.693	297.25
1014.051	245.76
1014.409	365.12
1014.767	304.27
1015.124	325.33
1015.482	320.65
1015.84	290.23
1016.197	231.71
1016.555	360.44
1016.912	297.25
1017.269	262.14
1017.627	311.29
1017.984	301.93
1018.341	285.55
1018.698	278.52
1019.055	250.44
1019.412	351.08
1019.769	313.63
1020.126	266.82
1020.483	301.93
1020.84	362.78
1021.196	248.1
1021.553	327.67
1021.909	304.27
1022.266	257.46
1022.622	250.44
1022.979	327.67
1023.335	306.61
1023.691	308.95
1024.047	332.36
1024.404	367.46
1024.76	236.39
1025.116	330.02
1025.472	283.2
1025.827	308.95
1026.183	327.67
1026.539	271.5
1026.895	308.95
1027.25	238.73
1027.606	306.61
1027.961	315.97
1028.317	320.65
1028.672	241.08
1029.028	294.91
1029.383	297.25
1029.738	344.06
1030.093	276.18
1030.448	292.57
1030.803	337.04
1031.158	278.52
1031.513	273.84
1031.868	308.95
1032.223	327.67
1032.577	344.06
1032.932	301.93
1033.287	351.08
1033.641	334.7
1033.996	278.52
1034.35	325.33
1034.704	322.99
1035.059	327.67
1035.413	330.02
1035.767	330.02
1036.121	330.02
