Data from Al_FLMS009871__739__15-12-41-629.txt Node

Date: Fri Mar 08 15:12:41 CST 2024
User: pe5414po
Spectrometer: FLMS00987
Trigger mode: 0
Integration Time (sec): 1.000000E-1
Scans to average: 1
Electric dark correction enabled: true
Nonlinearity correction enabled: false
Boxcar width: 0
XAxis mode: Wavelengths
Number of Pixels in Spectrum: 2048
>>>>>Begin Spectral Data<<<<<
188.938	0.29
189.409	0.29
189.879	0.29
190.349	-151.84
190.819	-105.03
191.29	-135.46
191.76	-65.24
192.23	-53.54
192.7	-60.56
193.17	-60.56
193.64	-34.82
194.109	-32.47
194.579	-53.54
195.049	12
195.519	44.76
195.988	58.81
196.458	-53.54
196.927	82.21
197.397	105.62
197.866	56.47
198.336	189.88
198.805	194.56
199.274	173.49
199.744	143.07
200.213	224.98
200.682	138.38
201.151	234.35
201.62	241.37
202.089	175.83
202.558	239.03
203.027	262.43
203.495	276.48
203.964	243.71
204.433	281.16
204.902	325.63
205.37	234.35
205.839	246.05
206.307	318.61
206.776	271.79
207.244	271.79
207.712	290.52
208.181	302.22
208.649	276.48
209.117	257.75
209.585	257.75
210.053	281.16
210.521	278.82
210.989	292.86
211.457	246.05
211.925	269.45
212.393	262.43
212.861	323.29
213.328	222.64
213.796	246.05
214.264	267.11
214.731	159.45
215.199	292.86
215.666	299.88
216.133	292.86
216.601	250.73
217.068	243.71
217.535	283.5
218.003	224.98
218.47	217.96
218.937	295.2
219.404	220.3
219.871	241.37
220.338	239.03
220.805	180.51
221.271	203.92
221.738	246.05
222.205	299.88
222.671	292.86
223.138	297.54
223.605	224.98
224.071	274.14
224.538	253.07
225.004	241.37
225.47	309.24
225.937	285.84
226.403	283.5
226.869	248.39
227.335	206.26
227.801	290.52
228.267	278.82
228.733	274.14
229.199	288.18
229.665	323.29
230.131	285.84
230.597	281.16
231.062	278.82
231.528	262.43
231.994	260.09
232.459	217.96
232.925	267.11
233.39	257.75
233.856	309.24
234.321	281.16
234.786	344.35
235.252	241.37
235.717	292.86
236.182	248.39
236.647	248.39
237.112	248.39
237.577	257.75
238.042	330.31
238.507	311.58
238.972	302.22
239.436	250.73
239.901	283.5
240.366	260.09
240.83	232.01
241.295	227.32
241.76	304.56
242.224	250.73
242.688	248.39
243.153	360.74
243.617	274.14
244.081	255.41
244.545	304.56
245.01	199.24
245.474	250.73
245.938	292.86
246.402	274.14
246.866	302.22
247.33	278.82
247.793	271.79
248.257	316.26
248.721	316.26
249.185	222.64
249.648	285.84
250.112	253.07
250.575	267.11
251.039	290.52
251.502	224.98
251.965	246.05
252.429	299.88
252.892	288.18
253.355	281.16
253.818	304.56
254.281	297.54
254.744	215.62
255.207	290.52
255.67	267.11
256.133	269.45
256.596	271.79
257.059	285.84
257.522	257.75
257.984	189.88
258.447	210.94
258.909	262.43
259.372	260.09
259.834	283.5
260.297	278.82
260.759	283.5
261.221	267.11
261.684	243.71
262.146	306.9
262.608	206.26
263.07	288.18
263.532	292.86
263.994	313.92
264.456	290.52
264.918	309.24
265.38	182.85
265.842	236.69
266.303	250.73
266.765	262.43
267.227	365.42
267.688	292.86
268.15	302.22
268.611	234.35
269.072	342.01
269.534	248.39
269.995	278.82
270.456	353.71
270.918	285.84
271.379	288.18
271.84	297.54
272.301	295.2
272.762	276.48
273.223	306.9
273.684	360.74
274.144	267.11
274.605	222.64
275.066	311.58
275.527	309.24
275.987	320.95
276.448	250.73
276.908	276.48
277.369	292.86
277.829	285.84
278.289	292.86
278.75	365.42
279.21	288.18
279.67	344.35
280.13	269.45
280.59	283.5
281.05	309.24
281.51	299.88
281.97	281.16
282.43	290.52
282.89	274.14
283.35	253.07
283.809	234.35
284.269	281.16
284.729	327.97
285.188	269.45
285.648	257.75
286.107	267.11
286.567	295.2
287.026	295.2
287.485	290.52
287.944	302.22
288.404	325.63
288.863	283.5
289.322	236.69
289.781	285.84
290.24	297.54
290.699	285.84
291.158	269.45
291.616	344.35
292.075	274.14
292.534	318.61
292.992	302.22
293.451	299.88
293.91	262.43
294.368	358.39
294.827	327.97
295.285	297.54
295.743	295.2
296.202	276.48
296.66	349.03
297.118	243.71
297.576	229.67
298.034	269.45
298.492	283.5
298.95	264.77
299.408	309.24
299.866	227.32
300.324	257.75
300.781	334.99
301.239	283.5
301.697	215.62
302.154	260.09
302.612	297.54
303.069	295.2
303.527	283.5
303.984	299.88
304.441	327.97
304.899	206.26
305.356	381.8
305.813	269.45
306.27	276.48
306.727	285.84
307.184	304.56
307.641	346.69
308.098	313.92
308.555	311.58
309.012	306.9
309.468	297.54
309.925	290.52
310.382	363.08
310.838	222.64
311.295	299.88
311.751	332.65
312.208	318.61
312.664	370.1
313.12	295.2
313.577	276.48
314.033	278.82
314.489	323.29
314.945	358.39
315.401	363.08
315.857	297.54
316.313	295.2
316.769	320.95
317.225	255.41
317.681	285.84
318.136	281.16
318.592	278.82
319.048	232.01
319.503	302.22
319.959	339.67
320.414	318.61
320.869	253.07
321.325	327.97
321.78	283.5
322.235	344.35
322.691	295.2
323.146	356.05
323.601	276.48
324.056	274.14
324.511	346.69
324.966	269.45
325.421	290.52
325.875	292.86
326.33	288.18
326.785	267.11
327.24	313.92
327.694	299.88
328.149	292.86
328.603	332.65
329.058	255.41
329.512	330.31
329.966	267.11
330.421	278.82
330.875	320.95
331.329	292.86
331.783	302.22
332.237	269.45
332.691	304.56
333.145	330.31
333.599	292.86
334.053	316.26
334.507	290.52
334.96	330.31
335.414	255.41
335.868	292.86
336.321	327.97
336.775	295.2
337.228	278.82
337.682	278.82
338.135	325.63
338.588	327.97
339.042	320.95
339.495	327.97
339.948	346.69
340.401	332.65
340.854	290.52
341.307	325.63
341.76	285.84
342.213	239.03
342.666	288.18
343.119	337.33
343.571	332.65
344.024	274.14
344.477	302.22
344.929	290.52
345.382	332.65
345.834	283.5
346.287	339.67
346.739	316.26
347.191	285.84
347.644	325.63
348.096	330.31
348.548	241.37
349	248.39
349.452	278.82
349.904	327.97
350.356	306.9
350.808	253.07
351.26	288.18
351.711	309.24
352.163	342.01
352.615	281.16
353.066	313.92
353.518	337.33
353.969	313.92
354.421	311.58
354.872	248.39
355.324	203.92
355.775	243.71
356.226	311.58
356.677	311.58
357.128	288.18
357.579	313.92
358.03	342.01
358.481	320.95
358.932	349.03
359.383	323.29
359.834	353.71
360.285	302.22
360.735	316.26
361.186	278.82
361.637	372.44
362.087	370.1
362.538	325.63
362.988	313.92
363.438	276.48
363.889	323.29
364.339	297.54
364.789	285.84
365.239	302.22
365.689	377.12
366.139	316.26
366.589	267.11
367.039	232.01
367.489	306.9
367.939	334.99
368.389	360.74
368.839	325.63
369.288	384.14
369.738	276.48
370.187	327.97
370.637	274.14
371.086	290.52
371.536	323.29
371.985	302.22
372.434	243.71
372.884	292.86
373.333	271.79
373.782	339.67
374.231	264.77
374.68	318.61
375.129	316.26
375.578	267.11
376.027	302.22
376.475	260.09
376.924	342.01
377.373	271.79
377.822	358.39
378.27	264.77
378.719	299.88
379.167	250.73
379.616	318.61
380.064	334.99
380.512	302.22
380.961	313.92
381.409	313.92
381.857	309.24
382.305	327.97
382.753	288.18
383.201	311.58
383.649	320.95
384.097	253.07
384.545	299.88
384.992	239.03
385.44	260.09
385.888	255.41
386.335	309.24
386.783	271.79
387.231	236.69
387.678	285.84
388.125	334.99
388.573	327.97
389.02	351.37
389.467	339.67
389.914	269.45
390.362	370.1
390.809	276.48
391.256	274.14
391.703	302.22
392.15	285.84
392.596	320.95
393.043	264.77
393.49	292.86
393.937	306.9
394.383	311.58
394.83	278.82
395.276	334.99
395.723	274.14
396.169	342.01
396.616	306.9
397.062	281.16
397.508	295.2
397.954	316.26
398.401	283.5
398.847	318.61
399.293	295.2
399.739	325.63
400.185	309.24
400.631	288.18
401.076	313.92
401.522	288.18
401.968	281.16
402.414	309.24
402.859	309.24
403.305	297.54
403.75	332.65
404.196	290.52
404.641	351.37
405.086	299.88
405.532	299.88
405.977	330.31
406.422	243.71
406.867	386.48
407.312	346.69
407.757	281.16
408.202	217.96
408.647	304.56
409.092	349.03
409.537	323.29
409.982	365.42
410.426	302.22
410.871	349.03
411.316	325.63
411.76	306.9
412.205	304.56
412.649	260.09
413.093	269.45
413.538	267.11
413.982	281.16
414.426	302.22
414.87	267.11
415.314	346.69
415.758	334.99
416.202	318.61
416.646	339.67
417.09	292.86
417.534	290.52
417.978	271.79
418.421	313.92
418.865	283.5
419.309	306.9
419.752	332.65
420.196	281.16
420.639	363.08
421.083	334.99
421.526	313.92
421.969	316.26
422.412	290.52
422.856	327.97
423.299	309.24
423.742	353.71
424.185	342.01
424.628	262.43
425.071	337.33
425.513	332.65
425.956	285.84
426.399	311.58
426.842	342.01
427.284	281.16
427.727	349.03
428.169	316.26
428.612	292.86
429.054	316.26
429.497	290.52
429.939	255.41
430.381	309.24
430.823	255.41
431.265	304.56
431.707	281.16
432.149	344.35
432.591	295.2
433.033	278.82
433.475	297.54
433.917	351.37
434.359	290.52
434.8	306.9
435.242	262.43
435.684	267.11
436.125	358.39
436.567	318.61
437.008	323.29
437.449	318.61
437.891	320.95
438.332	274.14
438.773	229.67
439.214	288.18
439.656	318.61
440.097	288.18
440.538	292.86
440.978	269.45
441.419	281.16
441.86	285.84
442.301	299.88
442.742	353.71
443.182	346.69
443.623	309.24
444.063	250.73
444.504	281.16
444.944	323.29
445.385	304.56
445.825	285.84
446.265	290.52
446.706	318.61
447.146	311.58
447.586	302.22
448.026	334.99
448.466	313.92
448.906	304.56
449.346	311.58
449.786	339.67
450.225	323.29
450.665	363.08
451.105	316.26
451.544	250.73
451.984	363.08
452.424	381.8
452.863	313.92
453.302	262.43
453.742	337.33
454.181	327.97
454.62	304.56
455.059	264.77
455.499	276.48
455.938	304.56
456.377	267.11
456.816	250.73
457.254	264.77
457.693	344.35
458.132	297.54
458.571	278.82
459.01	267.11
459.448	353.71
459.887	299.88
460.325	304.56
460.764	285.84
461.202	320.95
461.641	299.88
462.079	299.88
462.517	302.22
462.955	400.52
463.393	278.82
463.832	313.92
464.27	285.84
464.708	330.31
465.145	342.01
465.583	309.24
466.021	241.37
466.459	283.5
466.897	297.54
467.334	358.39
467.772	327.97
468.209	313.92
468.647	320.95
469.084	384.14
469.522	363.08
469.959	271.79
470.396	264.77
470.833	330.31
471.271	285.84
471.708	332.65
472.145	309.24
472.582	316.26
473.019	269.45
473.456	297.54
473.892	283.5
474.329	295.2
474.766	290.52
475.202	351.37
475.639	313.92
476.076	363.08
476.512	297.54
476.949	351.37
477.385	283.5
477.821	227.32
478.258	327.97
478.694	253.07
479.13	283.5
479.566	358.39
480.002	292.86
480.438	342.01
480.874	285.84
481.31	334.99
481.746	255.41
482.181	311.58
482.617	302.22
483.053	325.63
483.488	276.48
483.924	274.14
484.36	306.9
484.795	325.63
485.23	337.33
485.666	353.71
486.101	264.77
486.536	318.61
486.971	257.75
487.407	295.2
487.842	342.01
488.277	311.58
488.712	299.88
489.146	274.14
489.581	349.03
490.016	288.18
490.451	344.35
490.885	229.67
491.32	353.71
491.755	306.9
492.189	304.56
492.624	323.29
493.058	316.26
493.492	290.52
493.927	271.79
494.361	367.76
494.795	283.5
495.229	327.97
495.663	370.1
496.097	318.61
496.531	292.86
496.965	353.71
497.399	304.56
497.833	344.35
498.266	257.75
498.7	260.09
499.134	309.24
499.567	316.26
500.001	313.92
500.434	260.09
500.868	299.88
501.301	290.52
501.734	309.24
502.168	320.95
502.601	271.79
503.034	304.56
503.467	313.92
503.9	295.2
504.333	330.31
504.766	318.61
505.199	372.44
505.632	264.77
506.064	302.22
506.497	255.41
506.93	304.56
507.362	295.2
507.795	255.41
508.227	302.22
508.66	288.18
509.092	339.67
509.524	330.31
509.956	297.54
510.389	241.37
510.821	323.29
511.253	297.54
511.685	330.31
512.117	281.16
512.549	304.56
512.981	297.54
513.412	351.37
513.844	334.99
514.276	323.29
514.707	320.95
515.139	281.16
515.571	339.67
516.002	304.56
516.433	288.18
516.865	381.8
517.296	281.16
517.727	316.26
518.159	302.22
518.59	215.62
519.021	262.43
519.452	346.69
519.883	248.39
520.314	297.54
520.744	327.97
521.175	276.48
521.606	313.92
522.037	274.14
522.467	304.56
522.898	304.56
523.328	255.41
523.759	405.21
524.189	325.63
524.62	353.71
525.05	297.54
525.48	316.26
525.91	344.35
526.341	332.65
526.771	276.48
527.201	356.05
527.631	295.2
528.061	337.33
528.49	269.45
528.92	320.95
529.35	304.56
529.78	306.9
530.209	327.97
530.639	281.16
531.068	302.22
531.498	264.77
531.927	290.52
532.357	299.88
532.786	271.79
533.215	334.99
533.644	292.86
534.074	295.2
534.503	304.56
534.932	318.61
535.361	243.71
535.79	405.21
536.218	386.48
536.647	344.35
537.076	281.16
537.505	313.92
537.933	334.99
538.362	353.71
538.79	407.55
539.219	262.43
539.647	311.58
540.076	342.01
540.504	332.65
540.932	311.58
541.36	346.69
541.788	320.95
542.217	311.58
542.645	222.64
543.073	320.95
543.5	323.29
543.928	311.58
544.356	339.67
544.784	351.37
545.211	334.99
545.639	311.58
546.067	316.26
546.494	358.39
546.922	306.9
547.349	337.33
547.776	306.9
548.204	309.24
548.631	278.82
549.058	313.92
549.485	281.16
549.912	342.01
550.339	253.07
550.766	313.92
551.193	334.99
551.62	318.61
552.047	353.71
552.474	299.88
552.9	297.54
553.327	360.74
553.754	309.24
554.18	356.05
554.607	276.48
555.033	290.52
555.459	302.22
555.886	285.84
556.312	370.1
556.738	269.45
557.164	313.92
557.59	241.37
558.016	288.18
558.442	292.86
558.868	318.61
559.294	386.48
559.72	304.56
560.145	313.92
560.571	339.67
560.997	318.61
561.422	292.86
561.848	344.35
562.273	372.44
562.699	292.86
563.124	299.88
563.549	269.45
563.974	374.78
564.4	262.43
564.825	330.31
565.25	346.69
565.675	323.29
566.1	304.56
566.525	346.69
566.95	255.41
567.374	318.61
567.799	306.9
568.224	306.9
568.648	323.29
569.073	278.82
569.497	257.75
569.922	271.79
570.346	304.56
570.771	363.08
571.195	257.75
571.619	325.63
572.043	402.86
572.467	278.82
572.891	281.16
573.315	358.39
573.739	271.79
574.163	276.48
574.587	365.42
575.011	285.84
575.435	306.9
575.858	290.52
576.282	334.99
576.705	304.56
577.129	269.45
577.552	267.11
577.976	332.65
578.399	309.24
578.822	292.86
579.245	351.37
579.669	274.14
580.092	330.31
580.515	295.2
580.938	367.76
581.361	344.35
581.784	292.86
582.206	363.08
582.629	311.58
583.052	316.26
583.474	276.48
583.897	320.95
584.32	313.92
584.742	274.14
585.165	356.05
585.587	292.86
586.009	292.86
586.431	306.9
586.854	320.95
587.276	271.79
587.698	241.37
588.12	278.82
588.542	346.69
588.964	283.5
589.386	299.88
589.807	318.61
590.229	337.33
590.651	304.56
591.073	288.18
591.494	332.65
591.916	304.56
592.337	332.65
592.759	311.58
593.18	281.16
593.601	349.03
594.022	353.71
594.444	358.39
594.865	334.99
595.286	318.61
595.707	391.16
596.128	318.61
596.549	330.31
596.97	309.24
597.39	323.29
597.811	281.16
598.232	323.29
598.652	288.18
599.073	337.33
599.494	339.67
599.914	285.84
600.334	297.54
600.755	295.2
601.175	299.88
601.595	302.22
602.015	334.99
602.436	313.92
602.856	456.7
603.276	248.39
603.696	330.31
604.115	304.56
604.535	306.9
604.955	426.27
605.375	344.35
605.794	302.22
606.214	297.54
606.634	351.37
607.053	320.95
607.473	304.56
607.892	349.03
608.311	318.61
608.731	278.82
609.15	330.31
609.569	288.18
609.988	250.73
610.407	360.74
610.826	360.74
611.245	377.12
611.664	285.84
612.083	295.2
612.501	330.31
612.92	288.18
613.339	274.14
613.757	292.86
614.176	363.08
614.594	246.05
615.013	360.74
615.431	358.39
615.85	302.22
616.268	290.52
616.686	311.58
617.104	297.54
617.522	349.03
617.94	330.31
618.358	253.07
618.776	260.09
619.194	318.61
619.612	297.54
620.03	302.22
620.447	313.92
620.865	271.79
621.282	337.33
621.7	281.16
622.117	255.41
622.535	391.16
622.952	318.61
623.369	309.24
623.787	384.14
624.204	325.63
624.621	304.56
625.038	337.33
625.455	360.74
625.872	318.61
626.289	267.11
626.706	292.86
627.123	243.71
627.539	250.73
627.956	342.01
628.373	330.31
628.789	288.18
629.206	313.92
629.622	342.01
630.038	316.26
630.455	236.69
630.871	304.56
631.287	433.29
631.703	325.63
632.12	253.07
632.536	330.31
632.952	325.63
633.368	269.45
633.783	313.92
634.199	337.33
634.615	236.69
635.031	370.1
635.446	313.92
635.862	297.54
636.277	299.88
636.693	292.86
637.108	288.18
637.524	339.67
637.939	318.61
638.354	327.97
638.77	344.35
639.185	253.07
639.6	306.9
640.015	262.43
640.43	257.75
640.845	323.29
641.259	313.92
641.674	337.33
642.089	346.69
642.504	288.18
642.918	316.26
643.333	278.82
643.747	351.37
644.162	318.61
644.576	313.92
644.991	267.11
645.405	332.65
645.819	334.99
646.233	337.33
646.647	292.86
647.061	330.31
647.475	278.82
647.889	398.18
648.303	337.33
648.717	325.63
649.131	316.26
649.545	388.82
649.958	264.77
650.372	304.56
650.785	295.2
651.199	342.01
651.612	302.22
652.026	316.26
652.439	288.18
652.852	302.22
653.266	297.54
653.679	302.22
654.092	327.97
654.505	313.92
654.918	358.39
655.331	313.92
655.744	316.26
656.156	342.01
656.569	306.9
656.982	269.45
657.394	330.31
657.807	346.69
658.22	330.31
658.632	360.74
659.044	313.92
659.457	283.5
659.869	318.61
660.281	288.18
660.693	278.82
661.106	255.41
661.518	330.31
661.93	318.61
662.342	299.88
662.754	313.92
663.165	302.22
663.577	320.95
663.989	299.88
664.401	210.94
664.812	264.77
665.224	288.18
665.635	292.86
666.047	346.69
666.458	344.35
666.869	260.09
667.281	313.92
667.692	325.63
668.103	342.01
668.514	271.79
668.925	229.67
669.336	246.05
669.747	313.92
670.158	255.41
670.569	295.2
670.979	278.82
671.39	208.6
671.801	269.45
672.211	339.67
672.622	311.58
673.032	267.11
673.443	260.09
673.853	309.24
674.263	269.45
674.674	306.9
675.084	292.86
675.494	309.24
675.904	210.94
676.314	276.48
676.724	318.61
677.134	255.41
677.544	295.2
677.953	302.22
678.363	260.09
678.773	332.65
679.182	316.26
679.592	260.09
680.001	320.95
680.411	281.16
680.82	339.67
681.23	304.56
681.639	337.33
682.048	311.58
682.457	285.84
682.866	395.84
683.275	339.67
683.684	253.07
684.093	339.67
684.502	325.63
684.911	358.39
685.32	288.18
685.728	309.24
686.137	297.54
686.546	281.16
686.954	349.03
687.363	248.39
687.771	253.07
688.179	323.29
688.588	346.69
688.996	306.9
689.404	306.9
689.812	304.56
690.22	269.45
690.628	365.42
691.036	290.52
691.444	290.52
691.852	339.67
692.26	309.24
692.667	295.2
693.075	356.05
693.483	323.29
693.89	274.14
694.298	295.2
694.705	260.09
695.112	285.84
695.52	316.26
695.927	320.95
696.334	274.14
696.741	318.61
697.148	278.82
697.555	295.2
697.962	306.9
698.369	320.95
698.776	323.29
699.183	299.88
699.59	297.54
699.996	323.29
700.403	297.54
700.81	255.41
701.216	281.16
701.623	313.92
702.029	320.95
702.435	360.74
702.842	297.54
703.248	248.39
703.654	255.41
704.06	278.82
704.466	349.03
704.872	295.2
705.278	288.18
705.684	316.26
706.09	295.2
706.496	306.9
706.901	316.26
707.307	295.2
707.712	309.24
708.118	381.8
708.523	313.92
708.929	356.05
709.334	316.26
709.74	351.37
710.145	295.2
710.55	320.95
710.955	224.98
711.36	257.75
711.765	283.5
712.17	278.82
712.575	241.37
712.98	945.87
713.385	344.35
713.789	353.71
714.194	318.61
714.599	379.46
715.003	253.07
715.408	365.42
715.812	243.71
716.217	327.97
716.621	334.99
717.025	327.97
717.429	262.43
717.833	327.97
718.238	290.52
718.642	346.69
719.046	285.84
719.449	351.37
719.853	304.56
720.257	262.43
720.661	281.16
721.065	241.37
721.468	311.58
721.872	274.14
722.275	262.43
722.679	271.79
723.082	309.24
723.485	302.22
723.889	288.18
724.292	374.78
724.695	323.29
725.098	281.16
725.501	232.01
725.904	356.05
726.307	290.52
726.71	278.82
727.113	337.33
727.516	318.61
727.918	332.65
728.321	342.01
728.724	304.56
729.126	257.75
729.529	313.92
729.931	349.03
730.333	386.48
730.736	320.95
731.138	297.54
731.54	330.31
731.942	367.76
732.344	236.69
732.746	269.45
733.148	299.88
733.55	250.73
733.952	353.71
734.354	316.26
734.756	267.11
735.157	318.61
735.559	281.16
735.96	309.24
736.362	356.05
736.763	311.58
737.165	267.11
737.566	304.56
737.967	318.61
738.368	262.43
738.77	306.9
739.171	372.44
739.572	344.35
739.973	267.11
740.374	365.42
740.774	299.88
741.175	332.65
741.576	295.2
741.977	255.41
742.377	295.2
742.778	337.33
743.178	344.35
743.579	283.5
743.979	316.26
744.379	232.01
744.78	313.92
745.18	346.69
745.58	274.14
745.98	370.1
746.38	304.56
746.78	236.69
747.18	220.3
747.58	330.31
747.98	316.26
748.38	297.54
748.779	320.95
749.179	297.54
749.578	232.01
749.978	309.24
750.377	313.92
750.777	311.58
751.176	290.52
751.575	285.84
751.975	342.01
752.374	316.26
752.773	297.54
753.172	299.88
753.571	334.99
753.97	278.82
754.369	295.2
754.768	309.24
755.166	332.65
755.565	327.97
755.964	346.69
756.362	250.73
756.761	313.92
757.159	339.67
757.558	346.69
757.956	281.16
758.354	309.24
758.753	311.58
759.151	302.22
759.549	267.11
759.947	327.97
760.345	281.16
760.743	363.08
761.141	334.99
761.539	349.03
761.936	295.2
762.334	262.43
762.732	327.97
763.129	342.01
763.527	260.09
763.924	274.14
764.322	276.48
764.719	356.05
765.117	330.31
765.514	257.75
765.911	264.77
766.308	325.63
766.705	332.65
767.102	320.95
767.499	311.58
767.896	292.86
768.293	304.56
768.69	274.14
769.086	227.32
769.483	330.31
769.88	288.18
770.276	292.86
770.673	349.03
771.069	278.82
771.466	349.03
771.862	262.43
772.258	288.18
772.654	358.39
773.05	271.79
773.447	316.26
773.843	309.24
774.239	346.69
774.634	283.5
775.03	304.56
775.426	365.42
775.822	318.61
776.218	304.56
776.613	278.82
777.009	325.63
777.404	290.52
777.8	309.24
778.195	334.99
778.59	276.48
778.986	290.52
779.381	318.61
779.776	262.43
780.171	290.52
780.566	292.86
780.961	243.71
781.356	299.88
781.751	262.43
782.146	299.88
782.54	302.22
782.935	337.33
783.33	285.84
783.724	313.92
784.119	337.33
784.513	339.67
784.908	281.16
785.302	269.45
785.696	288.18
786.09	267.11
786.485	297.54
786.879	243.71
787.273	276.48
787.667	299.88
788.061	306.9
788.454	285.84
788.848	290.52
789.242	302.22
789.636	290.52
790.029	281.16
790.423	349.03
790.816	271.79
791.21	292.86
791.603	281.16
791.997	285.84
792.39	316.26
792.783	318.61
793.176	325.63
793.569	295.2
793.962	288.18
794.355	313.92
794.748	295.2
795.141	337.33
795.534	306.9
795.927	309.24
796.319	381.8
796.712	288.18
797.105	290.52
797.497	281.16
797.89	313.92
798.282	267.11
798.674	337.33
799.067	309.24
799.459	318.61
799.851	292.86
800.243	330.31
800.635	304.56
801.027	304.56
801.419	318.61
801.811	311.58
802.203	292.86
802.594	325.63
802.986	302.22
803.378	337.33
803.769	306.9
804.161	302.22
804.552	360.74
804.944	325.63
805.335	337.33
805.726	365.42
806.118	334.99
806.509	292.86
806.9	276.48
807.291	356.05
807.682	304.56
808.073	276.48
808.464	264.77
808.855	377.12
809.245	295.2
809.636	278.82
810.027	330.31
810.417	353.71
810.808	306.9
811.198	306.9
811.589	337.33
811.979	349.03
812.369	356.05
812.759	327.97
813.15	285.84
813.54	215.62
813.93	292.86
814.32	332.65
814.71	318.61
815.1	320.95
815.489	276.48
815.879	288.18
816.269	325.63
816.658	243.71
817.048	339.67
817.438	316.26
817.827	327.97
818.216	342.01
818.606	346.69
818.995	208.6
819.384	281.16
819.773	323.29
820.163	297.54
820.552	332.65
820.941	316.26
821.33	281.16
821.718	306.9
822.107	299.88
822.496	358.39
822.885	309.24
823.273	299.88
823.662	309.24
824.05	309.24
824.439	297.54
824.827	360.74
825.216	285.84
825.604	285.84
825.992	318.61
826.38	262.43
826.768	344.35
827.156	334.99
827.544	302.22
827.932	295.2
828.32	313.92
828.708	276.48
829.096	304.56
829.483	292.86
829.871	288.18
830.259	311.58
830.646	260.09
831.034	283.5
831.421	278.82
831.808	374.78
832.196	180.51
832.583	309.24
832.97	306.9
833.357	248.39
833.744	285.84
834.131	264.77
834.518	304.56
834.905	332.65
835.292	311.58
835.678	278.82
836.065	320.95
836.452	320.95
836.838	302.22
837.225	278.82
837.611	356.05
837.998	260.09
838.384	302.22
838.77	334.99
839.157	248.39
839.543	276.48
839.929	295.2
840.315	344.35
840.701	318.61
841.087	306.9
841.473	250.73
841.858	297.54
842.244	295.2
842.63	313.92
843.015	262.43
843.401	590.11
843.787	290.52
844.172	358.39
844.557	297.54
844.943	234.35
845.328	342.01
845.713	313.92
846.098	330.31
846.483	267.11
846.868	257.75
847.253	334.99
847.638	311.58
848.023	334.99
848.408	330.31
848.793	358.39
849.177	370.1
849.562	283.5
849.947	327.97
850.331	297.54
850.715	339.67
851.1	283.5
851.484	260.09
851.868	304.56
852.253	313.92
852.637	358.39
853.021	288.18
853.405	327.97
853.789	297.54
854.173	283.5
854.557	311.58
854.94	271.79
855.324	356.05
855.708	276.48
856.091	288.18
856.475	320.95
856.858	285.84
857.242	309.24
857.625	367.76
858.009	327.97
858.392	311.58
858.775	349.03
859.158	327.97
859.541	349.03
859.924	299.88
860.307	344.35
860.69	363.08
861.073	257.75
861.456	339.67
861.838	285.84
862.221	295.2
862.604	323.29
862.986	339.67
863.369	278.82
863.751	311.58
864.133	316.26
864.516	372.44
864.898	264.77
865.28	262.43
865.662	278.82
866.044	299.88
866.426	276.48
866.808	302.22
867.19	374.78
867.572	290.52
867.954	374.78
868.336	283.5
868.717	288.18
869.099	257.75
869.48	248.39
869.862	323.29
870.243	320.95
870.625	253.07
871.006	250.73
871.387	278.82
871.768	311.58
872.149	278.82
872.53	323.29
872.911	262.43
873.292	327.97
873.673	297.54
874.054	281.16
874.435	292.86
874.815	304.56
875.196	360.74
875.577	299.88
875.957	285.84
876.338	367.76
876.718	283.5
877.098	297.54
877.479	239.03
877.859	297.54
878.239	236.69
878.619	325.63
878.999	323.29
879.379	358.39
879.759	276.48
880.139	386.48
880.519	253.07
880.898	255.41
881.278	320.95
881.658	297.54
882.037	302.22
882.417	318.61
882.796	302.22
883.176	330.31
883.555	332.65
883.934	320.95
884.313	309.24
884.693	316.26
885.072	274.14
885.451	330.31
885.83	297.54
886.209	304.56
886.587	267.11
886.966	264.77
887.345	377.12
887.724	327.97
888.102	283.5
888.481	325.63
888.859	339.67
889.238	353.71
889.616	271.79
889.994	288.18
890.373	309.24
890.751	246.05
891.129	304.56
891.507	327.97
891.885	295.2
892.263	262.43
892.641	292.86
893.019	302.22
893.396	281.16
893.774	264.77
894.152	290.52
894.529	260.09
894.907	241.37
895.284	276.48
895.662	288.18
896.039	295.2
896.416	393.5
896.794	342.01
897.171	311.58
897.548	295.2
897.925	325.63
898.302	295.2
898.679	372.44
899.056	349.03
899.433	339.67
899.809	262.43
900.186	334.99
900.563	323.29
900.939	330.31
901.316	269.45
901.692	327.97
902.069	346.69
902.445	339.67
902.821	306.9
903.197	351.37
903.574	370.1
903.95	337.33
904.326	339.67
904.702	313.92
905.078	292.86
905.454	278.82
905.829	257.75
906.205	339.67
906.581	241.37
906.956	339.67
907.332	342.01
907.707	316.26
908.083	325.63
908.458	323.29
908.833	325.63
909.209	386.48
909.584	271.79
909.959	239.03
910.334	320.95
910.709	248.39
911.084	353.71
911.459	323.29
911.834	269.45
912.209	278.82
912.583	297.54
912.958	299.88
913.333	283.5
913.707	323.29
914.082	281.16
914.456	309.24
914.83	262.43
915.205	353.71
915.579	297.54
915.953	281.16
916.327	304.56
916.701	290.52
917.075	281.16
917.449	323.29
917.823	304.56
918.197	349.03
918.571	337.33
918.944	323.29
919.318	330.31
919.692	353.71
920.065	292.86
920.438	281.16
920.812	311.58
921.185	334.99
921.558	239.03
921.932	320.95
922.305	299.88
922.678	255.41
923.051	332.65
923.424	325.63
923.797	278.82
924.17	309.24
924.542	330.31
924.915	288.18
925.288	243.71
925.661	271.79
926.033	313.92
926.406	236.69
926.778	313.92
927.15	318.61
927.523	318.61
927.895	260.09
928.267	344.35
928.639	302.22
929.011	313.92
929.383	295.2
929.755	248.39
930.127	327.97
930.499	288.18
930.871	269.45
931.242	278.82
931.614	344.35
931.986	295.2
932.357	285.84
932.729	257.75
933.1	327.97
933.471	346.69
933.843	339.67
934.214	292.86
934.585	283.5
934.956	332.65
935.327	360.74
935.698	302.22
936.069	264.77
936.44	325.63
936.811	311.58
937.182	274.14
937.552	283.5
937.923	306.9
938.293	323.29
938.664	311.58
939.034	292.86
939.405	260.09
939.775	299.88
940.145	246.05
940.516	311.58
940.886	255.41
941.256	323.29
941.626	304.56
941.996	372.44
942.366	292.86
942.735	367.76
943.105	241.37
943.475	297.54
943.845	346.69
944.214	278.82
944.584	320.95
944.953	327.97
945.323	299.88
945.692	276.48
946.061	360.74
946.43	269.45
946.8	290.52
947.169	276.48
947.538	330.31
947.907	274.14
948.276	309.24
948.645	295.2
949.013	292.86
949.382	194.56
949.751	297.54
950.119	304.56
950.488	325.63
950.857	297.54
951.225	318.61
951.593	313.92
951.962	292.86
952.33	196.9
952.698	248.39
953.066	253.07
953.434	232.01
953.802	316.26
954.17	295.2
954.538	288.18
954.906	323.29
955.274	281.16
955.642	295.2
956.009	320.95
956.377	304.56
956.744	306.9
957.112	243.71
957.479	316.26
957.847	283.5
958.214	269.45
958.581	346.69
958.948	365.42
959.315	267.11
959.683	283.5
960.05	342.01
960.416	346.69
960.783	318.61
961.15	349.03
961.517	297.54
961.884	320.95
962.25	323.29
962.617	271.79
962.983	236.69
963.35	257.75
963.716	311.58
964.082	269.45
964.449	285.84
964.815	274.14
965.181	292.86
965.547	339.67
965.913	295.2
966.279	213.28
966.645	288.18
967.011	330.31
967.377	330.31
967.742	283.5
968.108	304.56
968.474	313.92
968.839	311.58
969.205	325.63
969.57	260.09
969.935	320.95
970.301	325.63
970.666	278.82
971.031	309.24
971.396	309.24
971.761	311.58
972.126	267.11
972.491	253.07
972.856	318.61
973.221	267.11
973.586	306.9
973.95	297.54
974.315	295.2
974.679	304.56
975.044	325.63
975.408	342.01
975.773	313.92
976.137	278.82
976.501	278.82
976.866	281.16
977.23	339.67
977.594	311.58
977.958	299.88
978.322	346.69
978.686	337.33
979.049	264.77
979.413	316.26
979.777	304.56
980.141	285.84
980.504	346.69
980.868	274.14
981.231	309.24
981.595	288.18
981.958	288.18
982.321	290.52
982.684	255.41
983.048	309.24
983.411	337.33
983.774	271.79
984.137	327.97
984.5	283.5
984.862	304.56
985.225	323.29
985.588	276.48
985.951	346.69
986.313	302.22
986.676	292.86
987.038	255.41
987.401	288.18
987.763	295.2
988.125	297.54
988.488	297.54
988.85	269.45
989.212	304.56
989.574	297.54
989.936	267.11
990.298	262.43
990.66	342.01
991.022	297.54
991.383	299.88
991.745	274.14
992.107	318.61
992.468	264.77
992.83	285.84
993.191	351.37
993.553	325.63
993.914	304.56
994.275	306.9
994.637	297.54
994.998	236.69
995.359	285.84
995.72	297.54
996.081	285.84
996.442	402.86
996.803	274.14
997.163	302.22
997.524	271.79
997.885	302.22
998.245	304.56
998.606	302.22
998.966	227.32
999.327	262.43
999.687	353.71
1000.047	269.45
1000.408	274.14
1000.768	269.45
1001.128	351.37
1001.488	304.56
1001.848	309.24
1002.208	283.5
1002.568	262.43
1002.927	316.26
1003.287	292.86
1003.647	365.42
1004.007	269.45
1004.366	295.2
1004.726	323.29
1005.085	353.71
1005.444	290.52
1005.804	356.05
1006.163	316.26
1006.522	255.41
1006.881	271.79
1007.24	304.56
1007.599	360.74
1007.958	285.84
1008.317	320.95
1008.676	253.07
1009.035	311.58
1009.393	278.82
1009.752	288.18
1010.111	353.71
1010.469	304.56
1010.828	278.82
1011.186	290.52
1011.544	271.79
1011.903	262.43
1012.261	297.54
1012.619	295.2
1012.977	262.43
1013.335	323.29
1013.693	285.84
1014.051	290.52
1014.409	339.67
1014.767	290.52
1015.124	302.22
1015.482	353.71
1015.84	304.56
1016.197	297.54
1016.555	313.92
1016.912	241.37
1017.269	248.39
1017.627	297.54
1017.984	313.92
1018.341	339.67
1018.698	262.43
1019.055	306.9
1019.412	342.01
1019.769	288.18
1020.126	288.18
1020.483	276.48
1020.84	318.61
1021.196	208.6
1021.553	243.71
1021.909	299.88
1022.266	288.18
1022.622	248.39
1022.979	377.12
1023.335	323.29
1023.691	313.92
1024.047	304.56
1024.404	311.58
1024.76	283.5
1025.116	320.95
1025.472	349.03
1025.827	283.5
1026.183	297.54
1026.539	222.64
1026.895	283.5
1027.25	278.82
1027.606	297.54
1027.961	290.52
1028.317	309.24
1028.672	325.63
1029.028	313.92
1029.383	313.92
1029.738	262.43
1030.093	276.48
1030.448	248.39
1030.803	349.03
1031.158	292.86
1031.513	281.16
1031.868	278.82
1032.223	288.18
1032.577	250.73
1032.932	232.01
1033.287	337.33
1033.641	365.42
1033.996	332.65
1034.35	295.2
1034.704	299.88
1035.059	309.24
1035.413	327.97
1035.767	327.97
1036.121	327.97
