Data from Al_FLMS009871__1190__16-40-38-982.txt Node

Date: Fri Mar 08 16:40:38 CST 2024
User: pe5414po
Spectrometer: FLMS00987
Trigger mode: 0
Integration Time (sec): 1.000000E-1
Scans to average: 1
Electric dark correction enabled: true
Nonlinearity correction enabled: false
Boxcar width: 0
XAxis mode: Wavelengths
Number of Pixels in Spectrum: 2048
>>>>>Begin Spectral Data<<<<<
188.938	-101.37
189.409	-101.37
189.879	-101.37
190.349	-40.52
190.819	-94.35
191.29	-66.27
191.76	-120.1
192.23	-40.52
192.7	-82.65
193.17	-31.16
193.64	-21.8
194.109	36.72
194.579	-59.24
195.049	-61.59
195.519	-49.88
195.988	10.97
196.458	20.33
196.927	57.78
197.397	88.21
197.866	146.72
198.336	172.47
198.805	191.19
199.274	172.47
199.744	181.83
200.213	165.45
200.682	158.43
201.151	219.28
201.62	247.37
202.089	214.6
202.558	235.66
203.027	230.98
203.495	223.96
203.964	238
204.433	287.15
204.902	238
205.37	193.53
205.839	282.47
206.307	270.77
206.776	301.2
207.244	317.58
207.712	357.37
208.181	298.86
208.649	319.92
209.117	275.45
209.585	324.6
210.053	238
210.521	277.79
210.989	270.77
211.457	294.18
211.925	240.34
212.393	266.09
212.861	310.56
213.328	277.79
213.796	294.18
214.264	254.39
214.731	331.62
215.199	233.32
215.666	212.26
216.133	308.22
216.601	289.5
217.068	289.5
217.535	249.71
218.003	249.71
218.47	230.98
218.937	268.43
219.404	216.94
219.871	235.66
220.338	245.02
220.805	202.9
221.271	310.56
221.738	294.18
222.205	219.28
222.671	270.77
223.138	282.47
223.605	247.37
224.071	266.09
224.538	228.64
225.004	287.15
225.47	242.68
225.937	308.22
226.403	270.77
226.869	266.09
227.335	254.39
227.801	179.49
228.267	254.39
228.733	226.3
229.199	266.09
229.665	289.5
230.131	261.41
230.597	261.41
231.062	280.13
231.528	275.45
231.994	273.11
232.459	259.07
232.925	333.97
233.39	188.85
233.856	312.9
234.321	280.13
234.786	263.75
235.252	202.9
235.717	233.32
236.182	326.94
236.647	254.39
237.112	252.05
237.577	305.88
238.042	268.43
238.507	216.94
238.972	275.45
239.436	226.3
239.901	277.79
240.366	202.9
240.83	252.05
241.295	228.64
241.76	214.6
242.224	249.71
242.688	263.75
243.153	315.24
243.617	322.26
244.081	259.07
244.545	254.39
245.01	247.37
245.474	287.15
245.938	266.09
246.402	287.15
246.866	242.68
247.33	284.81
247.793	282.47
248.257	252.05
248.721	249.71
249.185	305.88
249.648	289.5
250.112	252.05
250.575	259.07
251.039	259.07
251.502	296.52
251.965	319.92
252.429	348.01
252.892	216.94
253.355	291.84
253.818	296.52
254.281	326.94
254.744	233.32
255.207	209.92
255.67	303.54
256.133	291.84
256.596	249.71
257.059	301.2
257.522	266.09
257.984	270.77
258.447	256.73
258.909	343.33
259.372	242.68
259.834	266.09
260.297	273.11
260.759	284.81
261.221	282.47
261.684	273.11
262.146	270.77
262.608	252.05
263.07	289.5
263.532	266.09
263.994	298.86
264.456	296.52
264.918	277.79
265.38	305.88
265.842	270.77
266.303	305.88
266.765	305.88
267.227	282.47
267.688	319.92
268.15	263.75
268.611	198.21
269.072	268.43
269.534	219.28
269.995	275.45
270.456	317.58
270.918	289.5
271.379	263.75
271.84	209.92
272.301	280.13
272.762	240.34
273.223	324.6
273.684	289.5
274.144	256.73
274.605	329.28
275.066	268.43
275.527	282.47
275.987	291.84
276.448	294.18
276.908	266.09
277.369	287.15
277.829	261.41
278.289	270.77
278.75	275.45
279.21	298.86
279.67	310.56
280.13	263.75
280.59	291.84
281.05	289.5
281.51	273.11
281.97	308.22
282.43	284.81
282.89	223.96
283.35	268.43
283.809	322.26
284.269	287.15
284.729	345.67
285.188	366.73
285.648	310.56
286.107	209.92
286.567	221.62
287.026	263.75
287.485	242.68
287.944	270.77
288.404	252.05
288.863	268.43
289.322	312.9
289.781	287.15
290.24	254.39
290.699	343.33
291.158	324.6
291.616	303.54
292.075	240.34
292.534	252.05
292.992	268.43
293.451	291.84
293.91	256.73
294.368	310.56
294.827	291.84
295.285	235.66
295.743	252.05
296.202	280.13
296.66	280.13
297.118	219.28
297.576	252.05
298.034	291.84
298.492	249.71
298.95	235.66
299.408	308.22
299.866	273.11
300.324	298.86
300.781	296.52
301.239	322.26
301.697	319.92
302.154	340.99
302.612	273.11
303.069	249.71
303.527	355.03
303.984	308.22
304.441	242.68
304.899	294.18
305.356	310.56
305.813	333.97
306.27	287.15
306.727	305.88
307.184	289.5
307.641	312.9
308.098	259.07
308.555	277.79
309.012	268.43
309.468	371.41
309.925	308.22
310.382	296.52
310.838	310.56
311.295	310.56
311.751	333.97
312.208	277.79
312.664	254.39
313.12	326.94
313.577	270.77
314.033	333.97
314.489	301.2
314.945	270.77
315.401	371.41
315.857	338.65
316.313	324.6
316.769	308.22
317.225	291.84
317.681	333.97
318.136	228.64
318.592	310.56
319.048	315.24
319.503	266.09
319.959	291.84
320.414	322.26
320.869	242.68
321.325	277.79
321.78	340.99
322.235	280.13
322.691	387.8
323.146	301.2
323.601	310.56
324.056	280.13
324.511	268.43
324.966	340.99
325.421	284.81
325.875	340.99
326.33	282.47
326.785	273.11
327.24	247.37
327.694	275.45
328.149	252.05
328.603	238
329.058	303.54
329.512	275.45
329.966	322.26
330.421	324.6
330.875	270.77
331.329	326.94
331.783	266.09
332.237	322.26
332.691	305.88
333.145	263.75
333.599	305.88
334.053	336.31
334.507	270.77
334.96	319.92
335.414	298.86
335.868	305.88
336.321	310.56
336.775	319.92
337.228	294.18
337.682	310.56
338.135	296.52
338.588	322.26
339.042	266.09
339.495	289.5
339.948	322.26
340.401	305.88
340.854	336.31
341.307	289.5
341.76	287.15
342.213	355.03
342.666	291.84
343.119	273.11
343.571	268.43
344.024	301.2
344.477	362.05
344.929	252.05
345.382	256.73
345.834	329.28
346.287	294.18
346.739	315.24
347.191	296.52
347.644	331.62
348.096	308.22
348.548	303.54
349	366.73
349.452	273.11
349.904	275.45
350.356	287.15
350.808	284.81
351.26	252.05
351.711	275.45
352.163	266.09
352.615	324.6
353.066	289.5
353.518	329.28
353.969	340.99
354.421	326.94
354.872	319.92
355.324	348.01
355.775	298.86
356.226	298.86
356.677	259.07
357.128	317.58
357.579	284.81
358.03	366.73
358.481	343.33
358.932	338.65
359.383	305.88
359.834	312.9
360.285	223.96
360.735	245.02
361.186	364.39
361.637	315.24
362.087	312.9
362.538	376.09
362.988	345.67
363.438	254.39
363.889	343.33
364.339	359.71
364.789	294.18
365.239	291.84
365.689	312.9
366.139	277.79
366.589	364.39
367.039	303.54
367.489	270.77
367.939	289.5
368.389	338.65
368.839	329.28
369.288	252.05
369.738	305.88
370.187	305.88
370.637	317.58
371.086	308.22
371.536	273.11
371.985	301.2
372.434	268.43
372.884	254.39
373.333	273.11
373.782	223.96
374.231	298.86
374.68	310.56
375.129	317.58
375.578	284.81
376.027	343.33
376.475	287.15
376.924	340.99
377.373	273.11
377.822	275.45
378.27	254.39
378.719	315.24
379.167	350.35
379.616	298.86
380.064	252.05
380.512	350.35
380.961	329.28
381.409	336.31
381.857	249.71
382.305	301.2
382.753	312.9
383.201	284.81
383.649	329.28
384.097	315.24
384.545	275.45
384.992	219.28
385.44	270.77
385.888	242.68
386.335	329.28
386.783	312.9
387.231	298.86
387.678	343.33
388.125	348.01
388.573	364.39
389.02	275.45
389.467	371.41
389.914	310.56
390.362	294.18
390.809	315.24
391.256	350.35
391.703	249.71
392.15	275.45
392.596	373.75
393.043	324.6
393.49	322.26
393.937	249.71
394.383	322.26
394.83	319.92
395.276	282.47
395.723	298.86
396.169	338.65
396.616	289.5
397.062	303.54
397.508	261.41
397.954	385.46
398.401	219.28
398.847	296.52
399.293	336.31
399.739	380.78
400.185	303.54
400.631	266.09
401.076	329.28
401.522	305.88
401.968	259.07
402.414	326.94
402.859	294.18
403.305	284.81
403.75	273.11
404.196	324.6
404.641	310.56
405.086	355.03
405.532	308.22
405.977	303.54
406.422	305.88
406.867	280.13
407.312	324.6
407.757	296.52
408.202	303.54
408.647	235.66
409.092	287.15
409.537	277.79
409.982	333.97
410.426	336.31
410.871	336.31
411.316	315.24
411.76	287.15
412.205	315.24
412.649	315.24
413.093	277.79
413.538	249.71
413.982	305.88
414.426	301.2
414.87	324.6
415.314	319.92
415.758	319.92
416.202	357.37
416.646	312.9
417.09	343.33
417.534	266.09
417.978	326.94
418.421	317.58
418.865	303.54
419.309	315.24
419.752	345.67
420.196	338.65
420.639	263.75
421.083	369.07
421.526	310.56
421.969	348.01
422.412	312.9
422.856	331.62
423.299	312.9
423.742	322.26
424.185	317.58
424.628	284.81
425.071	317.58
425.513	294.18
425.956	308.22
426.399	291.84
426.842	355.03
427.284	329.28
427.727	355.03
428.169	282.47
428.612	340.99
429.054	291.84
429.497	322.26
429.939	366.73
430.381	336.31
430.823	336.31
431.265	303.54
431.707	275.45
432.149	303.54
432.591	348.01
433.033	329.28
433.475	350.35
433.917	298.86
434.359	284.81
434.8	308.22
435.242	326.94
435.684	308.22
436.125	249.71
436.567	242.68
437.008	305.88
437.449	315.24
437.891	324.6
438.332	263.75
438.773	249.71
439.214	282.47
439.656	357.37
440.097	324.6
440.538	336.31
440.978	357.37
441.419	280.13
441.86	336.31
442.301	329.28
442.742	301.2
443.182	294.18
443.623	305.88
444.063	319.92
444.504	298.86
444.944	340.99
445.385	270.77
445.825	348.01
446.265	340.99
446.706	301.2
447.146	331.62
447.586	301.2
448.026	317.58
448.466	312.9
448.906	308.22
449.346	378.44
449.786	322.26
450.225	259.07
450.665	331.62
451.105	329.28
451.544	350.35
451.984	322.26
452.424	277.79
452.863	298.86
453.302	364.39
453.742	303.54
454.181	317.58
454.62	296.52
455.059	296.52
455.499	287.15
455.938	378.44
456.377	296.52
456.816	291.84
457.254	348.01
457.693	305.88
458.132	266.09
458.571	296.52
459.01	317.58
459.448	284.81
459.887	245.02
460.325	275.45
460.764	310.56
461.202	362.05
461.641	331.62
462.079	308.22
462.517	317.58
462.955	289.5
463.393	371.41
463.832	331.62
464.27	254.39
464.708	305.88
465.145	263.75
465.583	296.52
466.021	312.9
466.459	326.94
466.897	310.56
467.334	322.26
467.772	310.56
468.209	336.31
468.647	329.28
469.084	275.45
469.522	345.67
469.959	308.22
470.396	254.39
470.833	308.22
471.271	312.9
471.708	296.52
472.145	404.18
472.582	364.39
473.019	282.47
473.456	289.5
473.892	315.24
474.329	312.9
474.766	291.84
475.202	317.58
475.639	287.15
476.076	249.71
476.512	261.41
476.949	312.9
477.385	333.97
477.821	333.97
478.258	301.2
478.694	338.65
479.13	294.18
479.566	305.88
480.002	254.39
480.438	322.26
480.874	317.58
481.31	280.13
481.746	333.97
482.181	289.5
482.617	364.39
483.053	259.07
483.488	357.37
483.924	282.47
484.36	259.07
484.795	319.92
485.23	249.71
485.666	364.39
486.101	312.9
486.536	277.79
486.971	303.54
487.407	254.39
487.842	263.75
488.277	261.41
488.712	324.6
489.146	383.12
489.581	322.26
490.016	359.71
490.451	282.47
490.885	287.15
491.32	268.43
491.755	369.07
492.189	340.99
492.624	275.45
493.058	305.88
493.492	268.43
493.927	284.81
494.361	350.35
494.795	373.75
495.229	282.47
495.663	310.56
496.097	378.44
496.531	280.13
496.965	319.92
497.399	280.13
497.833	345.67
498.266	326.94
498.7	296.52
499.134	308.22
499.567	380.78
500.001	296.52
500.434	380.78
500.868	249.71
501.301	245.02
501.734	277.79
502.168	333.97
502.601	221.62
503.034	296.52
503.467	294.18
503.9	277.79
504.333	348.01
504.766	338.65
505.199	291.84
505.632	336.31
506.064	324.6
506.497	312.9
506.93	289.5
507.362	322.26
507.795	380.78
508.227	319.92
508.66	294.18
509.092	301.2
509.524	294.18
509.956	291.84
510.389	322.26
510.821	364.39
511.253	350.35
511.685	312.9
512.117	270.77
512.549	331.62
512.981	287.15
513.412	322.26
513.844	345.67
514.276	301.2
514.707	364.39
515.139	305.88
515.571	308.22
516.002	282.47
516.433	275.45
516.865	287.15
517.296	315.24
517.727	315.24
518.159	312.9
518.59	364.39
519.021	291.84
519.452	319.92
519.883	357.37
520.314	298.86
520.744	291.84
521.175	322.26
521.606	340.99
522.037	322.26
522.467	333.97
522.898	261.41
523.328	298.86
523.759	326.94
524.189	270.77
524.62	301.2
525.05	305.88
525.48	324.6
525.91	268.43
526.341	348.01
526.771	317.58
527.201	324.6
527.631	324.6
528.061	366.73
528.49	280.13
528.92	301.2
529.35	305.88
529.78	305.88
530.209	266.09
530.639	338.65
531.068	355.03
531.498	263.75
531.927	305.88
532.357	383.12
532.786	326.94
533.215	301.2
533.644	331.62
534.074	287.15
534.503	366.73
534.932	301.2
535.361	317.58
535.79	336.31
536.218	301.2
536.647	266.09
537.076	270.77
537.505	324.6
537.933	291.84
538.362	355.03
538.79	270.77
539.219	301.2
539.647	310.56
540.076	289.5
540.504	291.84
540.932	263.75
541.36	261.41
541.788	303.54
542.217	277.79
542.645	326.94
543.073	289.5
543.5	254.39
543.928	322.26
544.356	329.28
544.784	245.02
545.211	287.15
545.639	303.54
546.067	308.22
546.494	322.26
546.922	317.58
547.349	291.84
547.776	331.62
548.204	282.47
548.631	294.18
549.058	333.97
549.485	331.62
549.912	303.54
550.339	322.26
550.766	284.81
551.193	263.75
551.62	298.86
552.047	340.99
552.474	261.41
552.9	308.22
553.327	289.5
553.754	249.71
554.18	312.9
554.607	268.43
555.033	338.65
555.459	268.43
555.886	315.24
556.312	280.13
556.738	202.9
557.164	322.26
557.59	315.24
558.016	310.56
558.442	240.34
558.868	319.92
559.294	284.81
559.72	277.79
560.145	322.26
560.571	235.66
560.997	345.67
561.422	331.62
561.848	296.52
562.273	284.81
562.699	242.68
563.124	301.2
563.549	336.31
563.974	329.28
564.4	364.39
564.825	315.24
565.25	350.35
565.675	259.07
566.1	340.99
566.525	315.24
566.95	273.11
567.374	373.75
567.799	305.88
568.224	364.39
568.648	282.47
569.073	312.9
569.497	273.11
569.922	254.39
570.346	291.84
570.771	284.81
571.195	298.86
571.619	317.58
572.043	289.5
572.467	345.67
572.891	242.68
573.315	305.88
573.739	333.97
574.163	310.56
574.587	235.66
575.011	273.11
575.435	324.6
575.858	371.41
576.282	345.67
576.705	289.5
577.129	284.81
577.552	287.15
577.976	305.88
578.399	324.6
578.822	277.79
579.245	294.18
579.669	282.47
580.092	319.92
580.515	315.24
580.938	352.69
581.361	308.22
581.784	303.54
582.206	322.26
582.629	310.56
583.052	301.2
583.474	277.79
583.897	270.77
584.32	289.5
584.742	373.75
585.165	289.5
585.587	315.24
586.009	329.28
586.431	296.52
586.854	301.2
587.276	301.2
587.698	277.79
588.12	340.99
588.542	268.43
588.964	317.58
589.386	326.94
589.807	249.71
590.229	270.77
590.651	324.6
591.073	277.79
591.494	390.14
591.916	287.15
592.337	310.56
592.759	296.52
593.18	315.24
593.601	287.15
594.022	357.37
594.444	256.73
594.865	301.2
595.286	287.15
595.707	319.92
596.128	308.22
596.549	275.45
596.97	275.45
597.39	273.11
597.811	233.32
598.232	319.92
598.652	355.03
599.073	331.62
599.494	312.9
599.914	254.39
600.334	284.81
600.755	310.56
601.175	340.99
601.595	317.58
602.015	303.54
602.436	312.9
602.856	401.84
603.276	308.22
603.696	296.52
604.115	345.67
604.535	252.05
604.955	338.65
605.375	324.6
605.794	268.43
606.214	310.56
606.634	277.79
607.053	280.13
607.473	385.46
607.892	268.43
608.311	270.77
608.731	338.65
609.15	315.24
609.569	275.45
609.988	310.56
610.407	319.92
610.826	345.67
611.245	348.01
611.664	322.26
612.083	340.99
612.501	326.94
612.92	287.15
613.339	331.62
613.757	331.62
614.176	289.5
614.594	273.11
615.013	291.84
615.431	284.81
615.85	284.81
616.268	235.66
616.686	303.54
617.104	191.19
617.522	284.81
617.94	284.81
618.358	256.73
618.776	242.68
619.194	284.81
619.612	298.86
620.03	308.22
620.447	312.9
620.865	301.2
621.282	336.31
621.7	333.97
622.117	371.41
622.535	350.35
622.952	252.05
623.369	245.02
623.787	263.75
624.204	273.11
624.621	308.22
625.038	338.65
625.455	303.54
625.872	322.26
626.289	303.54
626.706	301.2
627.123	387.8
627.539	312.9
627.956	298.86
628.373	294.18
628.789	252.05
629.206	294.18
629.622	322.26
630.038	333.97
630.455	312.9
630.871	277.79
631.287	270.77
631.703	308.22
632.12	291.84
632.536	326.94
632.952	273.11
633.368	268.43
633.783	287.15
634.199	331.62
634.615	319.92
635.031	308.22
635.446	273.11
635.862	282.47
636.277	294.18
636.693	294.18
637.108	296.52
637.524	350.35
637.939	223.96
638.354	308.22
638.77	312.9
639.185	338.65
639.6	322.26
640.015	249.71
640.43	282.47
640.845	345.67
641.259	298.86
641.674	378.44
642.089	324.6
642.504	289.5
642.918	291.84
643.333	319.92
643.747	355.03
644.162	282.47
644.576	366.73
644.991	303.54
645.405	280.13
645.819	254.39
646.233	308.22
646.647	256.73
647.061	223.96
647.475	319.92
647.889	331.62
648.303	296.52
648.717	308.22
649.131	305.88
649.545	266.09
649.958	280.13
650.372	357.37
650.785	310.56
651.199	329.28
651.612	322.26
652.026	291.84
652.439	336.31
652.852	303.54
653.266	312.9
653.679	275.45
654.092	289.5
654.505	277.79
654.918	294.18
655.331	336.31
655.744	289.5
656.156	277.79
656.569	315.24
656.982	350.35
657.394	263.75
657.807	268.43
658.22	324.6
658.632	268.43
659.044	350.35
659.457	280.13
659.869	357.37
660.281	324.6
660.693	291.84
661.106	312.9
661.518	268.43
661.93	322.26
662.342	301.2
662.754	326.94
663.165	252.05
663.577	305.88
663.989	294.18
664.401	359.71
664.812	254.39
665.224	343.33
665.635	245.02
666.047	308.22
666.458	242.68
666.869	303.54
667.281	305.88
667.692	355.03
668.103	371.41
668.514	282.47
668.925	280.13
669.336	240.34
669.747	268.43
670.158	245.02
670.569	284.81
670.979	263.75
671.39	310.56
671.801	301.2
672.211	289.5
672.622	289.5
673.032	345.67
673.443	308.22
673.853	280.13
674.263	277.79
674.674	338.65
675.084	249.71
675.494	263.75
675.904	366.73
676.314	310.56
676.724	331.62
677.134	315.24
677.544	336.31
677.953	247.37
678.363	247.37
678.773	298.86
679.182	249.71
679.592	352.69
680.001	298.86
680.411	294.18
680.82	282.47
681.23	315.24
681.639	287.15
682.048	324.6
682.457	238
682.866	369.07
683.275	254.39
683.684	315.24
684.093	273.11
684.502	345.67
684.911	294.18
685.32	308.22
685.728	282.47
686.137	270.77
686.546	324.6
686.954	340.99
687.363	315.24
687.771	256.73
688.179	277.79
688.588	315.24
688.996	275.45
689.404	305.88
689.812	326.94
690.22	301.2
690.628	343.33
691.036	270.77
691.444	315.24
691.852	333.97
692.26	298.86
692.667	296.52
693.075	235.66
693.483	277.79
693.89	277.79
694.298	305.88
694.705	324.6
695.112	355.03
695.52	319.92
695.927	338.65
696.334	319.92
696.741	249.71
697.148	333.97
697.555	303.54
697.962	294.18
698.369	331.62
698.776	338.65
699.183	282.47
699.59	303.54
699.996	312.9
700.403	261.41
700.81	256.73
701.216	350.35
701.623	284.81
702.029	280.13
702.435	291.84
702.842	284.81
703.248	326.94
703.654	331.62
704.06	263.75
704.466	242.68
704.872	326.94
705.278	305.88
705.684	364.39
706.09	205.24
706.496	310.56
706.901	240.34
707.307	287.15
707.712	301.2
708.118	310.56
708.523	312.9
708.929	273.11
709.334	296.52
709.74	406.52
710.145	284.81
710.55	289.5
710.955	308.22
711.36	338.65
711.765	443.97
712.17	275.45
712.575	319.92
712.98	797.39
713.385	369.07
713.789	280.13
714.194	373.75
714.599	275.45
715.003	284.81
715.408	355.03
715.812	319.92
716.217	348.01
716.621	378.44
717.025	383.12
717.429	333.97
717.833	284.81
718.238	280.13
718.642	275.45
719.046	301.2
719.449	301.2
719.853	289.5
720.257	301.2
720.661	308.22
721.065	355.03
721.468	322.26
721.872	291.84
722.275	303.54
722.679	287.15
723.082	343.33
723.485	312.9
723.889	308.22
724.292	369.07
724.695	310.56
725.098	338.65
725.501	336.31
725.904	287.15
726.307	298.86
726.71	284.81
727.113	369.07
727.516	343.33
727.918	282.47
728.321	333.97
728.724	280.13
729.126	312.9
729.529	259.07
729.931	275.45
730.333	282.47
730.736	249.71
731.138	326.94
731.54	362.05
731.942	364.39
732.344	256.73
732.746	273.11
733.148	333.97
733.55	329.28
733.952	277.79
734.354	317.58
734.756	289.5
735.157	305.88
735.559	308.22
735.96	362.05
736.362	310.56
736.763	226.3
737.165	343.33
737.566	338.65
737.967	235.66
738.368	256.73
738.77	289.5
739.171	254.39
739.572	294.18
739.973	336.31
740.374	308.22
740.774	329.28
741.175	242.68
741.576	289.5
741.977	319.92
742.377	245.02
742.778	298.86
743.178	310.56
743.579	343.33
743.979	275.45
744.379	247.37
744.78	263.75
745.18	373.75
745.58	352.69
745.98	322.26
746.38	331.62
746.78	322.26
747.18	333.97
747.58	343.33
747.98	247.37
748.38	331.62
748.779	312.9
749.179	352.69
749.578	301.2
749.978	275.45
750.377	303.54
750.777	322.26
751.176	343.33
751.575	331.62
751.975	340.99
752.374	308.22
752.773	298.86
753.172	301.2
753.571	261.41
753.97	289.5
754.369	259.07
754.768	301.2
755.166	280.13
755.565	277.79
755.964	230.98
756.362	287.15
756.761	275.45
757.159	390.14
757.558	296.52
757.956	399.5
758.354	338.65
758.753	312.9
759.151	324.6
759.549	348.01
759.947	296.52
760.345	303.54
760.743	340.99
761.141	291.84
761.539	280.13
761.936	310.56
762.334	303.54
762.732	340.99
763.129	373.75
763.527	305.88
763.924	294.18
764.322	303.54
764.719	270.77
765.117	273.11
765.514	287.15
765.911	275.45
766.308	303.54
766.705	287.15
767.102	298.86
767.499	333.97
767.896	284.81
768.293	266.09
768.69	268.43
769.086	315.24
769.483	310.56
769.88	317.58
770.276	270.77
770.673	301.2
771.069	348.01
771.466	280.13
771.862	296.52
772.258	277.79
772.654	331.62
773.05	317.58
773.447	310.56
773.843	282.47
774.239	296.52
774.634	336.31
775.03	385.46
775.426	256.73
775.822	326.94
776.218	333.97
776.613	268.43
777.009	289.5
777.404	294.18
777.8	324.6
778.195	338.65
778.59	310.56
778.986	338.65
779.381	350.35
779.776	249.71
780.171	312.9
780.566	289.5
780.961	345.67
781.356	289.5
781.751	319.92
782.146	289.5
782.54	329.28
782.935	310.56
783.33	296.52
783.724	275.45
784.119	305.88
784.513	284.81
784.908	289.5
785.302	324.6
785.696	228.64
786.09	277.79
786.485	256.73
786.879	277.79
787.273	254.39
787.667	326.94
788.061	319.92
788.454	336.31
788.848	291.84
789.242	280.13
789.636	329.28
790.029	317.58
790.423	305.88
790.816	331.62
791.21	315.24
791.603	312.9
791.997	310.56
792.39	282.47
792.783	336.31
793.176	249.71
793.569	289.5
793.962	238
794.355	369.07
794.748	291.84
795.141	287.15
795.534	277.79
795.927	364.39
796.319	261.41
796.712	317.58
797.105	324.6
797.497	315.24
797.89	296.52
798.282	277.79
798.674	352.69
799.067	348.01
799.459	319.92
799.851	301.2
800.243	333.97
800.635	310.56
801.027	289.5
801.419	326.94
801.811	345.67
802.203	268.43
802.594	252.05
802.986	305.88
803.378	352.69
803.769	277.79
804.161	305.88
804.552	259.07
804.944	310.56
805.335	329.28
805.726	282.47
806.118	319.92
806.509	263.75
806.9	294.18
807.291	322.26
807.682	289.5
808.073	298.86
808.464	298.86
808.855	345.67
809.245	369.07
809.636	305.88
810.027	310.56
810.417	352.69
810.808	282.47
811.198	303.54
811.589	235.66
811.979	266.09
812.369	348.01
812.759	266.09
813.15	247.37
813.54	336.31
813.93	280.13
814.32	270.77
814.71	266.09
815.1	191.19
815.489	310.56
815.879	291.84
816.269	240.34
816.658	308.22
817.048	261.41
817.438	294.18
817.827	270.77
818.216	338.65
818.606	287.15
818.995	249.71
819.384	261.41
819.773	301.2
820.163	261.41
820.552	310.56
820.941	263.75
821.33	310.56
821.718	350.35
822.107	315.24
822.496	270.77
822.885	280.13
823.273	280.13
823.662	280.13
824.05	230.98
824.439	301.2
824.827	277.79
825.216	333.97
825.604	268.43
825.992	277.79
826.38	350.35
826.768	333.97
827.156	296.52
827.544	235.66
827.932	296.52
828.32	280.13
828.708	310.56
829.096	287.15
829.483	303.54
829.871	315.24
830.259	273.11
830.646	289.5
831.034	315.24
831.421	289.5
831.808	310.56
832.196	303.54
832.583	329.28
832.97	427.59
833.357	273.11
833.744	331.62
834.131	214.6
834.518	256.73
834.905	333.97
835.292	322.26
835.678	303.54
836.065	263.75
836.452	350.35
836.838	329.28
837.225	331.62
837.611	266.09
837.998	317.58
838.384	280.13
838.77	242.68
839.157	289.5
839.543	247.37
839.929	324.6
840.315	343.33
840.701	305.88
841.087	296.52
841.473	298.86
841.858	254.39
842.244	319.92
842.63	282.47
843.015	263.75
843.401	586.74
843.787	280.13
844.172	200.55
844.557	364.39
844.943	294.18
845.328	319.92
845.713	310.56
846.098	340.99
846.483	277.79
846.868	345.67
847.253	373.75
847.638	238
848.023	289.5
848.408	291.84
848.793	310.56
849.177	333.97
849.562	303.54
849.947	310.56
850.331	326.94
850.715	345.67
851.1	324.6
851.484	294.18
851.868	355.03
852.253	324.6
852.637	357.37
853.021	263.75
853.405	345.67
853.789	273.11
854.173	296.52
854.557	387.8
854.94	289.5
855.324	399.5
855.708	289.5
856.091	362.05
856.475	256.73
856.858	343.33
857.242	366.73
857.625	301.2
858.009	319.92
858.392	387.8
858.775	273.11
859.158	280.13
859.541	298.86
859.924	270.77
860.307	275.45
860.69	275.45
861.073	198.21
861.456	287.15
861.838	282.47
862.221	303.54
862.604	326.94
862.986	355.03
863.369	324.6
863.751	331.62
864.133	261.41
864.516	338.65
864.898	362.05
865.28	282.47
865.662	345.67
866.044	376.09
866.426	336.31
866.808	263.75
867.19	387.8
867.572	259.07
867.954	308.22
868.336	305.88
868.717	280.13
869.099	317.58
869.48	333.97
869.862	333.97
870.243	235.66
870.625	394.82
871.006	263.75
871.387	277.79
871.768	287.15
872.149	289.5
872.53	256.73
872.911	355.03
873.292	287.15
873.673	324.6
874.054	305.88
874.435	383.12
874.815	305.88
875.196	287.15
875.577	245.02
875.957	282.47
876.338	268.43
876.718	287.15
877.098	282.47
877.479	312.9
877.859	378.44
878.239	301.2
878.619	268.43
878.999	233.32
879.379	289.5
879.759	336.31
880.139	261.41
880.519	333.97
880.898	249.71
881.278	357.37
881.658	291.84
882.037	324.6
882.417	329.28
882.796	291.84
883.176	350.35
883.555	350.35
883.934	287.15
884.313	280.13
884.693	331.62
885.072	298.86
885.451	266.09
885.83	371.41
886.209	277.79
886.587	294.18
886.966	315.24
887.345	280.13
887.724	305.88
888.102	301.2
888.481	247.37
888.859	329.28
889.238	310.56
889.616	240.34
889.994	223.96
890.373	340.99
890.751	369.07
891.129	322.26
891.507	268.43
891.885	376.09
892.263	345.67
892.641	326.94
893.019	331.62
893.396	301.2
893.774	317.58
894.152	268.43
894.529	291.84
894.907	294.18
895.284	303.54
895.662	273.11
896.039	315.24
896.416	308.22
896.794	308.22
897.171	252.05
897.548	331.62
897.925	305.88
898.302	305.88
898.679	301.2
899.056	305.88
899.433	270.77
899.809	259.07
900.186	263.75
900.563	289.5
900.939	235.66
901.316	310.56
901.692	352.69
902.069	312.9
902.445	333.97
902.821	359.71
903.197	336.31
903.574	287.15
903.95	294.18
904.326	259.07
904.702	317.58
905.078	305.88
905.454	273.11
905.829	280.13
906.205	319.92
906.581	366.73
906.956	282.47
907.332	303.54
907.707	357.37
908.083	289.5
908.458	336.31
908.833	284.81
909.209	336.31
909.584	312.9
909.959	319.92
910.334	254.39
910.709	336.31
911.084	268.43
911.459	326.94
911.834	312.9
912.209	219.28
912.583	310.56
912.958	291.84
913.333	380.78
913.707	280.13
914.082	266.09
914.456	317.58
914.83	303.54
915.205	305.88
915.579	329.28
915.953	266.09
916.327	324.6
916.701	280.13
917.075	319.92
917.449	359.71
917.823	289.5
918.197	273.11
918.571	315.24
918.944	252.05
919.318	280.13
919.692	343.33
920.065	317.58
920.438	343.33
920.812	296.52
921.185	310.56
921.558	296.52
921.932	259.07
922.305	338.65
922.678	291.84
923.051	345.67
923.424	305.88
923.797	305.88
924.17	312.9
924.542	322.26
924.915	343.33
925.288	282.47
925.661	287.15
926.033	294.18
926.406	303.54
926.778	287.15
927.15	284.81
927.523	352.69
927.895	284.81
928.267	275.45
928.639	301.2
929.011	303.54
929.383	221.62
929.755	303.54
930.127	312.9
930.499	340.99
930.871	355.03
931.242	291.84
931.614	317.58
931.986	298.86
932.357	261.41
932.729	259.07
933.1	294.18
933.471	273.11
933.843	343.33
934.214	296.52
934.585	273.11
934.956	312.9
935.327	331.62
935.698	287.15
936.069	287.15
936.44	331.62
936.811	326.94
937.182	312.9
937.552	287.15
937.923	319.92
938.293	247.37
938.664	287.15
939.034	252.05
939.405	310.56
939.775	317.58
940.145	303.54
940.516	315.24
940.886	310.56
941.256	280.13
941.626	221.62
941.996	266.09
942.366	277.79
942.735	322.26
943.105	315.24
943.475	315.24
943.845	280.13
944.214	259.07
944.584	294.18
944.953	348.01
945.323	324.6
945.692	259.07
946.061	296.52
946.43	303.54
946.8	322.26
947.169	352.69
947.538	235.66
947.907	282.47
948.276	345.67
948.645	289.5
949.013	305.88
949.382	280.13
949.751	294.18
950.119	319.92
950.488	338.65
950.857	240.34
951.225	343.33
951.593	294.18
951.962	280.13
952.33	303.54
952.698	268.43
953.066	259.07
953.434	284.81
953.802	277.79
954.17	261.41
954.538	324.6
954.906	343.33
955.274	294.18
955.642	310.56
956.009	291.84
956.377	348.01
956.744	362.05
957.112	242.68
957.479	294.18
957.847	298.86
958.214	326.94
958.581	249.71
958.948	230.98
959.315	223.96
959.683	366.73
960.05	319.92
960.416	352.69
960.783	277.79
961.15	273.11
961.517	322.26
961.884	294.18
962.25	319.92
962.617	287.15
962.983	312.9
963.35	280.13
963.716	233.32
964.082	298.86
964.449	329.28
964.815	289.5
965.181	324.6
965.547	329.28
965.913	273.11
966.279	266.09
966.645	287.15
967.011	319.92
967.377	256.73
967.742	317.58
968.108	345.67
968.474	301.2
968.839	317.58
969.205	228.64
969.57	259.07
969.935	296.52
970.301	303.54
970.666	287.15
971.031	284.81
971.396	296.52
971.761	301.2
972.126	308.22
972.491	352.69
972.856	303.54
973.221	226.3
973.586	247.37
973.95	249.71
974.315	324.6
974.679	326.94
975.044	350.35
975.408	275.45
975.773	310.56
976.137	277.79
976.501	338.65
976.866	266.09
977.23	326.94
977.594	308.22
977.958	254.39
978.322	303.54
978.686	350.35
979.049	287.15
979.413	287.15
979.777	289.5
980.141	252.05
980.504	256.73
980.868	329.28
981.231	324.6
981.595	287.15
981.958	324.6
982.321	252.05
982.684	261.41
983.048	315.24
983.411	212.26
983.774	324.6
984.137	333.97
984.5	273.11
984.862	273.11
985.225	254.39
985.588	315.24
985.951	329.28
986.313	298.86
986.676	364.39
987.038	317.58
987.401	287.15
987.763	261.41
988.125	301.2
988.488	277.79
988.85	390.14
989.212	376.09
989.574	371.41
989.936	317.58
990.298	310.56
990.66	329.28
991.022	284.81
991.383	263.75
991.745	291.84
992.107	275.45
992.468	308.22
992.83	326.94
993.191	308.22
993.553	345.67
993.914	266.09
994.275	277.79
994.637	282.47
994.998	277.79
995.359	273.11
995.72	284.81
996.081	315.24
996.442	312.9
996.803	319.92
997.163	331.62
997.524	322.26
997.885	254.39
998.245	266.09
998.606	252.05
998.966	214.6
999.327	312.9
999.687	247.37
1000.047	303.54
1000.408	324.6
1000.768	315.24
1001.128	317.58
1001.488	340.99
1001.848	298.86
1002.208	348.01
1002.568	268.43
1002.927	249.71
1003.287	289.5
1003.647	310.56
1004.007	200.55
1004.366	254.39
1004.726	310.56
1005.085	230.98
1005.444	294.18
1005.804	200.55
1006.163	284.81
1006.522	364.39
1006.881	287.15
1007.24	294.18
1007.599	289.5
1007.958	326.94
1008.317	230.98
1008.676	268.43
1009.035	308.22
1009.393	333.97
1009.752	366.73
1010.111	333.97
1010.469	352.69
1010.828	273.11
1011.186	287.15
1011.544	308.22
1011.903	324.6
1012.261	296.52
1012.619	331.62
1012.977	287.15
1013.335	348.01
1013.693	282.47
1014.051	287.15
1014.409	317.58
1014.767	305.88
1015.124	331.62
1015.482	340.99
1015.84	263.75
1016.197	277.79
1016.555	301.2
1016.912	312.9
1017.269	284.81
1017.627	317.58
1017.984	357.37
1018.341	294.18
1018.698	284.81
1019.055	312.9
1019.412	273.11
1019.769	308.22
1020.126	294.18
1020.483	336.31
1020.84	275.45
1021.196	280.13
1021.553	254.39
1021.909	312.9
1022.266	333.97
1022.622	308.22
1022.979	305.88
1023.335	326.94
1023.691	373.75
1024.047	221.62
1024.404	310.56
1024.76	254.39
1025.116	296.52
1025.472	305.88
1025.827	348.01
1026.183	275.45
1026.539	308.22
1026.895	329.28
1027.25	310.56
1027.606	308.22
1027.961	340.99
1028.317	362.05
1028.672	308.22
1029.028	280.13
1029.383	259.07
1029.738	322.26
1030.093	329.28
1030.448	324.6
1030.803	333.97
1031.158	301.2
1031.513	275.45
1031.868	303.54
1032.223	324.6
1032.577	287.15
1032.932	331.62
1033.287	345.67
1033.641	266.09
1033.996	296.52
1034.35	291.84
1034.704	256.73
1035.059	329.28
1035.413	331.62
1035.767	331.62
1036.121	331.62
