Data from Al_FLMS009871__1193__16-40-39-282.txt Node

Date: Fri Mar 08 16:40:39 CST 2024
User: pe5414po
Spectrometer: FLMS00987
Trigger mode: 0
Integration Time (sec): 1.000000E-1
Scans to average: 1
Electric dark correction enabled: true
Nonlinearity correction enabled: false
Boxcar width: 0
XAxis mode: Wavelengths
Number of Pixels in Spectrum: 2048
>>>>>Begin Spectral Data<<<<<
188.938	-100.79
189.409	-100.79
189.879	-100.79
190.349	-112.49
190.819	-79.72
191.29	-103.13
191.76	-124.19
192.23	-89.09
192.7	-63.34
193.17	-89.09
193.64	6.88
194.109	-11.85
194.579	-46.96
195.049	-18.87
195.519	51.35
195.988	16.24
196.458	58.37
196.927	77.09
197.397	151.99
197.866	112.2
198.336	72.41
198.805	98.16
199.274	182.42
199.744	168.37
200.213	208.16
200.682	184.76
201.151	215.18
201.62	177.73
202.089	198.8
202.558	294.76
203.027	250.29
203.495	306.46
203.964	240.93
204.433	299.44
204.902	233.91
205.37	226.89
205.839	287.74
206.307	283.06
206.776	231.57
207.244	283.06
207.712	233.91
208.181	222.2
208.649	280.72
209.117	245.61
209.585	252.63
210.053	273.7
210.521	292.42
210.989	306.46
211.457	257.31
211.925	250.29
212.393	215.18
212.861	224.55
213.328	329.87
213.796	261.99
214.264	306.46
214.731	320.51
215.199	180.07
215.666	215.18
216.133	311.14
216.601	231.57
217.068	261.99
217.535	290.08
218.003	306.46
218.47	276.04
218.937	240.93
219.404	297.1
219.871	236.25
220.338	278.38
220.805	285.4
221.271	301.78
221.738	151.99
222.205	196.46
222.671	301.78
223.138	271.36
223.605	224.55
224.071	247.95
224.538	301.78
225.004	247.95
225.47	250.29
225.937	236.25
226.403	247.95
226.869	187.1
227.335	247.95
227.801	278.38
228.267	276.04
228.733	280.72
229.199	217.52
229.665	219.86
230.131	236.25
230.597	313.49
231.062	269.02
231.528	276.04
231.994	233.91
232.459	280.72
232.925	247.95
233.39	306.46
233.856	313.49
234.321	283.06
234.786	306.46
235.252	252.63
235.717	175.39
236.182	257.31
236.647	294.76
237.112	264.33
237.577	292.42
238.042	231.57
238.507	261.99
238.972	187.1
239.436	271.36
239.901	294.76
240.366	240.93
240.83	245.61
241.295	278.38
241.76	245.61
242.224	252.63
242.688	301.78
243.153	276.04
243.617	273.7
244.081	233.91
244.545	226.89
245.01	294.76
245.474	280.72
245.938	290.08
246.402	287.74
246.866	318.17
247.33	290.08
247.793	320.51
248.257	269.02
248.721	278.38
249.185	353.27
249.648	283.06
250.112	280.72
250.575	283.06
251.039	278.38
251.502	306.46
251.965	243.27
252.429	194.12
252.892	177.73
253.355	273.7
253.818	297.1
254.281	325.19
254.744	236.25
255.207	311.14
255.67	332.21
256.133	231.57
256.596	278.38
257.059	247.95
257.522	276.04
257.984	271.36
258.447	292.42
258.909	264.33
259.372	280.72
259.834	243.27
260.297	329.87
260.759	233.91
261.221	280.72
261.684	264.33
262.146	269.02
262.608	285.4
263.07	283.06
263.532	259.65
263.994	210.5
264.456	245.61
264.918	294.76
265.38	299.44
265.842	222.2
266.303	271.36
266.765	280.72
267.227	294.76
267.688	287.74
268.15	292.42
268.611	217.52
269.072	245.61
269.534	313.49
269.995	269.02
270.456	304.12
270.918	341.57
271.379	276.04
271.84	304.12
272.301	320.51
272.762	318.17
273.223	229.23
273.684	285.4
274.144	322.85
274.605	332.21
275.066	240.93
275.527	243.27
275.987	318.17
276.448	252.63
276.908	294.76
277.369	259.65
277.829	311.14
278.289	297.1
278.75	283.06
279.21	290.08
279.67	311.14
280.13	215.18
280.59	273.7
281.05	266.67
281.51	287.74
281.97	294.76
282.43	273.7
282.89	336.89
283.35	219.86
283.809	226.89
284.269	290.08
284.729	238.59
285.188	259.65
285.648	383.7
286.107	280.72
286.567	292.42
287.026	308.8
287.485	367.32
287.944	269.02
288.404	297.1
288.863	308.8
289.322	297.1
289.781	280.72
290.24	334.55
290.699	287.74
291.158	348.59
291.616	320.51
292.075	226.89
292.534	311.14
292.992	273.7
293.451	285.4
293.91	266.67
294.368	304.12
294.827	294.76
295.285	280.72
295.743	285.4
296.202	243.27
296.66	318.17
297.118	238.59
297.576	297.1
298.034	336.89
298.492	264.33
298.95	250.29
299.408	369.66
299.866	348.59
300.324	226.89
300.781	313.49
301.239	259.65
301.697	205.82
302.154	299.44
302.612	276.04
303.069	313.49
303.527	236.25
303.984	273.7
304.441	264.33
304.899	322.85
305.356	290.08
305.813	304.12
306.27	346.25
306.727	313.49
307.184	285.4
307.641	273.7
308.098	304.12
308.555	292.42
309.012	313.49
309.468	327.53
309.925	322.85
310.382	280.72
310.838	285.4
311.295	318.17
311.751	259.65
312.208	327.53
312.664	306.46
313.12	336.89
313.577	297.1
314.033	217.52
314.489	226.89
314.945	311.14
315.401	315.83
315.857	301.78
316.313	318.17
316.769	346.25
317.225	229.23
317.681	315.83
318.136	304.12
318.592	339.23
319.048	348.59
319.503	252.63
319.959	339.23
320.414	271.36
320.869	364.98
321.325	355.62
321.78	339.23
322.235	290.08
322.691	320.51
323.146	236.25
323.601	264.33
324.056	252.63
324.511	259.65
324.966	290.08
325.421	271.36
325.875	304.12
326.33	334.55
326.785	301.78
327.24	376.68
327.694	283.06
328.149	346.25
328.603	292.42
329.058	355.62
329.512	299.44
329.966	350.93
330.421	362.64
330.875	304.12
331.329	325.19
331.783	269.02
332.237	304.12
332.691	269.02
333.145	285.4
333.599	343.91
334.053	306.46
334.507	261.99
334.96	278.38
335.414	304.12
335.868	240.93
336.321	329.87
336.775	343.91
337.228	367.32
337.682	261.99
338.135	269.02
338.588	313.49
339.042	297.1
339.495	304.12
339.948	329.87
340.401	273.7
340.854	346.25
341.307	325.19
341.76	285.4
342.213	266.67
342.666	332.21
343.119	297.1
343.571	325.19
344.024	304.12
344.477	299.44
344.929	238.59
345.382	297.1
345.834	329.87
346.287	327.53
346.739	297.1
347.191	327.53
347.644	315.83
348.096	247.95
348.548	264.33
349	301.78
349.452	325.19
349.904	264.33
350.356	364.98
350.808	243.27
351.26	271.36
351.711	264.33
352.163	299.44
352.615	325.19
353.066	287.74
353.518	325.19
353.969	332.21
354.421	311.14
354.872	287.74
355.324	334.55
355.775	325.19
356.226	308.8
356.677	294.76
357.128	325.19
357.579	292.42
358.03	287.74
358.481	287.74
358.932	308.8
359.383	343.91
359.834	285.4
360.285	287.74
360.735	339.23
361.186	315.83
361.637	325.19
362.087	313.49
362.538	292.42
362.988	336.89
363.438	329.87
363.889	287.74
364.339	355.62
364.789	285.4
365.239	334.55
365.689	271.36
366.139	348.59
366.589	306.46
367.039	379.02
367.489	306.46
367.939	259.65
368.389	322.85
368.839	315.83
369.288	294.76
369.738	287.74
370.187	292.42
370.637	280.72
371.086	325.19
371.536	322.85
371.985	245.61
372.434	280.72
372.884	329.87
373.333	376.68
373.782	308.8
374.231	313.49
374.68	348.59
375.129	304.12
375.578	322.85
376.027	301.78
376.475	322.85
376.924	327.53
377.373	318.17
377.822	350.93
378.27	332.21
378.719	266.67
379.167	362.64
379.616	343.91
380.064	327.53
380.512	346.25
380.961	276.04
381.409	254.97
381.857	343.91
382.305	264.33
382.753	273.7
383.201	247.95
383.649	313.49
384.097	254.97
384.545	294.76
384.992	261.99
385.44	304.12
385.888	294.76
386.335	266.67
386.783	355.62
387.231	297.1
387.678	360.3
388.125	318.17
388.573	290.08
389.02	362.64
389.467	353.27
389.914	290.08
390.362	339.23
390.809	343.91
391.256	278.38
391.703	292.42
392.15	329.87
392.596	247.95
393.043	269.02
393.49	254.97
393.937	313.49
394.383	210.5
394.83	299.44
395.276	273.7
395.723	313.49
396.169	224.55
396.616	318.17
397.062	287.74
397.508	247.95
397.954	369.66
398.401	254.97
398.847	334.55
399.293	367.32
399.739	322.85
400.185	299.44
400.631	313.49
401.076	301.78
401.522	322.85
401.968	271.36
402.414	343.91
402.859	308.8
403.305	285.4
403.75	332.21
404.196	259.65
404.641	287.74
405.086	264.33
405.532	285.4
405.977	313.49
406.422	315.83
406.867	315.83
407.312	299.44
407.757	346.25
408.202	327.53
408.647	297.1
409.092	311.14
409.537	348.59
409.982	283.06
410.426	329.87
410.871	367.32
411.316	280.72
411.76	299.44
412.205	318.17
412.649	308.8
413.093	308.8
413.538	297.1
413.982	329.87
414.426	334.55
414.87	273.7
415.314	381.36
415.758	325.19
416.202	336.89
416.646	240.93
417.09	318.17
417.534	320.51
417.978	311.14
418.421	292.42
418.865	287.74
419.309	250.29
419.752	280.72
420.196	201.14
420.639	341.57
421.083	372
421.526	325.19
421.969	231.57
422.412	285.4
422.856	313.49
423.299	320.51
423.742	353.27
424.185	301.78
424.628	318.17
425.071	346.25
425.513	360.3
425.956	334.55
426.399	294.76
426.842	273.7
427.284	287.74
427.727	290.08
428.169	315.83
428.612	299.44
429.054	280.72
429.497	278.38
429.939	306.46
430.381	343.91
430.823	273.7
431.265	278.38
431.707	362.64
432.149	278.38
432.591	306.46
433.033	364.98
433.475	306.46
433.917	376.68
434.359	278.38
434.8	348.59
435.242	254.97
435.684	329.87
436.125	280.72
436.567	348.59
437.008	350.93
437.449	252.63
437.891	318.17
438.332	311.14
438.773	266.67
439.214	257.31
439.656	357.96
440.097	283.06
440.538	374.34
440.978	313.49
441.419	304.12
441.86	336.89
442.301	322.85
442.742	329.87
443.182	304.12
443.623	318.17
444.063	301.78
444.504	318.17
444.944	341.57
445.385	252.63
445.825	287.74
446.265	350.93
446.706	273.7
447.146	285.4
447.586	297.1
448.026	320.51
448.466	271.36
448.906	318.17
449.346	276.04
449.786	254.97
450.225	299.44
450.665	348.59
451.105	339.23
451.544	304.12
451.984	304.12
452.424	348.59
452.863	336.89
453.302	308.8
453.742	285.4
454.181	336.89
454.62	243.27
455.059	306.46
455.499	311.14
455.938	304.12
456.377	362.64
456.816	334.55
457.254	315.83
457.693	285.4
458.132	290.08
458.571	301.78
459.01	264.33
459.448	250.29
459.887	238.59
460.325	329.87
460.764	294.76
461.202	290.08
461.641	311.14
462.079	266.67
462.517	308.8
462.955	308.8
463.393	311.14
463.832	322.85
464.27	322.85
464.708	306.46
465.145	306.46
465.583	327.53
466.021	332.21
466.459	261.99
466.897	287.74
467.334	269.02
467.772	245.61
468.209	374.34
468.647	283.06
469.084	254.97
469.522	329.87
469.959	266.67
470.396	315.83
470.833	252.63
471.271	285.4
471.708	313.49
472.145	341.57
472.582	306.46
473.019	301.78
473.456	318.17
473.892	318.17
474.329	271.36
474.766	325.19
475.202	308.8
475.639	278.38
476.076	283.06
476.512	254.97
476.949	325.19
477.385	306.46
477.821	301.78
478.258	280.72
478.694	332.21
479.13	334.55
479.566	329.87
480.002	327.53
480.438	269.02
480.874	332.21
481.31	287.74
481.746	318.17
482.181	362.64
482.617	339.23
483.053	271.36
483.488	301.78
483.924	287.74
484.36	367.32
484.795	285.4
485.23	245.61
485.666	290.08
486.101	297.1
486.536	304.12
486.971	308.8
487.407	322.85
487.842	283.06
488.277	315.83
488.712	355.62
489.146	287.74
489.581	346.25
490.016	304.12
490.451	320.51
490.885	273.7
491.32	311.14
491.755	250.29
492.189	290.08
492.624	219.86
493.058	252.63
493.492	233.91
493.927	334.55
494.361	348.59
494.795	280.72
495.229	287.74
495.663	297.1
496.097	301.78
496.531	360.3
496.965	297.1
497.399	292.42
497.833	273.7
498.266	252.63
498.7	346.25
499.134	320.51
499.567	318.17
500.001	402.43
500.434	343.91
500.868	283.06
501.301	318.17
501.734	306.46
502.168	301.78
502.601	329.87
503.034	350.93
503.467	297.1
503.9	372
504.333	341.57
504.766	322.85
505.199	336.89
505.632	297.1
506.064	306.46
506.497	294.76
506.93	313.49
507.362	367.32
507.795	339.23
508.227	306.46
508.66	332.21
509.092	369.66
509.524	350.93
509.956	308.8
510.389	278.38
510.821	341.57
511.253	304.12
511.685	360.3
512.117	259.65
512.549	306.46
512.981	299.44
513.412	308.8
513.844	322.85
514.276	297.1
514.707	339.23
515.139	334.55
515.571	278.38
516.002	318.17
516.433	297.1
516.865	243.27
517.296	320.51
517.727	278.38
518.159	311.14
518.59	348.59
519.021	372
519.452	299.44
519.883	306.46
520.314	332.21
520.744	271.36
521.175	240.93
521.606	297.1
522.037	259.65
522.467	318.17
522.898	273.7
523.328	315.83
523.759	357.96
524.189	343.91
524.62	306.46
525.05	332.21
525.48	334.55
525.91	304.12
526.341	329.87
526.771	334.55
527.201	304.12
527.631	306.46
528.061	313.49
528.49	294.76
528.92	287.74
529.35	280.72
529.78	297.1
530.209	322.85
530.639	379.02
531.068	325.19
531.498	283.06
531.927	273.7
532.357	290.08
532.786	276.04
533.215	278.38
533.644	261.99
534.074	304.12
534.503	320.51
534.932	322.85
535.361	362.64
535.79	329.87
536.218	266.67
536.647	304.12
537.076	308.8
537.505	353.27
537.933	313.49
538.362	379.02
538.79	290.08
539.219	287.74
539.647	250.29
540.076	261.99
540.504	322.85
540.932	254.97
541.36	264.33
541.788	357.96
542.217	329.87
542.645	290.08
543.073	294.76
543.5	350.93
543.928	318.17
544.356	271.36
544.784	372
545.211	322.85
545.639	350.93
546.067	306.46
546.494	306.46
546.922	362.64
547.349	332.21
547.776	299.44
548.204	348.59
548.631	259.65
549.058	269.02
549.485	350.93
549.912	269.02
550.339	336.89
550.766	325.19
551.193	311.14
551.62	276.04
552.047	240.93
552.474	301.78
552.9	273.7
553.327	341.57
553.754	271.36
554.18	315.83
554.607	318.17
555.033	336.89
555.459	332.21
555.886	287.74
556.312	343.91
556.738	315.83
557.164	273.7
557.59	271.36
558.016	343.91
558.442	311.14
558.868	348.59
559.294	304.12
559.72	311.14
560.145	325.19
560.571	261.99
560.997	243.27
561.422	238.59
561.848	322.85
562.273	301.78
562.699	353.27
563.124	334.55
563.549	336.89
563.974	327.53
564.4	332.21
564.825	325.19
565.25	245.61
565.675	283.06
566.1	343.91
566.525	271.36
566.95	236.25
567.374	313.49
567.799	304.12
568.224	306.46
568.648	297.1
569.073	313.49
569.497	252.63
569.922	233.91
570.346	362.64
570.771	297.1
571.195	196.46
571.619	306.46
572.043	315.83
572.467	315.83
572.891	334.55
573.315	329.87
573.739	353.27
574.163	339.23
574.587	306.46
575.011	320.51
575.435	369.66
575.858	287.74
576.282	304.12
576.705	278.38
577.129	355.62
577.552	336.89
577.976	203.48
578.399	201.14
578.822	311.14
579.245	283.06
579.669	334.55
580.092	283.06
580.515	322.85
580.938	304.12
581.361	332.21
581.784	292.42
582.206	294.76
582.629	299.44
583.052	332.21
583.474	299.44
583.897	280.72
584.32	308.8
584.742	320.51
585.165	379.02
585.587	301.78
586.009	250.29
586.431	348.59
586.854	327.53
587.276	322.85
587.698	233.91
588.12	325.19
588.542	327.53
588.964	306.46
589.386	350.93
589.807	283.06
590.229	269.02
590.651	395.4
591.073	386.04
591.494	332.21
591.916	271.36
592.337	339.23
592.759	290.08
593.18	294.76
593.601	299.44
594.022	306.46
594.444	280.72
594.865	297.1
595.286	355.62
595.707	273.7
596.128	343.91
596.549	372
596.97	297.1
597.39	292.42
597.811	327.53
598.232	339.23
598.652	297.1
599.073	315.83
599.494	332.21
599.914	283.06
600.334	322.85
600.755	297.1
601.175	315.83
601.595	313.49
602.015	290.08
602.436	327.53
602.856	456.26
603.276	339.23
603.696	280.72
604.115	301.78
604.535	283.06
604.955	306.46
605.375	341.57
605.794	292.42
606.214	327.53
606.634	271.36
607.053	348.59
607.473	308.8
607.892	308.8
608.311	283.06
608.731	292.42
609.15	327.53
609.569	306.46
609.988	297.1
610.407	327.53
610.826	332.21
611.245	348.59
611.664	301.78
612.083	334.55
612.501	315.83
612.92	369.66
613.339	318.17
613.757	276.04
614.176	329.87
614.594	357.96
615.013	304.12
615.431	301.78
615.85	327.53
616.268	257.31
616.686	294.76
617.104	304.12
617.522	313.49
617.94	325.19
618.358	350.93
618.776	290.08
619.194	308.8
619.612	276.04
620.03	306.46
620.447	346.25
620.865	306.46
621.282	287.74
621.7	346.25
622.117	245.61
622.535	301.78
622.952	278.38
623.369	254.97
623.787	381.36
624.204	266.67
624.621	379.02
625.038	278.38
625.455	266.67
625.872	273.7
626.289	308.8
626.706	341.57
627.123	315.83
627.539	313.49
627.956	327.53
628.373	348.59
628.789	276.04
629.206	339.23
629.622	304.12
630.038	278.38
630.455	285.4
630.871	304.12
631.287	383.7
631.703	308.8
632.12	329.87
632.536	322.85
632.952	308.8
633.368	381.36
633.783	357.96
634.199	276.04
634.615	276.04
635.031	348.59
635.446	311.14
635.862	322.85
636.277	327.53
636.693	364.98
637.108	261.99
637.524	355.62
637.939	350.93
638.354	315.83
638.77	339.23
639.185	325.19
639.6	264.33
640.015	304.12
640.43	329.87
640.845	336.89
641.259	273.7
641.674	271.36
642.089	369.66
642.504	327.53
642.918	301.78
643.333	327.53
643.747	343.91
644.162	322.85
644.576	348.59
644.991	350.93
645.405	372
645.819	306.46
646.233	336.89
646.647	332.21
647.061	355.62
647.475	301.78
647.889	306.46
648.303	306.46
648.717	261.99
649.131	367.32
649.545	280.72
649.958	306.46
650.372	311.14
650.785	334.55
651.199	346.25
651.612	278.38
652.026	315.83
652.439	271.36
652.852	292.42
653.266	311.14
653.679	306.46
654.092	297.1
654.505	306.46
654.918	355.62
655.331	261.99
655.744	418.81
656.156	301.78
656.569	222.2
656.982	250.29
657.394	311.14
657.807	306.46
658.22	299.44
658.632	283.06
659.044	283.06
659.457	304.12
659.869	320.51
660.281	301.78
660.693	346.25
661.106	247.95
661.518	276.04
661.93	346.25
662.342	308.8
662.754	292.42
663.165	346.25
663.577	308.8
663.989	357.96
664.401	311.14
664.812	341.57
665.224	297.1
665.635	273.7
666.047	341.57
666.458	304.12
666.869	276.04
667.281	329.87
667.692	322.85
668.103	364.98
668.514	299.44
668.925	266.67
669.336	304.12
669.747	346.25
670.158	245.61
670.569	329.87
670.979	341.57
671.39	290.08
671.801	339.23
672.211	294.76
672.622	229.23
673.032	266.67
673.443	325.19
673.853	271.36
674.263	327.53
674.674	276.04
675.084	294.76
675.494	334.55
675.904	283.06
676.314	339.23
676.724	276.04
677.134	271.36
677.544	362.64
677.953	332.21
678.363	271.36
678.773	313.49
679.182	264.33
679.592	283.06
680.001	308.8
680.411	325.19
680.82	369.66
681.23	266.67
681.639	346.25
682.048	357.96
682.457	306.46
682.866	261.99
683.275	271.36
683.684	297.1
684.093	346.25
684.502	292.42
684.911	329.87
685.32	339.23
685.728	269.02
686.137	343.91
686.546	280.72
686.954	322.85
687.363	350.93
687.771	250.29
688.179	348.59
688.588	278.38
688.996	336.89
689.404	290.08
689.812	311.14
690.22	290.08
690.628	311.14
691.036	301.78
691.444	325.19
691.852	266.67
692.26	362.64
692.667	322.85
693.075	257.31
693.483	306.46
693.89	271.36
694.298	409.45
694.705	243.27
695.112	290.08
695.52	269.02
695.927	297.1
696.334	353.27
696.741	264.33
697.148	301.78
697.555	278.38
697.962	329.87
698.369	269.02
698.776	374.34
699.183	322.85
699.59	315.83
699.996	397.74
700.403	264.33
700.81	357.96
701.216	308.8
701.623	315.83
702.029	313.49
702.435	276.04
702.842	318.17
703.248	259.65
703.654	301.78
704.06	238.59
704.466	266.67
704.872	329.87
705.278	357.96
705.684	215.18
706.09	327.53
706.496	285.4
706.901	276.04
707.307	271.36
707.712	320.51
708.118	301.78
708.523	304.12
708.929	327.53
709.334	320.51
709.74	252.63
710.145	290.08
710.55	327.53
710.955	301.78
711.36	346.25
711.765	386.04
712.17	353.27
712.575	264.33
712.98	767.55
713.385	287.74
713.789	238.59
714.194	311.14
714.599	327.53
715.003	334.55
715.408	329.87
715.812	290.08
716.217	285.4
716.621	283.06
717.025	329.87
717.429	280.72
717.833	306.46
718.238	313.49
718.642	327.53
719.046	332.21
719.449	250.29
719.853	381.36
720.257	313.49
720.661	306.46
721.065	233.91
721.468	259.65
721.872	325.19
722.275	304.12
722.679	301.78
723.082	250.29
723.485	264.33
723.889	250.29
724.292	313.49
724.695	285.4
725.098	259.65
725.501	313.49
725.904	325.19
726.307	280.72
726.71	299.44
727.113	301.78
727.516	247.95
727.918	306.46
728.321	278.38
728.724	311.14
729.126	294.76
729.529	350.93
729.931	339.23
730.333	315.83
730.736	257.31
731.138	252.63
731.54	327.53
731.942	276.04
732.344	292.42
732.746	290.08
733.148	325.19
733.55	311.14
733.952	313.49
734.354	332.21
734.756	315.83
735.157	264.33
735.559	308.8
735.96	280.72
736.362	318.17
736.763	301.78
737.165	355.62
737.566	311.14
737.967	325.19
738.368	297.1
738.77	276.04
739.171	287.74
739.572	332.21
739.973	362.64
740.374	348.59
740.774	369.66
741.175	287.74
741.576	294.76
741.977	372
742.377	332.21
742.778	327.53
743.178	343.91
743.579	336.89
743.979	376.68
744.379	261.99
744.78	254.97
745.18	334.55
745.58	343.91
745.98	332.21
746.38	315.83
746.78	308.8
747.18	339.23
747.58	301.78
747.98	229.23
748.38	297.1
748.779	287.74
749.179	318.17
749.578	332.21
749.978	294.76
750.377	367.32
750.777	297.1
751.176	269.02
751.575	261.99
751.975	266.67
752.374	299.44
752.773	343.91
753.172	254.97
753.571	278.38
753.97	336.89
754.369	320.51
754.768	264.33
755.166	304.12
755.565	357.96
755.964	311.14
756.362	327.53
756.761	355.62
757.159	280.72
757.558	364.98
757.956	280.72
758.354	306.46
758.753	250.29
759.151	306.46
759.549	269.02
759.947	278.38
760.345	390.72
760.743	334.55
761.141	311.14
761.539	329.87
761.936	339.23
762.334	283.06
762.732	339.23
763.129	322.85
763.527	290.08
763.924	318.17
764.322	360.3
764.719	313.49
765.117	261.99
765.514	306.46
765.911	222.2
766.308	294.76
766.705	294.76
767.102	292.42
767.499	273.7
767.896	339.23
768.293	332.21
768.69	294.76
769.086	285.4
769.483	294.76
769.88	327.53
770.276	327.53
770.673	336.89
771.069	285.4
771.466	247.95
771.862	283.06
772.258	362.64
772.654	297.1
773.05	369.66
773.447	318.17
773.843	332.21
774.239	381.36
774.634	325.19
775.03	327.53
775.426	278.38
775.822	336.89
776.218	311.14
776.613	283.06
777.009	339.23
777.404	273.7
777.8	320.51
778.195	313.49
778.59	327.53
778.986	336.89
779.381	318.17
779.776	327.53
780.171	252.63
780.566	325.19
780.961	222.2
781.356	306.46
781.751	245.61
782.146	292.42
782.54	287.74
782.935	297.1
783.33	329.87
783.724	290.08
784.119	294.76
784.513	273.7
784.908	325.19
785.302	318.17
785.696	325.19
786.09	313.49
786.485	276.04
786.879	283.06
787.273	306.46
787.667	287.74
788.061	299.44
788.454	360.3
788.848	285.4
789.242	320.51
789.636	254.97
790.029	217.52
790.423	280.72
790.816	252.63
791.21	304.12
791.603	318.17
791.997	285.4
792.39	283.06
792.783	306.46
793.176	276.04
793.569	236.25
793.962	318.17
794.355	318.17
794.748	315.83
795.141	299.44
795.534	308.8
795.927	315.83
796.319	175.39
796.712	315.83
797.105	372
797.497	343.91
797.89	343.91
798.282	236.25
798.674	301.78
799.067	306.46
799.459	315.83
799.851	292.42
800.243	332.21
800.635	355.62
801.027	217.52
801.419	283.06
801.811	313.49
802.203	332.21
802.594	357.96
802.986	327.53
803.378	336.89
803.769	276.04
804.161	247.95
804.552	294.76
804.944	311.14
805.335	264.33
805.726	322.85
806.118	369.66
806.509	341.57
806.9	299.44
807.291	252.63
807.682	360.3
808.073	280.72
808.464	276.04
808.855	343.91
809.245	348.59
809.636	285.4
810.027	273.7
810.417	318.17
810.808	367.32
811.198	304.12
811.589	346.25
811.979	318.17
812.369	301.78
812.759	318.17
813.15	261.99
813.54	367.32
813.93	329.87
814.32	332.21
814.71	245.61
815.1	320.51
815.489	280.72
815.879	271.36
816.269	266.67
816.658	322.85
817.048	252.63
817.438	325.19
817.827	343.91
818.216	341.57
818.606	318.17
818.995	306.46
819.384	283.06
819.773	254.97
820.163	304.12
820.552	250.29
820.941	283.06
821.33	304.12
821.718	276.04
822.107	276.04
822.496	297.1
822.885	318.17
823.273	341.57
823.662	304.12
824.05	290.08
824.439	287.74
824.827	273.7
825.216	271.36
825.604	322.85
825.992	250.29
826.38	306.46
826.768	346.25
827.156	329.87
827.544	285.4
827.932	254.97
828.32	390.72
828.708	343.91
829.096	252.63
829.483	332.21
829.871	332.21
830.259	334.55
830.646	329.87
831.034	278.38
831.421	308.8
831.808	313.49
832.196	278.38
832.583	304.12
832.97	315.83
833.357	329.87
833.744	313.49
834.131	297.1
834.518	271.36
834.905	311.14
835.292	355.62
835.678	280.72
836.065	306.46
836.452	287.74
836.838	346.25
837.225	287.74
837.611	287.74
837.998	315.83
838.384	362.64
838.77	283.06
839.157	311.14
839.543	259.65
839.929	320.51
840.315	292.42
840.701	266.67
841.087	290.08
841.473	306.46
841.858	318.17
842.244	266.67
842.63	313.49
843.015	362.64
843.401	601.37
843.787	292.42
844.172	247.95
844.557	290.08
844.943	386.04
845.328	285.4
845.713	369.66
846.098	257.31
846.483	292.42
846.868	332.21
847.253	299.44
847.638	299.44
848.023	332.21
848.408	294.76
848.793	322.85
849.177	315.83
849.562	315.83
849.947	299.44
850.331	271.36
850.715	327.53
851.1	259.65
851.484	311.14
851.868	348.59
852.253	283.06
852.637	287.74
853.021	315.83
853.405	332.21
853.789	313.49
854.173	299.44
854.557	264.33
854.94	339.23
855.324	304.12
855.708	327.53
856.091	306.46
856.475	276.04
856.858	290.08
857.242	290.08
857.625	297.1
858.009	353.27
858.392	299.44
858.775	283.06
859.158	245.61
859.541	311.14
859.924	343.91
860.307	315.83
860.69	290.08
861.073	327.53
861.456	299.44
861.838	386.04
862.221	287.74
862.604	273.7
862.986	273.7
863.369	311.14
863.751	327.53
864.133	372
864.516	252.63
864.898	332.21
865.28	341.57
865.662	348.59
866.044	353.27
866.426	320.51
866.808	285.4
867.19	290.08
867.572	355.62
867.954	315.83
868.336	271.36
868.717	318.17
869.099	390.72
869.48	292.42
869.862	339.23
870.243	278.38
870.625	301.78
871.006	250.29
871.387	238.59
871.768	252.63
872.149	287.74
872.53	355.62
872.911	297.1
873.292	308.8
873.673	278.38
874.054	278.38
874.435	297.1
874.815	301.78
875.196	273.7
875.577	311.14
875.957	278.38
876.338	240.93
876.718	276.04
877.098	294.76
877.479	313.49
877.859	390.72
878.239	259.65
878.619	313.49
878.999	304.12
879.379	308.8
879.759	240.93
880.139	372
880.519	322.85
880.898	318.17
881.278	329.87
881.658	236.25
882.037	311.14
882.417	210.5
882.796	292.42
883.176	383.7
883.555	336.89
883.934	336.89
884.313	290.08
884.693	346.25
885.072	301.78
885.451	269.02
885.83	287.74
886.209	325.19
886.587	297.1
886.966	238.59
887.345	315.83
887.724	264.33
888.102	278.38
888.481	259.65
888.859	280.72
889.238	311.14
889.616	346.25
889.994	236.25
890.373	240.93
890.751	283.06
891.129	341.57
891.507	334.55
891.885	336.89
892.263	278.38
892.641	266.67
893.019	322.85
893.396	250.29
893.774	301.78
894.152	198.8
894.529	280.72
894.907	229.23
895.284	250.29
895.662	304.12
896.039	290.08
896.416	259.65
896.794	341.57
897.171	269.02
897.548	299.44
897.925	273.7
898.302	297.1
898.679	280.72
899.056	325.19
899.433	283.06
899.809	257.31
900.186	325.19
900.563	287.74
900.939	297.1
901.316	290.08
901.692	332.21
902.069	301.78
902.445	329.87
902.821	273.7
903.197	301.78
903.574	308.8
903.95	280.72
904.326	308.8
904.702	304.12
905.078	332.21
905.454	311.14
905.829	339.23
906.205	264.33
906.581	304.12
906.956	285.4
907.332	318.17
907.707	280.72
908.083	252.63
908.458	294.76
908.833	299.44
909.209	306.46
909.584	283.06
909.959	287.74
910.334	336.89
910.709	306.46
911.084	367.32
911.459	257.31
911.834	306.46
912.209	240.93
912.583	297.1
912.958	346.25
913.333	290.08
913.707	250.29
914.082	320.51
914.456	264.33
914.83	264.33
915.205	283.06
915.579	306.46
915.953	261.99
916.327	336.89
916.701	252.63
917.075	285.4
917.449	264.33
917.823	273.7
918.197	301.78
918.571	320.51
918.944	280.72
919.318	261.99
919.692	318.17
920.065	266.67
920.438	252.63
920.812	259.65
921.185	283.06
921.558	311.14
921.932	257.31
922.305	269.02
922.678	325.19
923.051	327.53
923.424	285.4
923.797	261.99
924.17	306.46
924.542	334.55
924.915	283.06
925.288	364.98
925.661	334.55
926.033	297.1
926.406	254.97
926.778	332.21
927.15	278.38
927.523	278.38
927.895	325.19
928.267	318.17
928.639	266.67
929.011	320.51
929.383	264.33
929.755	259.65
930.127	325.19
930.499	327.53
930.871	280.72
931.242	243.27
931.614	287.74
931.986	245.61
932.357	367.32
932.729	297.1
933.1	325.19
933.471	283.06
933.843	266.67
934.214	271.36
934.585	297.1
934.956	325.19
935.327	322.85
935.698	252.63
936.069	259.65
936.44	301.78
936.811	325.19
937.182	271.36
937.552	315.83
937.923	372
938.293	271.36
938.664	315.83
939.034	264.33
939.405	292.42
939.775	273.7
940.145	278.38
940.516	278.38
940.886	257.31
941.256	327.53
941.626	276.04
941.996	315.83
942.366	292.42
942.735	308.8
943.105	315.83
943.475	299.44
943.845	292.42
944.214	332.21
944.584	283.06
944.953	320.51
945.323	339.23
945.692	336.89
946.061	322.85
946.43	201.14
946.8	285.4
947.169	299.44
947.538	278.38
947.907	299.44
948.276	318.17
948.645	308.8
949.013	273.7
949.382	273.7
949.751	343.91
950.119	278.38
950.488	306.46
950.857	299.44
951.225	332.21
951.593	343.91
951.962	287.74
952.33	315.83
952.698	297.1
953.066	285.4
953.434	311.14
953.802	212.84
954.17	273.7
954.538	339.23
954.906	318.17
955.274	271.36
955.642	334.55
956.009	364.98
956.377	294.76
956.744	339.23
957.112	297.1
957.479	325.19
957.847	329.87
958.214	327.53
958.581	308.8
958.948	301.78
959.315	390.72
959.683	247.95
960.05	245.61
960.416	269.02
960.783	294.76
961.15	325.19
961.517	327.53
961.884	238.59
962.25	292.42
962.617	313.49
962.983	273.7
963.35	334.55
963.716	318.17
964.082	266.67
964.449	364.98
964.815	280.72
965.181	264.33
965.547	381.36
965.913	276.04
966.279	292.42
966.645	329.87
967.011	313.49
967.377	329.87
967.742	271.36
968.108	285.4
968.474	294.76
968.839	313.49
969.205	261.99
969.57	320.51
969.935	294.76
970.301	364.98
970.666	271.36
971.031	320.51
971.396	299.44
971.761	299.44
972.126	311.14
972.491	292.42
972.856	285.4
973.221	283.06
973.586	283.06
973.95	252.63
974.315	304.12
974.679	299.44
975.044	276.04
975.408	266.67
975.773	362.64
976.137	332.21
976.501	273.7
976.866	243.27
977.23	374.34
977.594	264.33
977.958	285.4
978.322	276.04
978.686	259.65
979.049	292.42
979.413	285.4
979.777	285.4
980.141	332.21
980.504	297.1
980.868	280.72
981.231	341.57
981.595	285.4
981.958	318.17
982.321	292.42
982.684	306.46
983.048	299.44
983.411	313.49
983.774	283.06
984.137	294.76
984.5	348.59
984.862	329.87
985.225	280.72
985.588	369.66
985.951	271.36
986.313	290.08
986.676	364.98
987.038	292.42
987.401	332.21
987.763	306.46
988.125	329.87
988.488	297.1
988.85	261.99
989.212	266.67
989.574	343.91
989.936	350.93
990.298	320.51
990.66	381.36
991.022	350.93
991.383	283.06
991.745	271.36
992.107	327.53
992.468	311.14
992.83	304.12
993.191	355.62
993.553	273.7
993.914	269.02
994.275	322.85
994.637	280.72
994.998	334.55
995.359	355.62
995.72	311.14
996.081	210.5
996.442	259.65
996.803	273.7
997.163	264.33
997.524	247.95
997.885	318.17
998.245	357.96
998.606	407.11
998.966	360.3
999.327	285.4
999.687	329.87
1000.047	299.44
1000.408	294.76
1000.768	290.08
1001.128	257.31
1001.488	332.21
1001.848	250.29
1002.208	261.99
1002.568	353.27
1002.927	350.93
1003.287	308.8
1003.647	353.27
1004.007	362.64
1004.366	283.06
1004.726	294.76
1005.085	329.87
1005.444	315.83
1005.804	278.38
1006.163	294.76
1006.522	360.3
1006.881	355.62
1007.24	292.42
1007.599	376.68
1007.958	261.99
1008.317	350.93
1008.676	334.55
1009.035	318.17
1009.393	369.66
1009.752	273.7
1010.111	252.63
1010.469	325.19
1010.828	297.1
1011.186	322.85
1011.544	304.12
1011.903	269.02
1012.261	334.55
1012.619	334.55
1012.977	308.8
1013.335	290.08
1013.693	269.02
1014.051	320.51
1014.409	240.93
1014.767	320.51
1015.124	292.42
1015.482	367.32
1015.84	304.12
1016.197	264.33
1016.555	346.25
1016.912	360.3
1017.269	369.66
1017.627	336.89
1017.984	332.21
1018.341	231.57
1018.698	318.17
1019.055	290.08
1019.412	259.65
1019.769	322.85
1020.126	278.38
1020.483	278.38
1020.84	357.96
1021.196	301.78
1021.553	285.4
1021.909	325.19
1022.266	339.23
1022.622	280.72
1022.979	313.49
1023.335	308.8
1023.691	236.25
1024.047	332.21
1024.404	269.02
1024.76	266.67
1025.116	292.42
1025.472	332.21
1025.827	304.12
1026.183	306.46
1026.539	304.12
1026.895	252.63
1027.25	266.67
1027.606	280.72
1027.961	376.68
1028.317	276.04
1028.672	273.7
1029.028	271.36
1029.383	315.83
1029.738	290.08
1030.093	276.04
1030.448	261.99
1030.803	297.1
1031.158	315.83
1031.513	278.38
1031.868	304.12
1032.223	348.59
1032.577	339.23
1032.932	292.42
1033.287	372
1033.641	313.49
1033.996	299.44
1034.35	304.12
1034.704	187.1
1035.059	240.93
1035.413	299.44
1035.767	299.44
1036.121	299.44
