Data from Al_FLMS009871__1199__16-40-39-882.txt Node

Date: Fri Mar 08 16:40:39 CST 2024
User: pe5414po
Spectrometer: FLMS00987
Trigger mode: 0
Integration Time (sec): 1.000000E-1
Scans to average: 1
Electric dark correction enabled: true
Nonlinearity correction enabled: false
Boxcar width: 0
XAxis mode: Wavelengths
Number of Pixels in Spectrum: 2048
>>>>>Begin Spectral Data<<<<<
188.938	-96.55
189.409	-96.55
189.879	-96.55
190.349	-94.21
190.819	-70.8
191.29	-143.36
191.76	-124.63
192.23	-84.84
192.7	-59.1
193.17	-84.84
193.64	-31.01
194.109	11.12
194.579	-2.93
195.049	-21.65
195.519	-2.93
195.988	86.01
196.458	78.99
196.927	100.06
197.397	25.16
197.866	132.83
198.336	121.12
198.805	144.53
199.274	114.1
199.744	81.33
200.213	172.61
200.682	226.45
201.151	214.74
201.62	242.83
202.089	245.17
202.558	214.74
203.027	266.24
203.495	245.17
203.964	226.45
204.433	252.19
204.902	273.26
205.37	313.05
205.839	355.18
206.307	280.28
206.776	287.3
207.244	313.05
207.712	261.55
208.181	263.9
208.649	301.34
209.117	287.3
209.585	266.24
210.053	301.34
210.521	275.6
210.989	275.6
211.457	282.62
211.925	308.37
212.393	275.6
212.861	256.87
213.328	270.92
213.796	284.96
214.264	268.58
214.731	242.83
215.199	284.96
215.666	263.9
216.133	247.51
216.601	259.21
217.068	240.49
217.535	289.64
218.003	247.51
218.47	242.83
218.937	301.34
219.404	226.45
219.871	301.34
220.338	247.51
220.805	249.85
221.271	247.51
221.738	219.43
222.205	242.83
222.671	266.24
223.138	273.26
223.605	256.87
224.071	266.24
224.538	231.13
225.004	238.15
225.47	275.6
225.937	214.74
226.403	355.18
226.869	268.58
227.335	280.28
227.801	233.47
228.267	287.3
228.733	245.17
229.199	287.3
229.665	320.07
230.131	231.13
230.597	263.9
231.062	242.83
231.528	282.62
231.994	247.51
232.459	301.34
232.925	238.15
233.39	282.62
233.856	242.83
234.321	275.6
234.786	327.09
235.252	303.68
235.717	294.32
236.182	320.07
236.647	299
237.112	231.13
237.577	284.96
238.042	266.24
238.507	228.79
238.972	306.03
239.436	282.62
239.901	327.09
240.366	242.83
240.83	270.92
241.295	306.03
241.76	355.18
242.224	245.17
242.688	249.85
243.153	254.53
243.617	254.53
244.081	287.3
244.545	294.32
245.01	249.85
245.474	317.73
245.938	266.24
246.402	249.85
246.866	299
247.33	221.77
247.793	310.71
248.257	252.19
248.721	249.85
249.185	268.58
249.648	320.07
250.112	242.83
250.575	273.26
251.039	259.21
251.502	310.71
251.965	266.24
252.429	296.66
252.892	313.05
253.355	249.85
253.818	247.51
254.281	294.32
254.744	263.9
255.207	280.28
255.67	320.07
256.133	219.43
256.596	266.24
257.059	256.87
257.522	231.13
257.984	336.45
258.447	228.79
258.909	284.96
259.372	336.45
259.834	334.11
260.297	245.17
260.759	289.64
261.221	289.64
261.684	324.75
262.146	338.79
262.608	275.6
263.07	320.07
263.532	306.03
263.994	306.03
264.456	322.41
264.918	308.37
265.38	214.74
265.842	282.62
266.303	254.53
266.765	308.37
267.227	291.98
267.688	296.66
268.15	252.19
268.611	322.41
269.072	296.66
269.534	294.32
269.995	296.66
270.456	263.9
270.918	275.6
271.379	291.98
271.84	280.28
272.301	315.39
272.762	233.47
273.223	280.28
273.684	252.19
274.144	352.84
274.605	291.98
275.066	291.98
275.527	301.34
275.987	338.79
276.448	249.85
276.908	219.43
277.369	219.43
277.829	270.92
278.289	322.41
278.75	273.26
279.21	275.6
279.67	242.83
280.13	306.03
280.59	270.92
281.05	266.24
281.51	308.37
281.97	277.94
282.43	334.11
282.89	324.75
283.35	294.32
283.809	338.79
284.269	320.07
284.729	306.03
285.188	296.66
285.648	270.92
286.107	275.6
286.567	317.73
287.026	291.98
287.485	291.98
287.944	301.34
288.404	275.6
288.863	329.43
289.322	327.09
289.781	261.55
290.24	252.19
290.699	308.37
291.158	355.18
291.616	338.79
292.075	329.43
292.534	259.21
292.992	282.62
293.451	268.58
293.91	261.55
294.368	242.83
294.827	249.85
295.285	252.19
295.743	306.03
296.202	324.75
296.66	348.15
297.118	315.39
297.576	291.98
298.034	249.85
298.492	245.17
298.95	322.41
299.408	287.3
299.866	317.73
300.324	380.92
300.781	294.32
301.239	303.68
301.697	315.39
302.154	343.47
302.612	282.62
303.069	322.41
303.527	242.83
303.984	245.17
304.441	343.47
304.899	294.32
305.356	359.86
305.813	329.43
306.27	284.96
306.727	352.84
307.184	303.68
307.641	233.47
308.098	317.73
308.555	280.28
309.012	329.43
309.468	378.58
309.925	306.03
310.382	296.66
310.838	362.2
311.295	345.81
311.751	238.15
312.208	334.11
312.664	291.98
313.12	287.3
313.577	301.34
314.033	350.5
314.489	343.47
314.945	345.81
315.401	301.34
315.857	327.09
316.313	359.86
316.769	324.75
317.225	235.81
317.681	317.73
318.136	301.34
318.592	299
319.048	334.11
319.503	252.19
319.959	301.34
320.414	364.54
320.869	306.03
321.325	320.07
321.78	287.3
322.235	266.24
322.691	380.92
323.146	371.56
323.601	317.73
324.056	320.07
324.511	341.13
324.966	324.75
325.421	301.34
325.875	310.71
326.33	336.45
326.785	317.73
327.24	296.66
327.694	289.64
328.149	261.55
328.603	315.39
329.058	254.53
329.512	352.84
329.966	296.66
330.421	291.98
330.875	338.79
331.329	322.41
331.783	282.62
332.237	306.03
332.691	336.45
333.145	238.15
333.599	364.54
334.053	308.37
334.507	315.39
334.96	282.62
335.414	341.13
335.868	348.15
336.321	291.98
336.775	296.66
337.228	289.64
337.682	303.68
338.135	331.77
338.588	350.5
339.042	334.11
339.495	366.88
339.948	331.77
340.401	303.68
340.854	345.81
341.307	343.47
341.76	341.13
342.213	327.09
342.666	308.37
343.119	254.53
343.571	329.43
344.024	284.96
344.477	287.3
344.929	277.94
345.382	308.37
345.834	299
346.287	303.68
346.739	324.75
347.191	277.94
347.644	291.98
348.096	315.39
348.548	308.37
349	334.11
349.452	338.79
349.904	294.32
350.356	343.47
350.808	287.3
351.26	334.11
351.711	313.05
352.163	294.32
352.615	366.88
353.066	282.62
353.518	324.75
353.969	308.37
354.421	373.9
354.872	299
355.324	355.18
355.775	310.71
356.226	315.39
356.677	282.62
357.128	348.15
357.579	273.26
358.03	303.68
358.481	329.43
358.932	289.64
359.383	401.99
359.834	299
360.285	294.32
360.735	299
361.186	306.03
361.637	315.39
362.087	315.39
362.538	289.64
362.988	301.34
363.438	324.75
363.889	240.49
364.339	287.3
364.789	301.34
365.239	313.05
365.689	315.39
366.139	357.52
366.589	268.58
367.039	331.77
367.489	327.09
367.939	329.43
368.389	331.77
368.839	315.39
369.288	345.81
369.738	324.75
370.187	289.64
370.637	313.05
371.086	338.79
371.536	277.94
371.985	273.26
372.434	357.52
372.884	345.81
373.333	294.32
373.782	320.07
374.231	299
374.68	327.09
375.129	287.3
375.578	238.15
376.027	275.6
376.475	240.49
376.924	306.03
377.373	231.13
377.822	308.37
378.27	350.5
378.719	329.43
379.167	362.2
379.616	296.66
380.064	291.98
380.512	317.73
380.961	336.45
381.409	357.52
381.857	329.43
382.305	294.32
382.753	301.34
383.201	273.26
383.649	313.05
384.097	303.68
384.545	289.64
384.992	345.81
385.44	242.83
385.888	280.28
386.335	275.6
386.783	287.3
387.231	324.75
387.678	357.52
388.125	334.11
388.573	261.55
389.02	310.71
389.467	277.94
389.914	275.6
390.362	348.15
390.809	273.26
391.256	303.68
391.703	315.39
392.15	280.28
392.596	331.77
393.043	303.68
393.49	350.5
393.937	301.34
394.383	343.47
394.83	383.26
395.276	317.73
395.723	313.05
396.169	280.28
396.616	348.15
397.062	348.15
397.508	301.34
397.954	275.6
398.401	273.26
398.847	322.41
399.293	238.15
399.739	392.62
400.185	303.68
400.631	364.54
401.076	284.96
401.522	364.54
401.968	306.03
402.414	294.32
402.859	334.11
403.305	327.09
403.75	310.71
404.196	259.21
404.641	364.54
405.086	371.56
405.532	352.84
405.977	359.86
406.422	296.66
406.867	263.9
407.312	277.94
407.757	301.34
408.202	238.15
408.647	301.34
409.092	303.68
409.537	306.03
409.982	313.05
410.426	345.81
410.871	308.37
411.316	214.74
411.76	385.6
412.205	284.96
412.649	404.33
413.093	329.43
413.538	282.62
413.982	256.87
414.426	303.68
414.87	308.37
415.314	294.32
415.758	308.37
416.202	313.05
416.646	345.81
417.09	315.39
417.534	317.73
417.978	301.34
418.421	252.19
418.865	291.98
419.309	315.39
419.752	291.98
420.196	280.28
420.639	357.52
421.083	327.09
421.526	315.39
421.969	373.9
422.412	362.2
422.856	303.68
423.299	404.33
423.742	329.43
424.185	357.52
424.628	249.85
425.071	331.77
425.513	308.37
425.956	336.45
426.399	355.18
426.842	310.71
427.284	327.09
427.727	306.03
428.169	301.34
428.612	324.75
429.054	345.81
429.497	352.84
429.939	334.11
430.381	289.64
430.823	287.3
431.265	301.34
431.707	315.39
432.149	357.52
432.591	334.11
433.033	287.3
433.475	327.09
433.917	338.79
434.359	317.73
434.8	329.43
435.242	352.84
435.684	320.07
436.125	270.92
436.567	268.58
437.008	341.13
437.449	338.79
437.891	284.96
438.332	291.98
438.773	320.07
439.214	327.09
439.656	284.96
440.097	331.77
440.538	284.96
440.978	327.09
441.419	338.79
441.86	364.54
442.301	345.81
442.742	247.51
443.182	343.47
443.623	289.64
444.063	366.88
444.504	315.39
444.944	327.09
445.385	306.03
445.825	343.47
446.265	341.13
446.706	301.34
447.146	315.39
447.586	315.39
448.026	366.88
448.466	350.5
448.906	355.18
449.346	338.79
449.786	348.15
450.225	289.64
450.665	317.73
451.105	348.15
451.544	345.81
451.984	322.41
452.424	320.07
452.863	310.71
453.302	313.05
453.742	329.43
454.181	294.32
454.62	313.05
455.059	261.55
455.499	303.68
455.938	327.09
456.377	308.37
456.816	341.13
457.254	287.3
457.693	369.22
458.132	371.56
458.571	357.52
459.01	378.58
459.448	301.34
459.887	350.5
460.325	315.39
460.764	313.05
461.202	284.96
461.641	373.9
462.079	322.41
462.517	287.3
462.955	369.22
463.393	256.87
463.832	254.53
464.27	313.05
464.708	296.66
465.145	284.96
465.583	327.09
466.021	294.32
466.459	331.77
466.897	301.34
467.334	270.92
467.772	296.66
468.209	345.81
468.647	313.05
469.084	308.37
469.522	310.71
469.959	324.75
470.396	310.71
470.833	313.05
471.271	385.6
471.708	378.58
472.145	277.94
472.582	308.37
473.019	359.86
473.456	289.64
473.892	313.05
474.329	352.84
474.766	310.71
475.202	308.37
475.639	324.75
476.076	387.94
476.512	334.11
476.949	336.45
477.385	343.47
477.821	324.75
478.258	261.55
478.694	310.71
479.13	315.39
479.566	390.28
480.002	277.94
480.438	301.34
480.874	289.64
481.31	338.79
481.746	334.11
482.181	249.85
482.617	397.31
483.053	329.43
483.488	327.09
483.924	343.47
484.36	371.56
484.795	355.18
485.23	294.32
485.666	263.9
486.101	291.98
486.536	357.52
486.971	334.11
487.407	359.86
487.842	322.41
488.277	308.37
488.712	387.94
489.146	282.62
489.581	327.09
490.016	317.73
490.451	245.17
490.885	308.37
491.32	289.64
491.755	282.62
492.189	291.98
492.624	317.73
493.058	320.07
493.492	296.66
493.927	299
494.361	331.77
494.795	287.3
495.229	289.64
495.663	277.94
496.097	320.07
496.531	308.37
496.965	329.43
497.399	301.34
497.833	301.34
498.266	294.32
498.7	291.98
499.134	313.05
499.567	289.64
500.001	284.96
500.434	303.68
500.868	303.68
501.301	275.6
501.734	231.13
502.168	284.96
502.601	322.41
503.034	299
503.467	322.41
503.9	338.79
504.333	322.41
504.766	341.13
505.199	287.3
505.632	355.18
506.064	331.77
506.497	289.64
506.93	350.5
507.362	343.47
507.795	310.71
508.227	256.87
508.66	310.71
509.092	327.09
509.524	301.34
509.956	341.13
510.389	336.45
510.821	303.68
511.253	268.58
511.685	313.05
512.117	313.05
512.549	385.6
512.981	387.94
513.412	310.71
513.844	242.83
514.276	369.22
514.707	327.09
515.139	327.09
515.571	322.41
516.002	357.52
516.433	299
516.865	315.39
517.296	315.39
517.727	294.32
518.159	308.37
518.59	324.75
519.021	310.71
519.452	348.15
519.883	247.51
520.314	385.6
520.744	324.75
521.175	355.18
521.606	350.5
522.037	317.73
522.467	313.05
522.898	320.07
523.328	287.3
523.759	294.32
524.189	306.03
524.62	341.13
525.05	313.05
525.48	334.11
525.91	350.5
526.341	334.11
526.771	308.37
527.201	299
527.631	320.07
528.061	322.41
528.49	301.34
528.92	352.84
529.35	315.39
529.78	322.41
530.209	355.18
530.639	336.45
531.068	310.71
531.498	301.34
531.927	345.81
532.357	320.07
532.786	413.69
533.215	341.13
533.644	317.73
534.074	380.92
534.503	294.32
534.932	331.77
535.361	303.68
535.79	287.3
536.218	310.71
536.647	327.09
537.076	327.09
537.505	336.45
537.933	315.39
538.362	280.28
538.79	324.75
539.219	291.98
539.647	291.98
540.076	301.34
540.504	301.34
540.932	334.11
541.36	341.13
541.788	303.68
542.217	359.86
542.645	345.81
543.073	324.75
543.5	327.09
543.928	369.22
544.356	280.28
544.784	324.75
545.211	287.3
545.639	366.88
546.067	317.73
546.494	329.43
546.922	324.75
547.349	329.43
547.776	341.13
548.204	310.71
548.631	336.45
549.058	334.11
549.485	345.81
549.912	303.68
550.339	355.18
550.766	338.79
551.193	348.15
551.62	362.2
552.047	383.26
552.474	315.39
552.9	383.26
553.327	327.09
553.754	291.98
554.18	348.15
554.607	409.01
555.033	259.21
555.459	254.53
555.886	317.73
556.312	345.81
556.738	296.66
557.164	329.43
557.59	373.9
558.016	249.85
558.442	296.66
558.868	371.56
559.294	327.09
559.72	301.34
560.145	277.94
560.571	301.34
560.997	348.15
561.422	343.47
561.848	383.26
562.273	282.62
562.699	322.41
563.124	280.28
563.549	315.39
563.974	310.71
564.4	383.26
564.825	359.86
565.25	273.26
565.675	385.6
566.1	355.18
566.525	352.84
566.95	341.13
567.374	284.96
567.799	270.92
568.224	301.34
568.648	310.71
569.073	317.73
569.497	350.5
569.922	315.39
570.346	303.68
570.771	284.96
571.195	306.03
571.619	341.13
572.043	334.11
572.467	341.13
572.891	252.19
573.315	329.43
573.739	350.5
574.163	315.39
574.587	228.79
575.011	334.11
575.435	289.64
575.858	364.54
576.282	338.79
576.705	280.28
577.129	320.07
577.552	320.07
577.976	338.79
578.399	350.5
578.822	348.15
579.245	336.45
579.669	383.26
580.092	275.6
580.515	247.51
580.938	331.77
581.361	324.75
581.784	334.11
582.206	308.37
582.629	289.64
583.052	322.41
583.474	329.43
583.897	301.34
584.32	296.66
584.742	366.88
585.165	383.26
585.587	345.81
586.009	256.87
586.431	268.58
586.854	322.41
587.276	306.03
587.698	413.69
588.12	303.68
588.542	324.75
588.964	327.09
589.386	301.34
589.807	317.73
590.229	308.37
590.651	334.11
591.073	296.66
591.494	270.92
591.916	273.26
592.337	306.03
592.759	315.39
593.18	315.39
593.601	343.47
594.022	275.6
594.444	268.58
594.865	291.98
595.286	301.34
595.707	348.15
596.128	336.45
596.549	306.03
596.97	364.54
597.39	256.87
597.811	350.5
598.232	324.75
598.652	301.34
599.073	235.81
599.494	350.5
599.914	345.81
600.334	263.9
600.755	341.13
601.175	280.28
601.595	275.6
602.015	385.6
602.436	317.73
602.856	453.48
603.276	287.3
603.696	313.05
604.115	308.37
604.535	376.24
604.955	270.92
605.375	352.84
605.794	336.45
606.214	334.11
606.634	299
607.053	334.11
607.473	357.52
607.892	320.07
608.311	366.88
608.731	306.03
609.15	268.58
609.569	247.51
609.988	294.32
610.407	359.86
610.826	394.97
611.245	301.34
611.664	313.05
612.083	256.87
612.501	242.83
612.92	327.09
613.339	355.18
613.757	345.81
614.176	289.64
614.594	310.71
615.013	315.39
615.431	338.79
615.85	273.26
616.268	301.34
616.686	280.28
617.104	296.66
617.522	336.45
617.94	280.28
618.358	299
618.776	301.34
619.194	324.75
619.612	240.49
620.03	338.79
620.447	357.52
620.865	322.41
621.282	301.34
621.7	268.58
622.117	280.28
622.535	270.92
622.952	294.32
623.369	322.41
623.787	296.66
624.204	329.43
624.621	259.21
625.038	331.77
625.455	345.81
625.872	352.84
626.289	289.64
626.706	371.56
627.123	350.5
627.539	273.26
627.956	352.84
628.373	348.15
628.789	348.15
629.206	359.86
629.622	383.26
630.038	343.47
630.455	369.22
630.871	280.28
631.287	299
631.703	296.66
632.12	315.39
632.536	327.09
632.952	301.34
633.368	310.71
633.783	352.84
634.199	315.39
634.615	315.39
635.031	331.77
635.446	280.28
635.862	329.43
636.277	315.39
636.693	240.49
637.108	341.13
637.524	385.6
637.939	341.13
638.354	324.75
638.77	306.03
639.185	308.37
639.6	313.05
640.015	294.32
640.43	282.62
640.845	362.2
641.259	282.62
641.674	313.05
642.089	280.28
642.504	280.28
642.918	263.9
643.333	280.28
643.747	345.81
644.162	343.47
644.576	329.43
644.991	355.18
645.405	390.28
645.819	357.52
646.233	338.79
646.647	336.45
647.061	334.11
647.475	306.03
647.889	345.81
648.303	345.81
648.717	306.03
649.131	324.75
649.545	315.39
649.958	334.11
650.372	357.52
650.785	291.98
651.199	329.43
651.612	324.75
652.026	357.52
652.439	303.68
652.852	322.41
653.266	411.35
653.679	324.75
654.092	331.77
654.505	341.13
654.918	256.87
655.331	306.03
655.744	301.34
656.156	289.64
656.569	270.92
656.982	350.5
657.394	376.24
657.807	322.41
658.22	301.34
658.632	310.71
659.044	378.58
659.457	289.64
659.869	327.09
660.281	299
660.693	327.09
661.106	294.32
661.518	357.52
661.93	352.84
662.342	324.75
662.754	352.84
663.165	303.68
663.577	270.92
663.989	324.75
664.401	315.39
664.812	282.62
665.224	299
665.635	282.62
666.047	329.43
666.458	277.94
666.869	317.73
667.281	320.07
667.692	341.13
668.103	359.86
668.514	306.03
668.925	343.47
669.336	327.09
669.747	294.32
670.158	299
670.569	343.47
670.979	348.15
671.39	362.2
671.801	308.37
672.211	249.85
672.622	329.43
673.032	350.5
673.443	334.11
673.853	259.21
674.263	301.34
674.674	383.26
675.084	294.32
675.494	301.34
675.904	315.39
676.314	341.13
676.724	287.3
677.134	364.54
677.544	289.64
677.953	315.39
678.363	345.81
678.773	352.84
679.182	348.15
679.592	301.34
680.001	320.07
680.411	263.9
680.82	320.07
681.23	252.19
681.639	308.37
682.048	327.09
682.457	359.86
682.866	383.26
683.275	320.07
683.684	329.43
684.093	315.39
684.502	369.22
684.911	320.07
685.32	303.68
685.728	308.37
686.137	338.79
686.546	308.37
686.954	322.41
687.363	322.41
687.771	282.62
688.179	336.45
688.588	268.58
688.996	317.73
689.404	294.32
689.812	313.05
690.22	306.03
690.628	315.39
691.036	315.39
691.444	364.54
691.852	313.05
692.26	371.56
692.667	291.98
693.075	273.26
693.483	329.43
693.89	256.87
694.298	277.94
694.705	308.37
695.112	284.96
695.52	336.45
695.927	299
696.334	263.9
696.741	334.11
697.148	317.73
697.555	296.66
697.962	277.94
698.369	327.09
698.776	259.21
699.183	320.07
699.59	287.3
699.996	324.75
700.403	310.71
700.81	296.66
701.216	275.6
701.623	324.75
702.029	245.17
702.435	336.45
702.842	320.07
703.248	308.37
703.654	315.39
704.06	369.22
704.466	301.34
704.872	294.32
705.278	301.34
705.684	338.79
706.09	294.32
706.496	308.37
706.901	322.41
707.307	322.41
707.712	266.24
708.118	242.83
708.523	329.43
708.929	350.5
709.334	322.41
709.74	294.32
710.145	277.94
710.55	317.73
710.955	252.19
711.36	355.18
711.765	327.09
712.17	399.65
712.575	320.07
712.98	816.26
713.385	380.92
713.789	268.58
714.194	338.79
714.599	350.5
715.003	294.32
715.408	334.11
715.812	348.15
716.217	350.5
716.621	355.18
717.025	289.64
717.429	254.53
717.833	313.05
718.238	336.45
718.642	320.07
719.046	380.92
719.449	308.37
719.853	289.64
720.257	273.26
720.661	313.05
721.065	376.24
721.468	240.49
721.872	334.11
722.275	294.32
722.679	299
723.082	341.13
723.485	249.85
723.889	324.75
724.292	327.09
724.695	282.62
725.098	341.13
725.501	338.79
725.904	324.75
726.307	329.43
726.71	242.83
727.113	341.13
727.516	284.96
727.918	296.66
728.321	266.24
728.724	296.66
729.126	373.9
729.529	317.73
729.931	362.2
730.333	299
730.736	399.65
731.138	348.15
731.54	348.15
731.942	259.21
732.344	343.47
732.746	301.34
733.148	261.55
733.55	308.37
733.952	371.56
734.354	259.21
734.756	308.37
735.157	338.79
735.559	277.94
735.96	287.3
736.362	291.98
736.763	320.07
737.165	331.77
737.566	334.11
737.967	254.53
738.368	289.64
738.77	303.68
739.171	313.05
739.572	366.88
739.973	327.09
740.374	306.03
740.774	303.68
741.175	355.18
741.576	313.05
741.977	235.81
742.377	310.71
742.778	289.64
743.178	263.9
743.579	294.32
743.979	289.64
744.379	313.05
744.78	282.62
745.18	322.41
745.58	345.81
745.98	249.85
746.38	336.45
746.78	350.5
747.18	355.18
747.58	277.94
747.98	329.43
748.38	315.39
748.779	299
749.179	259.21
749.578	291.98
749.978	303.68
750.377	324.75
750.777	254.53
751.176	324.75
751.575	289.64
751.975	313.05
752.374	301.34
752.773	303.68
753.172	310.71
753.571	329.43
753.97	336.45
754.369	317.73
754.768	289.64
755.166	308.37
755.565	317.73
755.964	320.07
756.362	385.6
756.761	282.62
757.159	282.62
757.558	263.9
757.956	345.81
758.354	289.64
758.753	336.45
759.151	303.68
759.549	313.05
759.947	259.21
760.345	329.43
760.743	329.43
761.141	299
761.539	327.09
761.936	282.62
762.334	313.05
762.732	289.64
763.129	306.03
763.527	268.58
763.924	256.87
764.322	378.58
764.719	315.39
765.117	334.11
765.514	324.75
765.911	322.41
766.308	341.13
766.705	306.03
767.102	259.21
767.499	296.66
767.896	411.35
768.293	327.09
768.69	338.79
769.086	273.26
769.483	338.79
769.88	310.71
770.276	268.58
770.673	341.13
771.069	242.83
771.466	322.41
771.862	336.45
772.258	306.03
772.654	289.64
773.05	277.94
773.447	275.6
773.843	343.47
774.239	352.84
774.634	334.11
775.03	306.03
775.426	275.6
775.822	343.47
776.218	287.3
776.613	329.43
777.009	329.43
777.404	327.09
777.8	277.94
778.195	287.3
778.59	313.05
778.986	289.64
779.381	385.6
779.776	324.75
780.171	343.47
780.566	299
780.961	282.62
781.356	336.45
781.751	348.15
782.146	352.84
782.54	338.79
782.935	378.58
783.33	380.92
783.724	266.24
784.119	306.03
784.513	303.68
784.908	294.32
785.302	254.53
785.696	327.09
786.09	320.07
786.485	327.09
786.879	308.37
787.273	327.09
787.667	338.79
788.061	317.73
788.454	343.47
788.848	310.71
789.242	324.75
789.636	373.9
790.029	254.53
790.423	287.3
790.816	336.45
791.21	296.66
791.603	348.15
791.997	322.41
792.39	301.34
792.783	343.47
793.176	343.47
793.569	341.13
793.962	317.73
794.355	299
794.748	301.34
795.141	334.11
795.534	294.32
795.927	362.2
796.319	277.94
796.712	313.05
797.105	338.79
797.497	284.96
797.89	301.34
798.282	338.79
798.674	313.05
799.067	322.41
799.459	322.41
799.851	355.18
800.243	289.64
800.635	327.09
801.027	336.45
801.419	373.9
801.811	296.66
802.203	338.79
802.594	338.79
802.986	338.79
803.378	291.98
803.769	310.71
804.161	327.09
804.552	299
804.944	322.41
805.335	350.5
805.726	327.09
806.118	362.2
806.509	291.98
806.9	322.41
807.291	331.77
807.682	320.07
808.073	338.79
808.464	270.92
808.855	336.45
809.245	252.19
809.636	275.6
810.027	247.51
810.417	282.62
810.808	287.3
811.198	259.21
811.589	345.81
811.979	331.77
812.369	266.24
812.759	324.75
813.15	334.11
813.54	329.43
813.93	355.18
814.32	275.6
814.71	324.75
815.1	385.6
815.489	317.73
815.879	380.92
816.269	266.24
816.658	320.07
817.048	299
817.438	287.3
817.827	324.75
818.216	242.83
818.606	280.28
818.995	287.3
819.384	315.39
819.773	362.2
820.163	324.75
820.552	231.13
820.941	343.47
821.33	273.26
821.718	287.3
822.107	329.43
822.496	291.98
822.885	380.92
823.273	345.81
823.662	268.58
824.05	261.55
824.439	228.79
824.827	291.98
825.216	212.4
825.604	329.43
825.992	306.03
826.38	308.37
826.768	303.68
827.156	338.79
827.544	294.32
827.932	348.15
828.32	338.79
828.708	256.87
829.096	256.87
829.483	284.96
829.871	336.45
830.259	294.32
830.646	280.28
831.034	294.32
831.421	266.24
831.808	306.03
832.196	299
832.583	348.15
832.97	299
833.357	308.37
833.744	291.98
834.131	357.52
834.518	336.45
834.905	282.62
835.292	338.79
835.678	270.92
836.065	317.73
836.452	291.98
836.838	322.41
837.225	247.51
837.611	320.07
837.998	273.26
838.384	336.45
838.77	266.24
839.157	270.92
839.543	373.9
839.929	322.41
840.315	329.43
840.701	261.55
841.087	282.62
841.473	282.62
841.858	256.87
842.244	247.51
842.63	324.75
843.015	303.68
843.401	631.36
843.787	350.5
844.172	313.05
844.557	296.66
844.943	313.05
845.328	373.9
845.713	336.45
846.098	303.68
846.483	310.71
846.868	289.64
847.253	329.43
847.638	287.3
848.023	294.32
848.408	303.68
848.793	315.39
849.177	275.6
849.562	301.34
849.947	341.13
850.331	327.09
850.715	273.26
851.1	308.37
851.484	331.77
851.868	275.6
852.253	277.94
852.637	331.77
853.021	324.75
853.405	284.96
853.789	345.81
854.173	310.71
854.557	350.5
854.94	427.73
855.324	369.22
855.708	348.15
856.091	336.45
856.475	317.73
856.858	338.79
857.242	313.05
857.625	322.41
858.009	320.07
858.392	343.47
858.775	289.64
859.158	341.13
859.541	270.92
859.924	270.92
860.307	301.34
860.69	291.98
861.073	322.41
861.456	324.75
861.838	306.03
862.221	327.09
862.604	308.37
862.986	266.24
863.369	263.9
863.751	273.26
864.133	329.43
864.516	394.97
864.898	345.81
865.28	322.41
865.662	280.28
866.044	317.73
866.426	266.24
866.808	324.75
867.19	327.09
867.572	338.79
867.954	404.33
868.336	313.05
868.717	301.34
869.099	268.58
869.48	317.73
869.862	327.09
870.243	336.45
870.625	289.64
871.006	301.34
871.387	287.3
871.768	287.3
872.149	221.77
872.53	348.15
872.911	331.77
873.292	315.39
873.673	320.07
874.054	306.03
874.435	378.58
874.815	313.05
875.196	385.6
875.577	322.41
875.957	310.71
876.338	345.81
876.718	280.28
877.098	303.68
877.479	383.26
877.859	317.73
878.239	371.56
878.619	301.34
878.999	294.32
879.379	315.39
879.759	357.52
880.139	282.62
880.519	308.37
880.898	345.81
881.278	343.47
881.658	350.5
882.037	313.05
882.417	334.11
882.796	287.3
883.176	366.88
883.555	345.81
883.934	313.05
884.313	329.43
884.693	306.03
885.072	336.45
885.451	338.79
885.83	322.41
886.209	275.6
886.587	306.03
886.966	324.75
887.345	308.37
887.724	359.86
888.102	303.68
888.481	320.07
888.859	376.24
889.238	277.94
889.616	317.73
889.994	336.45
890.373	280.28
890.751	322.41
891.129	315.39
891.507	273.26
891.885	366.88
892.263	306.03
892.641	303.68
893.019	348.15
893.396	289.64
893.774	350.5
894.152	268.58
894.529	355.18
894.907	345.81
895.284	324.75
895.662	270.92
896.039	240.49
896.416	296.66
896.794	259.21
897.171	301.34
897.548	352.84
897.925	334.11
898.302	296.66
898.679	320.07
899.056	270.92
899.433	320.07
899.809	296.66
900.186	235.81
900.563	322.41
900.939	348.15
901.316	341.13
901.692	301.34
902.069	228.79
902.445	299
902.821	247.51
903.197	401.99
903.574	322.41
903.95	322.41
904.326	338.79
904.702	284.96
905.078	291.98
905.454	242.83
905.829	322.41
906.205	322.41
906.581	327.09
906.956	327.09
907.332	273.26
907.707	280.28
908.083	252.19
908.458	296.66
908.833	310.71
909.209	308.37
909.584	254.53
909.959	301.34
910.334	282.62
910.709	299
911.084	301.34
911.459	242.83
911.834	308.37
912.209	266.24
912.583	334.11
912.958	313.05
913.333	301.34
913.707	268.58
914.082	275.6
914.456	254.53
914.83	369.22
915.205	299
915.579	254.53
915.953	284.96
916.327	322.41
916.701	345.81
917.075	259.21
917.449	303.68
917.823	261.55
918.197	322.41
918.571	315.39
918.944	268.58
919.318	294.32
919.692	296.66
920.065	341.13
920.438	320.07
920.812	301.34
921.185	336.45
921.558	282.62
921.932	313.05
922.305	350.5
922.678	322.41
923.051	334.11
923.424	336.45
923.797	294.32
924.17	369.22
924.542	345.81
924.915	324.75
925.288	296.66
925.661	397.31
926.033	275.6
926.406	296.66
926.778	306.03
927.15	301.34
927.523	294.32
927.895	378.58
928.267	287.3
928.639	348.15
929.011	270.92
929.383	336.45
929.755	303.68
930.127	320.07
930.499	345.81
930.871	310.71
931.242	306.03
931.614	261.55
931.986	284.96
932.357	277.94
932.729	256.87
933.1	296.66
933.471	259.21
933.843	299
934.214	259.21
934.585	313.05
934.956	277.94
935.327	320.07
935.698	296.66
936.069	343.47
936.44	299
936.811	366.88
937.182	327.09
937.552	282.62
937.923	329.43
938.293	268.58
938.664	303.68
939.034	320.07
939.405	317.73
939.775	303.68
940.145	301.34
940.516	313.05
940.886	280.28
941.256	287.3
941.626	294.32
941.996	299
942.366	341.13
942.735	296.66
943.105	263.9
943.475	299
943.845	287.3
944.214	313.05
944.584	315.39
944.953	345.81
945.323	282.62
945.692	287.3
946.061	266.24
946.43	320.07
946.8	320.07
947.169	313.05
947.538	348.15
947.907	294.32
948.276	284.96
948.645	299
949.013	280.28
949.382	289.64
949.751	238.15
950.119	341.13
950.488	249.85
950.857	287.3
951.225	277.94
951.593	261.55
951.962	341.13
952.33	263.9
952.698	282.62
953.066	282.62
953.434	320.07
953.802	303.68
954.17	289.64
954.538	359.86
954.906	299
955.274	256.87
955.642	284.96
956.009	310.71
956.377	294.32
956.744	277.94
957.112	252.19
957.479	261.55
957.847	252.19
958.214	345.81
958.581	338.79
958.948	334.11
959.315	343.47
959.683	282.62
960.05	287.3
960.416	261.55
960.783	315.39
961.15	329.43
961.517	359.86
961.884	263.9
962.25	334.11
962.617	376.24
962.983	280.28
963.35	327.09
963.716	331.77
964.082	277.94
964.449	369.22
964.815	315.39
965.181	315.39
965.547	345.81
965.913	338.79
966.279	256.87
966.645	296.66
967.011	301.34
967.377	329.43
967.742	294.32
968.108	313.05
968.474	357.52
968.839	336.45
969.205	373.9
969.57	355.18
969.935	383.26
970.301	336.45
970.666	320.07
971.031	296.66
971.396	329.43
971.761	320.07
972.126	301.34
972.491	280.28
972.856	306.03
973.221	322.41
973.586	383.26
973.95	317.73
974.315	306.03
974.679	301.34
975.044	284.96
975.408	301.34
975.773	287.3
976.137	273.26
976.501	313.05
976.866	336.45
977.23	308.37
977.594	334.11
977.958	331.77
978.322	228.79
978.686	324.75
979.049	338.79
979.413	343.47
979.777	275.6
980.141	327.09
980.504	240.49
980.868	280.28
981.231	245.17
981.595	275.6
981.958	254.53
982.321	315.39
982.684	371.56
983.048	345.81
983.411	261.55
983.774	299
984.137	291.98
984.5	301.34
984.862	245.17
985.225	324.75
985.588	296.66
985.951	270.92
986.313	308.37
986.676	294.32
987.038	338.79
987.401	296.66
987.763	343.47
988.125	334.11
988.488	275.6
988.85	317.73
989.212	306.03
989.574	315.39
989.936	352.84
990.298	280.28
990.66	306.03
991.022	212.4
991.383	320.07
991.745	348.15
992.107	324.75
992.468	287.3
992.83	334.11
993.191	289.64
993.553	308.37
993.914	277.94
994.275	291.98
994.637	352.84
994.998	334.11
995.359	273.26
995.72	287.3
996.081	355.18
996.442	287.3
996.803	348.15
997.163	322.41
997.524	259.21
997.885	301.34
998.245	301.34
998.606	284.96
998.966	266.24
999.327	306.03
999.687	308.37
1000.047	313.05
1000.408	299
1000.768	317.73
1001.128	273.26
1001.488	291.98
1001.848	200.7
1002.208	259.21
1002.568	282.62
1002.927	284.96
1003.287	284.96
1003.647	378.58
1004.007	273.26
1004.366	289.64
1004.726	308.37
1005.085	280.28
1005.444	303.68
1005.804	322.41
1006.163	329.43
1006.522	277.94
1006.881	310.71
1007.24	299
1007.599	364.54
1007.958	322.41
1008.317	376.24
1008.676	228.79
1009.035	301.34
1009.393	296.66
1009.752	289.64
1010.111	317.73
1010.469	284.96
1010.828	341.13
1011.186	306.03
1011.544	301.34
1011.903	310.71
1012.261	317.73
1012.619	261.55
1012.977	315.39
1013.335	214.74
1013.693	336.45
1014.051	287.3
1014.409	343.47
1014.767	348.15
1015.124	306.03
1015.482	301.34
1015.84	291.98
1016.197	249.85
1016.555	308.37
1016.912	282.62
1017.269	317.73
1017.627	336.45
1017.984	277.94
1018.341	315.39
1018.698	299
1019.055	320.07
1019.412	348.15
1019.769	273.26
1020.126	320.07
1020.483	277.94
1020.84	261.55
1021.196	341.13
1021.553	238.15
1021.909	313.05
1022.266	291.98
1022.622	296.66
1022.979	313.05
1023.335	327.09
1023.691	331.77
1024.047	303.68
1024.404	315.39
1024.76	331.77
1025.116	282.62
1025.472	313.05
1025.827	317.73
1026.183	329.43
1026.539	313.05
1026.895	270.92
1027.25	308.37
1027.606	259.21
1027.961	275.6
1028.317	308.37
1028.672	334.11
1029.028	338.79
1029.383	259.21
1029.738	345.81
1030.093	357.52
1030.448	249.85
1030.803	331.77
1031.158	315.39
1031.513	315.39
1031.868	294.32
1032.223	301.34
1032.577	397.31
1032.932	291.98
1033.287	287.3
1033.641	327.09
1033.996	284.96
1034.35	294.32
1034.704	303.68
1035.059	315.39
1035.413	324.75
1035.767	324.75
1036.121	324.75
