Data from Al_FLMS009871__1194__16-40-39-382.txt Node

Date: Fri Mar 08 16:40:39 CST 2024
User: pe5414po
Spectrometer: FLMS00987
Trigger mode: 0
Integration Time (sec): 1.000000E-1
Scans to average: 1
Electric dark correction enabled: true
Nonlinearity correction enabled: false
Boxcar width: 0
XAxis mode: Wavelengths
Number of Pixels in Spectrum: 2048
>>>>>Begin Spectral Data<<<<<
188.938	-99.91
189.409	-99.91
189.879	-99.91
190.349	-111.61
190.819	-53.1
191.29	-109.27
191.76	-92.89
192.23	-71.83
192.7	-109.27
193.17	-71.83
193.64	-71.83
194.109	-43.74
194.579	-29.7
195.049	-10.97
195.519	45.2
195.988	26.48
196.458	59.24
196.927	75.63
197.397	89.67
197.866	141.16
198.336	173.93
198.805	110.74
199.274	171.59
199.744	159.89
200.213	162.23
200.682	225.42
201.151	211.38
201.62	246.49
202.089	227.76
202.558	265.21
203.027	255.85
203.495	244.15
203.964	246.49
204.433	218.4
204.902	279.26
205.37	279.26
205.839	269.89
206.307	330.75
206.776	279.26
207.244	286.28
207.712	281.6
208.181	319.04
208.649	307.34
209.117	262.87
209.585	262.87
210.053	251.17
210.521	269.89
210.989	290.96
211.457	288.62
211.925	302.66
212.393	290.96
212.861	258.19
213.328	283.94
213.796	337.77
214.264	293.3
214.731	274.57
215.199	295.64
215.666	269.89
216.133	223.08
216.601	344.79
217.068	321.38
217.535	309.68
218.003	253.51
218.47	295.64
218.937	300.32
219.404	274.57
219.871	312.02
220.338	302.66
220.805	286.28
221.271	237.13
221.738	283.94
222.205	279.26
222.671	209.04
223.138	262.87
223.605	218.4
224.071	265.21
224.538	220.74
225.004	302.66
225.47	204.36
225.937	260.53
226.403	269.89
226.869	262.87
227.335	232.44
227.801	305
228.267	305
228.733	267.55
229.199	265.21
229.665	244.15
230.131	305
230.597	300.32
231.062	248.83
231.528	190.31
231.994	265.21
232.459	253.51
232.925	209.04
233.39	290.96
233.856	241.81
234.321	209.04
234.786	260.53
235.252	283.94
235.717	279.26
236.182	272.23
236.647	269.89
237.112	295.64
237.577	237.13
238.042	262.87
238.507	213.72
238.972	262.87
239.436	276.91
239.901	223.08
240.366	302.66
240.83	272.23
241.295	307.34
241.76	286.28
242.224	300.32
242.688	251.17
243.153	283.94
243.617	319.04
244.081	267.55
244.545	312.02
245.01	305
245.474	297.98
245.938	213.72
246.402	248.83
246.866	260.53
247.33	272.23
247.793	319.04
248.257	314.36
248.721	300.32
249.185	347.13
249.648	288.62
250.112	302.66
250.575	328.41
251.039	354.15
251.502	312.02
251.965	276.91
252.429	255.85
252.892	265.21
253.355	258.19
253.818	283.94
254.281	272.23
254.744	265.21
255.207	232.44
255.67	328.41
256.133	307.34
256.596	340.11
257.059	274.57
257.522	305
257.984	326.07
258.447	281.6
258.909	377.56
259.372	274.57
259.834	262.87
260.297	234.78
260.759	255.85
261.221	265.21
261.684	255.85
262.146	232.44
262.608	279.26
263.07	265.21
263.532	302.66
263.994	274.57
264.456	347.13
264.918	258.19
265.38	241.81
265.842	321.38
266.303	326.07
266.765	307.34
267.227	290.96
267.688	328.41
268.15	241.81
268.611	347.13
269.072	220.74
269.534	269.89
269.995	274.57
270.456	234.78
270.918	312.02
271.379	244.15
271.84	319.04
272.301	288.62
272.762	288.62
273.223	293.3
273.684	288.62
274.144	316.7
274.605	281.6
275.066	295.64
275.527	279.26
275.987	319.04
276.448	253.51
276.908	330.75
277.369	365.85
277.829	239.47
278.289	293.3
278.75	283.94
279.21	297.98
279.67	246.49
280.13	319.04
280.59	232.44
281.05	354.15
281.51	290.96
281.97	293.3
282.43	213.72
282.89	333.09
283.35	234.78
283.809	255.85
284.269	302.66
284.729	309.68
285.188	328.41
285.648	302.66
286.107	321.38
286.567	269.89
287.026	269.89
287.485	255.85
287.944	316.7
288.404	330.75
288.863	290.96
289.322	234.78
289.781	246.49
290.24	319.04
290.699	321.38
291.158	251.17
291.616	274.57
292.075	297.98
292.534	255.85
292.992	241.81
293.451	319.04
293.91	326.07
294.368	276.91
294.827	283.94
295.285	300.32
295.743	302.66
296.202	206.7
296.66	248.83
297.118	307.34
297.576	312.02
298.034	255.85
298.492	251.17
298.95	281.6
299.408	314.36
299.866	274.57
300.324	293.3
300.781	253.51
301.239	354.15
301.697	319.04
302.154	260.53
302.612	260.53
303.069	260.53
303.527	333.09
303.984	297.98
304.441	253.51
304.899	300.32
305.356	276.91
305.813	323.73
306.27	253.51
306.727	307.34
307.184	279.26
307.641	309.68
308.098	295.64
308.555	293.3
309.012	319.04
309.468	389.26
309.925	335.43
310.382	262.87
310.838	326.07
311.295	288.62
311.751	328.41
312.208	361.17
312.664	330.75
313.12	267.55
313.577	300.32
314.033	321.38
314.489	258.19
314.945	260.53
315.401	309.68
315.857	260.53
316.313	227.76
316.769	290.96
317.225	290.96
317.681	283.94
318.136	300.32
318.592	307.34
319.048	340.11
319.503	321.38
319.959	213.72
320.414	302.66
320.869	319.04
321.325	218.4
321.78	283.94
322.235	262.87
322.691	279.26
323.146	307.34
323.601	279.26
324.056	265.21
324.511	293.3
324.966	211.38
325.421	216.06
325.875	319.04
326.33	232.44
326.785	283.94
327.24	295.64
327.694	340.11
328.149	312.02
328.603	305
329.058	321.38
329.512	206.7
329.966	321.38
330.421	293.3
330.875	281.6
331.329	335.43
331.783	283.94
332.237	293.3
332.691	223.08
333.145	288.62
333.599	314.36
334.053	344.79
334.507	326.07
334.96	356.49
335.414	290.96
335.868	365.85
336.321	309.68
336.775	328.41
337.228	316.7
337.682	297.98
338.135	330.75
338.588	283.94
339.042	255.85
339.495	253.51
339.948	323.73
340.401	330.75
340.854	330.75
341.307	251.17
341.76	312.02
342.213	365.85
342.666	265.21
343.119	326.07
343.571	323.73
344.024	302.66
344.477	293.3
344.929	297.98
345.382	276.91
345.834	286.28
346.287	283.94
346.739	340.11
347.191	305
347.644	323.73
348.096	262.87
348.548	269.89
349	344.79
349.452	281.6
349.904	295.64
350.356	265.21
350.808	356.49
351.26	319.04
351.711	265.21
352.163	337.77
352.615	213.72
353.066	316.7
353.518	279.26
353.969	283.94
354.421	269.89
354.872	244.15
355.324	305
355.775	323.73
356.226	297.98
356.677	305
357.128	330.75
357.579	305
358.03	375.22
358.481	319.04
358.932	290.96
359.383	302.66
359.834	328.41
360.285	335.43
360.735	312.02
361.186	288.62
361.637	274.57
362.087	330.75
362.538	314.36
362.988	232.44
363.438	239.47
363.889	372.88
364.339	227.76
364.789	276.91
365.239	248.83
365.689	347.13
366.139	295.64
366.589	274.57
367.039	314.36
367.489	290.96
367.939	288.62
368.389	281.6
368.839	279.26
369.288	290.96
369.738	302.66
370.187	305
370.637	340.11
371.086	286.28
371.536	363.51
371.985	274.57
372.434	281.6
372.884	279.26
373.333	342.45
373.782	375.22
374.231	307.34
374.68	265.21
375.129	309.68
375.578	309.68
376.027	302.66
376.475	323.73
376.924	288.62
377.373	251.17
377.822	344.79
378.27	260.53
378.719	333.09
379.167	295.64
379.616	319.04
380.064	272.23
380.512	300.32
380.961	267.55
381.409	347.13
381.857	340.11
382.305	279.26
382.753	302.66
383.201	314.36
383.649	265.21
384.097	330.75
384.545	314.36
384.992	302.66
385.44	295.64
385.888	265.21
386.335	269.89
386.783	305
387.231	307.34
387.678	356.49
388.125	340.11
388.573	300.32
389.02	290.96
389.467	305
389.914	363.51
390.362	288.62
390.809	307.34
391.256	321.38
391.703	300.32
392.15	328.41
392.596	328.41
393.043	333.09
393.49	335.43
393.937	377.56
394.383	330.75
394.83	283.94
395.276	323.73
395.723	323.73
396.169	307.34
396.616	302.66
397.062	316.7
397.508	323.73
397.954	370.54
398.401	333.09
398.847	246.49
399.293	267.55
399.739	361.17
400.185	286.28
400.631	319.04
401.076	260.53
401.522	379.9
401.968	323.73
402.414	337.77
402.859	260.53
403.305	295.64
403.75	328.41
404.196	305
404.641	297.98
405.086	248.83
405.532	248.83
405.977	232.44
406.422	267.55
406.867	356.49
407.312	290.96
407.757	305
408.202	328.41
408.647	276.91
409.092	274.57
409.537	237.13
409.982	342.45
410.426	354.15
410.871	328.41
411.316	293.3
411.76	279.26
412.205	258.19
412.649	281.6
413.093	274.57
413.538	330.75
413.982	309.68
414.426	300.32
414.87	363.51
415.314	283.94
415.758	293.3
416.202	321.38
416.646	316.7
417.09	305
417.534	302.66
417.978	330.75
418.421	307.34
418.865	323.73
419.309	328.41
419.752	386.92
420.196	307.34
420.639	300.32
421.083	305
421.526	312.02
421.969	335.43
422.412	272.23
422.856	326.07
423.299	286.28
423.742	321.38
424.185	337.77
424.628	335.43
425.071	290.96
425.513	300.32
425.956	279.26
426.399	326.07
426.842	305
427.284	237.13
427.727	288.62
428.169	347.13
428.612	323.73
429.054	337.77
429.497	326.07
429.939	290.96
430.381	293.3
430.823	248.83
431.265	269.89
431.707	314.36
432.149	391.6
432.591	288.62
433.033	290.96
433.475	403.3
433.917	276.91
434.359	337.77
434.8	356.49
435.242	321.38
435.684	340.11
436.125	248.83
436.567	344.79
437.008	344.79
437.449	377.56
437.891	335.43
438.332	276.91
438.773	248.83
439.214	305
439.656	279.26
440.097	300.32
440.538	309.68
440.978	323.73
441.419	333.09
441.86	309.68
442.301	340.11
442.742	316.7
443.182	351.81
443.623	281.6
444.063	340.11
444.504	330.75
444.944	314.36
445.385	290.96
445.825	307.34
446.265	269.89
446.706	326.07
447.146	276.91
447.586	293.3
448.026	281.6
448.466	286.28
448.906	337.77
449.346	365.85
449.786	344.79
450.225	326.07
450.665	281.6
451.105	326.07
451.544	283.94
451.984	286.28
452.424	300.32
452.863	307.34
453.302	253.51
453.742	260.53
454.181	361.17
454.62	241.81
455.059	300.32
455.499	316.7
455.938	300.32
456.377	333.09
456.816	309.68
457.254	260.53
457.693	305
458.132	330.75
458.571	290.96
459.01	274.57
459.448	356.49
459.887	276.91
460.325	274.57
460.764	330.75
461.202	354.15
461.641	297.98
462.079	351.81
462.517	335.43
462.955	354.15
463.393	286.28
463.832	281.6
464.27	323.73
464.708	239.47
465.145	309.68
465.583	314.36
466.021	326.07
466.459	333.09
466.897	248.83
467.334	274.57
467.772	300.32
468.209	361.17
468.647	323.73
469.084	244.15
469.522	297.98
469.959	377.56
470.396	347.13
470.833	356.49
471.271	344.79
471.708	333.09
472.145	377.56
472.582	330.75
473.019	349.47
473.456	333.09
473.892	253.51
474.329	293.3
474.766	349.47
475.202	283.94
475.639	384.58
476.076	316.7
476.512	265.21
476.949	288.62
477.385	288.62
477.821	340.11
478.258	286.28
478.694	312.02
479.13	365.85
479.566	351.81
480.002	368.2
480.438	351.81
480.874	297.98
481.31	316.7
481.746	253.51
482.181	269.89
482.617	286.28
483.053	389.26
483.488	328.41
483.924	321.38
484.36	295.64
484.795	347.13
485.23	262.87
485.666	288.62
486.101	312.02
486.536	295.64
486.971	312.02
487.407	415.01
487.842	347.13
488.277	288.62
488.712	337.77
489.146	312.02
489.581	340.11
490.016	232.44
490.451	319.04
490.885	307.34
491.32	363.51
491.755	246.49
492.189	272.23
492.624	326.07
493.058	258.19
493.492	295.64
493.927	386.92
494.361	349.47
494.795	290.96
495.229	253.51
495.663	300.32
496.097	269.89
496.531	354.15
496.965	302.66
497.399	316.7
497.833	326.07
498.266	319.04
498.7	319.04
499.134	307.34
499.567	323.73
500.001	290.96
500.434	269.89
500.868	312.02
501.301	262.87
501.734	351.81
502.168	293.3
502.601	305
503.034	279.26
503.467	251.17
503.9	267.55
504.333	326.07
504.766	319.04
505.199	337.77
505.632	239.47
506.064	276.91
506.497	328.41
506.93	340.11
507.362	283.94
507.795	328.41
508.227	286.28
508.66	312.02
509.092	279.26
509.524	293.3
509.956	321.38
510.389	351.81
510.821	265.21
511.253	347.13
511.685	227.76
512.117	288.62
512.549	309.68
512.981	297.98
513.412	237.13
513.844	302.66
514.276	286.28
514.707	260.53
515.139	281.6
515.571	382.24
516.002	340.11
516.433	276.91
516.865	276.91
517.296	358.83
517.727	323.73
518.159	321.38
518.59	351.81
519.021	286.28
519.452	321.38
519.883	300.32
520.314	274.57
520.744	337.77
521.175	370.54
521.606	326.07
522.037	274.57
522.467	335.43
522.898	279.26
523.328	290.96
523.759	328.41
524.189	307.34
524.62	281.6
525.05	328.41
525.48	316.7
525.91	269.89
526.341	262.87
526.771	274.57
527.201	283.94
527.631	314.36
528.061	295.64
528.49	274.57
528.92	340.11
529.35	326.07
529.78	314.36
530.209	300.32
530.639	241.81
531.068	363.51
531.498	365.85
531.927	281.6
532.357	321.38
532.786	281.6
533.215	314.36
533.644	340.11
534.074	274.57
534.503	312.02
534.932	283.94
535.361	305
535.79	349.47
536.218	251.17
536.647	344.79
537.076	223.08
537.505	276.91
537.933	312.02
538.362	333.09
538.79	281.6
539.219	351.81
539.647	262.87
540.076	321.38
540.504	300.32
540.932	302.66
541.36	323.73
541.788	335.43
542.217	321.38
542.645	269.89
543.073	293.3
543.5	319.04
543.928	379.9
544.356	340.11
544.784	314.36
545.211	302.66
545.639	335.43
546.067	290.96
546.494	391.6
546.922	290.96
547.349	316.7
547.776	319.04
548.204	297.98
548.631	351.81
549.058	279.26
549.485	272.23
549.912	326.07
550.339	319.04
550.766	295.64
551.193	305
551.62	293.3
552.047	319.04
552.474	260.53
552.9	262.87
553.327	319.04
553.754	265.21
554.18	316.7
554.607	342.45
555.033	260.53
555.459	363.51
555.886	307.34
556.312	333.09
556.738	305
557.164	333.09
557.59	305
558.016	356.49
558.442	361.17
558.868	314.36
559.294	393.94
559.72	258.19
560.145	335.43
560.571	319.04
560.997	356.49
561.422	326.07
561.848	281.6
562.273	262.87
562.699	330.75
563.124	326.07
563.549	305
563.974	391.6
564.4	288.62
564.825	293.3
565.25	290.96
565.675	216.06
566.1	262.87
566.525	262.87
566.95	218.4
567.374	279.26
567.799	274.57
568.224	302.66
568.648	274.57
569.073	340.11
569.497	328.41
569.922	358.83
570.346	354.15
570.771	302.66
571.195	246.49
571.619	312.02
572.043	307.34
572.467	305
572.891	297.98
573.315	326.07
573.739	340.11
574.163	276.91
574.587	295.64
575.011	333.09
575.435	309.68
575.858	265.21
576.282	319.04
576.705	314.36
577.129	281.6
577.552	283.94
577.976	344.79
578.399	312.02
578.822	309.68
579.245	302.66
579.669	251.17
580.092	337.77
580.515	312.02
580.938	326.07
581.361	307.34
581.784	323.73
582.206	400.96
582.629	330.75
583.052	323.73
583.474	290.96
583.897	337.77
584.32	323.73
584.742	307.34
585.165	276.91
585.587	307.34
586.009	316.7
586.431	319.04
586.854	272.23
587.276	328.41
587.698	272.23
588.12	272.23
588.542	279.26
588.964	382.24
589.386	321.38
589.807	265.21
590.229	321.38
590.651	333.09
591.073	258.19
591.494	274.57
591.916	279.26
592.337	255.85
592.759	305
593.18	356.49
593.601	330.75
594.022	258.19
594.444	269.89
594.865	375.22
595.286	274.57
595.707	251.17
596.128	286.28
596.549	295.64
596.97	312.02
597.39	293.3
597.811	314.36
598.232	333.09
598.652	206.7
599.073	335.43
599.494	344.79
599.914	342.45
600.334	286.28
600.755	283.94
601.175	281.6
601.595	276.91
602.015	314.36
602.436	314.36
602.856	433.73
603.276	321.38
603.696	305
604.115	300.32
604.535	286.28
604.955	283.94
605.375	344.79
605.794	314.36
606.214	354.15
606.634	323.73
607.053	302.66
607.473	286.28
607.892	300.32
608.311	347.13
608.731	300.32
609.15	279.26
609.569	300.32
609.988	307.34
610.407	297.98
610.826	302.66
611.245	305
611.664	307.34
612.083	295.64
612.501	295.64
612.92	340.11
613.339	309.68
613.757	351.81
614.176	323.73
614.594	351.81
615.013	349.47
615.431	297.98
615.85	328.41
616.268	258.19
616.686	328.41
617.104	326.07
617.522	309.68
617.94	297.98
618.358	258.19
618.776	293.3
619.194	342.45
619.612	312.02
620.03	253.51
620.447	309.68
620.865	283.94
621.282	323.73
621.7	358.83
622.117	288.62
622.535	354.15
622.952	255.85
623.369	323.73
623.787	326.07
624.204	202.02
624.621	365.85
625.038	297.98
625.455	305
625.872	305
626.289	342.45
626.706	391.6
627.123	305
627.539	365.85
627.956	290.96
628.373	309.68
628.789	305
629.206	300.32
629.622	297.98
630.038	274.57
630.455	288.62
630.871	300.32
631.287	297.98
631.703	328.41
632.12	321.38
632.536	319.04
632.952	330.75
633.368	267.55
633.783	326.07
634.199	283.94
634.615	293.3
635.031	307.34
635.446	309.68
635.862	309.68
636.277	302.66
636.693	335.43
637.108	305
637.524	354.15
637.939	326.07
638.354	265.21
638.77	295.64
639.185	267.55
639.6	239.47
640.015	305
640.43	326.07
640.845	323.73
641.259	337.77
641.674	267.55
642.089	375.22
642.504	305
642.918	305
643.333	358.83
643.747	286.28
644.162	255.85
644.576	319.04
644.991	309.68
645.405	335.43
645.819	305
646.233	391.6
646.647	335.43
647.061	293.3
647.475	295.64
647.889	347.13
648.303	300.32
648.717	323.73
649.131	330.75
649.545	300.32
649.958	246.49
650.372	307.34
650.785	328.41
651.199	307.34
651.612	260.53
652.026	330.75
652.439	300.32
652.852	312.02
653.266	286.28
653.679	272.23
654.092	297.98
654.505	223.08
654.918	335.43
655.331	295.64
655.744	321.38
656.156	276.91
656.569	272.23
656.982	286.28
657.394	262.87
657.807	321.38
658.22	319.04
658.632	246.49
659.044	295.64
659.457	251.17
659.869	349.47
660.281	326.07
660.693	302.66
661.106	309.68
661.518	295.64
661.93	204.36
662.342	267.55
662.754	330.75
663.165	307.34
663.577	300.32
663.989	276.91
664.401	319.04
664.812	223.08
665.224	272.23
665.635	260.53
666.047	305
666.458	288.62
666.869	281.6
667.281	297.98
667.692	300.32
668.103	333.09
668.514	342.45
668.925	274.57
669.336	309.68
669.747	269.89
670.158	281.6
670.569	309.68
670.979	316.7
671.39	326.07
671.801	276.91
672.211	274.57
672.622	288.62
673.032	305
673.443	323.73
673.853	314.36
674.263	297.98
674.674	351.81
675.084	300.32
675.494	305
675.904	333.09
676.314	300.32
676.724	305
677.134	316.7
677.544	337.77
677.953	319.04
678.363	316.7
678.773	337.77
679.182	347.13
679.592	415.01
680.001	349.47
680.411	295.64
680.82	326.07
681.23	326.07
681.639	330.75
682.048	274.57
682.457	286.28
682.866	290.96
683.275	281.6
683.684	283.94
684.093	297.98
684.502	328.41
684.911	302.66
685.32	293.3
685.728	274.57
686.137	300.32
686.546	312.02
686.954	326.07
687.363	330.75
687.771	283.94
688.179	349.47
688.588	382.24
688.996	347.13
689.404	269.89
689.812	307.34
690.22	260.53
690.628	305
691.036	269.89
691.444	365.85
691.852	403.3
692.26	319.04
692.667	333.09
693.075	248.83
693.483	274.57
693.89	302.66
694.298	279.26
694.705	262.87
695.112	262.87
695.52	255.85
695.927	316.7
696.334	328.41
696.741	265.21
697.148	316.7
697.555	269.89
697.962	300.32
698.369	297.98
698.776	265.21
699.183	295.64
699.59	272.23
699.996	321.38
700.403	305
700.81	279.26
701.216	267.55
701.623	307.34
702.029	307.34
702.435	337.77
702.842	314.36
703.248	356.49
703.654	347.13
704.06	384.58
704.466	251.17
704.872	267.55
705.278	349.47
705.684	293.3
706.09	377.56
706.496	276.91
706.901	300.32
707.307	330.75
707.712	316.7
708.118	344.79
708.523	276.91
708.929	237.13
709.334	293.3
709.74	314.36
710.145	314.36
710.55	290.96
710.955	340.11
711.36	297.98
711.765	290.96
712.17	305
712.575	340.11
712.98	766.09
713.385	361.17
713.789	251.17
714.194	319.04
714.599	251.17
715.003	342.45
715.408	305
715.812	319.04
716.217	340.11
716.621	272.23
717.025	305
717.429	295.64
717.833	269.89
718.238	307.34
718.642	349.47
719.046	333.09
719.449	300.32
719.853	314.36
720.257	356.49
720.661	302.66
721.065	276.91
721.468	241.81
721.872	323.73
722.275	358.83
722.679	316.7
723.082	342.45
723.485	309.68
723.889	300.32
724.292	269.89
724.695	286.28
725.098	370.54
725.501	326.07
725.904	344.79
726.307	351.81
726.71	305
727.113	244.15
727.516	220.74
727.918	328.41
728.321	305
728.724	305
729.126	429.05
729.529	365.85
729.931	386.92
730.333	305
730.736	389.26
731.138	295.64
731.54	302.66
731.942	274.57
732.344	300.32
732.746	314.36
733.148	290.96
733.55	316.7
733.952	297.98
734.354	330.75
734.756	347.13
735.157	293.3
735.559	319.04
735.96	248.83
736.362	340.11
736.763	251.17
737.165	269.89
737.566	312.02
737.967	323.73
738.368	279.26
738.77	314.36
739.171	309.68
739.572	326.07
739.973	295.64
740.374	286.28
740.774	230.1
741.175	307.34
741.576	286.28
741.977	337.77
742.377	286.28
742.778	393.94
743.178	356.49
743.579	333.09
743.979	279.26
744.379	272.23
744.78	307.34
745.18	349.47
745.58	305
745.98	347.13
746.38	330.75
746.78	319.04
747.18	302.66
747.58	276.91
747.98	335.43
748.38	274.57
748.779	302.66
749.179	316.7
749.578	375.22
749.978	337.77
750.377	274.57
750.777	279.26
751.176	347.13
751.575	269.89
751.975	283.94
752.374	330.75
752.773	323.73
753.172	330.75
753.571	328.41
753.97	354.15
754.369	260.53
754.768	295.64
755.166	312.02
755.565	335.43
755.964	272.23
756.362	323.73
756.761	305
757.159	274.57
757.558	323.73
757.956	227.76
758.354	300.32
758.753	272.23
759.151	297.98
759.549	230.1
759.947	293.3
760.345	344.79
760.743	326.07
761.141	356.49
761.539	328.41
761.936	283.94
762.334	262.87
762.732	300.32
763.129	307.34
763.527	326.07
763.924	297.98
764.322	330.75
764.719	307.34
765.117	305
765.514	309.68
765.911	328.41
766.308	330.75
766.705	333.09
767.102	347.13
767.499	316.7
767.896	316.7
768.293	326.07
768.69	309.68
769.086	302.66
769.483	309.68
769.88	253.51
770.276	276.91
770.673	279.26
771.069	368.2
771.466	255.85
771.862	288.62
772.258	351.81
772.654	379.9
773.05	269.89
773.447	283.94
773.843	328.41
774.239	319.04
774.634	295.64
775.03	295.64
775.426	372.88
775.822	358.83
776.218	335.43
776.613	328.41
777.009	323.73
777.404	230.1
777.8	326.07
778.195	295.64
778.59	293.3
778.986	361.17
779.381	258.19
779.776	328.41
780.171	323.73
780.566	302.66
780.961	342.45
781.356	379.9
781.751	358.83
782.146	323.73
782.54	326.07
782.935	305
783.33	267.55
783.724	288.62
784.119	248.83
784.513	333.09
784.908	225.42
785.302	295.64
785.696	305
786.09	300.32
786.485	314.36
786.879	321.38
787.273	220.74
787.667	309.68
788.061	312.02
788.454	244.15
788.848	349.47
789.242	305
789.636	269.89
790.029	312.02
790.423	265.21
790.816	302.66
791.21	300.32
791.603	220.74
791.997	340.11
792.39	274.57
792.783	255.85
793.176	255.85
793.569	314.36
793.962	293.3
794.355	302.66
794.748	255.85
795.141	358.83
795.534	286.28
795.927	316.7
796.319	297.98
796.712	274.57
797.105	297.98
797.497	319.04
797.89	305
798.282	342.45
798.674	274.57
799.067	342.45
799.459	344.79
799.851	337.77
800.243	305
800.635	293.3
801.027	253.51
801.419	342.45
801.811	312.02
802.203	351.81
802.594	330.75
802.986	283.94
803.378	351.81
803.769	340.11
804.161	267.55
804.552	326.07
804.944	316.7
805.335	295.64
805.726	293.3
806.118	305
806.509	248.83
806.9	290.96
807.291	337.77
807.682	265.21
808.073	244.15
808.464	300.32
808.855	340.11
809.245	335.43
809.636	358.83
810.027	312.02
810.417	302.66
810.808	307.34
811.198	323.73
811.589	293.3
811.979	283.94
812.369	312.02
812.759	305
813.15	337.77
813.54	269.89
813.93	293.3
814.32	326.07
814.71	281.6
815.1	293.3
815.489	309.68
815.879	326.07
816.269	333.09
816.658	340.11
817.048	274.57
817.438	340.11
817.827	286.28
818.216	337.77
818.606	265.21
818.995	251.17
819.384	297.98
819.773	314.36
820.163	246.49
820.552	288.62
820.941	276.91
821.33	323.73
821.718	262.87
822.107	297.98
822.496	305
822.885	258.19
823.273	314.36
823.662	302.66
824.05	314.36
824.439	351.81
824.827	286.28
825.216	328.41
825.604	223.08
825.992	361.17
826.38	333.09
826.768	262.87
827.156	340.11
827.544	309.68
827.932	258.19
828.32	295.64
828.708	241.81
829.096	274.57
829.483	274.57
829.871	192.66
830.259	342.45
830.646	281.6
831.034	265.21
831.421	326.07
831.808	290.96
832.196	286.28
832.583	302.66
832.97	246.49
833.357	286.28
833.744	344.79
834.131	272.23
834.518	321.38
834.905	335.43
835.292	314.36
835.678	220.74
836.065	251.17
836.452	213.72
836.838	305
837.225	342.45
837.611	314.36
837.998	295.64
838.384	347.13
838.77	323.73
839.157	290.96
839.543	286.28
839.929	253.51
840.315	312.02
840.701	305
841.087	326.07
841.473	281.6
841.858	283.94
842.244	297.98
842.63	309.68
843.015	295.64
843.401	620.97
843.787	363.51
844.172	295.64
844.557	340.11
844.943	347.13
845.328	302.66
845.713	319.04
846.098	309.68
846.483	312.02
846.868	297.98
847.253	330.75
847.638	316.7
848.023	297.98
848.408	297.98
848.793	281.6
849.177	265.21
849.562	295.64
849.947	244.15
850.331	333.09
850.715	312.02
851.1	321.38
851.484	276.91
851.868	372.88
852.253	342.45
852.637	312.02
853.021	302.66
853.405	323.73
853.789	295.64
854.173	356.49
854.557	321.38
854.94	265.21
855.324	276.91
855.708	290.96
856.091	297.98
856.475	312.02
856.858	279.26
857.242	342.45
857.625	335.43
858.009	300.32
858.392	312.02
858.775	286.28
859.158	342.45
859.541	319.04
859.924	321.38
860.307	307.34
860.69	276.91
861.073	248.83
861.456	269.89
861.838	312.02
862.221	295.64
862.604	337.77
862.986	333.09
863.369	333.09
863.751	297.98
864.133	319.04
864.516	269.89
864.898	314.36
865.28	342.45
865.662	328.41
866.044	213.72
866.426	267.55
866.808	305
867.19	290.96
867.572	307.34
867.954	319.04
868.336	314.36
868.717	272.23
869.099	251.17
869.48	333.09
869.862	283.94
870.243	351.81
870.625	312.02
871.006	361.17
871.387	323.73
871.768	330.75
872.149	305
872.53	279.26
872.911	328.41
873.292	272.23
873.673	279.26
874.054	333.09
874.435	347.13
874.815	293.3
875.196	326.07
875.577	258.19
875.957	375.22
876.338	316.7
876.718	335.43
877.098	230.1
877.479	314.36
877.859	246.49
878.239	347.13
878.619	337.77
878.999	267.55
879.379	333.09
879.759	265.21
880.139	340.11
880.519	283.94
880.898	309.68
881.278	347.13
881.658	223.08
882.037	312.02
882.417	316.7
882.796	321.38
883.176	372.88
883.555	375.22
883.934	326.07
884.313	290.96
884.693	227.76
885.072	262.87
885.451	213.72
885.83	309.68
886.209	316.7
886.587	363.51
886.966	297.98
887.345	267.55
887.724	316.7
888.102	253.51
888.481	361.17
888.859	323.73
889.238	337.77
889.616	337.77
889.994	223.08
890.373	262.87
890.751	314.36
891.129	307.34
891.507	279.26
891.885	258.19
892.263	344.79
892.641	295.64
893.019	290.96
893.396	295.64
893.774	370.54
894.152	356.49
894.529	276.91
894.907	237.13
895.284	323.73
895.662	281.6
896.039	255.85
896.416	248.83
896.794	255.85
897.171	328.41
897.548	293.3
897.925	307.34
898.302	281.6
898.679	405.64
899.056	288.62
899.433	312.02
899.809	276.91
900.186	274.57
900.563	265.21
900.939	328.41
901.316	232.44
901.692	281.6
902.069	274.57
902.445	293.3
902.821	340.11
903.197	333.09
903.574	297.98
903.95	316.7
904.326	321.38
904.702	274.57
905.078	337.77
905.454	272.23
905.829	258.19
906.205	297.98
906.581	293.3
906.956	265.21
907.332	340.11
907.707	365.85
908.083	314.36
908.458	335.43
908.833	302.66
909.209	326.07
909.584	297.98
909.959	272.23
910.334	300.32
910.709	279.26
911.084	319.04
911.459	323.73
911.834	241.81
912.209	279.26
912.583	267.55
912.958	279.26
913.333	267.55
913.707	328.41
914.082	342.45
914.456	333.09
914.83	337.77
915.205	342.45
915.579	297.98
915.953	319.04
916.327	267.55
916.701	316.7
917.075	272.23
917.449	281.6
917.823	358.83
918.197	272.23
918.571	267.55
918.944	255.85
919.318	293.3
919.692	316.7
920.065	302.66
920.438	295.64
920.812	368.2
921.185	274.57
921.558	244.15
921.932	288.62
922.305	290.96
922.678	312.02
923.051	274.57
923.424	274.57
923.797	309.68
924.17	358.83
924.542	330.75
924.915	255.85
925.288	246.49
925.661	354.15
926.033	279.26
926.406	340.11
926.778	279.26
927.15	283.94
927.523	253.51
927.895	309.68
928.267	283.94
928.639	258.19
929.011	326.07
929.383	293.3
929.755	335.43
930.127	316.7
930.499	290.96
930.871	309.68
931.242	326.07
931.614	281.6
931.986	290.96
932.357	349.47
932.729	340.11
933.1	290.96
933.471	274.57
933.843	297.98
934.214	279.26
934.585	293.3
934.956	255.85
935.327	260.53
935.698	253.51
936.069	276.91
936.44	274.57
936.811	279.26
937.182	276.91
937.552	302.66
937.923	290.96
938.293	340.11
938.664	262.87
939.034	314.36
939.405	321.38
939.775	274.57
940.145	340.11
940.516	335.43
940.886	272.23
941.256	246.49
941.626	293.3
941.996	354.15
942.366	295.64
942.735	340.11
943.105	326.07
943.475	321.38
943.845	272.23
944.214	267.55
944.584	326.07
944.953	295.64
945.323	237.13
945.692	321.38
946.061	305
946.43	276.91
946.8	262.87
947.169	372.88
947.538	283.94
947.907	365.85
948.276	351.81
948.645	204.36
949.013	356.49
949.382	415.01
949.751	269.89
950.119	342.45
950.488	305
950.857	302.66
951.225	265.21
951.593	286.28
951.962	244.15
952.33	234.78
952.698	297.98
953.066	251.17
953.434	351.81
953.802	232.44
954.17	330.75
954.538	323.73
954.906	272.23
955.274	281.6
955.642	248.83
956.009	218.4
956.377	319.04
956.744	297.98
957.112	265.21
957.479	342.45
957.847	302.66
958.214	260.53
958.581	323.73
958.948	269.89
959.315	267.55
959.683	265.21
960.05	272.23
960.416	290.96
960.783	281.6
961.15	295.64
961.517	354.15
961.884	209.04
962.25	288.62
962.617	302.66
962.983	323.73
963.35	309.68
963.716	340.11
964.082	272.23
964.449	265.21
964.815	244.15
965.181	312.02
965.547	316.7
965.913	335.43
966.279	241.81
966.645	274.57
967.011	241.81
967.377	272.23
967.742	361.17
968.108	295.64
968.474	326.07
968.839	300.32
969.205	269.89
969.57	323.73
969.935	290.96
970.301	328.41
970.666	297.98
971.031	305
971.396	314.36
971.761	237.13
972.126	326.07
972.491	319.04
972.856	281.6
973.221	309.68
973.586	335.43
973.95	248.83
974.315	382.24
974.679	288.62
975.044	218.4
975.408	230.1
975.773	258.19
976.137	290.96
976.501	295.64
976.866	279.26
977.23	309.68
977.594	290.96
977.958	293.3
978.322	248.83
978.686	272.23
979.049	297.98
979.413	316.7
979.777	326.07
980.141	300.32
980.504	344.79
980.868	262.87
981.231	267.55
981.595	295.64
981.958	316.7
982.321	314.36
982.684	274.57
983.048	295.64
983.411	272.23
983.774	356.49
984.137	356.49
984.5	321.38
984.862	281.6
985.225	340.11
985.588	288.62
985.951	316.7
986.313	279.26
986.676	302.66
987.038	391.6
987.401	328.41
987.763	398.62
988.125	239.47
988.488	302.66
988.85	305
989.212	297.98
989.574	319.04
989.936	342.45
990.298	274.57
990.66	379.9
991.022	328.41
991.383	279.26
991.745	281.6
992.107	297.98
992.468	290.96
992.83	255.85
993.191	356.49
993.553	241.81
993.914	276.91
994.275	279.26
994.637	326.07
994.998	265.21
995.359	258.19
995.72	276.91
996.081	290.96
996.442	281.6
996.803	255.85
997.163	244.15
997.524	300.32
997.885	265.21
998.245	363.51
998.606	288.62
998.966	279.26
999.327	326.07
999.687	279.26
1000.047	286.28
1000.408	295.64
1000.768	262.87
1001.128	286.28
1001.488	258.19
1001.848	323.73
1002.208	333.09
1002.568	227.76
1002.927	276.91
1003.287	281.6
1003.647	356.49
1004.007	328.41
1004.366	297.98
1004.726	342.45
1005.085	274.57
1005.444	340.11
1005.804	265.21
1006.163	295.64
1006.522	276.91
1006.881	297.98
1007.24	293.3
1007.599	265.21
1007.958	356.49
1008.317	309.68
1008.676	361.17
1009.035	265.21
1009.393	302.66
1009.752	326.07
1010.111	283.94
1010.469	276.91
1010.828	209.04
1011.186	260.53
1011.544	337.77
1011.903	269.89
1012.261	286.28
1012.619	288.62
1012.977	337.77
1013.335	344.79
1013.693	267.55
1014.051	333.09
1014.409	323.73
1014.767	269.89
1015.124	295.64
1015.482	305
1015.84	295.64
1016.197	300.32
1016.555	323.73
1016.912	234.78
1017.269	319.04
1017.627	262.87
1017.984	246.49
1018.341	305
1018.698	363.51
1019.055	297.98
1019.412	288.62
1019.769	279.26
1020.126	328.41
1020.483	295.64
1020.84	333.09
1021.196	328.41
1021.553	300.32
1021.909	232.44
1022.266	234.78
1022.622	244.15
1022.979	293.3
1023.335	312.02
1023.691	337.77
1024.047	279.26
1024.404	321.38
1024.76	344.79
1025.116	302.66
1025.472	279.26
1025.827	347.13
1026.183	307.34
1026.539	314.36
1026.895	260.53
1027.25	319.04
1027.606	246.49
1027.961	276.91
1028.317	244.15
1028.672	319.04
1029.028	368.2
1029.383	241.81
1029.738	281.6
1030.093	283.94
1030.448	255.85
1030.803	279.26
1031.158	309.68
1031.513	283.94
1031.868	307.34
1032.223	302.66
1032.577	333.09
1032.932	297.98
1033.287	288.62
1033.641	276.91
1033.996	316.7
1034.35	300.32
1034.704	239.47
1035.059	314.36
1035.413	333.09
1035.767	333.09
1036.121	333.09
