Data from Al_FLMS009871__1195__16-40-39-482.txt Node

Date: Fri Mar 08 16:40:39 CST 2024
User: pe5414po
Spectrometer: FLMS00987
Trigger mode: 0
Integration Time (sec): 1.000000E-1
Scans to average: 1
Electric dark correction enabled: true
Nonlinearity correction enabled: false
Boxcar width: 0
XAxis mode: Wavelengths
Number of Pixels in Spectrum: 2048
>>>>>Begin Spectral Data<<<<<
188.938	-14.19
189.409	-14.19
189.879	-14.19
190.349	-140.58
190.819	-86.75
191.29	-96.11
191.76	-72.7
192.23	-56.32
192.7	-98.45
193.17	-49.3
193.64	-82.07
194.109	-37.59
194.579	51.35
195.049	2.19
195.519	39.64
195.988	27.94
196.458	23.26
196.927	39.64
197.397	98.16
197.866	93.48
198.336	116.88
198.805	123.9
199.274	168.37
199.744	292.42
200.213	233.91
200.682	208.16
201.151	247.95
201.62	261.99
202.089	219.86
202.558	224.55
203.027	257.31
203.495	254.97
203.964	360.3
204.433	283.06
204.902	322.85
205.37	259.65
205.839	341.57
206.307	264.33
206.776	336.89
207.244	343.91
207.712	367.32
208.181	320.51
208.649	252.63
209.117	318.17
209.585	334.55
210.053	280.72
210.521	294.76
210.989	304.12
211.457	280.72
211.925	325.19
212.393	187.1
212.861	264.33
213.328	264.33
213.796	261.99
214.264	311.14
214.731	374.34
215.199	261.99
215.666	294.76
216.133	280.72
216.601	290.08
217.068	280.72
217.535	238.59
218.003	306.46
218.47	285.4
218.937	327.53
219.404	304.12
219.871	311.14
220.338	278.38
220.805	292.42
221.271	276.04
221.738	297.1
222.205	257.31
222.671	273.7
223.138	313.49
223.605	273.7
224.071	240.93
224.538	231.57
225.004	276.04
225.47	259.65
225.937	224.55
226.403	269.02
226.869	269.02
227.335	245.61
227.801	283.06
228.267	261.99
228.733	264.33
229.199	292.42
229.665	257.31
230.131	252.63
230.597	224.55
231.062	261.99
231.528	271.36
231.994	334.55
232.459	280.72
232.925	233.91
233.39	304.12
233.856	252.63
234.321	264.33
234.786	294.76
235.252	290.08
235.717	287.74
236.182	252.63
236.647	313.49
237.112	269.02
237.577	285.4
238.042	292.42
238.507	243.27
238.972	297.1
239.436	297.1
239.901	264.33
240.366	322.85
240.83	238.59
241.295	236.25
241.76	287.74
242.224	355.62
242.688	297.1
243.153	343.91
243.617	266.67
244.081	278.38
244.545	285.4
245.01	325.19
245.474	315.83
245.938	357.96
246.402	367.32
246.866	236.25
247.33	287.74
247.793	273.7
248.257	299.44
248.721	355.62
249.185	313.49
249.648	311.14
250.112	285.4
250.575	276.04
251.039	341.57
251.502	334.55
251.965	313.49
252.429	329.87
252.892	208.16
253.355	297.1
253.818	283.06
254.281	269.02
254.744	350.93
255.207	341.57
255.67	278.38
256.133	280.72
256.596	339.23
257.059	367.32
257.522	283.06
257.984	306.46
258.447	266.67
258.909	224.55
259.372	290.08
259.834	322.85
260.297	254.97
260.759	306.46
261.221	364.98
261.684	304.12
262.146	334.55
262.608	346.25
263.07	320.51
263.532	238.59
263.994	222.2
264.456	264.33
264.918	304.12
265.38	224.55
265.842	240.93
266.303	273.7
266.765	318.17
267.227	376.68
267.688	313.49
268.15	236.25
268.611	177.73
269.072	294.76
269.534	290.08
269.995	343.91
270.456	350.93
270.918	280.72
271.379	226.89
271.84	271.36
272.301	297.1
272.762	259.65
273.223	243.27
273.684	247.95
274.144	308.8
274.605	297.1
275.066	259.65
275.527	327.53
275.987	311.14
276.448	346.25
276.908	353.27
277.369	236.25
277.829	308.8
278.289	322.85
278.75	332.21
279.21	269.02
279.67	369.66
280.13	271.36
280.59	278.38
281.05	306.46
281.51	273.7
281.97	367.32
282.43	355.62
282.89	329.87
283.35	297.1
283.809	313.49
284.269	290.08
284.729	308.8
285.188	304.12
285.648	325.19
286.107	236.25
286.567	308.8
287.026	346.25
287.485	315.83
287.944	287.74
288.404	276.04
288.863	336.89
289.322	280.72
289.781	306.46
290.24	311.14
290.699	250.29
291.158	313.49
291.616	313.49
292.075	348.59
292.534	290.08
292.992	287.74
293.451	264.33
293.91	311.14
294.368	304.12
294.827	355.62
295.285	250.29
295.743	261.99
296.202	322.85
296.66	264.33
297.118	299.44
297.576	283.06
298.034	327.53
298.492	311.14
298.95	318.17
299.408	261.99
299.866	294.76
300.324	332.21
300.781	261.99
301.239	294.76
301.697	252.63
302.154	320.51
302.612	357.96
303.069	341.57
303.527	334.55
303.984	379.02
304.441	332.21
304.899	304.12
305.356	339.23
305.813	292.42
306.27	329.87
306.727	254.97
307.184	381.36
307.641	271.36
308.098	360.3
308.555	379.02
309.012	313.49
309.468	353.27
309.925	346.25
310.382	357.96
310.838	306.46
311.295	269.02
311.751	339.23
312.208	369.66
312.664	261.99
313.12	292.42
313.577	283.06
314.033	336.89
314.489	297.1
314.945	266.67
315.401	318.17
315.857	318.17
316.313	290.08
316.769	334.55
317.225	329.87
317.681	341.57
318.136	308.8
318.592	276.04
319.048	292.42
319.503	276.04
319.959	254.97
320.414	318.17
320.869	315.83
321.325	290.08
321.78	278.38
322.235	313.49
322.691	318.17
323.146	287.74
323.601	280.72
324.056	315.83
324.511	283.06
324.966	327.53
325.421	353.27
325.875	308.8
326.33	367.32
326.785	355.62
327.24	294.76
327.694	329.87
328.149	308.8
328.603	299.44
329.058	299.44
329.512	283.06
329.966	336.89
330.421	350.93
330.875	397.74
331.329	313.49
331.783	318.17
332.237	285.4
332.691	306.46
333.145	315.83
333.599	386.04
334.053	271.36
334.507	301.78
334.96	250.29
335.414	334.55
335.868	276.04
336.321	332.21
336.775	336.89
337.228	320.51
337.682	353.27
338.135	315.83
338.588	348.59
339.042	322.85
339.495	341.57
339.948	315.83
340.401	339.23
340.854	308.8
341.307	311.14
341.76	367.32
342.213	306.46
342.666	341.57
343.119	327.53
343.571	290.08
344.024	290.08
344.477	329.87
344.929	301.78
345.382	280.72
345.834	374.34
346.287	304.12
346.739	318.17
347.191	280.72
347.644	313.49
348.096	290.08
348.548	297.1
349	313.49
349.452	332.21
349.904	311.14
350.356	364.98
350.808	245.61
351.26	329.87
351.711	297.1
352.163	290.08
352.615	402.43
353.066	322.85
353.518	355.62
353.969	320.51
354.421	379.02
354.872	322.85
355.324	306.46
355.775	276.04
356.226	327.53
356.677	343.91
357.128	287.74
357.579	409.45
358.03	306.46
358.481	271.36
358.932	306.46
359.383	348.59
359.834	301.78
360.285	367.32
360.735	374.34
361.186	325.19
361.637	327.53
362.087	276.04
362.538	322.85
362.988	294.76
363.438	334.55
363.889	341.57
364.339	297.1
364.789	273.7
365.239	283.06
365.689	343.91
366.139	357.96
366.589	362.64
367.039	322.85
367.489	383.7
367.939	297.1
368.389	336.89
368.839	325.19
369.288	414.13
369.738	341.57
370.187	367.32
370.637	304.12
371.086	357.96
371.536	304.12
371.985	311.14
372.434	322.85
372.884	339.23
373.333	397.74
373.782	297.1
374.231	313.49
374.68	395.4
375.129	364.98
375.578	381.36
376.027	353.27
376.475	329.87
376.924	322.85
377.373	294.76
377.822	334.55
378.27	395.4
378.719	336.89
379.167	348.59
379.616	339.23
380.064	329.87
380.512	299.44
380.961	318.17
381.409	346.25
381.857	299.44
382.305	355.62
382.753	355.62
383.201	364.98
383.649	350.93
384.097	261.99
384.545	243.27
384.992	336.89
385.44	257.31
385.888	320.51
386.335	313.49
386.783	322.85
387.231	341.57
387.678	357.96
388.125	374.34
388.573	311.14
389.02	311.14
389.467	278.38
389.914	332.21
390.362	322.85
390.809	313.49
391.256	285.4
391.703	334.55
392.15	306.46
392.596	287.74
393.043	315.83
393.49	376.68
393.937	334.55
394.383	362.64
394.83	339.23
395.276	311.14
395.723	313.49
396.169	386.04
396.616	334.55
397.062	336.89
397.508	327.53
397.954	329.87
398.401	299.44
398.847	372
399.293	336.89
399.739	393.06
400.185	346.25
400.631	332.21
401.076	306.46
401.522	350.93
401.968	341.57
402.414	285.4
402.859	287.74
403.305	320.51
403.75	372
404.196	390.72
404.641	325.19
405.086	283.06
405.532	257.31
405.977	297.1
406.422	367.32
406.867	329.87
407.312	341.57
407.757	329.87
408.202	343.91
408.647	280.72
409.092	304.12
409.537	353.27
409.982	318.17
410.426	311.14
410.871	290.08
411.316	348.59
411.76	306.46
412.205	341.57
412.649	350.93
413.093	271.36
413.538	332.21
413.982	287.74
414.426	311.14
414.87	348.59
415.314	407.11
415.758	278.38
416.202	297.1
416.646	290.08
417.09	304.12
417.534	334.55
417.978	357.96
418.421	386.04
418.865	290.08
419.309	334.55
419.752	259.65
420.196	252.63
420.639	355.62
421.083	266.67
421.526	329.87
421.969	329.87
422.412	308.8
422.856	355.62
423.299	306.46
423.742	416.47
424.185	276.04
424.628	364.98
425.071	332.21
425.513	292.42
425.956	301.78
426.399	292.42
426.842	304.12
427.284	334.55
427.727	304.12
428.169	336.89
428.612	346.25
429.054	339.23
429.497	339.23
429.939	381.36
430.381	374.34
430.823	332.21
431.265	229.23
431.707	313.49
432.149	339.23
432.591	332.21
433.033	348.59
433.475	273.7
433.917	367.32
434.359	318.17
434.8	306.46
435.242	336.89
435.684	350.93
436.125	318.17
436.567	336.89
437.008	348.59
437.449	327.53
437.891	320.51
438.332	336.89
438.773	336.89
439.214	257.31
439.656	383.7
440.097	322.85
440.538	327.53
440.978	332.21
441.419	329.87
441.86	336.89
442.301	362.64
442.742	327.53
443.182	297.1
443.623	355.62
444.063	332.21
444.504	357.96
444.944	304.12
445.385	329.87
445.825	280.72
446.265	315.83
446.706	355.62
447.146	409.45
447.586	294.76
448.026	369.66
448.466	381.36
448.906	374.34
449.346	353.27
449.786	367.32
450.225	283.06
450.665	357.96
451.105	327.53
451.544	334.55
451.984	350.93
452.424	379.02
452.863	336.89
453.302	355.62
453.742	367.32
454.181	348.59
454.62	273.7
455.059	308.8
455.499	276.04
455.938	397.74
456.377	360.3
456.816	336.89
457.254	332.21
457.693	329.87
458.132	334.55
458.571	301.78
459.01	304.12
459.448	329.87
459.887	266.67
460.325	254.97
460.764	350.93
461.202	283.06
461.641	383.7
462.079	311.14
462.517	346.25
462.955	236.25
463.393	327.53
463.832	369.66
464.27	407.11
464.708	285.4
465.145	364.98
465.583	308.8
466.021	367.32
466.459	254.97
466.897	353.27
467.334	318.17
467.772	336.89
468.209	336.89
468.647	318.17
469.084	329.87
469.522	308.8
469.959	299.44
470.396	280.72
470.833	355.62
471.271	341.57
471.708	393.06
472.145	360.3
472.582	313.49
473.019	341.57
473.456	283.06
473.892	299.44
474.329	329.87
474.766	320.51
475.202	395.4
475.639	308.8
476.076	322.85
476.512	299.44
476.949	332.21
477.385	304.12
477.821	271.36
478.258	278.38
478.694	369.66
479.13	315.83
479.566	325.19
480.002	360.3
480.438	278.38
480.874	245.61
481.31	325.19
481.746	264.33
482.181	315.83
482.617	301.78
483.053	355.62
483.488	311.14
483.924	318.17
484.36	306.46
484.795	397.74
485.23	276.04
485.666	318.17
486.101	313.49
486.536	311.14
486.971	306.46
487.407	353.27
487.842	247.95
488.277	287.74
488.712	346.25
489.146	278.38
489.581	334.55
490.016	297.1
490.451	320.51
490.885	360.3
491.32	264.33
491.755	273.7
492.189	311.14
492.624	238.59
493.058	348.59
493.492	360.3
493.927	308.8
494.361	336.89
494.795	329.87
495.229	327.53
495.663	372
496.097	280.72
496.531	308.8
496.965	332.21
497.399	355.62
497.833	343.91
498.266	383.7
498.7	304.12
499.134	325.19
499.567	336.89
500.001	329.87
500.434	332.21
500.868	311.14
501.301	334.55
501.734	346.25
502.168	327.53
502.601	362.64
503.034	327.53
503.467	311.14
503.9	416.47
504.333	308.8
504.766	315.83
505.199	318.17
505.632	313.49
506.064	343.91
506.497	341.57
506.93	325.19
507.362	318.17
507.795	357.96
508.227	320.51
508.66	297.1
509.092	362.64
509.524	383.7
509.956	332.21
510.389	313.49
510.821	329.87
511.253	283.06
511.685	247.95
512.117	334.55
512.549	306.46
512.981	313.49
513.412	285.4
513.844	334.55
514.276	367.32
514.707	301.78
515.139	301.78
515.571	315.83
516.002	301.78
516.433	294.76
516.865	355.62
517.296	280.72
517.727	367.32
518.159	290.08
518.59	254.97
519.021	369.66
519.452	350.93
519.883	313.49
520.314	294.76
520.744	233.91
521.175	297.1
521.606	357.96
522.037	339.23
522.467	287.74
522.898	247.95
523.328	325.19
523.759	290.08
524.189	393.06
524.62	311.14
525.05	320.51
525.48	343.91
525.91	308.8
526.341	308.8
526.771	332.21
527.201	374.34
527.631	343.91
528.061	369.66
528.49	299.44
528.92	311.14
529.35	318.17
529.78	306.46
530.209	273.7
530.639	304.12
531.068	299.44
531.498	304.12
531.927	353.27
532.357	299.44
532.786	329.87
533.215	383.7
533.644	348.59
534.074	301.78
534.503	360.3
534.932	336.89
535.361	350.93
535.79	350.93
536.218	266.67
536.647	325.19
537.076	252.63
537.505	287.74
537.933	353.27
538.362	367.32
538.79	292.42
539.219	374.34
539.647	362.64
540.076	301.78
540.504	336.89
540.932	280.72
541.36	304.12
541.788	343.91
542.217	336.89
542.645	393.06
543.073	294.76
543.5	343.91
543.928	283.06
544.356	332.21
544.784	327.53
545.211	362.64
545.639	292.42
546.067	360.3
546.494	404.77
546.922	285.4
547.349	372
547.776	341.57
548.204	320.51
548.631	336.89
549.058	329.87
549.485	315.83
549.912	315.83
550.339	261.99
550.766	374.34
551.193	318.17
551.62	306.46
552.047	320.51
552.474	322.85
552.9	308.8
553.327	360.3
553.754	325.19
554.18	318.17
554.607	348.59
555.033	364.98
555.459	273.7
555.886	329.87
556.312	318.17
556.738	341.57
557.164	308.8
557.59	243.27
558.016	299.44
558.442	290.08
558.868	357.96
559.294	336.89
559.72	304.12
560.145	336.89
560.571	364.98
560.997	336.89
561.422	313.49
561.848	339.23
562.273	261.99
562.699	318.17
563.124	350.93
563.549	297.1
563.974	308.8
564.4	318.17
564.825	322.85
565.25	306.46
565.675	306.46
566.1	336.89
566.525	360.3
566.95	362.64
567.374	357.96
567.799	306.46
568.224	360.3
568.648	306.46
569.073	348.59
569.497	257.31
569.922	400.09
570.346	283.06
570.771	320.51
571.195	304.12
571.619	334.55
572.043	311.14
572.467	271.36
572.891	318.17
573.315	343.91
573.739	283.06
574.163	350.93
574.587	327.53
575.011	336.89
575.435	386.04
575.858	407.11
576.282	362.64
576.705	332.21
577.129	379.02
577.552	369.66
577.976	292.42
578.399	339.23
578.822	325.19
579.245	343.91
579.669	334.55
580.092	346.25
580.515	341.57
580.938	283.06
581.361	306.46
581.784	329.87
582.206	327.53
582.629	348.59
583.052	285.4
583.474	348.59
583.897	336.89
584.32	257.31
584.742	280.72
585.165	348.59
585.587	290.08
586.009	355.62
586.431	297.1
586.854	229.23
587.276	299.44
587.698	308.8
588.12	341.57
588.542	367.32
588.964	404.77
589.386	318.17
589.807	341.57
590.229	292.42
590.651	290.08
591.073	336.89
591.494	341.57
591.916	376.68
592.337	318.17
592.759	369.66
593.18	341.57
593.601	343.91
594.022	276.04
594.444	360.3
594.865	339.23
595.286	306.46
595.707	339.23
596.128	283.06
596.549	240.93
596.97	402.43
597.39	306.46
597.811	332.21
598.232	397.74
598.652	264.33
599.073	402.43
599.494	325.19
599.914	315.83
600.334	329.87
600.755	327.53
601.175	350.93
601.595	250.29
602.015	278.38
602.436	318.17
602.856	430.51
603.276	325.19
603.696	362.64
604.115	226.89
604.535	350.93
604.955	318.17
605.375	334.55
605.794	353.27
606.214	332.21
606.634	311.14
607.053	388.38
607.473	283.06
607.892	311.14
608.311	348.59
608.731	425.83
609.15	357.96
609.569	313.49
609.988	290.08
610.407	276.04
610.826	292.42
611.245	364.98
611.664	283.06
612.083	364.98
612.501	334.55
612.92	318.17
613.339	294.76
613.757	304.12
614.176	308.8
614.594	357.96
615.013	369.66
615.431	339.23
615.85	301.78
616.268	304.12
616.686	355.62
617.104	362.64
617.522	374.34
617.94	327.53
618.358	287.74
618.776	280.72
619.194	311.14
619.612	327.53
620.03	327.53
620.447	297.1
620.865	280.72
621.282	379.02
621.7	327.53
622.117	332.21
622.535	329.87
622.952	341.57
623.369	353.27
623.787	299.44
624.204	325.19
624.621	313.49
625.038	306.46
625.455	315.83
625.872	332.21
626.289	320.51
626.706	367.32
627.123	362.64
627.539	297.1
627.956	306.46
628.373	313.49
628.789	355.62
629.206	343.91
629.622	301.78
630.038	353.27
630.455	292.42
630.871	374.34
631.287	348.59
631.703	299.44
632.12	339.23
632.536	341.57
632.952	322.85
633.368	397.74
633.783	322.85
634.199	346.25
634.615	278.38
635.031	372
635.446	339.23
635.862	292.42
636.277	313.49
636.693	301.78
637.108	311.14
637.524	360.3
637.939	308.8
638.354	297.1
638.77	318.17
639.185	346.25
639.6	339.23
640.015	332.21
640.43	320.51
640.845	341.57
641.259	350.93
641.674	299.44
642.089	320.51
642.504	383.7
642.918	353.27
643.333	311.14
643.747	276.04
644.162	276.04
644.576	332.21
644.991	254.97
645.405	369.66
645.819	334.55
646.233	334.55
646.647	240.93
647.061	313.49
647.475	339.23
647.889	329.87
648.303	325.19
648.717	273.7
649.131	311.14
649.545	322.85
649.958	271.36
650.372	315.83
650.785	304.12
651.199	299.44
651.612	376.68
652.026	393.06
652.439	343.91
652.852	339.23
653.266	294.76
653.679	327.53
654.092	346.25
654.505	334.55
654.918	313.49
655.331	348.59
655.744	407.11
656.156	360.3
656.569	311.14
656.982	311.14
657.394	276.04
657.807	315.83
658.22	315.83
658.632	257.31
659.044	379.02
659.457	348.59
659.869	315.83
660.281	325.19
660.693	301.78
661.106	339.23
661.518	290.08
661.93	362.64
662.342	414.13
662.754	355.62
663.165	416.47
663.577	276.04
663.989	329.87
664.401	350.93
664.812	313.49
665.224	334.55
665.635	372
666.047	318.17
666.458	278.38
666.869	339.23
667.281	320.51
667.692	343.91
668.103	341.57
668.514	348.59
668.925	276.04
669.336	313.49
669.747	353.27
670.158	357.96
670.569	327.53
670.979	376.68
671.39	325.19
671.801	390.72
672.211	322.85
672.622	280.72
673.032	313.49
673.443	362.64
673.853	315.83
674.263	357.96
674.674	350.93
675.084	311.14
675.494	343.91
675.904	329.87
676.314	294.76
676.724	297.1
677.134	308.8
677.544	353.27
677.953	294.76
678.363	297.1
678.773	442.21
679.182	261.99
679.592	414.13
680.001	386.04
680.411	311.14
680.82	327.53
681.23	318.17
681.639	336.89
682.048	341.57
682.457	285.4
682.866	271.36
683.275	318.17
683.684	294.76
684.093	311.14
684.502	348.59
684.911	318.17
685.32	280.72
685.728	287.74
686.137	313.49
686.546	416.47
686.954	341.57
687.363	364.98
687.771	367.32
688.179	339.23
688.588	348.59
688.996	287.74
689.404	332.21
689.812	360.3
690.22	369.66
690.628	304.12
691.036	311.14
691.444	367.32
691.852	297.1
692.26	320.51
692.667	353.27
693.075	266.67
693.483	294.76
693.89	292.42
694.298	388.38
694.705	301.78
695.112	311.14
695.52	339.23
695.927	332.21
696.334	339.23
696.741	299.44
697.148	318.17
697.555	341.57
697.962	320.51
698.369	318.17
698.776	299.44
699.183	322.85
699.59	343.91
699.996	261.99
700.403	308.8
700.81	304.12
701.216	278.38
701.623	339.23
702.029	332.21
702.435	290.08
702.842	245.61
703.248	334.55
703.654	336.89
704.06	315.83
704.466	261.99
704.872	290.08
705.278	334.55
705.684	322.85
706.09	292.42
706.496	355.62
706.901	341.57
707.307	315.83
707.712	301.78
708.118	336.89
708.523	327.53
708.929	353.27
709.334	339.23
709.74	332.21
710.145	308.8
710.55	313.49
710.955	297.1
711.36	299.44
711.765	278.38
712.17	219.86
712.575	362.64
712.98	816.7
713.385	374.34
713.789	269.02
714.194	250.29
714.599	301.78
715.003	313.49
715.408	308.8
715.812	372
716.217	292.42
716.621	304.12
717.025	376.68
717.429	355.62
717.833	367.32
718.238	257.31
718.642	376.68
719.046	280.72
719.449	318.17
719.853	332.21
720.257	315.83
720.661	332.21
721.065	369.66
721.468	327.53
721.872	320.51
722.275	301.78
722.679	353.27
723.082	348.59
723.485	294.76
723.889	322.85
724.292	271.36
724.695	311.14
725.098	336.89
725.501	301.78
725.904	329.87
726.307	322.85
726.71	299.44
727.113	261.99
727.516	369.66
727.918	257.31
728.321	348.59
728.724	364.98
729.126	299.44
729.529	357.96
729.931	297.1
730.333	299.44
730.736	318.17
731.138	336.89
731.54	383.7
731.942	278.38
732.344	318.17
732.746	304.12
733.148	350.93
733.55	318.17
733.952	320.51
734.354	350.93
734.756	381.36
735.157	311.14
735.559	322.85
735.96	322.85
736.362	362.64
736.763	357.96
737.165	313.49
737.566	320.51
737.967	348.59
738.368	297.1
738.77	318.17
739.171	297.1
739.572	360.3
739.973	308.8
740.374	353.27
740.774	336.89
741.175	325.19
741.576	376.68
741.977	341.57
742.377	297.1
742.778	364.98
743.178	325.19
743.579	336.89
743.979	297.1
744.379	306.46
744.78	322.85
745.18	292.42
745.58	346.25
745.98	334.55
746.38	357.96
746.78	381.36
747.18	369.66
747.58	276.04
747.98	311.14
748.38	369.66
748.779	362.64
749.179	287.74
749.578	320.51
749.978	290.08
750.377	292.42
750.777	320.51
751.176	325.19
751.575	294.76
751.975	304.12
752.374	318.17
752.773	299.44
753.172	269.02
753.571	311.14
753.97	395.4
754.369	308.8
754.768	369.66
755.166	278.38
755.565	318.17
755.964	304.12
756.362	411.79
756.761	348.59
757.159	325.19
757.558	388.38
757.956	367.32
758.354	327.53
758.753	299.44
759.151	320.51
759.549	334.55
759.947	327.53
760.345	308.8
760.743	299.44
761.141	308.8
761.539	264.33
761.936	304.12
762.334	266.67
762.732	369.66
763.129	355.62
763.527	346.25
763.924	320.51
764.322	297.1
764.719	343.91
765.117	374.34
765.514	313.49
765.911	238.59
766.308	357.96
766.705	315.83
767.102	355.62
767.499	273.7
767.896	250.29
768.293	318.17
768.69	297.1
769.086	360.3
769.483	271.36
769.88	306.46
770.276	313.49
770.673	320.51
771.069	376.68
771.466	318.17
771.862	301.78
772.258	357.96
772.654	299.44
773.05	308.8
773.447	327.53
773.843	350.93
774.239	304.12
774.634	294.76
775.03	313.49
775.426	313.49
775.822	357.96
776.218	250.29
776.613	381.36
777.009	334.55
777.404	339.23
777.8	304.12
778.195	390.72
778.59	362.64
778.986	390.72
779.381	369.66
779.776	329.87
780.171	301.78
780.566	343.91
780.961	353.27
781.356	343.91
781.751	276.04
782.146	350.93
782.54	320.51
782.935	311.14
783.33	348.59
783.724	315.83
784.119	381.36
784.513	383.7
784.908	313.49
785.302	332.21
785.696	292.42
786.09	339.23
786.485	313.49
786.879	315.83
787.273	357.96
787.667	304.12
788.061	341.57
788.454	339.23
788.848	339.23
789.242	304.12
789.636	283.06
790.029	283.06
790.423	332.21
790.816	285.4
791.21	386.04
791.603	327.53
791.997	336.89
792.39	367.32
792.783	301.78
793.176	276.04
793.569	257.31
793.962	360.3
794.355	304.12
794.748	364.98
795.141	287.74
795.534	283.06
795.927	343.91
796.319	259.65
796.712	266.67
797.105	400.09
797.497	308.8
797.89	372
798.282	297.1
798.674	325.19
799.067	315.83
799.459	308.8
799.851	315.83
800.243	367.32
800.635	320.51
801.027	306.46
801.419	341.57
801.811	245.61
802.203	327.53
802.594	271.36
802.986	381.36
803.378	301.78
803.769	332.21
804.161	299.44
804.552	318.17
804.944	372
805.335	308.8
805.726	343.91
806.118	318.17
806.509	294.76
806.9	259.65
807.291	374.34
807.682	372
808.073	271.36
808.464	269.02
808.855	329.87
809.245	285.4
809.636	343.91
810.027	318.17
810.417	343.91
810.808	308.8
811.198	311.14
811.589	320.51
811.979	304.12
812.369	320.51
812.759	280.72
813.15	304.12
813.54	313.49
813.93	306.46
814.32	355.62
814.71	290.08
815.1	339.23
815.489	362.64
815.879	325.19
816.269	294.76
816.658	327.53
817.048	318.17
817.438	357.96
817.827	357.96
818.216	334.55
818.606	341.57
818.995	276.04
819.384	355.62
819.773	369.66
820.163	311.14
820.552	311.14
820.941	259.65
821.33	332.21
821.718	325.19
822.107	364.98
822.496	336.89
822.885	329.87
823.273	292.42
823.662	367.32
824.05	336.89
824.439	383.7
824.827	318.17
825.216	336.89
825.604	336.89
825.992	290.08
826.38	322.85
826.768	290.08
827.156	308.8
827.544	355.62
827.932	346.25
828.32	287.74
828.708	327.53
829.096	257.31
829.483	350.93
829.871	280.72
830.259	273.7
830.646	364.98
831.034	320.51
831.421	329.87
831.808	304.12
832.196	350.93
832.583	379.02
832.97	322.85
833.357	369.66
833.744	334.55
834.131	315.83
834.518	269.02
834.905	348.59
835.292	297.1
835.678	334.55
836.065	311.14
836.452	343.91
836.838	261.99
837.225	325.19
837.611	357.96
837.998	341.57
838.384	297.1
838.77	355.62
839.157	376.68
839.543	294.76
839.929	334.55
840.315	283.06
840.701	355.62
841.087	299.44
841.473	287.74
841.858	315.83
842.244	313.49
842.63	397.74
843.015	332.21
843.401	507.75
843.787	343.91
844.172	362.64
844.557	325.19
844.943	325.19
845.328	280.72
845.713	329.87
846.098	329.87
846.483	339.23
846.868	269.02
847.253	369.66
847.638	336.89
848.023	313.49
848.408	364.98
848.793	381.36
849.177	320.51
849.562	318.17
849.947	367.32
850.331	308.8
850.715	245.61
851.1	322.85
851.484	276.04
851.868	355.62
852.253	350.93
852.637	276.04
853.021	348.59
853.405	306.46
853.789	308.8
854.173	348.59
854.557	367.32
854.94	276.04
855.324	348.59
855.708	308.8
856.091	360.3
856.475	388.38
856.858	339.23
857.242	290.08
857.625	290.08
858.009	306.46
858.392	348.59
858.775	285.4
859.158	304.12
859.541	318.17
859.924	320.51
860.307	332.21
860.69	306.46
861.073	315.83
861.456	341.57
861.838	322.85
862.221	376.68
862.604	278.38
862.986	348.59
863.369	320.51
863.751	362.64
864.133	304.12
864.516	287.74
864.898	280.72
865.28	304.12
865.662	339.23
866.044	451.58
866.426	236.25
866.808	341.57
867.19	208.16
867.572	304.12
867.954	332.21
868.336	299.44
868.717	353.27
869.099	327.53
869.48	329.87
869.862	297.1
870.243	294.76
870.625	292.42
871.006	304.12
871.387	299.44
871.768	343.91
872.149	409.45
872.53	327.53
872.911	283.06
873.292	336.89
873.673	269.02
874.054	348.59
874.435	360.3
874.815	374.34
875.196	393.06
875.577	343.91
875.957	327.53
876.338	372
876.718	322.85
877.098	350.93
877.479	339.23
877.859	322.85
878.239	372
878.619	339.23
878.999	325.19
879.379	341.57
879.759	320.51
880.139	386.04
880.519	294.76
880.898	278.38
881.278	283.06
881.658	336.89
882.037	346.25
882.417	269.02
882.796	357.96
883.176	346.25
883.555	304.12
883.934	341.57
884.313	372
884.693	327.53
885.072	360.3
885.451	367.32
885.83	273.7
886.209	287.74
886.587	341.57
886.966	343.91
887.345	332.21
887.724	350.93
888.102	343.91
888.481	311.14
888.859	297.1
889.238	311.14
889.616	372
889.994	311.14
890.373	252.63
890.751	348.59
891.129	332.21
891.507	362.64
891.885	313.49
892.263	318.17
892.641	318.17
893.019	404.77
893.396	353.27
893.774	376.68
894.152	285.4
894.529	285.4
894.907	308.8
895.284	301.78
895.662	294.76
896.039	325.19
896.416	297.1
896.794	261.99
897.171	407.11
897.548	283.06
897.925	320.51
898.302	320.51
898.679	388.38
899.056	339.23
899.433	402.43
899.809	280.72
900.186	290.08
900.563	339.23
900.939	393.06
901.316	364.98
901.692	308.8
902.069	229.23
902.445	336.89
902.821	341.57
903.197	257.31
903.574	290.08
903.95	306.46
904.326	280.72
904.702	311.14
905.078	320.51
905.454	341.57
905.829	283.06
906.205	341.57
906.581	261.99
906.956	346.25
907.332	306.46
907.707	285.4
908.083	320.51
908.458	341.57
908.833	304.12
909.209	372
909.584	334.55
909.959	332.21
910.334	357.96
910.709	372
911.084	320.51
911.459	297.1
911.834	287.74
912.209	369.66
912.583	376.68
912.958	350.93
913.333	254.97
913.707	329.87
914.082	259.65
914.456	318.17
914.83	292.42
915.205	322.85
915.579	304.12
915.953	264.33
916.327	332.21
916.701	276.04
917.075	315.83
917.449	348.59
917.823	304.12
918.197	400.09
918.571	348.59
918.944	381.36
919.318	327.53
919.692	320.51
920.065	306.46
920.438	327.53
920.812	339.23
921.185	285.4
921.558	318.17
921.932	325.19
922.305	369.66
922.678	360.3
923.051	353.27
923.424	304.12
923.797	283.06
924.17	381.36
924.542	306.46
924.915	306.46
925.288	357.96
925.661	261.99
926.033	269.02
926.406	297.1
926.778	353.27
927.15	304.12
927.523	271.36
927.895	269.02
928.267	297.1
928.639	240.93
929.011	297.1
929.383	332.21
929.755	287.74
930.127	367.32
930.499	315.83
930.871	254.97
931.242	315.83
931.614	297.1
931.986	299.44
932.357	306.46
932.729	276.04
933.1	236.25
933.471	254.97
933.843	290.08
934.214	315.83
934.585	311.14
934.956	364.98
935.327	304.12
935.698	290.08
936.069	372
936.44	313.49
936.811	355.62
937.182	306.46
937.552	285.4
937.923	362.64
938.293	348.59
938.664	294.76
939.034	329.87
939.405	395.4
939.775	325.19
940.145	350.93
940.516	315.83
940.886	257.31
941.256	285.4
941.626	264.33
941.996	357.96
942.366	264.33
942.735	259.65
943.105	325.19
943.475	294.76
943.845	313.49
944.214	318.17
944.584	287.74
944.953	325.19
945.323	390.72
945.692	334.55
946.061	318.17
946.43	320.51
946.8	334.55
947.169	273.7
947.538	287.74
947.907	379.02
948.276	374.34
948.645	329.87
949.013	332.21
949.382	297.1
949.751	320.51
950.119	318.17
950.488	364.98
950.857	236.25
951.225	311.14
951.593	318.17
951.962	304.12
952.33	327.53
952.698	332.21
953.066	332.21
953.434	346.25
953.802	306.46
954.17	299.44
954.538	320.51
954.906	315.83
955.274	285.4
955.642	320.51
956.009	313.49
956.377	294.76
956.744	329.87
957.112	287.74
957.479	280.72
957.847	390.72
958.214	404.77
958.581	327.53
958.948	353.27
959.315	266.67
959.683	269.02
960.05	327.53
960.416	304.12
960.783	329.87
961.15	269.02
961.517	353.27
961.884	369.66
962.25	339.23
962.617	322.85
962.983	381.36
963.35	273.7
963.716	306.46
964.082	350.93
964.449	306.46
964.815	372
965.181	304.12
965.547	339.23
965.913	301.78
966.279	357.96
966.645	334.55
967.011	381.36
967.377	308.8
967.742	346.25
968.108	374.34
968.474	400.09
968.839	339.23
969.205	299.44
969.57	304.12
969.935	224.55
970.301	348.59
970.666	341.57
971.031	350.93
971.396	297.1
971.761	257.31
972.126	332.21
972.491	320.51
972.856	315.83
973.221	325.19
973.586	329.87
973.95	329.87
974.315	327.53
974.679	273.7
975.044	329.87
975.408	276.04
975.773	355.62
976.137	327.53
976.501	308.8
976.866	247.95
977.23	287.74
977.594	304.12
977.958	322.85
978.322	322.85
978.686	231.57
979.049	273.7
979.413	311.14
979.777	297.1
980.141	353.27
980.504	292.42
980.868	332.21
981.231	350.93
981.595	325.19
981.958	320.51
982.321	364.98
982.684	269.02
983.048	297.1
983.411	414.13
983.774	285.4
984.137	304.12
984.5	311.14
984.862	339.23
985.225	308.8
985.588	273.7
985.951	315.83
986.313	304.12
986.676	332.21
987.038	280.72
987.401	336.89
987.763	306.46
988.125	320.51
988.488	334.55
988.85	360.3
989.212	294.76
989.574	367.32
989.936	280.72
990.298	301.78
990.66	381.36
991.022	311.14
991.383	285.4
991.745	350.93
992.107	304.12
992.468	315.83
992.83	393.06
993.191	283.06
993.553	334.55
993.914	273.7
994.275	301.78
994.637	299.44
994.998	299.44
995.359	311.14
995.72	304.12
996.081	266.67
996.442	364.98
996.803	360.3
997.163	327.53
997.524	320.51
997.885	283.06
998.245	318.17
998.606	273.7
998.966	313.49
999.327	327.53
999.687	332.21
1000.047	374.34
1000.408	276.04
1000.768	301.78
1001.128	271.36
1001.488	297.1
1001.848	350.93
1002.208	297.1
1002.568	261.99
1002.927	285.4
1003.287	325.19
1003.647	357.96
1004.007	292.42
1004.366	332.21
1004.726	343.91
1005.085	283.06
1005.444	369.66
1005.804	355.62
1006.163	353.27
1006.522	362.64
1006.881	290.08
1007.24	334.55
1007.599	308.8
1007.958	320.51
1008.317	301.78
1008.676	336.89
1009.035	287.74
1009.393	369.66
1009.752	261.99
1010.111	346.25
1010.469	290.08
1010.828	287.74
1011.186	372
1011.544	341.57
1011.903	271.36
1012.261	322.85
1012.619	329.87
1012.977	259.65
1013.335	325.19
1013.693	346.25
1014.051	311.14
1014.409	332.21
1014.767	325.19
1015.124	334.55
1015.482	327.53
1015.84	360.3
1016.197	348.59
1016.555	278.38
1016.912	273.7
1017.269	261.99
1017.627	334.55
1017.984	346.25
1018.341	320.51
1018.698	290.08
1019.055	318.17
1019.412	264.33
1019.769	327.53
1020.126	313.49
1020.483	308.8
1020.84	346.25
1021.196	266.67
1021.553	285.4
1021.909	357.96
1022.266	322.85
1022.622	308.8
1022.979	357.96
1023.335	348.59
1023.691	304.12
1024.047	339.23
1024.404	308.8
1024.76	290.08
1025.116	322.85
1025.472	353.27
1025.827	322.85
1026.183	313.49
1026.539	271.36
1026.895	325.19
1027.25	297.1
1027.606	362.64
1027.961	292.42
1028.317	322.85
1028.672	306.46
1029.028	278.38
1029.383	357.96
1029.738	294.76
1030.093	343.91
1030.448	264.33
1030.803	287.74
1031.158	327.53
1031.513	367.32
1031.868	325.19
1032.223	332.21
1032.577	301.78
1032.932	308.8
1033.287	280.72
1033.641	264.33
1033.996	353.27
1034.35	280.72
1034.704	266.67
1035.059	360.3
1035.413	308.8
1035.767	308.8
1036.121	308.8
