Data from Al_FLMS009871__1180__16-40-37-982.txt Node

Date: Fri Mar 08 16:40:37 CST 2024
User: pe5414po
Spectrometer: FLMS00987
Trigger mode: 0
Integration Time (sec): 1.000000E-1
Scans to average: 1
Electric dark correction enabled: true
Nonlinearity correction enabled: false
Boxcar width: 0
XAxis mode: Wavelengths
Number of Pixels in Spectrum: 2048
>>>>>Begin Spectral Data<<<<<
188.938	-40.81
189.409	-40.81
189.879	-40.81
190.349	-47.83
190.819	-118.05
191.29	-141.46
191.76	-50.18
192.23	-92.3
192.7	-64.22
193.17	-80.6
193.64	-59.54
194.109	-47.83
194.579	-8.05
195.049	1.32
195.519	59.83
195.988	78.55
196.458	104.3
196.927	1.32
197.397	62.17
197.866	101.96
198.336	134.73
198.805	146.43
199.274	165.15
199.744	190.9
200.213	202.6
200.682	200.26
201.151	209.62
201.62	223.67
202.089	275.16
202.558	247.07
203.027	289.2
203.495	279.84
203.964	305.59
204.433	298.56
204.902	312.61
205.37	249.41
205.839	277.5
206.307	321.97
206.776	328.99
207.244	331.33
207.712	326.65
208.181	261.12
208.649	321.97
209.117	291.54
209.585	331.33
210.053	310.27
210.521	319.63
210.989	279.84
211.457	310.27
211.925	275.16
212.393	328.99
212.861	319.63
213.328	300.91
213.796	296.22
214.264	279.84
214.731	338.35
215.199	268.14
215.666	254.09
216.133	293.88
216.601	169.84
217.068	221.33
217.535	242.39
218.003	277.5
218.47	298.56
218.937	291.54
219.404	261.12
219.871	277.5
220.338	284.52
220.805	207.28
221.271	333.67
221.738	310.27
222.205	284.52
222.671	289.2
223.138	291.54
223.605	293.88
224.071	258.78
224.538	279.84
225.004	310.27
225.47	282.18
225.937	270.48
226.403	275.16
226.869	296.22
227.335	268.14
227.801	268.14
228.267	314.95
228.733	247.07
229.199	307.93
229.665	265.8
230.131	228.35
230.597	275.16
231.062	289.2
231.528	282.18
231.994	275.16
232.459	303.25
232.925	275.16
233.39	272.82
233.856	357.08
234.321	293.88
234.786	336.01
235.252	303.25
235.717	296.22
236.182	300.91
236.647	237.71
237.112	286.86
237.577	275.16
238.042	270.48
238.507	282.18
238.972	242.39
239.436	284.52
239.901	289.2
240.366	300.91
240.83	277.5
241.295	221.33
241.76	303.25
242.224	282.18
242.688	324.31
243.153	293.88
243.617	265.8
244.081	228.35
244.545	319.63
245.01	298.56
245.474	293.88
245.938	336.01
246.402	233.03
246.866	282.18
247.33	338.35
247.793	237.71
248.257	333.67
248.721	230.69
249.185	286.86
249.648	249.41
250.112	279.84
250.575	270.48
251.039	307.93
251.502	265.8
251.965	228.35
252.429	230.69
252.892	244.73
253.355	300.91
253.818	303.25
254.281	326.65
254.744	312.61
255.207	240.05
255.67	300.91
256.133	317.29
256.596	291.54
257.059	284.52
257.522	270.48
257.984	230.69
258.447	277.5
258.909	324.31
259.372	242.39
259.834	319.63
260.297	303.25
260.759	293.88
261.221	228.35
261.684	258.78
262.146	296.22
262.608	303.25
263.07	340.69
263.532	303.25
263.994	251.75
264.456	298.56
264.918	303.25
265.38	326.65
265.842	279.84
266.303	324.31
266.765	333.67
267.227	312.61
267.688	235.37
268.15	286.86
268.611	345.38
269.072	321.97
269.534	312.61
269.995	268.14
270.456	373.46
270.918	277.5
271.379	350.06
271.84	289.2
272.301	279.84
272.762	291.54
273.223	251.75
273.684	336.01
274.144	343.03
274.605	277.5
275.066	300.91
275.527	282.18
275.987	328.99
276.448	251.75
276.908	340.69
277.369	305.59
277.829	305.59
278.289	282.18
278.75	277.5
279.21	256.43
279.67	326.65
280.13	331.33
280.59	277.5
281.05	261.12
281.51	251.75
281.97	310.27
282.43	284.52
282.89	303.25
283.35	300.91
283.809	328.99
284.269	324.31
284.729	340.69
285.188	345.38
285.648	258.78
286.107	277.5
286.567	345.38
287.026	350.06
287.485	296.22
287.944	368.78
288.404	312.61
288.863	282.18
289.322	354.74
289.781	251.75
290.24	298.56
290.699	251.75
291.158	338.35
291.616	324.31
292.075	324.31
292.534	296.22
292.992	305.59
293.451	347.72
293.91	331.33
294.368	326.65
294.827	293.88
295.285	279.84
295.743	263.46
296.202	298.56
296.66	310.27
297.118	317.29
297.576	244.73
298.034	305.59
298.492	263.46
298.95	286.86
299.408	268.14
299.866	305.59
300.324	317.29
300.781	347.72
301.239	298.56
301.697	321.97
302.154	228.35
302.612	324.31
303.069	319.63
303.527	333.67
303.984	336.01
304.441	331.33
304.899	275.16
305.356	314.95
305.813	261.12
306.27	277.5
306.727	345.38
307.184	336.01
307.641	289.2
308.098	333.67
308.555	307.93
309.012	286.86
309.468	328.99
309.925	324.31
310.382	303.25
310.838	258.78
311.295	312.61
311.751	399.21
312.208	284.52
312.664	256.43
313.12	284.52
313.577	336.01
314.033	350.06
314.489	275.16
314.945	326.65
315.401	284.52
315.857	399.21
316.313	382.82
316.769	303.25
317.225	347.72
317.681	312.61
318.136	312.61
318.592	272.82
319.048	284.52
319.503	314.95
319.959	331.33
320.414	317.29
320.869	277.5
321.325	336.01
321.78	279.84
322.235	261.12
322.691	272.82
323.146	354.74
323.601	343.03
324.056	328.99
324.511	328.99
324.966	338.35
325.421	310.27
325.875	345.38
326.33	310.27
326.785	254.09
327.24	268.14
327.694	324.31
328.149	338.35
328.603	291.54
329.058	300.91
329.512	317.29
329.966	387.5
330.421	361.76
330.875	300.91
331.329	305.59
331.783	338.35
332.237	368.78
332.691	298.56
333.145	366.44
333.599	312.61
334.053	310.27
334.507	307.93
334.96	305.59
335.414	328.99
335.868	298.56
336.321	319.63
336.775	328.99
337.228	368.78
337.682	314.95
338.135	272.82
338.588	352.4
339.042	399.21
339.495	289.2
339.948	331.33
340.401	314.95
340.854	279.84
341.307	354.74
341.76	371.12
342.213	303.25
342.666	340.69
343.119	310.27
343.571	328.99
344.024	364.1
344.477	261.12
344.929	373.46
345.382	319.63
345.834	338.35
346.287	258.78
346.739	319.63
347.191	324.31
347.644	305.59
348.096	300.91
348.548	307.93
349	310.27
349.452	298.56
349.904	326.65
350.356	338.35
350.808	328.99
351.26	296.22
351.711	328.99
352.163	314.95
352.615	314.95
353.066	314.95
353.518	321.97
353.969	305.59
354.421	279.84
354.872	326.65
355.324	289.2
355.775	307.93
356.226	331.33
356.677	328.99
357.128	305.59
357.579	328.99
358.03	366.44
358.481	293.88
358.932	324.31
359.383	279.84
359.834	282.18
360.285	338.35
360.735	307.93
361.186	293.88
361.637	291.54
362.087	305.59
362.538	291.54
362.988	361.76
363.438	326.65
363.889	347.72
364.339	368.78
364.789	361.76
365.239	387.5
365.689	319.63
366.139	268.14
366.589	373.46
367.039	293.88
367.489	331.33
367.939	357.08
368.389	382.82
368.839	268.14
369.288	354.74
369.738	368.78
370.187	333.67
370.637	357.08
371.086	378.14
371.536	291.54
371.985	340.69
372.434	321.97
372.884	258.78
373.333	312.61
373.782	338.35
374.231	345.38
374.68	321.97
375.129	293.88
375.578	265.8
376.027	282.18
376.475	333.67
376.924	359.42
377.373	270.48
377.822	307.93
378.27	333.67
378.719	279.84
379.167	289.2
379.616	314.95
380.064	328.99
380.512	336.01
380.961	366.44
381.409	352.4
381.857	321.97
382.305	319.63
382.753	314.95
383.201	300.91
383.649	275.16
384.097	340.69
384.545	300.91
384.992	321.97
385.44	324.31
385.888	340.69
386.335	345.38
386.783	300.91
387.231	289.2
387.678	275.16
388.125	392.19
388.573	366.44
389.02	366.44
389.467	357.08
389.914	261.12
390.362	319.63
390.809	314.95
391.256	352.4
391.703	296.22
392.15	375.8
392.596	347.72
393.043	312.61
393.49	247.07
393.937	336.01
394.383	338.35
394.83	310.27
395.276	410.91
395.723	368.78
396.169	277.5
396.616	371.12
397.062	314.95
397.508	305.59
397.954	270.48
398.401	326.65
398.847	350.06
399.293	326.65
399.739	307.93
400.185	328.99
400.631	361.76
401.076	312.61
401.522	314.95
401.968	305.59
402.414	305.59
402.859	298.56
403.305	359.42
403.75	364.1
404.196	321.97
404.641	312.61
405.086	300.91
405.532	378.14
405.977	305.59
406.422	312.61
406.867	373.46
407.312	347.72
407.757	284.52
408.202	340.69
408.647	382.82
409.092	357.08
409.537	310.27
409.982	359.42
410.426	321.97
410.871	324.31
411.316	408.57
411.76	357.08
412.205	336.01
412.649	293.88
413.093	298.56
413.538	359.42
413.982	305.59
414.426	226.01
414.87	336.01
415.314	319.63
415.758	326.65
416.202	284.52
416.646	286.86
417.09	286.86
417.534	394.53
417.978	352.4
418.421	392.19
418.865	275.16
419.309	378.14
419.752	371.12
420.196	396.87
420.639	333.67
421.083	326.65
421.526	321.97
421.969	396.87
422.412	410.91
422.856	326.65
423.299	286.86
423.742	298.56
424.185	354.74
424.628	352.4
425.071	268.14
425.513	298.56
425.956	361.76
426.399	333.67
426.842	284.52
427.284	321.97
427.727	319.63
428.169	293.88
428.612	312.61
429.054	336.01
429.497	368.78
429.939	347.72
430.381	326.65
430.823	321.97
431.265	254.09
431.707	307.93
432.149	319.63
432.591	314.95
433.033	336.01
433.475	319.63
433.917	366.44
434.359	357.08
434.8	350.06
435.242	319.63
435.684	291.54
436.125	263.46
436.567	305.59
437.008	261.12
437.449	371.12
437.891	357.08
438.332	347.72
438.773	317.29
439.214	310.27
439.656	321.97
440.097	291.54
440.538	310.27
440.978	338.35
441.419	291.54
441.86	331.33
442.301	324.31
442.742	347.72
443.182	263.46
443.623	305.59
444.063	392.19
444.504	331.33
444.944	328.99
445.385	338.35
445.825	368.78
446.265	343.03
446.706	326.65
447.146	324.31
447.586	314.95
448.026	354.74
448.466	368.78
448.906	272.82
449.346	284.52
449.786	326.65
450.225	319.63
450.665	275.16
451.105	338.35
451.544	340.69
451.984	221.33
452.424	328.99
452.863	256.43
453.302	338.35
453.742	345.38
454.181	331.33
454.62	333.67
455.059	298.56
455.499	338.35
455.938	343.03
456.377	382.82
456.816	298.56
457.254	328.99
457.693	282.18
458.132	373.46
458.571	324.31
459.01	408.57
459.448	314.95
459.887	300.91
460.325	310.27
460.764	345.38
461.202	312.61
461.641	307.93
462.079	338.35
462.517	347.72
462.955	258.78
463.393	382.82
463.832	338.35
464.27	324.31
464.708	263.46
465.145	331.33
465.583	263.46
466.021	291.54
466.459	326.65
466.897	333.67
467.334	298.56
467.772	282.18
468.209	361.76
468.647	361.76
469.084	378.14
469.522	324.31
469.959	333.67
470.396	303.25
470.833	321.97
471.271	289.2
471.708	261.12
472.145	387.5
472.582	340.69
473.019	345.38
473.456	310.27
473.892	282.18
474.329	326.65
474.766	312.61
475.202	314.95
475.639	319.63
476.076	314.95
476.512	333.67
476.949	307.93
477.385	354.74
477.821	338.35
478.258	275.16
478.694	312.61
479.13	319.63
479.566	310.27
480.002	235.37
480.438	279.84
480.874	293.88
481.31	296.22
481.746	357.08
482.181	333.67
482.617	385.16
483.053	303.25
483.488	359.42
483.924	300.91
484.36	359.42
484.795	333.67
485.23	289.2
485.666	354.74
486.101	338.35
486.536	345.38
486.971	368.78
487.407	314.95
487.842	324.31
488.277	371.12
488.712	272.82
489.146	331.33
489.581	331.33
490.016	289.2
490.451	340.69
490.885	352.4
491.32	317.29
491.755	345.38
492.189	324.31
492.624	293.88
493.058	364.1
493.492	300.91
493.927	319.63
494.361	317.29
494.795	307.93
495.229	277.5
495.663	371.12
496.097	338.35
496.531	277.5
496.965	343.03
497.399	359.42
497.833	289.2
498.266	296.22
498.7	307.93
499.134	279.84
499.567	364.1
500.001	300.91
500.434	336.01
500.868	310.27
501.301	286.86
501.734	244.73
502.168	333.67
502.601	282.18
503.034	324.31
503.467	321.97
503.9	366.44
504.333	364.1
504.766	380.48
505.199	350.06
505.632	307.93
506.064	366.44
506.497	357.08
506.93	331.33
507.362	331.33
507.795	357.08
508.227	371.12
508.66	263.46
509.092	340.69
509.524	354.74
509.956	244.73
510.389	326.65
510.821	296.22
511.253	298.56
511.685	305.59
512.117	240.05
512.549	352.4
512.981	326.65
513.412	310.27
513.844	331.33
514.276	364.1
514.707	312.61
515.139	375.8
515.571	314.95
516.002	350.06
516.433	352.4
516.865	237.71
517.296	310.27
517.727	336.01
518.159	312.61
518.59	303.25
519.021	331.33
519.452	328.99
519.883	361.76
520.314	359.42
520.744	336.01
521.175	406.23
521.606	375.8
522.037	350.06
522.467	293.88
522.898	343.03
523.328	345.38
523.759	347.72
524.189	321.97
524.62	321.97
525.05	303.25
525.48	319.63
525.91	305.59
526.341	373.46
526.771	340.69
527.201	321.97
527.631	403.89
528.061	359.42
528.49	305.59
528.92	321.97
529.35	307.93
529.78	328.99
530.209	307.93
530.639	345.38
531.068	293.88
531.498	352.4
531.927	347.72
532.357	314.95
532.786	361.76
533.215	340.69
533.644	326.65
534.074	314.95
534.503	265.8
534.932	321.97
535.361	392.19
535.79	277.5
536.218	303.25
536.647	307.93
537.076	326.65
537.505	347.72
537.933	336.01
538.362	331.33
538.79	371.12
539.219	343.03
539.647	258.78
540.076	328.99
540.504	331.33
540.932	331.33
541.36	326.65
541.788	364.1
542.217	338.35
542.645	312.61
543.073	331.33
543.5	244.73
543.928	263.46
544.356	296.22
544.784	265.8
545.211	326.65
545.639	328.99
546.067	282.18
546.494	368.78
546.922	312.61
547.349	300.91
547.776	324.31
548.204	296.22
548.631	331.33
549.058	279.84
549.485	324.31
549.912	373.46
550.339	326.65
550.766	270.48
551.193	305.59
551.62	321.97
552.047	305.59
552.474	324.31
552.9	357.08
553.327	312.61
553.754	279.84
554.18	303.25
554.607	298.56
555.033	314.95
555.459	284.52
555.886	314.95
556.312	340.69
556.738	300.91
557.164	373.46
557.59	345.38
558.016	321.97
558.442	387.5
558.868	385.16
559.294	324.31
559.72	366.44
560.145	387.5
560.571	293.88
560.997	333.67
561.422	321.97
561.848	282.18
562.273	275.16
562.699	336.01
563.124	368.78
563.549	321.97
563.974	296.22
564.4	368.78
564.825	263.46
565.25	303.25
565.675	279.84
566.1	312.61
566.525	321.97
566.95	343.03
567.374	321.97
567.799	258.78
568.224	317.29
568.648	317.29
569.073	350.06
569.497	293.88
569.922	354.74
570.346	277.5
570.771	310.27
571.195	340.69
571.619	364.1
572.043	361.76
572.467	331.33
572.891	328.99
573.315	350.06
573.739	375.8
574.163	321.97
574.587	307.93
575.011	333.67
575.435	340.69
575.858	347.72
576.282	359.42
576.705	310.27
577.129	345.38
577.552	350.06
577.976	380.48
578.399	307.93
578.822	314.95
579.245	263.46
579.669	298.56
580.092	340.69
580.515	277.5
580.938	303.25
581.361	343.03
581.784	263.46
582.206	307.93
582.629	270.48
583.052	321.97
583.474	284.52
583.897	371.12
584.32	352.4
584.742	272.82
585.165	251.75
585.587	298.56
586.009	368.78
586.431	354.74
586.854	357.08
587.276	343.03
587.698	328.99
588.12	279.84
588.542	277.5
588.964	375.8
589.386	326.65
589.807	343.03
590.229	314.95
590.651	317.29
591.073	333.67
591.494	305.59
591.916	331.33
592.337	284.52
592.759	333.67
593.18	303.25
593.601	326.65
594.022	331.33
594.444	312.61
594.865	293.88
595.286	312.61
595.707	328.99
596.128	307.93
596.549	279.84
596.97	364.1
597.39	392.19
597.811	310.27
598.232	385.16
598.652	338.35
599.073	300.91
599.494	333.67
599.914	319.63
600.334	310.27
600.755	357.08
601.175	352.4
601.595	307.93
602.015	347.72
602.436	310.27
602.856	483.47
603.276	317.29
603.696	357.08
604.115	389.85
604.535	291.54
604.955	265.8
605.375	268.14
605.794	361.76
606.214	307.93
606.634	319.63
607.053	307.93
607.473	373.46
607.892	354.74
608.311	300.91
608.731	258.78
609.15	328.99
609.569	319.63
609.988	324.31
610.407	343.03
610.826	279.84
611.245	235.37
611.664	399.21
612.083	340.69
612.501	298.56
612.92	328.99
613.339	347.72
613.757	307.93
614.176	331.33
614.594	319.63
615.013	361.76
615.431	333.67
615.85	286.86
616.268	350.06
616.686	328.99
617.104	298.56
617.522	317.29
617.94	378.14
618.358	270.48
618.776	366.44
619.194	328.99
619.612	324.31
620.03	326.65
620.447	343.03
620.865	366.44
621.282	343.03
621.7	326.65
622.117	352.4
622.535	387.5
622.952	272.82
623.369	293.88
623.787	328.99
624.204	284.52
624.621	382.82
625.038	296.22
625.455	336.01
625.872	352.4
626.289	350.06
626.706	343.03
627.123	368.78
627.539	291.54
627.956	223.67
628.373	284.52
628.789	331.33
629.206	307.93
629.622	249.41
630.038	305.59
630.455	312.61
630.871	350.06
631.287	352.4
631.703	289.2
632.12	289.2
632.536	279.84
632.952	312.61
633.368	396.87
633.783	296.22
634.199	314.95
634.615	286.86
635.031	378.14
635.446	270.48
635.862	256.43
636.277	270.48
636.693	350.06
637.108	350.06
637.524	385.16
637.939	284.52
638.354	319.63
638.77	307.93
639.185	354.74
639.6	296.22
640.015	382.82
640.43	300.91
640.845	399.21
641.259	343.03
641.674	359.42
642.089	352.4
642.504	314.95
642.918	312.61
643.333	345.38
643.747	336.01
644.162	298.56
644.576	340.69
644.991	289.2
645.405	314.95
645.819	343.03
646.233	282.18
646.647	307.93
647.061	319.63
647.475	275.16
647.889	345.38
648.303	333.67
648.717	343.03
649.131	272.82
649.545	336.01
649.958	338.35
650.372	275.16
650.785	303.25
651.199	347.72
651.612	254.09
652.026	347.72
652.439	359.42
652.852	340.69
653.266	305.59
653.679	324.31
654.092	291.54
654.505	331.33
654.918	326.65
655.331	373.46
655.744	331.33
656.156	371.12
656.569	312.61
656.982	366.44
657.394	230.69
657.807	336.01
658.22	336.01
658.632	284.52
659.044	380.48
659.457	284.52
659.869	268.14
660.281	291.54
660.693	331.33
661.106	340.69
661.518	350.06
661.93	321.97
662.342	305.59
662.754	317.29
663.165	321.97
663.577	336.01
663.989	340.69
664.401	345.38
664.812	263.46
665.224	387.5
665.635	296.22
666.047	256.43
666.458	338.35
666.869	343.03
667.281	364.1
667.692	307.93
668.103	340.69
668.514	277.5
668.925	373.46
669.336	314.95
669.747	338.35
670.158	298.56
670.569	321.97
670.979	300.91
671.39	429.63
671.801	277.5
672.211	310.27
672.622	293.88
673.032	296.22
673.443	361.76
673.853	317.29
674.263	338.35
674.674	312.61
675.084	275.16
675.494	368.78
675.904	357.08
676.314	258.78
676.724	289.2
677.134	289.2
677.544	359.42
677.953	366.44
678.363	326.65
678.773	296.22
679.182	357.08
679.592	298.56
680.001	347.72
680.411	310.27
680.82	354.74
681.23	357.08
681.639	305.59
682.048	347.72
682.457	343.03
682.866	296.22
683.275	258.78
683.684	326.65
684.093	352.4
684.502	378.14
684.911	312.61
685.32	307.93
685.728	296.22
686.137	373.46
686.546	307.93
686.954	373.46
687.363	328.99
687.771	326.65
688.179	338.35
688.588	328.99
688.996	296.22
689.404	347.72
689.812	338.35
690.22	328.99
690.628	305.59
691.036	345.38
691.444	314.95
691.852	338.35
692.26	333.67
692.667	293.88
693.075	310.27
693.483	289.2
693.89	324.31
694.298	275.16
694.705	317.29
695.112	389.85
695.52	300.91
695.927	256.43
696.334	270.48
696.741	282.18
697.148	345.38
697.555	300.91
697.962	321.97
698.369	282.18
698.776	300.91
699.183	343.03
699.59	352.4
699.996	279.84
700.403	324.31
700.81	324.31
701.216	340.69
701.623	373.46
702.029	282.18
702.435	275.16
702.842	307.93
703.248	350.06
703.654	272.82
704.06	272.82
704.466	312.61
704.872	296.22
705.278	321.97
705.684	347.72
706.09	277.5
706.496	336.01
706.901	331.33
707.307	326.65
707.712	310.27
708.118	317.29
708.523	258.78
708.929	261.12
709.334	328.99
709.74	319.63
710.145	305.59
710.55	265.8
710.955	277.5
711.36	300.91
711.765	319.63
712.17	368.78
712.575	368.78
712.98	757.31
713.385	319.63
713.789	305.59
714.194	331.33
714.599	321.97
715.003	310.27
715.408	324.31
715.812	312.61
716.217	350.06
716.621	289.2
717.025	352.4
717.429	396.87
717.833	336.01
718.238	326.65
718.642	305.59
719.046	321.97
719.449	340.69
719.853	361.76
720.257	352.4
720.661	275.16
721.065	307.93
721.468	312.61
721.872	317.29
722.275	359.42
722.679	345.38
723.082	333.67
723.485	350.06
723.889	352.4
724.292	270.48
724.695	328.99
725.098	321.97
725.501	265.8
725.904	326.65
726.307	300.91
726.71	357.08
727.113	331.33
727.516	336.01
727.918	333.67
728.321	314.95
728.724	319.63
729.126	354.74
729.529	347.72
729.931	321.97
730.333	326.65
730.736	277.5
731.138	296.22
731.54	305.59
731.942	303.25
732.344	319.63
732.746	284.52
733.148	368.78
733.55	312.61
733.952	336.01
734.354	343.03
734.756	326.65
735.157	340.69
735.559	303.25
735.96	314.95
736.362	298.56
736.763	296.22
737.165	317.29
737.566	307.93
737.967	340.69
738.368	296.22
738.77	293.88
739.171	310.27
739.572	305.59
739.973	279.84
740.374	256.43
740.774	279.84
741.175	314.95
741.576	336.01
741.977	319.63
742.377	247.07
742.778	286.86
743.178	354.74
743.579	286.86
743.979	343.03
744.379	307.93
744.78	228.35
745.18	324.31
745.58	261.12
745.98	321.97
746.38	319.63
746.78	307.93
747.18	406.23
747.58	296.22
747.98	350.06
748.38	300.91
748.779	286.86
749.179	293.88
749.578	387.5
749.978	275.16
750.377	361.76
750.777	317.29
751.176	382.82
751.575	312.61
751.975	354.74
752.374	326.65
752.773	328.99
753.172	282.18
753.571	336.01
753.97	310.27
754.369	300.91
754.768	310.27
755.166	333.67
755.565	413.25
755.964	319.63
756.362	352.4
756.761	277.5
757.159	359.42
757.558	282.18
757.956	328.99
758.354	396.87
758.753	382.82
759.151	307.93
759.549	314.95
759.947	305.59
760.345	279.84
760.743	328.99
761.141	310.27
761.539	303.25
761.936	307.93
762.334	347.72
762.732	319.63
763.129	366.44
763.527	354.74
763.924	305.59
764.322	328.99
764.719	310.27
765.117	319.63
765.514	314.95
765.911	293.88
766.308	314.95
766.705	305.59
767.102	291.54
767.499	317.29
767.896	289.2
768.293	336.01
768.69	321.97
769.086	319.63
769.483	352.4
769.88	277.5
770.276	333.67
770.673	345.38
771.069	319.63
771.466	331.33
771.862	392.19
772.258	298.56
772.654	380.48
773.05	291.54
773.447	298.56
773.843	314.95
774.239	324.31
774.634	256.43
775.03	305.59
775.426	319.63
775.822	387.5
776.218	312.61
776.613	275.16
777.009	270.48
777.404	314.95
777.8	298.56
778.195	312.61
778.59	307.93
778.986	352.4
779.381	265.8
779.776	277.5
780.171	298.56
780.566	347.72
780.961	317.29
781.356	326.65
781.751	317.29
782.146	319.63
782.54	300.91
782.935	343.03
783.33	343.03
783.724	366.44
784.119	305.59
784.513	300.91
784.908	345.38
785.302	359.42
785.696	296.22
786.09	354.74
786.485	324.31
786.879	314.95
787.273	312.61
787.667	237.71
788.061	282.18
788.454	321.97
788.848	350.06
789.242	359.42
789.636	331.33
790.029	282.18
790.423	336.01
790.816	307.93
791.21	364.1
791.603	293.88
791.997	268.14
792.39	291.54
792.783	300.91
793.176	352.4
793.569	261.12
793.962	289.2
794.355	268.14
794.748	319.63
795.141	289.2
795.534	347.72
795.927	333.67
796.319	298.56
796.712	296.22
797.105	291.54
797.497	300.91
797.89	331.33
798.282	319.63
798.674	284.52
799.067	371.12
799.459	286.86
799.851	307.93
800.243	296.22
800.635	237.71
801.027	364.1
801.419	312.61
801.811	310.27
802.203	345.38
802.594	373.46
802.986	366.44
803.378	326.65
803.769	338.35
804.161	286.86
804.552	389.85
804.944	319.63
805.335	352.4
805.726	333.67
806.118	336.01
806.509	307.93
806.9	328.99
807.291	275.16
807.682	270.48
808.073	361.76
808.464	305.59
808.855	310.27
809.245	317.29
809.636	310.27
810.027	345.38
810.417	293.88
810.808	357.08
811.198	296.22
811.589	338.35
811.979	319.63
812.369	336.01
812.759	343.03
813.15	331.33
813.54	338.35
813.93	347.72
814.32	338.35
814.71	345.38
815.1	284.52
815.489	343.03
815.879	324.31
816.269	310.27
816.658	305.59
817.048	317.29
817.438	354.74
817.827	303.25
818.216	333.67
818.606	317.29
818.995	343.03
819.384	338.35
819.773	321.97
820.163	321.97
820.552	347.72
820.941	350.06
821.33	258.78
821.718	350.06
822.107	298.56
822.496	314.95
822.885	321.97
823.273	373.46
823.662	350.06
824.05	324.31
824.439	359.42
824.827	312.61
825.216	272.82
825.604	303.25
825.992	336.01
826.38	307.93
826.768	321.97
827.156	300.91
827.544	298.56
827.932	333.67
828.32	389.85
828.708	307.93
829.096	357.08
829.483	328.99
829.871	317.29
830.259	340.69
830.646	333.67
831.034	282.18
831.421	300.91
831.808	328.99
832.196	307.93
832.583	317.29
832.97	305.59
833.357	347.72
833.744	361.76
834.131	366.44
834.518	277.5
834.905	326.65
835.292	347.72
835.678	364.1
836.065	319.63
836.452	279.84
836.838	286.86
837.225	338.35
837.611	324.31
837.998	371.12
838.384	254.09
838.77	275.16
839.157	286.86
839.543	279.84
839.929	331.33
840.315	286.86
840.701	392.19
841.087	251.75
841.473	352.4
841.858	382.82
842.244	256.43
842.63	324.31
843.015	361.76
843.401	640.28
843.787	319.63
844.172	368.78
844.557	364.1
844.943	326.65
845.328	340.69
845.713	394.53
846.098	312.61
846.483	328.99
846.868	310.27
847.253	336.01
847.638	338.35
848.023	382.82
848.408	291.54
848.793	328.99
849.177	338.35
849.562	343.03
849.947	282.18
850.331	347.72
850.715	352.4
851.1	310.27
851.484	331.33
851.868	282.18
852.253	324.31
852.637	326.65
853.021	343.03
853.405	270.48
853.789	291.54
854.173	317.29
854.557	333.67
854.94	303.25
855.324	310.27
855.708	296.22
856.091	366.44
856.475	279.84
856.858	317.29
857.242	394.53
857.625	364.1
858.009	268.14
858.392	235.37
858.775	338.35
859.158	254.09
859.541	310.27
859.924	396.87
860.307	305.59
860.69	314.95
861.073	333.67
861.456	324.31
861.838	350.06
862.221	336.01
862.604	275.16
862.986	321.97
863.369	359.42
863.751	382.82
864.133	291.54
864.516	303.25
864.898	279.84
865.28	321.97
865.662	385.16
866.044	310.27
866.426	303.25
866.808	310.27
867.19	336.01
867.572	389.85
867.954	328.99
868.336	321.97
868.717	361.76
869.099	268.14
869.48	354.74
869.862	263.46
870.243	336.01
870.625	378.14
871.006	317.29
871.387	310.27
871.768	314.95
872.149	352.4
872.53	303.25
872.911	338.35
873.292	375.8
873.673	247.07
874.054	265.8
874.435	298.56
874.815	366.44
875.196	357.08
875.577	354.74
875.957	354.74
876.338	300.91
876.718	343.03
877.098	375.8
877.479	361.76
877.859	324.31
878.239	343.03
878.619	359.42
878.999	324.31
879.379	373.46
879.759	270.48
880.139	307.93
880.519	256.43
880.898	396.87
881.278	333.67
881.658	333.67
882.037	328.99
882.417	331.33
882.796	345.38
883.176	312.61
883.555	340.69
883.934	207.28
884.313	326.65
884.693	291.54
885.072	256.43
885.451	307.93
885.83	333.67
886.209	357.08
886.587	249.41
886.966	326.65
887.345	385.16
887.724	321.97
888.102	343.03
888.481	303.25
888.859	296.22
889.238	305.59
889.616	284.52
889.994	336.01
890.373	387.5
890.751	354.74
891.129	321.97
891.507	321.97
891.885	403.89
892.263	307.93
892.641	305.59
893.019	312.61
893.396	284.52
893.774	282.18
894.152	258.78
894.529	275.16
894.907	303.25
895.284	293.88
895.662	319.63
896.039	289.2
896.416	321.97
896.794	265.8
897.171	261.12
897.548	300.91
897.925	319.63
898.302	293.88
898.679	317.29
899.056	324.31
899.433	361.76
899.809	385.16
900.186	317.29
900.563	352.4
900.939	289.2
901.316	406.23
901.692	240.05
902.069	314.95
902.445	289.2
902.821	310.27
903.197	331.33
903.574	345.38
903.95	303.25
904.326	286.86
904.702	338.35
905.078	303.25
905.454	319.63
905.829	321.97
906.205	293.88
906.581	268.14
906.956	336.01
907.332	343.03
907.707	317.29
908.083	336.01
908.458	247.07
908.833	310.27
909.209	364.1
909.584	286.86
909.959	282.18
910.334	284.52
910.709	324.31
911.084	343.03
911.459	279.84
911.834	328.99
912.209	340.69
912.583	345.38
912.958	326.65
913.333	254.09
913.707	380.48
914.082	293.88
914.456	366.44
914.83	305.59
915.205	333.67
915.579	336.01
915.953	303.25
916.327	338.35
916.701	307.93
917.075	317.29
917.449	347.72
917.823	307.93
918.197	300.91
918.571	333.67
918.944	319.63
919.318	286.86
919.692	324.31
920.065	314.95
920.438	279.84
920.812	338.35
921.185	307.93
921.558	378.14
921.932	331.33
922.305	417.93
922.678	357.08
923.051	338.35
923.424	336.01
923.797	382.82
924.17	345.38
924.542	268.14
924.915	300.91
925.288	343.03
925.661	319.63
926.033	338.35
926.406	261.12
926.778	324.31
927.15	279.84
927.523	240.05
927.895	366.44
928.267	333.67
928.639	303.25
929.011	240.05
929.383	312.61
929.755	305.59
930.127	284.52
930.499	275.16
930.871	275.16
931.242	321.97
931.614	275.16
931.986	354.74
932.357	307.93
932.729	293.88
933.1	336.01
933.471	265.8
933.843	305.59
934.214	310.27
934.585	293.88
934.956	371.12
935.327	326.65
935.698	293.88
936.069	361.76
936.44	340.69
936.811	354.74
937.182	333.67
937.552	373.46
937.923	345.38
938.293	317.29
938.664	310.27
939.034	242.39
939.405	282.18
939.775	263.46
940.145	314.95
940.516	343.03
940.886	319.63
941.256	319.63
941.626	361.76
941.996	298.56
942.366	307.93
942.735	338.35
943.105	319.63
943.475	289.2
943.845	254.09
944.214	282.18
944.584	361.76
944.953	277.5
945.323	366.44
945.692	371.12
946.061	319.63
946.43	312.61
946.8	345.38
947.169	328.99
947.538	307.93
947.907	319.63
948.276	256.43
948.645	324.31
949.013	291.54
949.382	352.4
949.751	431.98
950.119	279.84
950.488	289.2
950.857	314.95
951.225	364.1
951.593	272.82
951.962	338.35
952.33	300.91
952.698	265.8
953.066	324.31
953.434	319.63
953.802	282.18
954.17	249.41
954.538	331.33
954.906	293.88
955.274	366.44
955.642	389.85
956.009	298.56
956.377	359.42
956.744	350.06
957.112	338.35
957.479	326.65
957.847	361.76
958.214	214.31
958.581	312.61
958.948	417.93
959.315	357.08
959.683	307.93
960.05	352.4
960.416	336.01
960.783	303.25
961.15	324.31
961.517	300.91
961.884	406.23
962.25	347.72
962.617	359.42
962.983	331.33
963.35	314.95
963.716	317.29
964.082	333.67
964.449	321.97
964.815	326.65
965.181	354.74
965.547	296.22
965.913	326.65
966.279	336.01
966.645	249.41
967.011	291.54
967.377	326.65
967.742	286.86
968.108	338.35
968.474	279.84
968.839	314.95
969.205	310.27
969.57	270.48
969.935	328.99
970.301	324.31
970.666	265.8
971.031	272.82
971.396	296.22
971.761	258.78
972.126	336.01
972.491	270.48
972.856	272.82
973.221	275.16
973.586	326.65
973.95	282.18
974.315	375.8
974.679	328.99
975.044	317.29
975.408	347.72
975.773	291.54
976.137	357.08
976.501	272.82
976.866	300.91
977.23	319.63
977.594	300.91
977.958	286.86
978.322	305.59
978.686	324.31
979.049	291.54
979.413	338.35
979.777	270.48
980.141	336.01
980.504	275.16
980.868	286.86
981.231	305.59
981.595	272.82
981.958	347.72
982.321	275.16
982.684	298.56
983.048	298.56
983.411	338.35
983.774	366.44
984.137	354.74
984.5	357.08
984.862	328.99
985.225	347.72
985.588	338.35
985.951	314.95
986.313	333.67
986.676	361.76
987.038	314.95
987.401	296.22
987.763	303.25
988.125	261.12
988.488	284.52
988.85	359.42
989.212	321.97
989.574	378.14
989.936	249.41
990.298	289.2
990.66	336.01
991.022	307.93
991.383	265.8
991.745	382.82
992.107	357.08
992.468	328.99
992.83	328.99
993.191	354.74
993.553	300.91
993.914	286.86
994.275	249.41
994.637	389.85
994.998	319.63
995.359	310.27
995.72	317.29
996.081	359.42
996.442	270.48
996.803	282.18
997.163	258.78
997.524	328.99
997.885	298.56
998.245	343.03
998.606	343.03
998.966	321.97
999.327	286.86
999.687	319.63
1000.047	364.1
1000.408	303.25
1000.768	326.65
1001.128	233.03
1001.488	291.54
1001.848	240.05
1002.208	303.25
1002.568	277.5
1002.927	296.22
1003.287	286.86
1003.647	321.97
1004.007	256.43
1004.366	336.01
1004.726	336.01
1005.085	279.84
1005.444	326.65
1005.804	307.93
1006.163	347.72
1006.522	296.22
1006.881	343.03
1007.24	291.54
1007.599	314.95
1007.958	296.22
1008.317	270.48
1008.676	270.48
1009.035	291.54
1009.393	350.06
1009.752	359.42
1010.111	277.5
1010.469	380.48
1010.828	319.63
1011.186	373.46
1011.544	242.39
1011.903	336.01
1012.261	284.52
1012.619	277.5
1012.977	352.4
1013.335	291.54
1013.693	319.63
1014.051	279.84
1014.409	256.43
1014.767	293.88
1015.124	272.82
1015.482	422.61
1015.84	300.91
1016.197	382.82
1016.555	237.71
1016.912	314.95
1017.269	314.95
1017.627	343.03
1017.984	371.12
1018.341	307.93
1018.698	303.25
1019.055	293.88
1019.412	256.43
1019.769	317.29
1020.126	314.95
1020.483	312.61
1020.84	321.97
1021.196	303.25
1021.553	277.5
1021.909	275.16
1022.266	378.14
1022.622	275.16
1022.979	382.82
1023.335	265.8
1023.691	293.88
1024.047	354.74
1024.404	284.52
1024.76	305.59
1025.116	340.69
1025.472	345.38
1025.827	319.63
1026.183	321.97
1026.539	326.65
1026.895	270.48
1027.25	268.14
1027.606	314.95
1027.961	317.29
1028.317	310.27
1028.672	389.85
1029.028	298.56
1029.383	279.84
1029.738	300.91
1030.093	328.99
1030.448	354.74
1030.803	399.21
1031.158	300.91
1031.513	375.8
1031.868	347.72
1032.223	291.54
1032.577	326.65
1032.932	249.41
1033.287	286.86
1033.641	286.86
1033.996	338.35
1034.35	338.35
1034.704	364.1
1035.059	317.29
1035.413	321.97
1035.767	321.97
1036.121	321.97
