Data from Al_FLMS009871__1183__16-40-38-282.txt Node

Date: Fri Mar 08 16:40:38 CST 2024
User: pe5414po
Spectrometer: FLMS00987
Trigger mode: 0
Integration Time (sec): 1.000000E-1
Scans to average: 1
Electric dark correction enabled: true
Nonlinearity correction enabled: false
Boxcar width: 0
XAxis mode: Wavelengths
Number of Pixels in Spectrum: 2048
>>>>>Begin Spectral Data<<<<<
188.938	17.41
189.409	17.41
189.879	17.41
190.349	-48.13
190.819	-144.09
191.29	-151.11
191.76	-120.68
192.23	-17.7
192.7	-104.3
193.17	-52.81
193.64	-66.85
194.109	29.11
194.579	38.47
195.049	-15.36
195.519	1.02
195.988	-48.13
196.458	52.52
196.927	85.28
197.397	99.33
197.866	113.37
198.336	157.84
198.805	68.9
199.274	164.86
199.744	237.42
200.213	192.95
200.682	185.93
201.151	197.63
201.62	237.42
202.089	281.89
202.558	274.87
203.027	214.01
203.495	221.03
203.964	309.97
204.433	291.25
204.902	258.48
205.37	331.04
205.839	363.81
206.307	300.61
206.776	366.15
207.244	279.55
207.712	249.12
208.181	312.32
208.649	309.97
209.117	263.16
209.585	237.42
210.053	293.59
210.521	216.35
210.989	295.93
211.457	221.03
211.925	366.15
212.393	281.89
212.861	267.85
213.328	274.87
213.796	284.23
214.264	286.57
214.731	253.8
215.199	307.63
215.666	258.48
216.133	272.53
216.601	284.23
217.068	314.66
217.535	298.27
218.003	302.95
218.47	258.48
218.937	291.25
219.404	284.23
219.871	307.63
220.338	230.4
220.805	260.82
221.271	225.72
221.738	253.8
222.205	335.72
222.671	190.61
223.138	242.1
223.605	202.31
224.071	239.76
224.538	335.72
225.004	286.57
225.47	265.5
225.937	279.55
226.403	298.27
226.869	237.42
227.335	270.19
227.801	263.16
228.267	232.74
228.733	270.19
229.199	263.16
229.665	232.74
230.131	295.93
230.597	246.78
231.062	321.68
231.528	300.61
231.994	246.78
232.459	298.27
232.925	333.38
233.39	291.25
233.856	295.93
234.321	272.53
234.786	270.19
235.252	232.74
235.717	253.8
236.182	298.27
236.647	295.93
237.112	288.91
237.577	251.46
238.042	253.8
238.507	256.14
238.972	307.63
239.436	307.63
239.901	270.19
240.366	305.29
240.83	333.38
241.295	331.04
241.76	340.4
242.224	270.19
242.688	321.68
243.153	331.04
243.617	249.12
244.081	221.03
244.545	256.14
245.01	300.61
245.474	249.12
245.938	279.55
246.402	270.19
246.866	258.48
247.33	235.08
247.793	298.27
248.257	265.5
248.721	274.87
249.185	307.63
249.648	244.44
250.112	321.68
250.575	295.93
251.039	267.85
251.502	293.59
251.965	263.16
252.429	258.48
252.892	260.82
253.355	345.08
253.818	267.85
254.281	253.8
254.744	326.36
255.207	274.87
255.67	242.1
256.133	274.87
256.596	300.61
257.059	251.46
257.522	291.25
257.984	279.55
258.447	347.42
258.909	314.66
259.372	307.63
259.834	286.57
260.297	298.27
260.759	258.48
261.221	218.69
261.684	354.44
262.146	396.57
262.608	410.62
263.07	377.85
263.532	244.44
263.994	288.91
264.456	300.61
264.918	251.46
265.38	338.06
265.842	300.61
266.303	293.59
266.765	352.1
267.227	270.19
267.688	324.02
268.15	338.06
268.611	263.16
269.072	302.95
269.534	345.08
269.995	340.4
270.456	324.02
270.918	305.29
271.379	309.97
271.84	195.29
272.301	291.25
272.762	246.78
273.223	274.87
273.684	221.03
274.144	270.19
274.605	249.12
275.066	319.34
275.527	309.97
275.987	288.91
276.448	302.95
276.908	293.59
277.369	291.25
277.829	253.8
278.289	293.59
278.75	263.16
279.21	338.06
279.67	281.89
280.13	295.93
280.59	300.61
281.05	258.48
281.51	277.21
281.97	352.1
282.43	340.4
282.89	258.48
283.35	302.95
283.809	274.87
284.269	284.23
284.729	178.9
285.188	265.5
285.648	347.42
286.107	342.74
286.567	295.93
287.026	277.21
287.485	281.89
287.944	324.02
288.404	307.63
288.863	326.36
289.322	345.08
289.781	380.19
290.24	265.5
290.699	279.55
291.158	312.32
291.616	270.19
292.075	293.59
292.534	291.25
292.992	326.36
293.451	235.08
293.91	298.27
294.368	328.7
294.827	277.21
295.285	232.74
295.743	286.57
296.202	256.14
296.66	253.8
297.118	284.23
297.576	312.32
298.034	354.44
298.492	249.12
298.95	347.42
299.408	361.47
299.866	277.21
300.324	246.78
300.781	260.82
301.239	347.42
301.697	302.95
302.154	293.59
302.612	305.29
303.069	288.91
303.527	333.38
303.984	291.25
304.441	281.89
304.899	284.23
305.356	298.27
305.813	359.13
306.27	291.25
306.727	281.89
307.184	375.51
307.641	354.44
308.098	244.44
308.555	309.97
309.012	361.47
309.468	286.57
309.925	298.27
310.382	333.38
310.838	333.38
311.295	349.76
311.751	270.19
312.208	312.32
312.664	256.14
313.12	321.68
313.577	328.7
314.033	321.68
314.489	309.97
314.945	291.25
315.401	328.7
315.857	258.48
316.313	277.21
316.769	263.16
317.225	342.74
317.681	291.25
318.136	317
318.592	251.46
319.048	305.29
319.503	331.04
319.959	281.89
320.414	298.27
320.869	279.55
321.325	321.68
321.78	324.02
322.235	244.44
322.691	363.81
323.146	293.59
323.601	352.1
324.056	317
324.511	352.1
324.966	288.91
325.421	333.38
325.875	321.68
326.33	274.87
326.785	335.72
327.24	382.53
327.694	340.4
328.149	356.79
328.603	286.57
329.058	321.68
329.512	274.87
329.966	263.16
330.421	324.02
330.875	312.32
331.329	249.12
331.783	352.1
332.237	319.34
332.691	284.23
333.145	291.25
333.599	321.68
334.053	326.36
334.507	309.97
334.96	314.66
335.414	324.02
335.868	328.7
336.321	340.4
336.775	342.74
337.228	312.32
337.682	345.08
338.135	328.7
338.588	342.74
339.042	354.44
339.495	295.93
339.948	312.32
340.401	338.06
340.854	335.72
341.307	312.32
341.76	279.55
342.213	333.38
342.666	291.25
343.119	331.04
343.571	305.29
344.024	321.68
344.477	298.27
344.929	272.53
345.382	286.57
345.834	260.82
346.287	300.61
346.739	279.55
347.191	352.1
347.644	293.59
348.096	274.87
348.548	347.42
349	279.55
349.452	349.76
349.904	272.53
350.356	319.34
350.808	295.93
351.26	335.72
351.711	263.16
352.163	342.74
352.615	314.66
353.066	321.68
353.518	260.82
353.969	258.48
354.421	349.76
354.872	340.4
355.324	309.97
355.775	354.44
356.226	345.08
356.677	305.29
357.128	324.02
357.579	295.93
358.03	321.68
358.481	331.04
358.932	302.95
359.383	335.72
359.834	354.44
360.285	281.89
360.735	300.61
361.186	319.34
361.637	307.63
362.087	326.36
362.538	305.29
362.988	314.66
363.438	305.29
363.889	345.08
364.339	317
364.789	331.04
365.239	284.23
365.689	302.95
366.139	349.76
366.589	293.59
367.039	324.02
367.489	295.93
367.939	338.06
368.389	366.15
368.839	338.06
369.288	312.32
369.738	368.49
370.187	286.57
370.637	347.42
371.086	319.34
371.536	263.16
371.985	291.25
372.434	340.4
372.884	267.85
373.333	324.02
373.782	305.29
374.231	314.66
374.68	309.97
375.129	331.04
375.578	340.4
376.027	326.36
376.475	335.72
376.924	272.53
377.373	309.97
377.822	370.83
378.27	312.32
378.719	359.13
379.167	389.55
379.616	342.74
380.064	331.04
380.512	333.38
380.961	295.93
381.409	284.23
381.857	326.36
382.305	324.02
382.753	349.76
383.201	284.23
383.649	291.25
384.097	363.81
384.545	331.04
384.992	281.89
385.44	328.7
385.888	356.79
386.335	302.95
386.783	342.74
387.231	356.79
387.678	295.93
388.125	333.38
388.573	277.21
389.02	279.55
389.467	319.34
389.914	251.46
390.362	335.72
390.809	251.46
391.256	307.63
391.703	352.1
392.15	298.27
392.596	335.72
393.043	331.04
393.49	274.87
393.937	284.23
394.383	363.81
394.83	401.26
395.276	356.79
395.723	342.74
396.169	267.85
396.616	377.85
397.062	307.63
397.508	309.97
397.954	345.08
398.401	293.59
398.847	267.85
399.293	312.32
399.739	333.38
400.185	251.46
400.631	347.42
401.076	298.27
401.522	221.03
401.968	298.27
402.414	326.36
402.859	319.34
403.305	274.87
403.75	284.23
404.196	321.68
404.641	302.95
405.086	305.29
405.532	380.19
405.977	398.92
406.422	333.38
406.867	324.02
407.312	377.85
407.757	349.76
408.202	359.13
408.647	340.4
409.092	246.78
409.537	384.87
409.982	380.19
410.426	408.28
410.871	361.47
411.316	361.47
411.76	309.97
412.205	288.91
412.649	293.59
413.093	331.04
413.538	321.68
413.982	305.29
414.426	326.36
414.87	319.34
415.314	319.34
415.758	309.97
416.202	279.55
416.646	307.63
417.09	300.61
417.534	328.7
417.978	328.7
418.421	317
418.865	335.72
419.309	286.57
419.752	347.42
420.196	263.16
420.639	331.04
421.083	419.98
421.526	312.32
421.969	286.57
422.412	356.79
422.856	380.19
423.299	302.95
423.742	356.79
424.185	377.85
424.628	295.93
425.071	302.95
425.513	328.7
425.956	375.51
426.399	281.89
426.842	298.27
427.284	394.23
427.727	300.61
428.169	291.25
428.612	272.53
429.054	293.59
429.497	328.7
429.939	272.53
430.381	366.15
430.823	272.53
431.265	305.29
431.707	375.51
432.149	328.7
432.591	300.61
433.033	338.06
433.475	307.63
433.917	291.25
434.359	300.61
434.8	333.38
435.242	314.66
435.684	246.78
436.125	361.47
436.567	347.42
437.008	373.17
437.449	326.36
437.891	319.34
438.332	260.82
438.773	398.92
439.214	326.36
439.656	373.17
440.097	352.1
440.538	279.55
440.978	321.68
441.419	307.63
441.86	345.08
442.301	349.76
442.742	345.08
443.182	356.79
443.623	382.53
444.063	288.91
444.504	314.66
444.944	349.76
445.385	333.38
445.825	307.63
446.265	359.13
446.706	340.4
447.146	286.57
447.586	270.19
448.026	363.81
448.466	324.02
448.906	347.42
449.346	260.82
449.786	298.27
450.225	232.74
450.665	349.76
451.105	352.1
451.544	335.72
451.984	363.81
452.424	288.91
452.863	375.51
453.302	284.23
453.742	335.72
454.181	359.13
454.62	293.59
455.059	352.1
455.499	314.66
455.938	345.08
456.377	328.7
456.816	342.74
457.254	340.4
457.693	312.32
458.132	410.62
458.571	291.25
459.01	345.08
459.448	305.29
459.887	384.87
460.325	368.49
460.764	314.66
461.202	260.82
461.641	312.32
462.079	267.85
462.517	281.89
462.955	284.23
463.393	279.55
463.832	295.93
464.27	307.63
464.708	361.47
465.145	366.15
465.583	340.4
466.021	331.04
466.459	307.63
466.897	331.04
467.334	333.38
467.772	361.47
468.209	305.29
468.647	302.95
469.084	370.83
469.522	307.63
469.959	377.85
470.396	345.08
470.833	338.06
471.271	326.36
471.708	288.91
472.145	338.06
472.582	326.36
473.019	427
473.456	340.4
473.892	331.04
474.329	314.66
474.766	331.04
475.202	265.5
475.639	309.97
476.076	291.25
476.512	345.08
476.949	300.61
477.385	380.19
477.821	319.34
478.258	319.34
478.694	326.36
479.13	361.47
479.566	279.55
480.002	324.02
480.438	384.87
480.874	349.76
481.31	317
481.746	288.91
482.181	354.44
482.617	314.66
483.053	295.93
483.488	349.76
483.924	242.1
484.36	288.91
484.795	317
485.23	349.76
485.666	314.66
486.101	265.5
486.536	317
486.971	321.68
487.407	328.7
487.842	279.55
488.277	342.74
488.712	284.23
489.146	375.51
489.581	314.66
490.016	293.59
490.451	331.04
490.885	333.38
491.32	328.7
491.755	331.04
492.189	398.92
492.624	305.29
493.058	359.13
493.492	380.19
493.927	342.74
494.361	321.68
494.795	246.78
495.229	361.47
495.663	396.57
496.097	368.49
496.531	281.89
496.965	314.66
497.399	317
497.833	375.51
498.266	333.38
498.7	319.34
499.134	288.91
499.567	335.72
500.001	324.02
500.434	307.63
500.868	333.38
501.301	335.72
501.734	335.72
502.168	284.23
502.601	288.91
503.034	317
503.467	279.55
503.9	354.44
504.333	309.97
504.766	270.19
505.199	251.46
505.632	345.08
506.064	349.76
506.497	338.06
506.93	340.4
507.362	288.91
507.795	335.72
508.227	272.53
508.66	281.89
509.092	314.66
509.524	359.13
509.956	373.17
510.389	305.29
510.821	324.02
511.253	288.91
511.685	328.7
512.117	288.91
512.549	354.44
512.981	340.4
513.412	270.19
513.844	356.79
514.276	288.91
514.707	317
515.139	338.06
515.571	331.04
516.002	403.6
516.433	331.04
516.865	321.68
517.296	281.89
517.727	398.92
518.159	319.34
518.59	333.38
519.021	314.66
519.452	309.97
519.883	335.72
520.314	309.97
520.744	335.72
521.175	321.68
521.606	305.29
522.037	317
522.467	342.74
522.898	363.81
523.328	319.34
523.759	321.68
524.189	288.91
524.62	307.63
525.05	312.32
525.48	328.7
525.91	324.02
526.341	298.27
526.771	298.27
527.201	291.25
527.631	305.29
528.061	368.49
528.49	335.72
528.92	298.27
529.35	314.66
529.78	331.04
530.209	281.89
530.639	274.87
531.068	302.95
531.498	391.89
531.927	347.42
532.357	314.66
532.786	356.79
533.215	309.97
533.644	354.44
534.074	281.89
534.503	345.08
534.932	291.25
535.361	380.19
535.79	312.32
536.218	366.15
536.647	331.04
537.076	370.83
537.505	359.13
537.933	319.34
538.362	370.83
538.79	263.16
539.219	359.13
539.647	347.42
540.076	300.61
540.504	326.36
540.932	309.97
541.36	342.74
541.788	347.42
542.217	319.34
542.645	354.44
543.073	361.47
543.5	354.44
543.928	384.87
544.356	319.34
544.784	321.68
545.211	368.49
545.639	326.36
546.067	403.6
546.494	338.06
546.922	267.85
547.349	370.83
547.776	345.08
548.204	324.02
548.631	295.93
549.058	340.4
549.485	298.27
549.912	302.95
550.339	345.08
550.766	331.04
551.193	309.97
551.62	317
552.047	324.02
552.474	302.95
552.9	300.61
553.327	338.06
553.754	256.14
554.18	321.68
554.607	314.66
555.033	309.97
555.459	305.29
555.886	286.57
556.312	324.02
556.738	331.04
557.164	319.34
557.59	288.91
558.016	298.27
558.442	284.23
558.868	239.76
559.294	338.06
559.72	321.68
560.145	321.68
560.571	305.29
560.997	298.27
561.422	366.15
561.848	314.66
562.273	319.34
562.699	331.04
563.124	354.44
563.549	295.93
563.974	368.49
564.4	361.47
564.825	281.89
565.25	288.91
565.675	349.76
566.1	281.89
566.525	331.04
566.95	333.38
567.374	331.04
567.799	295.93
568.224	314.66
568.648	356.79
569.073	354.44
569.497	300.61
569.922	312.32
570.346	331.04
570.771	314.66
571.195	373.17
571.619	291.25
572.043	333.38
572.467	305.29
572.891	321.68
573.315	317
573.739	352.1
574.163	331.04
574.587	284.23
575.011	384.87
575.435	298.27
575.858	359.13
576.282	347.42
576.705	333.38
577.129	263.16
577.552	298.27
577.976	277.21
578.399	295.93
578.822	331.04
579.245	295.93
579.669	331.04
580.092	359.13
580.515	349.76
580.938	286.57
581.361	307.63
581.784	324.02
582.206	361.47
582.629	342.74
583.052	317
583.474	354.44
583.897	331.04
584.32	284.23
584.742	312.32
585.165	279.55
585.587	345.08
586.009	277.21
586.431	324.02
586.854	253.8
587.276	242.1
587.698	284.23
588.12	321.68
588.542	279.55
588.964	328.7
589.386	270.19
589.807	319.34
590.229	338.06
590.651	349.76
591.073	328.7
591.494	288.91
591.916	324.02
592.337	333.38
592.759	342.74
593.18	319.34
593.601	312.32
594.022	284.23
594.444	340.4
594.865	368.49
595.286	338.06
595.707	277.21
596.128	347.42
596.549	342.74
596.97	347.42
597.39	342.74
597.811	354.44
598.232	277.21
598.652	284.23
599.073	328.7
599.494	270.19
599.914	321.68
600.334	345.08
600.755	309.97
601.175	356.79
601.595	340.4
602.015	380.19
602.436	331.04
602.856	450.41
603.276	347.42
603.696	295.93
604.115	298.27
604.535	305.29
604.955	272.53
605.375	258.48
605.794	265.5
606.214	302.95
606.634	302.95
607.053	305.29
607.473	293.59
607.892	309.97
608.311	319.34
608.731	277.21
609.15	270.19
609.569	356.79
609.988	338.06
610.407	221.03
610.826	293.59
611.245	368.49
611.664	398.92
612.083	398.92
612.501	377.85
612.92	328.7
613.339	384.87
613.757	312.32
614.176	340.4
614.594	352.1
615.013	338.06
615.431	333.38
615.85	347.42
616.268	272.53
616.686	335.72
617.104	314.66
617.522	340.4
617.94	281.89
618.358	291.25
618.776	354.44
619.194	321.68
619.612	314.66
620.03	324.02
620.447	305.29
620.865	345.08
621.282	319.34
621.7	279.55
622.117	284.23
622.535	368.49
622.952	279.55
623.369	333.38
623.787	302.95
624.204	370.83
624.621	375.51
625.038	312.32
625.455	307.63
625.872	342.74
626.289	340.4
626.706	286.57
627.123	375.51
627.539	293.59
627.956	312.32
628.373	249.12
628.789	331.04
629.206	258.48
629.622	356.79
630.038	295.93
630.455	349.76
630.871	370.83
631.287	312.32
631.703	295.93
632.12	279.55
632.536	338.06
632.952	232.74
633.368	267.85
633.783	293.59
634.199	335.72
634.615	370.83
635.031	321.68
635.446	363.81
635.862	342.74
636.277	293.59
636.693	335.72
637.108	338.06
637.524	284.23
637.939	345.08
638.354	244.44
638.77	340.4
639.185	422.32
639.6	347.42
640.015	349.76
640.43	281.89
640.845	309.97
641.259	352.1
641.674	314.66
642.089	342.74
642.504	314.66
642.918	342.74
643.333	307.63
643.747	270.19
644.162	270.19
644.576	373.17
644.991	373.17
645.405	335.72
645.819	307.63
646.233	312.32
646.647	317
647.061	363.81
647.475	270.19
647.889	288.91
648.303	281.89
648.717	307.63
649.131	326.36
649.545	242.1
649.958	354.44
650.372	366.15
650.785	293.59
651.199	321.68
651.612	307.63
652.026	260.82
652.439	333.38
652.852	342.74
653.266	333.38
653.679	391.89
654.092	270.19
654.505	307.63
654.918	279.55
655.331	274.87
655.744	317
656.156	326.36
656.569	274.87
656.982	204.65
657.394	281.89
657.807	288.91
658.22	317
658.632	291.25
659.044	326.36
659.457	366.15
659.869	368.49
660.281	293.59
660.693	281.89
661.106	321.68
661.518	309.97
661.93	352.1
662.342	333.38
662.754	286.57
663.165	305.29
663.577	380.19
663.989	288.91
664.401	377.85
664.812	326.36
665.224	326.36
665.635	391.89
666.047	279.55
666.458	309.97
666.869	340.4
667.281	288.91
667.692	345.08
668.103	307.63
668.514	309.97
668.925	286.57
669.336	349.76
669.747	317
670.158	317
670.569	286.57
670.979	349.76
671.39	272.53
671.801	274.87
672.211	288.91
672.622	345.08
673.032	267.85
673.443	309.97
673.853	277.21
674.263	251.46
674.674	340.4
675.084	288.91
675.494	309.97
675.904	340.4
676.314	354.44
676.724	272.53
677.134	256.14
677.544	338.06
677.953	267.85
678.363	302.95
678.773	366.15
679.182	305.29
679.592	300.61
680.001	331.04
680.411	300.61
680.82	319.34
681.23	349.76
681.639	309.97
682.048	291.25
682.457	347.42
682.866	277.21
683.275	314.66
683.684	333.38
684.093	314.66
684.502	309.97
684.911	298.27
685.32	317
685.728	270.19
686.137	307.63
686.546	281.89
686.954	377.85
687.363	317
687.771	270.19
688.179	373.17
688.588	342.74
688.996	324.02
689.404	359.13
689.812	279.55
690.22	307.63
690.628	326.36
691.036	298.27
691.444	295.93
691.852	359.13
692.26	377.85
692.667	321.68
693.075	354.44
693.483	405.94
693.89	333.38
694.298	324.02
694.705	291.25
695.112	335.72
695.52	309.97
695.927	312.32
696.334	288.91
696.741	281.89
697.148	256.14
697.555	258.48
697.962	295.93
698.369	302.95
698.776	333.38
699.183	342.74
699.59	321.68
699.996	307.63
700.403	258.48
700.81	349.76
701.216	331.04
701.623	356.79
702.029	321.68
702.435	335.72
702.842	263.16
703.248	305.29
703.654	324.02
704.06	333.38
704.466	302.95
704.872	314.66
705.278	335.72
705.684	363.81
706.09	354.44
706.496	314.66
706.901	340.4
707.307	260.82
707.712	363.81
708.118	288.91
708.523	335.72
708.929	380.19
709.334	288.91
709.74	363.81
710.145	387.21
710.55	302.95
710.955	270.19
711.36	321.68
711.765	298.27
712.17	347.42
712.575	333.38
712.98	761.7
713.385	366.15
713.789	401.26
714.194	324.02
714.599	321.68
715.003	267.85
715.408	286.57
715.812	359.13
716.217	382.53
716.621	333.38
717.025	359.13
717.429	260.82
717.833	324.02
718.238	288.91
718.642	326.36
719.046	338.06
719.449	312.32
719.853	279.55
720.257	354.44
720.661	359.13
721.065	328.7
721.468	319.34
721.872	312.32
722.275	317
722.679	295.93
723.082	328.7
723.485	342.74
723.889	324.02
724.292	363.81
724.695	363.81
725.098	370.83
725.501	317
725.904	335.72
726.307	345.08
726.71	345.08
727.113	331.04
727.516	298.27
727.918	293.59
728.321	359.13
728.724	345.08
729.126	291.25
729.529	317
729.931	291.25
730.333	319.34
730.736	335.72
731.138	319.34
731.54	368.49
731.942	370.83
732.344	305.29
732.746	270.19
733.148	319.34
733.55	286.57
733.952	298.27
734.354	288.91
734.756	270.19
735.157	277.21
735.559	335.72
735.96	321.68
736.362	317
736.763	274.87
737.165	326.36
737.566	317
737.967	305.29
738.368	359.13
738.77	263.16
739.171	345.08
739.572	279.55
739.973	354.44
740.374	314.66
740.774	295.93
741.175	340.4
741.576	302.95
741.977	274.87
742.377	326.36
742.778	345.08
743.178	291.25
743.579	333.38
743.979	286.57
744.379	279.55
744.78	359.13
745.18	314.66
745.58	331.04
745.98	293.59
746.38	345.08
746.78	235.08
747.18	349.76
747.58	272.53
747.98	249.12
748.38	331.04
748.779	300.61
749.179	295.93
749.578	295.93
749.978	312.32
750.377	338.06
750.777	366.15
751.176	256.14
751.575	321.68
751.975	277.21
752.374	370.83
752.773	267.85
753.172	291.25
753.571	347.42
753.97	345.08
754.369	349.76
754.768	298.27
755.166	342.74
755.565	314.66
755.964	326.36
756.362	338.06
756.761	246.78
757.159	279.55
757.558	288.91
757.956	317
758.354	356.79
758.753	324.02
759.151	274.87
759.549	331.04
759.947	335.72
760.345	286.57
760.743	256.14
761.141	328.7
761.539	375.51
761.936	331.04
762.334	302.95
762.732	324.02
763.129	333.38
763.527	281.89
763.924	258.48
764.322	375.51
764.719	307.63
765.117	302.95
765.514	366.15
765.911	307.63
766.308	338.06
766.705	293.59
767.102	319.34
767.499	295.93
767.896	302.95
768.293	342.74
768.69	324.02
769.086	263.16
769.483	326.36
769.88	375.51
770.276	293.59
770.673	279.55
771.069	305.29
771.466	312.32
771.862	291.25
772.258	324.02
772.654	363.81
773.05	293.59
773.447	300.61
773.843	347.42
774.239	354.44
774.634	354.44
775.03	361.47
775.426	305.29
775.822	300.61
776.218	274.87
776.613	335.72
777.009	359.13
777.404	317
777.8	342.74
778.195	286.57
778.59	284.23
778.986	305.29
779.381	382.53
779.776	274.87
780.171	270.19
780.566	338.06
780.961	279.55
781.356	359.13
781.751	305.29
782.146	331.04
782.54	291.25
782.935	321.68
783.33	300.61
783.724	293.59
784.119	286.57
784.513	309.97
784.908	319.34
785.302	305.29
785.696	352.1
786.09	377.85
786.485	352.1
786.879	319.34
787.273	302.95
787.667	270.19
788.061	258.48
788.454	270.19
788.848	370.83
789.242	338.06
789.636	284.23
790.029	331.04
790.423	340.4
790.816	359.13
791.21	314.66
791.603	291.25
791.997	324.02
792.39	352.1
792.783	328.7
793.176	298.27
793.569	342.74
793.962	288.91
794.355	321.68
794.748	267.85
795.141	317
795.534	302.95
795.927	298.27
796.319	333.38
796.712	302.95
797.105	256.14
797.497	286.57
797.89	274.87
798.282	312.32
798.674	309.97
799.067	305.29
799.459	298.27
799.851	216.35
800.243	314.66
800.635	338.06
801.027	242.1
801.419	279.55
801.811	314.66
802.203	279.55
802.594	300.61
802.986	331.04
803.378	354.44
803.769	298.27
804.161	223.37
804.552	333.38
804.944	295.93
805.335	288.91
805.726	340.4
806.118	288.91
806.509	298.27
806.9	251.46
807.291	302.95
807.682	263.16
808.073	331.04
808.464	363.81
808.855	317
809.245	309.97
809.636	347.42
810.027	342.74
810.417	293.59
810.808	307.63
811.198	338.06
811.589	309.97
811.979	326.36
812.369	244.44
812.759	284.23
813.15	305.29
813.54	230.4
813.93	363.81
814.32	281.89
814.71	324.02
815.1	410.62
815.489	274.87
815.879	302.95
816.269	253.8
816.658	331.04
817.048	340.4
817.438	291.25
817.827	352.1
818.216	272.53
818.606	258.48
818.995	333.38
819.384	272.53
819.773	321.68
820.163	305.29
820.552	279.55
820.941	335.72
821.33	277.21
821.718	352.1
822.107	321.68
822.496	302.95
822.885	256.14
823.273	363.81
823.662	326.36
824.05	324.02
824.439	366.15
824.827	281.89
825.216	307.63
825.604	298.27
825.992	317
826.38	328.7
826.768	277.21
827.156	312.32
827.544	270.19
827.932	345.08
828.32	291.25
828.708	298.27
829.096	281.89
829.483	274.87
829.871	363.81
830.259	258.48
830.646	331.04
831.034	281.89
831.421	347.42
831.808	312.32
832.196	265.5
832.583	225.72
832.97	328.7
833.357	272.53
833.744	324.02
834.131	281.89
834.518	319.34
834.905	338.06
835.292	286.57
835.678	293.59
836.065	319.34
836.452	333.38
836.838	370.83
837.225	298.27
837.611	253.8
837.998	333.38
838.384	307.63
838.77	359.13
839.157	298.27
839.543	347.42
839.929	284.23
840.315	270.19
840.701	305.29
841.087	317
841.473	352.1
841.858	324.02
842.244	293.59
842.63	298.27
843.015	270.19
843.401	621.27
843.787	359.13
844.172	398.92
844.557	401.26
844.943	354.44
845.328	356.79
845.713	384.87
846.098	284.23
846.483	326.36
846.868	391.89
847.253	314.66
847.638	324.02
848.023	281.89
848.408	345.08
848.793	373.17
849.177	387.21
849.562	302.95
849.947	342.74
850.331	307.63
850.715	321.68
851.1	258.48
851.484	324.02
851.868	298.27
852.253	302.95
852.637	324.02
853.021	359.13
853.405	274.87
853.789	349.76
854.173	319.34
854.557	246.78
854.94	300.61
855.324	319.34
855.708	291.25
856.091	324.02
856.475	291.25
856.858	305.29
857.242	295.93
857.625	361.47
858.009	274.87
858.392	333.38
858.775	256.14
859.158	279.55
859.541	288.91
859.924	342.74
860.307	284.23
860.69	272.53
861.073	335.72
861.456	331.04
861.838	270.19
862.221	319.34
862.604	305.29
862.986	288.91
863.369	342.74
863.751	391.89
864.133	305.29
864.516	331.04
864.898	317
865.28	349.76
865.662	373.17
866.044	293.59
866.426	300.61
866.808	345.08
867.19	319.34
867.572	302.95
867.954	333.38
868.336	384.87
868.717	312.32
869.099	309.97
869.48	286.57
869.862	335.72
870.243	309.97
870.625	309.97
871.006	244.44
871.387	270.19
871.768	312.32
872.149	333.38
872.53	249.12
872.911	309.97
873.292	326.36
873.673	328.7
874.054	293.59
874.435	274.87
874.815	277.21
875.196	298.27
875.577	333.38
875.957	258.48
876.338	324.02
876.718	242.1
877.098	363.81
877.479	331.04
877.859	312.32
878.239	302.95
878.619	307.63
878.999	340.4
879.379	338.06
879.759	319.34
880.139	333.38
880.519	246.78
880.898	314.66
881.278	314.66
881.658	314.66
882.037	340.4
882.417	333.38
882.796	331.04
883.176	312.32
883.555	340.4
883.934	328.7
884.313	298.27
884.693	324.02
885.072	352.1
885.451	333.38
885.83	319.34
886.209	331.04
886.587	302.95
886.966	274.87
887.345	345.08
887.724	361.47
888.102	319.34
888.481	384.87
888.859	267.85
889.238	302.95
889.616	335.72
889.994	309.97
890.373	319.34
890.751	317
891.129	281.89
891.507	317
891.885	319.34
892.263	333.38
892.641	256.14
893.019	309.97
893.396	312.32
893.774	267.85
894.152	312.32
894.529	319.34
894.907	338.06
895.284	305.29
895.662	265.5
896.039	328.7
896.416	342.74
896.794	338.06
897.171	363.81
897.548	305.29
897.925	328.7
898.302	312.32
898.679	324.02
899.056	270.19
899.433	298.27
899.809	328.7
900.186	300.61
900.563	359.13
900.939	312.32
901.316	232.74
901.692	253.8
902.069	384.87
902.445	342.74
902.821	295.93
903.197	331.04
903.574	328.7
903.95	286.57
904.326	335.72
904.702	354.44
905.078	277.21
905.454	291.25
905.829	288.91
906.205	260.82
906.581	274.87
906.956	326.36
907.332	300.61
907.707	321.68
908.083	293.59
908.458	319.34
908.833	293.59
909.209	324.02
909.584	375.51
909.959	295.93
910.334	361.47
910.709	258.48
911.084	302.95
911.459	314.66
911.834	284.23
912.209	298.27
912.583	265.5
912.958	328.7
913.333	307.63
913.707	253.8
914.082	317
914.456	314.66
914.83	230.4
915.205	401.26
915.579	291.25
915.953	279.55
916.327	302.95
916.701	232.74
917.075	270.19
917.449	347.42
917.823	335.72
918.197	272.53
918.571	307.63
918.944	284.23
919.318	309.97
919.692	326.36
920.065	272.53
920.438	274.87
920.812	263.16
921.185	277.21
921.558	260.82
921.932	370.83
922.305	300.61
922.678	295.93
923.051	349.76
923.424	298.27
923.797	312.32
924.17	361.47
924.542	302.95
924.915	291.25
925.288	270.19
925.661	380.19
926.033	279.55
926.406	272.53
926.778	319.34
927.15	274.87
927.523	279.55
927.895	260.82
928.267	286.57
928.639	239.76
929.011	394.23
929.383	312.32
929.755	340.4
930.127	302.95
930.499	340.4
930.871	277.21
931.242	263.16
931.614	300.61
931.986	319.34
932.357	403.6
932.729	331.04
933.1	314.66
933.471	314.66
933.843	309.97
934.214	366.15
934.585	319.34
934.956	284.23
935.327	321.68
935.698	319.34
936.069	328.7
936.44	403.6
936.811	324.02
937.182	375.51
937.552	338.06
937.923	272.53
938.293	305.29
938.664	354.44
939.034	281.89
939.405	324.02
939.775	342.74
940.145	349.76
940.516	363.81
940.886	295.93
941.256	274.87
941.626	415.3
941.996	305.29
942.366	293.59
942.735	331.04
943.105	314.66
943.475	380.19
943.845	335.72
944.214	314.66
944.584	324.02
944.953	302.95
945.323	279.55
945.692	307.63
946.061	302.95
946.43	293.59
946.8	263.16
947.169	288.91
947.538	335.72
947.907	249.12
948.276	324.02
948.645	352.1
949.013	214.01
949.382	298.27
949.751	274.87
950.119	326.36
950.488	298.27
950.857	335.72
951.225	326.36
951.593	291.25
951.962	293.59
952.33	279.55
952.698	288.91
953.066	349.76
953.434	352.1
953.802	314.66
954.17	298.27
954.538	274.87
954.906	281.89
955.274	312.32
955.642	349.76
956.009	237.42
956.377	361.47
956.744	267.85
957.112	314.66
957.479	286.57
957.847	319.34
958.214	298.27
958.581	251.46
958.948	265.5
959.315	317
959.683	309.97
960.05	321.68
960.416	373.17
960.783	338.06
961.15	298.27
961.517	277.21
961.884	324.02
962.25	340.4
962.617	300.61
962.983	349.76
963.35	293.59
963.716	298.27
964.082	314.66
964.449	272.53
964.815	291.25
965.181	309.97
965.547	298.27
965.913	321.68
966.279	324.02
966.645	370.83
967.011	324.02
967.377	270.19
967.742	328.7
968.108	270.19
968.474	298.27
968.839	345.08
969.205	359.13
969.57	333.38
969.935	377.85
970.301	302.95
970.666	312.32
971.031	328.7
971.396	335.72
971.761	328.7
972.126	272.53
972.491	305.29
972.856	366.15
973.221	331.04
973.586	309.97
973.95	277.21
974.315	302.95
974.679	352.1
975.044	309.97
975.408	333.38
975.773	312.32
976.137	314.66
976.501	307.63
976.866	291.25
977.23	284.23
977.594	305.29
977.958	340.4
978.322	335.72
978.686	309.97
979.049	277.21
979.413	302.95
979.777	380.19
980.141	335.72
980.504	249.12
980.868	335.72
981.231	295.93
981.595	321.68
981.958	368.49
982.321	345.08
982.684	246.78
983.048	293.59
983.411	225.72
983.774	291.25
984.137	349.76
984.5	314.66
984.862	267.85
985.225	309.97
985.588	333.38
985.951	342.74
986.313	246.78
986.676	302.95
987.038	281.89
987.401	321.68
987.763	293.59
988.125	305.29
988.488	328.7
988.85	314.66
989.212	342.74
989.574	253.8
989.936	405.94
990.298	295.93
990.66	307.63
991.022	232.74
991.383	328.7
991.745	305.29
992.107	298.27
992.468	302.95
992.83	349.76
993.191	333.38
993.553	345.08
993.914	354.44
994.275	361.47
994.637	384.87
994.998	302.95
995.359	279.55
995.72	335.72
996.081	284.23
996.442	286.57
996.803	328.7
997.163	270.19
997.524	307.63
997.885	272.53
998.245	279.55
998.606	338.06
998.966	302.95
999.327	331.04
999.687	342.74
1000.047	354.44
1000.408	239.76
1000.768	309.97
1001.128	352.1
1001.488	321.68
1001.848	331.04
1002.208	288.91
1002.568	291.25
1002.927	293.59
1003.287	277.21
1003.647	441.04
1004.007	279.55
1004.366	267.85
1004.726	291.25
1005.085	331.04
1005.444	295.93
1005.804	288.91
1006.163	326.36
1006.522	347.42
1006.881	277.21
1007.24	293.59
1007.599	321.68
1007.958	340.4
1008.317	319.34
1008.676	284.23
1009.035	314.66
1009.393	235.08
1009.752	277.21
1010.111	267.85
1010.469	277.21
1010.828	317
1011.186	286.57
1011.544	326.36
1011.903	284.23
1012.261	326.36
1012.619	317
1012.977	293.59
1013.335	345.08
1013.693	291.25
1014.051	321.68
1014.409	331.04
1014.767	286.57
1015.124	274.87
1015.482	305.29
1015.84	291.25
1016.197	314.66
1016.555	345.08
1016.912	272.53
1017.269	345.08
1017.627	291.25
1017.984	345.08
1018.341	265.5
1018.698	314.66
1019.055	317
1019.412	277.21
1019.769	293.59
1020.126	314.66
1020.483	298.27
1020.84	326.36
1021.196	391.89
1021.553	328.7
1021.909	326.36
1022.266	349.76
1022.622	312.32
1022.979	317
1023.335	319.34
1023.691	331.04
1024.047	319.34
1024.404	305.29
1024.76	335.72
1025.116	352.1
1025.472	338.06
1025.827	338.06
1026.183	302.95
1026.539	256.14
1026.895	345.08
1027.25	422.32
1027.606	281.89
1027.961	277.21
1028.317	267.85
1028.672	359.13
1029.028	370.83
1029.383	263.16
1029.738	345.08
1030.093	302.95
1030.448	305.29
1030.803	326.36
1031.158	342.74
1031.513	288.91
1031.868	309.97
1032.223	331.04
1032.577	293.59
1032.932	359.13
1033.287	284.23
1033.641	235.08
1033.996	309.97
1034.35	361.47
1034.704	244.44
1035.059	277.21
1035.413	314.66
1035.767	314.66
1036.121	314.66
