Data from Al_FLMS009871__1196__16-40-39-582.txt Node

Date: Fri Mar 08 16:40:39 CST 2024
User: pe5414po
Spectrometer: FLMS00987
Trigger mode: 0
Integration Time (sec): 1.000000E-1
Scans to average: 1
Electric dark correction enabled: true
Nonlinearity correction enabled: false
Boxcar width: 0
XAxis mode: Wavelengths
Number of Pixels in Spectrum: 2048
>>>>>Begin Spectral Data<<<<<
188.938	-44.47
189.409	-44.47
189.879	-44.47
190.349	-117.03
190.819	-105.32
191.29	-93.62
191.76	-72.56
192.23	-102.98
192.7	-138.09
193.17	-25.75
193.64	-37.45
194.109	-74.9
194.579	-28.09
195.049	-46.81
195.519	56.17
195.988	4.68
196.458	51.49
196.927	93.62
197.397	93.62
197.866	159.16
198.336	161.5
198.805	156.82
199.274	196.61
199.744	196.61
200.213	215.33
200.682	224.69
201.151	212.99
201.62	210.65
202.089	308.95
202.558	318.31
203.027	248.1
203.495	259.8
203.964	278.52
204.433	294.91
204.902	294.91
205.37	259.8
205.839	315.97
206.307	311.29
206.776	348.74
207.244	297.25
207.712	311.29
208.181	301.93
208.649	332.36
209.117	290.23
209.585	287.89
210.053	304.27
210.521	337.04
210.989	297.25
211.457	365.12
211.925	348.74
212.393	287.89
212.861	234.05
213.328	231.71
213.796	224.69
214.264	280.86
214.731	306.61
215.199	322.99
215.666	315.97
216.133	285.55
216.601	280.86
217.068	292.57
217.535	231.71
218.003	259.8
218.47	259.8
218.937	276.18
219.404	304.27
219.871	245.76
220.338	212.99
220.805	259.8
221.271	241.08
221.738	301.93
222.205	294.91
222.671	287.89
223.138	278.52
223.605	264.48
224.071	252.78
224.538	259.8
225.004	325.33
225.47	255.12
225.937	280.86
226.403	276.18
226.869	255.12
227.335	311.29
227.801	304.27
228.267	262.14
228.733	301.93
229.199	304.27
229.665	285.55
230.131	208.31
230.597	220.01
231.062	266.82
231.528	301.93
231.994	283.2
232.459	285.55
232.925	222.35
233.39	198.95
233.856	280.86
234.321	262.14
234.786	372.15
235.252	273.84
235.717	351.08
236.182	243.42
236.647	285.55
237.112	306.61
237.577	304.27
238.042	212.99
238.507	276.18
238.972	269.16
239.436	344.06
239.901	330.02
240.366	250.44
240.83	259.8
241.295	231.71
241.76	269.16
242.224	234.05
242.688	315.97
243.153	283.2
243.617	344.06
244.081	301.93
244.545	224.69
245.01	264.48
245.474	304.27
245.938	292.57
246.402	337.04
246.866	299.59
247.33	248.1
247.793	217.67
248.257	266.82
248.721	322.99
249.185	266.82
249.648	315.97
250.112	262.14
250.575	306.61
251.039	297.25
251.502	273.84
251.965	269.16
252.429	308.95
252.892	259.8
253.355	320.65
253.818	262.14
254.281	255.12
254.744	210.65
255.207	255.12
255.67	290.23
256.133	248.1
256.596	266.82
257.059	236.39
257.522	234.05
257.984	248.1
258.447	292.57
258.909	315.97
259.372	205.97
259.834	257.46
260.297	301.93
260.759	248.1
261.221	315.97
261.684	266.82
262.146	306.61
262.608	280.86
263.07	395.55
263.532	292.57
263.994	259.8
264.456	245.76
264.918	290.23
265.38	257.46
265.842	266.82
266.303	250.44
266.765	280.86
267.227	332.36
267.688	283.2
268.15	297.25
268.611	278.52
269.072	337.04
269.534	292.57
269.995	243.42
270.456	264.48
270.918	320.65
271.379	266.82
271.84	337.04
272.301	304.27
272.762	280.86
273.223	308.95
273.684	273.84
274.144	308.95
274.605	353.42
275.066	276.18
275.527	322.99
275.987	280.86
276.448	318.31
276.908	311.29
277.369	269.16
277.829	301.93
278.289	215.33
278.75	322.99
279.21	257.46
279.67	311.29
280.13	280.86
280.59	294.91
281.05	278.52
281.51	292.57
281.97	304.27
282.43	308.95
282.89	227.03
283.35	278.52
283.809	308.95
284.269	306.61
284.729	290.23
285.188	365.12
285.648	255.12
286.107	271.5
286.567	217.67
287.026	318.31
287.485	234.05
287.944	313.63
288.404	304.27
288.863	304.27
289.322	215.33
289.781	285.55
290.24	311.29
290.699	334.7
291.158	245.76
291.616	304.27
292.075	278.52
292.534	271.5
292.992	353.42
293.451	266.82
293.91	400.23
294.368	358.1
294.827	252.78
295.285	372.15
295.743	292.57
296.202	278.52
296.66	285.55
297.118	313.63
297.576	278.52
298.034	271.5
298.492	283.2
298.95	283.2
299.408	320.65
299.866	297.25
300.324	318.31
300.781	355.76
301.239	374.49
301.697	299.59
302.154	278.52
302.612	304.27
303.069	294.91
303.527	304.27
303.984	327.67
304.441	348.74
304.899	236.39
305.356	344.06
305.813	325.33
306.27	318.31
306.727	341.72
307.184	318.31
307.641	259.8
308.098	358.1
308.555	308.95
309.012	301.93
309.468	341.72
309.925	292.57
310.382	266.82
310.838	304.27
311.295	262.14
311.751	315.97
312.208	355.76
312.664	245.76
313.12	264.48
313.577	285.55
314.033	301.93
314.489	243.42
314.945	271.5
315.401	318.31
315.857	245.76
316.313	304.27
316.769	294.91
317.225	280.86
317.681	262.14
318.136	299.59
318.592	315.97
319.048	301.93
319.503	271.5
319.959	332.36
320.414	308.95
320.869	344.06
321.325	313.63
321.78	332.36
322.235	255.12
322.691	294.91
323.146	330.02
323.601	395.55
324.056	287.89
324.511	276.18
324.966	311.29
325.421	266.82
325.875	313.63
326.33	330.02
326.785	283.2
327.24	285.55
327.694	330.02
328.149	339.38
328.603	280.86
329.058	304.27
329.512	325.33
329.966	322.99
330.421	304.27
330.875	355.76
331.329	306.61
331.783	330.02
332.237	245.76
332.691	306.61
333.145	346.4
333.599	372.15
334.053	285.55
334.507	215.33
334.96	297.25
335.414	285.55
335.868	344.06
336.321	278.52
336.775	308.95
337.228	297.25
337.682	278.52
338.135	287.89
338.588	404.91
339.042	308.95
339.495	273.84
339.948	358.1
340.401	269.16
340.854	234.05
341.307	304.27
341.76	346.4
342.213	257.46
342.666	287.89
343.119	248.1
343.571	292.57
344.024	322.99
344.477	278.52
344.929	297.25
345.382	250.44
345.834	299.59
346.287	353.42
346.739	320.65
347.191	269.16
347.644	241.08
348.096	318.31
348.548	301.93
349	374.49
349.452	339.38
349.904	297.25
350.356	280.86
350.808	379.17
351.26	290.23
351.711	327.67
352.163	273.84
352.615	341.72
353.066	320.65
353.518	262.14
353.969	304.27
354.421	341.72
354.872	320.65
355.324	313.63
355.775	318.31
356.226	353.42
356.677	348.74
357.128	290.23
357.579	353.42
358.03	294.91
358.481	330.02
358.932	280.86
359.383	276.18
359.834	320.65
360.285	297.25
360.735	290.23
361.186	346.4
361.637	315.97
362.087	318.31
362.538	339.38
362.988	360.44
363.438	257.46
363.889	269.16
364.339	280.86
364.789	294.91
365.239	344.06
365.689	320.65
366.139	273.84
366.589	346.4
367.039	287.89
367.489	353.42
367.939	299.59
368.389	313.63
368.839	280.86
369.288	241.08
369.738	297.25
370.187	299.59
370.637	283.2
371.086	276.18
371.536	306.61
371.985	353.42
372.434	341.72
372.884	322.99
373.333	301.93
373.782	320.65
374.231	301.93
374.68	297.25
375.129	353.42
375.578	266.82
376.027	327.67
376.475	299.59
376.924	395.55
377.373	301.93
377.822	334.7
378.27	313.63
378.719	327.67
379.167	280.86
379.616	294.91
380.064	315.97
380.512	273.84
380.961	313.63
381.409	365.12
381.857	339.38
382.305	344.06
382.753	322.99
383.201	330.02
383.649	411.93
384.097	308.95
384.545	292.57
384.992	320.65
385.44	337.04
385.888	271.5
386.335	308.95
386.783	327.67
387.231	266.82
387.678	365.12
388.125	374.49
388.573	332.36
389.02	355.76
389.467	269.16
389.914	308.95
390.362	360.44
390.809	315.97
391.256	308.95
391.703	325.33
392.15	360.44
392.596	264.48
393.043	297.25
393.49	421.3
393.937	330.02
394.383	315.97
394.83	322.99
395.276	315.97
395.723	276.18
396.169	322.99
396.616	269.16
397.062	320.65
397.508	278.52
397.954	325.33
398.401	353.42
398.847	325.33
399.293	337.04
399.739	330.02
400.185	217.67
400.631	278.52
401.076	353.42
401.522	322.99
401.968	351.08
402.414	351.08
402.859	353.42
403.305	245.76
403.75	325.33
404.196	315.97
404.641	358.1
405.086	348.74
405.532	332.36
405.977	325.33
406.422	353.42
406.867	383.85
407.312	294.91
407.757	269.16
408.202	320.65
408.647	287.89
409.092	318.31
409.537	301.93
409.982	339.38
410.426	318.31
410.871	301.93
411.316	290.23
411.76	285.55
412.205	304.27
412.649	341.72
413.093	290.23
413.538	341.72
413.982	325.33
414.426	306.61
414.87	330.02
415.314	322.99
415.758	311.29
416.202	330.02
416.646	283.2
417.09	332.36
417.534	344.06
417.978	341.72
418.421	322.99
418.865	374.49
419.309	344.06
419.752	292.57
420.196	334.7
420.639	334.7
421.083	341.72
421.526	273.84
421.969	346.4
422.412	283.2
422.856	320.65
423.299	306.61
423.742	276.18
424.185	374.49
424.628	271.5
425.071	332.36
425.513	386.19
425.956	362.78
426.399	318.31
426.842	318.31
427.284	358.1
427.727	327.67
428.169	287.89
428.612	299.59
429.054	332.36
429.497	243.42
429.939	346.4
430.381	334.7
430.823	346.4
431.265	311.29
431.707	327.67
432.149	271.5
432.591	287.89
433.033	337.04
433.475	393.21
433.917	313.63
434.359	355.76
434.8	353.42
435.242	322.99
435.684	327.67
436.125	386.19
436.567	379.17
437.008	339.38
437.449	297.25
437.891	318.31
438.332	294.91
438.773	255.12
439.214	383.85
439.656	325.33
440.097	332.36
440.538	344.06
440.978	304.27
441.419	299.59
441.86	325.33
442.301	301.93
442.742	269.16
443.182	306.61
443.623	351.08
444.063	372.15
444.504	318.31
444.944	334.7
445.385	278.52
445.825	320.65
446.265	325.33
446.706	248.1
447.146	283.2
447.586	264.48
448.026	318.31
448.466	301.93
448.906	297.25
449.346	332.36
449.786	290.23
450.225	365.12
450.665	285.55
451.105	301.93
451.544	353.42
451.984	290.23
452.424	318.31
452.863	287.89
453.302	383.85
453.742	306.61
454.181	374.49
454.62	266.82
455.059	334.7
455.499	322.99
455.938	334.7
456.377	388.53
456.816	325.33
457.254	330.02
457.693	348.74
458.132	325.33
458.571	348.74
459.01	320.65
459.448	294.91
459.887	271.5
460.325	315.97
460.764	341.72
461.202	318.31
461.641	292.57
462.079	294.91
462.517	306.61
462.955	259.8
463.393	299.59
463.832	346.4
464.27	386.19
464.708	297.25
465.145	330.02
465.583	294.91
466.021	369.8
466.459	341.72
466.897	348.74
467.334	290.23
467.772	381.51
468.209	315.97
468.647	278.52
469.084	341.72
469.522	313.63
469.959	367.46
470.396	334.7
470.833	334.7
471.271	339.38
471.708	287.89
472.145	299.59
472.582	273.84
473.019	273.84
473.456	280.86
473.892	320.65
474.329	280.86
474.766	322.99
475.202	262.14
475.639	341.72
476.076	355.76
476.512	393.21
476.949	264.48
477.385	285.55
477.821	273.84
478.258	383.85
478.694	341.72
479.13	341.72
479.566	330.02
480.002	341.72
480.438	341.72
480.874	278.52
481.31	344.06
481.746	318.31
482.181	278.52
482.617	320.65
483.053	325.33
483.488	297.25
483.924	294.91
484.36	283.2
484.795	266.82
485.23	330.02
485.666	311.29
486.101	297.25
486.536	308.95
486.971	283.2
487.407	266.82
487.842	285.55
488.277	315.97
488.712	327.67
489.146	294.91
489.581	353.42
490.016	287.89
490.451	367.46
490.885	304.27
491.32	348.74
491.755	269.16
492.189	311.29
492.624	374.49
493.058	344.06
493.492	280.86
493.927	264.48
494.361	276.18
494.795	327.67
495.229	344.06
495.663	285.55
496.097	313.63
496.531	334.7
496.965	332.36
497.399	330.02
497.833	283.2
498.266	320.65
498.7	334.7
499.134	287.89
499.567	337.04
500.001	290.23
500.434	285.55
500.868	320.65
501.301	330.02
501.734	327.67
502.168	304.27
502.601	344.06
503.034	379.17
503.467	285.55
503.9	332.36
504.333	278.52
504.766	320.65
505.199	334.7
505.632	301.93
506.064	325.33
506.497	362.78
506.93	318.31
507.362	283.2
507.795	234.05
508.227	320.65
508.66	320.65
509.092	416.62
509.524	318.31
509.956	360.44
510.389	313.63
510.821	313.63
511.253	283.2
511.685	299.59
512.117	414.27
512.549	301.93
512.981	334.7
513.412	351.08
513.844	379.17
514.276	308.95
514.707	379.17
515.139	348.74
515.571	320.65
516.002	306.61
516.433	332.36
516.865	330.02
517.296	365.12
517.727	360.44
518.159	315.97
518.59	376.83
519.021	332.36
519.452	299.59
519.883	306.61
520.314	273.84
520.744	308.95
521.175	264.48
521.606	318.31
522.037	306.61
522.467	290.23
522.898	290.23
523.328	308.95
523.759	393.21
524.189	278.52
524.62	290.23
525.05	294.91
525.48	322.99
525.91	346.4
526.341	297.25
526.771	308.95
527.201	306.61
527.631	311.29
528.061	360.44
528.49	362.78
528.92	271.5
529.35	301.93
529.78	280.86
530.209	344.06
530.639	358.1
531.068	304.27
531.498	308.95
531.927	304.27
532.357	259.8
532.786	374.49
533.215	269.16
533.644	365.12
534.074	306.61
534.503	311.29
534.932	388.53
535.361	334.7
535.79	322.99
536.218	292.57
536.647	411.93
537.076	376.83
537.505	292.57
537.933	362.78
538.362	332.36
538.79	280.86
539.219	280.86
539.647	421.3
540.076	269.16
540.504	330.02
540.932	327.67
541.36	290.23
541.788	266.82
542.217	297.25
542.645	351.08
543.073	365.12
543.5	327.67
543.928	386.19
544.356	395.55
544.784	315.97
545.211	355.76
545.639	393.21
546.067	346.4
546.494	393.21
546.922	306.61
547.349	355.76
547.776	308.95
548.204	266.82
548.631	243.42
549.058	292.57
549.485	327.67
549.912	341.72
550.339	278.52
550.766	318.31
551.193	374.49
551.62	299.59
552.047	339.38
552.474	367.46
552.9	252.78
553.327	308.95
553.754	360.44
554.18	327.67
554.607	313.63
555.033	351.08
555.459	308.95
555.886	315.97
556.312	355.76
556.738	362.78
557.164	334.7
557.59	266.82
558.016	344.06
558.442	322.99
558.868	320.65
559.294	273.84
559.72	292.57
560.145	250.44
560.571	367.46
560.997	308.95
561.422	313.63
561.848	397.89
562.273	306.61
562.699	322.99
563.124	337.04
563.549	353.42
563.974	348.74
564.4	325.33
564.825	344.06
565.25	313.63
565.675	339.38
566.1	365.12
566.525	306.61
566.95	320.65
567.374	315.97
567.799	276.18
568.224	308.95
568.648	358.1
569.073	299.59
569.497	273.84
569.922	315.97
570.346	351.08
570.771	304.27
571.195	280.86
571.619	365.12
572.043	315.97
572.467	367.46
572.891	344.06
573.315	337.04
573.739	290.23
574.163	362.78
574.587	327.67
575.011	301.93
575.435	290.23
575.858	304.27
576.282	287.89
576.705	318.31
577.129	322.99
577.552	266.82
577.976	311.29
578.399	358.1
578.822	388.53
579.245	386.19
579.669	292.57
580.092	271.5
580.515	393.21
580.938	283.2
581.361	332.36
581.784	341.72
582.206	318.31
582.629	318.31
583.052	276.18
583.474	381.51
583.897	344.06
584.32	285.55
584.742	374.49
585.165	292.57
585.587	301.93
586.009	269.16
586.431	400.23
586.854	360.44
587.276	369.8
587.698	411.93
588.12	287.89
588.542	306.61
588.964	297.25
589.386	348.74
589.807	304.27
590.229	315.97
590.651	339.38
591.073	311.29
591.494	285.55
591.916	320.65
592.337	269.16
592.759	337.04
593.18	337.04
593.601	306.61
594.022	327.67
594.444	330.02
594.865	327.67
595.286	308.95
595.707	330.02
596.128	365.12
596.549	322.99
596.97	365.12
597.39	360.44
597.811	360.44
598.232	290.23
598.652	311.29
599.073	379.17
599.494	344.06
599.914	334.7
600.334	308.95
600.755	276.18
601.175	231.71
601.595	292.57
602.015	358.1
602.436	266.82
602.856	456.4
603.276	325.33
603.696	257.46
604.115	290.23
604.535	362.78
604.955	269.16
605.375	353.42
605.794	330.02
606.214	332.36
606.634	339.38
607.053	325.33
607.473	315.97
607.892	280.86
608.311	287.89
608.731	318.31
609.15	264.48
609.569	264.48
609.988	341.72
610.407	325.33
610.826	322.99
611.245	402.57
611.664	304.27
612.083	283.2
612.501	320.65
612.92	344.06
613.339	290.23
613.757	269.16
614.176	276.18
614.594	355.76
615.013	339.38
615.431	322.99
615.85	292.57
616.268	283.2
616.686	369.8
617.104	313.63
617.522	334.7
617.94	290.23
618.358	304.27
618.776	292.57
619.194	264.48
619.612	330.02
620.03	365.12
620.447	320.65
620.865	351.08
621.282	290.23
621.7	351.08
622.117	322.99
622.535	285.55
622.952	311.29
623.369	276.18
623.787	297.25
624.204	311.29
624.621	306.61
625.038	341.72
625.455	250.44
625.872	306.61
626.289	308.95
626.706	301.93
627.123	283.2
627.539	278.52
627.956	292.57
628.373	332.36
628.789	308.95
629.206	369.8
629.622	306.61
630.038	271.5
630.455	297.25
630.871	234.05
631.287	306.61
631.703	339.38
632.12	262.14
632.536	334.7
632.952	294.91
633.368	353.42
633.783	313.63
634.199	332.36
634.615	292.57
635.031	259.8
635.446	330.02
635.862	320.65
636.277	301.93
636.693	327.67
637.108	297.25
637.524	346.4
637.939	262.14
638.354	337.04
638.77	332.36
639.185	287.89
639.6	276.18
640.015	365.12
640.43	337.04
640.845	292.57
641.259	334.7
641.674	362.78
642.089	337.04
642.504	337.04
642.918	388.53
643.333	334.7
643.747	330.02
644.162	388.53
644.576	318.31
644.991	334.7
645.405	358.1
645.819	332.36
646.233	330.02
646.647	276.18
647.061	325.33
647.475	346.4
647.889	320.65
648.303	355.76
648.717	367.46
649.131	301.93
649.545	290.23
649.958	243.42
650.372	365.12
650.785	318.31
651.199	322.99
651.612	318.31
652.026	369.8
652.439	327.67
652.852	304.27
653.266	344.06
653.679	383.85
654.092	320.65
654.505	327.67
654.918	320.65
655.331	292.57
655.744	346.4
656.156	257.46
656.569	276.18
656.982	346.4
657.394	374.49
657.807	369.8
658.22	315.97
658.632	381.51
659.044	304.27
659.457	351.08
659.869	334.7
660.281	283.2
660.693	259.8
661.106	339.38
661.518	376.83
661.93	348.74
662.342	332.36
662.754	353.42
663.165	337.04
663.577	327.67
663.989	341.72
664.401	306.61
664.812	278.52
665.224	318.31
665.635	318.31
666.047	334.7
666.458	376.83
666.869	334.7
667.281	299.59
667.692	346.4
668.103	334.7
668.514	304.27
668.925	334.7
669.336	355.76
669.747	285.55
670.158	245.76
670.569	287.89
670.979	348.74
671.39	318.31
671.801	330.02
672.211	257.46
672.622	311.29
673.032	332.36
673.443	299.59
673.853	383.85
674.263	320.65
674.674	318.31
675.084	325.33
675.494	304.27
675.904	346.4
676.314	411.93
676.724	257.46
677.134	334.7
677.544	339.38
677.953	355.76
678.363	308.95
678.773	306.61
679.182	301.93
679.592	252.78
680.001	271.5
680.411	341.72
680.82	273.84
681.23	365.12
681.639	332.36
682.048	346.4
682.457	358.1
682.866	304.27
683.275	290.23
683.684	344.06
684.093	290.23
684.502	346.4
684.911	306.61
685.32	365.12
685.728	372.15
686.137	308.95
686.546	341.72
686.954	292.57
687.363	271.5
687.771	320.65
688.179	332.36
688.588	372.15
688.996	290.23
689.404	280.86
689.812	304.27
690.22	241.08
690.628	353.42
691.036	360.44
691.444	369.8
691.852	334.7
692.26	353.42
692.667	339.38
693.075	348.74
693.483	334.7
693.89	344.06
694.298	325.33
694.705	383.85
695.112	299.59
695.52	348.74
695.927	330.02
696.334	315.97
696.741	374.49
697.148	308.95
697.555	318.31
697.962	322.99
698.369	292.57
698.776	360.44
699.183	308.95
699.59	318.31
699.996	287.89
700.403	341.72
700.81	325.33
701.216	322.99
701.623	308.95
702.029	320.65
702.435	306.61
702.842	301.93
703.248	320.65
703.654	299.59
704.06	337.04
704.466	292.57
704.872	341.72
705.278	271.5
705.684	388.53
706.09	322.99
706.496	337.04
706.901	283.2
707.307	266.82
707.712	320.65
708.118	283.2
708.523	379.17
708.929	257.46
709.334	273.84
709.74	327.67
710.145	285.55
710.55	348.74
710.955	330.02
711.36	341.72
711.765	341.72
712.17	362.78
712.575	337.04
712.98	837.91
713.385	306.61
713.789	283.2
714.194	334.7
714.599	327.67
715.003	362.78
715.408	269.16
715.812	262.14
716.217	353.42
716.621	322.99
717.025	362.78
717.429	315.97
717.833	290.23
718.238	353.42
718.642	320.65
719.046	306.61
719.449	306.61
719.853	351.08
720.257	325.33
720.661	299.59
721.065	330.02
721.468	273.84
721.872	325.33
722.275	353.42
722.679	322.99
723.082	341.72
723.485	365.12
723.889	301.93
724.292	250.44
724.695	344.06
725.098	306.61
725.501	322.99
725.904	290.23
726.307	325.33
726.71	301.93
727.113	334.7
727.516	330.02
727.918	346.4
728.321	325.33
728.724	365.12
729.126	315.97
729.529	299.59
729.931	346.4
730.333	273.84
730.736	308.95
731.138	292.57
731.54	308.95
731.942	322.99
732.344	355.76
732.746	280.86
733.148	257.46
733.55	346.4
733.952	255.12
734.354	276.18
734.756	271.5
735.157	325.33
735.559	271.5
735.96	355.76
736.362	395.55
736.763	257.46
737.165	306.61
737.566	285.55
737.967	327.67
738.368	337.04
738.77	269.16
739.171	301.93
739.572	306.61
739.973	313.63
740.374	294.91
740.774	292.57
741.175	276.18
741.576	315.97
741.977	334.7
742.377	372.15
742.778	379.17
743.178	325.33
743.579	315.97
743.979	292.57
744.379	320.65
744.78	269.16
745.18	330.02
745.58	330.02
745.98	299.59
746.38	308.95
746.78	367.46
747.18	318.31
747.58	369.8
747.98	304.27
748.38	318.31
748.779	322.99
749.179	290.23
749.578	376.83
749.978	278.52
750.377	285.55
750.777	255.12
751.176	238.73
751.575	332.36
751.975	287.89
752.374	325.33
752.773	365.12
753.172	283.2
753.571	334.7
753.97	306.61
754.369	306.61
754.768	308.95
755.166	276.18
755.565	315.97
755.964	259.8
756.362	320.65
756.761	290.23
757.159	306.61
757.558	325.33
757.956	339.38
758.354	313.63
758.753	304.27
759.151	339.38
759.549	297.25
759.947	341.72
760.345	315.97
760.743	330.02
761.141	313.63
761.539	283.2
761.936	320.65
762.334	344.06
762.732	327.67
763.129	330.02
763.527	308.95
763.924	341.72
764.322	362.78
764.719	318.31
765.117	271.5
765.514	299.59
765.911	325.33
766.308	301.93
766.705	304.27
767.102	276.18
767.499	369.8
767.896	362.78
768.293	257.46
768.69	315.97
769.086	273.84
769.483	320.65
769.88	325.33
770.276	227.03
770.673	306.61
771.069	360.44
771.466	322.99
771.862	297.25
772.258	299.59
772.654	423.64
773.05	367.46
773.447	297.25
773.843	330.02
774.239	271.5
774.634	243.42
775.03	322.99
775.426	311.29
775.822	304.27
776.218	346.4
776.613	332.36
777.009	344.06
777.404	369.8
777.8	358.1
778.195	365.12
778.59	334.7
778.986	259.8
779.381	273.84
779.776	276.18
780.171	299.59
780.566	334.7
780.961	273.84
781.356	365.12
781.751	330.02
782.146	280.86
782.54	287.89
782.935	351.08
783.33	318.31
783.724	327.67
784.119	341.72
784.513	358.1
784.908	339.38
785.302	327.67
785.696	313.63
786.09	283.2
786.485	262.14
786.879	299.59
787.273	313.63
787.667	348.74
788.061	341.72
788.454	369.8
788.848	262.14
789.242	330.02
789.636	346.4
790.029	306.61
790.423	301.93
790.816	304.27
791.21	299.59
791.603	271.5
791.997	325.33
792.39	308.95
792.783	306.61
793.176	332.36
793.569	304.27
793.962	301.93
794.355	280.86
794.748	297.25
795.141	259.8
795.534	339.38
795.927	280.86
796.319	322.99
796.712	339.38
797.105	297.25
797.497	332.36
797.89	262.14
798.282	292.57
798.674	318.31
799.067	362.78
799.459	292.57
799.851	308.95
800.243	322.99
800.635	322.99
801.027	306.61
801.419	337.04
801.811	313.63
802.203	245.76
802.594	320.65
802.986	367.46
803.378	332.36
803.769	339.38
804.161	351.08
804.552	337.04
804.944	351.08
805.335	325.33
805.726	299.59
806.118	353.42
806.509	313.63
806.9	311.29
807.291	301.93
807.682	299.59
808.073	306.61
808.464	381.51
808.855	248.1
809.245	355.76
809.636	308.95
810.027	283.2
810.417	334.7
810.808	330.02
811.198	322.99
811.589	308.95
811.979	299.59
812.369	297.25
812.759	299.59
813.15	273.84
813.54	271.5
813.93	369.8
814.32	287.89
814.71	360.44
815.1	313.63
815.489	351.08
815.879	301.93
816.269	301.93
816.658	311.29
817.048	292.57
817.438	301.93
817.827	365.12
818.216	299.59
818.606	346.4
818.995	308.95
819.384	360.44
819.773	355.76
820.163	299.59
820.552	341.72
820.941	322.99
821.33	344.06
821.718	322.99
822.107	337.04
822.496	311.29
822.885	301.93
823.273	283.2
823.662	315.97
824.05	304.27
824.439	280.86
824.827	290.23
825.216	290.23
825.604	269.16
825.992	362.78
826.38	294.91
826.768	332.36
827.156	304.27
827.544	306.61
827.932	255.12
828.32	287.89
828.708	250.44
829.096	315.97
829.483	320.65
829.871	346.4
830.259	231.71
830.646	301.93
831.034	273.84
831.421	327.67
831.808	379.17
832.196	358.1
832.583	327.67
832.97	276.18
833.357	271.5
833.744	301.93
834.131	308.95
834.518	327.67
834.905	264.48
835.292	304.27
835.678	322.99
836.065	351.08
836.452	308.95
836.838	257.46
837.225	287.89
837.611	320.65
837.998	320.65
838.384	327.67
838.77	297.25
839.157	344.06
839.543	388.53
839.929	290.23
840.315	327.67
840.701	325.33
841.087	315.97
841.473	315.97
841.858	313.63
842.244	257.46
842.63	301.93
843.015	315.97
843.401	606.2
843.787	358.1
844.172	301.93
844.557	346.4
844.943	386.19
845.328	334.7
845.713	285.55
846.098	351.08
846.483	365.12
846.868	327.67
847.253	358.1
847.638	376.83
848.023	348.74
848.408	337.04
848.793	280.86
849.177	313.63
849.562	355.76
849.947	318.31
850.331	294.91
850.715	369.8
851.1	273.84
851.484	341.72
851.868	341.72
852.253	259.8
852.637	339.38
853.021	318.31
853.405	297.25
853.789	311.29
854.173	339.38
854.557	393.21
854.94	393.21
855.324	339.38
855.708	280.86
856.091	360.44
856.475	266.82
856.858	304.27
857.242	332.36
857.625	308.95
858.009	259.8
858.392	241.08
858.775	315.97
859.158	301.93
859.541	322.99
859.924	334.7
860.307	353.42
860.69	339.38
861.073	299.59
861.456	367.46
861.838	325.33
862.221	278.52
862.604	341.72
862.986	308.95
863.369	294.91
863.751	353.42
864.133	278.52
864.516	264.48
864.898	327.67
865.28	292.57
865.662	297.25
866.044	273.84
866.426	332.36
866.808	294.91
867.19	280.86
867.572	348.74
867.954	304.27
868.336	353.42
868.717	320.65
869.099	290.23
869.48	318.31
869.862	283.2
870.243	339.38
870.625	308.95
871.006	318.31
871.387	337.04
871.768	332.36
872.149	351.08
872.53	280.86
872.911	280.86
873.292	290.23
873.673	330.02
874.054	367.46
874.435	304.27
874.815	374.49
875.196	276.18
875.577	351.08
875.957	271.5
876.338	390.87
876.718	337.04
877.098	287.89
877.479	301.93
877.859	318.31
878.239	315.97
878.619	304.27
878.999	278.52
879.379	313.63
879.759	332.36
880.139	311.29
880.519	245.76
880.898	334.7
881.278	358.1
881.658	339.38
882.037	294.91
882.417	220.01
882.796	330.02
883.176	341.72
883.555	365.12
883.934	334.7
884.313	306.61
884.693	285.55
885.072	358.1
885.451	383.85
885.83	301.93
886.209	344.06
886.587	231.71
886.966	308.95
887.345	355.76
887.724	341.72
888.102	306.61
888.481	339.38
888.859	280.86
889.238	304.27
889.616	287.89
889.994	334.7
890.373	285.55
890.751	337.04
891.129	325.33
891.507	353.42
891.885	311.29
892.263	301.93
892.641	351.08
893.019	320.65
893.396	376.83
893.774	337.04
894.152	299.59
894.529	339.38
894.907	271.5
895.284	257.46
895.662	355.76
896.039	379.17
896.416	318.31
896.794	304.27
897.171	273.84
897.548	285.55
897.925	273.84
898.302	280.86
898.679	287.89
899.056	290.23
899.433	287.89
899.809	313.63
900.186	276.18
900.563	320.65
900.939	322.99
901.316	231.71
901.692	297.25
902.069	339.38
902.445	341.72
902.821	325.33
903.197	372.15
903.574	273.84
903.95	285.55
904.326	339.38
904.702	311.29
905.078	386.19
905.454	299.59
905.829	367.46
906.205	308.95
906.581	332.36
906.956	351.08
907.332	304.27
907.707	308.95
908.083	341.72
908.458	330.02
908.833	339.38
909.209	362.78
909.584	294.91
909.959	255.12
910.334	262.14
910.709	379.17
911.084	315.97
911.459	311.29
911.834	290.23
912.209	276.18
912.583	301.93
912.958	306.61
913.333	318.31
913.707	248.1
914.082	287.89
914.456	341.72
914.83	376.83
915.205	318.31
915.579	273.84
915.953	264.48
916.327	250.44
916.701	290.23
917.075	360.44
917.449	313.63
917.823	299.59
918.197	325.33
918.571	337.04
918.944	278.52
919.318	330.02
919.692	304.27
920.065	311.29
920.438	294.91
920.812	334.7
921.185	290.23
921.558	339.38
921.932	327.67
922.305	269.16
922.678	301.93
923.051	337.04
923.424	234.05
923.797	271.5
924.17	269.16
924.542	374.49
924.915	360.44
925.288	252.78
925.661	379.17
926.033	306.61
926.406	388.53
926.778	330.02
927.15	355.76
927.523	339.38
927.895	330.02
928.267	348.74
928.639	290.23
929.011	313.63
929.383	332.36
929.755	393.21
930.127	327.67
930.499	318.31
930.871	250.44
931.242	297.25
931.614	262.14
931.986	285.55
932.357	327.67
932.729	325.33
933.1	283.2
933.471	308.95
933.843	404.91
934.214	341.72
934.585	348.74
934.956	327.67
935.327	318.31
935.698	318.31
936.069	297.25
936.44	294.91
936.811	285.55
937.182	234.05
937.552	327.67
937.923	315.97
938.293	311.29
938.664	292.57
939.034	327.67
939.405	327.67
939.775	334.7
940.145	285.55
940.516	308.95
940.886	252.78
941.256	299.59
941.626	325.33
941.996	330.02
942.366	290.23
942.735	294.91
943.105	294.91
943.475	330.02
943.845	304.27
944.214	327.67
944.584	348.74
944.953	358.1
945.323	280.86
945.692	301.93
946.061	294.91
946.43	304.27
946.8	294.91
947.169	327.67
947.538	276.18
947.907	311.29
948.276	283.2
948.645	241.08
949.013	337.04
949.382	311.29
949.751	299.59
950.119	257.46
950.488	315.97
950.857	369.8
951.225	346.4
951.593	294.91
951.962	297.25
952.33	292.57
952.698	269.16
953.066	318.31
953.434	297.25
953.802	381.51
954.17	290.23
954.538	386.19
954.906	318.31
955.274	339.38
955.642	306.61
956.009	327.67
956.377	294.91
956.744	304.27
957.112	294.91
957.479	325.33
957.847	290.23
958.214	292.57
958.581	386.19
958.948	301.93
959.315	255.12
959.683	304.27
960.05	322.99
960.416	332.36
960.783	341.72
961.15	290.23
961.517	320.65
961.884	306.61
962.25	306.61
962.617	330.02
962.983	299.59
963.35	294.91
963.716	330.02
964.082	287.89
964.449	346.4
964.815	332.36
965.181	292.57
965.547	304.27
965.913	339.38
966.279	308.95
966.645	301.93
967.011	313.63
967.377	325.33
967.742	290.23
968.108	280.86
968.474	374.49
968.839	344.06
969.205	273.84
969.57	299.59
969.935	266.82
970.301	290.23
970.666	297.25
971.031	318.31
971.396	238.73
971.761	353.42
972.126	234.05
972.491	339.38
972.856	280.86
973.221	348.74
973.586	292.57
973.95	280.86
974.315	351.08
974.679	299.59
975.044	262.14
975.408	271.5
975.773	322.99
976.137	273.84
976.501	308.95
976.866	299.59
977.23	313.63
977.594	344.06
977.958	266.82
978.322	294.91
978.686	308.95
979.049	320.65
979.413	311.29
979.777	315.97
980.141	287.89
980.504	327.67
980.868	308.95
981.231	285.55
981.595	287.89
981.958	344.06
982.321	318.31
982.684	276.18
983.048	353.42
983.411	320.65
983.774	320.65
984.137	294.91
984.5	306.61
984.862	292.57
985.225	355.76
985.588	327.67
985.951	348.74
986.313	325.33
986.676	365.12
987.038	327.67
987.401	318.31
987.763	337.04
988.125	283.2
988.488	294.91
988.85	337.04
989.212	313.63
989.574	318.31
989.936	299.59
990.298	301.93
990.66	304.27
991.022	241.08
991.383	322.99
991.745	299.59
992.107	304.27
992.468	358.1
992.83	222.35
993.191	386.19
993.553	290.23
993.914	334.7
994.275	299.59
994.637	325.33
994.998	332.36
995.359	327.67
995.72	259.8
996.081	351.08
996.442	236.39
996.803	306.61
997.163	271.5
997.524	292.57
997.885	287.89
998.245	374.49
998.606	292.57
998.966	299.59
999.327	243.42
999.687	292.57
1000.047	276.18
1000.408	327.67
1000.768	337.04
1001.128	346.4
1001.488	220.01
1001.848	287.89
1002.208	388.53
1002.568	374.49
1002.927	351.08
1003.287	269.16
1003.647	362.78
1004.007	325.33
1004.366	266.82
1004.726	334.7
1005.085	320.65
1005.444	325.33
1005.804	306.61
1006.163	325.33
1006.522	278.52
1006.881	299.59
1007.24	315.97
1007.599	259.8
1007.958	395.55
1008.317	325.33
1008.676	304.27
1009.035	311.29
1009.393	311.29
1009.752	327.67
1010.111	301.93
1010.469	311.29
1010.828	360.44
1011.186	341.72
1011.544	299.59
1011.903	285.55
1012.261	407.25
1012.619	287.89
1012.977	311.29
1013.335	322.99
1013.693	297.25
1014.051	320.65
1014.409	297.25
1014.767	280.86
1015.124	306.61
1015.482	287.89
1015.84	360.44
1016.197	334.7
1016.555	322.99
1016.912	315.97
1017.269	273.84
1017.627	264.48
1017.984	315.97
1018.341	306.61
1018.698	255.12
1019.055	318.31
1019.412	313.63
1019.769	259.8
1020.126	287.89
1020.483	337.04
1020.84	290.23
1021.196	315.97
1021.553	250.44
1021.909	315.97
1022.266	229.37
1022.622	308.95
1022.979	330.02
1023.335	390.87
1023.691	292.57
1024.047	344.06
1024.404	351.08
1024.76	276.18
1025.116	273.84
1025.472	327.67
1025.827	241.08
1026.183	301.93
1026.539	334.7
1026.895	299.59
1027.25	313.63
1027.606	320.65
1027.961	308.95
1028.317	236.39
1028.672	290.23
1029.028	297.25
1029.383	318.31
1029.738	365.12
1030.093	257.46
1030.448	308.95
1030.803	367.46
1031.158	285.55
1031.513	248.1
1031.868	301.93
1032.223	285.55
1032.577	365.12
1032.932	264.48
1033.287	292.57
1033.641	397.89
1033.996	315.97
1034.35	318.31
1034.704	290.23
1035.059	290.23
1035.413	330.02
1035.767	330.02
1036.121	330.02
