Data from Al_FLMS009871__1189__16-40-38-882.txt Node

Date: Fri Mar 08 16:40:38 CST 2024
User: pe5414po
Spectrometer: FLMS00987
Trigger mode: 0
Integration Time (sec): 1.000000E-1
Scans to average: 1
Electric dark correction enabled: true
Nonlinearity correction enabled: false
Boxcar width: 0
XAxis mode: Wavelengths
Number of Pixels in Spectrum: 2048
>>>>>Begin Spectral Data<<<<<
188.938	-63.05
189.409	-63.05
189.879	-63.05
190.349	-119.22
190.819	-144.97
191.29	-142.63
191.76	-116.88
192.23	-51.35
192.7	-49
193.17	-49
193.64	-46.66
194.109	7.17
194.579	2.49
195.049	-32.62
195.519	-37.3
195.988	18.87
196.458	37.59
196.927	86.75
197.397	138.24
197.866	121.85
198.336	112.49
198.805	149.94
199.274	133.56
199.744	210.79
200.213	224.84
200.682	168.66
201.151	154.62
201.62	241.22
202.089	222.5
202.558	290.37
203.027	243.56
203.495	264.63
203.964	266.97
204.433	281.01
204.902	163.98
205.37	323.14
205.839	269.31
206.307	292.71
206.776	276.33
207.244	264.63
207.712	259.95
208.181	355.91
208.649	273.99
209.117	316.12
209.585	339.52
210.053	304.42
210.521	271.65
210.989	255.26
211.457	271.65
211.925	259.95
212.393	250.58
212.861	257.61
213.328	306.76
213.796	285.69
214.264	248.24
214.731	224.84
215.199	288.03
215.666	290.37
216.133	250.58
216.601	297.39
217.068	290.37
217.535	220.16
218.003	257.61
218.47	201.43
218.937	234.2
219.404	271.65
219.871	283.35
220.338	231.86
220.805	259.95
221.271	271.65
221.738	266.97
222.205	250.58
222.671	229.52
223.138	210.79
223.605	206.11
224.071	245.9
224.538	290.37
225.004	213.14
225.47	255.26
225.937	295.05
226.403	288.03
226.869	252.92
227.335	262.29
227.801	264.63
228.267	236.54
228.733	201.43
229.199	257.61
229.665	248.24
230.131	269.31
230.597	288.03
231.062	297.39
231.528	180.37
231.994	217.82
232.459	290.37
232.925	266.97
233.39	337.18
233.856	231.86
234.321	250.58
234.786	285.69
235.252	231.86
235.717	271.65
236.182	257.61
236.647	224.84
237.112	311.44
237.577	304.42
238.042	210.79
238.507	255.26
238.972	257.61
239.436	250.58
239.901	222.5
240.366	283.35
240.83	283.35
241.295	236.54
241.76	238.88
242.224	210.79
242.688	259.95
243.153	316.12
243.617	264.63
244.081	222.5
244.545	236.54
245.01	313.78
245.474	262.29
245.938	288.03
246.402	346.55
246.866	278.67
247.33	255.26
247.793	271.65
248.257	351.23
248.721	234.2
249.185	290.37
249.648	236.54
250.112	266.97
250.575	241.22
251.039	229.52
251.502	257.61
251.965	278.67
252.429	259.95
252.892	266.97
253.355	217.82
253.818	241.22
254.281	290.37
254.744	257.61
255.207	316.12
255.67	213.14
256.133	238.88
256.596	323.14
257.059	278.67
257.522	276.33
257.984	224.84
258.447	264.63
258.909	283.35
259.372	290.37
259.834	278.67
260.297	248.24
260.759	259.95
261.221	241.22
261.684	243.56
262.146	281.01
262.608	236.54
263.07	299.73
263.532	238.88
263.994	309.1
264.456	351.23
264.918	241.22
265.38	271.65
265.842	288.03
266.303	290.37
266.765	292.71
267.227	262.29
267.688	346.55
268.15	229.52
268.611	248.24
269.072	241.22
269.534	234.2
269.995	248.24
270.456	316.12
270.918	259.95
271.379	271.65
271.84	248.24
272.301	269.31
272.762	266.97
273.223	234.2
273.684	341.86
274.144	227.18
274.605	257.61
275.066	320.8
275.527	224.84
275.987	227.18
276.448	344.21
276.908	273.99
277.369	306.76
277.829	234.2
278.289	231.86
278.75	276.33
279.21	334.84
279.67	313.78
280.13	309.1
280.59	318.46
281.05	288.03
281.51	379.31
281.97	292.71
282.43	309.1
282.89	313.78
283.35	266.97
283.809	311.44
284.269	325.48
284.729	257.61
285.188	306.76
285.648	217.82
286.107	278.67
286.567	285.69
287.026	217.82
287.485	266.97
287.944	316.12
288.404	304.42
288.863	255.26
289.322	288.03
289.781	311.44
290.24	285.69
290.699	269.31
291.158	320.8
291.616	285.69
292.075	311.44
292.534	325.48
292.992	309.1
293.451	288.03
293.91	208.45
294.368	292.71
294.827	215.48
295.285	266.97
295.743	295.05
296.202	283.35
296.66	348.89
297.118	281.01
297.576	264.63
298.034	302.08
298.492	306.76
298.95	325.48
299.408	252.92
299.866	316.12
300.324	250.58
300.781	337.18
301.239	346.55
301.697	262.29
302.154	257.61
302.612	257.61
303.069	257.61
303.527	285.69
303.984	295.05
304.441	292.71
304.899	269.31
305.356	306.76
305.813	297.39
306.27	283.35
306.727	297.39
307.184	360.59
307.641	262.29
308.098	271.65
308.555	269.31
309.012	323.14
309.468	255.26
309.925	299.73
310.382	309.1
310.838	318.46
311.295	372.29
311.751	306.76
312.208	323.14
312.664	304.42
313.12	220.16
313.577	271.65
314.033	318.46
314.489	325.48
314.945	311.44
315.401	311.44
315.857	341.86
316.313	304.42
316.769	262.29
317.225	245.9
317.681	302.08
318.136	288.03
318.592	283.35
319.048	323.14
319.503	292.71
319.959	259.95
320.414	266.97
320.869	255.26
321.325	278.67
321.78	297.39
322.235	341.86
322.691	255.26
323.146	330.16
323.601	276.33
324.056	323.14
324.511	395.7
324.966	255.26
325.421	330.16
325.875	330.16
326.33	306.76
326.785	236.54
327.24	288.03
327.694	297.39
328.149	269.31
328.603	243.56
329.058	334.84
329.512	248.24
329.966	313.78
330.421	346.55
330.875	281.01
331.329	281.01
331.783	273.99
332.237	362.93
332.691	276.33
333.145	332.5
333.599	271.65
334.053	306.76
334.507	252.92
334.96	250.58
335.414	278.67
335.868	290.37
336.321	257.61
336.775	271.65
337.228	285.69
337.682	327.82
338.135	295.05
338.588	194.41
339.042	262.29
339.495	339.52
339.948	304.42
340.401	297.39
340.854	266.97
341.307	295.05
341.76	348.89
342.213	334.84
342.666	295.05
343.119	325.48
343.571	334.84
344.024	273.99
344.477	323.14
344.929	222.5
345.382	299.73
345.834	337.18
346.287	264.63
346.739	278.67
347.191	285.69
347.644	304.42
348.096	266.97
348.548	302.08
349	281.01
349.452	325.48
349.904	255.26
350.356	334.84
350.808	316.12
351.26	346.55
351.711	285.69
352.163	283.35
352.615	262.29
353.066	304.42
353.518	290.37
353.969	288.03
354.421	283.35
354.872	327.82
355.324	245.9
355.775	341.86
356.226	332.5
356.677	334.84
357.128	276.33
357.579	362.93
358.03	264.63
358.481	297.39
358.932	332.5
359.383	320.8
359.834	327.82
360.285	259.95
360.735	271.65
361.186	320.8
361.637	302.08
362.087	295.05
362.538	318.46
362.988	337.18
363.438	302.08
363.889	288.03
364.339	269.31
364.789	290.37
365.239	360.59
365.689	353.57
366.139	313.78
366.589	323.14
367.039	299.73
367.489	245.9
367.939	304.42
368.389	302.08
368.839	358.25
369.288	309.1
369.738	250.58
370.187	311.44
370.637	199.09
371.086	255.26
371.536	369.95
371.985	266.97
372.434	227.18
372.884	311.44
373.333	278.67
373.782	269.31
374.231	306.76
374.68	311.44
375.129	245.9
375.578	290.37
376.027	332.5
376.475	243.56
376.924	372.29
377.373	362.93
377.822	281.01
378.27	292.71
378.719	337.18
379.167	285.69
379.616	285.69
380.064	327.82
380.512	311.44
380.961	332.5
381.409	297.39
381.857	222.5
382.305	234.2
382.753	306.76
383.201	358.25
383.649	313.78
384.097	351.23
384.545	276.33
384.992	332.5
385.44	316.12
385.888	344.21
386.335	292.71
386.783	231.86
387.231	358.25
387.678	327.82
388.125	257.61
388.573	316.12
389.02	285.69
389.467	297.39
389.914	346.55
390.362	269.31
390.809	365.27
391.256	362.93
391.703	266.97
392.15	341.86
392.596	346.55
393.043	295.05
393.49	313.78
393.937	283.35
394.383	325.48
394.83	327.82
395.276	292.71
395.723	236.54
396.169	250.58
396.616	243.56
397.062	304.42
397.508	330.16
397.954	320.8
398.401	304.42
398.847	285.69
399.293	264.63
399.739	297.39
400.185	273.99
400.631	316.12
401.076	269.31
401.522	264.63
401.968	295.05
402.414	297.39
402.859	327.82
403.305	262.29
403.75	292.71
404.196	302.08
404.641	304.42
405.086	327.82
405.532	304.42
405.977	278.67
406.422	255.26
406.867	231.86
407.312	295.05
407.757	339.52
408.202	327.82
408.647	288.03
409.092	299.73
409.537	311.44
409.982	316.12
410.426	332.5
410.871	299.73
411.316	281.01
411.76	320.8
412.205	318.46
412.649	330.16
413.093	266.97
413.538	351.23
413.982	330.16
414.426	257.61
414.87	273.99
415.314	306.76
415.758	320.8
416.202	330.16
416.646	292.71
417.09	283.35
417.534	327.82
417.978	288.03
418.421	311.44
418.865	255.26
419.309	264.63
419.752	299.73
420.196	351.23
420.639	376.97
421.083	344.21
421.526	316.12
421.969	252.92
422.412	302.08
422.856	334.84
423.299	285.69
423.742	346.55
424.185	262.29
424.628	269.31
425.071	369.95
425.513	250.58
425.956	271.65
426.399	332.5
426.842	365.27
427.284	348.89
427.727	323.14
428.169	299.73
428.612	283.35
429.054	295.05
429.497	217.82
429.939	344.21
430.381	281.01
430.823	316.12
431.265	348.89
431.707	311.44
432.149	285.69
432.591	365.27
433.033	304.42
433.475	245.9
433.917	269.31
434.359	320.8
434.8	351.23
435.242	250.58
435.684	278.67
436.125	290.37
436.567	353.57
437.008	292.71
437.449	309.1
437.891	337.18
438.332	365.27
438.773	309.1
439.214	311.44
439.656	295.05
440.097	332.5
440.538	323.14
440.978	276.33
441.419	273.99
441.86	264.63
442.301	320.8
442.742	288.03
443.182	288.03
443.623	325.48
444.063	259.95
444.504	325.48
444.944	281.01
445.385	332.5
445.825	323.14
446.265	262.29
446.706	313.78
447.146	327.82
447.586	259.95
448.026	245.9
448.466	327.82
448.906	273.99
449.346	257.61
449.786	266.97
450.225	316.12
450.665	346.55
451.105	306.76
451.544	278.67
451.984	278.67
452.424	323.14
452.863	341.86
453.302	285.69
453.742	299.73
454.181	318.46
454.62	325.48
455.059	273.99
455.499	292.71
455.938	290.37
456.377	290.37
456.816	332.5
457.254	269.31
457.693	325.48
458.132	243.56
458.571	295.05
459.01	344.21
459.448	369.95
459.887	266.97
460.325	304.42
460.764	330.16
461.202	290.37
461.641	325.48
462.079	330.16
462.517	302.08
462.955	320.8
463.393	266.97
463.832	323.14
464.27	283.35
464.708	264.63
465.145	339.52
465.583	278.67
466.021	292.71
466.459	288.03
466.897	316.12
467.334	353.57
467.772	285.69
468.209	255.26
468.647	243.56
469.084	313.78
469.522	309.1
469.959	264.63
470.396	372.29
470.833	341.86
471.271	283.35
471.708	337.18
472.145	273.99
472.582	304.42
473.019	278.67
473.456	325.48
473.892	327.82
474.329	316.12
474.766	278.67
475.202	323.14
475.639	281.01
476.076	369.95
476.512	318.46
476.949	257.61
477.385	283.35
477.821	313.78
478.258	325.48
478.694	318.46
479.13	217.82
479.566	339.52
480.002	320.8
480.438	332.5
480.874	337.18
481.31	316.12
481.746	297.39
482.181	297.39
482.617	297.39
483.053	276.33
483.488	257.61
483.924	281.01
484.36	337.18
484.795	266.97
485.23	297.39
485.666	245.9
486.101	332.5
486.536	266.97
486.971	334.84
487.407	276.33
487.842	302.08
488.277	264.63
488.712	278.67
489.146	313.78
489.581	302.08
490.016	297.39
490.451	311.44
490.885	313.78
491.32	311.44
491.755	325.48
492.189	271.65
492.624	320.8
493.058	302.08
493.492	259.95
493.927	295.05
494.361	337.18
494.795	334.84
495.229	311.44
495.663	355.91
496.097	311.44
496.531	323.14
496.965	309.1
497.399	334.84
497.833	295.05
498.266	339.52
498.7	353.57
499.134	290.37
499.567	327.82
500.001	288.03
500.434	297.39
500.868	229.52
501.301	323.14
501.734	304.42
502.168	252.92
502.601	248.24
503.034	278.67
503.467	278.67
503.9	255.26
504.333	290.37
504.766	334.84
505.199	355.91
505.632	332.5
506.064	344.21
506.497	337.18
506.93	295.05
507.362	327.82
507.795	311.44
508.227	299.73
508.66	257.61
509.092	320.8
509.524	318.46
509.956	306.76
510.389	238.88
510.821	311.44
511.253	330.16
511.685	341.86
512.117	243.56
512.549	236.54
512.981	288.03
513.412	259.95
513.844	306.76
514.276	327.82
514.707	245.9
515.139	295.05
515.571	355.91
516.002	243.56
516.433	271.65
516.865	325.48
517.296	273.99
517.727	304.42
518.159	248.24
518.59	318.46
519.021	290.37
519.452	273.99
519.883	316.12
520.314	348.89
520.744	313.78
521.175	346.55
521.606	283.35
522.037	271.65
522.467	330.16
522.898	306.76
523.328	323.14
523.759	288.03
524.189	304.42
524.62	339.52
525.05	337.18
525.48	264.63
525.91	398.04
526.341	316.12
526.771	311.44
527.201	285.69
527.631	302.08
528.061	339.52
528.49	313.78
528.92	241.22
529.35	306.76
529.78	330.16
530.209	222.5
530.639	316.12
531.068	327.82
531.498	276.33
531.927	311.44
532.357	332.5
532.786	341.86
533.215	313.78
533.644	273.99
534.074	325.48
534.503	297.39
534.932	381.65
535.361	306.76
535.79	259.95
536.218	346.55
536.647	346.55
537.076	323.14
537.505	337.18
537.933	318.46
538.362	323.14
538.79	285.69
539.219	353.57
539.647	290.37
540.076	318.46
540.504	283.35
540.932	302.08
541.36	313.78
541.788	295.05
542.217	271.65
542.645	269.31
543.073	269.31
543.5	358.25
543.928	348.89
544.356	285.69
544.784	327.82
545.211	281.01
545.639	334.84
546.067	269.31
546.494	302.08
546.922	299.73
547.349	252.92
547.776	337.18
548.204	257.61
548.631	250.58
549.058	313.78
549.485	266.97
549.912	276.33
550.339	283.35
550.766	276.33
551.193	316.12
551.62	330.16
552.047	311.44
552.474	330.16
552.9	302.08
553.327	276.33
553.754	339.52
554.18	330.16
554.607	330.16
555.033	367.61
555.459	362.93
555.886	358.25
556.312	362.93
556.738	306.76
557.164	236.54
557.59	304.42
558.016	241.22
558.442	332.5
558.868	318.46
559.294	283.35
559.72	259.95
560.145	281.01
560.571	320.8
560.997	271.65
561.422	353.57
561.848	313.78
562.273	346.55
562.699	316.12
563.124	243.56
563.549	271.65
563.974	306.76
564.4	290.37
564.825	304.42
565.25	337.18
565.675	285.69
566.1	299.73
566.525	309.1
566.95	311.44
567.374	290.37
567.799	306.76
568.224	285.69
568.648	313.78
569.073	358.25
569.497	327.82
569.922	299.73
570.346	269.31
570.771	381.65
571.195	325.48
571.619	243.56
572.043	299.73
572.467	276.33
572.891	299.73
573.315	271.65
573.739	271.65
574.163	313.78
574.587	362.93
575.011	323.14
575.435	351.23
575.858	337.18
576.282	297.39
576.705	234.2
577.129	306.76
577.552	325.48
577.976	323.14
578.399	248.24
578.822	313.78
579.245	304.42
579.669	276.33
580.092	297.39
580.515	353.57
580.938	344.21
581.361	241.22
581.784	358.25
582.206	355.91
582.629	318.46
583.052	332.5
583.474	369.95
583.897	334.84
584.32	295.05
584.742	215.48
585.165	269.31
585.587	302.08
586.009	276.33
586.431	297.39
586.854	271.65
587.276	295.05
587.698	330.16
588.12	273.99
588.542	309.1
588.964	281.01
589.386	273.99
589.807	255.26
590.229	273.99
590.651	252.92
591.073	304.42
591.494	325.48
591.916	288.03
592.337	344.21
592.759	313.78
593.18	325.48
593.601	299.73
594.022	295.05
594.444	309.1
594.865	288.03
595.286	313.78
595.707	318.46
596.128	264.63
596.549	318.46
596.97	351.23
597.39	311.44
597.811	313.78
598.232	255.26
598.652	318.46
599.073	255.26
599.494	348.89
599.914	283.35
600.334	325.48
600.755	323.14
601.175	297.39
601.595	330.16
602.015	330.16
602.436	299.73
602.856	409.74
603.276	271.65
603.696	278.67
604.115	250.58
604.535	299.73
604.955	318.46
605.375	304.42
605.794	323.14
606.214	266.97
606.634	318.46
607.053	323.14
607.473	297.39
607.892	320.8
608.311	241.22
608.731	318.46
609.15	339.52
609.569	266.97
609.988	325.48
610.407	341.86
610.826	266.97
611.245	316.12
611.664	334.84
612.083	360.59
612.501	311.44
612.92	278.67
613.339	309.1
613.757	318.46
614.176	325.48
614.594	386.33
615.013	248.24
615.431	257.61
615.85	369.95
616.268	327.82
616.686	311.44
617.104	283.35
617.522	358.25
617.94	306.76
618.358	281.01
618.776	273.99
619.194	278.67
619.612	288.03
620.03	309.1
620.447	309.1
620.865	311.44
621.282	318.46
621.7	388.68
622.117	290.37
622.535	351.23
622.952	348.89
623.369	309.1
623.787	311.44
624.204	285.69
624.621	292.71
625.038	316.12
625.455	341.86
625.872	362.93
626.289	297.39
626.706	348.89
627.123	238.88
627.539	283.35
627.956	281.01
628.373	252.92
628.789	297.39
629.206	348.89
629.622	259.95
630.038	332.5
630.455	318.46
630.871	304.42
631.287	273.99
631.703	285.69
632.12	334.84
632.536	309.1
632.952	316.12
633.368	353.57
633.783	339.52
634.199	351.23
634.615	271.65
635.031	248.24
635.446	327.82
635.862	381.65
636.277	311.44
636.693	323.14
637.108	283.35
637.524	360.59
637.939	304.42
638.354	302.08
638.77	297.39
639.185	255.26
639.6	320.8
640.015	302.08
640.43	325.48
640.845	257.61
641.259	302.08
641.674	302.08
642.089	358.25
642.504	281.01
642.918	255.26
643.333	273.99
643.747	325.48
644.162	288.03
644.576	295.05
644.991	344.21
645.405	344.21
645.819	341.86
646.233	238.88
646.647	344.21
647.061	318.46
647.475	299.73
647.889	245.9
648.303	306.76
648.717	318.46
649.131	285.69
649.545	332.5
649.958	288.03
650.372	281.01
650.785	323.14
651.199	278.67
651.612	245.9
652.026	309.1
652.439	281.01
652.852	297.39
653.266	351.23
653.679	297.39
654.092	337.18
654.505	318.46
654.918	346.55
655.331	330.16
655.744	281.01
656.156	285.69
656.569	276.33
656.982	285.69
657.394	409.74
657.807	271.65
658.22	278.67
658.632	255.26
659.044	259.95
659.457	276.33
659.869	309.1
660.281	281.01
660.693	320.8
661.106	351.23
661.518	306.76
661.93	220.16
662.342	313.78
662.754	250.58
663.165	325.48
663.577	332.5
663.989	297.39
664.401	311.44
664.812	299.73
665.224	285.69
665.635	297.39
666.047	304.42
666.458	302.08
666.869	341.86
667.281	358.25
667.692	295.05
668.103	325.48
668.514	245.9
668.925	283.35
669.336	288.03
669.747	344.21
670.158	276.33
670.569	259.95
670.979	269.31
671.39	318.46
671.801	290.37
672.211	348.89
672.622	318.46
673.032	271.65
673.443	313.78
673.853	323.14
674.263	320.8
674.674	295.05
675.084	210.79
675.494	250.58
675.904	311.44
676.314	288.03
676.724	297.39
677.134	348.89
677.544	281.01
677.953	288.03
678.363	299.73
678.773	304.42
679.182	297.39
679.592	252.92
680.001	281.01
680.411	323.14
680.82	316.12
681.23	323.14
681.639	262.29
682.048	290.37
682.457	259.95
682.866	257.61
683.275	302.08
683.684	346.55
684.093	309.1
684.502	351.23
684.911	278.67
685.32	320.8
685.728	337.18
686.137	290.37
686.546	259.95
686.954	327.82
687.363	292.71
687.771	304.42
688.179	337.18
688.588	355.91
688.996	229.52
689.404	264.63
689.812	334.84
690.22	266.97
690.628	351.23
691.036	325.48
691.444	292.71
691.852	341.86
692.26	302.08
692.667	372.29
693.075	341.86
693.483	259.95
693.89	306.76
694.298	292.71
694.705	304.42
695.112	288.03
695.52	295.05
695.927	271.65
696.334	302.08
696.741	311.44
697.148	252.92
697.555	283.35
697.962	271.65
698.369	292.71
698.776	269.31
699.183	299.73
699.59	241.22
699.996	327.82
700.403	344.21
700.81	290.37
701.216	323.14
701.623	295.05
702.029	290.37
702.435	313.78
702.842	327.82
703.248	175.69
703.654	292.71
704.06	262.29
704.466	269.31
704.872	266.97
705.278	341.86
705.684	278.67
706.09	309.1
706.496	290.37
706.901	320.8
707.307	302.08
707.712	351.23
708.118	318.46
708.523	257.61
708.929	344.21
709.334	334.84
709.74	259.95
710.145	229.52
710.55	292.71
710.955	309.1
711.36	290.37
711.765	285.69
712.17	269.31
712.575	306.76
712.98	814.65
713.385	346.55
713.789	269.31
714.194	257.61
714.599	318.46
715.003	351.23
715.408	341.86
715.812	257.61
716.217	302.08
716.621	257.61
717.025	292.71
717.429	269.31
717.833	367.61
718.238	353.57
718.642	311.44
719.046	283.35
719.449	295.05
719.853	325.48
720.257	295.05
720.661	334.84
721.065	316.12
721.468	297.39
721.872	285.69
722.275	278.67
722.679	234.2
723.082	266.97
723.485	318.46
723.889	283.35
724.292	262.29
724.695	266.97
725.098	297.39
725.501	355.91
725.904	288.03
726.307	351.23
726.71	334.84
727.113	304.42
727.516	323.14
727.918	327.82
728.321	348.89
728.724	238.88
729.126	344.21
729.529	311.44
729.931	337.18
730.333	292.71
730.736	339.52
731.138	309.1
731.54	306.76
731.942	262.29
732.344	250.58
732.746	358.25
733.148	276.33
733.55	323.14
733.952	285.69
734.354	281.01
734.756	311.44
735.157	236.54
735.559	231.86
735.96	320.8
736.362	281.01
736.763	325.48
737.165	325.48
737.566	337.18
737.967	288.03
738.368	309.1
738.77	285.69
739.171	285.69
739.572	318.46
739.973	290.37
740.374	332.5
740.774	302.08
741.175	269.31
741.576	257.61
741.977	285.69
742.377	330.16
742.778	297.39
743.178	341.86
743.579	259.95
743.979	306.76
744.379	316.12
744.78	243.56
745.18	255.26
745.58	271.65
745.98	285.69
746.38	281.01
746.78	262.29
747.18	316.12
747.58	238.88
747.98	320.8
748.38	299.73
748.779	304.42
749.179	299.73
749.578	330.16
749.978	362.93
750.377	337.18
750.777	306.76
751.176	332.5
751.575	273.99
751.975	262.29
752.374	323.14
752.773	262.29
753.172	302.08
753.571	269.31
753.97	360.59
754.369	288.03
754.768	210.79
755.166	320.8
755.565	243.56
755.964	283.35
756.362	248.24
756.761	302.08
757.159	297.39
757.558	327.82
757.956	330.16
758.354	311.44
758.753	245.9
759.151	346.55
759.549	323.14
759.947	320.8
760.345	283.35
760.743	306.76
761.141	309.1
761.539	273.99
761.936	283.35
762.334	273.99
762.732	313.78
763.129	323.14
763.527	273.99
763.924	288.03
764.322	288.03
764.719	334.84
765.117	306.76
765.514	302.08
765.911	276.33
766.308	257.61
766.705	281.01
767.102	257.61
767.499	302.08
767.896	245.9
768.293	259.95
768.69	290.37
769.086	339.52
769.483	348.89
769.88	311.44
770.276	337.18
770.673	341.86
771.069	245.9
771.466	325.48
771.862	269.31
772.258	365.27
772.654	311.44
773.05	367.61
773.447	304.42
773.843	271.65
774.239	285.69
774.634	358.25
775.03	273.99
775.426	330.16
775.822	281.01
776.218	269.31
776.613	358.25
777.009	292.71
777.404	358.25
777.8	281.01
778.195	238.88
778.59	302.08
778.986	273.99
779.381	344.21
779.776	337.18
780.171	344.21
780.566	330.16
780.961	273.99
781.356	341.86
781.751	266.97
782.146	295.05
782.54	311.44
782.935	344.21
783.33	278.67
783.724	292.71
784.119	316.12
784.513	273.99
784.908	313.78
785.302	309.1
785.696	395.7
786.09	304.42
786.485	302.08
786.879	269.31
787.273	196.75
787.667	283.35
788.061	292.71
788.454	320.8
788.848	285.69
789.242	332.5
789.636	358.25
790.029	255.26
790.423	325.48
790.816	306.76
791.21	288.03
791.603	264.63
791.997	320.8
792.39	281.01
792.783	262.29
793.176	351.23
793.569	353.57
793.962	297.39
794.355	290.37
794.748	281.01
795.141	348.89
795.534	266.97
795.927	276.33
796.319	346.55
796.712	285.69
797.105	367.61
797.497	306.76
797.89	278.67
798.282	262.29
798.674	362.93
799.067	283.35
799.459	323.14
799.851	313.78
800.243	323.14
800.635	323.14
801.027	269.31
801.419	292.71
801.811	231.86
802.203	288.03
802.594	325.48
802.986	248.24
803.378	325.48
803.769	295.05
804.161	323.14
804.552	220.16
804.944	255.26
805.335	309.1
805.726	362.93
806.118	259.95
806.509	255.26
806.9	245.9
807.291	281.01
807.682	304.42
808.073	285.69
808.464	367.61
808.855	325.48
809.245	309.1
809.636	358.25
810.027	334.84
810.417	302.08
810.808	281.01
811.198	295.05
811.589	302.08
811.979	262.29
812.369	273.99
812.759	215.48
813.15	273.99
813.54	306.76
813.93	285.69
814.32	283.35
814.71	304.42
815.1	302.08
815.489	295.05
815.879	297.39
816.269	316.12
816.658	297.39
817.048	339.52
817.438	292.71
817.827	238.88
818.216	327.82
818.606	337.18
818.995	302.08
819.384	348.89
819.773	339.52
820.163	281.01
820.552	309.1
820.941	306.76
821.33	283.35
821.718	292.71
822.107	379.31
822.496	304.42
822.885	309.1
823.273	245.9
823.662	250.58
824.05	325.48
824.439	330.16
824.827	220.16
825.216	320.8
825.604	248.24
825.992	229.52
826.38	264.63
826.768	339.52
827.156	339.52
827.544	278.67
827.932	273.99
828.32	330.16
828.708	264.63
829.096	311.44
829.483	220.16
829.871	320.8
830.259	311.44
830.646	348.89
831.034	325.48
831.421	283.35
831.808	259.95
832.196	311.44
832.583	306.76
832.97	309.1
833.357	330.16
833.744	313.78
834.131	297.39
834.518	243.56
834.905	234.2
835.292	316.12
835.678	269.31
836.065	369.95
836.452	309.1
836.838	346.55
837.225	266.97
837.611	252.92
837.998	316.12
838.384	299.73
838.77	365.27
839.157	316.12
839.543	313.78
839.929	337.18
840.315	313.78
840.701	304.42
841.087	351.23
841.473	306.76
841.858	252.92
842.244	273.99
842.63	316.12
843.015	348.89
843.401	566.56
843.787	271.65
844.172	306.76
844.557	304.42
844.943	325.48
845.328	325.48
845.713	299.73
846.098	318.46
846.483	222.5
846.868	285.69
847.253	290.37
847.638	346.55
848.023	220.16
848.408	318.46
848.793	339.52
849.177	234.2
849.562	304.42
849.947	311.44
850.331	323.14
850.715	391.02
851.1	243.56
851.484	255.26
851.868	344.21
852.253	316.12
852.637	323.14
853.021	346.55
853.405	316.12
853.789	318.46
854.173	266.97
854.557	297.39
854.94	281.01
855.324	285.69
855.708	281.01
856.091	278.67
856.475	224.84
856.858	281.01
857.242	330.16
857.625	360.59
858.009	304.42
858.392	290.37
858.775	238.88
859.158	302.08
859.541	311.44
859.924	259.95
860.307	271.65
860.69	334.84
861.073	297.39
861.456	278.67
861.838	309.1
862.221	351.23
862.604	266.97
862.986	355.91
863.369	281.01
863.751	318.46
864.133	325.48
864.516	269.31
864.898	304.42
865.28	252.92
865.662	295.05
866.044	304.42
866.426	285.69
866.808	292.71
867.19	299.73
867.572	334.84
867.954	302.08
868.336	264.63
868.717	386.33
869.099	276.33
869.48	299.73
869.862	269.31
870.243	269.31
870.625	330.16
871.006	302.08
871.387	262.29
871.768	295.05
872.149	266.97
872.53	306.76
872.911	259.95
873.292	304.42
873.673	278.67
874.054	236.54
874.435	271.65
874.815	248.24
875.196	250.58
875.577	304.42
875.957	320.8
876.338	309.1
876.718	302.08
877.098	257.61
877.479	297.39
877.859	283.35
878.239	276.33
878.619	311.44
878.999	264.63
879.379	323.14
879.759	306.76
880.139	297.39
880.519	297.39
880.898	353.57
881.278	311.44
881.658	337.18
882.037	262.29
882.417	285.69
882.796	276.33
883.176	311.44
883.555	323.14
883.934	295.05
884.313	316.12
884.693	381.65
885.072	344.21
885.451	306.76
885.83	278.67
886.209	290.37
886.587	271.65
886.966	295.05
887.345	290.37
887.724	281.01
888.102	341.86
888.481	313.78
888.859	236.54
889.238	337.18
889.616	295.05
889.994	231.86
890.373	353.57
890.751	297.39
891.129	295.05
891.507	339.52
891.885	299.73
892.263	299.73
892.641	276.33
893.019	264.63
893.396	339.52
893.774	234.2
894.152	355.91
894.529	306.76
894.907	259.95
895.284	292.71
895.662	290.37
896.039	243.56
896.416	299.73
896.794	341.86
897.171	283.35
897.548	229.52
897.925	290.37
898.302	295.05
898.679	297.39
899.056	311.44
899.433	283.35
899.809	313.78
900.186	259.95
900.563	323.14
900.939	344.21
901.316	264.63
901.692	339.52
902.069	285.69
902.445	292.71
902.821	323.14
903.197	288.03
903.574	255.26
903.95	306.76
904.326	306.76
904.702	358.25
905.078	360.59
905.454	292.71
905.829	266.97
906.205	351.23
906.581	316.12
906.956	311.44
907.332	330.16
907.707	325.48
908.083	255.26
908.458	220.16
908.833	259.95
909.209	255.26
909.584	304.42
909.959	316.12
910.334	367.61
910.709	281.01
911.084	325.48
911.459	292.71
911.834	337.18
912.209	292.71
912.583	290.37
912.958	271.65
913.333	283.35
913.707	295.05
914.082	297.39
914.456	337.18
914.83	276.33
915.205	278.67
915.579	362.93
915.953	271.65
916.327	327.82
916.701	344.21
917.075	365.27
917.449	318.46
917.823	271.65
918.197	290.37
918.571	309.1
918.944	304.42
919.318	252.92
919.692	337.18
920.065	299.73
920.438	332.5
920.812	320.8
921.185	271.65
921.558	290.37
921.932	323.14
922.305	325.48
922.678	283.35
923.051	346.55
923.424	299.73
923.797	325.48
924.17	295.05
924.542	259.95
924.915	337.18
925.288	290.37
925.661	299.73
926.033	344.21
926.406	281.01
926.778	299.73
927.15	323.14
927.523	252.92
927.895	309.1
928.267	341.86
928.639	276.33
929.011	320.8
929.383	318.46
929.755	323.14
930.127	297.39
930.499	316.12
930.871	273.99
931.242	248.24
931.614	400.38
931.986	323.14
932.357	360.59
932.729	316.12
933.1	259.95
933.471	341.86
933.843	250.58
934.214	288.03
934.585	206.11
934.956	327.82
935.327	320.8
935.698	290.37
936.069	299.73
936.44	299.73
936.811	323.14
937.182	292.71
937.552	360.59
937.923	271.65
938.293	266.97
938.664	269.31
939.034	278.67
939.405	358.25
939.775	290.37
940.145	278.67
940.516	309.1
940.886	346.55
941.256	302.08
941.626	262.29
941.996	290.37
942.366	337.18
942.735	266.97
943.105	306.76
943.475	285.69
943.845	281.01
944.214	327.82
944.584	311.44
944.953	304.42
945.323	264.63
945.692	332.5
946.061	332.5
946.43	288.03
946.8	339.52
947.169	213.14
947.538	334.84
947.907	325.48
948.276	271.65
948.645	330.16
949.013	271.65
949.382	295.05
949.751	299.73
950.119	327.82
950.488	330.16
950.857	304.42
951.225	316.12
951.593	295.05
951.962	332.5
952.33	250.58
952.698	241.22
953.066	285.69
953.434	302.08
953.802	259.95
954.17	318.46
954.538	313.78
954.906	316.12
955.274	273.99
955.642	234.2
956.009	285.69
956.377	306.76
956.744	323.14
957.112	306.76
957.479	304.42
957.847	376.97
958.214	299.73
958.581	288.03
958.948	341.86
959.315	241.22
959.683	241.22
960.05	281.01
960.416	299.73
960.783	283.35
961.15	281.01
961.517	248.24
961.884	271.65
962.25	266.97
962.617	362.93
962.983	309.1
963.35	320.8
963.716	313.78
964.082	311.44
964.449	304.42
964.815	285.69
965.181	273.99
965.547	386.33
965.913	372.29
966.279	325.48
966.645	255.26
967.011	297.39
967.377	288.03
967.742	318.46
968.108	341.86
968.474	231.86
968.839	313.78
969.205	309.1
969.57	313.78
969.935	273.99
970.301	323.14
970.666	292.71
971.031	346.55
971.396	269.31
971.761	339.52
972.126	320.8
972.491	259.95
972.856	281.01
973.221	281.01
973.586	269.31
973.95	264.63
974.315	351.23
974.679	281.01
975.044	252.92
975.408	271.65
975.773	320.8
976.137	330.16
976.501	262.29
976.866	257.61
977.23	332.5
977.594	255.26
977.958	241.22
978.322	304.42
978.686	278.67
979.049	302.08
979.413	311.44
979.777	262.29
980.141	330.16
980.504	327.82
980.868	292.71
981.231	264.63
981.595	290.37
981.958	292.71
982.321	238.88
982.684	288.03
983.048	273.99
983.411	238.88
983.774	311.44
984.137	273.99
984.5	262.29
984.862	222.5
985.225	297.39
985.588	245.9
985.951	273.99
986.313	383.99
986.676	285.69
987.038	285.69
987.401	306.76
987.763	288.03
988.125	262.29
988.488	273.99
988.85	320.8
989.212	271.65
989.574	309.1
989.936	309.1
990.298	269.31
990.66	325.48
991.022	290.37
991.383	262.29
991.745	304.42
992.107	299.73
992.468	323.14
992.83	304.42
993.191	323.14
993.553	311.44
993.914	304.42
994.275	344.21
994.637	306.76
994.998	334.84
995.359	297.39
995.72	339.52
996.081	285.69
996.442	341.86
996.803	295.05
997.163	309.1
997.524	302.08
997.885	292.71
998.245	288.03
998.606	231.86
998.966	281.01
999.327	269.31
999.687	283.35
1000.047	206.11
1000.408	313.78
1000.768	243.56
1001.128	323.14
1001.488	325.48
1001.848	271.65
1002.208	339.52
1002.568	285.69
1002.927	255.26
1003.287	318.46
1003.647	351.23
1004.007	264.63
1004.366	330.16
1004.726	306.76
1005.085	369.95
1005.444	306.76
1005.804	306.76
1006.163	250.58
1006.522	210.79
1006.881	311.44
1007.24	318.46
1007.599	285.69
1007.958	337.18
1008.317	283.35
1008.676	255.26
1009.035	295.05
1009.393	330.16
1009.752	327.82
1010.111	288.03
1010.469	255.26
1010.828	311.44
1011.186	292.71
1011.544	262.29
1011.903	309.1
1012.261	283.35
1012.619	320.8
1012.977	269.31
1013.335	313.78
1013.693	281.01
1014.051	330.16
1014.409	330.16
1014.767	276.33
1015.124	306.76
1015.482	281.01
1015.84	245.9
1016.197	311.44
1016.555	288.03
1016.912	229.52
1017.269	318.46
1017.627	311.44
1017.984	273.99
1018.341	290.37
1018.698	405.06
1019.055	295.05
1019.412	264.63
1019.769	273.99
1020.126	271.65
1020.483	292.71
1020.84	325.48
1021.196	269.31
1021.553	255.26
1021.909	295.05
1022.266	306.76
1022.622	248.24
1022.979	323.14
1023.335	367.61
1023.691	325.48
1024.047	285.69
1024.404	269.31
1024.76	325.48
1025.116	320.8
1025.472	323.14
1025.827	269.31
1026.183	243.56
1026.539	318.46
1026.895	362.93
1027.25	273.99
1027.606	234.2
1027.961	323.14
1028.317	271.65
1028.672	285.69
1029.028	297.39
1029.383	365.27
1029.738	348.89
1030.093	281.01
1030.448	344.21
1030.803	281.01
1031.158	313.78
1031.513	330.16
1031.868	290.37
1032.223	163.98
1032.577	327.82
1032.932	297.39
1033.287	245.9
1033.641	234.2
1033.996	330.16
1034.35	304.42
1034.704	271.65
1035.059	330.16
1035.413	290.37
1035.767	290.37
1036.121	290.37
