Data from Al_FLMS009871__1187__16-40-38-682.txt Node

Date: Fri Mar 08 16:40:38 CST 2024
User: pe5414po
Spectrometer: FLMS00987
Trigger mode: 0
Integration Time (sec): 1.000000E-1
Scans to average: 1
Electric dark correction enabled: true
Nonlinearity correction enabled: false
Boxcar width: 0
XAxis mode: Wavelengths
Number of Pixels in Spectrum: 2048
>>>>>Begin Spectral Data<<<<<
188.938	-89.53
189.409	-89.53
189.879	-89.53
190.349	-77.82
190.819	-94.21
191.29	-82.5
191.76	-112.93
192.23	-73.14
192.7	-136.34
193.17	-14.63
193.64	-45.06
194.109	-66.12
194.579	-16.97
195.049	-2.93
195.519	-26.33
195.988	48.57
196.458	13.46
196.927	43.89
197.397	111.76
197.866	198.36
198.336	160.91
198.805	165.59
199.274	224.11
199.744	247.51
200.213	235.81
200.682	198.36
201.151	233.47
201.62	261.55
202.089	231.13
202.558	235.81
203.027	296.66
203.495	200.7
203.964	299
204.433	266.24
204.902	221.77
205.37	275.6
205.839	329.43
206.307	308.37
206.776	282.62
207.244	247.51
207.712	254.53
208.181	334.11
208.649	284.96
209.117	259.21
209.585	282.62
210.053	324.75
210.521	322.41
210.989	301.34
211.457	359.86
211.925	254.53
212.393	322.41
212.861	235.81
213.328	324.75
213.796	282.62
214.264	273.26
214.731	235.81
215.199	254.53
215.666	313.05
216.133	240.49
216.601	231.13
217.068	240.49
217.535	249.85
218.003	291.98
218.47	275.6
218.937	242.83
219.404	238.15
219.871	284.96
220.338	263.9
220.805	282.62
221.271	270.92
221.738	273.26
222.205	277.94
222.671	268.58
223.138	277.94
223.605	247.51
224.071	240.49
224.538	345.81
225.004	294.32
225.47	261.55
225.937	268.58
226.403	247.51
226.869	322.41
227.335	254.53
227.801	224.11
228.267	219.43
228.733	263.9
229.199	231.13
229.665	334.11
230.131	261.55
230.597	226.45
231.062	259.21
231.528	228.79
231.994	299
232.459	294.32
232.925	277.94
233.39	294.32
233.856	282.62
234.321	261.55
234.786	249.85
235.252	299
235.717	306.03
236.182	240.49
236.647	327.09
237.112	313.05
237.577	228.79
238.042	341.13
238.507	242.83
238.972	261.55
239.436	306.03
239.901	301.34
240.366	310.71
240.83	331.77
241.295	252.19
241.76	247.51
242.224	263.9
242.688	226.45
243.153	207.72
243.617	350.5
244.081	296.66
244.545	306.03
245.01	207.72
245.474	282.62
245.938	268.58
246.402	299
246.866	289.64
247.33	254.53
247.793	282.62
248.257	266.24
248.721	341.13
249.185	238.15
249.648	301.34
250.112	282.62
250.575	198.36
251.039	273.26
251.502	310.71
251.965	334.11
252.429	287.3
252.892	245.17
253.355	306.03
253.818	277.94
254.281	238.15
254.744	247.51
255.207	306.03
255.67	313.05
256.133	317.73
256.596	282.62
257.059	273.26
257.522	247.51
257.984	282.62
258.447	294.32
258.909	287.3
259.372	287.3
259.834	315.39
260.297	306.03
260.759	240.49
261.221	327.09
261.684	289.64
262.146	284.96
262.608	275.6
263.07	355.18
263.532	233.47
263.994	270.92
264.456	240.49
264.918	282.62
265.38	299
265.842	308.37
266.303	256.87
266.765	219.43
267.227	221.77
267.688	228.79
268.15	233.47
268.611	287.3
269.072	338.79
269.534	228.79
269.995	207.72
270.456	317.73
270.918	242.83
271.379	240.49
271.84	259.21
272.301	320.07
272.762	303.68
273.223	299
273.684	284.96
274.144	210.06
274.605	324.75
275.066	263.9
275.527	252.19
275.987	306.03
276.448	324.75
276.908	275.6
277.369	231.13
277.829	308.37
278.289	284.96
278.75	280.28
279.21	277.94
279.67	275.6
280.13	303.68
280.59	235.81
281.05	331.77
281.51	369.22
281.97	277.94
282.43	338.79
282.89	263.9
283.35	334.11
283.809	315.39
284.269	317.73
284.729	277.94
285.188	287.3
285.648	313.05
286.107	233.47
286.567	359.86
287.026	275.6
287.485	355.18
287.944	249.85
288.404	355.18
288.863	324.75
289.322	296.66
289.781	214.74
290.24	284.96
290.699	228.79
291.158	299
291.616	270.92
292.075	294.32
292.534	268.58
292.992	315.39
293.451	308.37
293.91	313.05
294.368	338.79
294.827	308.37
295.285	261.55
295.743	256.87
296.202	306.03
296.66	254.53
297.118	270.92
297.576	345.81
298.034	310.71
298.492	256.87
298.95	296.66
299.408	327.09
299.866	336.45
300.324	282.62
300.781	301.34
301.239	299
301.697	275.6
302.154	270.92
302.612	296.66
303.069	268.58
303.527	247.51
303.984	254.53
304.441	275.6
304.899	345.81
305.356	387.94
305.813	287.3
306.27	259.21
306.727	310.71
307.184	341.13
307.641	296.66
308.098	280.28
308.555	275.6
309.012	362.2
309.468	245.17
309.925	313.05
310.382	294.32
310.838	282.62
311.295	317.73
311.751	306.03
312.208	282.62
312.664	334.11
313.12	310.71
313.577	359.86
314.033	322.41
314.489	301.34
314.945	350.5
315.401	334.11
315.857	338.79
316.313	306.03
316.769	268.58
317.225	273.26
317.681	345.81
318.136	226.45
318.592	252.19
319.048	289.64
319.503	310.71
319.959	299
320.414	254.53
320.869	289.64
321.325	322.41
321.78	301.34
322.235	299
322.691	371.56
323.146	284.96
323.601	259.21
324.056	291.98
324.511	242.83
324.966	299
325.421	310.71
325.875	280.28
326.33	245.17
326.785	270.92
327.24	336.45
327.694	334.11
328.149	275.6
328.603	329.43
329.058	270.92
329.512	308.37
329.966	270.92
330.421	291.98
330.875	263.9
331.329	341.13
331.783	299
332.237	336.45
332.691	282.62
333.145	306.03
333.599	268.58
334.053	331.77
334.507	266.24
334.96	343.47
335.414	242.83
335.868	252.19
336.321	338.79
336.775	310.71
337.228	317.73
337.682	294.32
338.135	284.96
338.588	273.26
339.042	380.92
339.495	350.5
339.948	376.24
340.401	320.07
340.854	310.71
341.307	313.05
341.76	282.62
342.213	310.71
342.666	315.39
343.119	352.84
343.571	334.11
344.024	287.3
344.477	282.62
344.929	336.45
345.382	303.68
345.834	313.05
346.287	303.68
346.739	301.34
347.191	327.09
347.644	296.66
348.096	296.66
348.548	301.34
349	273.26
349.452	299
349.904	308.37
350.356	284.96
350.808	352.84
351.26	334.11
351.711	327.09
352.163	327.09
352.615	376.24
353.066	284.96
353.518	359.86
353.969	280.28
354.421	322.41
354.872	306.03
355.324	320.07
355.775	277.94
356.226	275.6
356.677	296.66
357.128	294.32
357.579	273.26
358.03	322.41
358.481	338.79
358.932	275.6
359.383	240.49
359.834	310.71
360.285	296.66
360.735	287.3
361.186	334.11
361.637	247.51
362.087	268.58
362.538	313.05
362.988	313.05
363.438	256.87
363.889	273.26
364.339	308.37
364.789	338.79
365.239	254.53
365.689	357.52
366.139	338.79
366.589	350.5
367.039	273.26
367.489	362.2
367.939	329.43
368.389	371.56
368.839	315.39
369.288	207.72
369.738	280.28
370.187	338.79
370.637	355.18
371.086	350.5
371.536	310.71
371.985	308.37
372.434	320.07
372.884	299
373.333	291.98
373.782	306.03
374.231	294.32
374.68	315.39
375.129	317.73
375.578	338.79
376.027	299
376.475	380.92
376.924	317.73
377.373	303.68
377.822	306.03
378.27	341.13
378.719	270.92
379.167	317.73
379.616	287.3
380.064	303.68
380.512	320.07
380.961	294.32
381.409	280.28
381.857	355.18
382.305	306.03
382.753	320.07
383.201	329.43
383.649	303.68
384.097	313.05
384.545	350.5
384.992	259.21
385.44	306.03
385.888	362.2
386.335	324.75
386.783	263.9
387.231	284.96
387.678	280.28
388.125	238.15
388.573	313.05
389.02	324.75
389.467	282.62
389.914	303.68
390.362	282.62
390.809	273.26
391.256	284.96
391.703	310.71
392.15	329.43
392.596	357.52
393.043	320.07
393.49	310.71
393.937	306.03
394.383	334.11
394.83	376.24
395.276	357.52
395.723	301.34
396.169	270.92
396.616	322.41
397.062	385.6
397.508	390.28
397.954	306.03
398.401	364.54
398.847	334.11
399.293	277.94
399.739	299
400.185	313.05
400.631	252.19
401.076	336.45
401.522	317.73
401.968	317.73
402.414	352.84
402.859	280.28
403.305	242.83
403.75	350.5
404.196	284.96
404.641	336.45
405.086	322.41
405.532	341.13
405.977	348.15
406.422	306.03
406.867	308.37
407.312	268.58
407.757	320.07
408.202	254.53
408.647	317.73
409.092	299
409.537	280.28
409.982	301.34
410.426	306.03
410.871	261.55
411.316	322.41
411.76	289.64
412.205	268.58
412.649	299
413.093	308.37
413.538	385.6
413.982	341.13
414.426	317.73
414.87	270.92
415.314	270.92
415.758	301.34
416.202	348.15
416.646	350.5
417.09	331.77
417.534	341.13
417.978	376.24
418.421	315.39
418.865	310.71
419.309	348.15
419.752	282.62
420.196	380.92
420.639	336.45
421.083	334.11
421.526	306.03
421.969	296.66
422.412	359.86
422.856	336.45
423.299	369.22
423.742	284.96
424.185	317.73
424.628	310.71
425.071	256.87
425.513	301.34
425.956	301.34
426.399	275.6
426.842	259.21
427.284	371.56
427.727	268.58
428.169	320.07
428.612	324.75
429.054	364.54
429.497	303.68
429.939	341.13
430.381	301.34
430.823	294.32
431.265	289.64
431.707	306.03
432.149	348.15
432.591	315.39
433.033	301.34
433.475	308.37
433.917	308.37
434.359	287.3
434.8	317.73
435.242	376.24
435.684	214.74
436.125	327.09
436.567	359.86
437.008	322.41
437.449	348.15
437.891	322.41
438.332	327.09
438.773	315.39
439.214	362.2
439.656	348.15
440.097	301.34
440.538	317.73
440.978	284.96
441.419	303.68
441.86	380.92
442.301	277.94
442.742	303.68
443.182	226.45
443.623	343.47
444.063	359.86
444.504	317.73
444.944	376.24
445.385	231.13
445.825	308.37
446.265	362.2
446.706	350.5
447.146	263.9
447.586	317.73
448.026	275.6
448.466	359.86
448.906	282.62
449.346	310.71
449.786	369.22
450.225	315.39
450.665	287.3
451.105	268.58
451.544	334.11
451.984	357.52
452.424	327.09
452.863	322.41
453.302	327.09
453.742	336.45
454.181	329.43
454.62	294.32
455.059	338.79
455.499	233.47
455.938	313.05
456.377	254.53
456.816	310.71
457.254	287.3
457.693	289.64
458.132	371.56
458.571	376.24
459.01	287.3
459.448	270.92
459.887	266.24
460.325	369.22
460.764	320.07
461.202	373.9
461.641	331.77
462.079	306.03
462.517	338.79
462.955	301.34
463.393	317.73
463.832	324.75
464.27	322.41
464.708	273.26
465.145	273.26
465.583	355.18
466.021	317.73
466.459	338.79
466.897	273.26
467.334	263.9
467.772	387.94
468.209	284.96
468.647	296.66
469.084	352.84
469.522	334.11
469.959	338.79
470.396	366.88
470.833	284.96
471.271	336.45
471.708	303.68
472.145	329.43
472.582	249.85
473.019	399.65
473.456	331.77
473.892	352.84
474.329	310.71
474.766	303.68
475.202	266.24
475.639	320.07
476.076	299
476.512	366.88
476.949	273.26
477.385	343.47
477.821	390.28
478.258	341.13
478.694	291.98
479.13	348.15
479.566	322.41
480.002	359.86
480.438	329.43
480.874	301.34
481.31	231.13
481.746	324.75
482.181	306.03
482.617	320.07
483.053	343.47
483.488	308.37
483.924	322.41
484.36	270.92
484.795	291.98
485.23	308.37
485.666	341.13
486.101	296.66
486.536	317.73
486.971	287.3
487.407	313.05
487.842	343.47
488.277	350.5
488.712	266.24
489.146	355.18
489.581	296.66
490.016	280.28
490.451	343.47
490.885	338.79
491.32	341.13
491.755	350.5
492.189	303.68
492.624	280.28
493.058	352.84
493.492	334.11
493.927	268.58
494.361	310.71
494.795	359.86
495.229	350.5
495.663	331.77
496.097	345.81
496.531	348.15
496.965	338.79
497.399	296.66
497.833	291.98
498.266	308.37
498.7	268.58
499.134	291.98
499.567	331.77
500.001	259.21
500.434	313.05
500.868	303.68
501.301	320.07
501.734	287.3
502.168	247.51
502.601	310.71
503.034	301.34
503.467	334.11
503.9	294.32
504.333	338.79
504.766	282.62
505.199	306.03
505.632	359.86
506.064	352.84
506.497	315.39
506.93	324.75
507.362	317.73
507.795	291.98
508.227	345.81
508.66	299
509.092	284.96
509.524	299
509.956	306.03
510.389	289.64
510.821	331.77
511.253	329.43
511.685	261.55
512.117	280.28
512.549	322.41
512.981	338.79
513.412	343.47
513.844	345.81
514.276	331.77
514.707	263.9
515.139	287.3
515.571	294.32
516.002	308.37
516.433	348.15
516.865	249.85
517.296	266.24
517.727	306.03
518.159	280.28
518.59	362.2
519.021	327.09
519.452	334.11
519.883	294.32
520.314	256.87
520.744	350.5
521.175	308.37
521.606	303.68
522.037	324.75
522.467	282.62
522.898	306.03
523.328	303.68
523.759	306.03
524.189	294.32
524.62	315.39
525.05	336.45
525.48	282.62
525.91	294.32
526.341	329.43
526.771	303.68
527.201	275.6
527.631	287.3
528.061	291.98
528.49	296.66
528.92	315.39
529.35	338.79
529.78	294.32
530.209	291.98
530.639	313.05
531.068	317.73
531.498	329.43
531.927	282.62
532.357	291.98
532.786	301.34
533.215	313.05
533.644	291.98
534.074	366.88
534.503	306.03
534.932	380.92
535.361	329.43
535.79	273.26
536.218	296.66
536.647	317.73
537.076	294.32
537.505	296.66
537.933	310.71
538.362	261.55
538.79	327.09
539.219	329.43
539.647	294.32
540.076	362.2
540.504	341.13
540.932	261.55
541.36	315.39
541.788	338.79
542.217	355.18
542.645	277.94
543.073	270.92
543.5	336.45
543.928	310.71
544.356	275.6
544.784	308.37
545.211	369.22
545.639	308.37
546.067	301.34
546.494	315.39
546.922	270.92
547.349	273.26
547.776	313.05
548.204	306.03
548.631	270.92
549.058	284.96
549.485	277.94
549.912	315.39
550.339	303.68
550.766	299
551.193	306.03
551.62	261.55
552.047	336.45
552.474	301.34
552.9	261.55
553.327	331.77
553.754	219.43
554.18	308.37
554.607	324.75
555.033	284.96
555.459	301.34
555.886	320.07
556.312	336.45
556.738	242.83
557.164	282.62
557.59	334.11
558.016	291.98
558.442	270.92
558.868	299
559.294	296.66
559.72	364.54
560.145	362.2
560.571	299
560.997	341.13
561.422	308.37
561.848	322.41
562.273	383.26
562.699	284.96
563.124	240.49
563.549	270.92
563.974	282.62
564.4	308.37
564.825	291.98
565.25	378.58
565.675	322.41
566.1	273.26
566.525	308.37
566.95	306.03
567.374	338.79
567.799	348.15
568.224	287.3
568.648	331.77
569.073	327.09
569.497	268.58
569.922	371.56
570.346	331.77
570.771	287.3
571.195	275.6
571.619	350.5
572.043	275.6
572.467	301.34
572.891	364.54
573.315	324.75
573.739	315.39
574.163	263.9
574.587	296.66
575.011	303.68
575.435	280.28
575.858	284.96
576.282	291.98
576.705	280.28
577.129	338.79
577.552	252.19
577.976	259.21
578.399	338.79
578.822	308.37
579.245	320.07
579.669	303.68
580.092	289.64
580.515	320.07
580.938	317.73
581.361	310.71
581.784	409.01
582.206	350.5
582.629	282.62
583.052	284.96
583.474	291.98
583.897	373.9
584.32	301.34
584.742	282.62
585.165	357.52
585.587	334.11
586.009	355.18
586.431	343.47
586.854	301.34
587.276	287.3
587.698	317.73
588.12	317.73
588.542	313.05
588.964	287.3
589.386	280.28
589.807	383.26
590.229	256.87
590.651	282.62
591.073	303.68
591.494	313.05
591.916	317.73
592.337	329.43
592.759	249.85
593.18	273.26
593.601	343.47
594.022	280.28
594.444	357.52
594.865	275.6
595.286	254.53
595.707	313.05
596.128	341.13
596.549	315.39
596.97	296.66
597.39	301.34
597.811	273.26
598.232	324.75
598.652	383.26
599.073	303.68
599.494	320.07
599.914	385.6
600.334	341.13
600.755	280.28
601.175	329.43
601.595	343.47
602.015	338.79
602.436	329.43
602.856	490.93
603.276	315.39
603.696	327.09
604.115	291.98
604.535	338.79
604.955	296.66
605.375	261.55
605.794	284.96
606.214	366.88
606.634	306.03
607.053	331.77
607.473	317.73
607.892	329.43
608.311	324.75
608.731	369.22
609.15	385.6
609.569	327.09
609.988	310.71
610.407	308.37
610.826	291.98
611.245	366.88
611.664	317.73
612.083	329.43
612.501	313.05
612.92	385.6
613.339	306.03
613.757	275.6
614.176	334.11
614.594	254.53
615.013	315.39
615.431	313.05
615.85	249.85
616.268	261.55
616.686	329.43
617.104	322.41
617.522	310.71
617.94	303.68
618.358	355.18
618.776	287.3
619.194	306.03
619.612	235.81
620.03	282.62
620.447	308.37
620.865	336.45
621.282	327.09
621.7	249.85
622.117	329.43
622.535	284.96
622.952	299
623.369	294.32
623.787	294.32
624.204	348.15
624.621	301.34
625.038	341.13
625.455	306.03
625.872	287.3
626.289	348.15
626.706	320.07
627.123	249.85
627.539	303.68
627.956	313.05
628.373	235.81
628.789	273.26
629.206	350.5
629.622	334.11
630.038	329.43
630.455	263.9
630.871	296.66
631.287	282.62
631.703	284.96
632.12	352.84
632.536	343.47
632.952	317.73
633.368	357.52
633.783	371.56
634.199	364.54
634.615	350.5
635.031	313.05
635.446	362.2
635.862	303.68
636.277	317.73
636.693	352.84
637.108	324.75
637.524	416.03
637.939	268.58
638.354	345.81
638.77	303.68
639.185	336.45
639.6	324.75
640.015	317.73
640.43	355.18
640.845	343.47
641.259	355.18
641.674	294.32
642.089	331.77
642.504	313.05
642.918	299
643.333	336.45
643.747	277.94
644.162	291.98
644.576	296.66
644.991	261.55
645.405	313.05
645.819	299
646.233	291.98
646.647	313.05
647.061	373.9
647.475	296.66
647.889	336.45
648.303	306.03
648.717	371.56
649.131	294.32
649.545	317.73
649.958	289.64
650.372	308.37
650.785	331.77
651.199	348.15
651.612	350.5
652.026	322.41
652.439	322.41
652.852	310.71
653.266	357.52
653.679	334.11
654.092	352.84
654.505	287.3
654.918	324.75
655.331	357.52
655.744	383.26
656.156	345.81
656.569	341.13
656.982	322.41
657.394	306.03
657.807	308.37
658.22	313.05
658.632	296.66
659.044	259.21
659.457	303.68
659.869	313.05
660.281	320.07
660.693	397.31
661.106	336.45
661.518	324.75
661.93	287.3
662.342	306.03
662.754	320.07
663.165	313.05
663.577	341.13
663.989	317.73
664.401	303.68
664.812	324.75
665.224	334.11
665.635	362.2
666.047	359.86
666.458	380.92
666.869	275.6
667.281	252.19
667.692	233.47
668.103	306.03
668.514	289.64
668.925	338.79
669.336	331.77
669.747	345.81
670.158	294.32
670.569	387.94
670.979	301.34
671.39	371.56
671.801	341.13
672.211	320.07
672.622	320.07
673.032	263.9
673.443	289.64
673.853	376.24
674.263	249.85
674.674	301.34
675.084	366.88
675.494	317.73
675.904	320.07
676.314	313.05
676.724	306.03
677.134	320.07
677.544	345.81
677.953	282.62
678.363	235.81
678.773	420.71
679.182	409.01
679.592	327.09
680.001	273.26
680.411	291.98
680.82	336.45
681.23	317.73
681.639	331.77
682.048	296.66
682.457	348.15
682.866	336.45
683.275	322.41
683.684	329.43
684.093	345.81
684.502	352.84
684.911	270.92
685.32	277.94
685.728	343.47
686.137	336.45
686.546	322.41
686.954	313.05
687.363	327.09
687.771	345.81
688.179	341.13
688.588	282.62
688.996	301.34
689.404	313.05
689.812	327.09
690.22	301.34
690.628	334.11
691.036	231.13
691.444	338.79
691.852	284.96
692.26	348.15
692.667	373.9
693.075	327.09
693.483	320.07
693.89	338.79
694.298	296.66
694.705	336.45
695.112	308.37
695.52	291.98
695.927	291.98
696.334	308.37
696.741	341.13
697.148	355.18
697.555	320.07
697.962	338.79
698.369	289.64
698.776	282.62
699.183	401.99
699.59	263.9
699.996	287.3
700.403	308.37
700.81	254.53
701.216	266.24
701.623	263.9
702.029	350.5
702.435	327.09
702.842	338.79
703.248	306.03
703.654	310.71
704.06	329.43
704.466	266.24
704.872	254.53
705.278	252.19
705.684	334.11
706.09	394.97
706.496	291.98
706.901	315.39
707.307	317.73
707.712	317.73
708.118	385.6
708.523	263.9
708.929	294.32
709.334	308.37
709.74	308.37
710.145	282.62
710.55	291.98
710.955	296.66
711.36	266.24
711.765	299
712.17	376.24
712.575	329.43
712.98	776.47
713.385	254.53
713.789	308.37
714.194	338.79
714.599	338.79
715.003	308.37
715.408	329.43
715.812	355.18
716.217	348.15
716.621	348.15
717.025	350.5
717.429	245.17
717.833	322.41
718.238	338.79
718.642	282.62
719.046	296.66
719.449	301.34
719.853	268.58
720.257	352.84
720.661	282.62
721.065	303.68
721.468	277.94
721.872	355.18
722.275	317.73
722.679	245.17
723.082	282.62
723.485	308.37
723.889	242.83
724.292	327.09
724.695	273.26
725.098	357.52
725.501	289.64
725.904	303.68
726.307	355.18
726.71	343.47
727.113	287.3
727.516	317.73
727.918	366.88
728.321	289.64
728.724	284.96
729.126	299
729.529	327.09
729.931	301.34
730.333	327.09
730.736	348.15
731.138	294.32
731.54	266.24
731.942	273.26
732.344	317.73
732.746	282.62
733.148	320.07
733.55	310.71
733.952	273.26
734.354	308.37
734.756	343.47
735.157	329.43
735.559	296.66
735.96	301.34
736.362	336.45
736.763	294.32
737.165	259.21
737.566	313.05
737.967	357.52
738.368	289.64
738.77	343.47
739.171	270.92
739.572	357.52
739.973	315.39
740.374	294.32
740.774	308.37
741.175	303.68
741.576	371.56
741.977	308.37
742.377	338.79
742.778	270.92
743.178	348.15
743.579	378.58
743.979	299
744.379	296.66
744.78	284.96
745.18	301.34
745.58	273.26
745.98	266.24
746.38	313.05
746.78	221.77
747.18	324.75
747.58	301.34
747.98	301.34
748.38	310.71
748.779	252.19
749.179	238.15
749.578	263.9
749.978	310.71
750.377	263.9
750.777	317.73
751.176	249.85
751.575	249.85
751.975	273.26
752.374	324.75
752.773	270.92
753.172	247.51
753.571	327.09
753.97	254.53
754.369	275.6
754.768	289.64
755.166	268.58
755.565	266.24
755.964	310.71
756.362	334.11
756.761	359.86
757.159	284.96
757.558	329.43
757.956	334.11
758.354	289.64
758.753	338.79
759.151	287.3
759.549	273.26
759.947	266.24
760.345	266.24
760.743	338.79
761.141	364.54
761.539	343.47
761.936	306.03
762.334	296.66
762.732	273.26
763.129	317.73
763.527	327.09
763.924	275.6
764.322	336.45
764.719	348.15
765.117	336.45
765.514	242.83
765.911	306.03
766.308	284.96
766.705	254.53
767.102	275.6
767.499	261.55
767.896	317.73
768.293	310.71
768.69	259.21
769.086	245.17
769.483	261.55
769.88	284.96
770.276	357.52
770.673	313.05
771.069	324.75
771.466	313.05
771.862	334.11
772.258	362.2
772.654	287.3
773.05	289.64
773.447	348.15
773.843	294.32
774.239	242.83
774.634	313.05
775.03	313.05
775.426	394.97
775.822	245.17
776.218	322.41
776.613	338.79
777.009	306.03
777.404	343.47
777.8	329.43
778.195	320.07
778.59	310.71
778.986	280.28
779.381	266.24
779.776	245.17
780.171	315.39
780.566	320.07
780.961	308.37
781.356	320.07
781.751	287.3
782.146	322.41
782.54	338.79
782.935	317.73
783.33	306.03
783.724	364.54
784.119	338.79
784.513	390.28
784.908	289.64
785.302	373.9
785.696	341.13
786.09	338.79
786.485	317.73
786.879	369.22
787.273	313.05
787.667	301.34
788.061	268.58
788.454	345.81
788.848	334.11
789.242	352.84
789.636	338.79
790.029	313.05
790.423	284.96
790.816	322.41
791.21	317.73
791.603	259.21
791.997	263.9
792.39	291.98
792.783	291.98
793.176	336.45
793.569	270.92
793.962	320.07
794.355	235.81
794.748	329.43
795.141	289.64
795.534	364.54
795.927	352.84
796.319	320.07
796.712	291.98
797.105	256.87
797.497	303.68
797.89	336.45
798.282	329.43
798.674	320.07
799.067	376.24
799.459	324.75
799.851	331.77
800.243	226.45
800.635	231.13
801.027	235.81
801.419	331.77
801.811	291.98
802.203	348.15
802.594	308.37
802.986	310.71
803.378	254.53
803.769	338.79
804.161	273.26
804.552	294.32
804.944	301.34
805.335	301.34
805.726	376.24
806.118	334.11
806.509	348.15
806.9	324.75
807.291	306.03
807.682	348.15
808.073	322.41
808.464	315.39
808.855	289.64
809.245	317.73
809.636	259.21
810.027	334.11
810.417	350.5
810.808	299
811.198	284.96
811.589	308.37
811.979	336.45
812.369	235.81
812.759	299
813.15	249.85
813.54	280.28
813.93	355.18
814.32	249.85
814.71	284.96
815.1	308.37
815.489	284.96
815.879	345.81
816.269	308.37
816.658	376.24
817.048	280.28
817.438	273.26
817.827	256.87
818.216	327.09
818.606	249.85
818.995	294.32
819.384	296.66
819.773	320.07
820.163	294.32
820.552	308.37
820.941	343.47
821.33	280.28
821.718	296.66
822.107	310.71
822.496	317.73
822.885	327.09
823.273	294.32
823.662	345.81
824.05	338.79
824.439	303.68
824.827	299
825.216	296.66
825.604	355.18
825.992	282.62
826.38	343.47
826.768	299
827.156	284.96
827.544	261.55
827.932	296.66
828.32	313.05
828.708	336.45
829.096	287.3
829.483	256.87
829.871	256.87
830.259	296.66
830.646	322.41
831.034	345.81
831.421	306.03
831.808	324.75
832.196	252.19
832.583	310.71
832.97	289.64
833.357	280.28
833.744	322.41
834.131	210.06
834.518	273.26
834.905	383.26
835.292	336.45
835.678	268.58
836.065	343.47
836.452	306.03
836.838	336.45
837.225	261.55
837.611	336.45
837.998	280.28
838.384	331.77
838.77	317.73
839.157	308.37
839.543	341.13
839.929	242.83
840.315	357.52
840.701	317.73
841.087	313.05
841.473	324.75
841.858	261.55
842.244	324.75
842.63	331.77
843.015	273.26
843.401	528.38
843.787	322.41
844.172	266.24
844.557	277.94
844.943	306.03
845.328	287.3
845.713	352.84
846.098	315.39
846.483	345.81
846.868	313.05
847.253	317.73
847.638	336.45
848.023	289.64
848.408	261.55
848.793	291.98
849.177	387.94
849.562	303.68
849.947	247.51
850.331	270.92
850.715	301.34
851.1	329.43
851.484	338.79
851.868	348.15
852.253	270.92
852.637	315.39
853.021	301.34
853.405	357.52
853.789	291.98
854.173	317.73
854.557	308.37
854.94	287.3
855.324	338.79
855.708	277.94
856.091	289.64
856.475	294.32
856.858	345.81
857.242	291.98
857.625	266.24
858.009	266.24
858.392	287.3
858.775	266.24
859.158	315.39
859.541	277.94
859.924	254.53
860.307	345.81
860.69	348.15
861.073	284.96
861.456	308.37
861.838	366.88
862.221	350.5
862.604	301.34
862.986	273.26
863.369	284.96
863.751	301.34
864.133	324.75
864.516	249.85
864.898	306.03
865.28	287.3
865.662	320.07
866.044	317.73
866.426	275.6
866.808	303.68
867.19	299
867.572	310.71
867.954	327.09
868.336	324.75
868.717	296.66
869.099	238.15
869.48	315.39
869.862	317.73
870.243	299
870.625	299
871.006	282.62
871.387	299
871.768	261.55
872.149	308.37
872.53	322.41
872.911	357.52
873.292	322.41
873.673	317.73
874.054	303.68
874.435	315.39
874.815	291.98
875.196	287.3
875.577	383.26
875.957	277.94
876.338	350.5
876.718	315.39
877.098	294.32
877.479	341.13
877.859	392.62
878.239	352.84
878.619	303.68
878.999	362.2
879.379	357.52
879.759	317.73
880.139	327.09
880.519	291.98
880.898	322.41
881.278	376.24
881.658	341.13
882.037	350.5
882.417	343.47
882.796	385.6
883.176	310.71
883.555	301.34
883.934	352.84
884.313	284.96
884.693	254.53
885.072	296.66
885.451	282.62
885.83	270.92
886.209	277.94
886.587	329.43
886.966	327.09
887.345	352.84
887.724	294.32
888.102	313.05
888.481	306.03
888.859	345.81
889.238	228.79
889.616	338.79
889.994	334.11
890.373	327.09
890.751	266.24
891.129	287.3
891.507	343.47
891.885	331.77
892.263	369.22
892.641	352.84
893.019	345.81
893.396	289.64
893.774	352.84
894.152	291.98
894.529	345.81
894.907	289.64
895.284	299
895.662	308.37
896.039	277.94
896.416	322.41
896.794	214.74
897.171	359.86
897.548	270.92
897.925	275.6
898.302	287.3
898.679	294.32
899.056	315.39
899.433	327.09
899.809	306.03
900.186	261.55
900.563	357.52
900.939	345.81
901.316	303.68
901.692	322.41
902.069	233.47
902.445	329.43
902.821	280.28
903.197	259.21
903.574	291.98
903.95	355.18
904.326	306.03
904.702	341.13
905.078	280.28
905.454	291.98
905.829	247.51
906.205	322.41
906.581	348.15
906.956	322.41
907.332	338.79
907.707	306.03
908.083	310.71
908.458	306.03
908.833	348.15
909.209	334.11
909.584	313.05
909.959	287.3
910.334	289.64
910.709	287.3
911.084	256.87
911.459	315.39
911.834	308.37
912.209	205.38
912.583	299
912.958	268.58
913.333	308.37
913.707	284.96
914.082	317.73
914.456	284.96
914.83	289.64
915.205	327.09
915.579	249.85
915.953	303.68
916.327	287.3
916.701	275.6
917.075	359.86
917.449	266.24
917.823	273.26
918.197	322.41
918.571	277.94
918.944	301.34
919.318	282.62
919.692	268.58
920.065	306.03
920.438	359.86
920.812	296.66
921.185	306.03
921.558	299
921.932	303.68
922.305	259.21
922.678	322.41
923.051	359.86
923.424	299
923.797	320.07
924.17	228.79
924.542	306.03
924.915	273.26
925.288	289.64
925.661	301.34
926.033	343.47
926.406	392.62
926.778	357.52
927.15	308.37
927.523	306.03
927.895	336.45
928.267	341.13
928.639	296.66
929.011	317.73
929.383	299
929.755	331.77
930.127	357.52
930.499	233.47
930.871	313.05
931.242	345.81
931.614	324.75
931.986	352.84
932.357	299
932.729	287.3
933.1	345.81
933.471	275.6
933.843	284.96
934.214	294.32
934.585	308.37
934.956	261.55
935.327	296.66
935.698	240.49
936.069	235.81
936.44	331.77
936.811	308.37
937.182	345.81
937.552	322.41
937.923	254.53
938.293	291.98
938.664	299
939.034	336.45
939.405	329.43
939.775	315.39
940.145	282.62
940.516	317.73
940.886	317.73
941.256	343.47
941.626	294.32
941.996	301.34
942.366	303.68
942.735	313.05
943.105	331.77
943.475	263.9
943.845	315.39
944.214	291.98
944.584	282.62
944.953	296.66
945.323	348.15
945.692	327.09
946.061	376.24
946.43	329.43
946.8	256.87
947.169	348.15
947.538	317.73
947.907	315.39
948.276	320.07
948.645	320.07
949.013	315.39
949.382	331.77
949.751	266.24
950.119	348.15
950.488	245.17
950.857	252.19
951.225	343.47
951.593	287.3
951.962	273.26
952.33	277.94
952.698	299
953.066	252.19
953.434	299
953.802	301.34
954.17	341.13
954.538	299
954.906	284.96
955.274	214.74
955.642	310.71
956.009	245.17
956.377	252.19
956.744	282.62
957.112	280.28
957.479	287.3
957.847	334.11
958.214	331.77
958.581	306.03
958.948	313.05
959.315	350.5
959.683	256.87
960.05	245.17
960.416	336.45
960.783	287.3
961.15	310.71
961.517	277.94
961.884	273.26
962.25	294.32
962.617	364.54
962.983	268.58
963.35	359.86
963.716	301.34
964.082	306.03
964.449	355.18
964.815	289.64
965.181	310.71
965.547	249.85
965.913	275.6
966.279	266.24
966.645	289.64
967.011	301.34
967.377	327.09
967.742	282.62
968.108	352.84
968.474	322.41
968.839	310.71
969.205	289.64
969.57	334.11
969.935	247.51
970.301	259.21
970.666	296.66
971.031	294.32
971.396	289.64
971.761	376.24
972.126	289.64
972.491	238.15
972.856	348.15
973.221	303.68
973.586	315.39
973.95	359.86
974.315	315.39
974.679	306.03
975.044	315.39
975.408	303.68
975.773	282.62
976.137	359.86
976.501	331.77
976.866	242.83
977.23	399.65
977.594	273.26
977.958	324.75
978.322	296.66
978.686	345.81
979.049	270.92
979.413	324.75
979.777	294.32
980.141	313.05
980.504	284.96
980.868	299
981.231	303.68
981.595	329.43
981.958	268.58
982.321	291.98
982.684	327.09
983.048	235.81
983.411	301.34
983.774	247.51
984.137	263.9
984.5	233.47
984.862	282.62
985.225	348.15
985.588	277.94
985.951	324.75
986.313	289.64
986.676	348.15
987.038	315.39
987.401	270.92
987.763	369.22
988.125	284.96
988.488	235.81
988.85	247.51
989.212	214.74
989.574	287.3
989.936	334.11
990.298	343.47
990.66	366.88
991.022	303.68
991.383	299
991.745	378.58
992.107	299
992.468	338.79
992.83	296.66
993.191	308.37
993.553	352.84
993.914	303.68
994.275	282.62
994.637	294.32
994.998	345.81
995.359	327.09
995.72	352.84
996.081	366.88
996.442	301.34
996.803	327.09
997.163	322.41
997.524	313.05
997.885	348.15
998.245	249.85
998.606	247.51
998.966	282.62
999.327	296.66
999.687	334.11
1000.047	228.79
1000.408	320.07
1000.768	254.53
1001.128	299
1001.488	266.24
1001.848	310.71
1002.208	385.6
1002.568	329.43
1002.927	228.79
1003.287	217.08
1003.647	338.79
1004.007	291.98
1004.366	254.53
1004.726	315.39
1005.085	306.03
1005.444	334.11
1005.804	357.52
1006.163	273.26
1006.522	261.55
1006.881	299
1007.24	308.37
1007.599	273.26
1007.958	277.94
1008.317	256.87
1008.676	210.06
1009.035	275.6
1009.393	315.39
1009.752	289.64
1010.111	263.9
1010.469	334.11
1010.828	259.21
1011.186	270.92
1011.544	299
1011.903	277.94
1012.261	299
1012.619	294.32
1012.977	294.32
1013.335	266.24
1013.693	313.05
1014.051	331.77
1014.409	352.84
1014.767	320.07
1015.124	320.07
1015.482	385.6
1015.84	287.3
1016.197	350.5
1016.555	287.3
1016.912	329.43
1017.269	291.98
1017.627	256.87
1017.984	287.3
1018.341	308.37
1018.698	306.03
1019.055	357.52
1019.412	315.39
1019.769	308.37
1020.126	280.28
1020.483	331.77
1020.84	310.71
1021.196	313.05
1021.553	261.55
1021.909	299
1022.266	320.07
1022.622	324.75
1022.979	306.03
1023.335	322.41
1023.691	284.96
1024.047	277.94
1024.404	294.32
1024.76	228.79
1025.116	306.03
1025.472	320.07
1025.827	378.58
1026.183	338.79
1026.539	291.98
1026.895	275.6
1027.25	324.75
1027.606	371.56
1027.961	235.81
1028.317	282.62
1028.672	235.81
1029.028	256.87
1029.383	275.6
1029.738	291.98
1030.093	324.75
1030.448	296.66
1030.803	352.84
1031.158	259.21
1031.513	291.98
1031.868	308.37
1032.223	289.64
1032.577	345.81
1032.932	233.47
1033.287	277.94
1033.641	373.9
1033.996	331.77
1034.35	299
1034.704	299
1035.059	247.51
1035.413	275.6
1035.767	275.6
1036.121	275.6
