Data from Al_FLMS009871__1186__16-40-38-582.txt Node

Date: Fri Mar 08 16:40:38 CST 2024
User: pe5414po
Spectrometer: FLMS00987
Trigger mode: 0
Integration Time (sec): 1.000000E-1
Scans to average: 1
Electric dark correction enabled: true
Nonlinearity correction enabled: false
Boxcar width: 0
XAxis mode: Wavelengths
Number of Pixels in Spectrum: 2048
>>>>>Begin Spectral Data<<<<<
188.938	-87.48
189.409	-87.48
189.879	-87.48
190.349	-71.09
190.819	-78.12
191.29	-92.16
191.76	-57.05
192.23	-94.5
192.7	-52.37
193.17	-68.75
193.64	-38.33
194.109	-17.26
194.579	-7.9
195.049	22.53
195.519	43.59
195.988	34.23
196.458	-5.56
196.927	3.8
197.397	120.83
197.866	118.49
198.336	90.4
198.805	116.15
199.274	242.54
199.744	207.43
200.213	202.75
200.682	249.56
201.151	270.62
201.62	254.24
202.089	261.26
202.558	254.24
203.027	254.24
203.495	226.15
203.964	247.22
204.433	291.69
204.902	261.26
205.37	354.88
205.839	308.07
206.307	345.52
206.776	359.56
207.244	305.73
207.712	329.14
208.181	277.65
208.649	343.18
209.117	326.8
209.585	282.33
210.053	308.07
210.521	305.73
210.989	216.79
211.457	249.56
211.925	326.8
212.393	226.15
212.861	296.37
213.328	256.58
213.796	333.82
214.264	263.6
214.731	275.31
215.199	305.73
215.666	289.35
216.133	240.2
216.601	256.58
217.068	326.8
217.535	263.6
218.003	305.73
218.47	315.09
218.937	294.03
219.404	268.28
219.871	261.26
220.338	244.88
220.805	226.15
221.271	265.94
221.738	244.88
222.205	310.41
222.671	312.75
223.138	322.12
223.605	279.99
224.071	233.18
224.538	270.62
225.004	256.58
225.47	200.41
225.937	268.28
226.403	221.47
226.869	287.01
227.335	256.58
227.801	308.07
228.267	249.56
228.733	282.33
229.199	301.05
229.665	322.12
230.131	310.41
230.597	254.24
231.062	317.44
231.528	270.62
231.994	228.49
232.459	284.67
232.925	312.75
233.39	301.05
233.856	305.73
234.321	214.45
234.786	317.44
235.252	223.81
235.717	279.99
236.182	282.33
236.647	230.84
237.112	305.73
237.577	287.01
238.042	263.6
238.507	275.31
238.972	301.05
239.436	315.09
239.901	287.01
240.366	275.31
240.83	275.31
241.295	279.99
241.76	277.65
242.224	319.78
242.688	279.99
243.153	317.44
243.617	272.96
244.081	287.01
244.545	289.35
245.01	305.73
245.474	329.14
245.938	331.48
246.402	230.84
246.866	291.69
247.33	282.33
247.793	261.26
248.257	308.07
248.721	249.56
249.185	279.99
249.648	279.99
250.112	305.73
250.575	310.41
251.039	277.65
251.502	319.78
251.965	277.65
252.429	254.24
252.892	303.39
253.355	301.05
253.818	256.58
254.281	254.24
254.744	303.39
255.207	289.35
255.67	289.35
256.133	289.35
256.596	359.56
257.059	265.94
257.522	282.33
257.984	301.05
258.447	287.01
258.909	336.16
259.372	284.67
259.834	237.86
260.297	322.12
260.759	277.65
261.221	338.5
261.684	279.99
262.146	317.44
262.608	298.71
263.07	338.5
263.532	298.71
263.994	272.96
264.456	301.05
264.918	254.24
265.38	261.26
265.842	315.09
266.303	326.8
266.765	298.71
267.227	298.71
267.688	343.18
268.15	310.41
268.611	333.82
269.072	352.54
269.534	254.24
269.995	305.73
270.456	336.16
270.918	333.82
271.379	235.52
271.84	336.16
272.301	319.78
272.762	296.37
273.223	305.73
273.684	284.67
274.144	258.92
274.605	294.03
275.066	296.37
275.527	221.47
275.987	270.62
276.448	296.37
276.908	331.48
277.369	310.41
277.829	319.78
278.289	268.28
278.75	301.05
279.21	294.03
279.67	294.03
280.13	350.2
280.59	282.33
281.05	279.99
281.51	289.35
281.97	294.03
282.43	279.99
282.89	326.8
283.35	338.5
283.809	263.6
284.269	303.39
284.729	268.28
285.188	296.37
285.648	294.03
286.107	392.33
286.567	312.75
287.026	315.09
287.485	296.37
287.944	364.25
288.404	305.73
288.863	312.75
289.322	310.41
289.781	287.01
290.24	291.69
290.699	301.05
291.158	261.26
291.616	289.35
292.075	338.5
292.534	359.56
292.992	265.94
293.451	272.96
293.91	287.01
294.368	298.71
294.827	317.44
295.285	298.71
295.743	294.03
296.202	282.33
296.66	315.09
297.118	324.46
297.576	357.22
298.034	354.88
298.492	303.39
298.95	352.54
299.408	305.73
299.866	265.94
300.324	347.86
300.781	322.12
301.239	310.41
301.697	324.46
302.154	322.12
302.612	308.07
303.069	308.07
303.527	303.39
303.984	296.37
304.441	289.35
304.899	324.46
305.356	310.41
305.813	298.71
306.27	287.01
306.727	263.6
307.184	333.82
307.641	322.12
308.098	291.69
308.555	333.82
309.012	326.8
309.468	357.22
309.925	312.75
310.382	326.8
310.838	315.09
311.295	422.76
311.751	336.16
312.208	303.39
312.664	287.01
313.12	272.96
313.577	368.93
314.033	319.78
314.489	284.67
314.945	277.65
315.401	373.61
315.857	350.2
316.313	247.22
316.769	284.67
317.225	291.69
317.681	324.46
318.136	303.39
318.592	322.12
319.048	298.71
319.503	303.39
319.959	324.46
320.414	303.39
320.869	298.71
321.325	282.33
321.78	294.03
322.235	305.73
322.691	298.71
323.146	352.54
323.601	294.03
324.056	382.97
324.511	329.14
324.966	305.73
325.421	333.82
325.875	284.67
326.33	240.2
326.785	298.71
327.24	357.22
327.694	305.73
328.149	294.03
328.603	338.5
329.058	385.31
329.512	284.67
329.966	296.37
330.421	345.52
330.875	326.8
331.329	345.52
331.783	284.67
332.237	375.95
332.691	343.18
333.145	277.65
333.599	371.27
334.053	294.03
334.507	326.8
334.96	324.46
335.414	301.05
335.868	301.05
336.321	247.22
336.775	301.05
337.228	310.41
337.682	237.86
338.135	373.61
338.588	312.75
339.042	298.71
339.495	350.2
339.948	336.16
340.401	277.65
340.854	308.07
341.307	301.05
341.76	345.52
342.213	324.46
342.666	329.14
343.119	352.54
343.571	298.71
344.024	333.82
344.477	347.86
344.929	350.2
345.382	319.78
345.834	343.18
346.287	305.73
346.739	322.12
347.191	368.93
347.644	303.39
348.096	352.54
348.548	272.96
349	308.07
349.452	326.8
349.904	279.99
350.356	375.95
350.808	326.8
351.26	343.18
351.711	310.41
352.163	301.05
352.615	256.58
353.066	291.69
353.518	329.14
353.969	326.8
354.421	345.52
354.872	298.71
355.324	326.8
355.775	308.07
356.226	324.46
356.677	310.41
357.128	305.73
357.579	361.91
358.03	258.92
358.481	291.69
358.932	308.07
359.383	291.69
359.834	305.73
360.285	343.18
360.735	331.48
361.186	310.41
361.637	350.2
362.087	277.65
362.538	324.46
362.988	359.56
363.438	350.2
363.889	308.07
364.339	315.09
364.789	315.09
365.239	331.48
365.689	387.65
366.139	272.96
366.589	268.28
367.039	310.41
367.489	350.2
367.939	317.44
368.389	345.52
368.839	282.33
369.288	308.07
369.738	336.16
370.187	319.78
370.637	329.14
371.086	289.35
371.536	287.01
371.985	296.37
372.434	298.71
372.884	312.75
373.333	315.09
373.782	357.22
374.231	343.18
374.68	343.18
375.129	308.07
375.578	343.18
376.027	354.88
376.475	221.47
376.924	375.95
377.373	291.69
377.822	319.78
378.27	324.46
378.719	272.96
379.167	359.56
379.616	378.29
380.064	275.31
380.512	352.54
380.961	284.67
381.409	382.97
381.857	392.33
382.305	284.67
382.753	315.09
383.201	378.29
383.649	352.54
384.097	333.82
384.545	340.84
384.992	361.91
385.44	303.39
385.888	347.86
386.335	310.41
386.783	336.16
387.231	315.09
387.678	345.52
388.125	336.16
388.573	331.48
389.02	338.5
389.467	296.37
389.914	329.14
390.362	333.82
390.809	397.01
391.256	336.16
391.703	357.22
392.15	312.75
392.596	319.78
393.043	317.44
393.49	333.82
393.937	368.93
394.383	237.86
394.83	322.12
395.276	333.82
395.723	282.33
396.169	289.35
396.616	308.07
397.062	382.97
397.508	343.18
397.954	275.31
398.401	343.18
398.847	333.82
399.293	413.4
399.739	310.41
400.185	270.62
400.631	305.73
401.076	343.18
401.522	345.52
401.968	368.93
402.414	352.54
402.859	287.01
403.305	277.65
403.75	244.88
404.196	233.18
404.641	333.82
405.086	287.01
405.532	375.95
405.977	354.88
406.422	319.78
406.867	324.46
407.312	319.78
407.757	373.61
408.202	338.5
408.647	350.2
409.092	347.86
409.537	308.07
409.982	301.05
410.426	336.16
410.871	345.52
411.316	406.38
411.76	305.73
412.205	275.31
412.649	263.6
413.093	361.91
413.538	298.71
413.982	272.96
414.426	331.48
414.87	308.07
415.314	361.91
415.758	329.14
416.202	308.07
416.646	289.35
417.09	315.09
417.534	333.82
417.978	308.07
418.421	338.5
418.865	352.54
419.309	343.18
419.752	310.41
420.196	343.18
420.639	294.03
421.083	338.5
421.526	301.05
421.969	345.52
422.412	291.69
422.856	294.03
423.299	317.44
423.742	312.75
424.185	380.63
424.628	368.93
425.071	308.07
425.513	319.78
425.956	294.03
426.399	413.4
426.842	317.44
427.284	319.78
427.727	368.93
428.169	326.8
428.612	294.03
429.054	282.33
429.497	368.93
429.939	378.29
430.381	389.99
430.823	331.48
431.265	411.06
431.707	364.25
432.149	368.93
432.591	282.33
433.033	350.2
433.475	301.05
433.917	361.91
434.359	308.07
434.8	373.61
435.242	308.07
435.684	350.2
436.125	333.82
436.567	389.99
437.008	357.22
437.449	310.41
437.891	322.12
438.332	394.67
438.773	329.14
439.214	364.25
439.656	350.2
440.097	308.07
440.538	312.75
440.978	345.52
441.419	329.14
441.86	387.65
442.301	324.46
442.742	401.69
443.182	347.86
443.623	336.16
444.063	392.33
444.504	315.09
444.944	319.78
445.385	270.62
445.825	347.86
446.265	301.05
446.706	329.14
447.146	308.07
447.586	324.46
448.026	331.48
448.466	387.65
448.906	354.88
449.346	338.5
449.786	333.82
450.225	308.07
450.665	382.97
451.105	315.09
451.544	350.2
451.984	310.41
452.424	352.54
452.863	329.14
453.302	282.33
453.742	284.67
454.181	317.44
454.62	277.65
455.059	294.03
455.499	326.8
455.938	294.03
456.377	296.37
456.816	305.73
457.254	392.33
457.693	347.86
458.132	270.62
458.571	291.69
459.01	347.86
459.448	352.54
459.887	368.93
460.325	324.46
460.764	350.2
461.202	270.62
461.641	343.18
462.079	387.65
462.517	291.69
462.955	303.39
463.393	296.37
463.832	343.18
464.27	354.88
464.708	275.31
465.145	359.56
465.583	352.54
466.021	305.73
466.459	301.05
466.897	308.07
467.334	354.88
467.772	357.22
468.209	315.09
468.647	350.2
469.084	310.41
469.522	375.95
469.959	279.99
470.396	352.54
470.833	364.25
471.271	397.01
471.708	322.12
472.145	333.82
472.582	380.63
473.019	343.18
473.456	354.88
473.892	326.8
474.329	315.09
474.766	333.82
475.202	329.14
475.639	305.73
476.076	329.14
476.512	394.67
476.949	338.5
477.385	387.65
477.821	329.14
478.258	336.16
478.694	284.67
479.13	279.99
479.566	336.16
480.002	345.52
480.438	343.18
480.874	326.8
481.31	277.65
481.746	263.6
482.181	305.73
482.617	305.73
483.053	347.86
483.488	263.6
483.924	294.03
484.36	338.5
484.795	296.37
485.23	331.48
485.666	373.61
486.101	340.84
486.536	345.52
486.971	357.22
487.407	331.48
487.842	305.73
488.277	322.12
488.712	389.99
489.146	322.12
489.581	317.44
490.016	385.31
490.451	331.48
490.885	329.14
491.32	326.8
491.755	329.14
492.189	312.75
492.624	322.12
493.058	364.25
493.492	380.63
493.927	340.84
494.361	345.52
494.795	312.75
495.229	343.18
495.663	352.54
496.097	354.88
496.531	361.91
496.965	368.93
497.399	338.5
497.833	357.22
498.266	333.82
498.7	315.09
499.134	364.25
499.567	345.52
500.001	340.84
500.434	343.18
500.868	333.82
501.301	310.41
501.734	301.05
502.168	289.35
502.601	315.09
503.034	287.01
503.467	340.84
503.9	322.12
504.333	296.37
504.766	268.28
505.199	254.24
505.632	270.62
506.064	387.65
506.497	287.01
506.93	371.27
507.362	270.62
507.795	352.54
508.227	373.61
508.66	305.73
509.092	347.86
509.524	315.09
509.956	263.6
510.389	347.86
510.821	319.78
511.253	298.71
511.685	357.22
512.117	373.61
512.549	279.99
512.981	317.44
513.412	333.82
513.844	294.03
514.276	305.73
514.707	338.5
515.139	357.22
515.571	352.54
516.002	382.97
516.433	244.88
516.865	308.07
517.296	256.58
517.727	272.96
518.159	319.78
518.59	401.69
519.021	385.31
519.452	364.25
519.883	322.12
520.314	345.52
520.744	343.18
521.175	425.1
521.606	333.82
522.037	331.48
522.467	380.63
522.898	385.31
523.328	317.44
523.759	319.78
524.189	345.52
524.62	329.14
525.05	331.48
525.48	268.28
525.91	322.12
526.341	357.22
526.771	317.44
527.201	340.84
527.631	296.37
528.061	270.62
528.49	340.84
528.92	305.73
529.35	382.97
529.78	371.27
530.209	338.5
530.639	340.84
531.068	282.33
531.498	343.18
531.927	333.82
532.357	317.44
532.786	364.25
533.215	345.52
533.644	380.63
534.074	315.09
534.503	338.5
534.932	413.4
535.361	329.14
535.79	338.5
536.218	394.67
536.647	387.65
537.076	392.33
537.505	378.29
537.933	340.84
538.362	359.56
538.79	294.03
539.219	315.09
539.647	289.35
540.076	326.8
540.504	336.16
540.932	326.8
541.36	315.09
541.788	333.82
542.217	338.5
542.645	329.14
543.073	319.78
543.5	329.14
543.928	305.73
544.356	289.35
544.784	354.88
545.211	265.94
545.639	303.39
546.067	282.33
546.494	371.27
546.922	319.78
547.349	265.94
547.776	336.16
548.204	340.84
548.631	380.63
549.058	308.07
549.485	326.8
549.912	310.41
550.339	284.67
550.766	329.14
551.193	319.78
551.62	371.27
552.047	308.07
552.474	289.35
552.9	387.65
553.327	289.35
553.754	333.82
554.18	296.37
554.607	352.54
555.033	317.44
555.459	287.01
555.886	305.73
556.312	319.78
556.738	329.14
557.164	329.14
557.59	319.78
558.016	352.54
558.442	378.29
558.868	308.07
559.294	308.07
559.72	326.8
560.145	343.18
560.571	368.93
560.997	380.63
561.422	324.46
561.848	324.46
562.273	305.73
562.699	303.39
563.124	338.5
563.549	305.73
563.974	310.41
564.4	319.78
564.825	312.75
565.25	294.03
565.675	296.37
566.1	382.97
566.525	279.99
566.95	340.84
567.374	336.16
567.799	347.86
568.224	305.73
568.648	329.14
569.073	289.35
569.497	357.22
569.922	289.35
570.346	310.41
570.771	322.12
571.195	324.46
571.619	406.38
572.043	371.27
572.467	345.52
572.891	275.31
573.315	357.22
573.739	359.56
574.163	287.01
574.587	366.59
575.011	364.25
575.435	364.25
575.858	364.25
576.282	296.37
576.705	340.84
577.129	343.18
577.552	324.46
577.976	361.91
578.399	324.46
578.822	317.44
579.245	333.82
579.669	389.99
580.092	319.78
580.515	366.59
580.938	357.22
581.361	258.92
581.784	301.05
582.206	284.67
582.629	289.35
583.052	279.99
583.474	315.09
583.897	322.12
584.32	336.16
584.742	366.59
585.165	333.82
585.587	291.69
586.009	354.88
586.431	357.22
586.854	350.2
587.276	315.09
587.698	340.84
588.12	422.76
588.542	350.2
588.964	303.39
589.386	343.18
589.807	382.97
590.229	298.71
590.651	298.71
591.073	322.12
591.494	291.69
591.916	272.96
592.337	333.82
592.759	380.63
593.18	289.35
593.601	359.56
594.022	298.71
594.444	277.65
594.865	305.73
595.286	315.09
595.707	308.07
596.128	385.31
596.549	282.33
596.97	394.67
597.39	366.59
597.811	343.18
598.232	350.2
598.652	242.54
599.073	317.44
599.494	317.44
599.914	329.14
600.334	270.62
600.755	333.82
601.175	399.35
601.595	361.91
602.015	354.88
602.436	333.82
602.856	464.89
603.276	301.05
603.696	282.33
604.115	296.37
604.535	282.33
604.955	319.78
605.375	336.16
605.794	279.99
606.214	324.46
606.634	312.75
607.053	354.88
607.473	310.41
607.892	343.18
608.311	319.78
608.731	326.8
609.15	333.82
609.569	331.48
609.988	310.41
610.407	317.44
610.826	319.78
611.245	282.33
611.664	331.48
612.083	350.2
612.501	333.82
612.92	336.16
613.339	322.12
613.757	331.48
614.176	322.12
614.594	319.78
615.013	315.09
615.431	317.44
615.85	279.99
616.268	322.12
616.686	345.52
617.104	352.54
617.522	277.65
617.94	315.09
618.358	294.03
618.776	319.78
619.194	333.82
619.612	310.41
620.03	310.41
620.447	275.31
620.865	345.52
621.282	254.24
621.7	345.52
622.117	336.16
622.535	350.2
622.952	305.73
623.369	298.71
623.787	310.41
624.204	315.09
624.621	289.35
625.038	268.28
625.455	352.54
625.872	303.39
626.289	319.78
626.706	343.18
627.123	338.5
627.539	324.46
627.956	364.25
628.373	359.56
628.789	347.86
629.206	368.93
629.622	371.27
630.038	287.01
630.455	350.2
630.871	308.07
631.287	275.31
631.703	282.33
632.12	291.69
632.536	359.56
632.952	301.05
633.368	312.75
633.783	322.12
634.199	382.97
634.615	303.39
635.031	289.35
635.446	279.99
635.862	331.48
636.277	282.33
636.693	279.99
637.108	310.41
637.524	357.22
637.939	251.9
638.354	261.26
638.77	352.54
639.185	336.16
639.6	275.31
640.015	291.69
640.43	296.37
640.845	329.14
641.259	352.54
641.674	350.2
642.089	237.86
642.504	272.96
642.918	284.67
643.333	343.18
643.747	322.12
644.162	364.25
644.576	378.29
644.991	303.39
645.405	371.27
645.819	275.31
646.233	329.14
646.647	350.2
647.061	331.48
647.475	343.18
647.889	308.07
648.303	303.39
648.717	382.97
649.131	373.61
649.545	272.96
649.958	329.14
650.372	326.8
650.785	277.65
651.199	310.41
651.612	354.88
652.026	368.93
652.439	343.18
652.852	254.24
653.266	279.99
653.679	371.27
654.092	284.67
654.505	347.86
654.918	322.12
655.331	291.69
655.744	361.91
656.156	284.67
656.569	382.97
656.982	364.25
657.394	350.2
657.807	366.59
658.22	340.84
658.632	263.6
659.044	343.18
659.457	237.86
659.869	261.26
660.281	312.75
660.693	359.56
661.106	315.09
661.518	326.8
661.93	352.54
662.342	326.8
662.754	425.1
663.165	357.22
663.577	333.82
663.989	258.92
664.401	291.69
664.812	308.07
665.224	340.84
665.635	305.73
666.047	338.5
666.458	387.65
666.869	333.82
667.281	298.71
667.692	329.14
668.103	336.16
668.514	387.65
668.925	352.54
669.336	305.73
669.747	322.12
670.158	310.41
670.569	373.61
670.979	315.09
671.39	263.6
671.801	336.16
672.211	364.25
672.622	301.05
673.032	408.72
673.443	303.39
673.853	319.78
674.263	333.82
674.674	326.8
675.084	305.73
675.494	378.29
675.904	331.48
676.314	324.46
676.724	375.95
677.134	366.59
677.544	298.71
677.953	308.07
678.363	329.14
678.773	434.46
679.182	354.88
679.592	272.96
680.001	305.73
680.411	331.48
680.82	378.29
681.23	329.14
681.639	312.75
682.048	291.69
682.457	345.52
682.866	265.94
683.275	312.75
683.684	326.8
684.093	298.71
684.502	343.18
684.911	317.44
685.32	350.2
685.728	366.59
686.137	310.41
686.546	310.41
686.954	333.82
687.363	368.93
687.771	336.16
688.179	350.2
688.588	368.93
688.996	343.18
689.404	308.07
689.812	216.79
690.22	354.88
690.628	322.12
691.036	329.14
691.444	305.73
691.852	359.56
692.26	310.41
692.667	303.39
693.075	289.35
693.483	389.99
693.89	275.31
694.298	308.07
694.705	317.44
695.112	361.91
695.52	347.86
695.927	317.44
696.334	329.14
696.741	352.54
697.148	361.91
697.555	303.39
697.962	319.78
698.369	354.88
698.776	310.41
699.183	394.67
699.59	373.61
699.996	359.56
700.403	254.24
700.81	275.31
701.216	378.29
701.623	352.54
702.029	345.52
702.435	345.52
702.842	350.2
703.248	256.58
703.654	301.05
704.06	352.54
704.466	305.73
704.872	340.84
705.278	364.25
705.684	279.99
706.09	291.69
706.496	282.33
706.901	308.07
707.307	319.78
707.712	329.14
708.118	303.39
708.523	303.39
708.929	329.14
709.334	247.22
709.74	420.42
710.145	322.12
710.55	336.16
710.955	289.35
711.36	336.16
711.765	343.18
712.17	326.8
712.575	343.18
712.98	801.93
713.385	371.27
713.789	282.33
714.194	329.14
714.599	385.31
715.003	319.78
715.408	315.09
715.812	322.12
716.217	303.39
716.621	359.56
717.025	326.8
717.429	244.88
717.833	350.2
718.238	312.75
718.642	317.44
719.046	319.78
719.449	298.71
719.853	303.39
720.257	401.69
720.661	329.14
721.065	312.75
721.468	310.41
721.872	312.75
722.275	291.69
722.679	373.61
723.082	373.61
723.485	336.16
723.889	322.12
724.292	354.88
724.695	310.41
725.098	366.59
725.501	343.18
725.904	317.44
726.307	319.78
726.71	350.2
727.113	289.35
727.516	315.09
727.918	319.78
728.321	326.8
728.724	270.62
729.126	315.09
729.529	258.92
729.931	331.48
730.333	324.46
730.736	310.41
731.138	310.41
731.54	324.46
731.942	345.52
732.344	287.01
732.746	289.35
733.148	340.84
733.55	315.09
733.952	375.95
734.354	282.33
734.756	352.54
735.157	322.12
735.559	277.65
735.96	312.75
736.362	326.8
736.763	338.5
737.165	331.48
737.566	329.14
737.967	251.9
738.368	301.05
738.77	326.8
739.171	284.67
739.572	251.9
739.973	338.5
740.374	322.12
740.774	352.54
741.175	354.88
741.576	329.14
741.977	354.88
742.377	331.48
742.778	389.99
743.178	319.78
743.579	294.03
743.979	366.59
744.379	364.25
744.78	268.28
745.18	336.16
745.58	392.33
745.98	322.12
746.38	324.46
746.78	305.73
747.18	338.5
747.58	324.46
747.98	373.61
748.38	343.18
748.779	333.82
749.179	265.94
749.578	272.96
749.978	315.09
750.377	366.59
750.777	301.05
751.176	354.88
751.575	345.52
751.975	296.37
752.374	331.48
752.773	279.99
753.172	324.46
753.571	324.46
753.97	277.65
754.369	284.67
754.768	296.37
755.166	310.41
755.565	375.95
755.964	272.96
756.362	359.56
756.761	310.41
757.159	382.97
757.558	322.12
757.956	308.07
758.354	308.07
758.753	303.39
759.151	272.96
759.549	312.75
759.947	291.69
760.345	268.28
760.743	298.71
761.141	336.16
761.539	312.75
761.936	322.12
762.334	380.63
762.732	319.78
763.129	287.01
763.527	350.2
763.924	326.8
764.322	347.86
764.719	308.07
765.117	338.5
765.514	359.56
765.911	324.46
766.308	415.74
766.705	324.46
767.102	350.2
767.499	378.29
767.896	324.46
768.293	364.25
768.69	385.31
769.086	289.35
769.483	336.16
769.88	333.82
770.276	315.09
770.673	336.16
771.069	375.95
771.466	282.33
771.862	361.91
772.258	296.37
772.654	315.09
773.05	308.07
773.447	289.35
773.843	324.46
774.239	329.14
774.634	301.05
775.03	272.96
775.426	361.91
775.822	315.09
776.218	368.93
776.613	322.12
777.009	279.99
777.404	263.6
777.8	301.05
778.195	284.67
778.59	298.71
778.986	282.33
779.381	294.03
779.776	298.71
780.171	279.99
780.566	319.78
780.961	251.9
781.356	336.16
781.751	310.41
782.146	282.33
782.54	312.75
782.935	296.37
783.33	305.73
783.724	317.44
784.119	289.35
784.513	326.8
784.908	282.33
785.302	296.37
785.696	329.14
786.09	301.05
786.485	319.78
786.879	308.07
787.273	380.63
787.667	303.39
788.061	331.48
788.454	275.31
788.848	324.46
789.242	319.78
789.636	303.39
790.029	284.67
790.423	350.2
790.816	315.09
791.21	261.26
791.603	354.88
791.997	364.25
792.39	298.71
792.783	291.69
793.176	338.5
793.569	352.54
793.962	263.6
794.355	240.2
794.748	303.39
795.141	279.99
795.534	287.01
795.927	336.16
796.319	375.95
796.712	298.71
797.105	324.46
797.497	324.46
797.89	291.69
798.282	312.75
798.674	343.18
799.067	366.59
799.459	371.27
799.851	317.44
800.243	326.8
800.635	338.5
801.027	397.01
801.419	352.54
801.811	305.73
802.203	319.78
802.594	340.84
802.986	382.97
803.378	371.27
803.769	277.65
804.161	340.84
804.552	317.44
804.944	333.82
805.335	366.59
805.726	310.41
806.118	345.52
806.509	287.01
806.9	333.82
807.291	322.12
807.682	322.12
808.073	258.92
808.464	263.6
808.855	371.27
809.245	326.8
809.636	308.07
810.027	357.22
810.417	345.52
810.808	301.05
811.198	324.46
811.589	347.86
811.979	317.44
812.369	352.54
812.759	270.62
813.15	310.41
813.54	303.39
813.93	385.31
814.32	343.18
814.71	338.5
815.1	298.71
815.489	298.71
815.879	298.71
816.269	333.82
816.658	387.65
817.048	338.5
817.438	343.18
817.827	338.5
818.216	258.92
818.606	270.62
818.995	303.39
819.384	352.54
819.773	270.62
820.163	268.28
820.552	315.09
820.941	350.2
821.33	277.65
821.718	333.82
822.107	258.92
822.496	315.09
822.885	345.52
823.273	357.22
823.662	333.82
824.05	375.95
824.439	343.18
824.827	329.14
825.216	308.07
825.604	305.73
825.992	340.84
826.38	375.95
826.768	308.07
827.156	272.96
827.544	404.03
827.932	331.48
828.32	294.03
828.708	277.65
829.096	350.2
829.483	354.88
829.871	303.39
830.259	322.12
830.646	361.91
831.034	331.48
831.421	375.95
831.808	336.16
832.196	312.75
832.583	333.82
832.97	298.71
833.357	289.35
833.744	343.18
834.131	312.75
834.518	244.88
834.905	315.09
835.292	254.24
835.678	366.59
836.065	312.75
836.452	373.61
836.838	319.78
837.225	251.9
837.611	303.39
837.998	326.8
838.384	333.82
838.77	294.03
839.157	291.69
839.543	434.46
839.929	301.05
840.315	254.24
840.701	359.56
841.087	308.07
841.473	368.93
841.858	298.71
842.244	331.48
842.63	261.26
843.015	315.09
843.401	668.52
843.787	291.69
844.172	256.58
844.557	333.82
844.943	343.18
845.328	368.93
845.713	326.8
846.098	298.71
846.483	399.35
846.868	338.5
847.253	378.29
847.638	305.73
848.023	380.63
848.408	263.6
848.793	368.93
849.177	275.31
849.562	315.09
849.947	301.05
850.331	317.44
850.715	364.25
851.1	317.44
851.484	272.96
851.868	294.03
852.253	324.46
852.637	277.65
853.021	258.92
853.405	364.25
853.789	387.65
854.173	347.86
854.557	319.78
854.94	324.46
855.324	324.46
855.708	289.35
856.091	312.75
856.475	392.33
856.858	347.86
857.242	343.18
857.625	305.73
858.009	326.8
858.392	301.05
858.775	326.8
859.158	338.5
859.541	277.65
859.924	324.46
860.307	289.35
860.69	301.05
861.073	279.99
861.456	258.92
861.838	310.41
862.221	324.46
862.604	279.99
862.986	305.73
863.369	315.09
863.751	345.52
864.133	361.91
864.516	333.82
864.898	347.86
865.28	343.18
865.662	268.28
866.044	282.33
866.426	268.28
866.808	279.99
867.19	319.78
867.572	296.37
867.954	279.99
868.336	272.96
868.717	277.65
869.099	326.8
869.48	301.05
869.862	385.31
870.243	350.2
870.625	357.22
871.006	329.14
871.387	298.71
871.768	275.31
872.149	265.94
872.53	275.31
872.911	331.48
873.292	343.18
873.673	265.94
874.054	284.67
874.435	331.48
874.815	294.03
875.196	301.05
875.577	284.67
875.957	294.03
876.338	312.75
876.718	294.03
877.098	340.84
877.479	322.12
877.859	303.39
878.239	261.26
878.619	242.54
878.999	284.67
879.379	359.56
879.759	242.54
880.139	357.22
880.519	310.41
880.898	364.25
881.278	322.12
881.658	249.56
882.037	340.84
882.417	359.56
882.796	380.63
883.176	275.31
883.555	338.5
883.934	294.03
884.313	359.56
884.693	329.14
885.072	312.75
885.451	294.03
885.83	312.75
886.209	294.03
886.587	401.69
886.966	308.07
887.345	331.48
887.724	308.07
888.102	275.31
888.481	319.78
888.859	291.69
889.238	331.48
889.616	282.33
889.994	345.52
890.373	298.71
890.751	331.48
891.129	265.94
891.507	294.03
891.885	338.5
892.263	305.73
892.641	247.22
893.019	340.84
893.396	312.75
893.774	256.58
894.152	357.22
894.529	322.12
894.907	289.35
895.284	354.88
895.662	397.01
896.039	340.84
896.416	308.07
896.794	329.14
897.171	305.73
897.548	284.67
897.925	312.75
898.302	324.46
898.679	354.88
899.056	338.5
899.433	326.8
899.809	298.71
900.186	357.22
900.563	324.46
900.939	275.31
901.316	329.14
901.692	287.01
902.069	368.93
902.445	319.78
902.821	275.31
903.197	308.07
903.574	305.73
903.95	331.48
904.326	289.35
904.702	397.01
905.078	263.6
905.454	343.18
905.829	354.88
906.205	282.33
906.581	284.67
906.956	336.16
907.332	375.95
907.707	319.78
908.083	312.75
908.458	284.67
908.833	272.96
909.209	270.62
909.584	387.65
909.959	294.03
910.334	303.39
910.709	312.75
911.084	371.27
911.459	392.33
911.834	345.52
912.209	340.84
912.583	340.84
912.958	296.37
913.333	291.69
913.707	291.69
914.082	317.44
914.456	368.93
914.83	380.63
915.205	340.84
915.579	312.75
915.953	272.96
916.327	298.71
916.701	310.41
917.075	312.75
917.449	289.35
917.823	350.2
918.197	347.86
918.571	308.07
918.944	275.31
919.318	296.37
919.692	373.61
920.065	298.71
920.438	371.27
920.812	298.71
921.185	310.41
921.558	347.86
921.932	319.78
922.305	319.78
922.678	319.78
923.051	251.9
923.424	289.35
923.797	350.2
924.17	317.44
924.542	279.99
924.915	394.67
925.288	291.69
925.661	368.93
926.033	310.41
926.406	338.5
926.778	359.56
927.15	322.12
927.523	308.07
927.895	247.22
928.267	345.52
928.639	331.48
929.011	312.75
929.383	361.91
929.755	270.62
930.127	277.65
930.499	275.31
930.871	312.75
931.242	296.37
931.614	305.73
931.986	329.14
932.357	294.03
932.729	275.31
933.1	357.22
933.471	277.65
933.843	298.71
934.214	331.48
934.585	359.56
934.956	312.75
935.327	347.86
935.698	324.46
936.069	312.75
936.44	382.97
936.811	364.25
937.182	340.84
937.552	310.41
937.923	308.07
938.293	305.73
938.664	315.09
939.034	308.07
939.405	294.03
939.775	343.18
940.145	357.22
940.516	305.73
940.886	249.56
941.256	368.93
941.626	315.09
941.996	289.35
942.366	319.78
942.735	352.54
943.105	354.88
943.475	272.96
943.845	371.27
944.214	415.74
944.584	352.54
944.953	310.41
945.323	303.39
945.692	296.37
946.061	322.12
946.43	287.01
946.8	298.71
947.169	284.67
947.538	249.56
947.907	284.67
948.276	343.18
948.645	324.46
949.013	312.75
949.382	310.41
949.751	322.12
950.119	291.69
950.488	301.05
950.857	359.56
951.225	397.01
951.593	312.75
951.962	265.94
952.33	336.16
952.698	233.18
953.066	261.26
953.434	359.56
953.802	294.03
954.17	310.41
954.538	371.27
954.906	347.86
955.274	275.31
955.642	322.12
956.009	308.07
956.377	361.91
956.744	294.03
957.112	322.12
957.479	270.62
957.847	408.72
958.214	329.14
958.581	378.29
958.948	265.94
959.315	310.41
959.683	338.5
960.05	303.39
960.416	298.71
960.783	308.07
961.15	279.99
961.517	382.97
961.884	289.35
962.25	287.01
962.617	343.18
962.983	338.5
963.35	301.05
963.716	343.18
964.082	352.54
964.449	305.73
964.815	368.93
965.181	317.44
965.547	235.52
965.913	277.65
966.279	329.14
966.645	317.44
967.011	343.18
967.377	284.67
967.742	282.33
968.108	256.58
968.474	324.46
968.839	333.82
969.205	326.8
969.57	331.48
969.935	294.03
970.301	310.41
970.666	329.14
971.031	352.54
971.396	317.44
971.761	294.03
972.126	308.07
972.491	317.44
972.856	343.18
973.221	357.22
973.586	289.35
973.95	315.09
974.315	249.56
974.679	287.01
975.044	303.39
975.408	366.59
975.773	343.18
976.137	315.09
976.501	343.18
976.866	298.71
977.23	298.71
977.594	333.82
977.958	361.91
978.322	380.63
978.686	319.78
979.049	333.82
979.413	315.09
979.777	301.05
980.141	291.69
980.504	312.75
980.868	277.65
981.231	324.46
981.595	340.84
981.958	303.39
982.321	270.62
982.684	272.96
983.048	315.09
983.411	298.71
983.774	275.31
984.137	296.37
984.5	308.07
984.862	263.6
985.225	254.24
985.588	294.03
985.951	347.86
986.313	282.33
986.676	336.16
987.038	359.56
987.401	275.31
987.763	294.03
988.125	261.26
988.488	240.2
988.85	336.16
989.212	317.44
989.574	284.67
989.936	287.01
990.298	272.96
990.66	310.41
991.022	305.73
991.383	303.39
991.745	319.78
992.107	294.03
992.468	303.39
992.83	282.33
993.191	373.61
993.553	298.71
993.914	275.31
994.275	294.03
994.637	298.71
994.998	329.14
995.359	329.14
995.72	345.52
996.081	289.35
996.442	296.37
996.803	336.16
997.163	294.03
997.524	287.01
997.885	244.88
998.245	343.18
998.606	357.22
998.966	256.58
999.327	301.05
999.687	340.84
1000.047	305.73
1000.408	294.03
1000.768	312.75
1001.128	317.44
1001.488	251.9
1001.848	226.15
1002.208	270.62
1002.568	322.12
1002.927	301.05
1003.287	301.05
1003.647	359.56
1004.007	324.46
1004.366	336.16
1004.726	294.03
1005.085	308.07
1005.444	284.67
1005.804	343.18
1006.163	296.37
1006.522	354.88
1006.881	291.69
1007.24	289.35
1007.599	329.14
1007.958	315.09
1008.317	319.78
1008.676	312.75
1009.035	310.41
1009.393	261.26
1009.752	338.5
1010.111	303.39
1010.469	289.35
1010.828	312.75
1011.186	324.46
1011.544	265.94
1011.903	289.35
1012.261	371.27
1012.619	265.94
1012.977	244.88
1013.335	326.8
1013.693	352.54
1014.051	272.96
1014.409	354.88
1014.767	354.88
1015.124	263.6
1015.482	371.27
1015.84	298.71
1016.197	324.46
1016.555	329.14
1016.912	308.07
1017.269	268.28
1017.627	338.5
1017.984	301.05
1018.341	303.39
1018.698	338.5
1019.055	324.46
1019.412	336.16
1019.769	317.44
1020.126	303.39
1020.483	303.39
1020.84	333.82
1021.196	310.41
1021.553	343.18
1021.909	284.67
1022.266	294.03
1022.622	338.5
1022.979	368.93
1023.335	338.5
1023.691	340.84
1024.047	298.71
1024.404	373.61
1024.76	294.03
1025.116	247.22
1025.472	331.48
1025.827	333.82
1026.183	324.46
1026.539	322.12
1026.895	308.07
1027.25	251.9
1027.606	324.46
1027.961	371.27
1028.317	279.99
1028.672	272.96
1029.028	282.33
1029.383	324.46
1029.738	343.18
1030.093	301.05
1030.448	298.71
1030.803	340.84
1031.158	338.5
1031.513	282.33
1031.868	308.07
1032.223	296.37
1032.577	359.56
1032.932	308.07
1033.287	298.71
1033.641	324.46
1033.996	277.65
1034.35	350.2
1034.704	310.41
1035.059	310.41
1035.413	380.63
1035.767	380.63
1036.121	380.63
