Data from Al_FLMS009871__981__16-21-58-918.txt Node

Date: Fri Mar 08 16:21:58 CST 2024
User: pe5414po
Spectrometer: FLMS00987
Trigger mode: 0
Integration Time (sec): 1.000000E-1
Scans to average: 1
Electric dark correction enabled: true
Nonlinearity correction enabled: false
Boxcar width: 0
XAxis mode: Wavelengths
Number of Pixels in Spectrum: 2048
>>>>>Begin Spectral Data<<<<<
188.938	-45.64
189.409	-45.64
189.879	-45.64
190.349	-125.22
190.819	-118.2
191.29	-57.34
191.76	-71.39
192.23	-106.49
192.7	-115.86
193.17	-115.86
193.64	-57.34
194.109	-50.32
194.579	-12.87
195.049	33.94
195.519	66.71
195.988	-1.17
196.458	80.75
196.927	85.43
197.397	57.34
197.866	120.54
198.336	143.94
198.805	141.6
199.274	172.03
199.744	214.16
200.213	167.35
200.682	188.41
201.151	251.61
201.62	216.5
202.089	256.29
202.558	190.75
203.027	260.97
203.495	303.1
203.964	279.69
204.433	296.08
204.902	258.63
205.37	251.61
205.839	272.67
206.307	317.14
206.776	314.8
207.244	258.63
207.712	284.38
208.181	279.69
208.649	317.14
209.117	296.08
209.585	300.76
210.053	272.67
210.521	293.74
210.989	307.78
211.457	258.63
211.925	340.55
212.393	279.69
212.861	310.12
213.328	303.1
213.796	277.35
214.264	300.76
214.731	354.59
215.199	246.93
215.666	267.99
216.133	235.22
216.601	289.06
217.068	298.42
217.535	300.76
218.003	310.12
218.47	354.59
218.937	223.52
219.404	246.93
219.871	284.38
220.338	256.29
220.805	209.48
221.271	237.56
221.738	310.12
222.205	267.99
222.671	239.9
223.138	291.4
223.605	296.08
224.071	279.69
224.538	221.18
225.004	282.03
225.47	256.29
225.937	338.21
226.403	284.38
226.869	263.31
227.335	260.97
227.801	296.08
228.267	284.38
228.733	333.53
229.199	275.01
229.665	335.87
230.131	291.4
230.597	291.4
231.062	202.46
231.528	267.99
231.994	270.33
232.459	331.19
232.925	209.48
233.39	258.63
233.856	239.9
234.321	260.97
234.786	291.4
235.252	263.31
235.717	272.67
236.182	282.03
236.647	260.97
237.112	260.97
237.577	284.38
238.042	228.2
238.507	279.69
238.972	270.33
239.436	293.74
239.901	253.95
240.366	300.76
240.83	204.8
241.295	326.5
241.76	244.59
242.224	312.46
242.688	284.38
243.153	284.38
243.617	242.25
244.081	312.46
244.545	263.31
245.01	244.59
245.474	263.31
245.938	303.1
246.402	286.72
246.866	275.01
247.33	349.91
247.793	373.32
248.257	272.67
248.721	286.72
249.185	338.21
249.648	324.16
250.112	265.65
250.575	312.46
251.039	235.22
251.502	237.56
251.965	258.63
252.429	338.21
252.892	291.4
253.355	289.06
253.818	263.31
254.281	305.44
254.744	307.78
255.207	246.93
255.67	326.5
256.133	260.97
256.596	244.59
257.059	298.42
257.522	267.99
257.984	279.69
258.447	335.87
258.909	265.65
259.372	312.46
259.834	235.22
260.297	275.01
260.759	260.97
261.221	197.78
261.684	267.99
262.146	275.01
262.608	324.16
263.07	298.42
263.532	289.06
263.994	249.27
264.456	253.95
264.918	267.99
265.38	298.42
265.842	270.33
266.303	249.27
266.765	307.78
267.227	342.89
267.688	270.33
268.15	293.74
268.611	267.99
269.072	237.56
269.534	319.48
269.995	293.74
270.456	342.89
270.918	291.4
271.379	239.9
271.84	265.65
272.301	282.03
272.762	310.12
273.223	289.06
273.684	347.57
274.144	249.27
274.605	293.74
275.066	279.69
275.527	251.61
275.987	246.93
276.448	286.72
276.908	249.27
277.369	289.06
277.829	345.23
278.289	253.95
278.75	286.72
279.21	225.86
279.67	326.5
280.13	256.29
280.59	312.46
281.05	267.99
281.51	275.01
281.97	331.19
282.43	324.16
282.89	356.93
283.35	356.93
283.809	305.44
284.269	310.12
284.729	347.57
285.188	275.01
285.648	326.5
286.107	370.97
286.567	307.78
287.026	251.61
287.485	291.4
287.944	317.14
288.404	291.4
288.863	270.33
289.322	237.56
289.781	284.38
290.24	237.56
290.699	307.78
291.158	279.69
291.616	267.99
292.075	286.72
292.534	305.44
292.992	326.5
293.451	289.06
293.91	267.99
294.368	333.53
294.827	286.72
295.285	331.19
295.743	284.38
296.202	263.31
296.66	338.21
297.118	296.08
297.576	291.4
298.034	305.44
298.492	331.19
298.95	275.01
299.408	338.21
299.866	260.97
300.324	291.4
300.781	291.4
301.239	291.4
301.697	303.1
302.154	289.06
302.612	223.52
303.069	317.14
303.527	298.42
303.984	305.44
304.441	232.88
304.899	298.42
305.356	359.27
305.813	331.19
306.27	253.95
306.727	298.42
307.184	331.19
307.641	202.46
308.098	328.85
308.555	284.38
309.012	289.06
309.468	291.4
309.925	328.85
310.382	317.14
310.838	296.08
311.295	321.82
311.751	345.23
312.208	331.19
312.664	340.55
313.12	347.57
313.577	286.72
314.033	326.5
314.489	305.44
314.945	314.8
315.401	331.19
315.857	263.31
316.313	331.19
316.769	347.57
317.225	286.72
317.681	300.76
318.136	275.01
318.592	333.53
319.048	335.87
319.503	342.89
319.959	242.25
320.414	333.53
320.869	394.38
321.325	335.87
321.78	333.53
322.235	321.82
322.691	370.97
323.146	312.46
323.601	293.74
324.056	338.21
324.511	272.67
324.966	211.82
325.421	310.12
325.875	328.85
326.33	228.2
326.785	307.78
327.24	291.4
327.694	335.87
328.149	298.42
328.603	286.72
329.058	284.38
329.512	321.82
329.966	307.78
330.421	326.5
330.875	272.67
331.329	352.25
331.783	314.8
332.237	260.97
332.691	345.23
333.145	331.19
333.599	286.72
334.053	244.59
334.507	298.42
334.96	284.38
335.414	333.53
335.868	286.72
336.321	303.1
336.775	312.46
337.228	267.99
337.682	291.4
338.135	333.53
338.588	263.31
339.042	356.93
339.495	310.12
339.948	289.06
340.401	291.4
340.854	317.14
341.307	354.59
341.76	317.14
342.213	303.1
342.666	298.42
343.119	293.74
343.571	317.14
344.024	284.38
344.477	328.85
344.929	293.74
345.382	300.76
345.834	345.23
346.287	324.16
346.739	284.38
347.191	314.8
347.644	335.87
348.096	275.01
348.548	319.48
349	305.44
349.452	319.48
349.904	312.46
350.356	314.8
350.808	340.55
351.26	267.99
351.711	265.65
352.163	300.76
352.615	333.53
353.066	291.4
353.518	282.03
353.969	282.03
354.421	251.61
354.872	291.4
355.324	326.5
355.775	340.55
356.226	275.01
356.677	260.97
357.128	289.06
357.579	335.87
358.03	352.25
358.481	356.93
358.932	317.14
359.383	289.06
359.834	298.42
360.285	324.16
360.735	326.5
361.186	275.01
361.637	340.55
362.087	354.59
362.538	277.35
362.988	335.87
363.438	370.97
363.889	338.21
364.339	293.74
364.789	314.8
365.239	359.27
365.689	356.93
366.139	289.06
366.589	286.72
367.039	347.57
367.489	310.12
367.939	289.06
368.389	312.46
368.839	352.25
369.288	307.78
369.738	312.46
370.187	232.88
370.637	296.08
371.086	291.4
371.536	368.63
371.985	333.53
372.434	303.1
372.884	310.12
373.333	345.23
373.782	235.22
374.231	291.4
374.68	324.16
375.129	298.42
375.578	270.33
376.027	307.78
376.475	284.38
376.924	324.16
377.373	312.46
377.822	363.95
378.27	326.5
378.719	347.57
379.167	342.89
379.616	267.99
380.064	317.14
380.512	307.78
380.961	326.5
381.409	272.67
381.857	277.35
382.305	335.87
382.753	279.69
383.201	326.5
383.649	307.78
384.097	352.25
384.545	345.23
384.992	331.19
385.44	359.27
385.888	326.5
386.335	366.29
386.783	354.59
387.231	310.12
387.678	319.48
388.125	317.14
388.573	270.33
389.02	363.95
389.467	345.23
389.914	331.19
390.362	345.23
390.809	326.5
391.256	331.19
391.703	326.5
392.15	314.8
392.596	331.19
393.043	298.42
393.49	370.97
393.937	307.78
394.383	361.61
394.83	319.48
395.276	312.46
395.723	380.34
396.169	298.42
396.616	347.57
397.062	406.08
397.508	333.53
397.954	333.53
398.401	265.65
398.847	359.27
399.293	417.79
399.739	356.93
400.185	324.16
400.631	286.72
401.076	333.53
401.522	370.97
401.968	298.42
402.414	277.35
402.859	277.35
403.305	324.16
403.75	338.21
404.196	289.06
404.641	310.12
405.086	235.22
405.532	324.16
405.977	284.38
406.422	317.14
406.867	284.38
407.312	289.06
407.757	300.76
408.202	324.16
408.647	312.46
409.092	305.44
409.537	345.23
409.982	340.55
410.426	342.89
410.871	310.12
411.316	277.35
411.76	307.78
412.205	324.16
412.649	333.53
413.093	307.78
413.538	347.57
413.982	363.95
414.426	328.85
414.87	305.44
415.314	242.25
415.758	298.42
416.202	312.46
416.646	303.1
417.09	263.31
417.534	321.82
417.978	321.82
418.421	282.03
418.865	244.59
419.309	289.06
419.752	296.08
420.196	352.25
420.639	293.74
421.083	312.46
421.526	260.97
421.969	310.12
422.412	314.8
422.856	333.53
423.299	328.85
423.742	335.87
424.185	265.65
424.628	319.48
425.071	352.25
425.513	312.46
425.956	312.46
426.399	272.67
426.842	303.1
427.284	296.08
427.727	277.35
428.169	333.53
428.612	345.23
429.054	328.85
429.497	291.4
429.939	328.85
430.381	328.85
430.823	265.65
431.265	335.87
431.707	307.78
432.149	293.74
432.591	345.23
433.033	389.7
433.475	326.5
433.917	387.36
434.359	296.08
434.8	307.78
435.242	342.89
435.684	298.42
436.125	338.21
436.567	342.89
437.008	359.27
437.449	356.93
437.891	368.63
438.332	354.59
438.773	375.66
439.214	356.93
439.656	321.82
440.097	296.08
440.538	298.42
440.978	349.91
441.419	331.19
441.86	333.53
442.301	333.53
442.742	307.78
443.182	385.02
443.623	300.76
444.063	324.16
444.504	333.53
444.944	312.46
445.385	298.42
445.825	331.19
446.265	333.53
446.706	375.66
447.146	314.8
447.586	303.1
448.026	356.93
448.466	314.8
448.906	354.59
449.346	347.57
449.786	310.12
450.225	312.46
450.665	296.08
451.105	349.91
451.544	317.14
451.984	293.74
452.424	319.48
452.863	300.76
453.302	347.57
453.742	298.42
454.181	328.85
454.62	289.06
455.059	307.78
455.499	331.19
455.938	312.46
456.377	340.55
456.816	340.55
457.254	340.55
457.693	333.53
458.132	296.08
458.571	282.03
459.01	361.61
459.448	338.21
459.887	338.21
460.325	282.03
460.764	317.14
461.202	216.5
461.641	303.1
462.079	242.25
462.517	303.1
462.955	345.23
463.393	321.82
463.832	314.8
464.27	331.19
464.708	305.44
465.145	307.78
465.583	310.12
466.021	366.29
466.459	342.89
466.897	342.89
467.334	312.46
467.772	368.63
468.209	289.06
468.647	249.27
469.084	385.02
469.522	342.89
469.959	347.57
470.396	378
470.833	305.44
471.271	317.14
471.708	314.8
472.145	317.14
472.582	338.21
473.019	310.12
473.456	340.55
473.892	291.4
474.329	303.1
474.766	298.42
475.202	345.23
475.639	282.03
476.076	251.61
476.512	300.76
476.949	345.23
477.385	349.91
477.821	298.42
478.258	293.74
478.694	335.87
479.13	354.59
479.566	338.21
480.002	326.5
480.438	267.99
480.874	293.74
481.31	312.46
481.746	326.5
482.181	387.36
482.617	272.67
483.053	310.12
483.488	342.89
483.924	279.69
484.36	356.93
484.795	321.82
485.23	298.42
485.666	361.61
486.101	321.82
486.536	293.74
486.971	300.76
487.407	340.55
487.842	338.21
488.277	338.21
488.712	286.72
489.146	298.42
489.581	333.53
490.016	354.59
490.451	242.25
490.885	253.95
491.32	354.59
491.755	333.53
492.189	382.68
492.624	321.82
493.058	331.19
493.492	359.27
493.927	296.08
494.361	293.74
494.795	324.16
495.229	356.93
495.663	370.97
496.097	291.4
496.531	310.12
496.965	305.44
497.399	298.42
497.833	296.08
498.266	331.19
498.7	303.1
499.134	347.57
499.567	335.87
500.001	324.16
500.434	319.48
500.868	314.8
501.301	317.14
501.734	265.65
502.168	253.95
502.601	265.65
503.034	310.12
503.467	303.1
503.9	305.44
504.333	284.38
504.766	347.57
505.199	265.65
505.632	338.21
506.064	352.25
506.497	333.53
506.93	359.27
507.362	394.38
507.795	303.1
508.227	319.48
508.66	310.12
509.092	282.03
509.524	349.91
509.956	333.53
510.389	260.97
510.821	326.5
511.253	373.32
511.685	310.12
512.117	328.85
512.549	279.69
512.981	354.59
513.412	331.19
513.844	298.42
514.276	326.5
514.707	284.38
515.139	373.32
515.571	366.29
516.002	340.55
516.433	335.87
516.865	338.21
517.296	321.82
517.727	317.14
518.159	305.44
518.59	307.78
519.021	335.87
519.452	328.85
519.883	228.2
520.314	291.4
520.744	298.42
521.175	303.1
521.606	368.63
522.037	370.97
522.467	331.19
522.898	317.14
523.328	324.16
523.759	324.16
524.189	258.63
524.62	361.61
525.05	303.1
525.48	324.16
525.91	305.44
526.341	267.99
526.771	324.16
527.201	370.97
527.631	422.47
528.061	291.4
528.49	370.97
528.92	328.85
529.35	310.12
529.78	312.46
530.209	303.1
530.639	249.27
531.068	335.87
531.498	317.14
531.927	305.44
532.357	291.4
532.786	296.08
533.215	340.55
533.644	298.42
534.074	314.8
534.503	349.91
534.932	352.25
535.361	352.25
535.79	340.55
536.218	286.72
536.647	305.44
537.076	282.03
537.505	347.57
537.933	333.53
538.362	342.89
538.79	277.35
539.219	340.55
539.647	289.06
540.076	272.67
540.504	319.48
540.932	300.76
541.36	361.61
541.788	331.19
542.217	354.59
542.645	340.55
543.073	275.01
543.5	296.08
543.928	380.34
544.356	279.69
544.784	352.25
545.211	258.63
545.639	361.61
546.067	352.25
546.494	317.14
546.922	291.4
547.349	324.16
547.776	310.12
548.204	328.85
548.631	359.27
549.058	326.5
549.485	310.12
549.912	335.87
550.339	349.91
550.766	347.57
551.193	307.78
551.62	349.91
552.047	349.91
552.474	352.25
552.9	354.59
553.327	303.1
553.754	291.4
554.18	333.53
554.607	324.16
555.033	317.14
555.459	314.8
555.886	354.59
556.312	338.21
556.738	361.61
557.164	321.82
557.59	324.16
558.016	340.55
558.442	284.38
558.868	305.44
559.294	319.48
559.72	356.93
560.145	286.72
560.571	286.72
560.997	305.44
561.422	298.42
561.848	279.69
562.273	338.21
562.699	286.72
563.124	310.12
563.549	307.78
563.974	340.55
564.4	321.82
564.825	314.8
565.25	354.59
565.675	303.1
566.1	305.44
566.525	300.76
566.95	282.03
567.374	321.82
567.799	361.61
568.224	314.8
568.648	326.5
569.073	345.23
569.497	296.08
569.922	319.48
570.346	291.4
570.771	270.33
571.195	307.78
571.619	282.03
572.043	307.78
572.467	331.19
572.891	406.08
573.315	293.74
573.739	317.14
574.163	298.42
574.587	282.03
575.011	342.89
575.435	314.8
575.858	331.19
576.282	307.78
576.705	359.27
577.129	347.57
577.552	328.85
577.976	347.57
578.399	326.5
578.822	296.08
579.245	340.55
579.669	331.19
580.092	307.78
580.515	265.65
580.938	305.44
581.361	324.16
581.784	385.02
582.206	335.87
582.629	338.21
583.052	263.31
583.474	282.03
583.897	298.42
584.32	251.61
584.742	307.78
585.165	298.42
585.587	354.59
586.009	340.55
586.431	298.42
586.854	265.65
587.276	298.42
587.698	312.46
588.12	272.67
588.542	270.33
588.964	291.4
589.386	326.5
589.807	267.99
590.229	303.1
590.651	289.06
591.073	260.97
591.494	270.33
591.916	310.12
592.337	258.63
592.759	359.27
593.18	331.19
593.601	303.1
594.022	293.74
594.444	314.8
594.865	324.16
595.286	263.31
595.707	324.16
596.128	291.4
596.549	291.4
596.97	328.85
597.39	326.5
597.811	342.89
598.232	345.23
598.652	293.74
599.073	326.5
599.494	363.95
599.914	296.08
600.334	317.14
600.755	282.03
601.175	349.91
601.595	289.06
602.015	310.12
602.436	354.59
602.856	462.26
603.276	324.16
603.696	321.82
604.115	293.74
604.535	279.69
604.955	314.8
605.375	338.21
605.794	286.72
606.214	375.66
606.634	321.82
607.053	347.57
607.473	265.65
607.892	291.4
608.311	279.69
608.731	296.08
609.15	349.91
609.569	342.89
609.988	331.19
610.407	331.19
610.826	333.53
611.245	408.42
611.664	356.93
612.083	310.12
612.501	300.76
612.92	291.4
613.339	230.54
613.757	298.42
614.176	378
614.594	289.06
615.013	279.69
615.431	282.03
615.85	298.42
616.268	319.48
616.686	317.14
617.104	307.78
617.522	387.36
617.94	237.56
618.358	354.59
618.776	354.59
619.194	284.38
619.612	305.44
620.03	296.08
620.447	368.63
620.865	289.06
621.282	300.76
621.7	366.29
622.117	296.08
622.535	338.21
622.952	237.56
623.369	317.14
623.787	317.14
624.204	333.53
624.621	279.69
625.038	249.27
625.455	349.91
625.872	340.55
626.289	314.8
626.706	382.68
627.123	282.03
627.539	352.25
627.956	338.21
628.373	324.16
628.789	260.97
629.206	326.5
629.622	361.61
630.038	260.97
630.455	375.66
630.871	317.14
631.287	345.23
631.703	352.25
632.12	317.14
632.536	354.59
632.952	303.1
633.368	331.19
633.783	267.99
634.199	317.14
634.615	368.63
635.031	310.12
635.446	296.08
635.862	282.03
636.277	307.78
636.693	342.89
637.108	265.65
637.524	300.76
637.939	289.06
638.354	378
638.77	333.53
639.185	333.53
639.6	312.46
640.015	298.42
640.43	333.53
640.845	356.93
641.259	296.08
641.674	277.35
642.089	321.82
642.504	338.21
642.918	335.87
643.333	319.48
643.747	267.99
644.162	272.67
644.576	307.78
644.991	345.23
645.405	321.82
645.819	305.44
646.233	326.5
646.647	321.82
647.061	335.87
647.475	286.72
647.889	300.76
648.303	317.14
648.717	370.97
649.131	326.5
649.545	324.16
649.958	363.95
650.372	307.78
650.785	361.61
651.199	345.23
651.612	310.12
652.026	307.78
652.439	335.87
652.852	319.48
653.266	275.01
653.679	312.46
654.092	307.78
654.505	326.5
654.918	270.33
655.331	324.16
655.744	314.8
656.156	270.33
656.569	354.59
656.982	298.42
657.394	333.53
657.807	361.61
658.22	331.19
658.632	317.14
659.044	307.78
659.457	352.25
659.869	333.53
660.281	249.27
660.693	237.56
661.106	345.23
661.518	305.44
661.93	296.08
662.342	310.12
662.754	347.57
663.165	331.19
663.577	282.03
663.989	356.93
664.401	363.95
664.812	307.78
665.224	324.16
665.635	317.14
666.047	326.5
666.458	354.59
666.869	345.23
667.281	328.85
667.692	345.23
668.103	260.97
668.514	303.1
668.925	270.33
669.336	317.14
669.747	331.19
670.158	298.42
670.569	352.25
670.979	331.19
671.39	349.91
671.801	356.93
672.211	293.74
672.622	370.97
673.032	370.97
673.443	310.12
673.853	331.19
674.263	394.38
674.674	296.08
675.084	286.72
675.494	326.5
675.904	258.63
676.314	275.01
676.724	277.35
677.134	314.8
677.544	335.87
677.953	342.89
678.363	324.16
678.773	314.8
679.182	380.34
679.592	307.78
680.001	314.8
680.411	366.29
680.82	319.48
681.23	352.25
681.639	359.27
682.048	282.03
682.457	326.5
682.866	349.91
683.275	300.76
683.684	375.66
684.093	312.46
684.502	340.55
684.911	342.89
685.32	275.01
685.728	317.14
686.137	314.8
686.546	328.85
686.954	314.8
687.363	314.8
687.771	317.14
688.179	361.61
688.588	289.06
688.996	305.44
689.404	328.85
689.812	368.63
690.22	286.72
690.628	317.14
691.036	342.89
691.444	317.14
691.852	296.08
692.26	333.53
692.667	303.1
693.075	324.16
693.483	326.5
693.89	291.4
694.298	277.35
694.705	310.12
695.112	249.27
695.52	298.42
695.927	307.78
696.334	305.44
696.741	246.93
697.148	305.44
697.555	326.5
697.962	392.04
698.369	300.76
698.776	282.03
699.183	352.25
699.59	303.1
699.996	303.1
700.403	354.59
700.81	307.78
701.216	296.08
701.623	328.85
702.029	352.25
702.435	354.59
702.842	251.61
703.248	314.8
703.654	284.38
704.06	356.93
704.466	289.06
704.872	312.46
705.278	296.08
705.684	291.4
706.09	345.23
706.496	317.14
706.901	338.21
707.307	300.76
707.712	349.91
708.118	298.42
708.523	326.5
708.929	279.69
709.334	270.33
709.74	366.29
710.145	303.1
710.55	256.29
710.955	279.69
711.36	270.33
711.765	321.82
712.17	324.16
712.575	319.48
712.98	836.74
713.385	307.78
713.789	361.61
714.194	282.03
714.599	284.38
715.003	300.76
715.408	335.87
715.812	249.27
716.217	331.19
716.621	225.86
717.025	284.38
717.429	256.29
717.833	244.59
718.238	249.27
718.642	321.82
719.046	347.57
719.449	338.21
719.853	293.74
720.257	338.21
720.661	333.53
721.065	289.06
721.468	303.1
721.872	296.08
722.275	298.42
722.679	263.31
723.082	251.61
723.485	291.4
723.889	300.76
724.292	246.93
724.695	331.19
725.098	317.14
725.501	312.46
725.904	349.91
726.307	342.89
726.71	314.8
727.113	349.91
727.516	305.44
727.918	352.25
728.321	291.4
728.724	305.44
729.126	389.7
729.529	338.21
729.931	235.22
730.333	345.23
730.736	296.08
731.138	296.08
731.54	335.87
731.942	354.59
732.344	256.29
732.746	296.08
733.148	328.85
733.55	307.78
733.952	340.55
734.354	277.35
734.756	286.72
735.157	401.4
735.559	312.46
735.96	324.16
736.362	333.53
736.763	267.99
737.165	354.59
737.566	286.72
737.967	399.06
738.368	342.89
738.77	253.95
739.171	298.42
739.572	366.29
739.973	319.48
740.374	314.8
740.774	326.5
741.175	321.82
741.576	242.25
741.977	284.38
742.377	235.22
742.778	359.27
743.178	282.03
743.579	270.33
743.979	300.76
744.379	340.55
744.78	342.89
745.18	307.78
745.58	340.55
745.98	279.69
746.38	286.72
746.78	258.63
747.18	260.97
747.58	413.1
747.98	279.69
748.38	282.03
748.779	296.08
749.179	279.69
749.578	293.74
749.978	335.87
750.377	289.06
750.777	282.03
751.176	326.5
751.575	300.76
751.975	279.69
752.374	293.74
752.773	326.5
753.172	354.59
753.571	298.42
753.97	237.56
754.369	324.16
754.768	382.68
755.166	373.32
755.565	303.1
755.964	286.72
756.362	300.76
756.761	335.87
757.159	293.74
757.558	291.4
757.956	296.08
758.354	251.61
758.753	354.59
759.151	305.44
759.549	335.87
759.947	286.72
760.345	246.93
760.743	331.19
761.141	263.31
761.539	246.93
761.936	333.53
762.334	310.12
762.732	347.57
763.129	335.87
763.527	408.42
763.924	328.85
764.322	321.82
764.719	335.87
765.117	331.19
765.514	319.48
765.911	303.1
766.308	324.16
766.705	317.14
767.102	300.76
767.499	293.74
767.896	296.08
768.293	314.8
768.69	307.78
769.086	293.74
769.483	385.02
769.88	282.03
770.276	333.53
770.673	321.82
771.069	277.35
771.466	373.32
771.862	326.5
772.258	319.48
772.654	352.25
773.05	282.03
773.447	298.42
773.843	373.32
774.239	260.97
774.634	319.48
775.03	368.63
775.426	265.65
775.822	298.42
776.218	340.55
776.613	307.78
777.009	347.57
777.404	338.21
777.8	293.74
778.195	338.21
778.59	312.46
778.986	349.91
779.381	270.33
779.776	253.95
780.171	317.14
780.566	347.57
780.961	310.12
781.356	279.69
781.751	349.91
782.146	246.93
782.54	307.78
782.935	359.27
783.33	378
783.724	282.03
784.119	328.85
784.513	293.74
784.908	267.99
785.302	282.03
785.696	321.82
786.09	326.5
786.485	310.12
786.879	324.16
787.273	307.78
787.667	380.34
788.061	284.38
788.454	354.59
788.848	338.21
789.242	303.1
789.636	314.8
790.029	296.08
790.423	326.5
790.816	298.42
791.21	305.44
791.603	277.35
791.997	286.72
792.39	303.1
792.783	392.04
793.176	370.97
793.569	291.4
793.962	333.53
794.355	314.8
794.748	289.06
795.141	305.44
795.534	303.1
795.927	258.63
796.319	347.57
796.712	303.1
797.105	258.63
797.497	282.03
797.89	258.63
798.282	307.78
798.674	375.66
799.067	310.12
799.459	317.14
799.851	314.8
800.243	289.06
800.635	335.87
801.027	321.82
801.419	307.78
801.811	333.53
802.203	382.68
802.594	317.14
802.986	286.72
803.378	321.82
803.769	267.99
804.161	256.29
804.552	307.78
804.944	282.03
805.335	305.44
805.726	286.72
806.118	314.8
806.509	331.19
806.9	289.06
807.291	277.35
807.682	282.03
808.073	324.16
808.464	263.31
808.855	303.1
809.245	296.08
809.636	321.82
810.027	314.8
810.417	307.78
810.808	347.57
811.198	314.8
811.589	333.53
811.979	310.12
812.369	307.78
812.759	303.1
813.15	272.67
813.54	310.12
813.93	228.2
814.32	289.06
814.71	310.12
815.1	321.82
815.489	326.5
815.879	314.8
816.269	335.87
816.658	298.42
817.048	310.12
817.438	298.42
817.827	296.08
818.216	307.78
818.606	275.01
818.995	317.14
819.384	298.42
819.773	305.44
820.163	279.69
820.552	333.53
820.941	298.42
821.33	321.82
821.718	239.9
822.107	331.19
822.496	370.97
822.885	340.55
823.273	352.25
823.662	333.53
824.05	324.16
824.439	282.03
824.827	328.85
825.216	314.8
825.604	310.12
825.992	258.63
826.38	335.87
826.768	275.01
827.156	347.57
827.544	317.14
827.932	324.16
828.32	321.82
828.708	324.16
829.096	298.42
829.483	335.87
829.871	282.03
830.259	286.72
830.646	300.76
831.034	275.01
831.421	331.19
831.808	331.19
832.196	342.89
832.583	293.74
832.97	282.03
833.357	328.85
833.744	296.08
834.131	286.72
834.518	282.03
834.905	307.78
835.292	251.61
835.678	263.31
836.065	333.53
836.452	312.46
836.838	298.42
837.225	317.14
837.611	270.33
837.998	291.4
838.384	244.59
838.77	270.33
839.157	293.74
839.543	307.78
839.929	237.56
840.315	279.69
840.701	359.27
841.087	342.89
841.473	260.97
841.858	375.66
842.244	340.55
842.63	310.12
843.015	342.89
843.401	354.59
843.787	279.69
844.172	305.44
844.557	307.78
844.943	282.03
845.328	312.46
845.713	317.14
846.098	347.57
846.483	218.84
846.868	321.82
847.253	324.16
847.638	307.78
848.023	321.82
848.408	310.12
848.793	338.21
849.177	328.85
849.562	312.46
849.947	370.97
850.331	363.95
850.715	312.46
851.1	275.01
851.484	328.85
851.868	300.76
852.253	368.63
852.637	296.08
853.021	333.53
853.405	349.91
853.789	303.1
854.173	277.35
854.557	286.72
854.94	333.53
855.324	282.03
855.708	319.48
856.091	328.85
856.475	324.16
856.858	310.12
857.242	275.01
857.625	298.42
858.009	289.06
858.392	300.76
858.775	321.82
859.158	277.35
859.541	340.55
859.924	303.1
860.307	363.95
860.69	296.08
861.073	310.12
861.456	291.4
861.838	314.8
862.221	256.29
862.604	305.44
862.986	265.65
863.369	312.46
863.751	347.57
864.133	300.76
864.516	300.76
864.898	328.85
865.28	314.8
865.662	289.06
866.044	307.78
866.426	331.19
866.808	317.14
867.19	291.4
867.572	345.23
867.954	335.87
868.336	267.99
868.717	279.69
869.099	349.91
869.48	335.87
869.862	340.55
870.243	333.53
870.625	279.69
871.006	319.48
871.387	303.1
871.768	361.61
872.149	310.12
872.53	260.97
872.911	223.52
873.292	267.99
873.673	319.48
874.054	340.55
874.435	312.46
874.815	321.82
875.196	286.72
875.577	293.74
875.957	300.76
876.338	333.53
876.718	253.95
877.098	370.97
877.479	347.57
877.859	289.06
878.239	291.4
878.619	331.19
878.999	324.16
879.379	335.87
879.759	275.01
880.139	270.33
880.519	305.44
880.898	356.93
881.278	354.59
881.658	272.67
882.037	293.74
882.417	310.12
882.796	312.46
883.176	279.69
883.555	284.38
883.934	314.8
884.313	345.23
884.693	258.63
885.072	298.42
885.451	319.48
885.83	282.03
886.209	275.01
886.587	347.57
886.966	382.68
887.345	298.42
887.724	256.29
888.102	314.8
888.481	289.06
888.859	242.25
889.238	232.88
889.616	305.44
889.994	328.85
890.373	289.06
890.751	275.01
891.129	270.33
891.507	319.48
891.885	354.59
892.263	293.74
892.641	277.35
893.019	368.63
893.396	260.97
893.774	312.46
894.152	328.85
894.529	310.12
894.907	314.8
895.284	331.19
895.662	235.22
896.039	242.25
896.416	420.13
896.794	333.53
897.171	272.67
897.548	279.69
897.925	289.06
898.302	293.74
898.679	258.63
899.056	321.82
899.433	331.19
899.809	312.46
900.186	235.22
900.563	347.57
900.939	319.48
901.316	291.4
901.692	253.95
902.069	237.56
902.445	326.5
902.821	265.65
903.197	312.46
903.574	270.33
903.95	314.8
904.326	270.33
904.702	263.31
905.078	319.48
905.454	284.38
905.829	333.53
906.205	298.42
906.581	307.78
906.956	242.25
907.332	338.21
907.707	361.61
908.083	256.29
908.458	326.5
908.833	354.59
909.209	363.95
909.584	305.44
909.959	324.16
910.334	270.33
910.709	312.46
911.084	298.42
911.459	370.97
911.834	286.72
912.209	340.55
912.583	347.57
912.958	349.91
913.333	338.21
913.707	366.29
914.082	356.93
914.456	246.93
914.83	319.48
915.205	410.76
915.579	284.38
915.953	260.97
916.327	253.95
916.701	237.56
917.075	307.78
917.449	300.76
917.823	289.06
918.197	345.23
918.571	324.16
918.944	275.01
919.318	279.69
919.692	289.06
920.065	312.46
920.438	282.03
920.812	347.57
921.185	321.82
921.558	326.5
921.932	305.44
922.305	307.78
922.678	289.06
923.051	324.16
923.424	312.46
923.797	277.35
924.17	303.1
924.542	284.38
924.915	296.08
925.288	267.99
925.661	342.89
926.033	263.31
926.406	286.72
926.778	366.29
927.15	319.48
927.523	286.72
927.895	307.78
928.267	249.27
928.639	321.82
929.011	321.82
929.383	314.8
929.755	340.55
930.127	310.12
930.499	310.12
930.871	361.61
931.242	267.99
931.614	291.4
931.986	289.06
932.357	331.19
932.729	352.25
933.1	370.97
933.471	321.82
933.843	200.12
934.214	319.48
934.585	305.44
934.956	282.03
935.327	305.44
935.698	286.72
936.069	256.29
936.44	282.03
936.811	303.1
937.182	300.76
937.552	277.35
937.923	324.16
938.293	298.42
938.664	338.21
939.034	340.55
939.405	338.21
939.775	370.97
940.145	317.14
940.516	246.93
940.886	310.12
941.256	345.23
941.626	333.53
941.996	293.74
942.366	300.76
942.735	265.65
943.105	335.87
943.475	282.03
943.845	333.53
944.214	298.42
944.584	263.31
944.953	293.74
945.323	317.14
945.692	291.4
946.061	340.55
946.43	293.74
946.8	319.48
947.169	293.74
947.538	303.1
947.907	300.76
948.276	310.12
948.645	307.78
949.013	338.21
949.382	305.44
949.751	359.27
950.119	354.59
950.488	368.63
950.857	359.27
951.225	310.12
951.593	333.53
951.962	284.38
952.33	286.72
952.698	277.35
953.066	284.38
953.434	277.35
953.802	342.89
954.17	352.25
954.538	282.03
954.906	333.53
955.274	342.89
955.642	314.8
956.009	305.44
956.377	373.32
956.744	291.4
957.112	277.35
957.479	253.95
957.847	310.12
958.214	349.91
958.581	387.36
958.948	314.8
959.315	275.01
959.683	237.56
960.05	249.27
960.416	310.12
960.783	249.27
961.15	267.99
961.517	352.25
961.884	296.08
962.25	331.19
962.617	338.21
962.983	324.16
963.35	277.35
963.716	291.4
964.082	277.35
964.449	307.78
964.815	300.76
965.181	314.8
965.547	349.91
965.913	333.53
966.279	265.65
966.645	251.61
967.011	300.76
967.377	286.72
967.742	305.44
968.108	286.72
968.474	345.23
968.839	312.46
969.205	286.72
969.57	291.4
969.935	296.08
970.301	265.65
970.666	225.86
971.031	277.35
971.396	312.46
971.761	305.44
972.126	314.8
972.491	307.78
972.856	286.72
973.221	286.72
973.586	282.03
973.95	328.85
974.315	237.56
974.679	319.48
975.044	291.4
975.408	303.1
975.773	326.5
976.137	328.85
976.501	279.69
976.866	293.74
977.23	333.53
977.594	265.65
977.958	321.82
978.322	321.82
978.686	314.8
979.049	221.18
979.413	352.25
979.777	328.85
980.141	277.35
980.504	282.03
980.868	230.54
981.231	277.35
981.595	321.82
981.958	319.48
982.321	293.74
982.684	314.8
983.048	267.99
983.411	361.61
983.774	359.27
984.137	267.99
984.5	282.03
984.862	291.4
985.225	272.67
985.588	282.03
985.951	324.16
986.313	303.1
986.676	246.93
987.038	237.56
987.401	387.36
987.763	319.48
988.125	277.35
988.488	300.76
988.85	347.57
989.212	305.44
989.574	270.33
989.936	338.21
990.298	303.1
990.66	368.63
991.022	328.85
991.383	293.74
991.745	321.82
992.107	314.8
992.468	328.85
992.83	307.78
993.191	310.12
993.553	249.27
993.914	291.4
994.275	354.59
994.637	317.14
994.998	321.82
995.359	380.34
995.72	438.85
996.081	293.74
996.442	354.59
996.803	286.72
997.163	286.72
997.524	331.19
997.885	370.97
998.245	359.27
998.606	300.76
998.966	324.16
999.327	296.08
999.687	314.8
1000.047	319.48
1000.408	335.87
1000.768	188.41
1001.128	282.03
1001.488	282.03
1001.848	303.1
1002.208	256.29
1002.568	298.42
1002.927	260.97
1003.287	270.33
1003.647	305.44
1004.007	277.35
1004.366	326.5
1004.726	279.69
1005.085	312.46
1005.444	272.67
1005.804	361.61
1006.163	284.38
1006.522	317.14
1006.881	258.63
1007.24	321.82
1007.599	319.48
1007.958	244.59
1008.317	307.78
1008.676	366.29
1009.035	314.8
1009.393	415.45
1009.752	289.06
1010.111	345.23
1010.469	218.84
1010.828	310.12
1011.186	328.85
1011.544	289.06
1011.903	335.87
1012.261	305.44
1012.619	270.33
1012.977	265.65
1013.335	228.2
1013.693	279.69
1014.051	333.53
1014.409	331.19
1014.767	277.35
1015.124	258.63
1015.482	284.38
1015.84	282.03
1016.197	328.85
1016.555	342.89
1016.912	366.29
1017.269	319.48
1017.627	284.38
1017.984	307.78
1018.341	277.35
1018.698	349.91
1019.055	359.27
1019.412	253.95
1019.769	331.19
1020.126	282.03
1020.483	324.16
1020.84	310.12
1021.196	256.29
1021.553	286.72
1021.909	293.74
1022.266	305.44
1022.622	298.42
1022.979	333.53
1023.335	333.53
1023.691	356.93
1024.047	235.22
1024.404	321.82
1024.76	296.08
1025.116	342.89
1025.472	275.01
1025.827	256.29
1026.183	263.31
1026.539	230.54
1026.895	300.76
1027.25	310.12
1027.606	333.53
1027.961	270.33
1028.317	338.21
1028.672	363.95
1029.028	260.97
1029.383	314.8
1029.738	289.06
1030.093	293.74
1030.448	307.78
1030.803	331.19
1031.158	342.89
1031.513	265.65
1031.868	328.85
1032.223	293.74
1032.577	272.67
1032.932	338.21
1033.287	230.54
1033.641	340.55
1033.996	328.85
1034.35	331.19
1034.704	242.25
1035.059	333.53
1035.413	370.97
1035.767	370.97
1036.121	370.97
