Data from Al_FLMS009871__993__16-22-00-118.txt Node

Date: Fri Mar 08 16:22:00 CST 2024
User: pe5414po
Spectrometer: FLMS00987
Trigger mode: 0
Integration Time (sec): 1.000000E-1
Scans to average: 1
Electric dark correction enabled: true
Nonlinearity correction enabled: false
Boxcar width: 0
XAxis mode: Wavelengths
Number of Pixels in Spectrum: 2048
>>>>>Begin Spectral Data<<<<<
188.938	-38.62
189.409	-38.62
189.879	-38.62
190.349	-104.15
190.819	-59.68
191.29	-71.39
191.76	-139.26
192.23	-94.79
192.7	-76.07
193.17	-85.43
193.64	-101.81
194.109	-22.24
194.579	-15.21
195.049	45.64
195.519	-43.3
195.988	24.58
196.458	22.24
196.927	127.56
197.397	148.62
197.866	132.24
198.336	148.62
198.805	230.54
199.274	209.48
199.744	190.75
200.213	141.6
200.682	186.07
201.151	237.56
201.62	253.95
202.089	235.22
202.558	296.08
203.027	284.38
203.495	263.31
203.964	253.95
204.433	277.35
204.902	265.65
205.37	310.12
205.839	338.21
206.307	291.4
206.776	303.1
207.244	347.57
207.712	286.72
208.181	286.72
208.649	333.53
209.117	333.53
209.585	286.72
210.053	293.74
210.521	321.82
210.989	256.29
211.457	298.42
211.925	317.14
212.393	235.22
212.861	319.48
213.328	296.08
213.796	363.95
214.264	303.1
214.731	291.4
215.199	342.89
215.666	289.06
216.133	256.29
216.601	277.35
217.068	239.9
217.535	204.8
218.003	256.29
218.47	282.03
218.937	312.46
219.404	289.06
219.871	298.42
220.338	291.4
220.805	282.03
221.271	272.67
221.738	256.29
222.205	275.01
222.671	221.18
223.138	235.22
223.605	249.27
224.071	300.76
224.538	277.35
225.004	218.84
225.47	314.8
225.937	228.2
226.403	296.08
226.869	214.16
227.335	333.53
227.801	265.65
228.267	253.95
228.733	331.19
229.199	349.91
229.665	303.1
230.131	253.95
230.597	258.63
231.062	235.22
231.528	319.48
231.994	277.35
232.459	267.99
232.925	275.01
233.39	333.53
233.856	291.4
234.321	237.56
234.786	265.65
235.252	300.76
235.717	275.01
236.182	272.67
236.647	253.95
237.112	267.99
237.577	225.86
238.042	347.57
238.507	310.12
238.972	263.31
239.436	335.87
239.901	258.63
240.366	267.99
240.83	328.85
241.295	286.72
241.76	260.97
242.224	242.25
242.688	200.12
243.153	296.08
243.617	279.69
244.081	275.01
244.545	289.06
245.01	235.22
245.474	270.33
245.938	298.42
246.402	324.16
246.866	270.33
247.33	300.76
247.793	242.25
248.257	345.23
248.721	312.46
249.185	279.69
249.648	235.22
250.112	265.65
250.575	321.82
251.039	263.31
251.502	298.42
251.965	314.8
252.429	338.21
252.892	253.95
253.355	305.44
253.818	354.59
254.281	289.06
254.744	296.08
255.207	300.76
255.67	275.01
256.133	279.69
256.596	349.91
257.059	317.14
257.522	347.57
257.984	267.99
258.447	298.42
258.909	267.99
259.372	317.14
259.834	263.31
260.297	279.69
260.759	293.74
261.221	242.25
261.684	284.38
262.146	272.67
262.608	289.06
263.07	253.95
263.532	298.42
263.994	338.21
264.456	347.57
264.918	326.5
265.38	328.85
265.842	349.91
266.303	314.8
266.765	314.8
267.227	265.65
267.688	282.03
268.15	338.21
268.611	289.06
269.072	246.93
269.534	324.16
269.995	291.4
270.456	314.8
270.918	228.2
271.379	300.76
271.84	312.46
272.301	324.16
272.762	392.04
273.223	314.8
273.684	291.4
274.144	319.48
274.605	317.14
275.066	345.23
275.527	270.33
275.987	333.53
276.448	342.89
276.908	331.19
277.369	373.32
277.829	321.82
278.289	340.55
278.75	359.27
279.21	286.72
279.67	321.82
280.13	347.57
280.59	338.21
281.05	328.85
281.51	223.52
281.97	291.4
282.43	310.12
282.89	347.57
283.35	272.67
283.809	284.38
284.269	300.76
284.729	370.97
285.188	272.67
285.648	263.31
286.107	296.08
286.567	305.44
287.026	284.38
287.485	333.53
287.944	291.4
288.404	335.87
288.863	312.46
289.322	356.93
289.781	270.33
290.24	277.35
290.699	265.65
291.158	342.89
291.616	375.66
292.075	279.69
292.534	326.5
292.992	347.57
293.451	298.42
293.91	342.89
294.368	279.69
294.827	340.55
295.285	324.16
295.743	317.14
296.202	232.88
296.66	378
297.118	267.99
297.576	335.87
298.034	331.19
298.492	368.63
298.95	366.29
299.408	335.87
299.866	326.5
300.324	328.85
300.781	361.61
301.239	314.8
301.697	293.74
302.154	293.74
302.612	324.16
303.069	298.42
303.527	335.87
303.984	296.08
304.441	310.12
304.899	349.91
305.356	345.23
305.813	326.5
306.27	265.65
306.727	272.67
307.184	296.08
307.641	289.06
308.098	345.23
308.555	338.21
309.012	319.48
309.468	349.91
309.925	378
310.382	242.25
310.838	286.72
311.295	333.53
311.751	324.16
312.208	338.21
312.664	317.14
313.12	284.38
313.577	246.93
314.033	289.06
314.489	310.12
314.945	284.38
315.401	249.27
315.857	328.85
316.313	298.42
316.769	310.12
317.225	361.61
317.681	303.1
318.136	253.95
318.592	312.46
319.048	328.85
319.503	275.01
319.959	267.99
320.414	328.85
320.869	291.4
321.325	300.76
321.78	249.27
322.235	293.74
322.691	333.53
323.146	300.76
323.601	333.53
324.056	401.4
324.511	267.99
324.966	289.06
325.421	277.35
325.875	260.97
326.33	359.27
326.785	265.65
327.24	293.74
327.694	359.27
328.149	289.06
328.603	310.12
329.058	314.8
329.512	305.44
329.966	328.85
330.421	317.14
330.875	277.35
331.329	321.82
331.783	265.65
332.237	286.72
332.691	293.74
333.145	312.46
333.599	282.03
334.053	314.8
334.507	368.63
334.96	249.27
335.414	352.25
335.868	314.8
336.321	246.93
336.775	291.4
337.228	359.27
337.682	335.87
338.135	312.46
338.588	380.34
339.042	272.67
339.495	314.8
339.948	345.23
340.401	342.89
340.854	289.06
341.307	314.8
341.76	312.46
342.213	401.4
342.666	260.97
343.119	289.06
343.571	331.19
344.024	356.93
344.477	345.23
344.929	321.82
345.382	279.69
345.834	385.02
346.287	291.4
346.739	340.55
347.191	272.67
347.644	293.74
348.096	370.97
348.548	338.21
349	282.03
349.452	282.03
349.904	249.27
350.356	340.55
350.808	296.08
351.26	230.54
351.711	310.12
352.163	354.59
352.615	361.61
353.066	359.27
353.518	312.46
353.969	347.57
354.421	270.33
354.872	335.87
355.324	347.57
355.775	319.48
356.226	314.8
356.677	368.63
357.128	279.69
357.579	286.72
358.03	291.4
358.481	363.95
358.932	333.53
359.383	293.74
359.834	359.27
360.285	352.25
360.735	321.82
361.186	289.06
361.637	342.89
362.087	286.72
362.538	289.06
362.988	342.89
363.438	275.01
363.889	387.36
364.339	265.65
364.789	293.74
365.239	335.87
365.689	356.93
366.139	314.8
366.589	277.35
367.039	328.85
367.489	335.87
367.939	333.53
368.389	373.32
368.839	298.42
369.288	305.44
369.738	312.46
370.187	326.5
370.637	279.69
371.086	293.74
371.536	326.5
371.985	253.95
372.434	298.42
372.884	335.87
373.333	366.29
373.782	321.82
374.231	310.12
374.68	298.42
375.129	349.91
375.578	305.44
376.027	375.66
376.475	239.9
376.924	298.42
377.373	267.99
377.822	289.06
378.27	338.21
378.719	317.14
379.167	345.23
379.616	331.19
380.064	373.32
380.512	342.89
380.961	373.32
381.409	345.23
381.857	347.57
382.305	312.46
382.753	298.42
383.201	307.78
383.649	331.19
384.097	366.29
384.545	394.38
384.992	279.69
385.44	321.82
385.888	338.21
386.335	338.21
386.783	221.18
387.231	359.27
387.678	361.61
388.125	328.85
388.573	361.61
389.02	354.59
389.467	239.9
389.914	289.06
390.362	305.44
390.809	312.46
391.256	232.88
391.703	312.46
392.15	303.1
392.596	354.59
393.043	328.85
393.49	317.14
393.937	319.48
394.383	375.66
394.83	293.74
395.276	296.08
395.723	382.68
396.169	282.03
396.616	282.03
397.062	333.53
397.508	293.74
397.954	359.27
398.401	263.31
398.847	342.89
399.293	293.74
399.739	389.7
400.185	286.72
400.631	328.85
401.076	289.06
401.522	300.76
401.968	326.5
402.414	270.33
402.859	267.99
403.305	293.74
403.75	347.57
404.196	317.14
404.641	284.38
405.086	293.74
405.532	394.38
405.977	296.08
406.422	275.01
406.867	324.16
407.312	286.72
407.757	333.53
408.202	378
408.647	300.76
409.092	382.68
409.537	321.82
409.982	335.87
410.426	314.8
410.871	352.25
411.316	378
411.76	319.48
412.205	354.59
412.649	321.82
413.093	340.55
413.538	347.57
413.982	370.97
414.426	401.4
414.87	324.16
415.314	338.21
415.758	300.76
416.202	326.5
416.646	340.55
417.09	363.95
417.534	328.85
417.978	300.76
418.421	303.1
418.865	333.53
419.309	363.95
419.752	431.83
420.196	314.8
420.639	328.85
421.083	359.27
421.526	312.46
421.969	352.25
422.412	345.23
422.856	380.34
423.299	338.21
423.742	375.66
424.185	340.55
424.628	368.63
425.071	312.46
425.513	338.21
425.956	342.89
426.399	305.44
426.842	319.48
427.284	356.93
427.727	352.25
428.169	331.19
428.612	303.1
429.054	319.48
429.497	324.16
429.939	335.87
430.381	300.76
430.823	370.97
431.265	310.12
431.707	321.82
432.149	312.46
432.591	403.74
433.033	256.29
433.475	319.48
433.917	310.12
434.359	333.53
434.8	277.35
435.242	389.7
435.684	310.12
436.125	356.93
436.567	307.78
437.008	312.46
437.449	345.23
437.891	370.97
438.332	305.44
438.773	293.74
439.214	253.95
439.656	321.82
440.097	326.5
440.538	317.14
440.978	263.31
441.419	286.72
441.86	319.48
442.301	317.14
442.742	298.42
443.182	389.7
443.623	354.59
444.063	282.03
444.504	293.74
444.944	331.19
445.385	340.55
445.825	359.27
446.265	361.61
446.706	296.08
447.146	347.57
447.586	352.25
448.026	338.21
448.466	368.63
448.906	387.36
449.346	310.12
449.786	368.63
450.225	291.4
450.665	333.53
451.105	342.89
451.544	385.02
451.984	300.76
452.424	305.44
452.863	406.08
453.302	251.61
453.742	356.93
454.181	366.29
454.62	349.91
455.059	286.72
455.499	326.5
455.938	375.66
456.377	319.48
456.816	408.42
457.254	279.69
457.693	387.36
458.132	324.16
458.571	328.85
459.01	345.23
459.448	345.23
459.887	352.25
460.325	359.27
460.764	272.67
461.202	326.5
461.641	378
462.079	363.95
462.517	380.34
462.955	338.21
463.393	359.27
463.832	342.89
464.27	368.63
464.708	312.46
465.145	338.21
465.583	324.16
466.021	293.74
466.459	352.25
466.897	403.74
467.334	342.89
467.772	345.23
468.209	328.85
468.647	293.74
469.084	305.44
469.522	340.55
469.959	265.65
470.396	300.76
470.833	380.34
471.271	326.5
471.708	338.21
472.145	352.25
472.582	296.08
473.019	312.46
473.456	289.06
473.892	324.16
474.329	363.95
474.766	378
475.202	319.48
475.639	326.5
476.076	312.46
476.512	415.45
476.949	263.31
477.385	342.89
477.821	354.59
478.258	300.76
478.694	239.9
479.13	324.16
479.566	307.78
480.002	293.74
480.438	338.21
480.874	303.1
481.31	373.32
481.746	279.69
482.181	408.42
482.617	380.34
483.053	286.72
483.488	335.87
483.924	256.29
484.36	321.82
484.795	340.55
485.23	317.14
485.666	317.14
486.101	352.25
486.536	347.57
486.971	319.48
487.407	256.29
487.842	363.95
488.277	298.42
488.712	277.35
489.146	319.48
489.581	328.85
490.016	359.27
490.451	312.46
490.885	378
491.32	300.76
491.755	356.93
492.189	314.8
492.624	361.61
493.058	333.53
493.492	300.76
493.927	300.76
494.361	293.74
494.795	312.46
495.229	293.74
495.663	366.29
496.097	291.4
496.531	310.12
496.965	375.66
497.399	291.4
497.833	300.76
498.266	328.85
498.7	328.85
499.134	328.85
499.567	338.21
500.001	305.44
500.434	361.61
500.868	361.61
501.301	342.89
501.734	282.03
502.168	275.01
502.601	321.82
503.034	312.46
503.467	359.27
503.9	347.57
504.333	352.25
504.766	305.44
505.199	286.72
505.632	305.44
506.064	296.08
506.497	326.5
506.93	289.06
507.362	307.78
507.795	345.23
508.227	382.68
508.66	317.14
509.092	326.5
509.524	321.82
509.956	265.65
510.389	349.91
510.821	317.14
511.253	284.38
511.685	291.4
512.117	328.85
512.549	277.35
512.981	307.78
513.412	352.25
513.844	328.85
514.276	319.48
514.707	349.91
515.139	345.23
515.571	363.95
516.002	296.08
516.433	361.61
516.865	267.99
517.296	335.87
517.727	335.87
518.159	326.5
518.59	326.5
519.021	359.27
519.452	368.63
519.883	368.63
520.314	340.55
520.744	326.5
521.175	314.8
521.606	338.21
522.037	300.76
522.467	347.57
522.898	349.91
523.328	340.55
523.759	310.12
524.189	300.76
524.62	300.76
525.05	338.21
525.48	338.21
525.91	342.89
526.341	314.8
526.771	361.61
527.201	277.35
527.631	277.35
528.061	279.69
528.49	368.63
528.92	368.63
529.35	359.27
529.78	335.87
530.209	312.46
530.639	338.21
531.068	324.16
531.498	366.29
531.927	303.1
532.357	342.89
532.786	286.72
533.215	326.5
533.644	361.61
534.074	258.63
534.503	307.78
534.932	363.95
535.361	284.38
535.79	349.91
536.218	331.19
536.647	335.87
537.076	326.5
537.505	370.97
537.933	403.74
538.362	328.85
538.79	303.1
539.219	331.19
539.647	335.87
540.076	333.53
540.504	436.51
540.932	352.25
541.36	314.8
541.788	345.23
542.217	293.74
542.645	340.55
543.073	289.06
543.5	354.59
543.928	354.59
544.356	333.53
544.784	310.12
545.211	303.1
545.639	368.63
546.067	359.27
546.494	349.91
546.922	347.57
547.349	300.76
547.776	403.74
548.204	282.03
548.631	314.8
549.058	319.48
549.485	366.29
549.912	319.48
550.339	352.25
550.766	326.5
551.193	305.44
551.62	347.57
552.047	403.74
552.474	279.69
552.9	359.27
553.327	368.63
553.754	324.16
554.18	282.03
554.607	284.38
555.033	319.48
555.459	286.72
555.886	317.14
556.312	314.8
556.738	352.25
557.164	342.89
557.59	382.68
558.016	303.1
558.442	335.87
558.868	363.95
559.294	321.82
559.72	265.65
560.145	356.93
560.571	349.91
560.997	284.38
561.422	310.12
561.848	305.44
562.273	352.25
562.699	352.25
563.124	352.25
563.549	389.7
563.974	382.68
564.4	312.46
564.825	275.01
565.25	359.27
565.675	349.91
566.1	317.14
566.525	389.7
566.95	352.25
567.374	347.57
567.799	370.97
568.224	298.42
568.648	317.14
569.073	331.19
569.497	347.57
569.922	335.87
570.346	270.33
570.771	307.78
571.195	300.76
571.619	347.57
572.043	321.82
572.467	373.32
572.891	326.5
573.315	324.16
573.739	338.21
574.163	375.66
574.587	293.74
575.011	373.32
575.435	265.65
575.858	347.57
576.282	319.48
576.705	319.48
577.129	317.14
577.552	305.44
577.976	310.12
578.399	291.4
578.822	385.02
579.245	382.68
579.669	331.19
580.092	347.57
580.515	375.66
580.938	300.76
581.361	265.65
581.784	366.29
582.206	366.29
582.629	328.85
583.052	356.93
583.474	338.21
583.897	375.66
584.32	328.85
584.742	286.72
585.165	333.53
585.587	356.93
586.009	286.72
586.431	310.12
586.854	331.19
587.276	289.06
587.698	300.76
588.12	284.38
588.542	366.29
588.964	361.61
589.386	354.59
589.807	338.21
590.229	314.8
590.651	342.89
591.073	242.25
591.494	270.33
591.916	296.08
592.337	307.78
592.759	335.87
593.18	307.78
593.601	307.78
594.022	312.46
594.444	368.63
594.865	317.14
595.286	298.42
595.707	368.63
596.128	361.61
596.549	361.61
596.97	354.59
597.39	289.06
597.811	328.85
598.232	312.46
598.652	321.82
599.073	373.32
599.494	345.23
599.914	417.79
600.334	347.57
600.755	380.34
601.175	326.5
601.595	345.23
602.015	317.14
602.436	342.89
602.856	392.04
603.276	349.91
603.696	331.19
604.115	354.59
604.535	340.55
604.955	317.14
605.375	380.34
605.794	333.53
606.214	340.55
606.634	286.72
607.053	321.82
607.473	284.38
607.892	396.72
608.311	347.57
608.731	284.38
609.15	310.12
609.569	356.93
609.988	324.16
610.407	333.53
610.826	263.31
611.245	305.44
611.664	305.44
612.083	335.87
612.501	387.36
612.92	319.48
613.339	307.78
613.757	270.33
614.176	331.19
614.594	380.34
615.013	300.76
615.431	293.74
615.85	242.25
616.268	338.21
616.686	307.78
617.104	291.4
617.522	352.25
617.94	382.68
618.358	324.16
618.776	307.78
619.194	319.48
619.612	368.63
620.03	307.78
620.447	260.97
620.865	335.87
621.282	338.21
621.7	413.1
622.117	349.91
622.535	298.42
622.952	256.29
623.369	324.16
623.787	342.89
624.204	310.12
624.621	307.78
625.038	314.8
625.455	335.87
625.872	303.1
626.289	300.76
626.706	368.63
627.123	251.61
627.539	284.38
627.956	342.89
628.373	338.21
628.789	366.29
629.206	270.33
629.622	310.12
630.038	340.55
630.455	282.03
630.871	356.93
631.287	321.82
631.703	253.95
632.12	342.89
632.536	291.4
632.952	352.25
633.368	296.08
633.783	305.44
634.199	392.04
634.615	375.66
635.031	256.29
635.446	303.1
635.862	312.46
636.277	275.01
636.693	305.44
637.108	263.31
637.524	291.4
637.939	305.44
638.354	305.44
638.77	326.5
639.185	277.35
639.6	291.4
640.015	298.42
640.43	335.87
640.845	289.06
641.259	321.82
641.674	296.08
642.089	387.36
642.504	317.14
642.918	303.1
643.333	277.35
643.747	303.1
644.162	338.21
644.576	284.38
644.991	277.35
645.405	373.32
645.819	356.93
646.233	305.44
646.647	296.08
647.061	307.78
647.475	321.82
647.889	347.57
648.303	298.42
648.717	387.36
649.131	298.42
649.545	333.53
649.958	338.21
650.372	340.55
650.785	324.16
651.199	321.82
651.612	340.55
652.026	319.48
652.439	385.02
652.852	321.82
653.266	249.27
653.679	253.95
654.092	319.48
654.505	272.67
654.918	286.72
655.331	335.87
655.744	361.61
656.156	422.47
656.569	310.12
656.982	340.55
657.394	279.69
657.807	401.4
658.22	272.67
658.632	314.8
659.044	305.44
659.457	284.38
659.869	279.69
660.281	370.97
660.693	317.14
661.106	321.82
661.518	342.89
661.93	289.06
662.342	321.82
662.754	335.87
663.165	361.61
663.577	312.46
663.989	331.19
664.401	272.67
664.812	359.27
665.224	275.01
665.635	272.67
666.047	319.48
666.458	319.48
666.869	347.57
667.281	314.8
667.692	324.16
668.103	361.61
668.514	267.99
668.925	314.8
669.336	354.59
669.747	303.1
670.158	349.91
670.569	307.78
670.979	279.69
671.39	345.23
671.801	342.89
672.211	305.44
672.622	279.69
673.032	265.65
673.443	378
673.853	335.87
674.263	289.06
674.674	317.14
675.084	380.34
675.494	286.72
675.904	317.14
676.314	340.55
676.724	303.1
677.134	331.19
677.544	298.42
677.953	363.95
678.363	314.8
678.773	338.21
679.182	328.85
679.592	345.23
680.001	340.55
680.411	303.1
680.82	333.53
681.23	296.08
681.639	317.14
682.048	310.12
682.457	319.48
682.866	289.06
683.275	284.38
683.684	340.55
684.093	352.25
684.502	296.08
684.911	307.78
685.32	366.29
685.728	347.57
686.137	265.65
686.546	293.74
686.954	312.46
687.363	356.93
687.771	300.76
688.179	300.76
688.588	286.72
688.996	333.53
689.404	370.97
689.812	399.06
690.22	291.4
690.628	359.27
691.036	331.19
691.444	359.27
691.852	270.33
692.26	305.44
692.667	380.34
693.075	324.16
693.483	356.93
693.89	349.91
694.298	359.27
694.705	340.55
695.112	387.36
695.52	427.15
695.927	370.97
696.334	342.89
696.741	296.08
697.148	314.8
697.555	303.1
697.962	293.74
698.369	378
698.776	345.23
699.183	349.91
699.59	319.48
699.996	310.12
700.403	286.72
700.81	331.19
701.216	300.76
701.623	338.21
702.029	333.53
702.435	312.46
702.842	347.57
703.248	328.85
703.654	296.08
704.06	373.32
704.466	319.48
704.872	356.93
705.278	338.21
705.684	307.78
706.09	298.42
706.496	300.76
706.901	375.66
707.307	347.57
707.712	303.1
708.118	223.52
708.523	324.16
708.929	347.57
709.334	282.03
709.74	305.44
710.145	317.14
710.55	293.74
710.955	291.4
711.36	333.53
711.765	363.95
712.17	321.82
712.575	310.12
712.98	731.42
713.385	307.78
713.789	275.01
714.194	338.21
714.599	328.85
715.003	263.31
715.408	354.59
715.812	328.85
716.217	300.76
716.621	352.25
717.025	394.38
717.429	246.93
717.833	314.8
718.238	338.21
718.642	420.13
719.046	291.4
719.449	370.97
719.853	368.63
720.257	333.53
720.661	303.1
721.065	361.61
721.468	340.55
721.872	366.29
722.275	387.36
722.679	239.9
723.082	307.78
723.485	338.21
723.889	361.61
724.292	375.66
724.695	345.23
725.098	335.87
725.501	361.61
725.904	317.14
726.307	324.16
726.71	382.68
727.113	335.87
727.516	256.29
727.918	303.1
728.321	275.01
728.724	303.1
729.126	321.82
729.529	366.29
729.931	385.02
730.333	338.21
730.736	221.18
731.138	319.48
731.54	319.48
731.942	319.48
732.344	314.8
732.746	289.06
733.148	300.76
733.55	385.02
733.952	352.25
734.354	293.74
734.756	298.42
735.157	305.44
735.559	342.89
735.96	279.69
736.362	319.48
736.763	284.38
737.165	359.27
737.566	307.78
737.967	317.14
738.368	361.61
738.77	267.99
739.171	342.89
739.572	359.27
739.973	345.23
740.374	270.33
740.774	331.19
741.175	368.63
741.576	366.29
741.977	317.14
742.377	284.38
742.778	305.44
743.178	267.99
743.579	328.85
743.979	326.5
744.379	366.29
744.78	317.14
745.18	293.74
745.58	272.67
745.98	256.29
746.38	366.29
746.78	256.29
747.18	291.4
747.58	314.8
747.98	314.8
748.38	282.03
748.779	286.72
749.179	352.25
749.578	307.78
749.978	378
750.377	366.29
750.777	312.46
751.176	289.06
751.575	321.82
751.975	352.25
752.374	324.16
752.773	342.89
753.172	331.19
753.571	291.4
753.97	284.38
754.369	298.42
754.768	349.91
755.166	380.34
755.565	342.89
755.964	277.35
756.362	321.82
756.761	328.85
757.159	345.23
757.558	279.69
757.956	326.5
758.354	319.48
758.753	347.57
759.151	387.36
759.549	321.82
759.947	340.55
760.345	352.25
760.743	319.48
761.141	333.53
761.539	347.57
761.936	347.57
762.334	275.01
762.732	319.48
763.129	275.01
763.527	380.34
763.924	375.66
764.322	324.16
764.719	310.12
765.117	272.67
765.514	340.55
765.911	361.61
766.308	378
766.705	328.85
767.102	328.85
767.499	319.48
767.896	349.91
768.293	314.8
768.69	286.72
769.086	291.4
769.483	314.8
769.88	291.4
770.276	321.82
770.673	307.78
771.069	347.57
771.466	298.42
771.862	286.72
772.258	310.12
772.654	326.5
773.05	338.21
773.447	340.55
773.843	335.87
774.239	366.29
774.634	321.82
775.03	296.08
775.426	314.8
775.822	303.1
776.218	296.08
776.613	333.53
777.009	321.82
777.404	284.38
777.8	305.44
778.195	251.61
778.59	359.27
778.986	305.44
779.381	342.89
779.776	354.59
780.171	312.46
780.566	370.97
780.961	307.78
781.356	392.04
781.751	368.63
782.146	286.72
782.54	298.42
782.935	335.87
783.33	279.69
783.724	296.08
784.119	275.01
784.513	298.42
784.908	298.42
785.302	279.69
785.696	335.87
786.09	328.85
786.485	363.95
786.879	331.19
787.273	317.14
787.667	307.78
788.061	324.16
788.454	303.1
788.848	291.4
789.242	363.95
789.636	363.95
790.029	368.63
790.423	300.76
790.816	314.8
791.21	345.23
791.603	265.65
791.997	333.53
792.39	296.08
792.783	293.74
793.176	326.5
793.569	380.34
793.962	349.91
794.355	279.69
794.748	356.93
795.141	354.59
795.534	321.82
795.927	253.95
796.319	345.23
796.712	300.76
797.105	237.56
797.497	328.85
797.89	342.89
798.282	321.82
798.674	352.25
799.067	338.21
799.459	333.53
799.851	312.46
800.243	389.7
800.635	289.06
801.027	277.35
801.419	326.5
801.811	342.89
802.203	335.87
802.594	298.42
802.986	298.42
803.378	321.82
803.769	284.38
804.161	284.38
804.552	307.78
804.944	345.23
805.335	324.16
805.726	361.61
806.118	356.93
806.509	284.38
806.9	335.87
807.291	321.82
807.682	303.1
808.073	300.76
808.464	291.4
808.855	331.19
809.245	286.72
809.636	328.85
810.027	314.8
810.417	342.89
810.808	296.08
811.198	382.68
811.589	296.08
811.979	368.63
812.369	331.19
812.759	359.27
813.15	303.1
813.54	303.1
813.93	347.57
814.32	361.61
814.71	328.85
815.1	300.76
815.489	296.08
815.879	286.72
816.269	326.5
816.658	347.57
817.048	342.89
817.438	363.95
817.827	312.46
818.216	354.59
818.606	310.12
818.995	345.23
819.384	340.55
819.773	333.53
820.163	354.59
820.552	291.4
820.941	312.46
821.33	291.4
821.718	326.5
822.107	382.68
822.496	352.25
822.885	403.74
823.273	342.89
823.662	270.33
824.05	382.68
824.439	349.91
824.827	282.03
825.216	265.65
825.604	298.42
825.992	279.69
826.38	342.89
826.768	370.97
827.156	282.03
827.544	340.55
827.932	237.56
828.32	349.91
828.708	298.42
829.096	324.16
829.483	338.21
829.871	282.03
830.259	291.4
830.646	349.91
831.034	312.46
831.421	235.22
831.808	333.53
832.196	370.97
832.583	291.4
832.97	272.67
833.357	282.03
833.744	312.46
834.131	340.55
834.518	366.29
834.905	282.03
835.292	342.89
835.678	300.76
836.065	319.48
836.452	291.4
836.838	305.44
837.225	378
837.611	328.85
837.998	342.89
838.384	263.31
838.77	303.1
839.157	258.63
839.543	352.25
839.929	307.78
840.315	263.31
840.701	328.85
841.087	298.42
841.473	378
841.858	406.08
842.244	286.72
842.63	296.08
843.015	232.88
843.401	380.34
843.787	291.4
844.172	317.14
844.557	317.14
844.943	265.65
845.328	321.82
845.713	258.63
846.098	363.95
846.483	289.06
846.868	296.08
847.253	314.8
847.638	345.23
848.023	303.1
848.408	378
848.793	340.55
849.177	359.27
849.562	401.4
849.947	314.8
850.331	324.16
850.715	352.25
851.1	310.12
851.484	368.63
851.868	345.23
852.253	321.82
852.637	307.78
853.021	305.44
853.405	333.53
853.789	303.1
854.173	342.89
854.557	321.82
854.94	321.82
855.324	298.42
855.708	361.61
856.091	326.5
856.475	356.93
856.858	319.48
857.242	378
857.625	279.69
858.009	331.19
858.392	356.93
858.775	310.12
859.158	221.18
859.541	368.63
859.924	328.85
860.307	380.34
860.69	324.16
861.073	331.19
861.456	305.44
861.838	272.67
862.221	340.55
862.604	354.59
862.986	338.21
863.369	298.42
863.751	286.72
864.133	319.48
864.516	293.74
864.898	310.12
865.28	368.63
865.662	312.46
866.044	310.12
866.426	399.06
866.808	370.97
867.19	366.29
867.572	375.66
867.954	258.63
868.336	326.5
868.717	289.06
869.099	272.67
869.48	305.44
869.862	335.87
870.243	321.82
870.625	270.33
871.006	342.89
871.387	345.23
871.768	284.38
872.149	370.97
872.53	373.32
872.911	321.82
873.292	331.19
873.673	352.25
874.054	345.23
874.435	317.14
874.815	282.03
875.196	282.03
875.577	326.5
875.957	256.29
876.338	289.06
876.718	338.21
877.098	253.95
877.479	312.46
877.859	305.44
878.239	307.78
878.619	314.8
878.999	408.42
879.379	389.7
879.759	312.46
880.139	321.82
880.519	317.14
880.898	298.42
881.278	354.59
881.658	272.67
882.037	333.53
882.417	349.91
882.796	340.55
883.176	303.1
883.555	319.48
883.934	270.33
884.313	352.25
884.693	338.21
885.072	347.57
885.451	342.89
885.83	293.74
886.209	406.08
886.587	375.66
886.966	328.85
887.345	298.42
887.724	333.53
888.102	338.21
888.481	375.66
888.859	305.44
889.238	321.82
889.616	331.19
889.994	347.57
890.373	305.44
890.751	237.56
891.129	342.89
891.507	235.22
891.885	305.44
892.263	303.1
892.641	282.03
893.019	270.33
893.396	328.85
893.774	307.78
894.152	314.8
894.529	277.35
894.907	256.29
895.284	324.16
895.662	312.46
896.039	265.65
896.416	317.14
896.794	338.21
897.171	307.78
897.548	314.8
897.925	296.08
898.302	284.38
898.679	319.48
899.056	354.59
899.433	303.1
899.809	387.36
900.186	347.57
900.563	347.57
900.939	326.5
901.316	370.97
901.692	361.61
902.069	300.76
902.445	389.7
902.821	359.27
903.197	349.91
903.574	335.87
903.95	338.21
904.326	317.14
904.702	352.25
905.078	380.34
905.454	331.19
905.829	324.16
906.205	312.46
906.581	359.27
906.956	378
907.332	314.8
907.707	289.06
908.083	314.8
908.458	310.12
908.833	286.72
909.209	265.65
909.584	331.19
909.959	340.55
910.334	300.76
910.709	345.23
911.084	282.03
911.459	333.53
911.834	333.53
912.209	305.44
912.583	331.19
912.958	249.27
913.333	331.19
913.707	312.46
914.082	307.78
914.456	272.67
914.83	326.5
915.205	300.76
915.579	319.48
915.953	340.55
916.327	310.12
916.701	293.74
917.075	361.61
917.449	310.12
917.823	314.8
918.197	338.21
918.571	333.53
918.944	340.55
919.318	342.89
919.692	303.1
920.065	249.27
920.438	378
920.812	263.31
921.185	326.5
921.558	356.93
921.932	307.78
922.305	342.89
922.678	361.61
923.051	349.91
923.424	253.95
923.797	382.68
924.17	349.91
924.542	317.14
924.915	267.99
925.288	244.59
925.661	279.69
926.033	319.48
926.406	321.82
926.778	331.19
927.15	272.67
927.523	340.55
927.895	328.85
928.267	282.03
928.639	366.29
929.011	296.08
929.383	286.72
929.755	305.44
930.127	328.85
930.499	296.08
930.871	303.1
931.242	349.91
931.614	359.27
931.986	305.44
932.357	270.33
932.729	328.85
933.1	352.25
933.471	370.97
933.843	232.88
934.214	340.55
934.585	314.8
934.956	321.82
935.327	307.78
935.698	289.06
936.069	361.61
936.44	401.4
936.811	333.53
937.182	321.82
937.552	349.91
937.923	256.29
938.293	331.19
938.664	242.25
939.034	338.21
939.405	277.35
939.775	310.12
940.145	375.66
940.516	312.46
940.886	314.8
941.256	335.87
941.626	324.16
941.996	356.93
942.366	319.48
942.735	363.95
943.105	368.63
943.475	303.1
943.845	342.89
944.214	338.21
944.584	335.87
944.953	324.16
945.323	310.12
945.692	265.65
946.061	272.67
946.43	335.87
946.8	349.91
947.169	314.8
947.538	338.21
947.907	310.12
948.276	317.14
948.645	338.21
949.013	293.74
949.382	291.4
949.751	338.21
950.119	312.46
950.488	328.85
950.857	305.44
951.225	286.72
951.593	342.89
951.962	427.15
952.33	305.44
952.698	331.19
953.066	363.95
953.434	317.14
953.802	321.82
954.17	293.74
954.538	272.67
954.906	317.14
955.274	321.82
955.642	300.76
956.009	296.08
956.377	296.08
956.744	354.59
957.112	305.44
957.479	356.93
957.847	289.06
958.214	373.32
958.581	326.5
958.948	359.27
959.315	300.76
959.683	321.82
960.05	363.95
960.416	326.5
960.783	310.12
961.15	333.53
961.517	333.53
961.884	326.5
962.25	312.46
962.617	338.21
962.983	331.19
963.35	270.33
963.716	307.78
964.082	361.61
964.449	356.93
964.815	356.93
965.181	335.87
965.547	284.38
965.913	270.33
966.279	314.8
966.645	291.4
967.011	275.01
967.377	291.4
967.742	340.55
968.108	312.46
968.474	319.48
968.839	361.61
969.205	314.8
969.57	324.16
969.935	338.21
970.301	347.57
970.666	293.74
971.031	340.55
971.396	340.55
971.761	300.76
972.126	338.21
972.491	338.21
972.856	300.76
973.221	352.25
973.586	333.53
973.95	272.67
974.315	296.08
974.679	305.44
975.044	321.82
975.408	293.74
975.773	267.99
976.137	279.69
976.501	345.23
976.866	310.12
977.23	338.21
977.594	349.91
977.958	340.55
978.322	303.1
978.686	338.21
979.049	380.34
979.413	296.08
979.777	370.97
980.141	324.16
980.504	352.25
980.868	326.5
981.231	303.1
981.595	331.19
981.958	298.42
982.321	289.06
982.684	307.78
983.048	342.89
983.411	338.21
983.774	289.06
984.137	275.01
984.5	340.55
984.862	312.46
985.225	375.66
985.588	275.01
985.951	296.08
986.313	333.53
986.676	305.44
987.038	328.85
987.401	328.85
987.763	312.46
988.125	354.59
988.488	363.95
988.85	305.44
989.212	300.76
989.574	282.03
989.936	298.42
990.298	265.65
990.66	368.63
991.022	333.53
991.383	347.57
991.745	345.23
992.107	385.02
992.468	408.42
992.83	293.74
993.191	352.25
993.553	373.32
993.914	347.57
994.275	303.1
994.637	347.57
994.998	396.72
995.359	340.55
995.72	272.67
996.081	310.12
996.442	253.95
996.803	319.48
997.163	375.66
997.524	253.95
997.885	352.25
998.245	314.8
998.606	286.72
998.966	314.8
999.327	305.44
999.687	293.74
1000.047	349.91
1000.408	321.82
1000.768	284.38
1001.128	331.19
1001.488	296.08
1001.848	361.61
1002.208	319.48
1002.568	310.12
1002.927	286.72
1003.287	298.42
1003.647	345.23
1004.007	324.16
1004.366	296.08
1004.726	326.5
1005.085	345.23
1005.444	317.14
1005.804	303.1
1006.163	321.82
1006.522	321.82
1006.881	317.14
1007.24	260.97
1007.599	272.67
1007.958	347.57
1008.317	338.21
1008.676	317.14
1009.035	317.14
1009.393	328.85
1009.752	300.76
1010.111	305.44
1010.469	303.1
1010.828	363.95
1011.186	291.4
1011.544	282.03
1011.903	298.42
1012.261	314.8
1012.619	260.97
1012.977	324.16
1013.335	352.25
1013.693	312.46
1014.051	340.55
1014.409	321.82
1014.767	228.2
1015.124	378
1015.482	333.53
1015.84	356.93
1016.197	300.76
1016.555	356.93
1016.912	356.93
1017.269	335.87
1017.627	328.85
1017.984	305.44
1018.341	333.53
1018.698	291.4
1019.055	331.19
1019.412	267.99
1019.769	363.95
1020.126	368.63
1020.483	375.66
1020.84	286.72
1021.196	335.87
1021.553	331.19
1021.909	319.48
1022.266	338.21
1022.622	335.87
1022.979	326.5
1023.335	272.67
1023.691	305.44
1024.047	296.08
1024.404	340.55
1024.76	335.87
1025.116	319.48
1025.472	326.5
1025.827	331.19
1026.183	324.16
1026.539	298.42
1026.895	347.57
1027.25	307.78
1027.606	328.85
1027.961	354.59
1028.317	256.29
1028.672	324.16
1029.028	303.1
1029.383	333.53
1029.738	359.27
1030.093	366.29
1030.448	265.65
1030.803	272.67
1031.158	317.14
1031.513	286.72
1031.868	324.16
1032.223	352.25
1032.577	352.25
1032.932	293.74
1033.287	312.46
1033.641	293.74
1033.996	284.38
1034.35	317.14
1034.704	296.08
1035.059	296.08
1035.413	375.66
1035.767	375.66
1036.121	375.66
