Data from Al_FLMS009871__985__16-21-59-318.txt Node

Date: Fri Mar 08 16:21:59 CST 2024
User: pe5414po
Spectrometer: FLMS00987
Trigger mode: 0
Integration Time (sec): 1.000000E-1
Scans to average: 1
Electric dark correction enabled: true
Nonlinearity correction enabled: false
Boxcar width: 0
XAxis mode: Wavelengths
Number of Pixels in Spectrum: 2048
>>>>>Begin Spectral Data<<<<<
188.938	-65.53
189.409	-65.53
189.879	-65.53
190.349	-126.39
190.819	-102.98
191.29	-88.94
191.76	-114.69
192.23	-93.62
192.7	-53.83
193.17	-93.62
193.64	-81.92
194.109	-60.85
194.579	-65.53
195.049	-25.75
195.519	37.45
195.988	30.43
196.458	110.01
196.927	74.9
197.397	100.64
197.866	121.71
198.336	203.63
198.805	168.52
199.274	182.56
199.744	126.39
200.213	168.52
200.682	191.92
201.151	238.73
201.62	245.76
202.089	198.95
202.558	196.61
203.027	287.89
203.495	269.16
203.964	255.12
204.433	241.08
204.902	234.05
205.37	262.14
205.839	285.55
206.307	245.76
206.776	266.82
207.244	271.5
207.712	313.63
208.181	325.33
208.649	278.52
209.117	278.52
209.585	360.44
210.053	236.39
210.521	252.78
210.989	252.78
211.457	243.42
211.925	255.12
212.393	250.44
212.861	257.46
213.328	294.91
213.796	248.1
214.264	292.57
214.731	280.86
215.199	325.33
215.666	301.93
216.133	236.39
216.601	189.58
217.068	248.1
217.535	182.56
218.003	241.08
218.47	283.2
218.937	278.52
219.404	227.03
219.871	217.67
220.338	182.56
220.805	287.89
221.271	220.01
221.738	227.03
222.205	330.02
222.671	297.25
223.138	238.73
223.605	250.44
224.071	255.12
224.538	297.25
225.004	220.01
225.47	273.84
225.937	299.59
226.403	180.22
226.869	313.63
227.335	269.16
227.801	241.08
228.267	173.2
228.733	287.89
229.199	255.12
229.665	229.37
230.131	290.23
230.597	273.84
231.062	238.73
231.528	212.99
231.994	287.89
232.459	238.73
232.925	245.76
233.39	297.25
233.856	220.01
234.321	163.84
234.786	236.39
235.252	273.84
235.717	290.23
236.182	203.63
236.647	212.99
237.112	259.8
237.577	306.61
238.042	304.27
238.507	271.5
238.972	337.04
239.436	220.01
239.901	308.95
240.366	297.25
240.83	262.14
241.295	262.14
241.76	259.8
242.224	257.46
242.688	215.33
243.153	238.73
243.617	252.78
244.081	337.04
244.545	334.7
245.01	229.37
245.474	306.61
245.938	266.82
246.402	304.27
246.866	285.55
247.33	259.8
247.793	262.14
248.257	264.48
248.721	259.8
249.185	278.52
249.648	280.86
250.112	308.95
250.575	231.71
251.039	285.55
251.502	262.14
251.965	262.14
252.429	220.01
252.892	271.5
253.355	311.29
253.818	266.82
254.281	262.14
254.744	255.12
255.207	304.27
255.67	212.99
256.133	292.57
256.596	243.42
257.059	320.65
257.522	283.2
257.984	294.91
258.447	194.26
258.909	280.86
259.372	278.52
259.834	255.12
260.297	203.63
260.759	280.86
261.221	285.55
261.684	271.5
262.146	278.52
262.608	299.59
263.07	299.59
263.532	283.2
263.994	308.95
264.456	234.05
264.918	271.5
265.38	308.95
265.842	241.08
266.303	271.5
266.765	294.91
267.227	248.1
267.688	318.31
268.15	276.18
268.611	220.01
269.072	273.84
269.534	292.57
269.995	229.37
270.456	278.52
270.918	297.25
271.379	334.7
271.84	297.25
272.301	344.06
272.762	266.82
273.223	337.04
273.684	257.46
274.144	177.88
274.605	299.59
275.066	283.2
275.527	308.95
275.987	297.25
276.448	271.5
276.908	313.63
277.369	311.29
277.829	234.05
278.289	280.86
278.75	299.59
279.21	198.95
279.67	334.7
280.13	290.23
280.59	266.82
281.05	266.82
281.51	283.2
281.97	280.86
282.43	271.5
282.89	245.76
283.35	241.08
283.809	283.2
284.269	276.18
284.729	243.42
285.188	287.89
285.648	271.5
286.107	269.16
286.567	311.29
287.026	313.63
287.485	313.63
287.944	299.59
288.404	294.91
288.863	273.84
289.322	217.67
289.781	297.25
290.24	262.14
290.699	287.89
291.158	283.2
291.616	311.29
292.075	294.91
292.534	322.99
292.992	224.69
293.451	241.08
293.91	292.57
294.368	278.52
294.827	287.89
295.285	351.08
295.743	266.82
296.202	278.52
296.66	304.27
297.118	313.63
297.576	320.65
298.034	283.2
298.492	271.5
298.95	259.8
299.408	273.84
299.866	264.48
300.324	255.12
300.781	248.1
301.239	257.46
301.697	320.65
302.154	283.2
302.612	269.16
303.069	301.93
303.527	320.65
303.984	315.97
304.441	297.25
304.899	299.59
305.356	306.61
305.813	386.19
306.27	299.59
306.727	299.59
307.184	280.86
307.641	313.63
308.098	297.25
308.555	322.99
309.012	341.72
309.468	299.59
309.925	245.76
310.382	285.55
310.838	241.08
311.295	334.7
311.751	318.31
312.208	287.89
312.664	264.48
313.12	252.78
313.577	337.04
314.033	280.86
314.489	257.46
314.945	320.65
315.401	355.76
315.857	229.37
316.313	271.5
316.769	231.71
317.225	320.65
317.681	285.55
318.136	231.71
318.592	285.55
319.048	299.59
319.503	212.99
319.959	315.97
320.414	131.07
320.869	325.33
321.325	238.73
321.78	276.18
322.235	337.04
322.691	248.1
323.146	234.05
323.601	287.89
324.056	292.57
324.511	304.27
324.966	320.65
325.421	290.23
325.875	271.5
326.33	283.2
326.785	306.61
327.24	278.52
327.694	304.27
328.149	346.4
328.603	334.7
329.058	248.1
329.512	308.95
329.966	264.48
330.421	243.42
330.875	262.14
331.329	255.12
331.783	294.91
332.237	287.89
332.691	346.4
333.145	248.1
333.599	297.25
334.053	297.25
334.507	304.27
334.96	257.46
335.414	320.65
335.868	322.99
336.321	327.68
336.775	325.33
337.228	203.63
337.682	344.06
338.135	269.16
338.588	327.68
339.042	327.68
339.495	280.86
339.948	304.27
340.401	304.27
340.854	318.31
341.307	327.68
341.76	322.99
342.213	287.89
342.666	227.03
343.119	262.14
343.571	262.14
344.024	297.25
344.477	327.68
344.929	320.65
345.382	304.27
345.834	280.86
346.287	332.36
346.739	276.18
347.191	264.48
347.644	334.7
348.096	308.95
348.548	278.52
349	297.25
349.452	334.7
349.904	304.27
350.356	285.55
350.808	290.23
351.26	248.1
351.711	299.59
352.163	259.8
352.615	236.39
353.066	322.99
353.518	259.8
353.969	313.63
354.421	337.04
354.872	255.12
355.324	358.1
355.775	327.68
356.226	325.33
356.677	299.59
357.128	227.03
357.579	255.12
358.03	266.82
358.481	294.91
358.932	355.76
359.383	315.97
359.834	264.48
360.285	273.84
360.735	362.78
361.186	280.86
361.637	248.1
362.087	325.33
362.538	269.16
362.988	313.63
363.438	299.59
363.889	259.8
364.339	276.18
364.789	322.99
365.239	325.33
365.689	308.95
366.139	304.27
366.589	311.29
367.039	283.2
367.489	322.99
367.939	257.46
368.389	287.89
368.839	292.57
369.288	273.84
369.738	250.44
370.187	358.1
370.637	252.78
371.086	264.48
371.536	315.97
371.985	299.59
372.434	325.33
372.884	280.86
373.333	325.33
373.782	299.59
374.231	271.5
374.68	285.55
375.129	299.59
375.578	285.55
376.027	262.14
376.475	276.18
376.924	311.29
377.373	318.31
377.822	231.71
378.27	257.46
378.719	372.15
379.167	372.15
379.616	365.12
380.064	318.31
380.512	264.48
380.961	238.73
381.409	313.63
381.857	280.86
382.305	285.55
382.753	306.61
383.201	287.89
383.649	306.61
384.097	280.86
384.545	264.48
384.992	280.86
385.44	388.53
385.888	229.37
386.335	294.91
386.783	287.89
387.231	290.23
387.678	264.48
388.125	315.97
388.573	222.35
389.02	337.04
389.467	257.46
389.914	297.25
390.362	341.72
390.809	332.36
391.256	266.82
391.703	292.57
392.15	299.59
392.596	404.91
393.043	334.7
393.49	273.84
393.937	259.8
394.383	285.55
394.83	259.8
395.276	332.36
395.723	325.33
396.169	304.27
396.616	348.74
397.062	322.99
397.508	297.25
397.954	308.95
398.401	315.97
398.847	358.1
399.293	283.2
399.739	299.59
400.185	304.27
400.631	337.04
401.076	292.57
401.522	287.89
401.968	304.27
402.414	362.78
402.859	351.08
403.305	339.38
403.75	294.91
404.196	301.93
404.641	304.27
405.086	292.57
405.532	292.57
405.977	301.93
406.422	306.61
406.867	273.84
407.312	311.29
407.757	255.12
408.202	330.02
408.647	266.82
409.092	273.84
409.537	306.61
409.982	315.97
410.426	245.76
410.871	311.29
411.316	273.84
411.76	294.91
412.205	285.55
412.649	301.93
413.093	372.15
413.538	236.39
413.982	315.97
414.426	297.25
414.87	325.33
415.314	280.86
415.758	353.42
416.202	341.72
416.646	290.23
417.09	252.78
417.534	238.73
417.978	337.04
418.421	315.97
418.865	290.23
419.309	248.1
419.752	283.2
420.196	308.95
420.639	332.36
421.083	266.82
421.526	269.16
421.969	259.8
422.412	299.59
422.856	283.2
423.299	325.33
423.742	360.44
424.185	318.31
424.628	257.46
425.071	287.89
425.513	280.86
425.956	301.93
426.399	271.5
426.842	287.89
427.284	355.76
427.727	290.23
428.169	306.61
428.612	248.1
429.054	276.18
429.497	266.82
429.939	318.31
430.381	299.59
430.823	325.33
431.265	315.97
431.707	283.2
432.149	313.63
432.591	341.72
433.033	327.68
433.475	304.27
433.917	348.74
434.359	301.93
434.8	283.2
435.242	355.76
435.684	353.42
436.125	306.61
436.567	315.97
437.008	292.57
437.449	318.31
437.891	299.59
438.332	276.18
438.773	313.63
439.214	330.02
439.656	379.17
440.097	294.91
440.538	320.65
440.978	269.16
441.419	245.76
441.86	339.38
442.301	330.02
442.742	273.84
443.182	299.59
443.623	306.61
444.063	292.57
444.504	278.52
444.944	283.2
445.385	341.72
445.825	304.27
446.265	325.33
446.706	351.08
447.146	315.97
447.586	287.89
448.026	353.42
448.466	229.37
448.906	320.65
449.346	308.95
449.786	355.76
450.225	262.14
450.665	273.84
451.105	297.25
451.544	365.12
451.984	332.36
452.424	280.86
452.863	320.65
453.302	351.08
453.742	280.86
454.181	344.06
454.62	285.55
455.059	344.06
455.499	348.74
455.938	304.27
456.377	299.59
456.816	245.76
457.254	290.23
457.693	292.57
458.132	320.65
458.571	294.91
459.01	278.52
459.448	304.27
459.887	320.65
460.325	339.38
460.764	344.06
461.202	318.31
461.641	287.89
462.079	269.16
462.517	301.93
462.955	290.23
463.393	308.95
463.832	304.27
464.27	318.31
464.708	297.25
465.145	332.36
465.583	355.76
466.021	334.7
466.459	290.23
466.897	266.82
467.334	301.93
467.772	318.31
468.209	351.08
468.647	322.99
469.084	287.89
469.522	306.61
469.959	304.27
470.396	227.03
470.833	273.84
471.271	285.55
471.708	290.23
472.145	311.29
472.582	259.8
473.019	334.7
473.456	287.89
473.892	271.5
474.329	287.89
474.766	308.95
475.202	308.95
475.639	355.76
476.076	322.99
476.512	257.46
476.949	360.44
477.385	290.23
477.821	337.04
478.258	306.61
478.694	315.97
479.13	273.84
479.566	308.95
480.002	322.99
480.438	407.25
480.874	290.23
481.31	330.02
481.746	308.95
482.181	311.29
482.617	297.25
483.053	313.63
483.488	297.25
483.924	346.4
484.36	269.16
484.795	327.68
485.23	241.08
485.666	276.18
486.101	379.17
486.536	294.91
486.971	304.27
487.407	304.27
487.842	283.2
488.277	353.42
488.712	339.38
489.146	315.97
489.581	358.1
490.016	259.8
490.451	393.21
490.885	269.16
491.32	341.72
491.755	348.74
492.189	294.91
492.624	341.72
493.058	332.36
493.492	315.97
493.927	264.48
494.361	353.42
494.795	315.97
495.229	311.29
495.663	304.27
496.097	283.2
496.531	290.23
496.965	290.23
497.399	306.61
497.833	255.12
498.266	315.97
498.7	266.82
499.134	332.36
499.567	313.63
500.001	222.35
500.434	285.55
500.868	311.29
501.301	264.48
501.734	358.1
502.168	346.4
502.601	297.25
503.034	292.57
503.467	297.25
503.9	283.2
504.333	365.12
504.766	318.31
505.199	330.02
505.632	285.55
506.064	264.48
506.497	257.46
506.93	276.18
507.362	311.29
507.795	278.52
508.227	273.84
508.66	250.44
509.092	320.65
509.524	301.93
509.956	318.31
510.389	297.25
510.821	341.72
511.253	241.08
511.685	264.48
512.117	322.99
512.549	252.78
512.981	297.25
513.412	322.99
513.844	283.2
514.276	325.33
514.707	271.5
515.139	332.36
515.571	283.2
516.002	306.61
516.433	374.49
516.865	327.68
517.296	273.84
517.727	390.87
518.159	276.18
518.59	332.36
519.021	327.68
519.452	306.61
519.883	257.46
520.314	334.7
520.744	334.7
521.175	351.08
521.606	290.23
522.037	287.89
522.467	285.55
522.898	280.86
523.328	301.93
523.759	337.04
524.189	360.44
524.62	334.7
525.05	322.99
525.48	315.97
525.91	322.99
526.341	339.38
526.771	201.29
527.201	306.61
527.631	351.08
528.061	269.16
528.49	297.25
528.92	255.12
529.35	365.12
529.78	344.06
530.209	337.04
530.639	290.23
531.068	297.25
531.498	308.95
531.927	271.5
532.357	299.59
532.786	304.27
533.215	257.46
533.644	285.55
534.074	238.73
534.503	313.63
534.932	283.2
535.361	273.84
535.79	231.71
536.218	330.02
536.647	339.38
537.076	297.25
537.505	348.74
537.933	280.86
538.362	212.99
538.79	287.89
539.219	337.04
539.647	311.29
540.076	327.68
540.504	280.86
540.932	299.59
541.36	318.31
541.788	344.06
542.217	304.27
542.645	248.1
543.073	313.63
543.5	327.68
543.928	318.31
544.356	297.25
544.784	306.61
545.211	311.29
545.639	308.95
546.067	290.23
546.494	318.31
546.922	308.95
547.349	348.74
547.776	337.04
548.204	294.91
548.631	346.4
549.058	360.44
549.485	297.25
549.912	327.68
550.339	292.57
550.766	280.86
551.193	306.61
551.62	332.36
552.047	322.99
552.474	348.74
552.9	369.8
553.327	304.27
553.754	264.48
554.18	334.7
554.607	301.93
555.033	306.61
555.459	241.08
555.886	320.65
556.312	327.68
556.738	320.65
557.164	337.04
557.59	276.18
558.016	217.67
558.442	332.36
558.868	264.48
559.294	280.86
559.72	259.8
560.145	241.08
560.571	297.25
560.997	315.97
561.422	294.91
561.848	313.63
562.273	234.05
562.699	271.5
563.124	374.49
563.549	292.57
563.974	362.78
564.4	332.36
564.825	355.76
565.25	308.95
565.675	315.97
566.1	285.55
566.525	339.38
566.95	294.91
567.374	299.59
567.799	266.82
568.224	306.61
568.648	301.93
569.073	283.2
569.497	285.55
569.922	325.33
570.346	243.42
570.771	255.12
571.195	311.29
571.619	325.33
572.043	313.63
572.467	351.08
572.891	301.93
573.315	334.7
573.739	341.72
574.163	301.93
574.587	315.97
575.011	320.65
575.435	294.91
575.858	301.93
576.282	320.65
576.705	388.53
577.129	325.33
577.552	358.1
577.976	255.12
578.399	269.16
578.822	330.02
579.245	294.91
579.669	301.93
580.092	306.61
580.515	360.44
580.938	344.06
581.361	231.71
581.784	315.97
582.206	322.99
582.629	320.65
583.052	271.5
583.474	262.14
583.897	365.12
584.32	287.89
584.742	250.44
585.165	285.55
585.587	318.31
586.009	337.04
586.431	304.27
586.854	262.14
587.276	315.97
587.698	280.86
588.12	337.04
588.542	259.8
588.964	276.18
589.386	341.72
589.807	365.12
590.229	351.08
590.651	299.59
591.073	283.2
591.494	292.57
591.916	294.91
592.337	315.97
592.759	276.18
593.18	301.93
593.601	297.25
594.022	344.06
594.444	304.27
594.865	287.89
595.286	287.89
595.707	299.59
596.128	290.23
596.549	381.51
596.97	294.91
597.39	318.31
597.811	271.5
598.232	341.72
598.652	220.01
599.073	297.25
599.494	308.95
599.914	276.18
600.334	339.38
600.755	287.89
601.175	257.46
601.595	285.55
602.015	353.42
602.436	325.33
602.856	421.3
603.276	301.93
603.696	344.06
604.115	346.4
604.535	337.04
604.955	351.08
605.375	372.15
605.794	252.78
606.214	304.27
606.634	252.78
607.053	259.8
607.473	355.76
607.892	294.91
608.311	390.87
608.731	304.27
609.15	402.57
609.569	379.17
609.988	287.89
610.407	299.59
610.826	306.61
611.245	318.31
611.664	301.93
612.083	229.37
612.501	285.55
612.92	374.49
613.339	337.04
613.757	330.02
614.176	301.93
614.594	287.89
615.013	280.86
615.431	355.76
615.85	297.25
616.268	315.97
616.686	304.27
617.104	388.53
617.522	290.23
617.94	285.55
618.358	266.82
618.776	273.84
619.194	320.65
619.612	290.23
620.03	311.29
620.447	222.35
620.865	255.12
621.282	255.12
621.7	304.27
622.117	330.02
622.535	276.18
622.952	259.8
623.369	311.29
623.787	315.97
624.204	311.29
624.621	330.02
625.038	299.59
625.455	353.42
625.872	341.72
626.289	339.38
626.706	287.89
627.123	252.78
627.539	308.95
627.956	311.29
628.373	297.25
628.789	332.36
629.206	290.23
629.622	257.46
630.038	227.03
630.455	327.68
630.871	264.48
631.287	299.59
631.703	259.8
632.12	283.2
632.536	262.14
632.952	311.29
633.368	257.46
633.783	365.12
634.199	297.25
634.615	220.01
635.031	306.61
635.446	292.57
635.862	280.86
636.277	313.63
636.693	320.65
637.108	294.91
637.524	259.8
637.939	294.91
638.354	292.57
638.77	283.2
639.185	315.97
639.6	318.31
640.015	250.44
640.43	320.65
640.845	344.06
641.259	252.78
641.674	280.86
642.089	285.55
642.504	381.51
642.918	327.68
643.333	285.55
643.747	308.95
644.162	269.16
644.576	266.82
644.991	322.99
645.405	320.65
645.819	346.4
646.233	276.18
646.647	264.48
647.061	315.97
647.475	287.89
647.889	304.27
648.303	301.93
648.717	320.65
649.131	294.91
649.545	257.46
649.958	269.16
650.372	334.7
650.785	311.29
651.199	367.46
651.612	287.89
652.026	299.59
652.439	262.14
652.852	250.44
653.266	278.52
653.679	299.59
654.092	313.63
654.505	313.63
654.918	313.63
655.331	252.78
655.744	346.4
656.156	325.33
656.569	292.57
656.982	344.06
657.394	332.36
657.807	322.99
658.22	346.4
658.632	344.06
659.044	294.91
659.457	255.12
659.869	334.7
660.281	313.63
660.693	262.14
661.106	283.2
661.518	292.57
661.93	252.78
662.342	278.52
662.754	234.05
663.165	292.57
663.577	292.57
663.989	294.91
664.401	304.27
664.812	248.1
665.224	301.93
665.635	273.84
666.047	287.89
666.458	255.12
666.869	297.25
667.281	306.61
667.692	273.84
668.103	299.59
668.514	255.12
668.925	280.86
669.336	327.68
669.747	227.03
670.158	313.63
670.569	362.78
670.979	355.76
671.39	285.55
671.801	292.57
672.211	320.65
672.622	341.72
673.032	294.91
673.443	306.61
673.853	334.7
674.263	297.25
674.674	334.7
675.084	245.76
675.494	280.86
675.904	257.46
676.314	290.23
676.724	299.59
677.134	259.8
677.544	341.72
677.953	330.02
678.363	290.23
678.773	327.68
679.182	220.01
679.592	334.7
680.001	292.57
680.411	271.5
680.82	294.91
681.23	255.12
681.639	280.86
682.048	306.61
682.457	238.73
682.866	339.38
683.275	339.38
683.684	280.86
684.093	294.91
684.502	381.51
684.911	348.74
685.32	330.02
685.728	299.59
686.137	330.02
686.546	313.63
686.954	320.65
687.363	315.97
687.771	313.63
688.179	269.16
688.588	269.16
688.996	301.93
689.404	276.18
689.812	283.2
690.22	252.78
690.628	308.95
691.036	264.48
691.444	334.7
691.852	255.12
692.26	304.27
692.667	294.91
693.075	315.97
693.483	238.73
693.89	330.02
694.298	344.06
694.705	362.78
695.112	299.59
695.52	372.15
695.927	320.65
696.334	332.36
696.741	290.23
697.148	276.18
697.555	327.68
697.962	269.16
698.369	320.65
698.776	397.89
699.183	339.38
699.59	285.55
699.996	308.95
700.403	259.8
700.81	330.02
701.216	278.52
701.623	301.93
702.029	257.46
702.435	252.78
702.842	372.15
703.248	308.95
703.654	283.2
704.06	376.83
704.466	262.14
704.872	285.55
705.278	332.36
705.684	315.97
706.09	334.7
706.496	341.72
706.901	344.06
707.307	250.44
707.712	285.55
708.118	332.36
708.523	325.33
708.929	313.63
709.334	304.27
709.74	334.7
710.145	278.52
710.55	313.63
710.955	287.89
711.36	297.25
711.765	341.72
712.17	313.63
712.575	330.02
712.98	753.65
713.385	327.68
713.789	325.33
714.194	259.8
714.599	315.97
715.003	273.84
715.408	290.23
715.812	318.31
716.217	308.95
716.621	337.04
717.025	339.38
717.429	252.78
717.833	234.05
718.238	280.86
718.642	234.05
719.046	236.39
719.449	252.78
719.853	290.23
720.257	262.14
720.661	337.04
721.065	320.65
721.468	276.18
721.872	290.23
722.275	304.27
722.679	257.46
723.082	283.2
723.485	287.89
723.889	304.27
724.292	250.44
724.695	325.33
725.098	283.2
725.501	299.59
725.904	245.76
726.307	290.23
726.71	327.68
727.113	348.74
727.516	308.95
727.918	283.2
728.321	327.68
728.724	337.04
729.126	283.2
729.529	318.31
729.931	330.02
730.333	285.55
730.736	271.5
731.138	353.42
731.54	308.95
731.942	273.84
732.344	311.29
732.746	318.31
733.148	304.27
733.55	346.4
733.952	297.25
734.354	259.8
734.756	360.44
735.157	339.38
735.559	327.68
735.96	243.42
736.362	299.59
736.763	348.74
737.165	273.84
737.566	299.59
737.967	308.95
738.368	280.86
738.77	283.2
739.171	306.61
739.572	234.05
739.973	304.27
740.374	294.91
740.774	330.02
741.175	294.91
741.576	308.95
741.977	241.08
742.377	273.84
742.778	315.97
743.178	376.83
743.579	351.08
743.979	276.18
744.379	287.89
744.78	266.82
745.18	273.84
745.58	330.02
745.98	311.29
746.38	280.86
746.78	339.38
747.18	311.29
747.58	273.84
747.98	297.25
748.38	262.14
748.779	259.8
749.179	320.65
749.578	283.2
749.978	271.5
750.377	294.91
750.777	304.27
751.176	259.8
751.575	241.08
751.975	266.82
752.374	315.97
752.773	283.2
753.172	294.91
753.571	402.57
753.97	334.7
754.369	341.72
754.768	315.97
755.166	320.65
755.565	290.23
755.964	318.31
756.362	301.93
756.761	304.27
757.159	301.93
757.558	322.99
757.956	248.1
758.354	255.12
758.753	353.42
759.151	278.52
759.549	306.61
759.947	325.33
760.345	301.93
760.743	327.68
761.141	280.86
761.539	285.55
761.936	318.31
762.334	325.33
762.732	276.18
763.129	299.59
763.527	250.44
763.924	285.55
764.322	257.46
764.719	315.97
765.117	262.14
765.514	257.46
765.911	236.39
766.308	297.25
766.705	243.42
767.102	280.86
767.499	320.65
767.896	245.76
768.293	322.99
768.69	252.78
769.086	285.55
769.483	325.33
769.88	287.89
770.276	259.8
770.673	299.59
771.069	259.8
771.466	355.76
771.862	308.95
772.258	346.4
772.654	308.95
773.05	248.1
773.447	308.95
773.843	313.63
774.239	318.31
774.634	276.18
775.03	325.33
775.426	322.99
775.822	264.48
776.218	276.18
776.613	283.2
777.009	294.91
777.404	358.1
777.8	353.42
778.195	273.84
778.59	278.52
778.986	264.48
779.381	287.89
779.776	337.04
780.171	297.25
780.566	308.95
780.961	306.61
781.356	280.86
781.751	238.73
782.146	262.14
782.54	285.55
782.935	294.91
783.33	257.46
783.724	273.84
784.119	369.8
784.513	269.16
784.908	367.46
785.302	297.25
785.696	353.42
786.09	269.16
786.485	248.1
786.879	334.7
787.273	257.46
787.667	285.55
788.061	360.44
788.454	269.16
788.848	266.82
789.242	287.89
789.636	306.61
790.029	297.25
790.423	285.55
790.816	315.97
791.21	248.1
791.603	299.59
791.997	276.18
792.39	203.63
792.783	252.78
793.176	367.46
793.569	290.23
793.962	245.76
794.355	252.78
794.748	351.08
795.141	320.65
795.534	308.95
795.927	339.38
796.319	337.04
796.712	301.93
797.105	311.29
797.497	262.14
797.89	245.76
798.282	318.31
798.674	264.48
799.067	339.38
799.459	290.23
799.851	273.84
800.243	276.18
800.635	311.29
801.027	311.29
801.419	252.78
801.811	278.52
802.203	315.97
802.594	283.2
802.986	283.2
803.378	257.46
803.769	337.04
804.161	299.59
804.552	287.89
804.944	320.65
805.335	330.02
805.726	355.76
806.118	318.31
806.509	262.14
806.9	292.57
807.291	273.84
807.682	308.95
808.073	308.95
808.464	290.23
808.855	306.61
809.245	236.39
809.636	346.4
810.027	294.91
810.417	238.73
810.808	360.44
811.198	208.31
811.589	332.36
811.979	311.29
812.369	301.93
812.759	320.65
813.15	311.29
813.54	255.12
813.93	348.74
814.32	306.61
814.71	330.02
815.1	255.12
815.489	245.76
815.879	301.93
816.269	252.78
816.658	264.48
817.048	311.29
817.438	287.89
817.827	301.93
818.216	299.59
818.606	330.02
818.995	306.61
819.384	285.55
819.773	231.71
820.163	252.78
820.552	278.52
820.941	252.78
821.33	344.06
821.718	271.5
822.107	280.86
822.496	290.23
822.885	369.8
823.273	290.23
823.662	234.05
824.05	294.91
824.439	308.95
824.827	301.93
825.216	262.14
825.604	318.31
825.992	278.52
826.38	318.31
826.768	283.2
827.156	332.36
827.544	322.99
827.932	341.72
828.32	276.18
828.708	362.78
829.096	245.76
829.483	278.52
829.871	259.8
830.259	250.44
830.646	355.76
831.034	269.16
831.421	285.55
831.808	337.04
832.196	299.59
832.583	318.31
832.97	308.95
833.357	273.84
833.744	407.25
834.131	290.23
834.518	266.82
834.905	299.59
835.292	339.38
835.678	376.83
836.065	369.8
836.452	334.7
836.838	262.14
837.225	245.76
837.611	344.06
837.998	236.39
838.384	299.59
838.77	313.63
839.157	297.25
839.543	318.31
839.929	283.2
840.315	290.23
840.701	287.89
841.087	313.63
841.473	290.23
841.858	358.1
842.244	276.18
842.63	327.68
843.015	306.61
843.401	313.63
843.787	320.65
844.172	259.8
844.557	285.55
844.943	294.91
845.328	301.93
845.713	325.33
846.098	308.95
846.483	348.74
846.868	311.29
847.253	245.76
847.638	304.27
848.023	318.31
848.408	325.33
848.793	325.33
849.177	287.89
849.562	306.61
849.947	299.59
850.331	313.63
850.715	346.4
851.1	318.31
851.484	191.92
851.868	337.04
852.253	330.02
852.637	318.31
853.021	290.23
853.405	297.25
853.789	304.27
854.173	320.65
854.557	322.99
854.94	252.78
855.324	332.36
855.708	301.93
856.091	334.7
856.475	292.57
856.858	276.18
857.242	283.2
857.625	334.7
858.009	271.5
858.392	250.44
858.775	236.39
859.158	222.35
859.541	308.95
859.924	252.78
860.307	308.95
860.69	245.76
861.073	313.63
861.456	262.14
861.838	313.63
862.221	285.55
862.604	320.65
862.986	264.48
863.369	276.18
863.751	306.61
864.133	287.89
864.516	287.89
864.898	362.78
865.28	315.97
865.662	266.82
866.044	322.99
866.426	266.82
866.808	285.55
867.19	332.36
867.572	278.52
867.954	287.89
868.336	236.39
868.717	306.61
869.099	245.76
869.48	285.55
869.862	299.59
870.243	353.42
870.625	299.59
871.006	339.38
871.387	306.61
871.768	224.69
872.149	238.73
872.53	276.18
872.911	311.29
873.292	299.59
873.673	355.76
874.054	330.02
874.435	255.12
874.815	283.2
875.196	299.59
875.577	318.31
875.957	348.74
876.338	301.93
876.718	269.16
877.098	290.23
877.479	285.55
877.859	362.78
878.239	334.7
878.619	313.63
878.999	379.17
879.379	348.74
879.759	252.78
880.139	327.68
880.519	306.61
880.898	330.02
881.278	292.57
881.658	294.91
882.037	304.27
882.417	252.78
882.796	273.84
883.176	320.65
883.555	320.65
883.934	330.02
884.313	318.31
884.693	301.93
885.072	250.44
885.451	330.02
885.83	334.7
886.209	337.04
886.587	278.52
886.966	290.23
887.345	358.1
887.724	266.82
888.102	294.91
888.481	304.27
888.859	257.46
889.238	301.93
889.616	330.02
889.994	348.74
890.373	362.78
890.751	311.29
891.129	287.89
891.507	315.97
891.885	292.57
892.263	337.04
892.641	255.12
893.019	299.59
893.396	332.36
893.774	330.02
894.152	351.08
894.529	297.25
894.907	304.27
895.284	278.52
895.662	330.02
896.039	358.1
896.416	313.63
896.794	306.61
897.171	252.78
897.548	278.52
897.925	287.89
898.302	278.52
898.679	304.27
899.056	355.76
899.433	294.91
899.809	308.95
900.186	365.12
900.563	306.61
900.939	304.27
901.316	292.57
901.692	304.27
902.069	271.5
902.445	332.36
902.821	311.29
903.197	334.7
903.574	330.02
903.95	220.01
904.326	306.61
904.702	339.38
905.078	294.91
905.454	273.84
905.829	264.48
906.205	327.68
906.581	315.97
906.956	292.57
907.332	353.42
907.707	339.38
908.083	276.18
908.458	327.68
908.833	311.29
909.209	351.08
909.584	273.84
909.959	273.84
910.334	276.18
910.709	297.25
911.084	325.33
911.459	315.97
911.834	315.97
912.209	269.16
912.583	262.14
912.958	243.42
913.333	215.33
913.707	276.18
914.082	308.95
914.456	238.73
914.83	304.27
915.205	308.95
915.579	297.25
915.953	257.46
916.327	241.08
916.701	344.06
917.075	308.95
917.449	280.86
917.823	301.93
918.197	299.59
918.571	290.23
918.944	294.91
919.318	248.1
919.692	273.84
920.065	308.95
920.438	327.68
920.812	250.44
921.185	315.97
921.558	269.16
921.932	276.18
922.305	280.86
922.678	294.91
923.051	337.04
923.424	299.59
923.797	311.29
924.17	308.95
924.542	231.71
924.915	243.42
925.288	313.63
925.661	315.97
926.033	285.55
926.406	243.42
926.778	346.4
927.15	287.89
927.523	257.46
927.895	236.39
928.267	294.91
928.639	238.73
929.011	341.72
929.383	259.8
929.755	212.99
930.127	255.12
930.499	334.7
930.871	255.12
931.242	322.99
931.614	290.23
931.986	334.7
932.357	271.5
932.729	269.16
933.1	301.93
933.471	285.55
933.843	224.69
934.214	332.36
934.585	238.73
934.956	241.08
935.327	339.38
935.698	322.99
936.069	311.29
936.44	264.48
936.811	299.59
937.182	278.52
937.552	311.29
937.923	283.2
938.293	259.8
938.664	177.88
939.034	266.82
939.405	259.8
939.775	269.16
940.145	276.18
940.516	220.01
940.886	325.33
941.256	341.72
941.626	341.72
941.996	297.25
942.366	297.25
942.735	327.68
943.105	315.97
943.475	259.8
943.845	252.78
944.214	257.46
944.584	318.31
944.953	276.18
945.323	248.1
945.692	280.86
946.061	330.02
946.43	318.31
946.8	320.65
947.169	334.7
947.538	224.69
947.907	297.25
948.276	346.4
948.645	330.02
949.013	299.59
949.382	290.23
949.751	243.42
950.119	308.95
950.488	339.38
950.857	229.37
951.225	299.59
951.593	299.59
951.962	318.31
952.33	283.2
952.698	269.16
953.066	285.55
953.434	262.14
953.802	327.68
954.17	287.89
954.538	266.82
954.906	301.93
955.274	313.63
955.642	252.78
956.009	351.08
956.377	287.89
956.744	236.39
957.112	297.25
957.479	280.86
957.847	264.48
958.214	327.68
958.581	311.29
958.948	285.55
959.315	252.78
959.683	339.38
960.05	248.1
960.416	311.29
960.783	259.8
961.15	285.55
961.517	358.1
961.884	241.08
962.25	339.38
962.617	313.63
962.983	348.74
963.35	245.76
963.716	313.63
964.082	315.97
964.449	330.02
964.815	283.2
965.181	330.02
965.547	306.61
965.913	318.31
966.279	287.89
966.645	245.76
967.011	362.78
967.377	271.5
967.742	271.5
968.108	243.42
968.474	330.02
968.839	210.65
969.205	299.59
969.57	243.42
969.935	262.14
970.301	325.33
970.666	287.89
971.031	304.27
971.396	346.4
971.761	243.42
972.126	266.82
972.491	299.59
972.856	297.25
973.221	248.1
973.586	276.18
973.95	273.84
974.315	294.91
974.679	294.91
975.044	315.97
975.408	287.89
975.773	283.2
976.137	278.52
976.501	283.2
976.866	304.27
977.23	243.42
977.594	311.29
977.958	304.27
978.322	231.71
978.686	269.16
979.049	304.27
979.413	334.7
979.777	278.52
980.141	280.86
980.504	337.04
980.868	297.25
981.231	252.78
981.595	313.63
981.958	266.82
982.321	280.86
982.684	318.31
983.048	238.73
983.411	292.57
983.774	315.97
984.137	280.86
984.5	294.91
984.862	287.89
985.225	306.61
985.588	243.42
985.951	299.59
986.313	241.08
986.676	351.08
987.038	337.04
987.401	318.31
987.763	271.5
988.125	276.18
988.488	344.06
988.85	308.95
989.212	308.95
989.574	276.18
989.936	255.12
990.298	290.23
990.66	285.55
991.022	271.5
991.383	264.48
991.745	315.97
992.107	369.8
992.468	278.52
992.83	327.68
993.191	353.42
993.553	294.91
993.914	306.61
994.275	318.31
994.637	248.1
994.998	262.14
995.359	212.99
995.72	313.63
996.081	285.55
996.442	353.42
996.803	271.5
997.163	304.27
997.524	255.12
997.885	320.65
998.245	271.5
998.606	252.78
998.966	339.38
999.327	292.57
999.687	320.65
1000.047	322.99
1000.408	294.91
1000.768	269.16
1001.128	330.02
1001.488	255.12
1001.848	278.52
1002.208	325.33
1002.568	327.68
1002.927	287.89
1003.287	362.78
1003.647	327.68
1004.007	322.99
1004.366	280.86
1004.726	276.18
1005.085	308.95
1005.444	285.55
1005.804	339.38
1006.163	304.27
1006.522	330.02
1006.881	318.31
1007.24	367.46
1007.599	330.02
1007.958	287.89
1008.317	306.61
1008.676	294.91
1009.035	315.97
1009.393	325.33
1009.752	346.4
1010.111	341.72
1010.469	320.65
1010.828	299.59
1011.186	290.23
1011.544	308.95
1011.903	301.93
1012.261	269.16
1012.619	313.63
1012.977	313.63
1013.335	351.08
1013.693	325.33
1014.051	294.91
1014.409	325.33
1014.767	348.74
1015.124	344.06
1015.482	290.23
1015.84	353.42
1016.197	294.91
1016.555	241.08
1016.912	280.86
1017.269	374.49
1017.627	266.82
1017.984	367.46
1018.341	304.27
1018.698	252.78
1019.055	276.18
1019.412	264.48
1019.769	264.48
1020.126	325.33
1020.483	276.18
1020.84	278.52
1021.196	264.48
1021.553	311.29
1021.909	262.14
1022.266	301.93
1022.622	266.82
1022.979	283.2
1023.335	306.61
1023.691	266.82
1024.047	301.93
1024.404	269.16
1024.76	325.33
1025.116	220.01
1025.472	301.93
1025.827	264.48
1026.183	266.82
1026.539	304.27
1026.895	278.52
1027.25	278.52
1027.606	255.12
1027.961	311.29
1028.317	325.33
1028.672	285.55
1029.028	285.55
1029.383	297.25
1029.738	259.8
1030.093	337.04
1030.448	250.44
1030.803	227.03
1031.158	313.63
1031.513	299.59
1031.868	299.59
1032.223	243.42
1032.577	264.48
1032.932	231.71
1033.287	322.99
1033.641	369.8
1033.996	299.59
1034.35	297.25
1034.704	210.65
1035.059	283.2
1035.413	334.7
1035.767	334.7
1036.121	334.7
