Data from Al_FLMS009871__989__16-21-59-718.txt Node

Date: Fri Mar 08 16:21:59 CST 2024
User: pe5414po
Spectrometer: FLMS00987
Trigger mode: 0
Integration Time (sec): 1.000000E-1
Scans to average: 1
Electric dark correction enabled: true
Nonlinearity correction enabled: false
Boxcar width: 0
XAxis mode: Wavelengths
Number of Pixels in Spectrum: 2048
>>>>>Begin Spectral Data<<<<<
188.938	-95.82
189.409	-95.82
189.879	-95.82
190.349	-112.2
190.819	-121.56
191.29	-81.77
191.76	-112.2
192.23	-65.39
192.7	-58.37
193.17	-67.73
193.64	-23.26
194.109	-63.05
194.579	2.49
195.049	30.57
195.519	-16.24
195.988	14.19
196.458	-4.53
196.927	65.68
197.397	112.49
197.866	117.17
198.336	149.94
198.805	220.16
199.274	91.43
199.744	114.83
200.213	238.88
200.682	142.92
201.151	196.75
201.62	273.99
202.089	220.16
202.558	201.43
203.027	252.92
203.495	292.71
203.964	234.2
204.433	337.18
204.902	318.46
205.37	302.08
205.839	295.05
206.307	320.8
206.776	292.71
207.244	297.39
207.712	318.46
208.181	276.33
208.649	266.97
209.117	196.75
209.585	334.84
210.053	297.39
210.521	276.33
210.989	281.01
211.457	231.86
211.925	255.26
212.393	273.99
212.861	262.29
213.328	269.31
213.796	273.99
214.264	299.73
214.731	276.33
215.199	250.58
215.666	306.76
216.133	281.01
216.601	297.39
217.068	238.88
217.535	250.58
218.003	278.67
218.47	264.63
218.937	241.22
219.404	276.33
219.871	241.22
220.338	269.31
220.805	252.92
221.271	273.99
221.738	238.88
222.205	245.9
222.671	325.48
223.138	255.26
223.605	252.92
224.071	257.61
224.538	295.05
225.004	231.86
225.47	215.48
225.937	283.35
226.403	262.29
226.869	248.24
227.335	316.12
227.801	273.99
228.267	257.61
228.733	302.08
229.199	229.52
229.665	259.95
230.131	252.92
230.597	257.61
231.062	215.48
231.528	243.56
231.994	288.03
232.459	269.31
232.925	234.2
233.39	292.71
233.856	203.77
234.321	278.67
234.786	189.73
235.252	302.08
235.717	290.37
236.182	273.99
236.647	311.44
237.112	234.2
237.577	271.65
238.042	269.31
238.507	313.78
238.972	346.55
239.436	283.35
239.901	259.95
240.366	259.95
240.83	257.61
241.295	255.26
241.76	351.23
242.224	325.48
242.688	273.99
243.153	313.78
243.617	318.46
244.081	276.33
244.545	273.99
245.01	276.33
245.474	243.56
245.938	311.44
246.402	285.69
246.866	323.14
247.33	285.69
247.793	269.31
248.257	215.48
248.721	262.29
249.185	276.33
249.648	281.01
250.112	231.86
250.575	302.08
251.039	245.9
251.502	309.1
251.965	250.58
252.429	250.58
252.892	285.69
253.355	257.61
253.818	330.16
254.281	264.63
254.744	245.9
255.207	252.92
255.67	299.73
256.133	229.52
256.596	341.86
257.059	243.56
257.522	292.71
257.984	185.05
258.447	262.29
258.909	262.29
259.372	278.67
259.834	276.33
260.297	283.35
260.759	264.63
261.221	409.74
261.684	292.71
262.146	309.1
262.608	262.29
263.07	271.65
263.532	288.03
263.994	252.92
264.456	339.52
264.918	245.9
265.38	278.67
265.842	297.39
266.303	255.26
266.765	337.18
267.227	341.86
267.688	283.35
268.15	269.31
268.611	304.42
269.072	250.58
269.534	229.52
269.995	281.01
270.456	288.03
270.918	327.82
271.379	297.39
271.84	323.14
272.301	306.76
272.762	311.44
273.223	250.58
273.684	236.54
274.144	248.24
274.605	222.5
275.066	309.1
275.527	292.71
275.987	337.18
276.448	323.14
276.908	283.35
277.369	316.12
277.829	341.86
278.289	283.35
278.75	285.69
279.21	290.37
279.67	278.67
280.13	299.73
280.59	304.42
281.05	327.82
281.51	255.26
281.97	288.03
282.43	236.54
282.89	271.65
283.35	288.03
283.809	309.1
284.269	283.35
284.729	276.33
285.188	278.67
285.648	264.63
286.107	283.35
286.567	309.1
287.026	266.97
287.485	348.89
287.944	304.42
288.404	266.97
288.863	288.03
289.322	355.91
289.781	262.29
290.24	318.46
290.699	299.73
291.158	348.89
291.616	316.12
292.075	306.76
292.534	334.84
292.992	362.93
293.451	238.88
293.91	288.03
294.368	372.29
294.827	278.67
295.285	273.99
295.743	210.79
296.202	311.44
296.66	358.25
297.118	292.71
297.576	360.59
298.034	309.1
298.492	285.69
298.95	318.46
299.408	318.46
299.866	290.37
300.324	339.52
300.781	285.69
301.239	297.39
301.697	283.35
302.154	245.9
302.612	290.37
303.069	341.86
303.527	288.03
303.984	313.78
304.441	276.33
304.899	316.12
305.356	299.73
305.813	325.48
306.27	290.37
306.727	266.97
307.184	255.26
307.641	339.52
308.098	362.93
308.555	283.35
309.012	290.37
309.468	341.86
309.925	281.01
310.382	325.48
310.838	290.37
311.295	339.52
311.751	332.5
312.208	302.08
312.664	255.26
313.12	273.99
313.577	337.18
314.033	271.65
314.489	313.78
314.945	257.61
315.401	327.82
315.857	362.93
316.313	311.44
316.769	374.63
317.225	327.82
317.681	325.48
318.136	362.93
318.592	238.88
319.048	297.39
319.503	288.03
319.959	297.39
320.414	358.25
320.869	365.27
321.325	278.67
321.78	306.76
322.235	316.12
322.691	276.33
323.146	283.35
323.601	344.21
324.056	325.48
324.511	320.8
324.966	309.1
325.421	276.33
325.875	288.03
326.33	292.71
326.785	238.88
327.24	302.08
327.694	309.1
328.149	339.52
328.603	290.37
329.058	276.33
329.512	295.05
329.966	297.39
330.421	346.55
330.875	311.44
331.329	341.86
331.783	290.37
332.237	302.08
332.691	306.76
333.145	281.01
333.599	285.69
334.053	325.48
334.507	285.69
334.96	264.63
335.414	278.67
335.868	281.01
336.321	269.31
336.775	304.42
337.228	365.27
337.682	250.58
338.135	292.71
338.588	297.39
339.042	337.18
339.495	292.71
339.948	320.8
340.401	271.65
340.854	330.16
341.307	306.76
341.76	341.86
342.213	313.78
342.666	316.12
343.119	332.5
343.571	320.8
344.024	360.59
344.477	299.73
344.929	273.99
345.382	332.5
345.834	327.82
346.287	309.1
346.739	353.57
347.191	323.14
347.644	332.5
348.096	292.71
348.548	311.44
349	339.52
349.452	332.5
349.904	393.36
350.356	369.95
350.808	276.33
351.26	309.1
351.711	346.55
352.163	348.89
352.615	266.97
353.066	341.86
353.518	320.8
353.969	353.57
354.421	318.46
354.872	285.69
355.324	332.5
355.775	332.5
356.226	306.76
356.677	316.12
357.128	262.29
357.579	309.1
358.03	262.29
358.481	376.97
358.932	339.52
359.383	320.8
359.834	250.58
360.285	330.16
360.735	304.42
361.186	323.14
361.637	281.01
362.087	311.44
362.538	383.99
362.988	318.46
363.438	304.42
363.889	259.95
364.339	281.01
364.789	348.89
365.239	316.12
365.689	281.01
366.139	325.48
366.589	334.84
367.039	318.46
367.489	292.71
367.939	348.89
368.389	278.67
368.839	316.12
369.288	306.76
369.738	299.73
370.187	304.42
370.637	283.35
371.086	259.95
371.536	278.67
371.985	273.99
372.434	327.82
372.884	248.24
373.333	283.35
373.782	320.8
374.231	323.14
374.68	330.16
375.129	295.05
375.578	341.86
376.027	290.37
376.475	276.33
376.924	332.5
377.373	262.29
377.822	346.55
378.27	302.08
378.719	327.82
379.167	309.1
379.616	311.44
380.064	306.76
380.512	327.82
380.961	330.16
381.409	306.76
381.857	313.78
382.305	245.9
382.753	288.03
383.201	332.5
383.649	325.48
384.097	295.05
384.545	351.23
384.992	311.44
385.44	304.42
385.888	259.95
386.335	295.05
386.783	313.78
387.231	266.97
387.678	290.37
388.125	330.16
388.573	248.24
389.02	295.05
389.467	304.42
389.914	320.8
390.362	295.05
390.809	238.88
391.256	369.95
391.703	327.82
392.15	360.59
392.596	323.14
393.043	295.05
393.49	346.55
393.937	344.21
394.383	388.68
394.83	346.55
395.276	332.5
395.723	325.48
396.169	255.26
396.616	295.05
397.062	259.95
397.508	327.82
397.954	339.52
398.401	295.05
398.847	309.1
399.293	330.16
399.739	302.08
400.185	332.5
400.631	276.33
401.076	330.16
401.522	271.65
401.968	351.23
402.414	332.5
402.859	290.37
403.305	271.65
403.75	353.57
404.196	285.69
404.641	285.69
405.086	325.48
405.532	316.12
405.977	278.67
406.422	360.59
406.867	304.42
407.312	306.76
407.757	311.44
408.202	325.48
408.647	341.86
409.092	276.33
409.537	273.99
409.982	337.18
410.426	245.9
410.871	332.5
411.316	290.37
411.76	276.33
412.205	311.44
412.649	351.23
413.093	299.73
413.538	288.03
413.982	262.29
414.426	299.73
414.87	304.42
415.314	316.12
415.758	288.03
416.202	278.67
416.646	241.22
417.09	276.33
417.534	376.97
417.978	306.76
418.421	391.02
418.865	292.71
419.309	309.1
419.752	290.37
420.196	311.44
420.639	311.44
421.083	323.14
421.526	302.08
421.969	292.71
422.412	309.1
422.856	299.73
423.299	365.27
423.742	252.92
424.185	332.5
424.628	334.84
425.071	330.16
425.513	273.99
425.956	344.21
426.399	323.14
426.842	325.48
427.284	365.27
427.727	313.78
428.169	288.03
428.612	323.14
429.054	255.26
429.497	311.44
429.939	295.05
430.381	306.76
430.823	346.55
431.265	332.5
431.707	276.33
432.149	309.1
432.591	353.57
433.033	362.93
433.475	313.78
433.917	299.73
434.359	339.52
434.8	344.21
435.242	264.63
435.684	257.61
436.125	330.16
436.567	252.92
437.008	330.16
437.449	332.5
437.891	276.33
438.332	337.18
438.773	273.99
439.214	318.46
439.656	266.97
440.097	327.82
440.538	362.93
440.978	332.5
441.419	259.95
441.86	341.86
442.301	288.03
442.742	297.39
443.182	346.55
443.623	358.25
444.063	290.37
444.504	344.21
444.944	353.57
445.385	358.25
445.825	355.91
446.265	325.48
446.706	330.16
447.146	302.08
447.586	318.46
448.026	325.48
448.466	339.52
448.906	346.55
449.346	318.46
449.786	334.84
450.225	264.63
450.665	351.23
451.105	348.89
451.544	316.12
451.984	316.12
452.424	369.95
452.863	318.46
453.302	327.82
453.742	273.99
454.181	311.44
454.62	355.91
455.059	269.31
455.499	292.71
455.938	248.24
456.377	313.78
456.816	325.48
457.254	330.16
457.693	374.63
458.132	276.33
458.571	360.59
459.01	330.16
459.448	299.73
459.887	269.31
460.325	318.46
460.764	318.46
461.202	355.91
461.641	325.48
462.079	283.35
462.517	255.26
462.955	320.8
463.393	320.8
463.832	353.57
464.27	332.5
464.708	365.27
465.145	323.14
465.583	281.01
466.021	334.84
466.459	346.55
466.897	292.71
467.334	299.73
467.772	325.48
468.209	292.71
468.647	325.48
469.084	327.82
469.522	269.31
469.959	297.39
470.396	257.61
470.833	273.99
471.271	302.08
471.708	353.57
472.145	334.84
472.582	299.73
473.019	313.78
473.456	271.65
473.892	339.52
474.329	353.57
474.766	278.67
475.202	327.82
475.639	339.52
476.076	281.01
476.512	353.57
476.949	330.16
477.385	292.71
477.821	360.59
478.258	255.26
478.694	292.71
479.13	346.55
479.566	304.42
480.002	346.55
480.438	309.1
480.874	346.55
481.31	288.03
481.746	327.82
482.181	325.48
482.617	344.21
483.053	311.44
483.488	288.03
483.924	344.21
484.36	236.54
484.795	288.03
485.23	299.73
485.666	358.25
486.101	330.16
486.536	295.05
486.971	306.76
487.407	353.57
487.842	351.23
488.277	276.33
488.712	318.46
489.146	320.8
489.581	409.74
490.016	341.86
490.451	374.63
490.885	395.7
491.32	351.23
491.755	273.99
492.189	266.97
492.624	278.67
493.058	369.95
493.492	369.95
493.927	351.23
494.361	323.14
494.795	330.16
495.229	332.5
495.663	393.36
496.097	355.91
496.531	309.1
496.965	337.18
497.399	266.97
497.833	316.12
498.266	330.16
498.7	320.8
499.134	334.84
499.567	346.55
500.001	316.12
500.434	243.56
500.868	276.33
501.301	362.93
501.734	283.35
502.168	334.84
502.601	273.99
503.034	313.78
503.467	334.84
503.9	351.23
504.333	302.08
504.766	332.5
505.199	346.55
505.632	297.39
506.064	337.18
506.497	304.42
506.93	374.63
507.362	348.89
507.795	269.31
508.227	320.8
508.66	285.69
509.092	269.31
509.524	318.46
509.956	320.8
510.389	327.82
510.821	341.86
511.253	269.31
511.685	250.58
512.117	337.18
512.549	339.52
512.981	351.23
513.412	311.44
513.844	348.89
514.276	334.84
514.707	365.27
515.139	346.55
515.571	318.46
516.002	337.18
516.433	292.71
516.865	297.39
517.296	334.84
517.727	316.12
518.159	264.63
518.59	313.78
519.021	325.48
519.452	367.61
519.883	367.61
520.314	309.1
520.744	309.1
521.175	320.8
521.606	309.1
522.037	252.92
522.467	297.39
522.898	278.67
523.328	351.23
523.759	381.65
524.189	297.39
524.62	259.95
525.05	339.52
525.48	257.61
525.91	278.67
526.341	302.08
526.771	320.8
527.201	299.73
527.631	337.18
528.061	334.84
528.49	276.33
528.92	360.59
529.35	245.9
529.78	330.16
530.209	306.76
530.639	257.61
531.068	295.05
531.498	266.97
531.927	337.18
532.357	245.9
532.786	374.63
533.215	323.14
533.644	304.42
534.074	306.76
534.503	327.82
534.932	334.84
535.361	341.86
535.79	332.5
536.218	330.16
536.647	292.71
537.076	334.84
537.505	271.65
537.933	327.82
538.362	271.65
538.79	281.01
539.219	320.8
539.647	259.95
540.076	320.8
540.504	283.35
540.932	306.76
541.36	299.73
541.788	302.08
542.217	318.46
542.645	281.01
543.073	339.52
543.5	348.89
543.928	327.82
544.356	362.93
544.784	325.48
545.211	309.1
545.639	262.29
546.067	302.08
546.494	400.38
546.922	344.21
547.349	278.67
547.776	264.63
548.204	257.61
548.631	316.12
549.058	292.71
549.485	362.93
549.912	295.05
550.339	295.05
550.766	288.03
551.193	285.69
551.62	320.8
552.047	313.78
552.474	323.14
552.9	297.39
553.327	341.86
553.754	337.18
554.18	309.1
554.607	295.05
555.033	311.44
555.459	290.37
555.886	273.99
556.312	283.35
556.738	309.1
557.164	252.92
557.59	288.03
558.016	295.05
558.442	341.86
558.868	288.03
559.294	306.76
559.72	320.8
560.145	295.05
560.571	313.78
560.997	311.44
561.422	278.67
561.848	351.23
562.273	355.91
562.699	295.05
563.124	271.65
563.549	330.16
563.974	379.31
564.4	391.02
564.825	332.5
565.25	405.06
565.675	304.42
566.1	210.79
566.525	334.84
566.95	337.18
567.374	271.65
567.799	318.46
568.224	257.61
568.648	334.84
569.073	339.52
569.497	334.84
569.922	325.48
570.346	323.14
570.771	306.76
571.195	360.59
571.619	306.76
572.043	381.65
572.467	299.73
572.891	306.76
573.315	332.5
573.739	311.44
574.163	292.71
574.587	283.35
575.011	269.31
575.435	360.59
575.858	346.55
576.282	309.1
576.705	252.92
577.129	292.71
577.552	337.18
577.976	283.35
578.399	316.12
578.822	306.76
579.245	341.86
579.669	283.35
580.092	295.05
580.515	288.03
580.938	325.48
581.361	351.23
581.784	281.01
582.206	351.23
582.629	334.84
583.052	325.48
583.474	318.46
583.897	320.8
584.32	327.82
584.742	302.08
585.165	231.86
585.587	311.44
586.009	365.27
586.431	297.39
586.854	341.86
587.276	288.03
587.698	327.82
588.12	302.08
588.542	330.16
588.964	318.46
589.386	269.31
589.807	391.02
590.229	309.1
590.651	248.24
591.073	311.44
591.494	231.86
591.916	334.84
592.337	245.9
592.759	327.82
593.18	299.73
593.601	348.89
594.022	259.95
594.444	309.1
594.865	297.39
595.286	306.76
595.707	276.33
596.128	302.08
596.549	320.8
596.97	320.8
597.39	367.61
597.811	374.63
598.232	341.86
598.652	327.82
599.073	374.63
599.494	229.52
599.914	362.93
600.334	337.18
600.755	348.89
601.175	353.57
601.595	379.31
602.015	302.08
602.436	292.71
602.856	454.21
603.276	311.44
603.696	295.05
604.115	299.73
604.535	295.05
604.955	327.82
605.375	327.82
605.794	346.55
606.214	320.8
606.634	304.42
607.053	316.12
607.473	386.33
607.892	344.21
608.311	360.59
608.731	360.59
609.15	339.52
609.569	313.78
609.988	273.99
610.407	323.14
610.826	309.1
611.245	313.78
611.664	337.18
612.083	304.42
612.501	360.59
612.92	255.26
613.339	327.82
613.757	330.16
614.176	355.91
614.594	323.14
615.013	262.29
615.431	353.57
615.85	346.55
616.268	283.35
616.686	295.05
617.104	400.38
617.522	344.21
617.94	292.71
618.358	262.29
618.776	257.61
619.194	311.44
619.612	330.16
620.03	309.1
620.447	367.61
620.865	290.37
621.282	271.65
621.7	295.05
622.117	344.21
622.535	412.08
622.952	311.44
623.369	297.39
623.787	337.18
624.204	306.76
624.621	320.8
625.038	309.1
625.455	344.21
625.872	344.21
626.289	330.16
626.706	355.91
627.123	292.71
627.539	348.89
627.956	325.48
628.373	341.86
628.789	316.12
629.206	224.84
629.622	341.86
630.038	297.39
630.455	229.52
630.871	302.08
631.287	264.63
631.703	266.97
632.12	283.35
632.536	341.86
632.952	341.86
633.368	271.65
633.783	337.18
634.199	323.14
634.615	332.5
635.031	281.01
635.446	306.76
635.862	302.08
636.277	318.46
636.693	266.97
637.108	358.25
637.524	386.33
637.939	318.46
638.354	302.08
638.77	388.68
639.185	313.78
639.6	252.92
640.015	264.63
640.43	365.27
640.845	304.42
641.259	323.14
641.674	358.25
642.089	304.42
642.504	288.03
642.918	318.46
643.333	295.05
643.747	271.65
644.162	323.14
644.576	241.22
644.991	283.35
645.405	360.59
645.819	325.48
646.233	304.42
646.647	372.29
647.061	299.73
647.475	313.78
647.889	283.35
648.303	281.01
648.717	278.67
649.131	320.8
649.545	318.46
649.958	299.73
650.372	330.16
650.785	297.39
651.199	285.69
651.612	353.57
652.026	344.21
652.439	304.42
652.852	283.35
653.266	318.46
653.679	297.39
654.092	297.39
654.505	285.69
654.918	285.69
655.331	311.44
655.744	334.84
656.156	339.52
656.569	295.05
656.982	337.18
657.394	398.04
657.807	344.21
658.22	295.05
658.632	323.14
659.044	339.52
659.457	341.86
659.869	311.44
660.281	318.46
660.693	309.1
661.106	323.14
661.518	341.86
661.93	355.91
662.342	273.99
662.754	297.39
663.165	374.63
663.577	337.18
663.989	278.67
664.401	318.46
664.812	353.57
665.224	292.71
665.635	283.35
666.047	339.52
666.458	311.44
666.869	334.84
667.281	327.82
667.692	341.86
668.103	337.18
668.514	332.5
668.925	358.25
669.336	353.57
669.747	290.37
670.158	311.44
670.569	318.46
670.979	276.33
671.39	348.89
671.801	259.95
672.211	351.23
672.622	288.03
673.032	285.69
673.443	285.69
673.853	348.89
674.263	309.1
674.674	297.39
675.084	337.18
675.494	323.14
675.904	252.92
676.314	362.93
676.724	311.44
677.134	273.99
677.544	318.46
677.953	255.26
678.363	358.25
678.773	252.92
679.182	332.5
679.592	367.61
680.001	309.1
680.411	304.42
680.82	302.08
681.23	351.23
681.639	290.37
682.048	325.48
682.457	220.16
682.866	318.46
683.275	290.37
683.684	278.67
684.093	306.76
684.502	337.18
684.911	330.16
685.32	348.89
685.728	302.08
686.137	306.76
686.546	339.52
686.954	332.5
687.363	257.61
687.771	369.95
688.179	348.89
688.588	360.59
688.996	285.69
689.404	313.78
689.812	304.42
690.22	318.46
690.628	290.37
691.036	318.46
691.444	332.5
691.852	285.69
692.26	339.52
692.667	325.48
693.075	376.97
693.483	323.14
693.89	290.37
694.298	318.46
694.705	288.03
695.112	327.82
695.52	332.5
695.927	320.8
696.334	325.48
696.741	283.35
697.148	255.26
697.555	341.86
697.962	304.42
698.369	292.71
698.776	323.14
699.183	309.1
699.59	224.84
699.996	290.37
700.403	262.29
700.81	281.01
701.216	297.39
701.623	372.29
702.029	273.99
702.435	302.08
702.842	330.16
703.248	372.29
703.654	306.76
704.06	313.78
704.466	271.65
704.872	290.37
705.278	330.16
705.684	273.99
706.09	313.78
706.496	353.57
706.901	302.08
707.307	295.05
707.712	360.59
708.118	281.01
708.523	344.21
708.929	346.55
709.334	304.42
709.74	332.5
710.145	302.08
710.55	283.35
710.955	288.03
711.36	309.1
711.765	281.01
712.17	309.1
712.575	318.46
712.98	788.91
713.385	320.8
713.789	283.35
714.194	320.8
714.599	334.84
715.003	346.55
715.408	271.65
715.812	341.86
716.217	313.78
716.621	353.57
717.025	316.12
717.429	306.76
717.833	271.65
718.238	299.73
718.642	325.48
719.046	297.39
719.449	283.35
719.853	325.48
720.257	316.12
720.661	362.93
721.065	292.71
721.468	351.23
721.872	278.67
722.275	288.03
722.679	278.67
723.082	304.42
723.485	271.65
723.889	288.03
724.292	306.76
724.695	278.67
725.098	262.29
725.501	320.8
725.904	306.76
726.307	297.39
726.71	264.63
727.113	292.71
727.516	285.69
727.918	283.35
728.321	362.93
728.724	323.14
729.126	351.23
729.529	290.37
729.931	299.73
730.333	297.39
730.736	313.78
731.138	355.91
731.54	344.21
731.942	259.95
732.344	311.44
732.746	313.78
733.148	316.12
733.55	302.08
733.952	273.99
734.354	327.82
734.756	332.5
735.157	386.33
735.559	323.14
735.96	262.29
736.362	316.12
736.763	351.23
737.165	309.1
737.566	369.95
737.967	311.44
738.368	339.52
738.77	271.65
739.171	306.76
739.572	309.1
739.973	276.33
740.374	341.86
740.774	316.12
741.175	297.39
741.576	259.95
741.977	323.14
742.377	295.05
742.778	283.35
743.178	283.35
743.579	358.25
743.979	323.14
744.379	365.27
744.78	271.65
745.18	309.1
745.58	323.14
745.98	238.88
746.38	241.22
746.78	330.16
747.18	362.93
747.58	262.29
747.98	309.1
748.38	269.31
748.779	383.99
749.179	334.84
749.578	283.35
749.978	344.21
750.377	278.67
750.777	297.39
751.176	325.48
751.575	243.56
751.975	292.71
752.374	320.8
752.773	339.52
753.172	278.67
753.571	288.03
753.97	299.73
754.369	355.91
754.768	281.01
755.166	311.44
755.565	358.25
755.964	316.12
756.362	320.8
756.761	325.48
757.159	360.59
757.558	323.14
757.956	330.16
758.354	299.73
758.753	311.44
759.151	379.31
759.549	327.82
759.947	295.05
760.345	348.89
760.743	337.18
761.141	252.92
761.539	288.03
761.936	318.46
762.334	271.65
762.732	278.67
763.129	320.8
763.527	330.16
763.924	259.95
764.322	325.48
764.719	311.44
765.117	360.59
765.514	318.46
765.911	269.31
766.308	283.35
766.705	318.46
767.102	374.63
767.499	330.16
767.896	236.54
768.293	285.69
768.69	283.35
769.086	273.99
769.483	332.5
769.88	309.1
770.276	327.82
770.673	369.95
771.069	304.42
771.466	313.78
771.862	297.39
772.258	325.48
772.654	220.16
773.05	327.82
773.447	379.31
773.843	250.58
774.239	339.52
774.634	318.46
775.03	320.8
775.426	304.42
775.822	348.89
776.218	285.69
776.613	288.03
777.009	383.99
777.404	323.14
777.8	323.14
778.195	323.14
778.59	344.21
778.986	306.76
779.381	276.33
779.776	337.18
780.171	262.29
780.566	306.76
780.961	241.22
781.356	360.59
781.751	311.44
782.146	306.76
782.54	325.48
782.935	306.76
783.33	355.91
783.724	299.73
784.119	283.35
784.513	353.57
784.908	330.16
785.302	344.21
785.696	325.48
786.09	285.69
786.485	353.57
786.879	299.73
787.273	269.31
787.667	334.84
788.061	379.31
788.454	283.35
788.848	283.35
789.242	316.12
789.636	386.33
790.029	346.55
790.423	262.29
790.816	341.86
791.21	409.74
791.603	374.63
791.997	320.8
792.39	227.18
792.783	299.73
793.176	311.44
793.569	334.84
793.962	327.82
794.355	304.42
794.748	273.99
795.141	323.14
795.534	236.54
795.927	297.39
796.319	332.5
796.712	346.55
797.105	327.82
797.497	337.18
797.89	362.93
798.282	285.69
798.674	325.48
799.067	302.08
799.459	339.52
799.851	339.52
800.243	313.78
800.635	302.08
801.027	309.1
801.419	304.42
801.811	285.69
802.203	252.92
802.594	351.23
802.986	348.89
803.378	271.65
803.769	299.73
804.161	311.44
804.552	290.37
804.944	323.14
805.335	269.31
805.726	302.08
806.118	355.91
806.509	348.89
806.9	309.1
807.291	302.08
807.682	299.73
808.073	236.54
808.464	262.29
808.855	330.16
809.245	369.95
809.636	297.39
810.027	360.59
810.417	245.9
810.808	285.69
811.198	313.78
811.589	320.8
811.979	341.86
812.369	309.1
812.759	332.5
813.15	295.05
813.54	337.18
813.93	318.46
814.32	306.76
814.71	299.73
815.1	318.46
815.489	288.03
815.879	353.57
816.269	306.76
816.658	316.12
817.048	325.48
817.438	344.21
817.827	376.97
818.216	330.16
818.606	217.82
818.995	292.71
819.384	316.12
819.773	351.23
820.163	323.14
820.552	323.14
820.941	355.91
821.33	367.61
821.718	295.05
822.107	313.78
822.496	327.82
822.885	278.67
823.273	285.69
823.662	341.86
824.05	332.5
824.439	311.44
824.827	311.44
825.216	332.5
825.604	323.14
825.992	257.61
826.38	290.37
826.768	252.92
827.156	327.82
827.544	323.14
827.932	337.18
828.32	245.9
828.708	320.8
829.096	334.84
829.483	281.01
829.871	367.61
830.259	276.33
830.646	224.84
831.034	306.76
831.421	297.39
831.808	341.86
832.196	252.92
832.583	297.39
832.97	311.44
833.357	292.71
833.744	313.78
834.131	367.61
834.518	236.54
834.905	337.18
835.292	318.46
835.678	299.73
836.065	299.73
836.452	257.61
836.838	316.12
837.225	330.16
837.611	264.63
837.998	278.67
838.384	323.14
838.77	297.39
839.157	285.69
839.543	309.1
839.929	278.67
840.315	346.55
840.701	283.35
841.087	304.42
841.473	292.71
841.858	288.03
842.244	269.31
842.63	313.78
843.015	398.04
843.401	421.44
843.787	297.39
844.172	325.48
844.557	276.33
844.943	355.91
845.328	311.44
845.713	269.31
846.098	302.08
846.483	369.95
846.868	320.8
847.253	281.01
847.638	269.31
848.023	290.37
848.408	313.78
848.793	290.37
849.177	334.84
849.562	250.58
849.947	306.76
850.331	290.37
850.715	325.48
851.1	339.52
851.484	334.84
851.868	302.08
852.253	325.48
852.637	316.12
853.021	281.01
853.405	292.71
853.789	299.73
854.173	269.31
854.557	334.84
854.94	330.16
855.324	327.82
855.708	278.67
856.091	306.76
856.475	288.03
856.858	318.46
857.242	292.71
857.625	302.08
858.009	316.12
858.392	330.16
858.775	311.44
859.158	266.97
859.541	281.01
859.924	302.08
860.307	355.91
860.69	309.1
861.073	304.42
861.456	334.84
861.838	318.46
862.221	292.71
862.604	302.08
862.986	327.82
863.369	334.84
863.751	302.08
864.133	304.42
864.516	234.2
864.898	358.25
865.28	264.63
865.662	374.63
866.044	262.29
866.426	311.44
866.808	313.78
867.19	379.31
867.572	316.12
867.954	334.84
868.336	313.78
868.717	309.1
869.099	285.69
869.48	292.71
869.862	320.8
870.243	313.78
870.625	292.71
871.006	262.29
871.387	295.05
871.768	327.82
872.149	341.86
872.53	355.91
872.911	367.61
873.292	285.69
873.673	302.08
874.054	313.78
874.435	325.48
874.815	266.97
875.196	290.37
875.577	383.99
875.957	318.46
876.338	353.57
876.718	304.42
877.098	348.89
877.479	297.39
877.859	292.71
878.239	334.84
878.619	304.42
878.999	210.79
879.379	400.38
879.759	341.86
880.139	297.39
880.519	355.91
880.898	281.01
881.278	297.39
881.658	323.14
882.037	344.21
882.417	283.35
882.796	306.76
883.176	330.16
883.555	309.1
883.934	292.71
884.313	327.82
884.693	348.89
885.072	281.01
885.451	288.03
885.83	313.78
886.209	311.44
886.587	243.56
886.966	316.12
887.345	339.52
887.724	313.78
888.102	257.61
888.481	325.48
888.859	358.25
889.238	299.73
889.616	351.23
889.994	271.65
890.373	292.71
890.751	374.63
891.129	344.21
891.507	243.56
891.885	334.84
892.263	299.73
892.641	269.31
893.019	325.48
893.396	316.12
893.774	283.35
894.152	311.44
894.529	325.48
894.907	367.61
895.284	316.12
895.662	295.05
896.039	327.82
896.416	297.39
896.794	365.27
897.171	264.63
897.548	215.48
897.925	372.29
898.302	297.39
898.679	316.12
899.056	327.82
899.433	302.08
899.809	306.76
900.186	273.99
900.563	273.99
900.939	358.25
901.316	323.14
901.692	292.71
902.069	337.18
902.445	290.37
902.821	323.14
903.197	295.05
903.574	337.18
903.95	306.76
904.326	316.12
904.702	295.05
905.078	327.82
905.454	316.12
905.829	320.8
906.205	302.08
906.581	252.92
906.956	283.35
907.332	405.06
907.707	309.1
908.083	341.86
908.458	381.65
908.833	351.23
909.209	393.36
909.584	311.44
909.959	285.69
910.334	269.31
910.709	281.01
911.084	199.09
911.459	299.73
911.834	313.78
912.209	259.95
912.583	334.84
912.958	271.65
913.333	283.35
913.707	332.5
914.082	330.16
914.456	334.84
914.83	320.8
915.205	351.23
915.579	351.23
915.953	332.5
916.327	264.63
916.701	337.18
917.075	309.1
917.449	281.01
917.823	318.46
918.197	276.33
918.571	292.71
918.944	288.03
919.318	302.08
919.692	320.8
920.065	224.84
920.438	299.73
920.812	273.99
921.185	290.37
921.558	262.29
921.932	259.95
922.305	325.48
922.678	346.55
923.051	292.71
923.424	245.9
923.797	344.21
924.17	311.44
924.542	311.44
924.915	215.48
925.288	309.1
925.661	334.84
926.033	323.14
926.406	374.63
926.778	344.21
927.15	339.52
927.523	264.63
927.895	295.05
928.267	311.44
928.639	334.84
929.011	266.97
929.383	257.61
929.755	257.61
930.127	327.82
930.499	302.08
930.871	229.52
931.242	252.92
931.614	365.27
931.986	320.8
932.357	332.5
932.729	229.52
933.1	292.71
933.471	297.39
933.843	281.01
934.214	309.1
934.585	313.78
934.956	351.23
935.327	339.52
935.698	391.02
936.069	278.67
936.44	379.31
936.811	290.37
937.182	295.05
937.552	273.99
937.923	269.31
938.293	337.18
938.664	320.8
939.034	323.14
939.405	304.42
939.775	306.76
940.145	311.44
940.516	309.1
940.886	327.82
941.256	304.42
941.626	306.76
941.996	318.46
942.366	316.12
942.735	372.29
943.105	271.65
943.475	353.57
943.845	334.84
944.214	344.21
944.584	283.35
944.953	320.8
945.323	297.39
945.692	283.35
946.061	367.61
946.43	290.37
946.8	285.69
947.169	297.39
947.538	262.29
947.907	318.46
948.276	320.8
948.645	346.55
949.013	255.26
949.382	283.35
949.751	302.08
950.119	341.86
950.488	297.39
950.857	276.33
951.225	341.86
951.593	257.61
951.962	323.14
952.33	311.44
952.698	346.55
953.066	337.18
953.434	285.69
953.802	304.42
954.17	285.69
954.538	320.8
954.906	348.89
955.274	290.37
955.642	351.23
956.009	299.73
956.377	346.55
956.744	323.14
957.112	316.12
957.479	266.97
957.847	259.95
958.214	339.52
958.581	374.63
958.948	292.71
959.315	332.5
959.683	372.29
960.05	257.61
960.416	339.52
960.783	252.92
961.15	281.01
961.517	283.35
961.884	290.37
962.25	346.55
962.617	320.8
962.983	283.35
963.35	309.1
963.716	320.8
964.082	259.95
964.449	257.61
964.815	295.05
965.181	264.63
965.547	299.73
965.913	306.76
966.279	252.92
966.645	252.92
967.011	318.46
967.377	320.8
967.742	273.99
968.108	330.16
968.474	292.71
968.839	283.35
969.205	299.73
969.57	304.42
969.935	313.78
970.301	257.61
970.666	332.5
971.031	334.84
971.396	295.05
971.761	248.24
972.126	290.37
972.491	383.99
972.856	339.52
973.221	365.27
973.586	281.01
973.95	306.76
974.315	325.48
974.679	332.5
975.044	292.71
975.408	316.12
975.773	344.21
976.137	288.03
976.501	285.69
976.866	323.14
977.23	316.12
977.594	320.8
977.958	302.08
978.322	318.46
978.686	257.61
979.049	278.67
979.413	266.97
979.777	276.33
980.141	330.16
980.504	318.46
980.868	255.26
981.231	304.42
981.595	266.97
981.958	252.92
982.321	264.63
982.684	327.82
983.048	281.01
983.411	295.05
983.774	278.67
984.137	252.92
984.5	259.95
984.862	316.12
985.225	341.86
985.588	302.08
985.951	302.08
986.313	264.63
986.676	273.99
987.038	281.01
987.401	299.73
987.763	341.86
988.125	337.18
988.488	281.01
988.85	358.25
989.212	320.8
989.574	346.55
989.936	316.12
990.298	292.71
990.66	327.82
991.022	276.33
991.383	264.63
991.745	283.35
992.107	313.78
992.468	306.76
992.83	323.14
993.191	327.82
993.553	309.1
993.914	318.46
994.275	320.8
994.637	266.97
994.998	325.48
995.359	306.76
995.72	339.52
996.081	285.69
996.442	276.33
996.803	348.89
997.163	381.65
997.524	238.88
997.885	281.01
998.245	285.69
998.606	351.23
998.966	297.39
999.327	220.16
999.687	325.48
1000.047	360.59
1000.408	346.55
1000.768	311.44
1001.128	327.82
1001.488	283.35
1001.848	318.46
1002.208	316.12
1002.568	327.82
1002.927	273.99
1003.287	327.82
1003.647	339.52
1004.007	297.39
1004.366	259.95
1004.726	257.61
1005.085	241.22
1005.444	323.14
1005.804	297.39
1006.163	269.31
1006.522	304.42
1006.881	283.35
1007.24	332.5
1007.599	325.48
1007.958	325.48
1008.317	346.55
1008.676	271.65
1009.035	299.73
1009.393	316.12
1009.752	362.93
1010.111	283.35
1010.469	325.48
1010.828	316.12
1011.186	264.63
1011.544	297.39
1011.903	299.73
1012.261	292.71
1012.619	255.26
1012.977	313.78
1013.335	362.93
1013.693	325.48
1014.051	369.95
1014.409	295.05
1014.767	393.36
1015.124	241.22
1015.482	353.57
1015.84	271.65
1016.197	290.37
1016.555	302.08
1016.912	292.71
1017.269	302.08
1017.627	320.8
1017.984	306.76
1018.341	332.5
1018.698	248.24
1019.055	276.33
1019.412	360.59
1019.769	302.08
1020.126	266.97
1020.483	309.1
1020.84	299.73
1021.196	281.01
1021.553	327.82
1021.909	304.42
1022.266	325.48
1022.622	302.08
1022.979	344.21
1023.335	344.21
1023.691	341.86
1024.047	339.52
1024.404	318.46
1024.76	316.12
1025.116	297.39
1025.472	360.59
1025.827	290.37
1026.183	292.71
1026.539	255.26
1026.895	306.76
1027.25	285.69
1027.606	283.35
1027.961	295.05
1028.317	252.92
1028.672	325.48
1029.028	262.29
1029.383	313.78
1029.738	327.82
1030.093	273.99
1030.448	334.84
1030.803	278.67
1031.158	257.61
1031.513	236.54
1031.868	309.1
1032.223	320.8
1032.577	316.12
1032.932	299.73
1033.287	262.29
1033.641	302.08
1033.996	318.46
1034.35	264.63
1034.704	320.8
1035.059	376.97
1035.413	332.5
1035.767	332.5
1036.121	332.5
