Data from Al_FLMS009871__998__16-22-00-618.txt Node

Date: Fri Mar 08 16:22:00 CST 2024
User: pe5414po
Spectrometer: FLMS00987
Trigger mode: 0
Integration Time (sec): 1.000000E-1
Scans to average: 1
Electric dark correction enabled: true
Nonlinearity correction enabled: false
Boxcar width: 0
XAxis mode: Wavelengths
Number of Pixels in Spectrum: 2048
>>>>>Begin Spectral Data<<<<<
188.938	-57.05
189.409	-57.05
189.879	-57.05
190.349	-134.29
190.819	-101.52
191.29	-99.18
191.76	-87.48
192.23	-120.25
192.7	-101.52
193.17	-47.69
193.64	-26.62
194.109	-59.39
194.579	-19.6
195.049	-5.56
195.519	50.61
195.988	45.93
196.458	10.82
196.927	41.25
197.397	62.32
197.866	198.07
198.336	158.28
198.805	97.42
199.274	146.58
199.744	212.11
200.213	228.49
200.682	223.81
201.151	235.52
201.62	249.56
202.089	230.84
202.558	202.75
203.027	270.62
203.495	186.37
203.964	240.2
204.433	272.96
204.902	258.92
205.37	326.8
205.839	275.31
206.307	268.28
206.776	317.44
207.244	333.82
207.712	298.71
208.181	249.56
208.649	254.24
209.117	294.03
209.585	282.33
210.053	317.44
210.521	315.09
210.989	279.99
211.457	244.88
211.925	284.67
212.393	289.35
212.861	310.41
213.328	289.35
213.796	289.35
214.264	296.37
214.731	265.94
215.199	251.9
215.666	279.99
216.133	251.9
216.601	268.28
217.068	315.09
217.535	275.31
218.003	242.54
218.47	289.35
218.937	207.43
219.404	235.52
219.871	263.6
220.338	350.2
220.805	209.77
221.271	219.13
221.738	247.22
222.205	209.77
222.671	324.46
223.138	352.54
223.605	301.05
224.071	277.65
224.538	235.52
225.004	263.6
225.47	287.01
225.937	270.62
226.403	254.24
226.869	205.09
227.335	214.45
227.801	282.33
228.267	251.9
228.733	251.9
229.199	233.18
229.665	247.22
230.131	247.22
230.597	261.26
231.062	261.26
231.528	298.71
231.994	258.92
232.459	315.09
232.925	219.13
233.39	256.58
233.856	298.71
234.321	249.56
234.786	301.05
235.252	268.28
235.717	277.65
236.182	303.39
236.647	296.37
237.112	308.07
237.577	296.37
238.042	315.09
238.507	268.28
238.972	230.84
239.436	284.67
239.901	254.24
240.366	235.52
240.83	287.01
241.295	263.6
241.76	244.88
242.224	317.44
242.688	251.9
243.153	244.88
243.617	200.41
244.081	251.9
244.545	322.12
245.01	233.18
245.474	298.71
245.938	315.09
246.402	308.07
246.866	268.28
247.33	298.71
247.793	284.67
248.257	343.18
248.721	326.8
249.185	230.84
249.648	303.39
250.112	310.41
250.575	263.6
251.039	312.75
251.502	324.46
251.965	249.56
252.429	233.18
252.892	303.39
253.355	268.28
253.818	291.69
254.281	184.02
254.744	289.35
255.207	291.69
255.67	361.91
256.133	237.86
256.596	305.73
257.059	261.26
257.522	308.07
257.984	301.05
258.447	258.92
258.909	249.56
259.372	284.67
259.834	303.39
260.297	350.2
260.759	263.6
261.221	296.37
261.684	272.96
262.146	357.22
262.608	301.05
263.07	331.48
263.532	296.37
263.994	265.94
264.456	312.75
264.918	270.62
265.38	305.73
265.842	258.92
266.303	338.5
266.765	272.96
267.227	308.07
267.688	244.88
268.15	329.14
268.611	326.8
269.072	270.62
269.534	279.99
269.995	340.84
270.456	294.03
270.918	298.71
271.379	331.48
271.84	326.8
272.301	287.01
272.762	282.33
273.223	326.8
273.684	347.86
274.144	326.8
274.605	324.46
275.066	270.62
275.527	303.39
275.987	359.56
276.448	303.39
276.908	357.22
277.369	233.18
277.829	268.28
278.289	240.2
278.75	333.82
279.21	359.56
279.67	294.03
280.13	263.6
280.59	329.14
281.05	305.73
281.51	324.46
281.97	338.5
282.43	233.18
282.89	345.52
283.35	324.46
283.809	347.86
284.269	294.03
284.729	261.26
285.188	284.67
285.648	282.33
286.107	284.67
286.567	301.05
287.026	308.07
287.485	385.31
287.944	340.84
288.404	301.05
288.863	298.71
289.322	322.12
289.781	322.12
290.24	310.41
290.699	354.88
291.158	275.31
291.616	301.05
292.075	305.73
292.534	289.35
292.992	308.07
293.451	272.96
293.91	247.22
294.368	319.78
294.827	270.62
295.285	317.44
295.743	233.18
296.202	319.78
296.66	298.71
297.118	294.03
297.576	279.99
298.034	308.07
298.492	340.84
298.95	294.03
299.408	324.46
299.866	317.44
300.324	284.67
300.781	310.41
301.239	277.65
301.697	296.37
302.154	336.16
302.612	329.14
303.069	275.31
303.527	282.33
303.984	291.69
304.441	275.31
304.899	331.48
305.356	310.41
305.813	322.12
306.27	265.94
306.727	296.37
307.184	329.14
307.641	237.86
308.098	277.65
308.555	315.09
309.012	347.86
309.468	270.62
309.925	254.24
310.382	287.01
310.838	338.5
311.295	317.44
311.751	275.31
312.208	265.94
312.664	329.14
313.12	275.31
313.577	275.31
314.033	305.73
314.489	315.09
314.945	289.35
315.401	287.01
315.857	324.46
316.313	352.54
316.769	282.33
317.225	336.16
317.681	287.01
318.136	343.18
318.592	263.6
319.048	336.16
319.503	308.07
319.959	319.78
320.414	366.59
320.869	350.2
321.325	303.39
321.78	265.94
322.235	336.16
322.691	256.58
323.146	371.27
323.601	268.28
324.056	272.96
324.511	294.03
324.966	338.5
325.421	343.18
325.875	333.82
326.33	270.62
326.785	272.96
327.24	308.07
327.694	287.01
328.149	347.86
328.603	322.12
329.058	279.99
329.512	298.71
329.966	371.27
330.421	284.67
330.875	282.33
331.329	308.07
331.783	336.16
332.237	319.78
332.691	324.46
333.145	237.86
333.599	251.9
334.053	279.99
334.507	359.56
334.96	310.41
335.414	291.69
335.868	303.39
336.321	256.58
336.775	272.96
337.228	298.71
337.682	261.26
338.135	324.46
338.588	282.33
339.042	289.35
339.495	322.12
339.948	378.29
340.401	263.6
340.854	303.39
341.307	326.8
341.76	319.78
342.213	315.09
342.666	279.99
343.119	366.59
343.571	359.56
344.024	326.8
344.477	343.18
344.929	265.94
345.382	312.75
345.834	333.82
346.287	289.35
346.739	324.46
347.191	301.05
347.644	282.33
348.096	319.78
348.548	350.2
349	371.27
349.452	284.67
349.904	308.07
350.356	340.84
350.808	258.92
351.26	329.14
351.711	277.65
352.163	303.39
352.615	268.28
353.066	343.18
353.518	340.84
353.969	324.46
354.421	291.69
354.872	305.73
355.324	282.33
355.775	305.73
356.226	263.6
356.677	312.75
357.128	235.52
357.579	312.75
358.03	329.14
358.481	270.62
358.932	301.05
359.383	308.07
359.834	338.5
360.285	312.75
360.735	322.12
361.186	294.03
361.637	331.48
362.087	265.94
362.538	282.33
362.988	333.82
363.438	333.82
363.889	315.09
364.339	375.95
364.789	303.39
365.239	310.41
365.689	338.5
366.139	319.78
366.589	279.99
367.039	357.22
367.489	326.8
367.939	317.44
368.389	331.48
368.839	392.33
369.288	340.84
369.738	322.12
370.187	317.44
370.637	329.14
371.086	336.16
371.536	296.37
371.985	352.54
372.434	345.52
372.884	284.67
373.333	331.48
373.782	338.5
374.231	282.33
374.68	406.38
375.129	272.96
375.578	333.82
376.027	289.35
376.475	294.03
376.924	361.91
377.373	312.75
377.822	268.28
378.27	270.62
378.719	305.73
379.167	319.78
379.616	343.18
380.064	258.92
380.512	279.99
380.961	263.6
381.409	298.71
381.857	319.78
382.305	315.09
382.753	294.03
383.201	350.2
383.649	406.38
384.097	364.25
384.545	287.01
384.992	296.37
385.44	375.95
385.888	282.33
386.335	345.52
386.783	296.37
387.231	207.43
387.678	340.84
388.125	270.62
388.573	350.2
389.02	319.78
389.467	289.35
389.914	296.37
390.362	275.31
390.809	244.88
391.256	261.26
391.703	294.03
392.15	291.69
392.596	319.78
393.043	223.81
393.49	312.75
393.937	319.78
394.383	322.12
394.83	359.56
395.276	284.67
395.723	282.33
396.169	279.99
396.616	375.95
397.062	277.65
397.508	366.59
397.954	354.88
398.401	364.25
398.847	364.25
399.293	324.46
399.739	340.84
400.185	382.97
400.631	312.75
401.076	261.26
401.522	333.82
401.968	333.82
402.414	275.31
402.859	301.05
403.305	354.88
403.75	315.09
404.196	366.59
404.641	380.63
405.086	261.26
405.532	279.99
405.977	329.14
406.422	345.52
406.867	310.41
407.312	303.39
407.757	303.39
408.202	308.07
408.647	294.03
409.092	336.16
409.537	263.6
409.982	333.82
410.426	340.84
410.871	394.67
411.316	289.35
411.76	275.31
412.205	226.15
412.649	301.05
413.093	289.35
413.538	359.56
413.982	315.09
414.426	308.07
414.87	289.35
415.314	340.84
415.758	272.96
416.202	287.01
416.646	294.03
417.09	289.35
417.534	301.05
417.978	284.67
418.421	296.37
418.865	329.14
419.309	322.12
419.752	294.03
420.196	263.6
420.639	333.82
421.083	317.44
421.526	343.18
421.969	418.08
422.412	284.67
422.856	310.41
423.299	336.16
423.742	310.41
424.185	315.09
424.628	310.41
425.071	331.48
425.513	312.75
425.956	336.16
426.399	315.09
426.842	350.2
427.284	319.78
427.727	287.01
428.169	364.25
428.612	324.46
429.054	324.46
429.497	265.94
429.939	315.09
430.381	331.48
430.823	329.14
431.265	235.52
431.707	305.73
432.149	291.69
432.591	310.41
433.033	298.71
433.475	382.97
433.917	375.95
434.359	237.86
434.8	251.9
435.242	284.67
435.684	265.94
436.125	284.67
436.567	333.82
437.008	284.67
437.449	333.82
437.891	347.86
438.332	282.33
438.773	296.37
439.214	319.78
439.656	333.82
440.097	331.48
440.538	298.71
440.978	357.22
441.419	228.49
441.86	352.54
442.301	371.27
442.742	279.99
443.182	265.94
443.623	296.37
444.063	319.78
444.504	296.37
444.944	317.44
445.385	305.73
445.825	301.05
446.265	256.58
446.706	287.01
447.146	387.65
447.586	357.22
448.026	345.52
448.466	315.09
448.906	333.82
449.346	272.96
449.786	322.12
450.225	312.75
450.665	291.69
451.105	296.37
451.544	326.8
451.984	282.33
452.424	310.41
452.863	275.31
453.302	305.73
453.742	340.84
454.181	303.39
454.62	336.16
455.059	319.78
455.499	310.41
455.938	310.41
456.377	333.82
456.816	317.44
457.254	392.33
457.693	317.44
458.132	322.12
458.571	366.59
459.01	340.84
459.448	368.93
459.887	294.03
460.325	296.37
460.764	312.75
461.202	366.59
461.641	277.65
462.079	272.96
462.517	291.69
462.955	254.24
463.393	317.44
463.832	305.73
464.27	317.44
464.708	326.8
465.145	242.54
465.583	303.39
466.021	244.88
466.459	312.75
466.897	312.75
467.334	326.8
467.772	291.69
468.209	322.12
468.647	301.05
469.084	277.65
469.522	354.88
469.959	368.93
470.396	287.01
470.833	326.8
471.271	296.37
471.708	308.07
472.145	333.82
472.582	319.78
473.019	331.48
473.456	282.33
473.892	368.93
474.329	315.09
474.766	317.44
475.202	357.22
475.639	312.75
476.076	272.96
476.512	333.82
476.949	303.39
477.385	289.35
477.821	287.01
478.258	275.31
478.694	226.15
479.13	347.86
479.566	336.16
480.002	352.54
480.438	361.91
480.874	322.12
481.31	345.52
481.746	326.8
482.181	357.22
482.617	263.6
483.053	422.76
483.488	354.88
483.924	322.12
484.36	275.31
484.795	317.44
485.23	359.56
485.666	312.75
486.101	357.22
486.536	343.18
486.971	312.75
487.407	315.09
487.842	324.46
488.277	237.86
488.712	301.05
489.146	375.95
489.581	385.31
490.016	291.69
490.451	329.14
490.885	261.26
491.32	364.25
491.755	289.35
492.189	275.31
492.624	368.93
493.058	331.48
493.492	205.09
493.927	298.71
494.361	296.37
494.795	287.01
495.229	324.46
495.663	350.2
496.097	294.03
496.531	296.37
496.965	319.78
497.399	315.09
497.833	296.37
498.266	310.41
498.7	319.78
499.134	336.16
499.567	305.73
500.001	361.91
500.434	275.31
500.868	350.2
501.301	331.48
501.734	301.05
502.168	263.6
502.601	282.33
503.034	310.41
503.467	291.69
503.9	312.75
504.333	270.62
504.766	326.8
505.199	331.48
505.632	378.29
506.064	305.73
506.497	326.8
506.93	303.39
507.362	343.18
507.795	371.27
508.227	319.78
508.66	364.25
509.092	366.59
509.524	301.05
509.956	347.86
510.389	303.39
510.821	331.48
511.253	336.16
511.685	326.8
512.117	289.35
512.549	343.18
512.981	352.54
513.412	317.44
513.844	340.84
514.276	294.03
514.707	352.54
515.139	357.22
515.571	270.62
516.002	347.86
516.433	305.73
516.865	296.37
517.296	308.07
517.727	298.71
518.159	242.54
518.59	347.86
519.021	343.18
519.452	312.75
519.883	345.52
520.314	336.16
520.744	331.48
521.175	301.05
521.606	244.88
522.037	345.52
522.467	336.16
522.898	287.01
523.328	312.75
523.759	322.12
524.189	336.16
524.62	326.8
525.05	263.6
525.48	310.41
525.91	366.59
526.341	326.8
526.771	340.84
527.201	326.8
527.631	373.61
528.061	312.75
528.49	364.25
528.92	357.22
529.35	340.84
529.78	326.8
530.209	296.37
530.639	322.12
531.068	294.03
531.498	329.14
531.927	312.75
532.357	329.14
532.786	357.22
533.215	319.78
533.644	261.26
534.074	301.05
534.503	289.35
534.932	237.86
535.361	359.56
535.79	256.58
536.218	382.97
536.647	359.56
537.076	324.46
537.505	352.54
537.933	230.84
538.362	359.56
538.79	305.73
539.219	296.37
539.647	338.5
540.076	268.28
540.504	301.05
540.932	357.22
541.36	305.73
541.788	317.44
542.217	361.91
542.645	354.88
543.073	368.93
543.5	371.27
543.928	303.39
544.356	310.41
544.784	364.25
545.211	291.69
545.639	310.41
546.067	315.09
546.494	303.39
546.922	308.07
547.349	378.29
547.776	303.39
548.204	333.82
548.631	258.92
549.058	298.71
549.485	296.37
549.912	282.33
550.339	315.09
550.766	380.63
551.193	275.31
551.62	301.05
552.047	317.44
552.474	338.5
552.9	315.09
553.327	347.86
553.754	308.07
554.18	326.8
554.607	382.97
555.033	324.46
555.459	317.44
555.886	298.71
556.312	350.2
556.738	312.75
557.164	287.01
557.59	364.25
558.016	265.94
558.442	357.22
558.868	361.91
559.294	375.95
559.72	289.35
560.145	268.28
560.571	279.99
560.997	338.5
561.422	289.35
561.848	308.07
562.273	338.5
562.699	322.12
563.124	350.2
563.549	345.52
563.974	322.12
564.4	279.99
564.825	305.73
565.25	287.01
565.675	284.67
566.1	319.78
566.525	345.52
566.95	310.41
567.374	277.65
567.799	329.14
568.224	233.18
568.648	354.88
569.073	331.48
569.497	305.73
569.922	265.94
570.346	331.48
570.771	317.44
571.195	361.91
571.619	268.28
572.043	282.33
572.467	338.5
572.891	303.39
573.315	287.01
573.739	347.86
574.163	336.16
574.587	368.93
575.011	375.95
575.435	282.33
575.858	317.44
576.282	317.44
576.705	301.05
577.129	312.75
577.552	322.12
577.976	326.8
578.399	326.8
578.822	382.97
579.245	291.69
579.669	315.09
580.092	270.62
580.515	275.31
580.938	350.2
581.361	359.56
581.784	329.14
582.206	294.03
582.629	310.41
583.052	296.37
583.474	329.14
583.897	387.65
584.32	333.82
584.742	312.75
585.165	319.78
585.587	256.58
586.009	315.09
586.431	329.14
586.854	301.05
587.276	294.03
587.698	319.78
588.12	291.69
588.542	303.39
588.964	279.99
589.386	287.01
589.807	289.35
590.229	303.39
590.651	291.69
591.073	308.07
591.494	315.09
591.916	382.97
592.337	291.69
592.759	317.44
593.18	336.16
593.601	343.18
594.022	336.16
594.444	289.35
594.865	378.29
595.286	265.94
595.707	343.18
596.128	345.52
596.549	340.84
596.97	343.18
597.39	380.63
597.811	277.65
598.232	331.48
598.652	357.22
599.073	263.6
599.494	254.24
599.914	310.41
600.334	315.09
600.755	322.12
601.175	312.75
601.595	284.67
602.015	345.52
602.436	212.11
602.856	422.76
603.276	333.82
603.696	258.92
604.115	303.39
604.535	366.59
604.955	345.52
605.375	329.14
605.794	287.01
606.214	352.54
606.634	308.07
607.053	359.56
607.473	303.39
607.892	357.22
608.311	347.86
608.731	242.54
609.15	333.82
609.569	375.95
609.988	326.8
610.407	345.52
610.826	322.12
611.245	366.59
611.664	312.75
612.083	364.25
612.501	326.8
612.92	333.82
613.339	326.8
613.757	338.5
614.176	279.99
614.594	308.07
615.013	291.69
615.431	336.16
615.85	284.67
616.268	303.39
616.686	359.56
617.104	340.84
617.522	242.54
617.94	291.69
618.358	319.78
618.776	287.01
619.194	305.73
619.612	251.9
620.03	345.52
620.447	378.29
620.865	347.86
621.282	291.69
621.7	350.2
622.117	294.03
622.535	333.82
622.952	350.2
623.369	345.52
623.787	324.46
624.204	268.28
624.621	277.65
625.038	310.41
625.455	317.44
625.872	301.05
626.289	352.54
626.706	282.33
627.123	242.54
627.539	289.35
627.956	308.07
628.373	329.14
628.789	340.84
629.206	326.8
629.622	368.93
630.038	340.84
630.455	331.48
630.871	324.46
631.287	317.44
631.703	282.33
632.12	296.37
632.536	347.86
632.952	352.54
633.368	359.56
633.783	336.16
634.199	282.33
634.615	298.71
635.031	291.69
635.446	347.86
635.862	294.03
636.277	350.2
636.693	345.52
637.108	312.75
637.524	406.38
637.939	301.05
638.354	352.54
638.77	336.16
639.185	436.8
639.6	319.78
640.015	331.48
640.43	254.24
640.845	298.71
641.259	333.82
641.674	331.48
642.089	366.59
642.504	303.39
642.918	284.67
643.333	282.33
643.747	329.14
644.162	340.84
644.576	315.09
644.991	319.78
645.405	345.52
645.819	275.31
646.233	305.73
646.647	324.46
647.061	322.12
647.475	303.39
647.889	263.6
648.303	319.78
648.717	272.96
649.131	347.86
649.545	329.14
649.958	378.29
650.372	322.12
650.785	317.44
651.199	322.12
651.612	303.39
652.026	352.54
652.439	296.37
652.852	336.16
653.266	287.01
653.679	329.14
654.092	343.18
654.505	338.5
654.918	275.31
655.331	338.5
655.744	326.8
656.156	343.18
656.569	350.2
656.982	347.86
657.394	270.62
657.807	279.99
658.22	324.46
658.632	315.09
659.044	279.99
659.457	317.44
659.869	331.48
660.281	371.27
660.693	324.46
661.106	308.07
661.518	368.93
661.93	338.5
662.342	315.09
662.754	301.05
663.165	336.16
663.577	301.05
663.989	326.8
664.401	347.86
664.812	350.2
665.224	322.12
665.635	401.69
666.047	359.56
666.458	279.99
666.869	301.05
667.281	263.6
667.692	308.07
668.103	324.46
668.514	336.16
668.925	359.56
669.336	270.62
669.747	317.44
670.158	338.5
670.569	331.48
670.979	282.33
671.39	289.35
671.801	308.07
672.211	294.03
672.622	282.33
673.032	312.75
673.443	294.03
673.853	279.99
674.263	272.96
674.674	359.56
675.084	305.73
675.494	319.78
675.904	265.94
676.314	373.61
676.724	324.46
677.134	347.86
677.544	247.22
677.953	319.78
678.363	354.88
678.773	296.37
679.182	289.35
679.592	319.78
680.001	322.12
680.411	303.39
680.82	291.69
681.23	345.52
681.639	331.48
682.048	282.33
682.457	305.73
682.866	265.94
683.275	298.71
683.684	343.18
684.093	298.71
684.502	296.37
684.911	315.09
685.32	251.9
685.728	329.14
686.137	345.52
686.546	301.05
686.954	338.5
687.363	312.75
687.771	322.12
688.179	368.93
688.588	331.48
688.996	312.75
689.404	394.67
689.812	315.09
690.22	291.69
690.628	287.01
691.036	352.54
691.444	364.25
691.852	371.27
692.26	350.2
692.667	324.46
693.075	347.86
693.483	326.8
693.89	268.28
694.298	371.27
694.705	272.96
695.112	345.52
695.52	303.39
695.927	277.65
696.334	319.78
696.741	317.44
697.148	345.52
697.555	296.37
697.962	352.54
698.369	279.99
698.776	368.93
699.183	279.99
699.59	254.24
699.996	315.09
700.403	284.67
700.81	361.91
701.216	265.94
701.623	279.99
702.029	301.05
702.435	329.14
702.842	343.18
703.248	291.69
703.654	359.56
704.06	308.07
704.466	331.48
704.872	301.05
705.278	265.94
705.684	347.86
706.09	279.99
706.496	254.24
706.901	354.88
707.307	343.18
707.712	284.67
708.118	326.8
708.523	340.84
708.929	265.94
709.334	301.05
709.74	291.69
710.145	275.31
710.55	338.5
710.955	310.41
711.36	261.26
711.765	345.52
712.17	315.09
712.575	298.71
712.98	729.37
713.385	364.25
713.789	326.8
714.194	366.59
714.599	289.35
715.003	303.39
715.408	298.71
715.812	340.84
716.217	326.8
716.621	308.07
717.025	343.18
717.429	294.03
717.833	343.18
718.238	275.31
718.642	298.71
719.046	333.82
719.449	343.18
719.853	343.18
720.257	301.05
720.661	294.03
721.065	301.05
721.468	268.28
721.872	333.82
722.275	298.71
722.679	287.01
723.082	294.03
723.485	296.37
723.889	310.41
724.292	284.67
724.695	244.88
725.098	254.24
725.501	324.46
725.904	331.48
726.307	413.4
726.71	270.62
727.113	340.84
727.516	357.22
727.918	380.63
728.321	275.31
728.724	261.26
729.126	347.86
729.529	331.48
729.931	366.59
730.333	310.41
730.736	368.93
731.138	247.22
731.54	315.09
731.942	387.65
732.344	336.16
732.746	319.78
733.148	315.09
733.55	301.05
733.952	371.27
734.354	340.84
734.756	317.44
735.157	324.46
735.559	279.99
735.96	287.01
736.362	352.54
736.763	326.8
737.165	268.28
737.566	350.2
737.967	291.69
738.368	333.82
738.77	322.12
739.171	305.73
739.572	315.09
739.973	298.71
740.374	375.95
740.774	315.09
741.175	291.69
741.576	310.41
741.977	303.39
742.377	322.12
742.778	310.41
743.178	294.03
743.579	247.22
743.979	324.46
744.379	319.78
744.78	317.44
745.18	296.37
745.58	371.27
745.98	296.37
746.38	284.67
746.78	378.29
747.18	305.73
747.58	315.09
747.98	347.86
748.38	352.54
748.779	301.05
749.179	301.05
749.578	324.46
749.978	378.29
750.377	343.18
750.777	303.39
751.176	298.71
751.575	296.37
751.975	296.37
752.374	315.09
752.773	310.41
753.172	317.44
753.571	319.78
753.97	287.01
754.369	347.86
754.768	298.71
755.166	312.75
755.565	284.67
755.964	277.65
756.362	275.31
756.761	261.26
757.159	343.18
757.558	319.78
757.956	324.46
758.354	380.63
758.753	317.44
759.151	310.41
759.549	265.94
759.947	272.96
760.345	287.01
760.743	350.2
761.141	317.44
761.539	310.41
761.936	345.52
762.334	347.86
762.732	357.22
763.129	322.12
763.527	275.31
763.924	350.2
764.322	289.35
764.719	336.16
765.117	389.99
765.514	282.33
765.911	315.09
766.308	279.99
766.705	336.16
767.102	324.46
767.499	265.94
767.896	301.05
768.293	331.48
768.69	265.94
769.086	329.14
769.483	315.09
769.88	387.65
770.276	272.96
770.673	291.69
771.069	322.12
771.466	343.18
771.862	254.24
772.258	289.35
772.654	251.9
773.05	282.33
773.447	347.86
773.843	331.48
774.239	312.75
774.634	317.44
775.03	251.9
775.426	368.93
775.822	333.82
776.218	357.22
776.613	256.58
777.009	350.2
777.404	305.73
777.8	296.37
778.195	275.31
778.59	268.28
778.986	389.99
779.381	272.96
779.776	333.82
780.171	347.86
780.566	268.28
780.961	301.05
781.356	317.44
781.751	240.2
782.146	256.58
782.54	291.69
782.935	364.25
783.33	303.39
783.724	291.69
784.119	315.09
784.513	326.8
784.908	284.67
785.302	352.54
785.696	340.84
786.09	291.69
786.485	322.12
786.879	305.73
787.273	324.46
787.667	315.09
788.061	317.44
788.454	268.28
788.848	291.69
789.242	347.86
789.636	282.33
790.029	312.75
790.423	333.82
790.816	298.71
791.21	294.03
791.603	298.71
791.997	305.73
792.39	287.01
792.783	279.99
793.176	272.96
793.569	336.16
793.962	333.82
794.355	263.6
794.748	251.9
795.141	340.84
795.534	331.48
795.927	291.69
796.319	340.84
796.712	401.69
797.105	296.37
797.497	301.05
797.89	265.94
798.282	291.69
798.674	336.16
799.067	282.33
799.459	350.2
799.851	315.09
800.243	308.07
800.635	289.35
801.027	322.12
801.419	324.46
801.811	338.5
802.203	354.88
802.594	298.71
802.986	343.18
803.378	371.27
803.769	322.12
804.161	298.71
804.552	284.67
804.944	343.18
805.335	254.24
805.726	347.86
806.118	298.71
806.509	254.24
806.9	282.33
807.291	312.75
807.682	345.52
808.073	251.9
808.464	279.99
808.855	294.03
809.245	301.05
809.636	387.65
810.027	326.8
810.417	265.94
810.808	329.14
811.198	336.16
811.589	301.05
811.979	270.62
812.369	291.69
812.759	289.35
813.15	294.03
813.54	303.39
813.93	322.12
814.32	317.44
814.71	317.44
815.1	324.46
815.489	324.46
815.879	338.5
816.269	275.31
816.658	350.2
817.048	347.86
817.438	310.41
817.827	331.48
818.216	329.14
818.606	357.22
818.995	345.52
819.384	279.99
819.773	268.28
820.163	317.44
820.552	294.03
820.941	322.12
821.33	265.94
821.718	291.69
822.107	298.71
822.496	329.14
822.885	254.24
823.273	254.24
823.662	294.03
824.05	336.16
824.439	294.03
824.827	228.49
825.216	294.03
825.604	296.37
825.992	308.07
826.38	287.01
826.768	287.01
827.156	324.46
827.544	254.24
827.932	294.03
828.32	310.41
828.708	305.73
829.096	357.22
829.483	368.93
829.871	291.69
830.259	308.07
830.646	272.96
831.034	289.35
831.421	287.01
831.808	284.67
832.196	364.25
832.583	284.67
832.97	308.07
833.357	268.28
833.744	319.78
834.131	275.31
834.518	291.69
834.905	247.22
835.292	361.91
835.678	317.44
836.065	329.14
836.452	322.12
836.838	263.6
837.225	291.69
837.611	336.16
837.998	308.07
838.384	272.96
838.77	294.03
839.157	317.44
839.543	209.77
839.929	317.44
840.315	261.26
840.701	258.92
841.087	294.03
841.473	301.05
841.858	242.54
842.244	317.44
842.63	301.05
843.015	319.78
843.401	635.75
843.787	368.93
844.172	284.67
844.557	270.62
844.943	294.03
845.328	350.2
845.713	315.09
846.098	338.5
846.483	331.48
846.868	324.46
847.253	347.86
847.638	324.46
848.023	242.54
848.408	319.78
848.793	333.82
849.177	294.03
849.562	282.33
849.947	322.12
850.331	326.8
850.715	282.33
851.1	305.73
851.484	265.94
851.868	268.28
852.253	298.71
852.637	298.71
853.021	361.91
853.405	352.54
853.789	315.09
854.173	336.16
854.557	308.07
854.94	333.82
855.324	343.18
855.708	305.73
856.091	350.2
856.475	317.44
856.858	305.73
857.242	343.18
857.625	347.86
858.009	268.28
858.392	275.31
858.775	338.5
859.158	371.27
859.541	284.67
859.924	338.5
860.307	338.5
860.69	298.71
861.073	291.69
861.456	315.09
861.838	279.99
862.221	298.71
862.604	336.16
862.986	354.88
863.369	324.46
863.751	326.8
864.133	251.9
864.516	350.2
864.898	345.52
865.28	277.65
865.662	359.56
866.044	312.75
866.426	277.65
866.808	322.12
867.19	333.82
867.572	333.82
867.954	315.09
868.336	333.82
868.717	291.69
869.099	357.22
869.48	333.82
869.862	272.96
870.243	296.37
870.625	294.03
871.006	326.8
871.387	277.65
871.768	289.35
872.149	305.73
872.53	315.09
872.911	294.03
873.292	371.27
873.673	364.25
874.054	249.56
874.435	272.96
874.815	268.28
875.196	230.84
875.577	303.39
875.957	277.65
876.338	237.86
876.718	315.09
877.098	319.78
877.479	310.41
877.859	352.54
878.239	315.09
878.619	338.5
878.999	256.58
879.379	331.48
879.759	296.37
880.139	338.5
880.519	308.07
880.898	324.46
881.278	375.95
881.658	296.37
882.037	354.88
882.417	322.12
882.796	282.33
883.176	298.71
883.555	296.37
883.934	289.35
884.313	249.56
884.693	331.48
885.072	294.03
885.451	329.14
885.83	308.07
886.209	296.37
886.587	263.6
886.966	296.37
887.345	294.03
887.724	275.31
888.102	347.86
888.481	289.35
888.859	301.05
889.238	305.73
889.616	305.73
889.994	270.62
890.373	354.88
890.751	354.88
891.129	291.69
891.507	296.37
891.885	350.2
892.263	265.94
892.641	289.35
893.019	350.2
893.396	263.6
893.774	338.5
894.152	301.05
894.529	340.84
894.907	315.09
895.284	308.07
895.662	331.48
896.039	298.71
896.416	347.86
896.794	329.14
897.171	298.71
897.548	301.05
897.925	279.99
898.302	284.67
898.679	326.8
899.056	279.99
899.433	331.48
899.809	326.8
900.186	301.05
900.563	308.07
900.939	345.52
901.316	315.09
901.692	289.35
902.069	350.2
902.445	364.25
902.821	336.16
903.197	282.33
903.574	312.75
903.95	268.28
904.326	317.44
904.702	359.56
905.078	354.88
905.454	333.82
905.829	389.99
906.205	331.48
906.581	263.6
906.956	378.29
907.332	361.91
907.707	324.46
908.083	296.37
908.458	340.84
908.833	291.69
909.209	352.54
909.584	291.69
909.959	296.37
910.334	338.5
910.709	279.99
911.084	315.09
911.459	345.52
911.834	301.05
912.209	270.62
912.583	312.75
912.958	258.92
913.333	261.26
913.707	373.61
914.082	331.48
914.456	366.59
914.83	319.78
915.205	322.12
915.579	359.56
915.953	254.24
916.327	294.03
916.701	256.58
917.075	347.86
917.449	324.46
917.823	298.71
918.197	310.41
918.571	310.41
918.944	312.75
919.318	296.37
919.692	312.75
920.065	265.94
920.438	279.99
920.812	235.52
921.185	272.96
921.558	305.73
921.932	244.88
922.305	331.48
922.678	303.39
923.051	350.2
923.424	333.82
923.797	326.8
924.17	343.18
924.542	277.65
924.915	230.84
925.288	361.91
925.661	340.84
926.033	319.78
926.406	315.09
926.778	244.88
927.15	282.33
927.523	338.5
927.895	345.52
928.267	343.18
928.639	289.35
929.011	354.88
929.383	364.25
929.755	308.07
930.127	277.65
930.499	308.07
930.871	340.84
931.242	336.16
931.614	350.2
931.986	329.14
932.357	275.31
932.729	343.18
933.1	326.8
933.471	268.28
933.843	322.12
934.214	357.22
934.585	258.92
934.956	298.71
935.327	305.73
935.698	263.6
936.069	265.94
936.44	329.14
936.811	331.48
937.182	258.92
937.552	270.62
937.923	240.2
938.293	308.07
938.664	277.65
939.034	329.14
939.405	336.16
939.775	282.33
940.145	317.44
940.516	329.14
940.886	294.03
941.256	275.31
941.626	331.48
941.996	415.74
942.366	368.93
942.735	343.18
943.105	338.5
943.475	338.5
943.845	329.14
944.214	301.05
944.584	244.88
944.953	242.54
945.323	284.67
945.692	322.12
946.061	368.93
946.43	233.18
946.8	308.07
947.169	282.33
947.538	343.18
947.907	291.69
948.276	350.2
948.645	237.86
949.013	354.88
949.382	319.78
949.751	317.44
950.119	352.54
950.488	305.73
950.857	303.39
951.225	354.88
951.593	298.71
951.962	319.78
952.33	324.46
952.698	287.01
953.066	331.48
953.434	326.8
953.802	279.99
954.17	272.96
954.538	319.78
954.906	282.33
955.274	289.35
955.642	308.07
956.009	359.56
956.377	317.44
956.744	284.67
957.112	237.86
957.479	308.07
957.847	329.14
958.214	270.62
958.581	319.78
958.948	282.33
959.315	317.44
959.683	298.71
960.05	251.9
960.416	308.07
960.783	364.25
961.15	289.35
961.517	233.18
961.884	336.16
962.25	289.35
962.617	331.48
962.983	303.39
963.35	265.94
963.716	322.12
964.082	298.71
964.449	324.46
964.815	282.33
965.181	343.18
965.547	296.37
965.913	298.71
966.279	291.69
966.645	303.39
967.011	324.46
967.377	249.56
967.742	284.67
968.108	312.75
968.474	371.27
968.839	305.73
969.205	352.54
969.57	277.65
969.935	277.65
970.301	287.01
970.666	319.78
971.031	291.69
971.396	291.69
971.761	361.91
972.126	301.05
972.491	331.48
972.856	242.54
973.221	289.35
973.586	333.82
973.95	275.31
974.315	282.33
974.679	265.94
975.044	298.71
975.408	291.69
975.773	240.2
976.137	350.2
976.501	258.92
976.866	312.75
977.23	284.67
977.594	268.28
977.958	343.18
978.322	315.09
978.686	310.41
979.049	169.98
979.413	291.69
979.777	282.33
980.141	315.09
980.504	317.44
980.868	308.07
981.231	359.56
981.595	387.65
981.958	338.5
982.321	303.39
982.684	312.75
983.048	301.05
983.411	315.09
983.774	331.48
984.137	301.05
984.5	310.41
984.862	284.67
985.225	343.18
985.588	296.37
985.951	275.31
986.313	275.31
986.676	329.14
987.038	291.69
987.401	375.95
987.763	277.65
988.125	282.33
988.488	322.12
988.85	322.12
989.212	322.12
989.574	375.95
989.936	294.03
990.298	343.18
990.66	268.28
991.022	361.91
991.383	284.67
991.745	296.37
992.107	268.28
992.468	329.14
992.83	287.01
993.191	301.05
993.553	319.78
993.914	333.82
994.275	331.48
994.637	329.14
994.998	345.52
995.359	326.8
995.72	272.96
996.081	352.54
996.442	326.8
996.803	350.2
997.163	233.18
997.524	317.44
997.885	268.28
998.245	350.2
998.606	301.05
998.966	275.31
999.327	303.39
999.687	315.09
1000.047	240.2
1000.408	308.07
1000.768	361.91
1001.128	310.41
1001.488	277.65
1001.848	343.18
1002.208	308.07
1002.568	287.01
1002.927	223.81
1003.287	244.88
1003.647	324.46
1004.007	345.52
1004.366	343.18
1004.726	279.99
1005.085	270.62
1005.444	305.73
1005.804	331.48
1006.163	272.96
1006.522	340.84
1006.881	331.48
1007.24	277.65
1007.599	263.6
1007.958	331.48
1008.317	244.88
1008.676	296.37
1009.035	338.5
1009.393	336.16
1009.752	287.01
1010.111	303.39
1010.469	333.82
1010.828	317.44
1011.186	294.03
1011.544	315.09
1011.903	296.37
1012.261	357.22
1012.619	317.44
1012.977	333.82
1013.335	315.09
1013.693	338.5
1014.051	331.48
1014.409	387.65
1014.767	315.09
1015.124	291.69
1015.482	336.16
1015.84	268.28
1016.197	254.24
1016.555	338.5
1016.912	298.71
1017.269	340.84
1017.627	389.99
1017.984	373.61
1018.341	317.44
1018.698	308.07
1019.055	221.47
1019.412	305.73
1019.769	270.62
1020.126	308.07
1020.483	326.8
1020.84	305.73
1021.196	301.05
1021.553	275.31
1021.909	368.93
1022.266	284.67
1022.622	310.41
1022.979	336.16
1023.335	347.86
1023.691	315.09
1024.047	277.65
1024.404	331.48
1024.76	251.9
1025.116	317.44
1025.472	310.41
1025.827	296.37
1026.183	301.05
1026.539	326.8
1026.895	336.16
1027.25	270.62
1027.606	258.92
1027.961	298.71
1028.317	317.44
1028.672	326.8
1029.028	322.12
1029.383	263.6
1029.738	294.03
1030.093	354.88
1030.448	326.8
1030.803	244.88
1031.158	289.35
1031.513	310.41
1031.868	345.52
1032.223	298.71
1032.577	308.07
1032.932	177
1033.287	336.16
1033.641	279.99
1033.996	340.84
1034.35	331.48
1034.704	373.61
1035.059	265.94
1035.413	298.71
1035.767	298.71
1036.121	298.71
