Data from Al_FLMS009871__990__16-21-59-818.txt Node

Date: Fri Mar 08 16:21:59 CST 2024
User: pe5414po
Spectrometer: FLMS00987
Trigger mode: 0
Integration Time (sec): 1.000000E-1
Scans to average: 1
Electric dark correction enabled: true
Nonlinearity correction enabled: false
Boxcar width: 0
XAxis mode: Wavelengths
Number of Pixels in Spectrum: 2048
>>>>>Begin Spectral Data<<<<<
188.938	-99.62
189.409	-99.62
189.879	-99.62
190.349	-62.17
190.819	-104.3
191.29	-87.92
191.76	-52.81
192.23	-118.34
192.7	-83.24
193.17	-43.45
193.64	-20.04
194.109	-27.06
194.579	-69.19
195.049	52.52
195.519	-36.42
195.988	12.73
196.458	47.83
196.927	96.99
197.397	68.9
197.866	113.37
198.336	146.14
198.805	169.54
199.274	183.59
199.744	174.22
200.213	174.22
200.682	204.65
201.151	211.67
201.62	251.46
202.089	251.46
202.558	199.97
203.027	237.42
203.495	242.1
203.964	237.42
204.433	298.27
204.902	291.25
205.37	249.12
205.839	307.63
206.307	272.53
206.776	237.42
207.244	286.57
207.712	251.46
208.181	391.89
208.649	319.34
209.117	295.93
209.585	302.95
210.053	326.36
210.521	302.95
210.989	286.57
211.457	232.74
211.925	267.85
212.393	204.65
212.861	263.16
213.328	284.23
213.796	204.65
214.264	279.55
214.731	284.23
215.199	253.8
215.666	225.72
216.133	288.91
216.601	298.27
217.068	253.8
217.535	314.66
218.003	309.97
218.47	302.95
218.937	246.78
219.404	230.4
219.871	274.87
220.338	253.8
220.805	178.9
221.271	300.61
221.738	251.46
222.205	281.89
222.671	258.48
223.138	300.61
223.605	281.89
224.071	242.1
224.538	253.8
225.004	298.27
225.47	253.8
225.937	225.72
226.403	237.42
226.869	300.61
227.335	288.91
227.801	249.12
228.267	244.44
228.733	267.85
229.199	281.89
229.665	237.42
230.131	298.27
230.597	267.85
231.062	237.42
231.528	305.29
231.994	235.08
232.459	279.55
232.925	340.4
233.39	281.89
233.856	232.74
234.321	221.03
234.786	270.19
235.252	244.44
235.717	253.8
236.182	251.46
236.647	293.59
237.112	279.55
237.577	235.08
238.042	300.61
238.507	279.55
238.972	333.38
239.436	265.5
239.901	305.29
240.366	295.93
240.83	293.59
241.295	270.19
241.76	295.93
242.224	293.59
242.688	284.23
243.153	291.25
243.617	279.55
244.081	260.82
244.545	272.53
245.01	319.34
245.474	338.06
245.938	274.87
246.402	345.08
246.866	277.21
247.33	300.61
247.793	272.53
248.257	286.57
248.721	242.1
249.185	293.59
249.648	286.57
250.112	277.21
250.575	204.65
251.039	260.82
251.502	286.57
251.965	260.82
252.429	260.82
252.892	246.78
253.355	293.59
253.818	284.23
254.281	265.5
254.744	270.19
255.207	272.53
255.67	244.44
256.133	258.48
256.596	263.16
257.059	274.87
257.522	267.85
257.984	272.53
258.447	251.46
258.909	263.16
259.372	324.02
259.834	317
260.297	277.21
260.759	218.69
261.221	249.12
261.684	260.82
262.146	298.27
262.608	260.82
263.07	309.97
263.532	209.33
263.994	331.04
264.456	307.63
264.918	293.59
265.38	305.29
265.842	333.38
266.303	324.02
266.765	307.63
267.227	324.02
267.688	317
268.15	326.36
268.611	321.68
269.072	256.14
269.534	274.87
269.995	223.37
270.456	265.5
270.918	281.89
271.379	295.93
271.84	342.74
272.301	284.23
272.762	286.57
273.223	328.7
273.684	246.78
274.144	284.23
274.605	309.97
275.066	251.46
275.527	272.53
275.987	314.66
276.448	272.53
276.908	352.1
277.369	317
277.829	295.93
278.289	307.63
278.75	244.44
279.21	256.14
279.67	284.23
280.13	302.95
280.59	288.91
281.05	267.85
281.51	314.66
281.97	347.42
282.43	314.66
282.89	251.46
283.35	274.87
283.809	242.1
284.269	300.61
284.729	251.46
285.188	331.04
285.648	314.66
286.107	265.5
286.567	272.53
287.026	302.95
287.485	352.1
287.944	312.32
288.404	314.66
288.863	263.16
289.322	225.72
289.781	284.23
290.24	295.93
290.699	312.32
291.158	338.06
291.616	319.34
292.075	235.08
292.534	326.36
292.992	314.66
293.451	267.85
293.91	342.74
294.368	328.7
294.827	321.68
295.285	312.32
295.743	265.5
296.202	293.59
296.66	314.66
297.118	281.89
297.576	366.15
298.034	361.47
298.492	309.97
298.95	359.13
299.408	324.02
299.866	309.97
300.324	331.04
300.781	342.74
301.239	333.38
301.697	284.23
302.154	295.93
302.612	328.7
303.069	302.95
303.527	349.76
303.984	333.38
304.441	359.13
304.899	281.89
305.356	300.61
305.813	305.29
306.27	335.72
306.727	253.8
307.184	342.74
307.641	314.66
308.098	317
308.555	251.46
309.012	314.66
309.468	260.82
309.925	298.27
310.382	242.1
310.838	279.55
311.295	331.04
311.751	279.55
312.208	214.01
312.664	312.32
313.12	242.1
313.577	281.89
314.033	349.76
314.489	307.63
314.945	295.93
315.401	302.95
315.857	319.34
316.313	338.06
316.769	298.27
317.225	279.55
317.681	342.74
318.136	309.97
318.592	258.48
319.048	345.08
319.503	279.55
319.959	307.63
320.414	305.29
320.869	298.27
321.325	265.5
321.78	307.63
322.235	317
322.691	307.63
323.146	345.08
323.601	300.61
324.056	317
324.511	270.19
324.966	274.87
325.421	242.1
325.875	197.63
326.33	284.23
326.785	284.23
327.24	309.97
327.694	293.59
328.149	272.53
328.603	295.93
329.058	333.38
329.512	244.44
329.966	314.66
330.421	314.66
330.875	279.55
331.329	256.14
331.783	324.02
332.237	335.72
332.691	265.5
333.145	307.63
333.599	291.25
334.053	298.27
334.507	288.91
334.96	305.29
335.414	279.55
335.868	366.15
336.321	354.44
336.775	387.21
337.228	317
337.682	345.08
338.135	352.1
338.588	340.4
339.042	300.61
339.495	382.53
339.948	270.19
340.401	335.72
340.854	291.25
341.307	347.42
341.76	307.63
342.213	326.36
342.666	270.19
343.119	286.57
343.571	272.53
344.024	284.23
344.477	298.27
344.929	312.32
345.382	251.46
345.834	291.25
346.287	333.38
346.739	293.59
347.191	309.97
347.644	298.27
348.096	281.89
348.548	349.76
349	291.25
349.452	286.57
349.904	284.23
350.356	366.15
350.808	375.51
351.26	319.34
351.711	307.63
352.163	328.7
352.615	328.7
353.066	305.29
353.518	319.34
353.969	293.59
354.421	239.76
354.872	361.47
355.324	312.32
355.775	272.53
356.226	309.97
356.677	331.04
357.128	345.08
357.579	305.29
358.03	286.57
358.481	295.93
358.932	272.53
359.383	284.23
359.834	307.63
360.285	307.63
360.735	321.68
361.186	333.38
361.637	263.16
362.087	335.72
362.538	335.72
362.988	286.57
363.438	326.36
363.889	361.47
364.339	288.91
364.789	321.68
365.239	317
365.689	340.4
366.139	302.95
366.589	317
367.039	291.25
367.489	349.76
367.939	309.97
368.389	333.38
368.839	331.04
369.288	281.89
369.738	333.38
370.187	356.79
370.637	298.27
371.086	342.74
371.536	375.51
371.985	312.32
372.434	333.38
372.884	274.87
373.333	298.27
373.782	295.93
374.231	286.57
374.68	293.59
375.129	324.02
375.578	312.32
376.027	317
376.475	335.72
376.924	277.21
377.373	298.27
377.822	281.89
378.27	284.23
378.719	317
379.167	317
379.616	317
380.064	305.29
380.512	272.53
380.961	242.1
381.409	260.82
381.857	274.87
382.305	232.74
382.753	277.21
383.201	387.21
383.649	373.17
384.097	366.15
384.545	302.95
384.992	288.91
385.44	338.06
385.888	340.4
386.335	277.21
386.783	281.89
387.231	345.08
387.678	281.89
388.125	338.06
388.573	373.17
389.02	263.16
389.467	321.68
389.914	305.29
390.362	281.89
390.809	279.55
391.256	314.66
391.703	333.38
392.15	326.36
392.596	370.83
393.043	260.82
393.49	270.19
393.937	312.32
394.383	298.27
394.83	326.36
395.276	251.46
395.723	345.08
396.169	277.21
396.616	345.08
397.062	256.14
397.508	284.23
397.954	363.81
398.401	307.63
398.847	363.81
399.293	352.1
399.739	333.38
400.185	373.17
400.631	349.76
401.076	279.55
401.522	256.14
401.968	288.91
402.414	354.44
402.859	277.21
403.305	345.08
403.75	328.7
404.196	307.63
404.641	354.44
405.086	340.4
405.532	307.63
405.977	342.74
406.422	373.17
406.867	293.59
407.312	281.89
407.757	279.55
408.202	302.95
408.647	349.76
409.092	305.29
409.537	239.76
409.982	251.46
410.426	328.7
410.871	314.66
411.316	312.32
411.76	302.95
412.205	382.53
412.649	338.06
413.093	260.82
413.538	347.42
413.982	380.19
414.426	326.36
414.87	352.1
415.314	326.36
415.758	295.93
416.202	340.4
416.646	274.87
417.09	237.42
417.534	335.72
417.978	223.37
418.421	286.57
418.865	333.38
419.309	328.7
419.752	302.95
420.196	359.13
420.639	382.53
421.083	340.4
421.526	370.83
421.969	324.02
422.412	370.83
422.856	302.95
423.299	319.34
423.742	340.4
424.185	251.46
424.628	256.14
425.071	314.66
425.513	361.47
425.956	319.34
426.399	321.68
426.842	356.79
427.284	274.87
427.727	349.76
428.169	319.34
428.612	361.47
429.054	375.51
429.497	291.25
429.939	309.97
430.381	375.51
430.823	298.27
431.265	347.42
431.707	295.93
432.149	291.25
432.591	281.89
433.033	331.04
433.475	291.25
433.917	274.87
434.359	324.02
434.8	272.53
435.242	361.47
435.684	342.74
436.125	235.08
436.567	340.4
437.008	342.74
437.449	354.44
437.891	373.17
438.332	253.8
438.773	314.66
439.214	345.08
439.656	359.13
440.097	307.63
440.538	309.97
440.978	298.27
441.419	331.04
441.86	347.42
442.301	288.91
442.742	328.7
443.182	363.81
443.623	267.85
444.063	253.8
444.504	382.53
444.944	328.7
445.385	326.36
445.825	288.91
446.265	328.7
446.706	307.63
447.146	300.61
447.586	293.59
448.026	312.32
448.466	314.66
448.906	307.63
449.346	342.74
449.786	324.02
450.225	291.25
450.665	312.32
451.105	293.59
451.544	363.81
451.984	363.81
452.424	342.74
452.863	338.06
453.302	314.66
453.742	270.19
454.181	298.27
454.62	359.13
455.059	309.97
455.499	298.27
455.938	317
456.377	363.81
456.816	309.97
457.254	333.38
457.693	293.59
458.132	312.32
458.571	321.68
459.01	375.51
459.448	298.27
459.887	366.15
460.325	309.97
460.764	347.42
461.202	300.61
461.641	293.59
462.079	319.34
462.517	319.34
462.955	352.1
463.393	352.1
463.832	272.53
464.27	319.34
464.708	309.97
465.145	242.1
465.583	293.59
466.021	366.15
466.459	394.23
466.897	249.12
467.334	331.04
467.772	361.47
468.209	300.61
468.647	314.66
469.084	340.4
469.522	314.66
469.959	279.55
470.396	328.7
470.833	279.55
471.271	352.1
471.708	326.36
472.145	391.89
472.582	253.8
473.019	340.4
473.456	317
473.892	331.04
474.329	321.68
474.766	328.7
475.202	352.1
475.639	288.91
476.076	309.97
476.512	338.06
476.949	314.66
477.385	321.68
477.821	321.68
478.258	309.97
478.694	291.25
479.13	359.13
479.566	389.55
480.002	380.19
480.438	342.74
480.874	305.29
481.31	253.8
481.746	298.27
482.181	331.04
482.617	312.32
483.053	288.91
483.488	295.93
483.924	363.81
484.36	366.15
484.795	356.79
485.23	284.23
485.666	345.08
486.101	396.57
486.536	305.29
486.971	314.66
487.407	249.12
487.842	331.04
488.277	305.29
488.712	354.44
489.146	321.68
489.581	368.49
490.016	319.34
490.451	298.27
490.885	284.23
491.32	370.83
491.755	319.34
492.189	324.02
492.624	317
493.058	300.61
493.492	302.95
493.927	291.25
494.361	293.59
494.795	302.95
495.229	281.89
495.663	277.21
496.097	356.79
496.531	398.92
496.965	319.34
497.399	272.53
497.833	354.44
498.266	324.02
498.7	298.27
499.134	328.7
499.567	319.34
500.001	340.4
500.434	279.55
500.868	265.5
501.301	319.34
501.734	300.61
502.168	370.83
502.601	326.36
503.034	309.97
503.467	309.97
503.9	314.66
504.333	260.82
504.766	317
505.199	328.7
505.632	295.93
506.064	302.95
506.497	331.04
506.93	345.08
507.362	370.83
507.795	302.95
508.227	309.97
508.66	347.42
509.092	302.95
509.524	312.32
509.956	300.61
510.389	267.85
510.821	314.66
511.253	281.89
511.685	291.25
512.117	356.79
512.549	298.27
512.981	321.68
513.412	305.29
513.844	319.34
514.276	291.25
514.707	359.13
515.139	352.1
515.571	349.76
516.002	277.21
516.433	295.93
516.865	366.15
517.296	307.63
517.727	319.34
518.159	312.32
518.59	363.81
519.021	277.21
519.452	345.08
519.883	394.23
520.314	319.34
520.744	354.44
521.175	302.95
521.606	274.87
522.037	244.44
522.467	324.02
522.898	312.32
523.328	319.34
523.759	324.02
524.189	291.25
524.62	321.68
525.05	333.38
525.48	281.89
525.91	307.63
526.341	342.74
526.771	324.02
527.201	349.76
527.631	286.57
528.061	317
528.49	349.76
528.92	331.04
529.35	319.34
529.78	284.23
530.209	354.44
530.639	361.47
531.068	361.47
531.498	328.7
531.927	347.42
532.357	354.44
532.786	326.36
533.215	251.46
533.644	305.29
534.074	295.93
534.503	317
534.932	270.19
535.361	321.68
535.79	298.27
536.218	302.95
536.647	396.57
537.076	326.36
537.505	277.21
537.933	335.72
538.362	319.34
538.79	328.7
539.219	288.91
539.647	340.4
540.076	359.13
540.504	328.7
540.932	338.06
541.36	377.85
541.788	314.66
542.217	291.25
542.645	338.06
543.073	342.74
543.5	314.66
543.928	242.1
544.356	305.29
544.784	300.61
545.211	279.55
545.639	387.21
546.067	317
546.494	345.08
546.922	338.06
547.349	302.95
547.776	291.25
548.204	274.87
548.631	373.17
549.058	267.85
549.485	295.93
549.912	300.61
550.339	286.57
550.766	279.55
551.193	284.23
551.62	373.17
552.047	286.57
552.474	298.27
552.9	302.95
553.327	281.89
553.754	176.56
554.18	321.68
554.607	298.27
555.033	338.06
555.459	253.8
555.886	317
556.312	295.93
556.738	312.32
557.164	309.97
557.59	352.1
558.016	265.5
558.442	293.59
558.868	394.23
559.294	319.34
559.72	298.27
560.145	277.21
560.571	277.21
560.997	305.29
561.422	314.66
561.848	331.04
562.273	349.76
562.699	340.4
563.124	354.44
563.549	288.91
563.974	366.15
564.4	366.15
564.825	295.93
565.25	335.72
565.675	359.13
566.1	333.38
566.525	328.7
566.95	317
567.374	298.27
567.799	295.93
568.224	284.23
568.648	277.21
569.073	321.68
569.497	340.4
569.922	284.23
570.346	286.57
570.771	307.63
571.195	319.34
571.619	300.61
572.043	319.34
572.467	265.5
572.891	312.32
573.315	370.83
573.739	300.61
574.163	277.21
574.587	300.61
575.011	295.93
575.435	401.26
575.858	281.89
576.282	321.68
576.705	380.19
577.129	340.4
577.552	340.4
577.976	295.93
578.399	319.34
578.822	335.72
579.245	291.25
579.669	309.97
580.092	331.04
580.515	324.02
580.938	359.13
581.361	244.44
581.784	258.48
582.206	277.21
582.629	340.4
583.052	295.93
583.474	356.79
583.897	368.49
584.32	321.68
584.742	286.57
585.165	326.36
585.587	300.61
586.009	314.66
586.431	314.66
586.854	317
587.276	307.63
587.698	295.93
588.12	312.32
588.542	321.68
588.964	317
589.386	321.68
589.807	284.23
590.229	333.38
590.651	389.55
591.073	260.82
591.494	309.97
591.916	305.29
592.337	326.36
592.759	302.95
593.18	335.72
593.601	347.42
594.022	312.32
594.444	321.68
594.865	305.29
595.286	298.27
595.707	258.48
596.128	366.15
596.549	352.1
596.97	382.53
597.39	331.04
597.811	340.4
598.232	258.48
598.652	317
599.073	326.36
599.494	314.66
599.914	291.25
600.334	302.95
600.755	284.23
601.175	326.36
601.595	391.89
602.015	221.03
602.436	370.83
602.856	441.04
603.276	288.91
603.696	312.32
604.115	359.13
604.535	284.23
604.955	338.06
605.375	321.68
605.794	333.38
606.214	342.74
606.634	286.57
607.053	300.61
607.473	342.74
607.892	349.76
608.311	415.3
608.731	251.46
609.15	263.16
609.569	293.59
609.988	272.53
610.407	319.34
610.826	340.4
611.245	300.61
611.664	324.02
612.083	244.44
612.501	295.93
612.92	338.06
613.339	324.02
613.757	377.85
614.176	314.66
614.594	307.63
615.013	309.97
615.431	293.59
615.85	356.79
616.268	312.32
616.686	288.91
617.104	291.25
617.522	333.38
617.94	305.29
618.358	295.93
618.776	335.72
619.194	338.06
619.612	260.82
620.03	354.44
620.447	317
620.865	284.23
621.282	324.02
621.7	284.23
622.117	293.59
622.535	340.4
622.952	356.79
623.369	368.49
623.787	361.47
624.204	352.1
624.621	319.34
625.038	347.42
625.455	286.57
625.872	265.5
626.289	326.36
626.706	319.34
627.123	324.02
627.539	331.04
627.956	314.66
628.373	284.23
628.789	314.66
629.206	298.27
629.622	394.23
630.038	302.95
630.455	342.74
630.871	340.4
631.287	251.46
631.703	338.06
632.12	249.12
632.536	326.36
632.952	319.34
633.368	321.68
633.783	305.29
634.199	359.13
634.615	279.55
635.031	352.1
635.446	309.97
635.862	368.49
636.277	309.97
636.693	302.95
637.108	340.4
637.524	300.61
637.939	272.53
638.354	305.29
638.77	249.12
639.185	319.34
639.6	333.38
640.015	333.38
640.43	284.23
640.845	321.68
641.259	300.61
641.674	279.55
642.089	326.36
642.504	328.7
642.918	333.38
643.333	314.66
643.747	349.76
644.162	345.08
644.576	286.57
644.991	349.76
645.405	302.95
645.819	258.48
646.233	307.63
646.647	382.53
647.061	342.74
647.475	347.42
647.889	312.32
648.303	326.36
648.717	232.74
649.131	270.19
649.545	286.57
649.958	366.15
650.372	349.76
650.785	331.04
651.199	256.14
651.612	288.91
652.026	324.02
652.439	324.02
652.852	277.21
653.266	239.76
653.679	307.63
654.092	335.72
654.505	265.5
654.918	354.44
655.331	349.76
655.744	293.59
656.156	307.63
656.569	319.34
656.982	284.23
657.394	239.76
657.807	309.97
658.22	293.59
658.632	352.1
659.044	263.16
659.457	274.87
659.869	366.15
660.281	314.66
660.693	256.14
661.106	356.79
661.518	366.15
661.93	380.19
662.342	307.63
662.754	333.38
663.165	258.48
663.577	272.53
663.989	345.08
664.401	237.42
664.812	354.44
665.224	298.27
665.635	277.21
666.047	382.53
666.458	286.57
666.869	335.72
667.281	288.91
667.692	288.91
668.103	317
668.514	298.27
668.925	265.5
669.336	302.95
669.747	270.19
670.158	354.44
670.569	302.95
670.979	319.34
671.39	338.06
671.801	349.76
672.211	251.46
672.622	300.61
673.032	380.19
673.443	356.79
673.853	338.06
674.263	373.17
674.674	328.7
675.084	307.63
675.494	286.57
675.904	333.38
676.314	288.91
676.724	305.29
677.134	326.36
677.544	335.72
677.953	321.68
678.363	284.23
678.773	363.81
679.182	312.32
679.592	363.81
680.001	328.7
680.411	319.34
680.82	335.72
681.23	263.16
681.639	288.91
682.048	366.15
682.457	300.61
682.866	373.17
683.275	295.93
683.684	363.81
684.093	281.89
684.502	305.29
684.911	293.59
685.32	335.72
685.728	363.81
686.137	380.19
686.546	251.46
686.954	328.7
687.363	302.95
687.771	298.27
688.179	354.44
688.588	359.13
688.996	319.34
689.404	277.21
689.812	260.82
690.22	335.72
690.628	291.25
691.036	244.44
691.444	391.89
691.852	401.26
692.26	340.4
692.667	263.16
693.075	328.7
693.483	335.72
693.89	274.87
694.298	347.42
694.705	324.02
695.112	347.42
695.52	307.63
695.927	356.79
696.334	328.7
696.741	307.63
697.148	291.25
697.555	251.46
697.962	309.97
698.369	305.29
698.776	312.32
699.183	263.16
699.59	321.68
699.996	347.42
700.403	354.44
700.81	319.34
701.216	333.38
701.623	319.34
702.029	328.7
702.435	340.4
702.842	342.74
703.248	335.72
703.654	324.02
704.06	286.57
704.466	291.25
704.872	321.68
705.278	270.19
705.684	401.26
706.09	260.82
706.496	291.25
706.901	309.97
707.307	424.66
707.712	340.4
708.118	298.27
708.523	291.25
708.929	361.47
709.334	309.97
709.74	370.83
710.145	331.04
710.55	309.97
710.955	317
711.36	309.97
711.765	265.5
712.17	328.7
712.575	309.97
712.98	775.74
713.385	403.6
713.789	253.8
714.194	267.85
714.599	309.97
715.003	284.23
715.408	225.72
715.812	291.25
716.217	274.87
716.621	324.02
717.025	328.7
717.429	295.93
717.833	281.89
718.238	281.89
718.642	293.59
719.046	309.97
719.449	326.36
719.853	370.83
720.257	277.21
720.661	333.38
721.065	347.42
721.468	335.72
721.872	312.32
722.275	354.44
722.679	288.91
723.082	267.85
723.485	326.36
723.889	305.29
724.292	265.5
724.695	242.1
725.098	354.44
725.501	368.49
725.904	345.08
726.307	309.97
726.71	302.95
727.113	317
727.516	319.34
727.918	326.36
728.321	300.61
728.724	263.16
729.126	312.32
729.529	361.47
729.931	377.85
730.333	370.83
730.736	291.25
731.138	272.53
731.54	242.1
731.942	309.97
732.344	326.36
732.746	352.1
733.148	328.7
733.55	298.27
733.952	314.66
734.354	260.82
734.756	298.27
735.157	309.97
735.559	298.27
735.96	279.55
736.362	363.81
736.763	321.68
737.165	263.16
737.566	288.91
737.967	331.04
738.368	265.5
738.77	333.38
739.171	356.79
739.572	284.23
739.973	352.1
740.374	324.02
740.774	298.27
741.175	263.16
741.576	333.38
741.977	279.55
742.377	288.91
742.778	279.55
743.178	309.97
743.579	270.19
743.979	302.95
744.379	401.26
744.78	335.72
745.18	300.61
745.58	331.04
745.98	253.8
746.38	317
746.78	307.63
747.18	305.29
747.58	286.57
747.98	286.57
748.38	326.36
748.779	279.55
749.179	340.4
749.578	368.49
749.978	368.49
750.377	298.27
750.777	298.27
751.176	328.7
751.575	324.02
751.975	281.89
752.374	298.27
752.773	274.87
753.172	328.7
753.571	317
753.97	295.93
754.369	302.95
754.768	281.89
755.166	375.51
755.565	321.68
755.964	340.4
756.362	314.66
756.761	295.93
757.159	267.85
757.558	305.29
757.956	272.53
758.354	265.5
758.753	302.95
759.151	349.76
759.549	349.76
759.947	370.83
760.345	277.21
760.743	253.8
761.141	347.42
761.539	338.06
761.936	345.08
762.334	326.36
762.732	328.7
763.129	342.74
763.527	300.61
763.924	377.85
764.322	345.08
764.719	352.1
765.117	377.85
765.514	319.34
765.911	347.42
766.308	326.36
766.705	284.23
767.102	347.42
767.499	394.23
767.896	324.02
768.293	317
768.69	300.61
769.086	375.51
769.483	333.38
769.88	293.59
770.276	284.23
770.673	309.97
771.069	319.34
771.466	363.81
771.862	324.02
772.258	356.79
772.654	361.47
773.05	314.66
773.447	368.49
773.843	335.72
774.239	281.89
774.634	331.04
775.03	312.32
775.426	295.93
775.822	326.36
776.218	338.06
776.613	375.51
777.009	347.42
777.404	298.27
777.8	237.42
778.195	314.66
778.59	277.21
778.986	286.57
779.381	312.32
779.776	295.93
780.171	265.5
780.566	396.57
780.961	288.91
781.356	314.66
781.751	317
782.146	277.21
782.54	286.57
782.935	321.68
783.33	345.08
783.724	340.4
784.119	340.4
784.513	284.23
784.908	286.57
785.302	349.76
785.696	366.15
786.09	328.7
786.485	314.66
786.879	256.14
787.273	314.66
787.667	347.42
788.061	347.42
788.454	335.72
788.848	291.25
789.242	335.72
789.636	258.48
790.029	328.7
790.423	321.68
790.816	286.57
791.21	279.55
791.603	321.68
791.997	286.57
792.39	309.97
792.783	345.08
793.176	274.87
793.569	347.42
793.962	279.55
794.355	352.1
794.748	340.4
795.141	300.61
795.534	286.57
795.927	237.42
796.319	284.23
796.712	380.19
797.105	277.21
797.497	317
797.89	300.61
798.282	342.74
798.674	270.19
799.067	368.49
799.459	279.55
799.851	319.34
800.243	298.27
800.635	354.44
801.027	356.79
801.419	284.23
801.811	291.25
802.203	410.62
802.594	279.55
802.986	244.44
803.378	314.66
803.769	366.15
804.161	279.55
804.552	270.19
804.944	305.29
805.335	288.91
805.726	384.87
806.118	312.32
806.509	293.59
806.9	317
807.291	307.63
807.682	361.47
808.073	352.1
808.464	309.97
808.855	368.49
809.245	335.72
809.636	288.91
810.027	302.95
810.417	347.42
810.808	300.61
811.198	312.32
811.589	345.08
811.979	361.47
812.369	338.06
812.759	338.06
813.15	249.12
813.54	321.68
813.93	279.55
814.32	328.7
814.71	300.61
815.1	284.23
815.489	328.7
815.879	312.32
816.269	300.61
816.658	258.48
817.048	309.97
817.438	328.7
817.827	286.57
818.216	300.61
818.606	307.63
818.995	338.06
819.384	291.25
819.773	345.08
820.163	338.06
820.552	284.23
820.941	267.85
821.33	309.97
821.718	270.19
822.107	324.02
822.496	412.96
822.885	302.95
823.273	352.1
823.662	274.87
824.05	307.63
824.439	324.02
824.827	342.74
825.216	274.87
825.604	267.85
825.992	270.19
826.38	288.91
826.768	260.82
827.156	272.53
827.544	274.87
827.932	307.63
828.32	288.91
828.708	335.72
829.096	333.38
829.483	314.66
829.871	288.91
830.259	246.78
830.646	345.08
831.034	270.19
831.421	265.5
831.808	251.46
832.196	389.55
832.583	321.68
832.97	335.72
833.357	291.25
833.744	312.32
834.131	335.72
834.518	314.66
834.905	321.68
835.292	249.12
835.678	300.61
836.065	293.59
836.452	317
836.838	291.25
837.225	321.68
837.611	314.66
837.998	333.38
838.384	288.91
838.77	309.97
839.157	314.66
839.543	317
839.929	317
840.315	373.17
840.701	277.21
841.087	335.72
841.473	354.44
841.858	321.68
842.244	307.63
842.63	279.55
843.015	340.4
843.401	373.17
843.787	277.21
844.172	302.95
844.557	242.1
844.943	314.66
845.328	335.72
845.713	298.27
846.098	305.29
846.483	265.5
846.868	302.95
847.253	312.32
847.638	326.36
848.023	279.55
848.408	328.7
848.793	239.76
849.177	277.21
849.562	354.44
849.947	298.27
850.331	328.7
850.715	242.1
851.1	298.27
851.484	298.27
851.868	307.63
852.253	333.38
852.637	326.36
853.021	270.19
853.405	382.53
853.789	321.68
854.173	345.08
854.557	270.19
854.94	274.87
855.324	302.95
855.708	281.89
856.091	293.59
856.475	302.95
856.858	380.19
857.242	258.48
857.625	305.29
858.009	375.51
858.392	305.29
858.775	359.13
859.158	382.53
859.541	382.53
859.924	319.34
860.307	363.81
860.69	333.38
861.073	373.17
861.456	335.72
861.838	333.38
862.221	368.49
862.604	345.08
862.986	279.55
863.369	279.55
863.751	340.4
864.133	272.53
864.516	363.81
864.898	279.55
865.28	312.32
865.662	309.97
866.044	328.7
866.426	302.95
866.808	345.08
867.19	319.34
867.572	216.35
867.954	380.19
868.336	361.47
868.717	382.53
869.099	342.74
869.48	347.42
869.862	307.63
870.243	345.08
870.625	293.59
871.006	298.27
871.387	239.76
871.768	359.13
872.149	321.68
872.53	291.25
872.911	260.82
873.292	331.04
873.673	305.29
874.054	309.97
874.435	263.16
874.815	288.91
875.196	300.61
875.577	288.91
875.957	305.29
876.338	314.66
876.718	274.87
877.098	309.97
877.479	382.53
877.859	331.04
878.239	279.55
878.619	305.29
878.999	305.29
879.379	354.44
879.759	324.02
880.139	326.36
880.519	312.32
880.898	387.21
881.278	293.59
881.658	288.91
882.037	321.68
882.417	319.34
882.796	277.21
883.176	267.85
883.555	335.72
883.934	319.34
884.313	333.38
884.693	321.68
885.072	321.68
885.451	312.32
885.83	342.74
886.209	288.91
886.587	366.15
886.966	352.1
887.345	366.15
887.724	335.72
888.102	363.81
888.481	314.66
888.859	284.23
889.238	347.42
889.616	302.95
889.994	237.42
890.373	326.36
890.751	333.38
891.129	295.93
891.507	309.97
891.885	272.53
892.263	331.04
892.641	363.81
893.019	312.32
893.396	324.02
893.774	328.7
894.152	309.97
894.529	274.87
894.907	324.02
895.284	326.36
895.662	356.79
896.039	328.7
896.416	305.29
896.794	302.95
897.171	331.04
897.548	356.79
897.925	281.89
898.302	251.46
898.679	300.61
899.056	309.97
899.433	272.53
899.809	291.25
900.186	293.59
900.563	291.25
900.939	291.25
901.316	314.66
901.692	309.97
902.069	263.16
902.445	370.83
902.821	281.89
903.197	377.85
903.574	300.61
903.95	295.93
904.326	274.87
904.702	277.21
905.078	352.1
905.454	295.93
905.829	284.23
906.205	267.85
906.581	228.06
906.956	382.53
907.332	354.44
907.707	347.42
908.083	279.55
908.458	211.67
908.833	307.63
909.209	354.44
909.584	263.16
909.959	288.91
910.334	251.46
910.709	260.82
911.084	345.08
911.459	324.02
911.834	331.04
912.209	265.5
912.583	279.55
912.958	284.23
913.333	270.19
913.707	244.44
914.082	319.34
914.456	373.17
914.83	253.8
915.205	359.13
915.579	258.48
915.953	333.38
916.327	270.19
916.701	249.12
917.075	291.25
917.449	373.17
917.823	302.95
918.197	363.81
918.571	307.63
918.944	281.89
919.318	363.81
919.692	408.28
920.065	293.59
920.438	293.59
920.812	295.93
921.185	307.63
921.558	274.87
921.932	309.97
922.305	277.21
922.678	270.19
923.051	307.63
923.424	305.29
923.797	342.74
924.17	274.87
924.542	331.04
924.915	345.08
925.288	359.13
925.661	391.89
926.033	309.97
926.406	347.42
926.778	326.36
927.15	295.93
927.523	279.55
927.895	277.21
928.267	314.66
928.639	302.95
929.011	307.63
929.383	349.76
929.755	335.72
930.127	321.68
930.499	267.85
930.871	321.68
931.242	356.79
931.614	260.82
931.986	324.02
932.357	256.14
932.729	338.06
933.1	249.12
933.471	382.53
933.843	377.85
934.214	300.61
934.585	361.47
934.956	326.36
935.327	284.23
935.698	356.79
936.069	324.02
936.44	345.08
936.811	312.32
937.182	389.55
937.552	384.87
937.923	349.76
938.293	312.32
938.664	319.34
939.034	284.23
939.405	324.02
939.775	342.74
940.145	291.25
940.516	333.38
940.886	319.34
941.256	288.91
941.626	312.32
941.996	286.57
942.366	284.23
942.735	333.38
943.105	331.04
943.475	305.29
943.845	284.23
944.214	342.74
944.584	293.59
944.953	305.29
945.323	298.27
945.692	291.25
946.061	204.65
946.43	272.53
946.8	354.44
947.169	307.63
947.538	338.06
947.907	302.95
948.276	352.1
948.645	279.55
949.013	340.4
949.382	263.16
949.751	281.89
950.119	331.04
950.488	256.14
950.857	356.79
951.225	347.42
951.593	263.16
951.962	356.79
952.33	328.7
952.698	253.8
953.066	384.87
953.434	324.02
953.802	352.1
954.17	314.66
954.538	375.51
954.906	338.06
955.274	288.91
955.642	354.44
956.009	331.04
956.377	286.57
956.744	347.42
957.112	326.36
957.479	321.68
957.847	309.97
958.214	270.19
958.581	286.57
958.948	326.36
959.315	249.12
959.683	314.66
960.05	363.81
960.416	335.72
960.783	345.08
961.15	279.55
961.517	396.57
961.884	331.04
962.25	293.59
962.617	331.04
962.983	349.76
963.35	314.66
963.716	366.15
964.082	361.47
964.449	305.29
964.815	291.25
965.181	293.59
965.547	281.89
965.913	279.55
966.279	354.44
966.645	319.34
967.011	291.25
967.377	380.19
967.742	326.36
968.108	260.82
968.474	342.74
968.839	286.57
969.205	298.27
969.57	284.23
969.935	284.23
970.301	246.78
970.666	288.91
971.031	298.27
971.396	281.89
971.761	352.1
972.126	291.25
972.491	363.81
972.856	298.27
973.221	356.79
973.586	340.4
973.95	281.89
974.315	340.4
974.679	317
975.044	356.79
975.408	324.02
975.773	319.34
976.137	338.06
976.501	260.82
976.866	286.57
977.23	345.08
977.594	291.25
977.958	272.53
978.322	302.95
978.686	256.14
979.049	293.59
979.413	352.1
979.777	324.02
980.141	319.34
980.504	328.7
980.868	333.38
981.231	335.72
981.595	302.95
981.958	272.53
982.321	370.83
982.684	377.85
983.048	288.91
983.411	412.96
983.774	356.79
984.137	345.08
984.5	324.02
984.862	340.4
985.225	366.15
985.588	300.61
985.951	274.87
986.313	312.32
986.676	324.02
987.038	305.29
987.401	328.7
987.763	309.97
988.125	286.57
988.488	302.95
988.85	391.89
989.212	366.15
989.574	305.29
989.936	321.68
990.298	342.74
990.66	345.08
991.022	300.61
991.383	359.13
991.745	342.74
992.107	317
992.468	274.87
992.83	305.29
993.191	366.15
993.553	302.95
993.914	354.44
994.275	333.38
994.637	312.32
994.998	328.7
995.359	342.74
995.72	349.76
996.081	260.82
996.442	286.57
996.803	309.97
997.163	368.49
997.524	328.7
997.885	284.23
998.245	312.32
998.606	305.29
998.966	305.29
999.327	338.06
999.687	277.21
1000.047	328.7
1000.408	260.82
1000.768	298.27
1001.128	263.16
1001.488	354.44
1001.848	258.48
1002.208	284.23
1002.568	232.74
1002.927	319.34
1003.287	317
1003.647	317
1004.007	338.06
1004.366	288.91
1004.726	295.93
1005.085	331.04
1005.444	274.87
1005.804	333.38
1006.163	260.82
1006.522	312.32
1006.881	300.61
1007.24	314.66
1007.599	288.91
1007.958	321.68
1008.317	319.34
1008.676	211.67
1009.035	279.55
1009.393	335.72
1009.752	314.66
1010.111	295.93
1010.469	345.08
1010.828	246.78
1011.186	368.49
1011.544	373.17
1011.903	288.91
1012.261	326.36
1012.619	314.66
1012.977	258.48
1013.335	302.95
1013.693	288.91
1014.051	302.95
1014.409	288.91
1014.767	302.95
1015.124	286.57
1015.482	331.04
1015.84	295.93
1016.197	256.14
1016.555	267.85
1016.912	321.68
1017.269	263.16
1017.627	391.89
1017.984	286.57
1018.341	317
1018.698	235.08
1019.055	356.79
1019.412	335.72
1019.769	340.4
1020.126	349.76
1020.483	352.1
1020.84	342.74
1021.196	302.95
1021.553	286.57
1021.909	366.15
1022.266	284.23
1022.622	265.5
1022.979	328.7
1023.335	312.32
1023.691	253.8
1024.047	300.61
1024.404	375.51
1024.76	319.34
1025.116	267.85
1025.472	370.83
1025.827	328.7
1026.183	253.8
1026.539	300.61
1026.895	368.49
1027.25	307.63
1027.606	267.85
1027.961	324.02
1028.317	230.4
1028.672	319.34
1029.028	326.36
1029.383	335.72
1029.738	340.4
1030.093	279.55
1030.448	384.87
1030.803	345.08
1031.158	363.81
1031.513	333.38
1031.868	307.63
1032.223	352.1
1032.577	242.1
1032.932	331.04
1033.287	284.23
1033.641	326.36
1033.996	284.23
1034.35	302.95
1034.704	267.85
1035.059	300.61
1035.413	349.76
1035.767	349.76
1036.121	349.76
