Data from Al_FLMS009871__94__11-47-43-396.txt Node

Date: Fri Mar 08 11:47:43 CST 2024
User: pe5414po
Spectrometer: FLMS00987
Trigger mode: 0
Integration Time (sec): 1.000000E-1
Scans to average: 1
Electric dark correction enabled: true
Nonlinearity correction enabled: false
Boxcar width: 0
XAxis mode: Wavelengths
Number of Pixels in Spectrum: 2048
>>>>>Begin Spectral Data<<<<<
188.938	-51.35
189.409	-51.35
189.879	-51.35
190.349	-116.88
190.819	-109.86
191.29	-135.6
191.76	-44.32
192.23	-79.43
192.7	-93.48
193.17	-88.79
193.64	-84.11
194.109	-65.39
194.579	-88.79
195.049	39.94
195.519	28.23
195.988	58.66
196.458	68.02
196.927	135.9
197.397	126.54
197.866	124.19
198.336	98.45
198.805	149.94
199.274	168.66
199.744	234.2
200.213	262.29
200.682	220.16
201.151	241.22
201.62	255.26
202.089	245.9
202.558	311.44
203.027	271.65
203.495	311.44
203.964	262.29
204.433	295.05
204.902	323.14
205.37	297.39
205.839	332.5
206.307	264.63
206.776	351.23
207.244	309.1
207.712	292.71
208.181	332.5
208.649	276.33
209.117	355.91
209.585	241.22
210.053	318.46
210.521	332.5
210.989	299.73
211.457	255.26
211.925	334.84
212.393	311.44
212.861	271.65
213.328	288.03
213.796	295.05
214.264	325.48
214.731	271.65
215.199	273.99
215.666	302.08
216.133	341.86
216.601	302.08
217.068	269.31
217.535	290.37
218.003	266.97
218.47	304.42
218.937	290.37
219.404	213.14
219.871	259.95
220.338	309.1
220.805	299.73
221.271	255.26
221.738	306.76
222.205	222.5
222.671	213.14
223.138	241.22
223.605	285.69
224.071	283.35
224.538	283.35
225.004	292.71
225.47	236.54
225.937	271.65
226.403	252.92
226.869	257.61
227.335	299.73
227.801	327.82
228.267	255.26
228.733	288.03
229.199	351.23
229.665	325.48
230.131	334.84
230.597	266.97
231.062	236.54
231.528	252.92
231.994	236.54
232.459	320.8
232.925	271.65
233.39	285.69
233.856	334.84
234.321	271.65
234.786	262.29
235.252	302.08
235.717	266.97
236.182	353.57
236.647	306.76
237.112	264.63
237.577	295.05
238.042	210.79
238.507	283.35
238.972	245.9
239.436	281.01
239.901	290.37
240.366	201.43
240.83	238.88
241.295	252.92
241.76	273.99
242.224	273.99
242.688	276.33
243.153	266.97
243.617	264.63
244.081	262.29
244.545	304.42
245.01	318.46
245.474	224.84
245.938	281.01
246.402	283.35
246.866	318.46
247.33	292.71
247.793	269.31
248.257	241.22
248.721	313.78
249.185	236.54
249.648	243.56
250.112	250.58
250.575	227.18
251.039	327.82
251.502	276.33
251.965	311.44
252.429	302.08
252.892	393.36
253.355	320.8
253.818	276.33
254.281	299.73
254.744	229.52
255.207	269.31
255.67	295.05
256.133	318.46
256.596	259.95
257.059	276.33
257.522	259.95
257.984	252.92
258.447	320.8
258.909	311.44
259.372	252.92
259.834	255.26
260.297	297.39
260.759	332.5
261.221	285.69
261.684	250.58
262.146	323.14
262.608	288.03
263.07	355.91
263.532	248.24
263.994	320.8
264.456	285.69
264.918	283.35
265.38	372.29
265.842	327.82
266.303	281.01
266.765	304.42
267.227	332.5
267.688	386.33
268.15	273.99
268.611	217.82
269.072	271.65
269.534	304.42
269.995	266.97
270.456	309.1
270.918	309.1
271.379	302.08
271.84	295.05
272.301	295.05
272.762	334.84
273.223	358.25
273.684	295.05
274.144	271.65
274.605	355.91
275.066	273.99
275.527	346.55
275.987	318.46
276.448	334.84
276.908	278.67
277.369	271.65
277.829	269.31
278.289	292.71
278.75	339.52
279.21	316.12
279.67	311.44
280.13	339.52
280.59	304.42
281.05	327.82
281.51	292.71
281.97	290.37
282.43	309.1
282.89	365.27
283.35	330.16
283.809	285.69
284.269	283.35
284.729	306.76
285.188	339.52
285.648	295.05
286.107	266.97
286.567	327.82
287.026	292.71
287.485	369.95
287.944	351.23
288.404	309.1
288.863	278.67
289.322	295.05
289.781	238.88
290.24	257.61
290.699	362.93
291.158	288.03
291.616	341.86
292.075	262.29
292.534	257.61
292.992	269.31
293.451	306.76
293.91	337.18
294.368	353.57
294.827	271.65
295.285	320.8
295.743	283.35
296.202	344.21
296.66	269.31
297.118	245.9
297.576	323.14
298.034	271.65
298.492	325.48
298.95	278.67
299.408	248.24
299.866	309.1
300.324	325.48
300.781	391.02
301.239	269.31
301.697	351.23
302.154	283.35
302.612	288.03
303.069	316.12
303.527	320.8
303.984	327.82
304.441	351.23
304.899	414.42
305.356	325.48
305.813	337.18
306.27	302.08
306.727	309.1
307.184	323.14
307.641	353.57
308.098	302.08
308.555	281.01
309.012	325.48
309.468	309.1
309.925	311.44
310.382	276.33
310.838	288.03
311.295	320.8
311.751	344.21
312.208	318.46
312.664	332.5
313.12	344.21
313.577	276.33
314.033	348.89
314.489	325.48
314.945	360.59
315.401	348.89
315.857	290.37
316.313	369.95
316.769	273.99
317.225	337.18
317.681	355.91
318.136	353.57
318.592	290.37
319.048	351.23
319.503	344.21
319.959	316.12
320.414	278.67
320.869	348.89
321.325	323.14
321.78	297.39
322.235	339.52
322.691	292.71
323.146	369.95
323.601	346.55
324.056	302.08
324.511	341.86
324.966	323.14
325.421	313.78
325.875	302.08
326.33	285.69
326.785	257.61
327.24	313.78
327.694	281.01
328.149	318.46
328.603	388.68
329.058	243.56
329.512	332.5
329.966	283.35
330.421	334.84
330.875	337.18
331.329	297.39
331.783	341.86
332.237	313.78
332.691	395.7
333.145	316.12
333.599	391.02
334.053	341.86
334.507	341.86
334.96	262.29
335.414	273.99
335.868	236.54
336.321	323.14
336.775	313.78
337.228	348.89
337.682	365.27
338.135	299.73
338.588	313.78
339.042	388.68
339.495	393.36
339.948	348.89
340.401	283.35
340.854	327.82
341.307	327.82
341.76	306.76
342.213	318.46
342.666	309.1
343.119	325.48
343.571	316.12
344.024	330.16
344.477	306.76
344.929	339.52
345.382	339.52
345.834	320.8
346.287	337.18
346.739	292.71
347.191	379.31
347.644	327.82
348.096	318.46
348.548	311.44
349	346.55
349.452	369.95
349.904	367.61
350.356	273.99
350.808	295.05
351.26	288.03
351.711	346.55
352.163	379.31
352.615	295.05
353.066	351.23
353.518	302.08
353.969	381.65
354.421	323.14
354.872	318.46
355.324	341.86
355.775	346.55
356.226	391.02
356.677	351.23
357.128	358.25
357.579	295.05
358.03	362.93
358.481	330.16
358.932	285.69
359.383	337.18
359.834	341.86
360.285	362.93
360.735	379.31
361.186	262.29
361.637	334.84
362.087	304.42
362.538	325.48
362.988	337.18
363.438	367.61
363.889	316.12
364.339	341.86
364.789	297.39
365.239	306.76
365.689	290.37
366.139	395.7
366.589	332.5
367.039	316.12
367.489	344.21
367.939	316.12
368.389	332.5
368.839	360.59
369.288	311.44
369.738	358.25
370.187	306.76
370.637	290.37
371.086	327.82
371.536	304.42
371.985	351.23
372.434	330.16
372.884	292.71
373.333	302.08
373.782	351.23
374.231	365.27
374.68	337.18
375.129	276.33
375.578	290.37
376.027	309.1
376.475	334.84
376.924	339.52
377.373	337.18
377.822	353.57
378.27	362.93
378.719	353.57
379.167	299.73
379.616	311.44
380.064	344.21
380.512	353.57
380.961	316.12
381.409	250.58
381.857	309.1
382.305	316.12
382.753	311.44
383.201	358.25
383.649	292.71
384.097	297.39
384.545	344.21
384.992	323.14
385.44	313.78
385.888	379.31
386.335	325.48
386.783	325.48
387.231	304.42
387.678	313.78
388.125	383.99
388.573	302.08
389.02	339.52
389.467	281.01
389.914	332.5
390.362	320.8
390.809	309.1
391.256	369.95
391.703	339.52
392.15	266.97
392.596	309.1
393.043	325.48
393.49	346.55
393.937	346.55
394.383	309.1
394.83	311.44
395.276	344.21
395.723	278.67
396.169	353.57
396.616	334.84
397.062	313.78
397.508	344.21
397.954	264.63
398.401	320.8
398.847	273.99
399.293	285.69
399.739	292.71
400.185	313.78
400.631	332.5
401.076	360.59
401.522	295.05
401.968	383.99
402.414	383.99
402.859	374.63
403.305	374.63
403.75	332.5
404.196	386.33
404.641	428.46
405.086	320.8
405.532	302.08
405.977	355.91
406.422	332.5
406.867	316.12
407.312	295.05
407.757	402.72
408.202	376.97
408.647	290.37
409.092	367.61
409.537	323.14
409.982	320.8
410.426	323.14
410.871	339.52
411.316	332.5
411.76	337.18
412.205	346.55
412.649	337.18
413.093	313.78
413.538	412.08
413.982	372.29
414.426	283.35
414.87	376.97
415.314	416.76
415.758	302.08
416.202	302.08
416.646	290.37
417.09	383.99
417.534	346.55
417.978	383.99
418.421	383.99
418.865	306.76
419.309	348.89
419.752	409.74
420.196	395.7
420.639	367.61
421.083	348.89
421.526	327.82
421.969	381.65
422.412	337.18
422.856	346.55
423.299	388.68
423.742	330.16
424.185	358.25
424.628	325.48
425.071	362.93
425.513	341.86
425.956	332.5
426.399	346.55
426.842	344.21
427.284	344.21
427.727	332.5
428.169	360.59
428.612	330.16
429.054	409.74
429.497	358.25
429.939	393.36
430.381	416.76
430.823	365.27
431.265	381.65
431.707	374.63
432.149	334.84
432.591	444.85
433.033	437.83
433.475	362.93
433.917	447.19
434.359	428.46
434.8	533.79
435.242	554.85
435.684	503.36
436.125	545.49
436.567	437.83
437.008	447.19
437.449	449.53
437.891	456.55
438.332	458.89
438.773	428.46
439.214	423.78
439.656	409.74
440.097	428.46
440.538	512.72
440.978	405.06
441.419	393.36
441.86	470.59
442.301	512.72
442.742	498.68
443.182	501.02
443.623	494
444.063	398.04
444.504	470.59
444.944	552.51
445.385	529.11
445.825	494
446.265	496.34
446.706	491.66
447.146	540.81
447.586	510.38
448.026	470.59
448.466	517.4
448.906	458.89
449.346	433.15
449.786	491.66
450.225	477.62
450.665	468.25
451.105	489.32
451.544	477.62
451.984	421.44
452.424	503.36
452.863	517.4
453.302	435.49
453.742	470.59
454.181	526.77
454.62	423.78
455.059	426.12
455.499	421.44
455.938	435.49
456.377	407.4
456.816	426.12
457.254	440.17
457.693	433.15
458.132	486.98
458.571	505.7
459.01	369.95
459.448	395.7
459.887	360.59
460.325	400.38
460.764	405.06
461.202	407.4
461.641	360.59
462.079	412.08
462.517	334.84
462.955	374.63
463.393	402.72
463.832	332.5
464.27	405.06
464.708	442.51
465.145	381.65
465.583	461.23
466.021	435.49
466.459	468.25
466.897	374.63
467.334	451.87
467.772	412.08
468.209	407.4
468.647	386.33
469.084	381.65
469.522	365.27
469.959	334.84
470.396	388.68
470.833	444.85
471.271	344.21
471.708	391.02
472.145	400.38
472.582	337.18
473.019	295.05
473.456	409.74
473.892	391.02
474.329	372.29
474.766	419.1
475.202	379.31
475.639	414.42
476.076	414.42
476.512	325.48
476.949	339.52
477.385	379.31
477.821	374.63
478.258	407.4
478.694	386.33
479.13	383.99
479.566	365.27
480.002	409.74
480.438	374.63
480.874	379.31
481.31	428.46
481.746	381.65
482.181	348.89
482.617	400.38
483.053	360.59
483.488	470.59
483.924	372.29
484.36	398.04
484.795	391.02
485.23	458.89
485.666	468.25
486.101	409.74
486.536	472.93
486.971	405.06
487.407	405.06
487.842	470.59
488.277	405.06
488.712	416.76
489.146	355.91
489.581	421.44
490.016	435.49
490.451	468.25
490.885	369.95
491.32	414.42
491.755	395.7
492.189	435.49
492.624	391.02
493.058	379.31
493.492	435.49
493.927	416.76
494.361	468.25
494.795	414.42
495.229	402.72
495.663	407.4
496.097	449.53
496.531	409.74
496.965	346.55
497.399	386.33
497.833	407.4
498.266	367.61
498.7	456.55
499.134	419.1
499.567	435.49
500.001	463.57
500.434	430.8
500.868	423.78
501.301	353.57
501.734	341.86
502.168	458.89
502.601	395.7
503.034	407.4
503.467	465.91
503.9	402.72
504.333	423.78
504.766	421.44
505.199	402.72
505.632	334.84
506.064	405.06
506.497	346.55
506.93	344.21
507.362	391.02
507.795	409.74
508.227	393.36
508.66	391.02
509.092	405.06
509.524	447.19
509.956	367.61
510.389	405.06
510.821	419.1
511.253	440.17
511.685	428.46
512.117	421.44
512.549	416.76
512.981	405.06
513.412	381.65
513.844	386.33
514.276	386.33
514.707	388.68
515.139	430.8
515.571	334.84
516.002	416.76
516.433	472.93
516.865	365.27
517.296	470.59
517.727	414.42
518.159	454.21
518.59	458.89
519.021	320.8
519.452	449.53
519.883	407.4
520.314	510.38
520.744	428.46
521.175	412.08
521.606	405.06
522.037	421.44
522.467	430.8
522.898	423.78
523.328	414.42
523.759	416.76
524.189	400.38
524.62	391.02
525.05	458.89
525.48	510.38
525.91	393.36
526.341	451.87
526.771	451.87
527.201	386.33
527.631	421.44
528.061	465.91
528.49	416.76
528.92	421.44
529.35	477.62
529.78	405.06
530.209	367.61
530.639	496.34
531.068	367.61
531.498	423.78
531.927	398.04
532.357	435.49
532.786	428.46
533.215	383.99
533.644	449.53
534.074	440.17
534.503	477.62
534.932	437.83
535.361	461.23
535.79	325.48
536.218	320.8
536.647	428.46
537.076	381.65
537.505	402.72
537.933	423.78
538.362	416.76
538.79	395.7
539.219	386.33
539.647	503.36
540.076	482.3
540.504	538.47
540.932	491.66
541.36	655.5
541.788	639.11
542.217	674.22
542.645	786.57
543.073	702.31
543.5	816.99
543.928	688.26
544.356	732.73
544.784	699.97
545.211	751.46
545.639	749.12
546.067	674.22
546.494	650.82
546.922	634.43
547.349	515.06
547.776	540.81
548.204	512.72
548.631	613.37
549.058	531.45
549.485	508.04
549.912	517.4
550.339	437.83
550.766	496.34
551.193	442.51
551.62	505.7
552.047	398.04
552.474	456.55
552.9	512.72
553.327	468.25
553.754	447.19
554.18	496.34
554.607	423.78
555.033	503.36
555.459	339.52
555.886	414.42
556.312	461.23
556.738	416.76
557.164	409.74
557.59	407.4
558.016	365.27
558.442	454.21
558.868	430.8
559.294	358.25
559.72	407.4
560.145	465.91
560.571	426.12
560.997	451.87
561.422	430.8
561.848	477.62
562.273	395.7
562.699	402.72
563.124	398.04
563.549	423.78
563.974	447.19
564.4	369.95
564.825	428.46
565.25	369.95
565.675	430.8
566.1	433.15
566.525	430.8
566.95	376.97
567.374	412.08
567.799	465.91
568.224	412.08
568.648	447.19
569.073	379.31
569.497	433.15
569.922	414.42
570.346	405.06
570.771	498.68
571.195	383.99
571.619	463.57
572.043	388.68
572.467	421.44
572.891	426.12
573.315	348.89
573.739	360.59
574.163	365.27
574.587	400.38
575.011	477.62
575.435	383.99
575.858	449.53
576.282	428.46
576.705	437.83
577.129	442.51
577.552	447.19
577.976	405.06
578.399	419.1
578.822	419.1
579.245	430.8
579.669	489.32
580.092	426.12
580.515	428.46
580.938	461.23
581.361	442.51
581.784	426.12
582.206	444.85
582.629	489.32
583.052	449.53
583.474	393.36
583.897	374.63
584.32	468.25
584.742	463.57
585.165	479.96
585.587	414.42
586.009	479.96
586.431	503.36
586.854	510.38
587.276	533.79
587.698	477.62
588.12	472.93
588.542	494
588.964	505.7
589.386	456.55
589.807	433.15
590.229	388.68
590.651	414.42
591.073	447.19
591.494	451.87
591.916	416.76
592.337	421.44
592.759	412.08
593.18	456.55
593.601	501.02
594.022	327.82
594.444	381.65
594.865	465.91
595.286	386.33
595.707	393.36
596.128	405.06
596.549	400.38
596.97	433.15
597.39	426.12
597.811	395.7
598.232	369.95
598.652	372.29
599.073	365.27
599.494	430.8
599.914	402.72
600.334	421.44
600.755	386.33
601.175	348.89
601.595	405.06
602.015	391.02
602.436	400.38
602.856	599.32
603.276	407.4
603.696	407.4
604.115	409.74
604.535	372.29
604.955	367.61
605.375	458.89
605.794	374.63
606.214	381.65
606.634	367.61
607.053	393.36
607.473	433.15
607.892	391.02
608.311	391.02
608.731	486.98
609.15	554.85
609.569	594.64
609.988	709.33
610.407	821.67
610.826	840.4
611.245	852.1
611.664	786.57
612.083	765.5
612.501	746.78
612.92	606.35
613.339	582.94
613.757	606.35
614.176	508.04
614.594	489.32
615.013	517.4
615.431	449.53
615.85	503.36
616.268	416.76
616.686	421.44
617.104	430.8
617.522	414.42
617.94	391.02
618.358	355.91
618.776	419.1
619.194	433.15
619.612	393.36
620.03	353.57
620.447	405.06
620.865	395.7
621.282	313.78
621.7	442.51
622.117	442.51
622.535	421.44
622.952	388.68
623.369	383.99
623.787	388.68
624.204	458.89
624.621	353.57
625.038	421.44
625.455	376.97
625.872	491.66
626.289	348.89
626.706	339.52
627.123	320.8
627.539	379.31
627.956	412.08
628.373	430.8
628.789	454.21
629.206	444.85
629.622	369.95
630.038	381.65
630.455	400.38
630.871	444.85
631.287	426.12
631.703	374.63
632.12	423.78
632.536	372.29
632.952	355.91
633.368	374.63
633.783	442.51
634.199	412.08
634.615	419.1
635.031	353.57
635.446	391.02
635.862	360.59
636.277	433.15
636.693	348.89
637.108	316.12
637.524	362.93
637.939	407.4
638.354	337.18
638.77	365.27
639.185	344.21
639.6	428.46
640.015	332.5
640.43	381.65
640.845	376.97
641.259	348.89
641.674	344.21
642.089	369.95
642.504	334.84
642.918	365.27
643.333	360.59
643.747	330.16
644.162	355.91
644.576	386.33
644.991	334.84
645.405	337.18
645.819	346.55
646.233	353.57
646.647	365.27
647.061	320.8
647.475	348.89
647.889	292.71
648.303	372.29
648.717	320.8
649.131	421.44
649.545	295.05
649.958	355.91
650.372	311.44
650.785	379.31
651.199	395.7
651.612	393.36
652.026	376.97
652.439	360.59
652.852	327.82
653.266	351.23
653.679	311.44
654.092	355.91
654.505	323.14
654.918	353.57
655.331	351.23
655.744	313.78
656.156	372.29
656.569	290.37
656.982	391.02
657.394	365.27
657.807	341.86
658.22	344.21
658.632	297.39
659.044	419.1
659.457	372.29
659.869	304.42
660.281	325.48
660.693	353.57
661.106	367.61
661.518	367.61
661.93	341.86
662.342	367.61
662.754	339.52
663.165	379.31
663.577	332.5
663.989	374.63
664.401	337.18
664.812	323.14
665.224	295.05
665.635	318.46
666.047	316.12
666.458	358.25
666.869	299.73
667.281	360.59
667.692	330.16
668.103	372.29
668.514	379.31
668.925	372.29
669.336	472.93
669.747	304.42
670.158	348.89
670.569	355.91
670.979	353.57
671.39	313.78
671.801	323.14
672.211	407.4
672.622	302.08
673.032	409.74
673.443	290.37
673.853	304.42
674.263	402.72
674.674	276.33
675.084	325.48
675.494	348.89
675.904	332.5
676.314	362.93
676.724	351.23
677.134	395.7
677.544	304.42
677.953	374.63
678.363	344.21
678.773	379.31
679.182	393.36
679.592	290.37
680.001	316.12
680.411	339.52
680.82	337.18
681.23	362.93
681.639	376.97
682.048	372.29
682.457	318.46
682.866	395.7
683.275	311.44
683.684	355.91
684.093	316.12
684.502	353.57
684.911	351.23
685.32	407.4
685.728	311.44
686.137	330.16
686.546	353.57
686.954	327.82
687.363	346.55
687.771	332.5
688.179	388.68
688.588	348.89
688.996	353.57
689.404	334.84
689.812	313.78
690.22	332.5
690.628	332.5
691.036	311.44
691.444	330.16
691.852	304.42
692.26	299.73
692.667	332.5
693.075	383.99
693.483	355.91
693.89	271.65
694.298	344.21
694.705	271.65
695.112	330.16
695.52	362.93
695.927	325.48
696.334	334.84
696.741	372.29
697.148	262.29
697.555	381.65
697.962	409.74
698.369	353.57
698.776	339.52
699.183	297.39
699.59	344.21
699.996	386.33
700.403	273.99
700.81	379.31
701.216	353.57
701.623	339.52
702.029	271.65
702.435	351.23
702.842	383.99
703.248	367.61
703.654	369.95
704.06	353.57
704.466	323.14
704.872	358.25
705.278	383.99
705.684	360.59
706.09	367.61
706.496	369.95
706.901	313.78
707.307	339.52
707.712	355.91
708.118	369.95
708.523	369.95
708.929	407.4
709.334	383.99
709.74	362.93
710.145	355.91
710.55	360.59
710.955	281.01
711.36	381.65
711.765	344.21
712.17	353.57
712.575	379.31
712.98	1079.13
713.385	414.42
713.789	367.61
714.194	376.97
714.599	360.59
715.003	276.33
715.408	318.46
715.812	257.61
716.217	379.31
716.621	299.73
717.025	248.24
717.429	292.71
717.833	290.37
718.238	365.27
718.642	297.39
719.046	374.63
719.449	290.37
719.853	330.16
720.257	339.52
720.661	362.93
721.065	358.25
721.468	297.39
721.872	327.82
722.275	355.91
722.679	348.89
723.082	332.5
723.485	283.35
723.889	320.8
724.292	325.48
724.695	266.97
725.098	341.86
725.501	360.59
725.904	351.23
726.307	292.71
726.71	313.78
727.113	383.99
727.516	337.18
727.918	304.42
728.321	369.95
728.724	365.27
729.126	288.03
729.529	367.61
729.931	388.68
730.333	337.18
730.736	339.52
731.138	362.93
731.54	393.36
731.942	346.55
732.344	288.03
732.746	351.23
733.148	316.12
733.55	367.61
733.952	358.25
734.354	297.39
734.756	351.23
735.157	358.25
735.559	276.33
735.96	337.18
736.362	362.93
736.763	266.97
737.165	365.27
737.566	341.86
737.967	288.03
738.368	348.89
738.77	355.91
739.171	348.89
739.572	257.61
739.973	362.93
740.374	304.42
740.774	278.67
741.175	369.95
741.576	290.37
741.977	339.52
742.377	299.73
742.778	302.08
743.178	295.05
743.579	339.52
743.979	285.69
744.379	316.12
744.78	281.01
745.18	346.55
745.58	304.42
745.98	295.05
746.38	278.67
746.78	362.93
747.18	325.48
747.58	383.99
747.98	365.27
748.38	348.89
748.779	330.16
749.179	311.44
749.578	353.57
749.978	344.21
750.377	290.37
750.777	355.91
751.176	281.01
751.575	316.12
751.975	302.08
752.374	362.93
752.773	311.44
753.172	353.57
753.571	325.48
753.97	383.99
754.369	353.57
754.768	355.91
755.166	339.52
755.565	381.65
755.964	325.48
756.362	311.44
756.761	264.63
757.159	299.73
757.558	381.65
757.956	372.29
758.354	374.63
758.753	365.27
759.151	381.65
759.549	273.99
759.947	405.06
760.345	320.8
760.743	334.84
761.141	348.89
761.539	365.27
761.936	299.73
762.334	351.23
762.732	334.84
763.129	351.23
763.527	283.35
763.924	344.21
764.322	416.76
764.719	283.35
765.117	341.86
765.514	299.73
765.911	358.25
766.308	309.1
766.705	327.82
767.102	304.42
767.499	348.89
767.896	276.33
768.293	447.19
768.69	306.76
769.086	327.82
769.483	309.1
769.88	304.42
770.276	353.57
770.673	348.89
771.069	358.25
771.466	283.35
771.862	346.55
772.258	311.44
772.654	323.14
773.05	257.61
773.447	304.42
773.843	334.84
774.239	290.37
774.634	351.23
775.03	299.73
775.426	369.95
775.822	367.61
776.218	381.65
776.613	299.73
777.009	334.84
777.404	299.73
777.8	281.01
778.195	339.52
778.59	362.93
778.986	283.35
779.381	325.48
779.776	358.25
780.171	337.18
780.566	362.93
780.961	313.78
781.356	330.16
781.751	299.73
782.146	311.44
782.54	353.57
782.935	355.91
783.33	257.61
783.724	348.89
784.119	383.99
784.513	311.44
784.908	367.61
785.302	327.82
785.696	374.63
786.09	302.08
786.485	313.78
786.879	355.91
787.273	348.89
787.667	353.57
788.061	346.55
788.454	355.91
788.848	297.39
789.242	388.68
789.636	376.97
790.029	297.39
790.423	311.44
790.816	311.44
791.21	327.82
791.603	257.61
791.997	292.71
792.39	327.82
792.783	304.42
793.176	330.16
793.569	295.05
793.962	304.42
794.355	344.21
794.748	285.69
795.141	318.46
795.534	332.5
795.927	276.33
796.319	288.03
796.712	388.68
797.105	259.95
797.497	304.42
797.89	355.91
798.282	316.12
798.674	304.42
799.067	339.52
799.459	323.14
799.851	339.52
800.243	320.8
800.635	351.23
801.027	388.68
801.419	341.86
801.811	341.86
802.203	327.82
802.594	295.05
802.986	346.55
803.378	257.61
803.769	327.82
804.161	325.48
804.552	295.05
804.944	376.97
805.335	360.59
805.726	278.67
806.118	353.57
806.509	299.73
806.9	313.78
807.291	332.5
807.682	381.65
808.073	353.57
808.464	311.44
808.855	285.69
809.245	313.78
809.636	283.35
810.027	348.89
810.417	313.78
810.808	309.1
811.198	341.86
811.589	355.91
811.979	383.99
812.369	355.91
812.759	320.8
813.15	351.23
813.54	297.39
813.93	278.67
814.32	259.95
814.71	318.46
815.1	281.01
815.489	316.12
815.879	316.12
816.269	330.16
816.658	297.39
817.048	348.89
817.438	241.22
817.827	334.84
818.216	304.42
818.606	320.8
818.995	369.95
819.384	297.39
819.773	330.16
820.163	393.36
820.552	313.78
820.941	365.27
821.33	325.48
821.718	327.82
822.107	330.16
822.496	318.46
822.885	316.12
823.273	348.89
823.662	339.52
824.05	351.23
824.439	330.16
824.827	316.12
825.216	295.05
825.604	383.99
825.992	327.82
826.38	304.42
826.768	358.25
827.156	309.1
827.544	297.39
827.932	353.57
828.32	332.5
828.708	327.82
829.096	306.76
829.483	362.93
829.871	330.16
830.259	365.27
830.646	344.21
831.034	311.44
831.421	302.08
831.808	313.78
832.196	297.39
832.583	316.12
832.97	248.24
833.357	290.37
833.744	304.42
834.131	362.93
834.518	348.89
834.905	341.86
835.292	278.67
835.678	341.86
836.065	297.39
836.452	355.91
836.838	290.37
837.225	264.63
837.611	360.59
837.998	391.02
838.384	297.39
838.77	311.44
839.157	351.23
839.543	341.86
839.929	372.29
840.315	391.02
840.701	281.01
841.087	346.55
841.473	285.69
841.858	302.08
842.244	353.57
842.63	334.84
843.015	306.76
843.401	379.31
843.787	351.23
844.172	330.16
844.557	381.65
844.943	330.16
845.328	290.37
845.713	299.73
846.098	318.46
846.483	330.16
846.868	318.46
847.253	339.52
847.638	372.29
848.023	325.48
848.408	355.91
848.793	381.65
849.177	290.37
849.562	227.18
849.947	344.21
850.331	334.84
850.715	320.8
851.1	372.29
851.484	355.91
851.868	259.95
852.253	362.93
852.637	355.91
853.021	288.03
853.405	302.08
853.789	306.76
854.173	367.61
854.557	288.03
854.94	250.58
855.324	398.04
855.708	344.21
856.091	346.55
856.475	302.08
856.858	353.57
857.242	295.05
857.625	311.44
858.009	288.03
858.392	304.42
858.775	367.61
859.158	398.04
859.541	304.42
859.924	330.16
860.307	365.27
860.69	304.42
861.073	295.05
861.456	323.14
861.838	365.27
862.221	367.61
862.604	355.91
862.986	337.18
863.369	332.5
863.751	330.16
864.133	332.5
864.516	339.52
864.898	302.08
865.28	257.61
865.662	309.1
866.044	351.23
866.426	341.86
866.808	379.31
867.19	351.23
867.572	344.21
867.954	313.78
868.336	313.78
868.717	290.37
869.099	313.78
869.48	358.25
869.862	327.82
870.243	309.1
870.625	264.63
871.006	299.73
871.387	304.42
871.768	302.08
872.149	288.03
872.53	299.73
872.911	273.99
873.292	313.78
873.673	276.33
874.054	344.21
874.435	320.8
874.815	304.42
875.196	355.91
875.577	295.05
875.957	334.84
876.338	313.78
876.718	360.59
877.098	358.25
877.479	295.05
877.859	376.97
878.239	248.24
878.619	309.1
878.999	323.14
879.379	323.14
879.759	355.91
880.139	360.59
880.519	339.52
880.898	337.18
881.278	351.23
881.658	344.21
882.037	346.55
882.417	271.65
882.796	292.71
883.176	351.23
883.555	273.99
883.934	311.44
884.313	353.57
884.693	327.82
885.072	360.59
885.451	355.91
885.83	332.5
886.209	292.71
886.587	273.99
886.966	309.1
887.345	358.25
887.724	341.86
888.102	341.86
888.481	295.05
888.859	386.33
889.238	323.14
889.616	295.05
889.994	281.01
890.373	201.43
890.751	271.65
891.129	337.18
891.507	393.36
891.885	325.48
892.263	304.42
892.641	334.84
893.019	325.48
893.396	376.97
893.774	320.8
894.152	309.1
894.529	358.25
894.907	269.31
895.284	318.46
895.662	323.14
896.039	255.26
896.416	327.82
896.794	320.8
897.171	320.8
897.548	332.5
897.925	332.5
898.302	306.76
898.679	351.23
899.056	337.18
899.433	304.42
899.809	299.73
900.186	339.52
900.563	346.55
900.939	367.61
901.316	341.86
901.692	358.25
902.069	309.1
902.445	376.97
902.821	341.86
903.197	290.37
903.574	323.14
903.95	311.44
904.326	374.63
904.702	304.42
905.078	367.61
905.454	341.86
905.829	243.56
906.205	264.63
906.581	327.82
906.956	266.97
907.332	290.37
907.707	334.84
908.083	327.82
908.458	391.02
908.833	262.29
909.209	344.21
909.584	339.52
909.959	344.21
910.334	306.76
910.709	358.25
911.084	311.44
911.459	266.97
911.834	348.89
912.209	273.99
912.583	313.78
912.958	285.69
913.333	341.86
913.707	290.37
914.082	393.36
914.456	388.68
914.83	309.1
915.205	374.63
915.579	391.02
915.953	292.71
916.327	271.65
916.701	367.61
917.075	283.35
917.449	311.44
917.823	337.18
918.197	330.16
918.571	332.5
918.944	276.33
919.318	346.55
919.692	297.39
920.065	257.61
920.438	360.59
920.812	285.69
921.185	255.26
921.558	311.44
921.932	281.01
922.305	355.91
922.678	295.05
923.051	341.86
923.424	369.95
923.797	325.48
924.17	344.21
924.542	257.61
924.915	346.55
925.288	304.42
925.661	297.39
926.033	353.57
926.406	332.5
926.778	358.25
927.15	327.82
927.523	278.67
927.895	297.39
928.267	360.59
928.639	281.01
929.011	344.21
929.383	320.8
929.755	358.25
930.127	374.63
930.499	316.12
930.871	283.35
931.242	337.18
931.614	346.55
931.986	362.93
932.357	391.02
932.729	257.61
933.1	302.08
933.471	344.21
933.843	306.76
934.214	292.71
934.585	398.04
934.956	327.82
935.327	339.52
935.698	325.48
936.069	290.37
936.44	299.73
936.811	376.97
937.182	276.33
937.552	302.08
937.923	353.57
938.293	339.52
938.664	262.29
939.034	323.14
939.405	341.86
939.775	330.16
940.145	327.82
940.516	273.99
940.886	318.46
941.256	327.82
941.626	313.78
941.996	334.84
942.366	276.33
942.735	297.39
943.105	405.06
943.475	341.86
943.845	334.84
944.214	313.78
944.584	250.58
944.953	281.01
945.323	281.01
945.692	278.67
946.061	365.27
946.43	302.08
946.8	381.65
947.169	306.76
947.538	311.44
947.907	353.57
948.276	337.18
948.645	283.35
949.013	325.48
949.382	285.69
949.751	264.63
950.119	339.52
950.488	327.82
950.857	288.03
951.225	374.63
951.593	332.5
951.962	369.95
952.33	348.89
952.698	316.12
953.066	320.8
953.434	346.55
953.802	313.78
954.17	276.33
954.538	353.57
954.906	351.23
955.274	376.97
955.642	313.78
956.009	379.31
956.377	330.16
956.744	304.42
957.112	332.5
957.479	327.82
957.847	304.42
958.214	318.46
958.581	355.91
958.948	327.82
959.315	288.03
959.683	318.46
960.05	297.39
960.416	278.67
960.783	306.76
961.15	311.44
961.517	344.21
961.884	344.21
962.25	320.8
962.617	367.61
962.983	323.14
963.35	292.71
963.716	241.22
964.082	313.78
964.449	341.86
964.815	323.14
965.181	313.78
965.547	334.84
965.913	304.42
966.279	337.18
966.645	313.78
967.011	290.37
967.377	330.16
967.742	332.5
968.108	302.08
968.474	351.23
968.839	330.16
969.205	337.18
969.57	276.33
969.935	379.31
970.301	295.05
970.666	346.55
971.031	316.12
971.396	332.5
971.761	355.91
972.126	360.59
972.491	311.44
972.856	362.93
973.221	323.14
973.586	297.39
973.95	323.14
974.315	383.99
974.679	334.84
975.044	318.46
975.408	316.12
975.773	341.86
976.137	391.02
976.501	320.8
976.866	320.8
977.23	362.93
977.594	323.14
977.958	302.08
978.322	365.27
978.686	355.91
979.049	344.21
979.413	295.05
979.777	332.5
980.141	325.48
980.504	330.16
980.868	348.89
981.231	276.33
981.595	281.01
981.958	344.21
982.321	290.37
982.684	341.86
983.048	309.1
983.411	311.44
983.774	353.57
984.137	273.99
984.5	299.73
984.862	283.35
985.225	351.23
985.588	283.35
985.951	341.86
986.313	283.35
986.676	290.37
987.038	365.27
987.401	299.73
987.763	365.27
988.125	360.59
988.488	367.61
988.85	302.08
989.212	250.58
989.574	288.03
989.936	327.82
990.298	327.82
990.66	374.63
991.022	339.52
991.383	334.84
991.745	325.48
992.107	297.39
992.468	353.57
992.83	309.1
993.191	320.8
993.553	362.93
993.914	320.8
994.275	311.44
994.637	325.48
994.998	365.27
995.359	344.21
995.72	323.14
996.081	383.99
996.442	391.02
996.803	409.74
997.163	288.03
997.524	262.29
997.885	288.03
998.245	348.89
998.606	348.89
998.966	306.76
999.327	311.44
999.687	283.35
1000.047	327.82
1000.408	360.59
1000.768	283.35
1001.128	365.27
1001.488	369.95
1001.848	362.93
1002.208	341.86
1002.568	341.86
1002.927	231.86
1003.287	318.46
1003.647	353.57
1004.007	285.69
1004.366	341.86
1004.726	391.02
1005.085	330.16
1005.444	311.44
1005.804	304.42
1006.163	309.1
1006.522	288.03
1006.881	323.14
1007.24	341.86
1007.599	295.05
1007.958	320.8
1008.317	292.71
1008.676	323.14
1009.035	360.59
1009.393	313.78
1009.752	337.18
1010.111	252.92
1010.469	379.31
1010.828	304.42
1011.186	290.37
1011.544	288.03
1011.903	222.5
1012.261	243.56
1012.619	351.23
1012.977	292.71
1013.335	245.9
1013.693	306.76
1014.051	362.93
1014.409	290.37
1014.767	313.78
1015.124	271.65
1015.482	325.48
1015.84	302.08
1016.197	302.08
1016.555	285.69
1016.912	367.61
1017.269	330.16
1017.627	355.91
1017.984	346.55
1018.341	304.42
1018.698	337.18
1019.055	304.42
1019.412	297.39
1019.769	316.12
1020.126	313.78
1020.483	288.03
1020.84	355.91
1021.196	288.03
1021.553	372.29
1021.909	393.36
1022.266	259.95
1022.622	362.93
1022.979	367.61
1023.335	358.25
1023.691	283.35
1024.047	353.57
1024.404	316.12
1024.76	332.5
1025.116	313.78
1025.472	290.37
1025.827	325.48
1026.183	358.25
1026.539	351.23
1026.895	355.91
1027.25	344.21
1027.606	320.8
1027.961	304.42
1028.317	379.31
1028.672	264.63
1029.028	325.48
1029.383	313.78
1029.738	341.86
1030.093	351.23
1030.448	295.05
1030.803	316.12
1031.158	318.46
1031.513	365.27
1031.868	252.92
1032.223	346.55
1032.577	339.52
1032.932	325.48
1033.287	292.71
1033.641	316.12
1033.996	302.08
1034.35	355.91
1034.704	330.16
1035.059	299.73
1035.413	311.44
1035.767	311.44
1036.121	311.44
