Data from Al_FLMS009871__1166__16-38-02-487.txt Node

Date: Fri Mar 08 16:38:02 CST 2024
User: pe5414po
Spectrometer: FLMS00987
Trigger mode: 0
Integration Time (sec): 1.000000E-1
Scans to average: 1
Electric dark correction enabled: true
Nonlinearity correction enabled: false
Boxcar width: 0
XAxis mode: Wavelengths
Number of Pixels in Spectrum: 2048
>>>>>Begin Spectral Data<<<<<
188.938	-111.76
189.409	-111.76
189.879	-111.76
190.349	-46.23
190.819	-69.63
191.29	-78.99
191.76	-156.23
192.23	-15.8
192.7	-74.31
193.17	-53.25
193.64	-86.01
194.109	28.67
194.579	-8.78
195.049	-22.82
195.519	38.03
195.988	2.93
196.458	47.4
196.927	98.89
197.397	49.74
197.866	141.02
198.336	89.53
198.805	141.02
199.274	152.72
199.744	178.47
200.213	262.73
200.682	222.94
201.151	229.96
201.62	201.87
202.089	201.87
202.558	244
203.027	236.98
203.495	185.49
203.964	265.07
204.433	241.66
204.902	276.77
205.37	267.41
205.839	269.75
206.307	323.58
206.776	255.7
207.244	321.24
207.712	251.02
208.181	279.11
208.649	260.38
209.117	295.49
209.585	267.41
210.053	321.24
210.521	269.75
210.989	255.7
211.457	255.7
211.925	255.7
212.393	248.68
212.861	274.43
213.328	272.09
213.796	267.41
214.264	361.03
214.731	311.88
215.199	258.04
215.666	281.45
216.133	232.3
216.601	232.3
217.068	253.36
217.535	302.51
218.003	229.96
218.47	227.62
218.937	265.07
219.404	276.77
219.871	258.04
220.338	293.15
220.805	258.04
221.271	244
221.738	204.21
222.205	190.17
222.671	253.36
223.138	269.75
223.605	248.68
224.071	251.02
224.538	225.28
225.004	211.23
225.47	251.02
225.937	293.15
226.403	321.24
226.869	286.13
227.335	241.66
227.801	246.34
228.267	276.77
228.733	295.49
229.199	316.56
229.665	232.3
230.131	244
230.597	288.47
231.062	260.38
231.528	246.34
231.994	302.51
232.459	262.73
232.925	232.3
233.39	325.92
233.856	234.64
234.321	346.98
234.786	215.91
235.252	251.02
235.717	279.11
236.182	304.85
236.647	290.81
237.112	314.22
237.577	255.7
238.042	241.66
238.507	269.75
238.972	239.32
239.436	283.79
239.901	295.49
240.366	283.79
240.83	297.83
241.295	222.94
241.76	286.13
242.224	246.34
242.688	253.36
243.153	246.34
243.617	265.07
244.081	260.38
244.545	234.64
245.01	281.45
245.474	281.45
245.938	215.91
246.402	311.88
246.866	346.98
247.33	276.77
247.793	197.19
248.257	272.09
248.721	229.96
249.185	290.81
249.648	246.34
250.112	229.96
250.575	244
251.039	293.15
251.502	323.58
251.965	300.17
252.429	274.43
252.892	234.64
253.355	262.73
253.818	279.11
254.281	328.26
254.744	286.13
255.207	229.96
255.67	253.36
256.133	251.02
256.596	314.22
257.059	269.75
257.522	246.34
257.984	295.49
258.447	232.3
258.909	307.2
259.372	307.2
259.834	314.22
260.297	307.2
260.759	325.92
261.221	391.45
261.684	307.2
262.146	232.3
262.608	251.02
263.07	274.43
263.532	260.38
263.994	283.79
264.456	269.75
264.918	283.79
265.38	286.13
265.842	325.92
266.303	323.58
266.765	260.38
267.227	318.9
267.688	218.25
268.15	297.83
268.611	316.56
269.072	274.43
269.534	239.32
269.995	248.68
270.456	232.3
270.918	260.38
271.379	295.49
271.84	335.28
272.301	279.11
272.762	279.11
273.223	302.51
273.684	232.3
274.144	274.43
274.605	274.43
275.066	283.79
275.527	234.64
275.987	251.02
276.448	290.81
276.908	314.22
277.369	253.36
277.829	253.36
278.289	251.02
278.75	337.62
279.21	241.66
279.67	258.04
280.13	295.49
280.59	227.62
281.05	276.77
281.51	251.02
281.97	288.47
282.43	288.47
282.89	258.04
283.35	311.88
283.809	316.56
284.269	349.32
284.729	241.66
285.188	218.25
285.648	239.32
286.107	302.51
286.567	314.22
287.026	321.24
287.485	290.81
287.944	288.47
288.404	201.87
288.863	307.2
289.322	290.81
289.781	342.3
290.24	274.43
290.699	255.7
291.158	288.47
291.616	229.96
292.075	293.15
292.534	258.04
292.992	286.13
293.451	283.79
293.91	354.01
294.368	262.73
294.827	265.07
295.285	368.05
295.743	225.28
296.202	265.07
296.66	290.81
297.118	328.26
297.576	295.49
298.034	239.32
298.492	281.45
298.95	244
299.408	346.98
299.866	325.92
300.324	321.24
300.781	295.49
301.239	323.58
301.697	272.09
302.154	288.47
302.612	332.94
303.069	325.92
303.527	288.47
303.984	304.85
304.441	283.79
304.899	297.83
305.356	339.96
305.813	307.2
306.27	279.11
306.727	304.85
307.184	269.75
307.641	300.17
308.098	293.15
308.555	288.47
309.012	330.6
309.468	349.32
309.925	318.9
310.382	314.22
310.838	311.88
311.295	239.32
311.751	276.77
312.208	351.67
312.664	222.94
313.12	346.98
313.577	297.83
314.033	325.92
314.489	255.7
314.945	335.28
315.401	281.45
315.857	311.88
316.313	260.38
316.769	290.81
317.225	344.64
317.681	309.54
318.136	300.17
318.592	307.2
319.048	276.77
319.503	279.11
319.959	384.43
320.414	262.73
320.869	297.83
321.325	330.6
321.78	279.11
322.235	309.54
322.691	286.13
323.146	321.24
323.601	295.49
324.056	251.02
324.511	248.68
324.966	344.64
325.421	253.36
325.875	307.2
326.33	269.75
326.785	344.64
327.24	349.32
327.694	309.54
328.149	335.28
328.603	288.47
329.058	339.96
329.512	346.98
329.966	384.43
330.421	274.43
330.875	316.56
331.329	323.58
331.783	244
332.237	318.9
332.691	262.73
333.145	311.88
333.599	311.88
334.053	304.85
334.507	290.81
334.96	342.3
335.414	365.71
335.868	323.58
336.321	354.01
336.775	375.07
337.228	255.7
337.682	346.98
338.135	316.56
338.588	321.24
339.042	351.67
339.495	309.54
339.948	281.45
340.401	335.28
340.854	309.54
341.307	330.6
341.76	361.03
342.213	290.81
342.666	321.24
343.119	295.49
343.571	351.67
344.024	302.51
344.477	295.49
344.929	375.07
345.382	377.41
345.834	255.7
346.287	258.04
346.739	269.75
347.191	300.17
347.644	178.47
348.096	272.09
348.548	307.2
349	302.51
349.452	300.17
349.904	361.03
350.356	342.3
350.808	325.92
351.26	295.49
351.711	267.41
352.163	335.28
352.615	307.2
353.066	316.56
353.518	358.69
353.969	354.01
354.421	232.3
354.872	330.6
355.324	279.11
355.775	356.35
356.226	368.05
356.677	311.88
357.128	398.48
357.579	283.79
358.03	281.45
358.481	234.64
358.932	239.32
359.383	251.02
359.834	286.13
360.285	318.9
360.735	346.98
361.186	297.83
361.637	335.28
362.087	307.2
362.538	276.77
362.988	342.3
363.438	321.24
363.889	354.01
364.339	307.2
364.789	307.2
365.239	269.75
365.689	253.36
366.139	363.37
366.589	330.6
367.039	293.15
367.489	325.92
367.939	286.13
368.389	311.88
368.839	309.54
369.288	281.45
369.738	283.79
370.187	274.43
370.637	309.54
371.086	286.13
371.536	281.45
371.985	375.07
372.434	286.13
372.884	389.11
373.333	330.6
373.782	286.13
374.231	295.49
374.68	255.7
375.129	269.75
375.578	309.54
376.027	307.2
376.475	274.43
376.924	342.3
377.373	279.11
377.822	244
378.27	269.75
378.719	346.98
379.167	349.32
379.616	335.28
380.064	342.3
380.512	222.94
380.961	253.36
381.409	276.77
381.857	325.92
382.305	297.83
382.753	368.05
383.201	304.85
383.649	297.83
384.097	363.37
384.545	325.92
384.992	379.75
385.44	311.88
385.888	274.43
386.335	302.51
386.783	274.43
387.231	288.47
387.678	370.39
388.125	314.22
388.573	234.64
389.02	342.3
389.467	382.09
389.914	265.07
390.362	321.24
390.809	290.81
391.256	260.38
391.703	279.11
392.15	197.19
392.596	318.9
393.043	248.68
393.49	241.66
393.937	302.51
394.383	295.49
394.83	332.94
395.276	358.69
395.723	293.15
396.169	346.98
396.616	354.01
397.062	283.79
397.508	318.9
397.954	365.71
398.401	318.9
398.847	316.56
399.293	361.03
399.739	370.39
400.185	290.81
400.631	328.26
401.076	377.41
401.522	274.43
401.968	344.64
402.414	253.36
402.859	304.85
403.305	300.17
403.75	295.49
404.196	297.83
404.641	276.77
405.086	335.28
405.532	281.45
405.977	265.07
406.422	293.15
406.867	307.2
407.312	335.28
407.757	318.9
408.202	286.13
408.647	290.81
409.092	293.15
409.537	255.7
409.982	300.17
410.426	255.7
410.871	309.54
411.316	267.41
411.76	318.9
412.205	295.49
412.649	300.17
413.093	346.98
413.538	302.51
413.982	323.58
414.426	358.69
414.87	286.13
415.314	337.62
415.758	337.62
416.202	396.14
416.646	356.35
417.09	283.79
417.534	398.48
417.978	342.3
418.421	318.9
418.865	332.94
419.309	234.64
419.752	344.64
420.196	354.01
420.639	379.75
421.083	302.51
421.526	304.85
421.969	330.6
422.412	293.15
422.856	269.75
423.299	300.17
423.742	302.51
424.185	286.13
424.628	262.73
425.071	311.88
425.513	323.58
425.956	318.9
426.399	325.92
426.842	314.22
427.284	300.17
427.727	265.07
428.169	295.49
428.612	307.2
429.054	349.32
429.497	262.73
429.939	286.13
430.381	246.34
430.823	283.79
431.265	248.68
431.707	309.54
432.149	297.83
432.591	239.32
433.033	314.22
433.475	316.56
433.917	389.11
434.359	307.2
434.8	260.38
435.242	354.01
435.684	251.02
436.125	293.15
436.567	297.83
437.008	288.47
437.449	274.43
437.891	288.47
438.332	309.54
438.773	335.28
439.214	311.88
439.656	314.22
440.097	363.37
440.538	314.22
440.978	288.47
441.419	304.85
441.86	302.51
442.301	335.28
442.742	302.51
443.182	279.11
443.623	288.47
444.063	304.85
444.504	297.83
444.944	323.58
445.385	297.83
445.825	302.51
446.265	307.2
446.706	316.56
447.146	307.2
447.586	335.28
448.026	272.09
448.466	311.88
448.906	302.51
449.346	302.51
449.786	325.92
450.225	337.62
450.665	351.67
451.105	304.85
451.544	337.62
451.984	325.92
452.424	309.54
452.863	311.88
453.302	325.92
453.742	262.73
454.181	260.38
454.62	286.13
455.059	361.03
455.499	349.32
455.938	258.04
456.377	307.2
456.816	283.79
457.254	391.45
457.693	384.43
458.132	339.96
458.571	321.24
459.01	248.68
459.448	293.15
459.887	323.58
460.325	328.26
460.764	314.22
461.202	335.28
461.641	267.41
462.079	377.41
462.517	295.49
462.955	307.2
463.393	307.2
463.832	311.88
464.27	192.51
464.708	311.88
465.145	302.51
465.583	307.2
466.021	323.58
466.459	316.56
466.897	332.94
467.334	328.26
467.772	307.2
468.209	311.88
468.647	368.05
469.084	316.56
469.522	262.73
469.959	302.51
470.396	290.81
470.833	323.58
471.271	358.69
471.708	281.45
472.145	314.22
472.582	323.58
473.019	302.51
473.456	300.17
473.892	304.85
474.329	330.6
474.766	288.47
475.202	304.85
475.639	309.54
476.076	339.96
476.512	323.58
476.949	283.79
477.385	354.01
477.821	318.9
478.258	351.67
478.694	288.47
479.13	323.58
479.566	316.56
480.002	281.45
480.438	311.88
480.874	307.2
481.31	279.11
481.746	325.92
482.181	356.35
482.617	286.13
483.053	368.05
483.488	269.75
483.924	316.56
484.36	337.62
484.795	269.75
485.23	314.22
485.666	293.15
486.101	335.28
486.536	332.94
486.971	265.07
487.407	349.32
487.842	309.54
488.277	335.28
488.712	321.24
489.146	323.58
489.581	337.62
490.016	346.98
490.451	307.2
490.885	346.98
491.32	293.15
491.755	328.26
492.189	361.03
492.624	368.05
493.058	337.62
493.492	314.22
493.927	286.13
494.361	307.2
494.795	267.41
495.229	295.49
495.663	382.09
496.097	354.01
496.531	335.28
496.965	330.6
497.399	330.6
497.833	349.32
498.266	297.83
498.7	358.69
499.134	300.17
499.567	351.67
500.001	323.58
500.434	297.83
500.868	286.13
501.301	281.45
501.734	321.24
502.168	288.47
502.601	354.01
503.034	307.2
503.467	290.81
503.9	272.09
504.333	297.83
504.766	316.56
505.199	391.45
505.632	314.22
506.064	286.13
506.497	302.51
506.93	274.43
507.362	358.69
507.795	321.24
508.227	344.64
508.66	314.22
509.092	314.22
509.524	300.17
509.956	290.81
510.389	288.47
510.821	302.51
511.253	349.32
511.685	370.39
512.117	290.81
512.549	321.24
512.981	244
513.412	346.98
513.844	325.92
514.276	281.45
514.707	309.54
515.139	351.67
515.571	379.75
516.002	293.15
516.433	318.9
516.865	281.45
517.296	316.56
517.727	302.51
518.159	318.9
518.59	337.62
519.021	356.35
519.452	293.15
519.883	286.13
520.314	267.41
520.744	351.67
521.175	323.58
521.606	304.85
522.037	316.56
522.467	302.51
522.898	279.11
523.328	302.51
523.759	325.92
524.189	335.28
524.62	314.22
525.05	358.69
525.48	389.11
525.91	339.96
526.341	339.96
526.771	368.05
527.201	295.49
527.631	269.75
528.061	346.98
528.49	258.04
528.92	314.22
529.35	283.79
529.78	246.34
530.209	309.54
530.639	335.28
531.068	222.94
531.498	314.22
531.927	300.17
532.357	342.3
532.786	358.69
533.215	311.88
533.644	363.37
534.074	328.26
534.503	283.79
534.932	304.85
535.361	375.07
535.79	260.38
536.218	318.9
536.647	281.45
537.076	311.88
537.505	323.58
537.933	251.02
538.362	342.3
538.79	286.13
539.219	393.8
539.647	293.15
540.076	349.32
540.504	274.43
540.932	321.24
541.36	300.17
541.788	295.49
542.217	281.45
542.645	276.77
543.073	314.22
543.5	304.85
543.928	344.64
544.356	295.49
544.784	297.83
545.211	311.88
545.639	274.43
546.067	251.02
546.494	274.43
546.922	377.41
547.349	318.9
547.776	281.45
548.204	251.02
548.631	309.54
549.058	309.54
549.485	309.54
549.912	276.77
550.339	307.2
550.766	258.04
551.193	290.81
551.62	314.22
552.047	339.96
552.474	307.2
552.9	339.96
553.327	332.94
553.754	307.2
554.18	258.04
554.607	302.51
555.033	309.54
555.459	307.2
555.886	316.56
556.312	372.73
556.738	309.54
557.164	361.03
557.59	311.88
558.016	354.01
558.442	279.11
558.868	318.9
559.294	321.24
559.72	375.07
560.145	293.15
560.571	339.96
560.997	276.77
561.422	337.62
561.848	375.07
562.273	300.17
562.699	272.09
563.124	400.82
563.549	346.98
563.974	318.9
564.4	318.9
564.825	267.41
565.25	311.88
565.675	272.09
566.1	375.07
566.525	258.04
566.95	339.96
567.374	365.71
567.799	276.77
568.224	361.03
568.648	255.7
569.073	234.64
569.497	351.67
569.922	307.2
570.346	255.7
570.771	323.58
571.195	323.58
571.619	330.6
572.043	325.92
572.467	318.9
572.891	307.2
573.315	316.56
573.739	318.9
574.163	274.43
574.587	332.94
575.011	297.83
575.435	302.51
575.858	262.73
576.282	304.85
576.705	325.92
577.129	260.38
577.552	300.17
577.976	276.77
578.399	265.07
578.822	335.28
579.245	293.15
579.669	361.03
580.092	297.83
580.515	323.58
580.938	279.11
581.361	276.77
581.784	330.6
582.206	330.6
582.629	316.56
583.052	325.92
583.474	349.32
583.897	361.03
584.32	318.9
584.742	344.64
585.165	255.7
585.587	314.22
586.009	302.51
586.431	290.81
586.854	339.96
587.276	304.85
587.698	339.96
588.12	300.17
588.542	309.54
588.964	318.9
589.386	316.56
589.807	309.54
590.229	342.3
590.651	304.85
591.073	300.17
591.494	386.77
591.916	332.94
592.337	330.6
592.759	316.56
593.18	314.22
593.601	365.71
594.022	330.6
594.444	300.17
594.865	283.79
595.286	339.96
595.707	295.49
596.128	300.17
596.549	328.26
596.97	286.13
597.39	304.85
597.811	321.24
598.232	314.22
598.652	318.9
599.073	232.3
599.494	386.77
599.914	276.77
600.334	288.47
600.755	318.9
601.175	297.83
601.595	286.13
602.015	302.51
602.436	325.92
602.856	389.11
603.276	321.24
603.696	293.15
604.115	304.85
604.535	288.47
604.955	274.43
605.375	314.22
605.794	342.3
606.214	354.01
606.634	311.88
607.053	314.22
607.473	344.64
607.892	274.43
608.311	358.69
608.731	365.71
609.15	349.32
609.569	288.47
609.988	276.77
610.407	286.13
610.826	323.58
611.245	276.77
611.664	297.83
612.083	354.01
612.501	335.28
612.92	302.51
613.339	344.64
613.757	274.43
614.176	288.47
614.594	297.83
615.013	361.03
615.431	293.15
615.85	328.26
616.268	325.92
616.686	316.56
617.104	354.01
617.522	318.9
617.94	337.62
618.358	288.47
618.776	274.43
619.194	311.88
619.612	337.62
620.03	342.3
620.447	269.75
620.865	361.03
621.282	342.3
621.7	295.49
622.117	255.7
622.535	269.75
622.952	358.69
623.369	330.6
623.787	260.38
624.204	318.9
624.621	330.6
625.038	337.62
625.455	323.58
625.872	349.32
626.289	309.54
626.706	309.54
627.123	281.45
627.539	316.56
627.956	276.77
628.373	304.85
628.789	300.17
629.206	300.17
629.622	302.51
630.038	339.96
630.455	297.83
630.871	323.58
631.287	337.62
631.703	276.77
632.12	253.36
632.536	288.47
632.952	325.92
633.368	304.85
633.783	391.45
634.199	346.98
634.615	321.24
635.031	344.64
635.446	297.83
635.862	330.6
636.277	286.13
636.693	272.09
637.108	339.96
637.524	311.88
637.939	290.81
638.354	321.24
638.77	346.98
639.185	276.77
639.6	337.62
640.015	309.54
640.43	304.85
640.845	342.3
641.259	265.07
641.674	234.64
642.089	286.13
642.504	321.24
642.918	316.56
643.333	272.09
643.747	262.73
644.162	316.56
644.576	309.54
644.991	316.56
645.405	295.49
645.819	309.54
646.233	316.56
646.647	253.36
647.061	335.28
647.475	279.11
647.889	342.3
648.303	311.88
648.717	342.3
649.131	316.56
649.545	269.75
649.958	255.7
650.372	267.41
650.785	330.6
651.199	307.2
651.612	344.64
652.026	375.07
652.439	255.7
652.852	332.94
653.266	344.64
653.679	372.73
654.092	328.26
654.505	351.67
654.918	307.2
655.331	307.2
655.744	302.51
656.156	328.26
656.569	316.56
656.982	311.88
657.394	339.96
657.807	295.49
658.22	286.13
658.632	302.51
659.044	328.26
659.457	332.94
659.869	302.51
660.281	311.88
660.693	314.22
661.106	342.3
661.518	330.6
661.93	332.94
662.342	309.54
662.754	302.51
663.165	302.51
663.577	332.94
663.989	307.2
664.401	262.73
664.812	272.09
665.224	356.35
665.635	269.75
666.047	297.83
666.458	248.68
666.869	332.94
667.281	318.9
667.692	335.28
668.103	293.15
668.514	316.56
668.925	269.75
669.336	276.77
669.747	307.2
670.158	300.17
670.569	307.2
670.979	279.11
671.39	321.24
671.801	325.92
672.211	365.71
672.622	302.51
673.032	311.88
673.443	323.58
673.853	283.79
674.263	300.17
674.674	253.36
675.084	346.98
675.494	321.24
675.904	342.3
676.314	356.35
676.724	314.22
677.134	309.54
677.544	290.81
677.953	269.75
678.363	309.54
678.773	307.2
679.182	309.54
679.592	351.67
680.001	307.2
680.411	276.77
680.82	307.2
681.23	290.81
681.639	297.83
682.048	274.43
682.457	358.69
682.866	325.92
683.275	314.22
683.684	311.88
684.093	342.3
684.502	239.32
684.911	311.88
685.32	279.11
685.728	300.17
686.137	339.96
686.546	288.47
686.954	351.67
687.363	297.83
687.771	309.54
688.179	290.81
688.588	246.34
688.996	382.09
689.404	321.24
689.812	323.58
690.22	253.36
690.628	342.3
691.036	321.24
691.444	304.85
691.852	372.73
692.26	328.26
692.667	307.2
693.075	258.04
693.483	307.2
693.89	316.56
694.298	332.94
694.705	321.24
695.112	335.28
695.52	288.47
695.927	311.88
696.334	386.77
696.741	281.45
697.148	293.15
697.555	321.24
697.962	337.62
698.369	314.22
698.776	262.73
699.183	309.54
699.59	318.9
699.996	318.9
700.403	349.32
700.81	295.49
701.216	286.13
701.623	361.03
702.029	323.58
702.435	290.81
702.842	335.28
703.248	297.83
703.654	274.43
704.06	297.83
704.466	361.03
704.872	335.28
705.278	293.15
705.684	309.54
706.09	288.47
706.496	344.64
706.901	307.2
707.307	262.73
707.712	304.85
708.118	307.2
708.523	321.24
708.929	316.56
709.334	267.41
709.74	386.77
710.145	321.24
710.55	290.81
710.955	316.56
711.36	321.24
711.765	361.03
712.17	342.3
712.575	295.49
712.98	868.92
713.385	379.75
713.789	293.15
714.194	321.24
714.599	358.69
715.003	335.28
715.408	368.05
715.812	318.9
716.217	375.07
716.621	304.85
717.025	363.37
717.429	286.13
717.833	351.67
718.238	342.3
718.642	325.92
719.046	321.24
719.449	321.24
719.853	274.43
720.257	297.83
720.661	321.24
721.065	323.58
721.468	300.17
721.872	258.04
722.275	372.73
722.679	318.9
723.082	321.24
723.485	262.73
723.889	293.15
724.292	363.37
724.695	323.58
725.098	309.54
725.501	337.62
725.904	262.73
726.307	311.88
726.71	325.92
727.113	323.58
727.516	286.13
727.918	309.54
728.321	290.81
728.724	330.6
729.126	293.15
729.529	316.56
729.931	290.81
730.333	328.26
730.736	318.9
731.138	379.75
731.54	344.64
731.942	272.09
732.344	365.71
732.746	286.13
733.148	311.88
733.55	218.25
733.952	295.49
734.354	318.9
734.756	321.24
735.157	295.49
735.559	309.54
735.96	265.07
736.362	318.9
736.763	318.9
737.165	274.43
737.566	300.17
737.967	304.85
738.368	253.36
738.77	295.49
739.171	314.22
739.572	328.26
739.973	339.96
740.374	337.62
740.774	260.38
741.175	414.86
741.576	267.41
741.977	286.13
742.377	286.13
742.778	297.83
743.178	314.22
743.579	344.64
743.979	297.83
744.379	297.83
744.78	279.11
745.18	265.07
745.58	344.64
745.98	288.47
746.38	307.2
746.78	283.79
747.18	342.3
747.58	358.69
747.98	260.38
748.38	335.28
748.779	253.36
749.179	283.79
749.578	272.09
749.978	354.01
750.377	311.88
750.777	286.13
751.176	328.26
751.575	295.49
751.975	307.2
752.374	323.58
752.773	269.75
753.172	229.96
753.571	279.11
753.97	321.24
754.369	325.92
754.768	279.11
755.166	339.96
755.565	339.96
755.964	258.04
756.362	274.43
756.761	339.96
757.159	239.32
757.558	332.94
757.956	386.77
758.354	300.17
758.753	356.35
759.151	269.75
759.549	339.96
759.947	356.35
760.345	272.09
760.743	286.13
761.141	339.96
761.539	276.77
761.936	342.3
762.334	267.41
762.732	321.24
763.129	332.94
763.527	316.56
763.924	344.64
764.322	293.15
764.719	370.39
765.117	354.01
765.514	307.2
765.911	344.64
766.308	318.9
766.705	260.38
767.102	386.77
767.499	349.32
767.896	321.24
768.293	361.03
768.69	316.56
769.086	262.73
769.483	337.62
769.88	370.39
770.276	293.15
770.673	288.47
771.069	346.98
771.466	309.54
771.862	279.11
772.258	361.03
772.654	283.79
773.05	309.54
773.447	267.41
773.843	354.01
774.239	358.69
774.634	323.58
775.03	290.81
775.426	297.83
775.822	283.79
776.218	267.41
776.613	293.15
777.009	337.62
777.404	339.96
777.8	323.58
778.195	349.32
778.59	351.67
778.986	258.04
779.381	300.17
779.776	302.51
780.171	295.49
780.566	251.02
780.961	349.32
781.356	192.51
781.751	309.54
782.146	344.64
782.54	302.51
782.935	323.58
783.33	288.47
783.724	281.45
784.119	293.15
784.513	309.54
784.908	321.24
785.302	302.51
785.696	370.39
786.09	290.81
786.485	272.09
786.879	295.49
787.273	356.35
787.667	363.37
788.061	267.41
788.454	253.36
788.848	251.02
789.242	309.54
789.636	335.28
790.029	344.64
790.423	328.26
790.816	349.32
791.21	356.35
791.603	274.43
791.997	316.56
792.39	323.58
792.783	346.98
793.176	346.98
793.569	370.39
793.962	297.83
794.355	265.07
794.748	267.41
795.141	248.68
795.534	372.73
795.927	344.64
796.319	337.62
796.712	297.83
797.105	325.92
797.497	354.01
797.89	199.53
798.282	309.54
798.674	344.64
799.067	288.47
799.459	330.6
799.851	318.9
800.243	286.13
800.635	339.96
801.027	255.7
801.419	332.94
801.811	300.17
802.203	260.38
802.594	300.17
802.986	304.85
803.378	316.56
803.769	295.49
804.161	349.32
804.552	389.11
804.944	321.24
805.335	279.11
805.726	325.92
806.118	318.9
806.509	377.41
806.9	318.9
807.291	241.66
807.682	293.15
808.073	342.3
808.464	309.54
808.855	314.22
809.245	335.28
809.636	314.22
810.027	344.64
810.417	276.77
810.808	274.43
811.198	311.88
811.589	349.32
811.979	288.47
812.369	265.07
812.759	225.28
813.15	323.58
813.54	337.62
813.93	283.79
814.32	295.49
814.71	267.41
815.1	311.88
815.489	309.54
815.879	318.9
816.269	316.56
816.658	330.6
817.048	262.73
817.438	290.81
817.827	379.75
818.216	255.7
818.606	276.77
818.995	314.22
819.384	318.9
819.773	321.24
820.163	309.54
820.552	255.7
820.941	260.38
821.33	361.03
821.718	286.13
822.107	295.49
822.496	276.77
822.885	297.83
823.273	293.15
823.662	354.01
824.05	293.15
824.439	396.14
824.827	227.62
825.216	351.67
825.604	316.56
825.992	262.73
826.38	290.81
826.768	304.85
827.156	218.25
827.544	307.2
827.932	267.41
828.32	346.98
828.708	293.15
829.096	314.22
829.483	283.79
829.871	330.6
830.259	309.54
830.646	351.67
831.034	307.2
831.421	323.58
831.808	346.98
832.196	267.41
832.583	349.32
832.97	325.92
833.357	321.24
833.744	290.81
834.131	330.6
834.518	314.22
834.905	293.15
835.292	323.58
835.678	332.94
836.065	337.62
836.452	288.47
836.838	332.94
837.225	293.15
837.611	382.09
837.998	332.94
838.384	297.83
838.77	274.43
839.157	375.07
839.543	274.43
839.929	293.15
840.315	368.05
840.701	351.67
841.087	281.45
841.473	328.26
841.858	346.98
842.244	304.85
842.63	293.15
843.015	309.54
843.401	548.27
843.787	346.98
844.172	325.92
844.557	248.68
844.943	314.22
845.328	297.83
845.713	239.32
846.098	279.11
846.483	316.56
846.868	236.98
847.253	311.88
847.638	265.07
848.023	283.79
848.408	372.73
848.793	295.49
849.177	365.71
849.562	323.58
849.947	323.58
850.331	302.51
850.715	330.6
851.1	342.3
851.484	335.28
851.868	316.56
852.253	314.22
852.637	309.54
853.021	288.47
853.405	255.7
853.789	372.73
854.173	363.37
854.557	295.49
854.94	251.02
855.324	272.09
855.708	311.88
856.091	255.7
856.475	372.73
856.858	377.41
857.242	337.62
857.625	370.39
858.009	332.94
858.392	307.2
858.775	267.41
859.158	365.71
859.541	279.11
859.924	330.6
860.307	283.79
860.69	269.75
861.073	318.9
861.456	279.11
861.838	234.64
862.221	309.54
862.604	316.56
862.986	318.9
863.369	279.11
863.751	290.81
864.133	346.98
864.516	358.69
864.898	290.81
865.28	316.56
865.662	351.67
866.044	286.13
866.426	328.26
866.808	281.45
867.19	325.92
867.572	274.43
867.954	241.66
868.336	365.71
868.717	314.22
869.099	260.38
869.48	332.94
869.862	377.41
870.243	309.54
870.625	316.56
871.006	279.11
871.387	354.01
871.768	328.26
872.149	300.17
872.53	297.83
872.911	283.79
873.292	307.2
873.673	272.09
874.054	375.07
874.435	283.79
874.815	300.17
875.196	255.7
875.577	248.68
875.957	304.85
876.338	318.9
876.718	365.71
877.098	272.09
877.479	372.73
877.859	330.6
878.239	272.09
878.619	356.35
878.999	248.68
879.379	283.79
879.759	290.81
880.139	272.09
880.519	328.26
880.898	297.83
881.278	342.3
881.658	290.81
882.037	300.17
882.417	276.77
882.796	302.51
883.176	297.83
883.555	229.96
883.934	300.17
884.313	311.88
884.693	314.22
885.072	330.6
885.451	274.43
885.83	290.81
886.209	332.94
886.587	288.47
886.966	281.45
887.345	393.8
887.724	342.3
888.102	279.11
888.481	349.32
888.859	361.03
889.238	272.09
889.616	368.05
889.994	335.28
890.373	244
890.751	288.47
891.129	276.77
891.507	346.98
891.885	297.83
892.263	258.04
892.641	246.34
893.019	372.73
893.396	323.58
893.774	288.47
894.152	330.6
894.529	262.73
894.907	293.15
895.284	307.2
895.662	302.51
896.039	258.04
896.416	272.09
896.794	314.22
897.171	335.28
897.548	300.17
897.925	269.75
898.302	323.58
898.679	316.56
899.056	293.15
899.433	332.94
899.809	316.56
900.186	316.56
900.563	297.83
900.939	239.32
901.316	325.92
901.692	288.47
902.069	311.88
902.445	358.69
902.821	339.96
903.197	330.6
903.574	302.51
903.95	351.67
904.326	318.9
904.702	309.54
905.078	281.45
905.454	389.11
905.829	297.83
906.205	286.13
906.581	323.58
906.956	346.98
907.332	311.88
907.707	372.73
908.083	307.2
908.458	358.69
908.833	295.49
909.209	304.85
909.584	297.83
909.959	325.92
910.334	253.36
910.709	293.15
911.084	368.05
911.459	288.47
911.834	316.56
912.209	337.62
912.583	323.58
912.958	295.49
913.333	321.24
913.707	255.7
914.082	300.17
914.456	274.43
914.83	363.37
915.205	272.09
915.579	281.45
915.953	239.32
916.327	253.36
916.701	288.47
917.075	379.75
917.449	304.85
917.823	339.96
918.197	286.13
918.571	302.51
918.944	293.15
919.318	311.88
919.692	300.17
920.065	274.43
920.438	258.04
920.812	304.85
921.185	286.13
921.558	332.94
921.932	328.26
922.305	302.51
922.678	335.28
923.051	302.51
923.424	288.47
923.797	248.68
924.17	267.41
924.542	297.83
924.915	290.81
925.288	251.02
925.661	311.88
926.033	283.79
926.406	307.2
926.778	262.73
927.15	344.64
927.523	318.9
927.895	276.77
928.267	354.01
928.639	262.73
929.011	330.6
929.383	328.26
929.755	288.47
930.127	302.51
930.499	215.91
930.871	332.94
931.242	342.3
931.614	311.88
931.986	267.41
932.357	272.09
932.729	279.11
933.1	311.88
933.471	286.13
933.843	293.15
934.214	351.67
934.585	297.83
934.956	295.49
935.327	255.7
935.698	300.17
936.069	265.07
936.44	325.92
936.811	241.66
937.182	244
937.552	244
937.923	272.09
938.293	279.11
938.664	297.83
939.034	267.41
939.405	328.26
939.775	267.41
940.145	269.75
940.516	330.6
940.886	293.15
941.256	244
941.626	358.69
941.996	368.05
942.366	281.45
942.735	304.85
943.105	309.54
943.475	281.45
943.845	337.62
944.214	309.54
944.584	246.34
944.953	272.09
945.323	314.22
945.692	244
946.061	318.9
946.43	290.81
946.8	309.54
947.169	321.24
947.538	244
947.907	304.85
948.276	323.58
948.645	267.41
949.013	309.54
949.382	253.36
949.751	354.01
950.119	325.92
950.488	354.01
950.857	346.98
951.225	276.77
951.593	251.02
951.962	255.7
952.33	279.11
952.698	295.49
953.066	241.66
953.434	321.24
953.802	229.96
954.17	316.56
954.538	339.96
954.906	344.64
955.274	220.6
955.642	288.47
956.009	349.32
956.377	290.81
956.744	218.25
957.112	236.98
957.479	302.51
957.847	304.85
958.214	318.9
958.581	337.62
958.948	300.17
959.315	267.41
959.683	279.11
960.05	286.13
960.416	332.94
960.783	295.49
961.15	199.53
961.517	283.79
961.884	335.28
962.25	297.83
962.617	335.28
962.983	332.94
963.35	342.3
963.716	321.24
964.082	339.96
964.449	321.24
964.815	339.96
965.181	260.38
965.547	267.41
965.913	244
966.279	314.22
966.645	304.85
967.011	283.79
967.377	358.69
967.742	346.98
968.108	339.96
968.474	307.2
968.839	304.85
969.205	356.35
969.57	300.17
969.935	351.67
970.301	358.69
970.666	283.79
971.031	304.85
971.396	323.58
971.761	330.6
972.126	356.35
972.491	384.43
972.856	260.38
973.221	339.96
973.586	300.17
973.95	304.85
974.315	342.3
974.679	316.56
975.044	332.94
975.408	318.9
975.773	311.88
976.137	325.92
976.501	246.34
976.866	368.05
977.23	239.32
977.594	337.62
977.958	325.92
978.322	276.77
978.686	314.22
979.049	307.2
979.413	272.09
979.777	297.83
980.141	293.15
980.504	302.51
980.868	339.96
981.231	323.58
981.595	279.11
981.958	211.23
982.321	309.54
982.684	318.9
983.048	288.47
983.411	311.88
983.774	311.88
984.137	304.85
984.5	332.94
984.862	316.56
985.225	351.67
985.588	258.04
985.951	283.79
986.313	279.11
986.676	255.7
987.038	297.83
987.401	255.7
987.763	314.22
988.125	302.51
988.488	267.41
988.85	311.88
989.212	253.36
989.574	302.51
989.936	328.26
990.298	302.51
990.66	281.45
991.022	295.49
991.383	295.49
991.745	267.41
992.107	286.13
992.468	337.62
992.83	339.96
993.191	325.92
993.553	232.3
993.914	265.07
994.275	323.58
994.637	262.73
994.998	311.88
995.359	236.98
995.72	328.26
996.081	302.51
996.442	328.26
996.803	272.09
997.163	286.13
997.524	300.17
997.885	314.22
998.245	295.49
998.606	361.03
998.966	302.51
999.327	300.17
999.687	265.07
1000.047	307.2
1000.408	321.24
1000.768	337.62
1001.128	248.68
1001.488	328.26
1001.848	279.11
1002.208	295.49
1002.568	309.54
1002.927	251.02
1003.287	346.98
1003.647	363.37
1004.007	269.75
1004.366	304.85
1004.726	325.92
1005.085	346.98
1005.444	260.38
1005.804	293.15
1006.163	307.2
1006.522	274.43
1006.881	253.36
1007.24	311.88
1007.599	290.81
1007.958	255.7
1008.317	314.22
1008.676	389.11
1009.035	323.58
1009.393	314.22
1009.752	262.73
1010.111	307.2
1010.469	335.28
1010.828	325.92
1011.186	265.07
1011.544	244
1011.903	372.73
1012.261	293.15
1012.619	279.11
1012.977	262.73
1013.335	314.22
1013.693	265.07
1014.051	281.45
1014.409	311.88
1014.767	258.04
1015.124	293.15
1015.482	314.22
1015.84	314.22
1016.197	300.17
1016.555	283.79
1016.912	272.09
1017.269	382.09
1017.627	246.34
1017.984	370.39
1018.341	286.13
1018.698	300.17
1019.055	339.96
1019.412	318.9
1019.769	316.56
1020.126	335.28
1020.483	262.73
1020.84	309.54
1021.196	309.54
1021.553	349.32
1021.909	297.83
1022.266	318.9
1022.622	234.64
1022.979	314.22
1023.335	337.62
1023.691	297.83
1024.047	248.68
1024.404	300.17
1024.76	302.51
1025.116	309.54
1025.472	335.28
1025.827	339.96
1026.183	351.67
1026.539	267.41
1026.895	290.81
1027.25	339.96
1027.606	244
1027.961	274.43
1028.317	297.83
1028.672	309.54
1029.028	337.62
1029.383	314.22
1029.738	318.9
1030.093	307.2
1030.448	267.41
1030.803	295.49
1031.158	288.47
1031.513	318.9
1031.868	260.38
1032.223	307.2
1032.577	283.79
1032.932	321.24
1033.287	300.17
1033.641	316.56
1033.996	293.15
1034.35	239.32
1034.704	389.11
1035.059	328.26
1035.413	293.15
1035.767	293.15
1036.121	293.15
