Data from Al_FLMS009871__1173__16-38-03-187.txt Node

Date: Fri Mar 08 16:38:03 CST 2024
User: pe5414po
Spectrometer: FLMS00987
Trigger mode: 0
Integration Time (sec): 1.000000E-1
Scans to average: 1
Electric dark correction enabled: true
Nonlinearity correction enabled: false
Boxcar width: 0
XAxis mode: Wavelengths
Number of Pixels in Spectrum: 2048
>>>>>Begin Spectral Data<<<<<
188.938	-19.02
189.409	-19.02
189.879	-19.02
190.349	-133.7
190.819	-82.21
191.29	-154.77
191.76	-105.62
192.23	-82.21
192.7	-42.42
193.17	-58.81
193.64	-72.85
194.109	-19.02
194.579	11.41
195.049	-30.72
195.519	-9.65
195.988	90.99
196.458	27.79
196.927	86.31
197.397	107.37
197.866	135.46
198.336	116.73
198.805	172.91
199.274	151.84
199.744	156.52
200.213	165.89
200.682	231.42
201.151	184.61
201.62	203.33
202.089	224.4
202.558	215.04
203.027	280.57
203.495	280.57
203.964	271.21
204.433	219.72
204.902	257.17
205.37	266.53
205.839	215.04
206.307	266.53
206.776	381.21
207.244	329.72
207.712	348.45
208.181	285.25
208.649	362.49
209.117	215.04
209.585	287.59
210.053	320.36
210.521	320.36
210.989	257.17
211.457	327.38
211.925	327.38
212.393	212.7
212.861	212.7
213.328	325.04
213.796	308.66
214.264	271.21
214.731	332.06
215.199	285.25
215.666	247.8
216.133	275.89
216.601	271.21
217.068	236.1
217.535	245.46
218.003	222.06
218.47	189.29
218.937	191.63
219.404	189.29
219.871	226.74
220.338	229.08
220.805	292.27
221.271	245.46
221.738	273.55
222.205	245.46
222.671	189.29
223.138	231.42
223.605	250.14
224.071	250.14
224.538	212.7
225.004	273.55
225.47	182.27
225.937	266.53
226.403	233.76
226.869	303.98
227.335	212.7
227.801	325.04
228.267	296.96
228.733	280.57
229.199	250.14
229.665	294.61
230.131	308.66
230.597	224.4
231.062	280.57
231.528	346.11
231.994	306.32
232.459	186.95
232.925	318.02
233.39	238.44
233.856	266.53
234.321	219.72
234.786	233.76
235.252	238.44
235.717	264.19
236.182	320.36
236.647	217.38
237.112	289.93
237.577	236.1
238.042	325.04
238.507	301.64
238.972	306.32
239.436	252.49
239.901	282.91
240.366	289.93
240.83	343.77
241.295	266.53
241.76	261.85
242.224	287.59
242.688	243.12
243.153	280.57
243.617	273.55
244.081	275.89
244.545	257.17
245.01	247.8
245.474	261.85
245.938	259.51
246.402	292.27
246.866	296.96
247.33	264.19
247.793	280.57
248.257	247.8
248.721	273.55
249.185	285.25
249.648	306.32
250.112	233.76
250.575	240.78
251.039	325.04
251.502	222.06
251.965	355.47
252.429	271.21
252.892	285.25
253.355	280.57
253.818	303.98
254.281	238.44
254.744	388.24
255.207	231.42
255.67	257.17
256.133	264.19
256.596	278.23
257.059	259.51
257.522	275.89
257.984	282.91
258.447	264.19
258.909	289.93
259.372	229.08
259.834	273.55
260.297	301.64
260.759	254.83
261.221	261.85
261.684	268.87
262.146	268.87
262.608	287.59
263.07	301.64
263.532	280.57
263.994	332.06
264.456	336.74
264.918	247.8
265.38	301.64
265.842	318.02
266.303	334.4
266.765	308.66
267.227	348.45
267.688	278.23
268.15	350.79
268.611	247.8
269.072	266.53
269.534	325.04
269.995	364.83
270.456	320.36
270.918	353.13
271.379	264.19
271.84	191.63
272.301	275.89
272.762	278.23
273.223	294.61
273.684	212.7
274.144	245.46
274.605	329.72
275.066	303.98
275.527	278.23
275.987	308.66
276.448	357.81
276.908	254.83
277.369	282.91
277.829	308.66
278.289	266.53
278.75	334.4
279.21	292.27
279.67	282.91
280.13	285.25
280.59	268.87
281.05	289.93
281.51	311
281.97	287.59
282.43	245.46
282.89	294.61
283.35	336.74
283.809	282.91
284.269	285.25
284.729	222.06
285.188	292.27
285.648	247.8
286.107	311
286.567	268.87
287.026	322.7
287.485	339.09
287.944	311
288.404	343.77
288.863	313.34
289.322	226.74
289.781	287.59
290.24	282.91
290.699	303.98
291.158	273.55
291.616	315.68
292.075	289.93
292.534	320.36
292.992	287.59
293.451	278.23
293.91	299.3
294.368	289.93
294.827	222.06
295.285	308.66
295.743	299.3
296.202	257.17
296.66	247.8
297.118	271.21
297.576	336.74
298.034	219.72
298.492	311
298.95	268.87
299.408	318.02
299.866	280.57
300.324	325.04
300.781	296.96
301.239	341.43
301.697	369.51
302.154	332.06
302.612	308.66
303.069	308.66
303.527	315.68
303.984	292.27
304.441	250.14
304.899	271.21
305.356	280.57
305.813	243.12
306.27	264.19
306.727	257.17
307.184	252.49
307.641	294.61
308.098	252.49
308.555	264.19
309.012	325.04
309.468	257.17
309.925	320.36
310.382	327.38
310.838	278.23
311.295	294.61
311.751	292.27
312.208	264.19
312.664	303.98
313.12	294.61
313.577	245.46
314.033	273.55
314.489	296.96
314.945	231.42
315.401	282.91
315.857	334.4
316.313	329.72
316.769	285.25
317.225	299.3
317.681	343.77
318.136	341.43
318.592	329.72
319.048	273.55
319.503	313.34
319.959	318.02
320.414	325.04
320.869	254.83
321.325	390.58
321.78	301.64
322.235	303.98
322.691	336.74
323.146	268.87
323.601	346.11
324.056	296.96
324.511	245.46
324.966	294.61
325.421	308.66
325.875	299.3
326.33	322.7
326.785	296.96
327.24	268.87
327.694	275.89
328.149	355.47
328.603	320.36
329.058	303.98
329.512	327.38
329.966	357.81
330.421	332.06
330.875	296.96
331.329	315.68
331.783	332.06
332.237	296.96
332.691	315.68
333.145	285.25
333.599	294.61
334.053	296.96
334.507	322.7
334.96	350.79
335.414	315.68
335.868	357.81
336.321	271.21
336.775	343.77
337.228	250.14
337.682	308.66
338.135	259.51
338.588	341.43
339.042	252.49
339.495	252.49
339.948	364.83
340.401	289.93
340.854	353.13
341.307	266.53
341.76	346.11
342.213	336.74
342.666	318.02
343.119	280.57
343.571	292.27
344.024	252.49
344.477	280.57
344.929	355.47
345.382	327.38
345.834	325.04
346.287	294.61
346.739	336.74
347.191	360.15
347.644	336.74
348.096	289.93
348.548	292.27
349	327.38
349.452	334.4
349.904	332.06
350.356	261.85
350.808	306.32
351.26	313.34
351.711	336.74
352.163	334.4
352.615	275.89
353.066	318.02
353.518	320.36
353.969	318.02
354.421	318.02
354.872	273.55
355.324	327.38
355.775	296.96
356.226	313.34
356.677	318.02
357.128	311
357.579	303.98
358.03	327.38
358.481	325.04
358.932	308.66
359.383	250.14
359.834	296.96
360.285	308.66
360.735	252.49
361.186	280.57
361.637	299.3
362.087	261.85
362.538	318.02
362.988	252.49
363.438	341.43
363.889	285.25
364.339	280.57
364.789	280.57
365.239	289.93
365.689	296.96
366.139	306.32
366.589	308.66
367.039	266.53
367.489	383.56
367.939	318.02
368.389	266.53
368.839	303.98
369.288	296.96
369.738	327.38
370.187	318.02
370.637	268.87
371.086	315.68
371.536	355.47
371.985	271.21
372.434	308.66
372.884	289.93
373.333	238.44
373.782	247.8
374.231	299.3
374.68	332.06
375.129	266.53
375.578	362.49
376.027	278.23
376.475	327.38
376.924	348.45
377.373	296.96
377.822	261.85
378.27	289.93
378.719	322.7
379.167	296.96
379.616	313.34
380.064	294.61
380.512	299.3
380.961	250.14
381.409	318.02
381.857	334.4
382.305	362.49
382.753	308.66
383.201	350.79
383.649	313.34
384.097	308.66
384.545	327.38
384.992	261.85
385.44	371.85
385.888	301.64
386.335	416.32
386.783	369.51
387.231	327.38
387.678	271.21
388.125	348.45
388.573	320.36
389.02	325.04
389.467	322.7
389.914	299.3
390.362	287.59
390.809	320.36
391.256	332.06
391.703	325.04
392.15	318.02
392.596	299.3
393.043	311
393.49	273.55
393.937	318.02
394.383	313.34
394.83	322.7
395.276	315.68
395.723	329.72
396.169	285.25
396.616	329.72
397.062	320.36
397.508	378.87
397.954	306.32
398.401	320.36
398.847	306.32
399.293	353.13
399.739	301.64
400.185	327.38
400.631	240.78
401.076	313.34
401.522	364.83
401.968	367.17
402.414	313.34
402.859	294.61
403.305	282.91
403.75	346.11
404.196	287.59
404.641	278.23
405.086	231.42
405.532	306.32
405.977	299.3
406.422	313.34
406.867	252.49
407.312	346.11
407.757	313.34
408.202	280.57
408.647	320.36
409.092	318.02
409.537	271.21
409.982	371.85
410.426	280.57
410.871	353.13
411.316	318.02
411.76	350.79
412.205	261.85
412.649	275.89
413.093	271.21
413.538	294.61
413.982	320.36
414.426	294.61
414.87	278.23
415.314	374.19
415.758	278.23
416.202	282.91
416.646	231.42
417.09	299.3
417.534	271.21
417.978	346.11
418.421	311
418.865	257.17
419.309	271.21
419.752	294.61
420.196	336.74
420.639	334.4
421.083	296.96
421.526	285.25
421.969	418.66
422.412	378.87
422.856	322.7
423.299	313.34
423.742	362.49
424.185	360.15
424.628	348.45
425.071	348.45
425.513	292.27
425.956	247.8
426.399	334.4
426.842	315.68
427.284	301.64
427.727	296.96
428.169	348.45
428.612	275.89
429.054	355.47
429.497	240.78
429.939	285.25
430.381	259.51
430.823	329.72
431.265	322.7
431.707	318.02
432.149	264.19
432.591	280.57
433.033	264.19
433.475	320.36
433.917	364.83
434.359	343.77
434.8	294.61
435.242	362.49
435.684	371.85
436.125	313.34
436.567	303.98
437.008	315.68
437.449	308.66
437.891	275.89
438.332	325.04
438.773	381.21
439.214	332.06
439.656	299.3
440.097	296.96
440.538	303.98
440.978	318.02
441.419	268.87
441.86	327.38
442.301	257.17
442.742	329.72
443.182	336.74
443.623	299.3
444.063	350.79
444.504	287.59
444.944	278.23
445.385	299.3
445.825	355.47
446.265	311
446.706	308.66
447.146	388.24
447.586	280.57
448.026	346.11
448.466	325.04
448.906	346.11
449.346	325.04
449.786	364.83
450.225	318.02
450.665	289.93
451.105	327.38
451.544	266.53
451.984	303.98
452.424	303.98
452.863	308.66
453.302	332.06
453.742	306.32
454.181	278.23
454.62	353.13
455.059	313.34
455.499	278.23
455.938	397.6
456.377	346.11
456.816	369.51
457.254	357.81
457.693	308.66
458.132	311
458.571	261.85
459.01	325.04
459.448	334.4
459.887	271.21
460.325	296.96
460.764	364.83
461.202	285.25
461.641	332.06
462.079	285.25
462.517	303.98
462.955	261.85
463.393	226.74
463.832	315.68
464.27	348.45
464.708	292.27
465.145	299.3
465.583	367.17
466.021	275.89
466.459	311
466.897	287.59
467.334	318.02
467.772	334.4
468.209	301.64
468.647	268.87
469.084	303.98
469.522	289.93
469.959	299.3
470.396	306.32
470.833	238.44
471.271	311
471.708	313.34
472.145	318.02
472.582	350.79
473.019	362.49
473.456	329.72
473.892	273.55
474.329	336.74
474.766	268.87
475.202	327.38
475.639	287.59
476.076	329.72
476.512	350.79
476.949	341.43
477.385	341.43
477.821	341.43
478.258	381.21
478.694	376.53
479.13	292.27
479.566	325.04
480.002	311
480.438	369.51
480.874	348.45
481.31	357.81
481.746	303.98
482.181	306.32
482.617	282.91
483.053	320.36
483.488	315.68
483.924	287.59
484.36	360.15
484.795	329.72
485.23	325.04
485.666	341.43
486.101	332.06
486.536	311
486.971	296.96
487.407	289.93
487.842	320.36
488.277	362.49
488.712	334.4
489.146	346.11
489.581	336.74
490.016	343.77
490.451	238.44
490.885	355.47
491.32	289.93
491.755	313.34
492.189	280.57
492.624	315.68
493.058	346.11
493.492	247.8
493.927	287.59
494.361	378.87
494.795	233.76
495.229	402.28
495.663	306.32
496.097	369.51
496.531	357.81
496.965	322.7
497.399	327.38
497.833	336.74
498.266	371.85
498.7	348.45
499.134	334.4
499.567	327.38
500.001	350.79
500.434	364.83
500.868	315.68
501.301	327.38
501.734	374.19
502.168	343.77
502.601	369.51
503.034	313.34
503.467	308.66
503.9	322.7
504.333	341.43
504.766	325.04
505.199	320.36
505.632	332.06
506.064	385.9
506.497	273.55
506.93	294.61
507.362	367.17
507.795	348.45
508.227	339.09
508.66	296.96
509.092	334.4
509.524	390.58
509.956	362.49
510.389	343.77
510.821	294.61
511.253	299.3
511.685	289.93
512.117	303.98
512.549	369.51
512.981	315.68
513.412	308.66
513.844	271.21
514.276	371.85
514.707	296.96
515.139	327.38
515.571	294.61
516.002	318.02
516.433	327.38
516.865	299.3
517.296	289.93
517.727	287.59
518.159	388.24
518.59	332.06
519.021	332.06
519.452	318.02
519.883	271.21
520.314	348.45
520.744	278.23
521.175	250.14
521.606	261.85
522.037	247.8
522.467	287.59
522.898	313.34
523.328	294.61
523.759	336.74
524.189	306.32
524.62	327.38
525.05	320.36
525.48	362.49
525.91	355.47
526.341	294.61
526.771	280.57
527.201	315.68
527.631	285.25
528.061	294.61
528.49	311
528.92	350.79
529.35	229.08
529.78	231.42
530.209	315.68
530.639	287.59
531.068	301.64
531.498	292.27
531.927	299.3
532.357	303.98
532.786	374.19
533.215	315.68
533.644	348.45
534.074	285.25
534.503	320.36
534.932	289.93
535.361	308.66
535.79	287.59
536.218	362.49
536.647	278.23
537.076	318.02
537.505	378.87
537.933	378.87
538.362	374.19
538.79	252.49
539.219	322.7
539.647	348.45
540.076	329.72
540.504	285.25
540.932	341.43
541.36	325.04
541.788	315.68
542.217	311
542.645	278.23
543.073	296.96
543.5	341.43
543.928	313.34
544.356	301.64
544.784	313.34
545.211	313.34
545.639	278.23
546.067	343.77
546.494	287.59
546.922	329.72
547.349	292.27
547.776	355.47
548.204	332.06
548.631	299.3
549.058	367.17
549.485	348.45
549.912	327.38
550.339	296.96
550.766	332.06
551.193	320.36
551.62	287.59
552.047	318.02
552.474	308.66
552.9	325.04
553.327	264.19
553.754	313.34
554.18	318.02
554.607	308.66
555.033	313.34
555.459	301.64
555.886	339.09
556.312	332.06
556.738	322.7
557.164	315.68
557.59	325.04
558.016	282.91
558.442	301.64
558.868	296.96
559.294	318.02
559.72	294.61
560.145	287.59
560.571	311
560.997	289.93
561.422	360.15
561.848	329.72
562.273	364.83
562.699	320.36
563.124	332.06
563.549	353.13
563.974	273.55
564.4	383.56
564.825	329.72
565.25	329.72
565.675	280.57
566.1	343.77
566.525	332.06
566.95	376.53
567.374	278.23
567.799	360.15
568.224	336.74
568.648	311
569.073	325.04
569.497	318.02
569.922	357.81
570.346	360.15
570.771	357.81
571.195	318.02
571.619	374.19
572.043	259.51
572.467	278.23
572.891	222.06
573.315	392.92
573.739	322.7
574.163	285.25
574.587	336.74
575.011	280.57
575.435	266.53
575.858	296.96
576.282	385.9
576.705	289.93
577.129	289.93
577.552	301.64
577.976	313.34
578.399	245.46
578.822	318.02
579.245	308.66
579.669	254.83
580.092	254.83
580.515	320.36
580.938	285.25
581.361	285.25
581.784	296.96
582.206	343.77
582.629	296.96
583.052	385.9
583.474	254.83
583.897	318.02
584.32	341.43
584.742	374.19
585.165	325.04
585.587	367.17
586.009	341.43
586.431	325.04
586.854	346.11
587.276	285.25
587.698	348.45
588.12	357.81
588.542	341.43
588.964	374.19
589.386	329.72
589.807	273.55
590.229	306.32
590.651	371.85
591.073	332.06
591.494	320.36
591.916	339.09
592.337	313.34
592.759	313.34
593.18	325.04
593.601	343.77
594.022	320.36
594.444	296.96
594.865	296.96
595.286	322.7
595.707	271.21
596.128	236.1
596.549	336.74
596.97	332.06
597.39	320.36
597.811	289.93
598.232	301.64
598.652	336.74
599.073	343.77
599.494	334.4
599.914	303.98
600.334	325.04
600.755	285.25
601.175	341.43
601.595	289.93
602.015	371.85
602.436	266.53
602.856	395.26
603.276	381.21
603.696	346.11
604.115	261.85
604.535	306.32
604.955	278.23
605.375	397.6
605.794	285.25
606.214	294.61
606.634	308.66
607.053	299.3
607.473	325.04
607.892	254.83
608.311	296.96
608.731	257.17
609.15	266.53
609.569	280.57
609.988	339.09
610.407	327.38
610.826	390.58
611.245	245.46
611.664	299.3
612.083	376.53
612.501	346.11
612.92	266.53
613.339	282.91
613.757	327.38
614.176	353.13
614.594	285.25
615.013	301.64
615.431	320.36
615.85	322.7
616.268	350.79
616.686	348.45
617.104	254.83
617.522	334.4
617.94	292.27
618.358	278.23
618.776	306.32
619.194	250.14
619.612	332.06
620.03	306.32
620.447	280.57
620.865	261.85
621.282	294.61
621.7	311
622.117	360.15
622.535	308.66
622.952	346.11
623.369	339.09
623.787	278.23
624.204	292.27
624.621	350.79
625.038	327.38
625.455	278.23
625.872	346.11
626.289	287.59
626.706	339.09
627.123	318.02
627.539	322.7
627.956	336.74
628.373	388.24
628.789	301.64
629.206	327.38
629.622	334.4
630.038	266.53
630.455	329.72
630.871	348.45
631.287	247.8
631.703	285.25
632.12	329.72
632.536	306.32
632.952	306.32
633.368	348.45
633.783	325.04
634.199	371.85
634.615	294.61
635.031	313.34
635.446	315.68
635.862	294.61
636.277	243.12
636.693	348.45
637.108	348.45
637.524	369.51
637.939	259.51
638.354	346.11
638.77	301.64
639.185	334.4
639.6	339.09
640.015	350.79
640.43	327.38
640.845	296.96
641.259	289.93
641.674	339.09
642.089	282.91
642.504	299.3
642.918	392.92
643.333	280.57
643.747	325.04
644.162	376.53
644.576	318.02
644.991	346.11
645.405	341.43
645.819	341.43
646.233	315.68
646.647	303.98
647.061	285.25
647.475	264.19
647.889	325.04
648.303	280.57
648.717	245.46
649.131	334.4
649.545	325.04
649.958	303.98
650.372	313.34
650.785	301.64
651.199	266.53
651.612	252.49
652.026	282.91
652.439	348.45
652.852	306.32
653.266	301.64
653.679	299.3
654.092	343.77
654.505	315.68
654.918	303.98
655.331	278.23
655.744	336.74
656.156	364.83
656.569	313.34
656.982	339.09
657.394	313.34
657.807	299.3
658.22	318.02
658.632	287.59
659.044	343.77
659.457	273.55
659.869	341.43
660.281	327.38
660.693	350.79
661.106	318.02
661.518	362.49
661.93	315.68
662.342	318.02
662.754	329.72
663.165	336.74
663.577	294.61
663.989	294.61
664.401	308.66
664.812	315.68
665.224	303.98
665.635	292.27
666.047	311
666.458	294.61
666.869	322.7
667.281	413.98
667.692	245.46
668.103	315.68
668.514	311
668.925	245.46
669.336	353.13
669.747	278.23
670.158	350.79
670.569	296.96
670.979	254.83
671.39	299.3
671.801	332.06
672.211	334.4
672.622	313.34
673.032	353.13
673.443	327.38
673.853	311
674.263	271.21
674.674	282.91
675.084	247.8
675.494	308.66
675.904	287.59
676.314	402.28
676.724	296.96
677.134	311
677.544	327.38
677.953	318.02
678.363	327.38
678.773	350.79
679.182	371.85
679.592	346.11
680.001	247.8
680.411	285.25
680.82	329.72
681.23	303.98
681.639	341.43
682.048	320.36
682.457	353.13
682.866	306.32
683.275	278.23
683.684	320.36
684.093	343.77
684.502	327.38
684.911	360.15
685.32	369.51
685.728	268.87
686.137	294.61
686.546	308.66
686.954	334.4
687.363	348.45
687.771	388.24
688.179	371.85
688.588	299.3
688.996	308.66
689.404	329.72
689.812	329.72
690.22	308.66
690.628	336.74
691.036	318.02
691.444	357.81
691.852	301.64
692.26	294.61
692.667	332.06
693.075	299.3
693.483	343.77
693.89	306.32
694.298	282.91
694.705	334.4
695.112	308.66
695.52	322.7
695.927	308.66
696.334	381.21
696.741	294.61
697.148	299.3
697.555	329.72
697.962	313.34
698.369	303.98
698.776	292.27
699.183	280.57
699.59	282.91
699.996	339.09
700.403	301.64
700.81	264.19
701.216	313.34
701.623	315.68
702.029	339.09
702.435	282.91
702.842	301.64
703.248	236.1
703.654	327.38
704.06	287.59
704.466	306.32
704.872	296.96
705.278	287.59
705.684	308.66
706.09	271.21
706.496	350.79
706.901	336.74
707.307	378.87
707.712	336.74
708.118	322.7
708.523	334.4
708.929	336.74
709.334	320.36
709.74	327.38
710.145	268.87
710.55	350.79
710.955	318.02
711.36	296.96
711.765	303.98
712.17	327.38
712.575	357.81
712.98	856.34
713.385	369.51
713.789	296.96
714.194	336.74
714.599	325.04
715.003	296.96
715.408	301.64
715.812	346.11
716.217	322.7
716.621	285.25
717.025	350.79
717.429	311
717.833	327.38
718.238	268.87
718.642	296.96
719.046	287.59
719.449	306.32
719.853	355.47
720.257	280.57
720.661	261.85
721.065	346.11
721.468	275.89
721.872	261.85
722.275	369.51
722.679	285.25
723.082	313.34
723.485	301.64
723.889	308.66
724.292	282.91
724.695	306.32
725.098	311
725.501	334.4
725.904	332.06
726.307	325.04
726.71	332.06
727.113	311
727.516	275.89
727.918	334.4
728.321	318.02
728.724	371.85
729.126	231.42
729.529	315.68
729.931	336.74
730.333	378.87
730.736	308.66
731.138	266.53
731.54	327.38
731.942	332.06
732.344	325.04
732.746	313.34
733.148	278.23
733.55	303.98
733.952	292.27
734.354	285.25
734.756	292.27
735.157	303.98
735.559	273.55
735.96	306.32
736.362	357.81
736.763	254.83
737.165	320.36
737.566	348.45
737.967	243.12
738.368	362.49
738.77	306.32
739.171	348.45
739.572	306.32
739.973	313.34
740.374	294.61
740.774	322.7
741.175	348.45
741.576	285.25
741.977	348.45
742.377	320.36
742.778	296.96
743.178	320.36
743.579	306.32
743.979	325.04
744.379	325.04
744.78	341.43
745.18	278.23
745.58	308.66
745.98	294.61
746.38	346.11
746.78	301.64
747.18	332.06
747.58	360.15
747.98	301.64
748.38	308.66
748.779	357.81
749.179	287.59
749.578	320.36
749.978	353.13
750.377	318.02
750.777	334.4
751.176	327.38
751.575	273.55
751.975	280.57
752.374	285.25
752.773	280.57
753.172	257.17
753.571	273.55
753.97	336.74
754.369	250.14
754.768	261.85
755.166	315.68
755.565	282.91
755.964	318.02
756.362	350.79
756.761	318.02
757.159	313.34
757.558	306.32
757.956	360.15
758.354	357.81
758.753	294.61
759.151	315.68
759.549	350.79
759.947	343.77
760.345	273.55
760.743	306.32
761.141	266.53
761.539	320.36
761.936	313.34
762.334	259.51
762.732	327.38
763.129	282.91
763.527	385.9
763.924	353.13
764.322	322.7
764.719	271.21
765.117	320.36
765.514	367.17
765.911	341.43
766.308	339.09
766.705	350.79
767.102	353.13
767.499	292.27
767.896	273.55
768.293	315.68
768.69	273.55
769.086	266.53
769.483	282.91
769.88	311
770.276	271.21
770.673	292.27
771.069	367.17
771.466	311
771.862	259.51
772.258	294.61
772.654	296.96
773.05	343.77
773.447	282.91
773.843	313.34
774.239	325.04
774.634	247.8
775.03	336.74
775.426	306.32
775.822	311
776.218	299.3
776.613	306.32
777.009	346.11
777.404	364.83
777.8	287.59
778.195	322.7
778.59	374.19
778.986	322.7
779.381	364.83
779.776	280.57
780.171	311
780.566	266.53
780.961	250.14
781.356	303.98
781.751	336.74
782.146	315.68
782.54	320.36
782.935	224.4
783.33	325.04
783.724	313.34
784.119	289.93
784.513	362.49
784.908	289.93
785.302	280.57
785.696	329.72
786.09	308.66
786.485	289.93
786.879	294.61
787.273	280.57
787.667	311
788.061	322.7
788.454	336.74
788.848	306.32
789.242	322.7
789.636	278.23
790.029	306.32
790.423	275.89
790.816	289.93
791.21	325.04
791.603	327.38
791.997	336.74
792.39	343.77
792.783	299.3
793.176	299.3
793.569	210.36
793.962	336.74
794.355	332.06
794.748	289.93
795.141	392.92
795.534	315.68
795.927	271.21
796.319	301.64
796.712	355.47
797.105	261.85
797.497	360.15
797.89	299.3
798.282	287.59
798.674	243.12
799.067	280.57
799.459	296.96
799.851	318.02
800.243	219.72
800.635	299.3
801.027	364.83
801.419	318.02
801.811	299.3
802.203	320.36
802.594	252.49
802.986	285.25
803.378	303.98
803.769	355.47
804.161	329.72
804.552	327.38
804.944	311
805.335	315.68
805.726	289.93
806.118	353.13
806.509	336.74
806.9	343.77
807.291	322.7
807.682	299.3
808.073	271.21
808.464	346.11
808.855	332.06
809.245	315.68
809.636	364.83
810.027	350.79
810.417	336.74
810.808	301.64
811.198	318.02
811.589	303.98
811.979	278.23
812.369	308.66
812.759	278.23
813.15	341.43
813.54	245.46
813.93	275.89
814.32	308.66
814.71	332.06
815.1	325.04
815.489	362.49
815.879	301.64
816.269	299.3
816.658	315.68
817.048	350.79
817.438	257.17
817.827	278.23
818.216	289.93
818.606	289.93
818.995	362.49
819.384	282.91
819.773	341.43
820.163	322.7
820.552	285.25
820.941	289.93
821.33	226.74
821.718	301.64
822.107	245.46
822.496	282.91
822.885	322.7
823.273	343.77
823.662	282.91
824.05	353.13
824.439	287.59
824.827	315.68
825.216	318.02
825.604	306.32
825.992	313.34
826.38	271.21
826.768	294.61
827.156	294.61
827.544	271.21
827.932	320.36
828.32	275.89
828.708	339.09
829.096	287.59
829.483	303.98
829.871	278.23
830.259	240.78
830.646	320.36
831.034	318.02
831.421	343.77
831.808	313.34
832.196	308.66
832.583	282.91
832.97	336.74
833.357	313.34
833.744	315.68
834.131	261.85
834.518	329.72
834.905	252.49
835.292	320.36
835.678	271.21
836.065	346.11
836.452	362.49
836.838	299.3
837.225	282.91
837.611	322.7
837.998	336.74
838.384	285.25
838.77	327.38
839.157	268.87
839.543	287.59
839.929	299.3
840.315	325.04
840.701	280.57
841.087	313.34
841.473	313.34
841.858	406.96
842.244	294.61
842.63	327.38
843.015	362.49
843.401	633.99
843.787	226.74
844.172	367.17
844.557	243.12
844.943	294.61
845.328	299.3
845.713	367.17
846.098	348.45
846.483	243.12
846.868	315.68
847.253	360.15
847.638	193.97
848.023	264.19
848.408	346.11
848.793	280.57
849.177	334.4
849.562	322.7
849.947	339.09
850.331	275.89
850.715	280.57
851.1	322.7
851.484	226.74
851.868	264.19
852.253	226.74
852.637	332.06
853.021	296.96
853.405	268.87
853.789	301.64
854.173	301.64
854.557	334.4
854.94	280.57
855.324	350.79
855.708	334.4
856.091	418.66
856.475	285.25
856.858	332.06
857.242	287.59
857.625	266.53
858.009	397.6
858.392	311
858.775	273.55
859.158	322.7
859.541	325.04
859.924	325.04
860.307	254.83
860.69	287.59
861.073	296.96
861.456	303.98
861.838	229.08
862.221	325.04
862.604	285.25
862.986	346.11
863.369	385.9
863.751	315.68
864.133	280.57
864.516	315.68
864.898	364.83
865.28	357.81
865.662	289.93
866.044	327.38
866.426	261.85
866.808	275.89
867.19	371.85
867.572	289.93
867.954	294.61
868.336	275.89
868.717	315.68
869.099	308.66
869.48	299.3
869.862	325.04
870.243	320.36
870.625	289.93
871.006	252.49
871.387	294.61
871.768	285.25
872.149	311
872.53	233.76
872.911	257.17
873.292	240.78
873.673	320.36
874.054	278.23
874.435	327.38
874.815	292.27
875.196	303.98
875.577	334.4
875.957	364.83
876.338	280.57
876.718	348.45
877.098	287.59
877.479	313.34
877.859	303.98
878.239	318.02
878.619	301.64
878.999	374.19
879.379	371.85
879.759	278.23
880.139	313.34
880.519	273.55
880.898	285.25
881.278	252.49
881.658	275.89
882.037	301.64
882.417	264.19
882.796	353.13
883.176	271.21
883.555	339.09
883.934	287.59
884.313	301.64
884.693	332.06
885.072	313.34
885.451	306.32
885.83	275.89
886.209	325.04
886.587	343.77
886.966	325.04
887.345	313.34
887.724	325.04
888.102	219.72
888.481	341.43
888.859	266.53
889.238	292.27
889.616	294.61
889.994	296.96
890.373	306.32
890.751	320.36
891.129	339.09
891.507	376.53
891.885	289.93
892.263	299.3
892.641	301.64
893.019	334.4
893.396	292.27
893.774	332.06
894.152	289.93
894.529	320.36
894.907	336.74
895.284	329.72
895.662	264.19
896.039	318.02
896.416	282.91
896.794	224.4
897.171	273.55
897.548	325.04
897.925	299.3
898.302	273.55
898.679	285.25
899.056	306.32
899.433	247.8
899.809	322.7
900.186	264.19
900.563	311
900.939	318.02
901.316	306.32
901.692	264.19
902.069	343.77
902.445	306.32
902.821	289.93
903.197	388.24
903.574	292.27
903.95	318.02
904.326	299.3
904.702	252.49
905.078	348.45
905.454	292.27
905.829	266.53
906.205	327.38
906.581	327.38
906.956	301.64
907.332	325.04
907.707	278.23
908.083	261.85
908.458	294.61
908.833	287.59
909.209	435.05
909.584	332.06
909.959	308.66
910.334	287.59
910.709	280.57
911.084	282.91
911.459	329.72
911.834	303.98
912.209	318.02
912.583	322.7
912.958	254.83
913.333	292.27
913.707	367.17
914.082	303.98
914.456	301.64
914.83	320.36
915.205	334.4
915.579	296.96
915.953	278.23
916.327	320.36
916.701	348.45
917.075	261.85
917.449	266.53
917.823	271.21
918.197	315.68
918.571	292.27
918.944	313.34
919.318	301.64
919.692	332.06
920.065	294.61
920.438	311
920.812	278.23
921.185	325.04
921.558	320.36
921.932	381.21
922.305	278.23
922.678	289.93
923.051	289.93
923.424	311
923.797	332.06
924.17	303.98
924.542	332.06
924.915	360.15
925.288	334.4
925.661	287.59
926.033	282.91
926.406	315.68
926.778	306.32
927.15	332.06
927.523	275.89
927.895	268.87
928.267	299.3
928.639	346.11
929.011	329.72
929.383	311
929.755	261.85
930.127	318.02
930.499	299.3
930.871	301.64
931.242	278.23
931.614	285.25
931.986	275.89
932.357	303.98
932.729	306.32
933.1	280.57
933.471	282.91
933.843	264.19
934.214	315.68
934.585	318.02
934.956	299.3
935.327	296.96
935.698	273.55
936.069	336.74
936.44	341.43
936.811	229.08
937.182	322.7
937.552	320.36
937.923	308.66
938.293	301.64
938.664	320.36
939.034	329.72
939.405	315.68
939.775	313.34
940.145	287.59
940.516	311
940.886	273.55
941.256	332.06
941.626	325.04
941.996	266.53
942.366	343.77
942.735	245.46
943.105	273.55
943.475	327.38
943.845	273.55
944.214	271.21
944.584	385.9
944.953	334.4
945.323	247.8
945.692	334.4
946.061	332.06
946.43	250.14
946.8	336.74
947.169	320.36
947.538	285.25
947.907	334.4
948.276	332.06
948.645	350.79
949.013	353.13
949.382	264.19
949.751	285.25
950.119	296.96
950.488	320.36
950.857	275.89
951.225	259.51
951.593	334.4
951.962	289.93
952.33	311
952.698	273.55
953.066	341.43
953.434	257.17
953.802	322.7
954.17	236.1
954.538	376.53
954.906	287.59
955.274	296.96
955.642	320.36
956.009	296.96
956.377	334.4
956.744	299.3
957.112	308.66
957.479	343.77
957.847	336.74
958.214	271.21
958.581	374.19
958.948	280.57
959.315	336.74
959.683	313.34
960.05	303.98
960.416	275.89
960.783	294.61
961.15	313.34
961.517	334.4
961.884	268.87
962.25	278.23
962.617	343.77
962.983	320.36
963.35	350.79
963.716	299.3
964.082	289.93
964.449	402.28
964.815	292.27
965.181	296.96
965.547	318.02
965.913	289.93
966.279	299.3
966.645	315.68
967.011	308.66
967.377	261.85
967.742	285.25
968.108	294.61
968.474	303.98
968.839	289.93
969.205	289.93
969.57	311
969.935	254.83
970.301	320.36
970.666	261.85
971.031	294.61
971.396	292.27
971.761	278.23
972.126	273.55
972.491	257.17
972.856	385.9
973.221	296.96
973.586	346.11
973.95	301.64
974.315	325.04
974.679	250.14
975.044	336.74
975.408	346.11
975.773	311
976.137	313.34
976.501	275.89
976.866	294.61
977.23	322.7
977.594	259.51
977.958	311
978.322	292.27
978.686	282.91
979.049	287.59
979.413	261.85
979.777	259.51
980.141	315.68
980.504	296.96
980.868	247.8
981.231	313.34
981.595	322.7
981.958	299.3
982.321	308.66
982.684	315.68
983.048	311
983.411	399.94
983.774	332.06
984.137	257.17
984.5	322.7
984.862	325.04
985.225	299.3
985.588	282.91
985.951	287.59
986.313	343.77
986.676	313.34
987.038	294.61
987.401	348.45
987.763	285.25
988.125	261.85
988.488	296.96
988.85	282.91
989.212	245.46
989.574	292.27
989.936	341.43
990.298	303.98
990.66	348.45
991.022	292.27
991.383	362.49
991.745	282.91
992.107	325.04
992.468	264.19
992.83	292.27
993.191	322.7
993.553	315.68
993.914	355.47
994.275	278.23
994.637	315.68
994.998	320.36
995.359	229.08
995.72	336.74
996.081	332.06
996.442	322.7
996.803	268.87
997.163	367.17
997.524	303.98
997.885	343.77
998.245	334.4
998.606	252.49
998.966	315.68
999.327	301.64
999.687	327.38
1000.047	257.17
1000.408	238.44
1000.768	318.02
1001.128	348.45
1001.488	332.06
1001.848	329.72
1002.208	385.9
1002.568	289.93
1002.927	348.45
1003.287	282.91
1003.647	362.49
1004.007	287.59
1004.366	346.11
1004.726	390.58
1005.085	306.32
1005.444	308.66
1005.804	336.74
1006.163	257.17
1006.522	332.06
1006.881	336.74
1007.24	303.98
1007.599	289.93
1007.958	320.36
1008.317	250.14
1008.676	289.93
1009.035	268.87
1009.393	299.3
1009.752	273.55
1010.111	271.21
1010.469	341.43
1010.828	280.57
1011.186	308.66
1011.544	315.68
1011.903	266.53
1012.261	320.36
1012.619	243.12
1012.977	271.21
1013.335	318.02
1013.693	353.13
1014.051	311
1014.409	266.53
1014.767	308.66
1015.124	374.19
1015.482	369.51
1015.84	301.64
1016.197	376.53
1016.555	318.02
1016.912	341.43
1017.269	343.77
1017.627	376.53
1017.984	334.4
1018.341	285.25
1018.698	311
1019.055	289.93
1019.412	264.19
1019.769	257.17
1020.126	311
1020.483	306.32
1020.84	332.06
1021.196	264.19
1021.553	306.32
1021.909	301.64
1022.266	294.61
1022.622	296.96
1022.979	292.27
1023.335	289.93
1023.691	282.91
1024.047	245.46
1024.404	341.43
1024.76	268.87
1025.116	322.7
1025.472	357.81
1025.827	320.36
1026.183	254.83
1026.539	243.12
1026.895	296.96
1027.25	325.04
1027.606	353.13
1027.961	339.09
1028.317	229.08
1028.672	364.83
1029.028	308.66
1029.383	289.93
1029.738	325.04
1030.093	250.14
1030.448	308.66
1030.803	271.21
1031.158	322.7
1031.513	285.25
1031.868	261.85
1032.223	332.06
1032.577	266.53
1032.932	325.04
1033.287	306.32
1033.641	275.89
1033.996	315.68
1034.35	301.64
1034.704	303.98
1035.059	322.7
1035.413	334.4
1035.767	334.4
1036.121	334.4
