Data from Al_FLMS009871__1174__16-38-03-287.txt Node

Date: Fri Mar 08 16:38:03 CST 2024
User: pe5414po
Spectrometer: FLMS00987
Trigger mode: 0
Integration Time (sec): 1.000000E-1
Scans to average: 1
Electric dark correction enabled: true
Nonlinearity correction enabled: false
Boxcar width: 0
XAxis mode: Wavelengths
Number of Pixels in Spectrum: 2048
>>>>>Begin Spectral Data<<<<<
188.938	-82.5
189.409	-82.5
189.879	-82.5
190.349	-164.42
190.819	-112.93
191.29	-98.89
191.76	-112.93
192.23	-70.8
192.7	-103.57
193.17	-54.42
193.64	-98.89
194.109	-16.97
194.579	-28.67
195.049	-26.33
195.519	18.14
195.988	-9.95
196.458	64.95
196.927	146.87
197.397	69.63
197.866	174.96
198.336	146.87
198.805	179.64
199.274	198.36
199.744	181.98
200.213	170.27
200.682	198.36
201.151	233.47
201.62	247.51
202.089	242.83
202.558	205.38
203.027	233.47
203.495	259.21
203.964	256.87
204.433	343.47
204.902	306.03
205.37	263.9
205.839	343.47
206.307	256.87
206.776	287.3
207.244	226.45
207.712	261.55
208.181	273.26
208.649	331.77
209.117	338.79
209.585	299
210.053	334.11
210.521	303.68
210.989	266.24
211.457	308.37
211.925	282.62
212.393	306.03
212.861	266.24
213.328	242.83
213.796	301.34
214.264	242.83
214.731	357.52
215.199	294.32
215.666	310.71
216.133	256.87
216.601	277.94
217.068	289.64
217.535	289.64
218.003	252.19
218.47	317.73
218.937	217.08
219.404	231.13
219.871	277.94
220.338	277.94
220.805	226.45
221.271	280.28
221.738	282.62
222.205	320.07
222.671	334.11
223.138	270.92
223.605	249.85
224.071	270.92
224.538	270.92
225.004	306.03
225.47	301.34
225.937	277.94
226.403	301.34
226.869	240.49
227.335	296.66
227.801	317.73
228.267	263.9
228.733	228.79
229.199	277.94
229.665	291.98
230.131	226.45
230.597	252.19
231.062	242.83
231.528	254.53
231.994	299
232.459	266.24
232.925	273.26
233.39	296.66
233.856	261.55
234.321	329.43
234.786	359.86
235.252	256.87
235.717	259.21
236.182	254.53
236.647	327.09
237.112	308.37
237.577	294.32
238.042	249.85
238.507	252.19
238.972	352.84
239.436	310.71
239.901	247.51
240.366	310.71
240.83	263.9
241.295	231.13
241.76	322.41
242.224	294.32
242.688	289.64
243.153	275.6
243.617	282.62
244.081	327.09
244.545	303.68
245.01	287.3
245.474	280.28
245.938	308.37
246.402	273.26
246.866	364.54
247.33	282.62
247.793	235.81
248.257	282.62
248.721	313.05
249.185	296.66
249.648	327.09
250.112	242.83
250.575	242.83
251.039	284.96
251.502	249.85
251.965	263.9
252.429	291.98
252.892	310.71
253.355	294.32
253.818	245.17
254.281	284.96
254.744	266.24
255.207	289.64
255.67	266.24
256.133	280.28
256.596	242.83
257.059	266.24
257.522	259.21
257.984	284.96
258.447	287.3
258.909	329.43
259.372	345.81
259.834	268.58
260.297	252.19
260.759	329.43
261.221	280.28
261.684	329.43
262.146	306.03
262.608	348.15
263.07	270.92
263.532	254.53
263.994	359.86
264.456	254.53
264.918	331.77
265.38	277.94
265.842	294.32
266.303	261.55
266.765	387.94
267.227	266.24
267.688	273.26
268.15	261.55
268.611	371.56
269.072	289.64
269.534	317.73
269.995	303.68
270.456	277.94
270.918	287.3
271.379	273.26
271.84	277.94
272.301	355.18
272.762	315.39
273.223	277.94
273.684	345.81
274.144	301.34
274.605	315.39
275.066	348.15
275.527	277.94
275.987	301.34
276.448	317.73
276.908	324.75
277.369	256.87
277.829	277.94
278.289	317.73
278.75	249.85
279.21	287.3
279.67	313.05
280.13	259.21
280.59	254.53
281.05	357.52
281.51	320.07
281.97	322.41
282.43	301.34
282.89	280.28
283.35	294.32
283.809	313.05
284.269	345.81
284.729	303.68
285.188	306.03
285.648	327.09
286.107	280.28
286.567	259.21
287.026	284.96
287.485	291.98
287.944	320.07
288.404	263.9
288.863	296.66
289.322	238.15
289.781	270.92
290.24	284.96
290.699	299
291.158	291.98
291.616	308.37
292.075	291.98
292.534	369.22
292.992	296.66
293.451	247.51
293.91	338.79
294.368	294.32
294.827	313.05
295.285	343.47
295.743	219.43
296.202	252.19
296.66	266.24
297.118	280.28
297.576	343.47
298.034	327.09
298.492	348.15
298.95	383.26
299.408	348.15
299.866	324.75
300.324	306.03
300.781	373.9
301.239	380.92
301.697	336.45
302.154	399.65
302.612	357.52
303.069	329.43
303.527	348.15
303.984	357.52
304.441	324.75
304.899	322.41
305.356	336.45
305.813	322.41
306.27	392.62
306.727	249.85
307.184	280.28
307.641	348.15
308.098	336.45
308.555	259.21
309.012	338.79
309.468	296.66
309.925	308.37
310.382	282.62
310.838	324.75
311.295	350.5
311.751	273.26
312.208	338.79
312.664	280.28
313.12	296.66
313.577	327.09
314.033	275.6
314.489	308.37
314.945	310.71
315.401	324.75
315.857	343.47
316.313	242.83
316.769	338.79
317.225	299
317.681	334.11
318.136	310.71
318.592	357.52
319.048	387.94
319.503	263.9
319.959	282.62
320.414	247.51
320.869	350.5
321.325	280.28
321.78	313.05
322.235	327.09
322.691	345.81
323.146	317.73
323.601	306.03
324.056	327.09
324.511	348.15
324.966	343.47
325.421	343.47
325.875	301.34
326.33	352.84
326.785	336.45
327.24	348.15
327.694	338.79
328.149	369.22
328.603	296.66
329.058	296.66
329.512	359.86
329.966	331.77
330.421	350.5
330.875	273.26
331.329	259.21
331.783	228.79
332.237	355.18
332.691	350.5
333.145	345.81
333.599	329.43
334.053	341.13
334.507	296.66
334.96	275.6
335.414	301.34
335.868	350.5
336.321	331.77
336.775	301.34
337.228	322.41
337.682	373.9
338.135	317.73
338.588	308.37
339.042	336.45
339.495	313.05
339.948	287.3
340.401	306.03
340.854	338.79
341.307	315.39
341.76	303.68
342.213	315.39
342.666	287.3
343.119	317.73
343.571	315.39
344.024	200.7
344.477	329.43
344.929	348.15
345.382	235.81
345.834	343.47
346.287	313.05
346.739	294.32
347.191	331.77
347.644	355.18
348.096	334.11
348.548	373.9
349	313.05
349.452	317.73
349.904	291.98
350.356	376.24
350.808	310.71
351.26	275.6
351.711	334.11
352.163	401.99
352.615	247.51
353.066	327.09
353.518	406.67
353.969	306.03
354.421	287.3
354.872	336.45
355.324	385.6
355.775	270.92
356.226	338.79
356.677	348.15
357.128	315.39
357.579	270.92
358.03	315.39
358.481	364.54
358.932	336.45
359.383	357.52
359.834	324.75
360.285	301.34
360.735	352.84
361.186	451.14
361.637	327.09
362.087	343.47
362.538	322.41
362.988	376.24
363.438	308.37
363.889	296.66
364.339	357.52
364.789	299
365.239	336.45
365.689	338.79
366.139	268.58
366.589	294.32
367.039	329.43
367.489	390.28
367.939	317.73
368.389	291.98
368.839	322.41
369.288	411.35
369.738	357.52
370.187	324.75
370.637	308.37
371.086	355.18
371.536	287.3
371.985	294.32
372.434	348.15
372.884	193.68
373.333	348.15
373.782	324.75
374.231	359.86
374.68	378.58
375.129	310.71
375.578	341.13
376.027	263.9
376.475	280.28
376.924	359.86
377.373	303.68
377.822	317.73
378.27	387.94
378.719	306.03
379.167	303.68
379.616	341.13
380.064	343.47
380.512	275.6
380.961	315.39
381.409	275.6
381.857	364.54
382.305	296.66
382.753	303.68
383.201	366.88
383.649	317.73
384.097	352.84
384.545	320.07
384.992	270.92
385.44	294.32
385.888	310.71
386.335	315.39
386.783	322.41
387.231	357.52
387.678	341.13
388.125	341.13
388.573	287.3
389.02	327.09
389.467	350.5
389.914	387.94
390.362	378.58
390.809	315.39
391.256	296.66
391.703	308.37
392.15	322.41
392.596	266.24
393.043	343.47
393.49	310.71
393.937	296.66
394.383	359.86
394.83	303.68
395.276	380.92
395.723	266.24
396.169	310.71
396.616	397.31
397.062	378.58
397.508	352.84
397.954	284.96
398.401	355.18
398.847	317.73
399.293	341.13
399.739	296.66
400.185	252.19
400.631	343.47
401.076	315.39
401.522	364.54
401.968	334.11
402.414	315.39
402.859	329.43
403.305	320.07
403.75	287.3
404.196	334.11
404.641	348.15
405.086	387.94
405.532	341.13
405.977	235.81
406.422	306.03
406.867	266.24
407.312	327.09
407.757	350.5
408.202	383.26
408.647	320.07
409.092	331.77
409.537	366.88
409.982	322.41
410.426	371.56
410.871	341.13
411.316	275.6
411.76	294.32
412.205	266.24
412.649	324.75
413.093	317.73
413.538	350.5
413.982	317.73
414.426	350.5
414.87	362.2
415.314	352.84
415.758	266.24
416.202	296.66
416.646	313.05
417.09	315.39
417.534	306.03
417.978	355.18
418.421	296.66
418.865	322.41
419.309	287.3
419.752	320.07
420.196	296.66
420.639	263.9
421.083	313.05
421.526	343.47
421.969	369.22
422.412	315.39
422.856	364.54
423.299	303.68
423.742	366.88
424.185	317.73
424.628	324.75
425.071	320.07
425.513	341.13
425.956	313.05
426.399	277.94
426.842	315.39
427.284	313.05
427.727	327.09
428.169	284.96
428.612	343.47
429.054	338.79
429.497	336.45
429.939	324.75
430.381	299
430.823	310.71
431.265	294.32
431.707	301.34
432.149	362.2
432.591	348.15
433.033	294.32
433.475	364.54
433.917	322.41
434.359	362.2
434.8	341.13
435.242	308.37
435.684	249.85
436.125	289.64
436.567	268.58
437.008	303.68
437.449	348.15
437.891	324.75
438.332	324.75
438.773	352.84
439.214	345.81
439.656	350.5
440.097	334.11
440.538	277.94
440.978	324.75
441.419	352.84
441.86	317.73
442.301	320.07
442.742	329.43
443.182	282.62
443.623	404.33
444.063	315.39
444.504	308.37
444.944	280.28
445.385	350.5
445.825	327.09
446.265	366.88
446.706	399.65
447.146	324.75
447.586	331.77
448.026	296.66
448.466	280.28
448.906	329.43
449.346	315.39
449.786	350.5
450.225	320.07
450.665	306.03
451.105	284.96
451.544	329.43
451.984	289.64
452.424	345.81
452.863	362.2
453.302	322.41
453.742	317.73
454.181	343.47
454.62	324.75
455.059	287.3
455.499	331.77
455.938	306.03
456.377	343.47
456.816	348.15
457.254	404.33
457.693	322.41
458.132	282.62
458.571	310.71
459.01	331.77
459.448	364.54
459.887	350.5
460.325	331.77
460.764	247.51
461.202	359.86
461.641	301.34
462.079	289.64
462.517	270.92
462.955	308.37
463.393	350.5
463.832	303.68
464.27	277.94
464.708	357.52
465.145	362.2
465.583	387.94
466.021	350.5
466.459	310.71
466.897	317.73
467.334	306.03
467.772	331.77
468.209	369.22
468.647	331.77
469.084	324.75
469.522	338.79
469.959	313.05
470.396	336.45
470.833	406.67
471.271	366.88
471.708	317.73
472.145	317.73
472.582	343.47
473.019	327.09
473.456	336.45
473.892	291.98
474.329	329.43
474.766	277.94
475.202	362.2
475.639	357.52
476.076	280.28
476.512	373.9
476.949	343.47
477.385	376.24
477.821	327.09
478.258	287.3
478.694	306.03
479.13	310.71
479.566	275.6
480.002	310.71
480.438	376.24
480.874	338.79
481.31	275.6
481.746	336.45
482.181	317.73
482.617	331.77
483.053	322.41
483.488	317.73
483.924	324.75
484.36	329.43
484.795	327.09
485.23	350.5
485.666	320.07
486.101	282.62
486.536	299
486.971	362.2
487.407	331.77
487.842	350.5
488.277	317.73
488.712	315.39
489.146	315.39
489.581	289.64
490.016	331.77
490.451	273.26
490.885	329.43
491.32	315.39
491.755	259.21
492.189	341.13
492.624	327.09
493.058	359.86
493.492	287.3
493.927	263.9
494.361	303.68
494.795	306.03
495.229	350.5
495.663	380.92
496.097	373.9
496.531	345.81
496.965	301.34
497.399	299
497.833	291.98
498.266	287.3
498.7	334.11
499.134	359.86
499.567	427.73
500.001	289.64
500.434	306.03
500.868	390.28
501.301	289.64
501.734	320.07
502.168	310.71
502.601	277.94
503.034	231.13
503.467	306.03
503.9	350.5
504.333	322.41
504.766	320.07
505.199	268.58
505.632	301.34
506.064	299
506.497	299
506.93	322.41
507.362	315.39
507.795	317.73
508.227	301.34
508.66	263.9
509.092	303.68
509.524	320.07
509.956	334.11
510.389	322.41
510.821	341.13
511.253	345.81
511.685	289.64
512.117	329.43
512.549	336.45
512.981	289.64
513.412	277.94
513.844	371.56
514.276	364.54
514.707	315.39
515.139	338.79
515.571	315.39
516.002	282.62
516.433	338.79
516.865	394.97
517.296	387.94
517.727	338.79
518.159	364.54
518.59	336.45
519.021	313.05
519.452	364.54
519.883	275.6
520.314	301.34
520.744	310.71
521.175	242.83
521.606	320.07
522.037	341.13
522.467	322.41
522.898	261.55
523.328	310.71
523.759	369.22
524.189	294.32
524.62	327.09
525.05	282.62
525.48	308.37
525.91	322.41
526.341	411.35
526.771	329.43
527.201	313.05
527.631	315.39
528.061	289.64
528.49	338.79
528.92	313.05
529.35	392.62
529.78	291.98
530.209	343.47
530.639	345.81
531.068	322.41
531.498	338.79
531.927	327.09
532.357	380.92
532.786	273.26
533.215	387.94
533.644	308.37
534.074	306.03
534.503	348.15
534.932	383.26
535.361	355.18
535.79	324.75
536.218	371.56
536.647	378.58
537.076	385.6
537.505	324.75
537.933	348.15
538.362	334.11
538.79	359.86
539.219	331.77
539.647	343.47
540.076	341.13
540.504	348.15
540.932	308.37
541.36	359.86
541.788	324.75
542.217	303.68
542.645	308.37
543.073	320.07
543.5	308.37
543.928	310.71
544.356	322.41
544.784	357.52
545.211	317.73
545.639	320.07
546.067	317.73
546.494	392.62
546.922	303.68
547.349	376.24
547.776	345.81
548.204	362.2
548.631	357.52
549.058	387.94
549.485	313.05
549.912	291.98
550.339	329.43
550.766	313.05
551.193	364.54
551.62	383.26
552.047	299
552.474	392.62
552.9	317.73
553.327	362.2
553.754	366.88
554.18	306.03
554.607	446.46
555.033	394.97
555.459	362.2
555.886	294.32
556.312	348.15
556.738	352.84
557.164	313.05
557.59	371.56
558.016	294.32
558.442	392.62
558.868	324.75
559.294	322.41
559.72	376.24
560.145	350.5
560.571	306.03
560.997	306.03
561.422	308.37
561.848	294.32
562.273	387.94
562.699	329.43
563.124	324.75
563.549	282.62
563.974	341.13
564.4	284.96
564.825	303.68
565.25	362.2
565.675	313.05
566.1	341.13
566.525	350.5
566.95	345.81
567.374	352.84
567.799	355.18
568.224	294.32
568.648	341.13
569.073	352.84
569.497	371.56
569.922	324.75
570.346	401.99
570.771	289.64
571.195	343.47
571.619	324.75
572.043	315.39
572.467	324.75
572.891	338.79
573.315	338.79
573.739	259.21
574.163	273.26
574.587	343.47
575.011	275.6
575.435	322.41
575.858	306.03
576.282	317.73
576.705	296.66
577.129	261.55
577.552	308.37
577.976	371.56
578.399	263.9
578.822	324.75
579.245	277.94
579.669	338.79
580.092	413.69
580.515	387.94
580.938	329.43
581.361	376.24
581.784	284.96
582.206	252.19
582.629	308.37
583.052	294.32
583.474	294.32
583.897	355.18
584.32	315.39
584.742	310.71
585.165	387.94
585.587	327.09
586.009	352.84
586.431	348.15
586.854	303.68
587.276	294.32
587.698	277.94
588.12	310.71
588.542	294.32
588.964	303.68
589.386	345.81
589.807	371.56
590.229	341.13
590.651	256.87
591.073	303.68
591.494	306.03
591.916	343.47
592.337	341.13
592.759	299
593.18	359.86
593.601	334.11
594.022	338.79
594.444	317.73
594.865	320.07
595.286	336.45
595.707	291.98
596.128	289.64
596.549	352.84
596.97	280.28
597.39	394.97
597.811	284.96
598.232	352.84
598.652	334.11
599.073	315.39
599.494	322.41
599.914	355.18
600.334	240.49
600.755	343.47
601.175	268.58
601.595	247.51
602.015	282.62
602.436	343.47
602.856	502.63
603.276	296.66
603.696	327.09
604.115	355.18
604.535	343.47
604.955	362.2
605.375	306.03
605.794	282.62
606.214	296.66
606.634	240.49
607.053	362.2
607.473	348.15
607.892	299
608.311	371.56
608.731	334.11
609.15	310.71
609.569	350.5
609.988	315.39
610.407	329.43
610.826	343.47
611.245	299
611.664	322.41
612.083	334.11
612.501	261.55
612.92	329.43
613.339	254.53
613.757	341.13
614.176	320.07
614.594	291.98
615.013	355.18
615.431	313.05
615.85	313.05
616.268	308.37
616.686	345.81
617.104	338.79
617.522	303.68
617.94	336.45
618.358	306.03
618.776	296.66
619.194	350.5
619.612	341.13
620.03	277.94
620.447	357.52
620.865	366.88
621.282	256.87
621.7	294.32
622.117	366.88
622.535	270.92
622.952	345.81
623.369	350.5
623.787	350.5
624.204	308.37
624.621	329.43
625.038	291.98
625.455	284.96
625.872	317.73
626.289	385.6
626.706	299
627.123	322.41
627.539	289.64
627.956	249.85
628.373	373.9
628.789	343.47
629.206	331.77
629.622	329.43
630.038	282.62
630.455	277.94
630.871	329.43
631.287	284.96
631.703	280.28
632.12	336.45
632.536	357.52
632.952	317.73
633.368	331.77
633.783	348.15
634.199	385.6
634.615	355.18
635.031	362.2
635.446	331.77
635.862	317.73
636.277	364.54
636.693	315.39
637.108	320.07
637.524	327.09
637.939	366.88
638.354	268.58
638.77	352.84
639.185	336.45
639.6	362.2
640.015	341.13
640.43	282.62
640.845	348.15
641.259	296.66
641.674	291.98
642.089	341.13
642.504	373.9
642.918	284.96
643.333	268.58
643.747	280.28
644.162	327.09
644.576	329.43
644.991	313.05
645.405	320.07
645.819	287.3
646.233	352.84
646.647	359.86
647.061	364.54
647.475	355.18
647.889	301.34
648.303	371.56
648.717	303.68
649.131	380.92
649.545	324.75
649.958	299
650.372	343.47
650.785	350.5
651.199	320.07
651.612	320.07
652.026	320.07
652.439	296.66
652.852	303.68
653.266	317.73
653.679	355.18
654.092	327.09
654.505	343.47
654.918	345.81
655.331	362.2
655.744	348.15
656.156	329.43
656.569	357.52
656.982	329.43
657.394	263.9
657.807	308.37
658.22	327.09
658.632	284.96
659.044	327.09
659.457	294.32
659.869	343.47
660.281	315.39
660.693	327.09
661.106	320.07
661.518	317.73
661.93	320.07
662.342	259.21
662.754	245.17
663.165	364.54
663.577	329.43
663.989	313.05
664.401	310.71
664.812	373.9
665.224	324.75
665.635	345.81
666.047	387.94
666.458	369.22
666.869	362.2
667.281	409.01
667.692	348.15
668.103	341.13
668.514	308.37
668.925	324.75
669.336	301.34
669.747	373.9
670.158	345.81
670.569	338.79
670.979	371.56
671.39	336.45
671.801	268.58
672.211	306.03
672.622	327.09
673.032	320.07
673.443	277.94
673.853	334.11
674.263	296.66
674.674	315.39
675.084	327.09
675.494	427.73
675.904	310.71
676.314	371.56
676.724	348.15
677.134	343.47
677.544	329.43
677.953	261.55
678.363	348.15
678.773	313.05
679.182	245.17
679.592	359.86
680.001	273.26
680.411	341.13
680.82	336.45
681.23	331.77
681.639	331.77
682.048	355.18
682.457	303.68
682.866	291.98
683.275	336.45
683.684	256.87
684.093	320.07
684.502	303.68
684.911	308.37
685.32	376.24
685.728	317.73
686.137	299
686.546	345.81
686.954	324.75
687.363	327.09
687.771	329.43
688.179	296.66
688.588	338.79
688.996	385.6
689.404	329.43
689.812	289.64
690.22	301.34
690.628	322.41
691.036	303.68
691.444	275.6
691.852	291.98
692.26	322.41
692.667	341.13
693.075	331.77
693.483	345.81
693.89	327.09
694.298	331.77
694.705	308.37
695.112	294.32
695.52	268.58
695.927	320.07
696.334	359.86
696.741	306.03
697.148	322.41
697.555	249.85
697.962	313.05
698.369	345.81
698.776	334.11
699.183	303.68
699.59	301.34
699.996	345.81
700.403	310.71
700.81	217.08
701.216	350.5
701.623	322.41
702.029	348.15
702.435	336.45
702.842	345.81
703.248	341.13
703.654	341.13
704.06	327.09
704.466	334.11
704.872	334.11
705.278	378.58
705.684	313.05
706.09	329.43
706.496	371.56
706.901	287.3
707.307	308.37
707.712	303.68
708.118	275.6
708.523	296.66
708.929	291.98
709.334	338.79
709.74	322.41
710.145	270.92
710.55	291.98
710.955	359.86
711.36	308.37
711.765	289.64
712.17	348.15
712.575	308.37
712.98	818.6
713.385	343.47
713.789	334.11
714.194	336.45
714.599	371.56
715.003	280.28
715.408	240.49
715.812	277.94
716.217	324.75
716.621	268.58
717.025	296.66
717.429	320.07
717.833	338.79
718.238	291.98
718.642	352.84
719.046	343.47
719.449	322.41
719.853	313.05
720.257	341.13
720.661	259.21
721.065	329.43
721.468	294.32
721.872	327.09
722.275	299
722.679	348.15
723.082	317.73
723.485	378.58
723.889	338.79
724.292	348.15
724.695	294.32
725.098	394.97
725.501	322.41
725.904	294.32
726.307	289.64
726.71	317.73
727.113	270.92
727.516	336.45
727.918	299
728.321	291.98
728.724	371.56
729.126	343.47
729.529	334.11
729.931	282.62
730.333	387.94
730.736	366.88
731.138	390.28
731.54	329.43
731.942	275.6
732.344	289.64
732.746	303.68
733.148	371.56
733.55	378.58
733.952	313.05
734.354	282.62
734.756	331.77
735.157	277.94
735.559	289.64
735.96	327.09
736.362	369.22
736.763	341.13
737.165	306.03
737.566	366.88
737.967	291.98
738.368	317.73
738.77	373.9
739.171	306.03
739.572	270.92
739.973	336.45
740.374	310.71
740.774	226.45
741.175	329.43
741.576	348.15
741.977	362.2
742.377	345.81
742.778	341.13
743.178	336.45
743.579	378.58
743.979	306.03
744.379	334.11
744.78	317.73
745.18	296.66
745.58	327.09
745.98	301.34
746.38	301.34
746.78	263.9
747.18	357.52
747.58	315.39
747.98	308.37
748.38	331.77
748.779	341.13
749.179	317.73
749.578	287.3
749.978	277.94
750.377	369.22
750.777	252.19
751.176	334.11
751.575	310.71
751.975	301.34
752.374	289.64
752.773	399.65
753.172	320.07
753.571	317.73
753.97	322.41
754.369	273.26
754.768	380.92
755.166	345.81
755.565	324.75
755.964	313.05
756.362	327.09
756.761	268.58
757.159	329.43
757.558	362.2
757.956	369.22
758.354	343.47
758.753	277.94
759.151	327.09
759.549	310.71
759.947	313.05
760.345	320.07
760.743	306.03
761.141	329.43
761.539	364.54
761.936	303.68
762.334	247.51
762.732	399.65
763.129	284.96
763.527	301.34
763.924	345.81
764.322	289.64
764.719	362.2
765.117	303.68
765.514	313.05
765.911	404.33
766.308	338.79
766.705	334.11
767.102	336.45
767.499	359.86
767.896	327.09
768.293	289.64
768.69	362.2
769.086	277.94
769.483	345.81
769.88	338.79
770.276	371.56
770.673	268.58
771.069	301.34
771.466	348.15
771.862	350.5
772.258	320.07
772.654	338.79
773.05	364.54
773.447	252.19
773.843	299
774.239	336.45
774.634	383.26
775.03	348.15
775.426	334.11
775.822	324.75
776.218	291.98
776.613	320.07
777.009	322.41
777.404	380.92
777.8	348.15
778.195	313.05
778.59	345.81
778.986	294.32
779.381	366.88
779.776	303.68
780.171	270.92
780.566	277.94
780.961	331.77
781.356	331.77
781.751	336.45
782.146	306.03
782.54	306.03
782.935	294.32
783.33	378.58
783.724	277.94
784.119	301.34
784.513	320.07
784.908	341.13
785.302	317.73
785.696	324.75
786.09	280.28
786.485	341.13
786.879	275.6
787.273	263.9
787.667	301.34
788.061	338.79
788.454	336.45
788.848	308.37
789.242	392.62
789.636	331.77
790.029	327.09
790.423	226.45
790.816	249.85
791.21	362.2
791.603	280.28
791.997	315.39
792.39	313.05
792.783	310.71
793.176	291.98
793.569	380.92
793.962	352.84
794.355	317.73
794.748	345.81
795.141	364.54
795.534	352.84
795.927	371.56
796.319	357.52
796.712	310.71
797.105	277.94
797.497	296.66
797.89	324.75
798.282	289.64
798.674	359.86
799.067	296.66
799.459	287.3
799.851	310.71
800.243	352.84
800.635	331.77
801.027	343.47
801.419	380.92
801.811	317.73
802.203	343.47
802.594	345.81
802.986	334.11
803.378	329.43
803.769	338.79
804.161	263.9
804.552	338.79
804.944	259.21
805.335	299
805.726	341.13
806.118	364.54
806.509	299
806.9	320.07
807.291	277.94
807.682	341.13
808.073	348.15
808.464	310.71
808.855	331.77
809.245	315.39
809.636	317.73
810.027	359.86
810.417	317.73
810.808	313.05
811.198	348.15
811.589	376.24
811.979	289.64
812.369	324.75
812.759	355.18
813.15	397.31
813.54	308.37
813.93	296.66
814.32	320.07
814.71	376.24
815.1	322.41
815.489	301.34
815.879	366.88
816.269	327.09
816.658	294.32
817.048	308.37
817.438	313.05
817.827	336.45
818.216	277.94
818.606	294.32
818.995	366.88
819.384	373.9
819.773	273.26
820.163	315.39
820.552	355.18
820.941	289.64
821.33	221.77
821.718	299
822.107	338.79
822.496	282.62
822.885	320.07
823.273	306.03
823.662	343.47
824.05	350.5
824.439	303.68
824.827	308.37
825.216	282.62
825.604	324.75
825.992	299
826.38	392.62
826.768	282.62
827.156	331.77
827.544	296.66
827.932	291.98
828.32	310.71
828.708	345.81
829.096	369.22
829.483	296.66
829.871	322.41
830.259	359.86
830.646	380.92
831.034	317.73
831.421	324.75
831.808	299
832.196	317.73
832.583	301.34
832.97	343.47
833.357	385.6
833.744	301.34
834.131	399.65
834.518	322.41
834.905	306.03
835.292	270.92
835.678	242.83
836.065	320.07
836.452	256.87
836.838	310.71
837.225	291.98
837.611	329.43
837.998	336.45
838.384	327.09
838.77	322.41
839.157	313.05
839.543	299
839.929	324.75
840.315	291.98
840.701	341.13
841.087	373.9
841.473	291.98
841.858	287.3
842.244	303.68
842.63	313.05
843.015	282.62
843.401	607.95
843.787	320.07
844.172	317.73
844.557	299
844.943	345.81
845.328	352.84
845.713	331.77
846.098	348.15
846.483	306.03
846.868	315.39
847.253	310.71
847.638	327.09
848.023	284.96
848.408	362.2
848.793	320.07
849.177	280.28
849.562	348.15
849.947	359.86
850.331	362.2
850.715	252.19
851.1	301.34
851.484	364.54
851.868	373.9
852.253	310.71
852.637	362.2
853.021	313.05
853.405	334.11
853.789	320.07
854.173	373.9
854.557	306.03
854.94	322.41
855.324	324.75
855.708	331.77
856.091	320.07
856.475	334.11
856.858	299
857.242	324.75
857.625	289.64
858.009	308.37
858.392	291.98
858.775	254.53
859.158	306.03
859.541	320.07
859.924	348.15
860.307	331.77
860.69	359.86
861.073	301.34
861.456	299
861.838	336.45
862.221	289.64
862.604	345.81
862.986	294.32
863.369	291.98
863.751	310.71
864.133	324.75
864.516	366.88
864.898	378.58
865.28	299
865.662	364.54
866.044	338.79
866.426	294.32
866.808	270.92
867.19	334.11
867.572	329.43
867.954	369.22
868.336	294.32
868.717	362.2
869.099	217.08
869.48	322.41
869.862	336.45
870.243	355.18
870.625	324.75
871.006	266.24
871.387	308.37
871.768	343.47
872.149	362.2
872.53	390.28
872.911	284.96
873.292	291.98
873.673	301.34
874.054	287.3
874.435	301.34
874.815	242.83
875.196	331.77
875.577	308.37
875.957	282.62
876.338	364.54
876.718	306.03
877.098	299
877.479	282.62
877.859	359.86
878.239	338.79
878.619	352.84
878.999	277.94
879.379	345.81
879.759	294.32
880.139	294.32
880.519	334.11
880.898	329.43
881.278	352.84
881.658	317.73
882.037	345.81
882.417	287.3
882.796	350.5
883.176	306.03
883.555	315.39
883.934	306.03
884.313	352.84
884.693	299
885.072	329.43
885.451	334.11
885.83	287.3
886.209	315.39
886.587	296.66
886.966	327.09
887.345	315.39
887.724	380.92
888.102	343.47
888.481	334.11
888.859	357.52
889.238	301.34
889.616	277.94
889.994	329.43
890.373	380.92
890.751	266.24
891.129	280.28
891.507	329.43
891.885	275.6
892.263	296.66
892.641	284.96
893.019	273.26
893.396	336.45
893.774	247.51
894.152	291.98
894.529	355.18
894.907	294.32
895.284	320.07
895.662	294.32
896.039	387.94
896.416	273.26
896.794	369.22
897.171	327.09
897.548	308.37
897.925	387.94
898.302	331.77
898.679	355.18
899.056	334.11
899.433	287.3
899.809	299
900.186	303.68
900.563	282.62
900.939	338.79
901.316	310.71
901.692	320.07
902.069	275.6
902.445	397.31
902.821	331.77
903.197	247.51
903.574	350.5
903.95	299
904.326	284.96
904.702	284.96
905.078	275.6
905.454	327.09
905.829	371.56
906.205	275.6
906.581	364.54
906.956	350.5
907.332	315.39
907.707	296.66
908.083	303.68
908.458	343.47
908.833	327.09
909.209	343.47
909.584	357.52
909.959	313.05
910.334	348.15
910.709	366.88
911.084	329.43
911.459	331.77
911.834	303.68
912.209	317.73
912.583	284.96
912.958	313.05
913.333	392.62
913.707	308.37
914.082	334.11
914.456	294.32
914.83	313.05
915.205	324.75
915.579	324.75
915.953	329.43
916.327	350.5
916.701	303.68
917.075	338.79
917.449	306.03
917.823	327.09
918.197	289.64
918.571	383.26
918.944	275.6
919.318	329.43
919.692	301.34
920.065	310.71
920.438	296.66
920.812	294.32
921.185	303.68
921.558	369.22
921.932	299
922.305	287.3
922.678	270.92
923.051	327.09
923.424	331.77
923.797	371.56
924.17	329.43
924.542	334.11
924.915	343.47
925.288	294.32
925.661	334.11
926.033	345.81
926.406	352.84
926.778	291.98
927.15	317.73
927.523	277.94
927.895	287.3
928.267	263.9
928.639	345.81
929.011	376.24
929.383	357.52
929.755	259.21
930.127	280.28
930.499	334.11
930.871	373.9
931.242	359.86
931.614	362.2
931.986	301.34
932.357	287.3
932.729	315.39
933.1	331.77
933.471	310.71
933.843	350.5
934.214	310.71
934.585	399.65
934.956	355.18
935.327	284.96
935.698	378.58
936.069	289.64
936.44	324.75
936.811	310.71
937.182	345.81
937.552	313.05
937.923	338.79
938.293	343.47
938.664	383.26
939.034	394.97
939.405	392.62
939.775	331.77
940.145	306.03
940.516	324.75
940.886	359.86
941.256	273.26
941.626	261.55
941.996	268.58
942.366	338.79
942.735	364.54
943.105	327.09
943.475	366.88
943.845	324.75
944.214	303.68
944.584	324.75
944.953	357.52
945.323	303.68
945.692	306.03
946.061	322.41
946.43	301.34
946.8	364.54
947.169	275.6
947.538	301.34
947.907	280.28
948.276	383.26
948.645	301.34
949.013	322.41
949.382	299
949.751	357.52
950.119	306.03
950.488	313.05
950.857	284.96
951.225	301.34
951.593	313.05
951.962	366.88
952.33	345.81
952.698	317.73
953.066	336.45
953.434	341.13
953.802	284.96
954.17	282.62
954.538	291.98
954.906	273.26
955.274	416.03
955.642	256.87
956.009	322.41
956.377	327.09
956.744	387.94
957.112	345.81
957.479	247.51
957.847	359.86
958.214	334.11
958.581	336.45
958.948	366.88
959.315	327.09
959.683	303.68
960.05	310.71
960.416	306.03
960.783	299
961.15	296.66
961.517	355.18
961.884	289.64
962.25	371.56
962.617	273.26
962.983	329.43
963.35	348.15
963.716	310.71
964.082	273.26
964.449	373.9
964.815	313.05
965.181	261.55
965.547	289.64
965.913	359.86
966.279	329.43
966.645	280.28
967.011	301.34
967.377	338.79
967.742	261.55
968.108	256.87
968.474	273.26
968.839	336.45
969.205	355.18
969.57	310.71
969.935	284.96
970.301	284.96
970.666	287.3
971.031	306.03
971.396	327.09
971.761	303.68
972.126	397.31
972.491	287.3
972.856	338.79
973.221	334.11
973.586	322.41
973.95	294.32
974.315	380.92
974.679	303.68
975.044	338.79
975.408	284.96
975.773	275.6
976.137	310.71
976.501	359.86
976.866	284.96
977.23	261.55
977.594	294.32
977.958	327.09
978.322	270.92
978.686	345.81
979.049	287.3
979.413	336.45
979.777	352.84
980.141	380.92
980.504	348.15
980.868	226.45
981.231	287.3
981.595	296.66
981.958	376.24
982.321	322.41
982.684	284.96
983.048	301.34
983.411	371.56
983.774	284.96
984.137	284.96
984.5	331.77
984.862	378.58
985.225	334.11
985.588	331.77
985.951	327.09
986.313	275.6
986.676	383.26
987.038	338.79
987.401	331.77
987.763	357.52
988.125	303.68
988.488	315.39
988.85	345.81
989.212	303.68
989.574	364.54
989.936	341.13
990.298	277.94
990.66	324.75
991.022	341.13
991.383	324.75
991.745	275.6
992.107	376.24
992.468	277.94
992.83	294.32
993.191	287.3
993.553	387.94
993.914	355.18
994.275	324.75
994.637	299
994.998	231.13
995.359	238.15
995.72	324.75
996.081	273.26
996.442	418.37
996.803	315.39
997.163	313.05
997.524	282.62
997.885	336.45
998.245	287.3
998.606	338.79
998.966	313.05
999.327	275.6
999.687	362.2
1000.047	273.26
1000.408	369.22
1000.768	294.32
1001.128	355.18
1001.488	390.28
1001.848	345.81
1002.208	350.5
1002.568	308.37
1002.927	273.26
1003.287	409.01
1003.647	404.33
1004.007	327.09
1004.366	315.39
1004.726	341.13
1005.085	310.71
1005.444	327.09
1005.804	282.62
1006.163	352.84
1006.522	331.77
1006.881	308.37
1007.24	315.39
1007.599	355.18
1007.958	235.81
1008.317	397.31
1008.676	315.39
1009.035	315.39
1009.393	399.65
1009.752	224.11
1010.111	270.92
1010.469	338.79
1010.828	334.11
1011.186	334.11
1011.544	324.75
1011.903	371.56
1012.261	350.5
1012.619	310.71
1012.977	324.75
1013.335	348.15
1013.693	291.98
1014.051	270.92
1014.409	252.19
1014.767	315.39
1015.124	341.13
1015.482	345.81
1015.84	324.75
1016.197	352.84
1016.555	329.43
1016.912	308.37
1017.269	362.2
1017.627	291.98
1017.984	282.62
1018.341	289.64
1018.698	329.43
1019.055	338.79
1019.412	299
1019.769	294.32
1020.126	334.11
1020.483	327.09
1020.84	322.41
1021.196	291.98
1021.553	247.51
1021.909	310.71
1022.266	268.58
1022.622	280.28
1022.979	364.54
1023.335	350.5
1023.691	369.22
1024.047	390.28
1024.404	306.03
1024.76	320.07
1025.116	387.94
1025.472	313.05
1025.827	315.39
1026.183	338.79
1026.539	322.41
1026.895	341.13
1027.25	322.41
1027.606	366.88
1027.961	299
1028.317	284.96
1028.672	294.32
1029.028	336.45
1029.383	355.18
1029.738	282.62
1030.093	289.64
1030.448	280.28
1030.803	287.3
1031.158	334.11
1031.513	364.54
1031.868	310.71
1032.223	324.75
1032.577	273.26
1032.932	287.3
1033.287	324.75
1033.641	383.26
1033.996	301.34
1034.35	341.13
1034.704	296.66
1035.059	357.52
1035.413	301.34
1035.767	301.34
1036.121	301.34
