Data from Al_FLMS009871__1178__16-38-03-686.txt Node

Date: Fri Mar 08 16:38:03 CST 2024
User: pe5414po
Spectrometer: FLMS00987
Trigger mode: 0
Integration Time (sec): 1.000000E-1
Scans to average: 1
Electric dark correction enabled: true
Nonlinearity correction enabled: false
Boxcar width: 0
XAxis mode: Wavelengths
Number of Pixels in Spectrum: 2048
>>>>>Begin Spectral Data<<<<<
188.938	-39.64
189.409	-39.64
189.879	-39.64
190.349	-102.84
190.819	-126.24
191.29	-51.35
191.76	-72.41
192.23	-81.77
192.7	-100.5
193.17	-46.66
193.64	-65.39
194.109	-2.19
194.579	2.49
195.049	44.62
195.519	49.3
195.988	30.57
196.458	-9.22
196.927	58.66
197.397	107.81
197.866	53.98
198.336	82.07
198.805	105.47
199.274	199.09
199.744	173.35
200.213	220.16
200.682	285.69
201.151	241.22
201.62	250.58
202.089	271.65
202.558	276.33
203.027	229.52
203.495	262.29
203.964	196.75
204.433	241.22
204.902	271.65
205.37	276.33
205.839	344.21
206.307	367.61
206.776	323.14
207.244	283.35
207.712	276.33
208.181	295.05
208.649	288.03
209.117	285.69
209.585	325.48
210.053	383.99
210.521	341.86
210.989	257.61
211.457	290.37
211.925	327.82
212.393	250.58
212.861	318.46
213.328	262.29
213.796	311.44
214.264	250.58
214.731	281.01
215.199	283.35
215.666	241.22
216.133	255.26
216.601	281.01
217.068	292.71
217.535	344.21
218.003	295.05
218.47	339.52
218.937	259.95
219.404	320.8
219.871	299.73
220.338	304.42
220.805	330.16
221.271	299.73
221.738	302.08
222.205	297.39
222.671	281.01
223.138	283.35
223.605	189.73
224.071	231.86
224.538	295.05
225.004	208.45
225.47	245.9
225.937	217.82
226.403	299.73
226.869	271.65
227.335	297.39
227.801	381.65
228.267	269.31
228.733	264.63
229.199	199.09
229.665	266.97
230.131	299.73
230.597	196.75
231.062	245.9
231.528	236.54
231.994	313.78
232.459	269.31
232.925	264.63
233.39	217.82
233.856	259.95
234.321	276.33
234.786	295.05
235.252	283.35
235.717	231.86
236.182	266.97
236.647	318.46
237.112	187.39
237.577	213.14
238.042	257.61
238.507	210.79
238.972	231.86
239.436	278.67
239.901	309.1
240.366	327.82
240.83	346.55
241.295	295.05
241.76	337.18
242.224	259.95
242.688	278.67
243.153	236.54
243.617	257.61
244.081	302.08
244.545	323.14
245.01	313.78
245.474	334.84
245.938	290.37
246.402	273.99
246.866	271.65
247.33	332.5
247.793	271.65
248.257	316.12
248.721	259.95
249.185	311.44
249.648	271.65
250.112	250.58
250.575	295.05
251.039	313.78
251.502	269.31
251.965	302.08
252.429	304.42
252.892	224.84
253.355	252.92
253.818	262.29
254.281	306.76
254.744	295.05
255.207	255.26
255.67	231.86
256.133	250.58
256.596	248.24
257.059	257.61
257.522	325.48
257.984	290.37
258.447	248.24
258.909	290.37
259.372	327.82
259.834	276.33
260.297	217.82
260.759	304.42
261.221	231.86
261.684	311.44
262.146	332.5
262.608	273.99
263.07	341.86
263.532	299.73
263.994	269.31
264.456	266.97
264.918	269.31
265.38	252.92
265.842	302.08
266.303	281.01
266.765	266.97
267.227	318.46
267.688	236.54
268.15	316.12
268.611	283.35
269.072	295.05
269.534	273.99
269.995	330.16
270.456	281.01
270.918	278.67
271.379	402.72
271.84	245.9
272.301	264.63
272.762	241.22
273.223	313.78
273.684	297.39
274.144	297.39
274.605	339.52
275.066	313.78
275.527	257.61
275.987	257.61
276.448	266.97
276.908	297.39
277.369	355.91
277.829	299.73
278.289	299.73
278.75	271.65
279.21	332.5
279.67	306.76
280.13	302.08
280.59	297.39
281.05	362.93
281.51	271.65
281.97	309.1
282.43	278.67
282.89	313.78
283.35	369.95
283.809	288.03
284.269	273.99
284.729	323.14
285.188	318.46
285.648	281.01
286.107	248.24
286.567	273.99
287.026	290.37
287.485	259.95
287.944	269.31
288.404	276.33
288.863	330.16
289.322	278.67
289.781	276.33
290.24	309.1
290.699	346.55
291.158	245.9
291.616	243.56
292.075	257.61
292.534	283.35
292.992	278.67
293.451	362.93
293.91	217.82
294.368	332.5
294.827	339.52
295.285	332.5
295.743	299.73
296.202	320.8
296.66	299.73
297.118	283.35
297.576	281.01
298.034	269.31
298.492	334.84
298.95	334.84
299.408	292.71
299.866	217.82
300.324	290.37
300.781	304.42
301.239	369.95
301.697	264.63
302.154	288.03
302.612	245.9
303.069	266.97
303.527	281.01
303.984	236.54
304.441	318.46
304.899	241.22
305.356	332.5
305.813	297.39
306.27	283.35
306.727	325.48
307.184	309.1
307.641	309.1
308.098	276.33
308.555	306.76
309.012	304.42
309.468	334.84
309.925	278.67
310.382	229.52
310.838	285.69
311.295	257.61
311.751	309.1
312.208	327.82
312.664	360.59
313.12	351.23
313.577	304.42
314.033	283.35
314.489	288.03
314.945	341.86
315.401	388.68
315.857	304.42
316.313	325.48
316.769	290.37
317.225	341.86
317.681	299.73
318.136	299.73
318.592	285.69
319.048	316.12
319.503	309.1
319.959	302.08
320.414	264.63
320.869	374.63
321.325	337.18
321.78	316.12
322.235	306.76
322.691	311.44
323.146	269.31
323.601	241.22
324.056	285.69
324.511	318.46
324.966	320.8
325.421	323.14
325.875	337.18
326.33	346.55
326.785	325.48
327.24	292.71
327.694	276.33
328.149	311.44
328.603	264.63
329.058	285.69
329.512	358.25
329.966	285.69
330.421	259.95
330.875	330.16
331.329	281.01
331.783	269.31
332.237	295.05
332.691	299.73
333.145	311.44
333.599	236.54
334.053	332.5
334.507	332.5
334.96	278.67
335.414	264.63
335.868	358.25
336.321	327.82
336.775	290.37
337.228	252.92
337.682	297.39
338.135	297.39
338.588	292.71
339.042	302.08
339.495	311.44
339.948	341.86
340.401	299.73
340.854	283.35
341.307	344.21
341.76	320.8
342.213	323.14
342.666	273.99
343.119	372.29
343.571	295.05
344.024	372.29
344.477	285.69
344.929	325.48
345.382	313.78
345.834	332.5
346.287	369.95
346.739	271.65
347.191	337.18
347.644	285.69
348.096	323.14
348.548	281.01
349	316.12
349.452	400.38
349.904	285.69
350.356	309.1
350.808	367.61
351.26	224.84
351.711	299.73
352.163	304.42
352.615	344.21
353.066	269.31
353.518	292.71
353.969	325.48
354.421	281.01
354.872	299.73
355.324	318.46
355.775	283.35
356.226	309.1
356.677	362.93
357.128	334.84
357.579	283.35
358.03	250.58
358.481	292.71
358.932	337.18
359.383	271.65
359.834	250.58
360.285	313.78
360.735	288.03
361.186	325.48
361.637	273.99
362.087	351.23
362.538	332.5
362.988	313.78
363.438	295.05
363.889	330.16
364.339	266.97
364.789	346.55
365.239	313.78
365.689	355.91
366.139	358.25
366.589	341.86
367.039	325.48
367.489	281.01
367.939	292.71
368.389	306.76
368.839	271.65
369.288	369.95
369.738	334.84
370.187	297.39
370.637	295.05
371.086	320.8
371.536	257.61
371.985	355.91
372.434	309.1
372.884	276.33
373.333	320.8
373.782	295.05
374.231	273.99
374.68	306.76
375.129	304.42
375.578	362.93
376.027	346.55
376.475	320.8
376.924	332.5
377.373	309.1
377.822	341.86
378.27	358.25
378.719	320.8
379.167	295.05
379.616	348.89
380.064	285.69
380.512	255.26
380.961	288.03
381.409	309.1
381.857	325.48
382.305	309.1
382.753	292.71
383.201	393.36
383.649	353.57
384.097	323.14
384.545	288.03
384.992	358.25
385.44	334.84
385.888	304.42
386.335	360.59
386.783	383.99
387.231	320.8
387.678	341.86
388.125	295.05
388.573	346.55
389.02	311.44
389.467	339.52
389.914	323.14
390.362	332.5
390.809	288.03
391.256	316.12
391.703	344.21
392.15	304.42
392.596	252.92
393.043	323.14
393.49	238.88
393.937	341.86
394.383	360.59
394.83	344.21
395.276	281.01
395.723	346.55
396.169	304.42
396.616	360.59
397.062	304.42
397.508	311.44
397.954	297.39
398.401	299.73
398.847	313.78
399.293	313.78
399.739	344.21
400.185	295.05
400.631	288.03
401.076	337.18
401.522	327.82
401.968	309.1
402.414	304.42
402.859	271.65
403.305	339.52
403.75	316.12
404.196	367.61
404.641	337.18
405.086	297.39
405.532	297.39
405.977	318.46
406.422	362.93
406.867	250.58
407.312	285.69
407.757	252.92
408.202	306.76
408.647	351.23
409.092	290.37
409.537	238.88
409.982	414.42
410.426	318.46
410.871	295.05
411.316	372.29
411.76	332.5
412.205	297.39
412.649	330.16
413.093	355.91
413.538	290.37
413.982	309.1
414.426	271.65
414.87	348.89
415.314	316.12
415.758	283.35
416.202	245.9
416.646	348.89
417.09	353.57
417.534	332.5
417.978	311.44
418.421	292.71
418.865	311.44
419.309	252.92
419.752	323.14
420.196	339.52
420.639	376.97
421.083	334.84
421.526	269.31
421.969	327.82
422.412	241.22
422.856	306.76
423.299	351.23
423.742	318.46
424.185	292.71
424.628	290.37
425.071	266.97
425.513	224.84
425.956	330.16
426.399	288.03
426.842	297.39
427.284	332.5
427.727	311.44
428.169	306.76
428.612	313.78
429.054	290.37
429.497	304.42
429.939	320.8
430.381	355.91
430.823	309.1
431.265	288.03
431.707	383.99
432.149	264.63
432.591	302.08
433.033	391.02
433.475	313.78
433.917	306.76
434.359	316.12
434.8	297.39
435.242	365.27
435.684	327.82
436.125	337.18
436.567	285.69
437.008	323.14
437.449	316.12
437.891	292.71
438.332	320.8
438.773	337.18
439.214	224.84
439.656	360.59
440.097	255.26
440.538	269.31
440.978	297.39
441.419	292.71
441.86	309.1
442.301	372.29
442.742	351.23
443.182	341.86
443.623	269.31
444.063	311.44
444.504	290.37
444.944	332.5
445.385	304.42
445.825	295.05
446.265	306.76
446.706	344.21
447.146	332.5
447.586	304.42
448.026	248.24
448.466	351.23
448.906	290.37
449.346	295.05
449.786	290.37
450.225	323.14
450.665	327.82
451.105	273.99
451.544	295.05
451.984	302.08
452.424	295.05
452.863	353.57
453.302	330.16
453.742	295.05
454.181	325.48
454.62	374.63
455.059	379.31
455.499	297.39
455.938	327.82
456.377	383.99
456.816	320.8
457.254	355.91
457.693	309.1
458.132	376.97
458.571	325.48
459.01	311.44
459.448	362.93
459.887	259.95
460.325	334.84
460.764	299.73
461.202	339.52
461.641	355.91
462.079	295.05
462.517	430.8
462.955	311.44
463.393	358.25
463.832	311.44
464.27	365.27
464.708	273.99
465.145	311.44
465.583	320.8
466.021	381.65
466.459	334.84
466.897	292.71
467.334	311.44
467.772	255.26
468.209	295.05
468.647	309.1
469.084	278.67
469.522	283.35
469.959	362.93
470.396	332.5
470.833	344.21
471.271	323.14
471.708	306.76
472.145	327.82
472.582	318.46
473.019	341.86
473.456	196.75
473.892	337.18
474.329	302.08
474.766	330.16
475.202	355.91
475.639	325.48
476.076	344.21
476.512	320.8
476.949	353.57
477.385	316.12
477.821	276.33
478.258	309.1
478.694	316.12
479.13	266.97
479.566	323.14
480.002	337.18
480.438	353.57
480.874	393.36
481.31	309.1
481.746	341.86
482.181	334.84
482.617	262.29
483.053	311.44
483.488	348.89
483.924	351.23
484.36	337.18
484.795	283.35
485.23	381.65
485.666	288.03
486.101	309.1
486.536	320.8
486.971	339.52
487.407	304.42
487.842	341.86
488.277	302.08
488.712	320.8
489.146	316.12
489.581	295.05
490.016	337.18
490.451	288.03
490.885	367.61
491.32	299.73
491.755	313.78
492.189	283.35
492.624	323.14
493.058	278.67
493.492	381.65
493.927	281.01
494.361	302.08
494.795	271.65
495.229	266.97
495.663	327.82
496.097	288.03
496.531	334.84
496.965	381.65
497.399	257.61
497.833	302.08
498.266	304.42
498.7	299.73
499.134	304.42
499.567	318.46
500.001	358.25
500.434	332.5
500.868	311.44
501.301	337.18
501.734	302.08
502.168	353.57
502.601	318.46
503.034	316.12
503.467	325.48
503.9	288.03
504.333	304.42
504.766	372.29
505.199	365.27
505.632	332.5
506.064	271.65
506.497	313.78
506.93	290.37
507.362	325.48
507.795	318.46
508.227	259.95
508.66	248.24
509.092	306.76
509.524	290.37
509.956	264.63
510.389	374.63
510.821	281.01
511.253	341.86
511.685	353.57
512.117	302.08
512.549	288.03
512.981	302.08
513.412	285.69
513.844	327.82
514.276	255.26
514.707	341.86
515.139	348.89
515.571	332.5
516.002	297.39
516.433	334.84
516.865	313.78
517.296	344.21
517.727	332.5
518.159	365.27
518.59	285.69
519.021	304.42
519.452	313.78
519.883	360.59
520.314	358.25
520.744	351.23
521.175	285.69
521.606	355.91
522.037	281.01
522.467	334.84
522.898	313.78
523.328	323.14
523.759	339.52
524.189	376.97
524.62	365.27
525.05	276.33
525.48	355.91
525.91	344.21
526.341	302.08
526.771	348.89
527.201	262.29
527.631	353.57
528.061	337.18
528.49	339.52
528.92	288.03
529.35	292.71
529.78	276.33
530.209	339.52
530.639	386.33
531.068	309.1
531.498	316.12
531.927	327.82
532.357	288.03
532.786	334.84
533.215	306.76
533.644	351.23
534.074	306.76
534.503	332.5
534.932	271.65
535.361	341.86
535.79	341.86
536.218	290.37
536.647	276.33
537.076	353.57
537.505	318.46
537.933	290.37
538.362	330.16
538.79	337.18
539.219	351.23
539.647	334.84
540.076	339.52
540.504	316.12
540.932	334.84
541.36	346.55
541.788	276.33
542.217	292.71
542.645	295.05
543.073	290.37
543.5	367.61
543.928	327.82
544.356	306.76
544.784	309.1
545.211	236.54
545.639	320.8
546.067	283.35
546.494	318.46
546.922	367.61
547.349	269.31
547.776	334.84
548.204	320.8
548.631	325.48
549.058	325.48
549.485	290.37
549.912	327.82
550.339	302.08
550.766	365.27
551.193	318.46
551.62	325.48
552.047	316.12
552.474	344.21
552.9	358.25
553.327	334.84
553.754	229.52
554.18	318.46
554.607	383.99
555.033	344.21
555.459	262.29
555.886	243.56
556.312	339.52
556.738	325.48
557.164	360.59
557.59	339.52
558.016	264.63
558.442	320.8
558.868	318.46
559.294	295.05
559.72	334.84
560.145	273.99
560.571	302.08
560.997	334.84
561.422	332.5
561.848	304.42
562.273	316.12
562.699	339.52
563.124	252.92
563.549	299.73
563.974	313.78
564.4	299.73
564.825	348.89
565.25	376.97
565.675	344.21
566.1	295.05
566.525	325.48
566.95	283.35
567.374	391.02
567.799	341.86
568.224	299.73
568.648	323.14
569.073	278.67
569.497	271.65
569.922	276.33
570.346	311.44
570.771	313.78
571.195	379.31
571.619	311.44
572.043	304.42
572.467	288.03
572.891	266.97
573.315	323.14
573.739	330.16
574.163	365.27
574.587	285.69
575.011	313.78
575.435	341.86
575.858	334.84
576.282	381.65
576.705	271.65
577.129	327.82
577.552	281.01
577.976	327.82
578.399	355.91
578.822	358.25
579.245	348.89
579.669	334.84
580.092	325.48
580.515	311.44
580.938	339.52
581.361	311.44
581.784	309.1
582.206	341.86
582.629	330.16
583.052	297.39
583.474	334.84
583.897	264.63
584.32	266.97
584.742	288.03
585.165	290.37
585.587	374.63
586.009	278.67
586.431	266.97
586.854	295.05
587.276	339.52
587.698	283.35
588.12	327.82
588.542	346.55
588.964	304.42
589.386	316.12
589.807	292.71
590.229	325.48
590.651	306.76
591.073	299.73
591.494	332.5
591.916	320.8
592.337	248.24
592.759	290.37
593.18	302.08
593.601	309.1
594.022	386.33
594.444	309.1
594.865	250.58
595.286	320.8
595.707	353.57
596.128	316.12
596.549	306.76
596.97	285.69
597.39	297.39
597.811	281.01
598.232	313.78
598.652	266.97
599.073	355.91
599.494	337.18
599.914	236.54
600.334	318.46
600.755	383.99
601.175	297.39
601.595	297.39
602.015	344.21
602.436	367.61
602.856	428.46
603.276	299.73
603.696	271.65
604.115	266.97
604.535	348.89
604.955	360.59
605.375	292.71
605.794	269.31
606.214	290.37
606.634	339.52
607.053	341.86
607.473	330.16
607.892	355.91
608.311	330.16
608.731	306.76
609.15	341.86
609.569	264.63
609.988	358.25
610.407	344.21
610.826	295.05
611.245	313.78
611.664	325.48
612.083	367.61
612.501	369.95
612.92	309.1
613.339	281.01
613.757	346.55
614.176	381.65
614.594	266.97
615.013	316.12
615.431	344.21
615.85	311.44
616.268	290.37
616.686	318.46
617.104	318.46
617.522	341.86
617.94	316.12
618.358	344.21
618.776	339.52
619.194	306.76
619.612	337.18
620.03	266.97
620.447	332.5
620.865	339.52
621.282	304.42
621.7	302.08
622.117	323.14
622.535	309.1
622.952	334.84
623.369	257.61
623.787	362.93
624.204	407.4
624.621	339.52
625.038	304.42
625.455	323.14
625.872	276.33
626.289	309.1
626.706	316.12
627.123	304.42
627.539	323.14
627.956	332.5
628.373	367.61
628.789	304.42
629.206	332.5
629.622	355.91
630.038	281.01
630.455	367.61
630.871	323.14
631.287	332.5
631.703	334.84
632.12	259.95
632.536	302.08
632.952	323.14
633.368	271.65
633.783	276.33
634.199	346.55
634.615	311.44
635.031	351.23
635.446	278.67
635.862	252.92
636.277	330.16
636.693	250.58
637.108	309.1
637.524	332.5
637.939	320.8
638.354	302.08
638.77	290.37
639.185	297.39
639.6	341.86
640.015	288.03
640.43	334.84
640.845	241.22
641.259	318.46
641.674	313.78
642.089	337.18
642.504	388.68
642.918	379.31
643.333	278.67
643.747	271.65
644.162	302.08
644.576	313.78
644.991	346.55
645.405	323.14
645.819	311.44
646.233	348.89
646.647	332.5
647.061	334.84
647.475	299.73
647.889	334.84
648.303	316.12
648.717	313.78
649.131	332.5
649.545	311.44
649.958	290.37
650.372	341.86
650.785	337.18
651.199	304.42
651.612	250.58
652.026	358.25
652.439	341.86
652.852	372.29
653.266	323.14
653.679	299.73
654.092	311.44
654.505	295.05
654.918	313.78
655.331	290.37
655.744	339.52
656.156	362.93
656.569	318.46
656.982	299.73
657.394	302.08
657.807	306.76
658.22	355.91
658.632	278.67
659.044	325.48
659.457	311.44
659.869	327.82
660.281	334.84
660.693	299.73
661.106	309.1
661.518	311.44
661.93	348.89
662.342	379.31
662.754	306.76
663.165	297.39
663.577	386.33
663.989	381.65
664.401	318.46
664.812	323.14
665.224	243.56
665.635	330.16
666.047	290.37
666.458	250.58
666.869	295.05
667.281	292.71
667.692	278.67
668.103	273.99
668.514	365.27
668.925	285.69
669.336	302.08
669.747	262.29
670.158	292.71
670.569	325.48
670.979	309.1
671.39	297.39
671.801	306.76
672.211	316.12
672.622	285.69
673.032	330.16
673.443	285.69
673.853	313.78
674.263	285.69
674.674	299.73
675.084	297.39
675.494	341.86
675.904	332.5
676.314	299.73
676.724	283.35
677.134	295.05
677.544	337.18
677.953	281.01
678.363	320.8
678.773	367.61
679.182	323.14
679.592	297.39
680.001	292.71
680.411	362.93
680.82	311.44
681.23	323.14
681.639	327.82
682.048	353.57
682.457	281.01
682.866	386.33
683.275	379.31
683.684	344.21
684.093	318.46
684.502	348.89
684.911	297.39
685.32	266.97
685.728	351.23
686.137	283.35
686.546	302.08
686.954	290.37
687.363	313.78
687.771	309.1
688.179	344.21
688.588	316.12
688.996	320.8
689.404	346.55
689.812	269.31
690.22	379.31
690.628	295.05
691.036	306.76
691.444	297.39
691.852	290.37
692.26	346.55
692.667	323.14
693.075	355.91
693.483	379.31
693.89	217.82
694.298	353.57
694.705	304.42
695.112	362.93
695.52	304.42
695.927	372.29
696.334	304.42
696.741	299.73
697.148	304.42
697.555	327.82
697.962	290.37
698.369	295.05
698.776	339.52
699.183	285.69
699.59	297.39
699.996	273.99
700.403	252.92
700.81	288.03
701.216	276.33
701.623	346.55
702.029	302.08
702.435	288.03
702.842	285.69
703.248	266.97
703.654	330.16
704.06	344.21
704.466	337.18
704.872	271.65
705.278	337.18
705.684	269.31
706.09	327.82
706.496	353.57
706.901	273.99
707.307	358.25
707.712	365.27
708.118	353.57
708.523	355.91
708.929	292.71
709.334	334.84
709.74	302.08
710.145	332.5
710.55	330.16
710.955	259.95
711.36	271.65
711.765	325.48
712.17	341.86
712.575	334.84
712.98	936.36
713.385	362.93
713.789	327.82
714.194	323.14
714.599	323.14
715.003	264.63
715.408	332.5
715.812	325.48
716.217	346.55
716.621	285.69
717.025	316.12
717.429	309.1
717.833	299.73
718.238	348.89
718.642	309.1
719.046	295.05
719.449	306.76
719.853	316.12
720.257	306.76
720.661	278.67
721.065	374.63
721.468	238.88
721.872	332.5
722.275	318.46
722.679	360.59
723.082	259.95
723.485	271.65
723.889	355.91
724.292	330.16
724.695	299.73
725.098	337.18
725.501	283.35
725.904	330.16
726.307	348.89
726.71	222.5
727.113	400.38
727.516	330.16
727.918	334.84
728.321	391.02
728.724	332.5
729.126	309.1
729.529	339.52
729.931	369.95
730.333	327.82
730.736	299.73
731.138	320.8
731.54	330.16
731.942	299.73
732.344	292.71
732.746	344.21
733.148	325.48
733.55	311.44
733.952	330.16
734.354	320.8
734.756	346.55
735.157	309.1
735.559	213.14
735.96	353.57
736.362	367.61
736.763	330.16
737.165	311.44
737.566	323.14
737.967	341.86
738.368	325.48
738.77	311.44
739.171	292.71
739.572	290.37
739.973	360.59
740.374	318.46
740.774	245.9
741.175	320.8
741.576	334.84
741.977	266.97
742.377	330.16
742.778	278.67
743.178	353.57
743.579	318.46
743.979	309.1
744.379	269.31
744.78	313.78
745.18	327.82
745.58	409.74
745.98	278.67
746.38	304.42
746.78	304.42
747.18	344.21
747.58	313.78
747.98	295.05
748.38	285.69
748.779	295.05
749.179	318.46
749.578	299.73
749.978	388.68
750.377	341.86
750.777	304.42
751.176	273.99
751.575	264.63
751.975	299.73
752.374	309.1
752.773	304.42
753.172	330.16
753.571	362.93
753.97	320.8
754.369	311.44
754.768	299.73
755.166	288.03
755.565	299.73
755.964	264.63
756.362	330.16
756.761	302.08
757.159	299.73
757.558	311.44
757.956	288.03
758.354	362.93
758.753	227.18
759.151	353.57
759.549	316.12
759.947	332.5
760.345	341.86
760.743	241.22
761.141	337.18
761.539	304.42
761.936	383.99
762.334	257.61
762.732	323.14
763.129	339.52
763.527	323.14
763.924	344.21
764.322	337.18
764.719	252.92
765.117	344.21
765.514	290.37
765.911	252.92
766.308	339.52
766.705	381.65
767.102	351.23
767.499	227.18
767.896	311.44
768.293	330.16
768.69	266.97
769.086	346.55
769.483	302.08
769.88	278.67
770.276	367.61
770.673	323.14
771.069	297.39
771.466	245.9
771.862	337.18
772.258	367.61
772.654	365.27
773.05	252.92
773.447	306.76
773.843	367.61
774.239	311.44
774.634	320.8
775.03	269.31
775.426	369.95
775.822	259.95
776.218	292.71
776.613	288.03
777.009	332.5
777.404	295.05
777.8	271.65
778.195	320.8
778.59	299.73
778.986	299.73
779.381	295.05
779.776	245.9
780.171	273.99
780.566	259.95
780.961	241.22
781.356	318.46
781.751	283.35
782.146	325.48
782.54	281.01
782.935	262.29
783.33	288.03
783.724	297.39
784.119	323.14
784.513	325.48
784.908	325.48
785.302	271.65
785.696	262.29
786.09	323.14
786.485	341.86
786.879	313.78
787.273	259.95
787.667	358.25
788.061	332.5
788.454	327.82
788.848	318.46
789.242	337.18
789.636	269.31
790.029	337.18
790.423	353.57
790.816	320.8
791.21	292.71
791.603	281.01
791.997	283.35
792.39	313.78
792.783	334.84
793.176	283.35
793.569	283.35
793.962	306.76
794.355	313.78
794.748	299.73
795.141	316.12
795.534	334.84
795.927	355.91
796.319	351.23
796.712	339.52
797.105	323.14
797.497	309.1
797.89	344.21
798.282	313.78
798.674	339.52
799.067	285.69
799.459	259.95
799.851	337.18
800.243	360.59
800.635	348.89
801.027	295.05
801.419	295.05
801.811	330.16
802.203	323.14
802.594	292.71
802.986	360.59
803.378	290.37
803.769	302.08
804.161	318.46
804.552	264.63
804.944	290.37
805.335	334.84
805.726	372.29
806.118	306.76
806.509	306.76
806.9	311.44
807.291	290.37
807.682	243.56
808.073	290.37
808.464	365.27
808.855	320.8
809.245	306.76
809.636	325.48
810.027	376.97
810.417	311.44
810.808	376.97
811.198	313.78
811.589	285.69
811.979	297.39
812.369	348.89
812.759	353.57
813.15	355.91
813.54	290.37
813.93	332.5
814.32	259.95
814.71	304.42
815.1	339.52
815.489	288.03
815.879	313.78
816.269	313.78
816.658	309.1
817.048	320.8
817.438	290.37
817.827	313.78
818.216	229.52
818.606	311.44
818.995	372.29
819.384	306.76
819.773	332.5
820.163	313.78
820.552	222.5
820.941	323.14
821.33	374.63
821.718	313.78
822.107	327.82
822.496	290.37
822.885	304.42
823.273	306.76
823.662	276.33
824.05	358.25
824.439	292.71
824.827	313.78
825.216	304.42
825.604	257.61
825.992	250.58
826.38	344.21
826.768	276.33
827.156	290.37
827.544	252.92
827.932	281.01
828.32	295.05
828.708	299.73
829.096	292.71
829.483	264.63
829.871	316.12
830.259	299.73
830.646	306.76
831.034	320.8
831.421	273.99
831.808	323.14
832.196	288.03
832.583	285.69
832.97	250.58
833.357	302.08
833.744	304.42
834.131	323.14
834.518	309.1
834.905	290.37
835.292	311.44
835.678	304.42
836.065	351.23
836.452	288.03
836.838	306.76
837.225	330.16
837.611	383.99
837.998	313.78
838.384	295.05
838.77	299.73
839.157	334.84
839.543	381.65
839.929	290.37
840.315	299.73
840.701	316.12
841.087	295.05
841.473	299.73
841.858	288.03
842.244	311.44
842.63	290.37
843.015	299.73
843.401	559.53
843.787	313.78
844.172	316.12
844.557	391.02
844.943	325.48
845.328	309.1
845.713	248.24
846.098	360.59
846.483	309.1
846.868	248.24
847.253	330.16
847.638	271.65
848.023	309.1
848.408	320.8
848.793	369.95
849.177	283.35
849.562	344.21
849.947	273.99
850.331	292.71
850.715	360.59
851.1	330.16
851.484	285.69
851.868	259.95
852.253	278.67
852.637	313.78
853.021	283.35
853.405	309.1
853.789	332.5
854.173	309.1
854.557	309.1
854.94	273.99
855.324	264.63
855.708	341.86
856.091	273.99
856.475	316.12
856.858	292.71
857.242	325.48
857.625	327.82
858.009	297.39
858.392	323.14
858.775	330.16
859.158	271.65
859.541	320.8
859.924	351.23
860.307	327.82
860.69	288.03
861.073	302.08
861.456	288.03
861.838	313.78
862.221	358.25
862.604	252.92
862.986	302.08
863.369	295.05
863.751	383.99
864.133	372.29
864.516	264.63
864.898	288.03
865.28	332.5
865.662	269.31
866.044	295.05
866.426	400.38
866.808	318.46
867.19	299.73
867.572	332.5
867.954	285.69
868.336	285.69
868.717	199.09
869.099	288.03
869.48	332.5
869.862	295.05
870.243	299.73
870.625	292.71
871.006	360.59
871.387	360.59
871.768	341.86
872.149	292.71
872.53	194.41
872.911	304.42
873.292	266.97
873.673	271.65
874.054	334.84
874.435	337.18
874.815	309.1
875.196	295.05
875.577	306.76
875.957	299.73
876.338	334.84
876.718	316.12
877.098	313.78
877.479	309.1
877.859	348.89
878.239	276.33
878.619	266.97
878.999	295.05
879.379	302.08
879.759	269.31
880.139	351.23
880.519	323.14
880.898	327.82
881.278	405.06
881.658	285.69
882.037	304.42
882.417	309.1
882.796	316.12
883.176	330.16
883.555	299.73
883.934	304.42
884.313	320.8
884.693	337.18
885.072	358.25
885.451	334.84
885.83	351.23
886.209	316.12
886.587	283.35
886.966	362.93
887.345	285.69
887.724	266.97
888.102	337.18
888.481	292.71
888.859	276.33
889.238	295.05
889.616	266.97
889.994	264.63
890.373	306.76
890.751	337.18
891.129	337.18
891.507	323.14
891.885	311.44
892.263	318.46
892.641	358.25
893.019	339.52
893.396	304.42
893.774	306.76
894.152	297.39
894.529	306.76
894.907	250.58
895.284	309.1
895.662	309.1
896.039	257.61
896.416	323.14
896.794	304.42
897.171	302.08
897.548	278.67
897.925	369.95
898.302	323.14
898.679	271.65
899.056	325.48
899.433	309.1
899.809	318.46
900.186	271.65
900.563	292.71
900.939	295.05
901.316	386.33
901.692	288.03
902.069	288.03
902.445	316.12
902.821	318.46
903.197	358.25
903.574	304.42
903.95	285.69
904.326	234.2
904.702	316.12
905.078	325.48
905.454	276.33
905.829	346.55
906.205	273.99
906.581	276.33
906.956	360.59
907.332	346.55
907.707	362.93
908.083	311.44
908.458	304.42
908.833	281.01
909.209	334.84
909.584	252.92
909.959	259.95
910.334	262.29
910.709	334.84
911.084	304.42
911.459	278.67
911.834	309.1
912.209	306.76
912.583	355.91
912.958	281.01
913.333	290.37
913.707	297.39
914.082	323.14
914.456	344.21
914.83	376.97
915.205	325.48
915.579	281.01
915.953	337.18
916.327	304.42
916.701	353.57
917.075	369.95
917.449	278.67
917.823	288.03
918.197	351.23
918.571	313.78
918.944	285.69
919.318	337.18
919.692	323.14
920.065	351.23
920.438	234.2
920.812	332.5
921.185	311.44
921.558	285.69
921.932	323.14
922.305	325.48
922.678	341.86
923.051	344.21
923.424	299.73
923.797	313.78
924.17	318.46
924.542	318.46
924.915	304.42
925.288	297.39
925.661	299.73
926.033	330.16
926.406	264.63
926.778	262.29
927.15	327.82
927.523	278.67
927.895	292.71
928.267	292.71
928.639	330.16
929.011	339.52
929.383	332.5
929.755	269.31
930.127	330.16
930.499	334.84
930.871	264.63
931.242	290.37
931.614	257.61
931.986	283.35
932.357	304.42
932.729	302.08
933.1	302.08
933.471	276.33
933.843	302.08
934.214	332.5
934.585	278.67
934.956	302.08
935.327	262.29
935.698	344.21
936.069	365.27
936.44	224.84
936.811	250.58
937.182	339.52
937.552	313.78
937.923	334.84
938.293	330.16
938.664	262.29
939.034	297.39
939.405	299.73
939.775	281.01
940.145	330.16
940.516	259.95
940.886	285.69
941.256	358.25
941.626	320.8
941.996	339.52
942.366	313.78
942.735	327.82
943.105	302.08
943.475	269.31
943.845	302.08
944.214	299.73
944.584	348.89
944.953	367.61
945.323	290.37
945.692	288.03
946.061	376.97
946.43	348.89
946.8	250.58
947.169	273.99
947.538	337.18
947.907	348.89
948.276	259.95
948.645	257.61
949.013	259.95
949.382	320.8
949.751	344.21
950.119	295.05
950.488	341.86
950.857	290.37
951.225	320.8
951.593	327.82
951.962	318.46
952.33	234.2
952.698	325.48
953.066	264.63
953.434	367.61
953.802	391.02
954.17	283.35
954.538	309.1
954.906	395.7
955.274	264.63
955.642	299.73
956.009	400.38
956.377	334.84
956.744	306.76
957.112	334.84
957.479	269.31
957.847	271.65
958.214	309.1
958.581	313.78
958.948	369.95
959.315	323.14
959.683	269.31
960.05	320.8
960.416	337.18
960.783	313.78
961.15	281.01
961.517	290.37
961.884	330.16
962.25	311.44
962.617	252.92
962.983	297.39
963.35	302.08
963.716	255.26
964.082	353.57
964.449	297.39
964.815	323.14
965.181	330.16
965.547	264.63
965.913	369.95
966.279	332.5
966.645	309.1
967.011	372.29
967.377	269.31
967.742	262.29
968.108	266.97
968.474	306.76
968.839	346.55
969.205	281.01
969.57	302.08
969.935	295.05
970.301	299.73
970.666	311.44
971.031	259.95
971.396	311.44
971.761	234.2
972.126	302.08
972.491	334.84
972.856	323.14
973.221	362.93
973.586	306.76
973.95	273.99
974.315	369.95
974.679	337.18
975.044	309.1
975.408	327.82
975.773	292.71
976.137	271.65
976.501	292.71
976.866	273.99
977.23	362.93
977.594	297.39
977.958	344.21
978.322	311.44
978.686	320.8
979.049	290.37
979.413	281.01
979.777	309.1
980.141	362.93
980.504	316.12
980.868	269.31
981.231	306.76
981.595	311.44
981.958	332.5
982.321	346.55
982.684	323.14
983.048	309.1
983.411	344.21
983.774	318.46
984.137	330.16
984.5	355.91
984.862	311.44
985.225	304.42
985.588	231.86
985.951	400.38
986.313	250.58
986.676	278.67
987.038	341.86
987.401	299.73
987.763	355.91
988.125	266.97
988.488	323.14
988.85	323.14
989.212	283.35
989.574	297.39
989.936	327.82
990.298	313.78
990.66	388.68
991.022	316.12
991.383	351.23
991.745	297.39
992.107	299.73
992.468	313.78
992.83	290.37
993.191	295.05
993.553	323.14
993.914	325.48
994.275	327.82
994.637	283.35
994.998	346.55
995.359	360.59
995.72	238.88
996.081	292.71
996.442	297.39
996.803	269.31
997.163	351.23
997.524	243.56
997.885	297.39
998.245	276.33
998.606	299.73
998.966	323.14
999.327	273.99
999.687	346.55
1000.047	313.78
1000.408	367.61
1000.768	304.42
1001.128	316.12
1001.488	264.63
1001.848	276.33
1002.208	306.76
1002.568	304.42
1002.927	313.78
1003.287	297.39
1003.647	341.86
1004.007	327.82
1004.366	309.1
1004.726	309.1
1005.085	285.69
1005.444	313.78
1005.804	255.26
1006.163	255.26
1006.522	339.52
1006.881	309.1
1007.24	313.78
1007.599	302.08
1007.958	264.63
1008.317	273.99
1008.676	297.39
1009.035	318.46
1009.393	273.99
1009.752	320.8
1010.111	367.61
1010.469	304.42
1010.828	283.35
1011.186	292.71
1011.544	283.35
1011.903	278.67
1012.261	276.33
1012.619	297.39
1012.977	241.22
1013.335	334.84
1013.693	281.01
1014.051	276.33
1014.409	351.23
1014.767	318.46
1015.124	313.78
1015.482	376.97
1015.84	290.37
1016.197	304.42
1016.555	316.12
1016.912	309.1
1017.269	283.35
1017.627	288.03
1017.984	327.82
1018.341	323.14
1018.698	245.9
1019.055	320.8
1019.412	379.31
1019.769	259.95
1020.126	313.78
1020.483	297.39
1020.84	320.8
1021.196	318.46
1021.553	266.97
1021.909	309.1
1022.266	252.92
1022.622	367.61
1022.979	292.71
1023.335	332.5
1023.691	302.08
1024.047	320.8
1024.404	306.76
1024.76	302.08
1025.116	323.14
1025.472	339.52
1025.827	273.99
1026.183	341.86
1026.539	269.31
1026.895	327.82
1027.25	255.26
1027.606	353.57
1027.961	285.69
1028.317	365.27
1028.672	288.03
1029.028	325.48
1029.383	299.73
1029.738	281.01
1030.093	302.08
1030.448	332.5
1030.803	309.1
1031.158	334.84
1031.513	255.26
1031.868	348.89
1032.223	299.73
1032.577	311.44
1032.932	295.05
1033.287	353.57
1033.641	311.44
1033.996	273.99
1034.35	334.84
1034.704	299.73
1035.059	304.42
1035.413	320.8
1035.767	320.8
1036.121	320.8
