Data from Al_FLMS009871__1164__16-38-02-287.txt Node

Date: Fri Mar 08 16:38:02 CST 2024
User: pe5414po
Spectrometer: FLMS00987
Trigger mode: 0
Integration Time (sec): 1.000000E-1
Scans to average: 1
Electric dark correction enabled: true
Nonlinearity correction enabled: false
Boxcar width: 0
XAxis mode: Wavelengths
Number of Pixels in Spectrum: 2048
>>>>>Begin Spectral Data<<<<<
188.938	-89.96
189.409	-89.96
189.879	-89.96
190.349	-153.16
190.819	-106.35
191.29	-78.26
191.76	-82.94
192.23	-80.6
192.7	-104.01
193.17	-150.82
193.64	-38.47
194.109	-64.22
194.579	34.08
195.049	17.7
195.519	41.11
195.988	-5.71
196.458	38.77
196.927	144.09
197.397	134.73
197.866	62.17
198.336	132.39
198.805	43.45
199.274	118.34
199.744	174.52
200.213	162.81
200.682	207.28
201.151	200.26
201.62	233.03
202.089	181.54
202.558	207.28
203.027	174.52
203.495	216.65
203.964	303.25
204.433	197.92
204.902	230.69
205.37	242.39
205.839	296.22
206.307	338.35
206.776	291.54
207.244	261.12
207.712	307.93
208.181	303.25
208.649	230.69
209.117	347.72
209.585	289.2
210.053	247.07
210.521	216.65
210.989	256.43
211.457	254.09
211.925	284.52
212.393	249.41
212.861	221.33
213.328	249.41
213.796	183.88
214.264	240.05
214.731	293.88
215.199	237.71
215.666	247.07
216.133	275.16
216.601	190.9
217.068	197.92
217.535	249.41
218.003	179.2
218.47	221.33
218.937	240.05
219.404	272.82
219.871	256.43
220.338	169.84
220.805	242.39
221.271	284.52
221.738	240.05
222.205	230.69
222.671	300.91
223.138	237.71
223.605	254.09
224.071	261.12
224.538	195.58
225.004	226.01
225.47	179.2
225.937	244.73
226.403	233.03
226.869	233.03
227.335	249.41
227.801	263.46
228.267	324.31
228.733	284.52
229.199	214.31
229.665	251.75
230.131	216.65
230.597	247.07
231.062	282.18
231.528	289.2
231.994	284.52
232.459	268.14
232.925	221.33
233.39	300.91
233.856	190.9
234.321	254.09
234.786	265.8
235.252	261.12
235.717	282.18
236.182	226.01
236.647	188.56
237.112	254.09
237.577	247.07
238.042	207.28
238.507	230.69
238.972	254.09
239.436	244.73
239.901	258.78
240.366	230.69
240.83	256.43
241.295	310.27
241.76	197.92
242.224	251.75
242.688	247.07
243.153	314.95
243.617	240.05
244.081	272.82
244.545	256.43
245.01	258.78
245.474	265.8
245.938	298.56
246.402	221.33
246.866	272.82
247.33	223.67
247.793	211.96
248.257	261.12
248.721	303.25
249.185	305.59
249.648	270.48
250.112	279.84
250.575	200.26
251.039	258.78
251.502	237.71
251.965	303.25
252.429	293.88
252.892	240.05
253.355	265.8
253.818	230.69
254.281	221.33
254.744	235.37
255.207	223.67
255.67	249.41
256.133	237.71
256.596	279.84
257.059	296.22
257.522	223.67
257.984	270.48
258.447	272.82
258.909	237.71
259.372	270.48
259.834	242.39
260.297	265.8
260.759	263.46
261.221	230.69
261.684	256.43
262.146	242.39
262.608	291.54
263.07	263.46
263.532	242.39
263.994	272.82
264.456	261.12
264.918	296.22
265.38	286.86
265.842	261.12
266.303	305.59
266.765	270.48
267.227	326.65
267.688	256.43
268.15	261.12
268.611	228.35
269.072	237.71
269.534	251.75
269.995	272.82
270.456	261.12
270.918	244.73
271.379	240.05
271.84	242.39
272.301	216.65
272.762	303.25
273.223	240.05
273.684	233.03
274.144	261.12
274.605	272.82
275.066	314.95
275.527	303.25
275.987	289.2
276.448	270.48
276.908	277.5
277.369	242.39
277.829	263.46
278.289	251.75
278.75	237.71
279.21	279.84
279.67	289.2
280.13	230.69
280.59	247.07
281.05	244.73
281.51	247.07
281.97	298.56
282.43	279.84
282.89	244.73
283.35	324.31
283.809	197.92
284.269	312.61
284.729	256.43
285.188	305.59
285.648	275.16
286.107	235.37
286.567	268.14
287.026	254.09
287.485	270.48
287.944	291.54
288.404	296.22
288.863	284.52
289.322	319.63
289.781	270.48
290.24	263.46
290.699	303.25
291.158	310.27
291.616	272.82
292.075	303.25
292.534	282.18
292.992	258.78
293.451	268.14
293.91	272.82
294.368	268.14
294.827	319.63
295.285	321.97
295.743	279.84
296.202	286.86
296.66	317.29
297.118	193.24
297.576	226.01
298.034	265.8
298.492	275.16
298.95	275.16
299.408	261.12
299.866	305.59
300.324	286.86
300.781	202.6
301.239	282.18
301.697	251.75
302.154	270.48
302.612	289.2
303.069	284.52
303.527	254.09
303.984	261.12
304.441	223.67
304.899	275.16
305.356	258.78
305.813	286.86
306.27	265.8
306.727	228.35
307.184	286.86
307.641	275.16
308.098	293.88
308.555	263.46
309.012	230.69
309.468	237.71
309.925	300.91
310.382	216.65
310.838	324.31
311.295	293.88
311.751	305.59
312.208	296.22
312.664	216.65
313.12	247.07
313.577	310.27
314.033	251.75
314.489	321.97
314.945	286.86
315.401	305.59
315.857	389.85
316.313	242.39
316.769	254.09
317.225	270.48
317.681	298.56
318.136	242.39
318.592	340.69
319.048	319.63
319.503	298.56
319.959	223.67
320.414	312.61
320.869	310.27
321.325	286.86
321.78	256.43
322.235	326.65
322.691	333.67
323.146	291.54
323.601	237.71
324.056	282.18
324.511	195.58
324.966	284.52
325.421	286.86
325.875	235.37
326.33	296.22
326.785	312.61
327.24	333.67
327.694	261.12
328.149	254.09
328.603	247.07
329.058	319.63
329.512	336.01
329.966	228.35
330.421	305.59
330.875	244.73
331.329	314.95
331.783	326.65
332.237	244.73
332.691	270.48
333.145	221.33
333.599	275.16
334.053	284.52
334.507	319.63
334.96	279.84
335.414	303.25
335.868	254.09
336.321	254.09
336.775	291.54
337.228	228.35
337.682	333.67
338.135	249.41
338.588	254.09
339.042	282.18
339.495	282.18
339.948	289.2
340.401	284.52
340.854	310.27
341.307	328.99
341.76	333.67
342.213	317.29
342.666	277.5
343.119	314.95
343.571	249.41
344.024	284.52
344.477	275.16
344.929	340.69
345.382	336.01
345.834	251.75
346.287	328.99
346.739	277.5
347.191	249.41
347.644	284.52
348.096	275.16
348.548	277.5
349	275.16
349.452	331.33
349.904	300.91
350.356	277.5
350.808	336.01
351.26	328.99
351.711	254.09
352.163	254.09
352.615	303.25
353.066	307.93
353.518	333.67
353.969	263.46
354.421	347.72
354.872	254.09
355.324	256.43
355.775	228.35
356.226	314.95
356.677	249.41
357.128	296.22
357.579	268.14
358.03	300.91
358.481	307.93
358.932	298.56
359.383	345.38
359.834	312.61
360.285	272.82
360.735	265.8
361.186	242.39
361.637	284.52
362.087	319.63
362.538	221.33
362.988	347.72
363.438	237.71
363.889	324.31
364.339	282.18
364.789	275.16
365.239	286.86
365.689	249.41
366.139	256.43
366.589	300.91
367.039	300.91
367.489	326.65
367.939	312.61
368.389	305.59
368.839	277.5
369.288	319.63
369.738	256.43
370.187	272.82
370.637	303.25
371.086	359.42
371.536	268.14
371.985	240.05
372.434	249.41
372.884	352.4
373.333	286.86
373.782	251.75
374.231	279.84
374.68	317.29
375.129	336.01
375.578	350.06
376.027	326.65
376.475	275.16
376.924	350.06
377.373	275.16
377.822	277.5
378.27	275.16
378.719	258.78
379.167	277.5
379.616	272.82
380.064	340.69
380.512	371.12
380.961	307.93
381.409	321.97
381.857	357.08
382.305	319.63
382.753	326.65
383.201	289.2
383.649	314.95
384.097	230.69
384.545	314.95
384.992	270.48
385.44	312.61
385.888	279.84
386.335	293.88
386.783	307.93
387.231	331.33
387.678	254.09
388.125	251.75
388.573	291.54
389.02	307.93
389.467	240.05
389.914	235.37
390.362	279.84
390.809	300.91
391.256	345.38
391.703	228.35
392.15	300.91
392.596	275.16
393.043	244.73
393.49	265.8
393.937	296.22
394.383	268.14
394.83	296.22
395.276	347.72
395.723	296.22
396.169	303.25
396.616	218.99
397.062	321.97
397.508	296.22
397.954	326.65
398.401	371.12
398.847	310.27
399.293	352.4
399.739	289.2
400.185	382.82
400.631	359.42
401.076	319.63
401.522	265.8
401.968	279.84
402.414	284.52
402.859	230.69
403.305	286.86
403.75	263.46
404.196	312.61
404.641	291.54
405.086	321.97
405.532	261.12
405.977	282.18
406.422	286.86
406.867	357.08
407.312	310.27
407.757	331.33
408.202	263.46
408.647	265.8
409.092	268.14
409.537	258.78
409.982	291.54
410.426	300.91
410.871	328.99
411.316	284.52
411.76	265.8
412.205	221.33
412.649	272.82
413.093	240.05
413.538	268.14
413.982	263.46
414.426	303.25
414.87	286.86
415.314	303.25
415.758	289.2
416.202	282.18
416.646	310.27
417.09	298.56
417.534	235.37
417.978	289.2
418.421	324.31
418.865	263.46
419.309	247.07
419.752	305.59
420.196	275.16
420.639	275.16
421.083	343.03
421.526	258.78
421.969	312.61
422.412	296.22
422.856	263.46
423.299	307.93
423.742	270.48
424.185	272.82
424.628	326.65
425.071	296.22
425.513	284.52
425.956	256.43
426.399	286.86
426.842	289.2
427.284	242.39
427.727	319.63
428.169	343.03
428.612	186.22
429.054	303.25
429.497	354.74
429.939	305.59
430.381	270.48
430.823	289.2
431.265	282.18
431.707	317.29
432.149	251.75
432.591	256.43
433.033	209.62
433.475	249.41
433.917	307.93
434.359	354.74
434.8	249.41
435.242	296.22
435.684	293.88
436.125	233.03
436.567	321.97
437.008	284.52
437.449	256.43
437.891	324.31
438.332	336.01
438.773	268.14
439.214	305.59
439.656	277.5
440.097	359.42
440.538	279.84
440.978	256.43
441.419	270.48
441.86	317.29
442.301	277.5
442.742	275.16
443.182	324.31
443.623	321.97
444.063	284.52
444.504	242.39
444.944	249.41
445.385	265.8
445.825	286.86
446.265	328.99
446.706	289.2
447.146	321.97
447.586	263.46
448.026	275.16
448.466	310.27
448.906	289.2
449.346	305.59
449.786	282.18
450.225	258.78
450.665	385.16
451.105	331.33
451.544	354.74
451.984	291.54
452.424	303.25
452.863	296.22
453.302	328.99
453.742	242.39
454.181	230.69
454.62	291.54
455.059	270.48
455.499	324.31
455.938	340.69
456.377	275.16
456.816	282.18
457.254	279.84
457.693	340.69
458.132	324.31
458.571	254.09
459.01	263.46
459.448	279.84
459.887	258.78
460.325	321.97
460.764	249.41
461.202	333.67
461.641	289.2
462.079	336.01
462.517	333.67
462.955	279.84
463.393	312.61
463.832	279.84
464.27	354.74
464.708	279.84
465.145	317.29
465.583	268.14
466.021	284.52
466.459	228.35
466.897	293.88
467.334	307.93
467.772	312.61
468.209	310.27
468.647	193.24
469.084	286.86
469.522	293.88
469.959	286.86
470.396	286.86
470.833	289.2
471.271	312.61
471.708	286.86
472.145	279.84
472.582	270.48
473.019	303.25
473.456	286.86
473.892	336.01
474.329	293.88
474.766	317.29
475.202	268.14
475.639	303.25
476.076	303.25
476.512	291.54
476.949	312.61
477.385	307.93
477.821	240.05
478.258	286.86
478.694	375.8
479.13	333.67
479.566	298.56
480.002	270.48
480.438	350.06
480.874	282.18
481.31	336.01
481.746	289.2
482.181	312.61
482.617	263.46
483.053	258.78
483.488	298.56
483.924	298.56
484.36	277.5
484.795	305.59
485.23	336.01
485.666	312.61
486.101	284.52
486.536	298.56
486.971	303.25
487.407	303.25
487.842	357.08
488.277	244.73
488.712	261.12
489.146	277.5
489.581	291.54
490.016	328.99
490.451	282.18
490.885	317.29
491.32	368.78
491.755	277.5
492.189	254.09
492.624	333.67
493.058	331.33
493.492	319.63
493.927	336.01
494.361	268.14
494.795	354.74
495.229	310.27
495.663	291.54
496.097	289.2
496.531	223.67
496.965	270.48
497.399	328.99
497.833	305.59
498.266	331.33
498.7	321.97
499.134	298.56
499.567	263.46
500.001	303.25
500.434	263.46
500.868	343.03
501.301	256.43
501.734	291.54
502.168	291.54
502.601	272.82
503.034	345.38
503.467	314.95
503.9	319.63
504.333	385.16
504.766	338.35
505.199	312.61
505.632	251.75
506.064	310.27
506.497	272.82
506.93	319.63
507.362	258.78
507.795	265.8
508.227	286.86
508.66	305.59
509.092	305.59
509.524	298.56
509.956	254.09
510.389	312.61
510.821	298.56
511.253	307.93
511.685	265.8
512.117	314.95
512.549	282.18
512.981	359.42
513.412	354.74
513.844	272.82
514.276	265.8
514.707	296.22
515.139	310.27
515.571	289.2
516.002	333.67
516.433	338.35
516.865	303.25
517.296	230.69
517.727	293.88
518.159	354.74
518.59	357.08
519.021	240.05
519.452	265.8
519.883	319.63
520.314	307.93
520.744	366.44
521.175	214.31
521.606	296.22
522.037	357.08
522.467	298.56
522.898	268.14
523.328	307.93
523.759	307.93
524.189	277.5
524.62	261.12
525.05	284.52
525.48	298.56
525.91	261.12
526.341	218.99
526.771	279.84
527.201	286.86
527.631	284.52
528.061	256.43
528.49	282.18
528.92	293.88
529.35	307.93
529.78	314.95
530.209	296.22
530.639	272.82
531.068	286.86
531.498	223.67
531.927	326.65
532.357	326.65
532.786	254.09
533.215	251.75
533.644	261.12
534.074	289.2
534.503	275.16
534.932	277.5
535.361	354.74
535.79	298.56
536.218	326.65
536.647	314.95
537.076	354.74
537.505	321.97
537.933	284.52
538.362	307.93
538.79	275.16
539.219	237.71
539.647	300.91
540.076	300.91
540.504	279.84
540.932	296.22
541.36	282.18
541.788	277.5
542.217	263.46
542.645	270.48
543.073	289.2
543.5	300.91
543.928	312.61
544.356	305.59
544.784	289.2
545.211	312.61
545.639	333.67
546.067	258.78
546.494	382.82
546.922	312.61
547.349	263.46
547.776	279.84
548.204	317.29
548.631	261.12
549.058	375.8
549.485	343.03
549.912	312.61
550.339	303.25
550.766	326.65
551.193	305.59
551.62	284.52
552.047	310.27
552.474	286.86
552.9	326.65
553.327	312.61
553.754	361.76
554.18	263.46
554.607	289.2
555.033	233.03
555.459	230.69
555.886	265.8
556.312	375.8
556.738	293.88
557.164	298.56
557.59	293.88
558.016	319.63
558.442	338.35
558.868	277.5
559.294	321.97
559.72	286.86
560.145	324.31
560.571	300.91
560.997	345.38
561.422	254.09
561.848	373.46
562.273	256.43
562.699	296.22
563.124	279.84
563.549	235.37
563.974	284.52
564.4	258.78
564.825	340.69
565.25	331.33
565.675	319.63
566.1	338.35
566.525	321.97
566.95	352.4
567.374	230.69
567.799	263.46
568.224	272.82
568.648	324.31
569.073	359.42
569.497	289.2
569.922	296.22
570.346	277.5
570.771	303.25
571.195	300.91
571.619	256.43
572.043	247.07
572.467	345.38
572.891	277.5
573.315	282.18
573.739	343.03
574.163	314.95
574.587	261.12
575.011	293.88
575.435	314.95
575.858	326.65
576.282	350.06
576.705	312.61
577.129	324.31
577.552	275.16
577.976	270.48
578.399	268.14
578.822	375.8
579.245	242.39
579.669	338.35
580.092	303.25
580.515	293.88
580.938	310.27
581.361	251.75
581.784	216.65
582.206	338.35
582.629	305.59
583.052	305.59
583.474	279.84
583.897	282.18
584.32	263.46
584.742	336.01
585.165	298.56
585.587	242.39
586.009	263.46
586.431	361.76
586.854	289.2
587.276	265.8
587.698	307.93
588.12	314.95
588.542	279.84
588.964	284.52
589.386	286.86
589.807	237.71
590.229	354.74
590.651	284.52
591.073	296.22
591.494	279.84
591.916	305.59
592.337	237.71
592.759	263.46
593.18	340.69
593.601	275.16
594.022	270.48
594.444	254.09
594.865	254.09
595.286	254.09
595.707	296.22
596.128	307.93
596.549	333.67
596.97	240.05
597.39	277.5
597.811	321.97
598.232	331.33
598.652	317.29
599.073	293.88
599.494	312.61
599.914	300.91
600.334	282.18
600.755	317.29
601.175	310.27
601.595	282.18
602.015	272.82
602.436	338.35
602.856	429.63
603.276	272.82
603.696	221.33
604.115	249.41
604.535	328.99
604.955	321.97
605.375	310.27
605.794	247.07
606.214	261.12
606.634	333.67
607.053	291.54
607.473	319.63
607.892	296.22
608.311	336.01
608.731	261.12
609.15	300.91
609.569	258.78
609.988	293.88
610.407	317.29
610.826	279.84
611.245	300.91
611.664	279.84
612.083	357.08
612.501	289.2
612.92	293.88
613.339	333.67
613.757	289.2
614.176	319.63
614.594	275.16
615.013	258.78
615.431	312.61
615.85	275.16
616.268	333.67
616.686	291.54
617.104	214.31
617.522	282.18
617.94	291.54
618.358	293.88
618.776	240.05
619.194	265.8
619.612	338.35
620.03	333.67
620.447	258.78
620.865	251.75
621.282	282.18
621.7	366.44
622.117	293.88
622.535	218.99
622.952	270.48
623.369	286.86
623.787	282.18
624.204	193.24
624.621	305.59
625.038	261.12
625.455	317.29
625.872	314.95
626.289	303.25
626.706	284.52
627.123	233.03
627.539	321.97
627.956	340.69
628.373	296.22
628.789	268.14
629.206	279.84
629.622	244.73
630.038	357.08
630.455	321.97
630.871	293.88
631.287	265.8
631.703	324.31
632.12	319.63
632.536	310.27
632.952	314.95
633.368	240.05
633.783	298.56
634.199	226.01
634.615	221.33
635.031	261.12
635.446	321.97
635.862	293.88
636.277	324.31
636.693	354.74
637.108	298.56
637.524	296.22
637.939	244.73
638.354	293.88
638.77	247.07
639.185	350.06
639.6	312.61
640.015	202.6
640.43	286.86
640.845	235.37
641.259	258.78
641.674	314.95
642.089	242.39
642.504	275.16
642.918	300.91
643.333	321.97
643.747	289.2
644.162	242.39
644.576	314.95
644.991	338.35
645.405	389.85
645.819	312.61
646.233	331.33
646.647	345.38
647.061	300.91
647.475	275.16
647.889	272.82
648.303	277.5
648.717	289.2
649.131	300.91
649.545	226.01
649.958	268.14
650.372	279.84
650.785	345.38
651.199	338.35
651.612	282.18
652.026	312.61
652.439	237.71
652.852	275.16
653.266	272.82
653.679	319.63
654.092	310.27
654.505	268.14
654.918	272.82
655.331	324.31
655.744	343.03
656.156	268.14
656.569	317.29
656.982	282.18
657.394	265.8
657.807	237.71
658.22	279.84
658.632	284.52
659.044	286.86
659.457	300.91
659.869	272.82
660.281	321.97
660.693	263.46
661.106	265.8
661.518	296.22
661.93	249.41
662.342	240.05
662.754	277.5
663.165	361.76
663.577	293.88
663.989	270.48
664.401	303.25
664.812	354.74
665.224	256.43
665.635	249.41
666.047	340.69
666.458	319.63
666.869	256.43
667.281	310.27
667.692	298.56
668.103	300.91
668.514	254.09
668.925	268.14
669.336	394.53
669.747	345.38
670.158	361.76
670.569	366.44
670.979	275.16
671.39	338.35
671.801	317.29
672.211	298.56
672.622	282.18
673.032	286.86
673.443	282.18
673.853	312.61
674.263	275.16
674.674	310.27
675.084	303.25
675.494	324.31
675.904	291.54
676.314	296.22
676.724	291.54
677.134	211.96
677.544	251.75
677.953	352.4
678.363	279.84
678.773	328.99
679.182	317.29
679.592	270.48
680.001	303.25
680.411	275.16
680.82	319.63
681.23	237.71
681.639	270.48
682.048	286.86
682.457	282.18
682.866	286.86
683.275	357.08
683.684	317.29
684.093	345.38
684.502	254.09
684.911	317.29
685.32	272.82
685.728	256.43
686.137	256.43
686.546	314.95
686.954	350.06
687.363	286.86
687.771	310.27
688.179	240.05
688.588	289.2
688.996	333.67
689.404	321.97
689.812	235.37
690.22	345.38
690.628	321.97
691.036	321.97
691.444	268.14
691.852	296.22
692.26	321.97
692.667	300.91
693.075	324.31
693.483	345.38
693.89	326.65
694.298	338.35
694.705	258.78
695.112	275.16
695.52	284.52
695.927	270.48
696.334	328.99
696.741	237.71
697.148	338.35
697.555	314.95
697.962	293.88
698.369	272.82
698.776	235.37
699.183	305.59
699.59	317.29
699.996	333.67
700.403	286.86
700.81	338.35
701.216	298.56
701.623	256.43
702.029	326.65
702.435	312.61
702.842	272.82
703.248	275.16
703.654	305.59
704.06	321.97
704.466	258.78
704.872	314.95
705.278	343.03
705.684	298.56
706.09	319.63
706.496	312.61
706.901	307.93
707.307	242.39
707.712	275.16
708.118	300.91
708.523	310.27
708.929	265.8
709.334	233.03
709.74	319.63
710.145	305.59
710.55	291.54
710.955	291.54
711.36	237.71
711.765	324.31
712.17	350.06
712.575	328.99
712.98	839.23
713.385	319.63
713.789	317.29
714.194	328.99
714.599	296.22
715.003	331.33
715.408	263.46
715.812	298.56
716.217	319.63
716.621	307.93
717.025	272.82
717.429	272.82
717.833	298.56
718.238	291.54
718.642	345.38
719.046	254.09
719.449	319.63
719.853	289.2
720.257	310.27
720.661	340.69
721.065	296.22
721.468	258.78
721.872	354.74
722.275	371.12
722.679	328.99
723.082	265.8
723.485	275.16
723.889	321.97
724.292	317.29
724.695	352.4
725.098	333.67
725.501	263.46
725.904	254.09
726.307	251.75
726.71	251.75
727.113	261.12
727.516	282.18
727.918	263.46
728.321	336.01
728.724	261.12
729.126	326.65
729.529	277.5
729.931	258.78
730.333	350.06
730.736	303.25
731.138	317.29
731.54	378.14
731.942	312.61
732.344	310.27
732.746	258.78
733.148	340.69
733.55	319.63
733.952	282.18
734.354	319.63
734.756	247.07
735.157	258.78
735.559	235.37
735.96	338.35
736.362	357.08
736.763	254.09
737.165	289.2
737.566	272.82
737.967	272.82
738.368	352.4
738.77	305.59
739.171	247.07
739.572	328.99
739.973	305.59
740.374	307.93
740.774	270.48
741.175	375.8
741.576	357.08
741.977	270.48
742.377	223.67
742.778	293.88
743.178	333.67
743.579	296.22
743.979	275.16
744.379	289.2
744.78	296.22
745.18	331.33
745.58	317.29
745.98	310.27
746.38	270.48
746.78	233.03
747.18	305.59
747.58	293.88
747.98	165.15
748.38	340.69
748.779	279.84
749.179	228.35
749.578	347.72
749.978	256.43
750.377	244.73
750.777	251.75
751.176	235.37
751.575	277.5
751.975	277.5
752.374	277.5
752.773	298.56
753.172	258.78
753.571	270.48
753.97	298.56
754.369	298.56
754.768	275.16
755.166	284.52
755.565	317.29
755.964	303.25
756.362	293.88
756.761	286.86
757.159	291.54
757.558	312.61
757.956	226.01
758.354	333.67
758.753	275.16
759.151	305.59
759.549	319.63
759.947	277.5
760.345	359.42
760.743	305.59
761.141	350.06
761.539	314.95
761.936	270.48
762.334	333.67
762.732	251.75
763.129	361.76
763.527	312.61
763.924	293.88
764.322	364.1
764.719	270.48
765.117	298.56
765.514	268.14
765.911	249.41
766.308	326.65
766.705	247.07
767.102	303.25
767.499	317.29
767.896	275.16
768.293	247.07
768.69	300.91
769.086	291.54
769.483	237.71
769.88	291.54
770.276	338.35
770.673	305.59
771.069	263.46
771.466	258.78
771.862	286.86
772.258	300.91
772.654	284.52
773.05	352.4
773.447	256.43
773.843	284.52
774.239	305.59
774.634	305.59
775.03	261.12
775.426	263.46
775.822	357.08
776.218	354.74
776.613	317.29
777.009	307.93
777.404	291.54
777.8	211.96
778.195	233.03
778.59	336.01
778.986	242.39
779.381	310.27
779.776	317.29
780.171	359.42
780.566	317.29
780.961	223.67
781.356	413.25
781.751	307.93
782.146	277.5
782.54	251.75
782.935	279.84
783.33	338.35
783.724	265.8
784.119	218.99
784.513	275.16
784.908	223.67
785.302	357.08
785.696	254.09
786.09	282.18
786.485	314.95
786.879	214.31
787.273	282.18
787.667	352.4
788.061	310.27
788.454	345.38
788.848	265.8
789.242	310.27
789.636	345.38
790.029	352.4
790.423	261.12
790.816	389.85
791.21	291.54
791.603	307.93
791.997	237.71
792.39	303.25
792.783	293.88
793.176	268.14
793.569	265.8
793.962	258.78
794.355	286.86
794.748	338.35
795.141	303.25
795.534	291.54
795.927	251.75
796.319	307.93
796.712	254.09
797.105	282.18
797.497	282.18
797.89	317.29
798.282	326.65
798.674	310.27
799.067	263.46
799.459	286.86
799.851	303.25
800.243	354.74
800.635	300.91
801.027	324.31
801.419	340.69
801.811	291.54
802.203	279.84
802.594	319.63
802.986	204.94
803.378	296.22
803.769	291.54
804.161	284.52
804.552	263.46
804.944	265.8
805.335	317.29
805.726	244.73
806.118	300.91
806.509	235.37
806.9	235.37
807.291	279.84
807.682	328.99
808.073	277.5
808.464	314.95
808.855	328.99
809.245	331.33
809.636	319.63
810.027	284.52
810.417	242.39
810.808	258.78
811.198	268.14
811.589	319.63
811.979	296.22
812.369	307.93
812.759	265.8
813.15	284.52
813.54	314.95
813.93	321.97
814.32	336.01
814.71	277.5
815.1	272.82
815.489	279.84
815.879	310.27
816.269	326.65
816.658	247.07
817.048	286.86
817.438	270.48
817.827	300.91
818.216	284.52
818.606	286.86
818.995	312.61
819.384	312.61
819.773	300.91
820.163	310.27
820.552	279.84
820.941	352.4
821.33	324.31
821.718	310.27
822.107	249.41
822.496	251.75
822.885	256.43
823.273	336.01
823.662	240.05
824.05	307.93
824.439	331.33
824.827	263.46
825.216	265.8
825.604	293.88
825.992	336.01
826.38	314.95
826.768	263.46
827.156	333.67
827.544	277.5
827.932	233.03
828.32	331.33
828.708	277.5
829.096	293.88
829.483	321.97
829.871	275.16
830.259	357.08
830.646	345.38
831.034	286.86
831.421	268.14
831.808	305.59
832.196	371.12
832.583	321.97
832.97	275.16
833.357	284.52
833.744	321.97
834.131	233.03
834.518	263.46
834.905	272.82
835.292	258.78
835.678	286.86
836.065	345.38
836.452	282.18
836.838	263.46
837.225	195.58
837.611	312.61
837.998	270.48
838.384	319.63
838.77	286.86
839.157	247.07
839.543	272.82
839.929	312.61
840.315	333.67
840.701	289.2
841.087	300.91
841.473	300.91
841.858	282.18
842.244	326.65
842.63	237.71
843.015	352.4
843.401	614.54
843.787	286.86
844.172	293.88
844.557	291.54
844.943	247.07
845.328	256.43
845.713	289.2
846.098	343.03
846.483	300.91
846.868	310.27
847.253	310.27
847.638	331.33
848.023	270.48
848.408	282.18
848.793	291.54
849.177	319.63
849.562	361.76
849.947	247.07
850.331	272.82
850.715	291.54
851.1	277.5
851.484	303.25
851.868	314.95
852.253	291.54
852.637	244.73
853.021	256.43
853.405	254.09
853.789	204.94
854.173	254.09
854.557	300.91
854.94	286.86
855.324	319.63
855.708	265.8
856.091	240.05
856.475	310.27
856.858	289.2
857.242	211.96
857.625	291.54
858.009	265.8
858.392	268.14
858.775	242.39
859.158	312.61
859.541	272.82
859.924	314.95
860.307	293.88
860.69	340.69
861.073	286.86
861.456	328.99
861.838	289.2
862.221	226.01
862.604	286.86
862.986	326.65
863.369	324.31
863.751	270.48
864.133	286.86
864.516	279.84
864.898	298.56
865.28	359.42
865.662	317.29
866.044	317.29
866.426	275.16
866.808	307.93
867.19	235.37
867.572	261.12
867.954	284.52
868.336	361.76
868.717	251.75
869.099	333.67
869.48	242.39
869.862	305.59
870.243	312.61
870.625	303.25
871.006	293.88
871.387	223.67
871.768	247.07
872.149	277.5
872.53	333.67
872.911	258.78
873.292	298.56
873.673	291.54
874.054	261.12
874.435	261.12
874.815	307.93
875.196	289.2
875.577	357.08
875.957	368.78
876.338	350.06
876.718	321.97
877.098	289.2
877.479	282.18
877.859	314.95
878.239	268.14
878.619	272.82
878.999	265.8
879.379	291.54
879.759	275.16
880.139	289.2
880.519	263.46
880.898	277.5
881.278	319.63
881.658	230.69
882.037	256.43
882.417	258.78
882.796	279.84
883.176	282.18
883.555	354.74
883.934	357.08
884.313	312.61
884.693	265.8
885.072	305.59
885.451	321.97
885.83	249.41
886.209	263.46
886.587	343.03
886.966	289.2
887.345	300.91
887.724	359.42
888.102	361.76
888.481	293.88
888.859	326.65
889.238	328.99
889.616	282.18
889.994	293.88
890.373	300.91
890.751	275.16
891.129	314.95
891.507	314.95
891.885	324.31
892.263	300.91
892.641	277.5
893.019	284.52
893.396	321.97
893.774	345.38
894.152	272.82
894.529	247.07
894.907	291.54
895.284	305.59
895.662	270.48
896.039	310.27
896.416	314.95
896.794	333.67
897.171	275.16
897.548	218.99
897.925	324.31
898.302	303.25
898.679	354.74
899.056	324.31
899.433	319.63
899.809	275.16
900.186	300.91
900.563	350.06
900.939	298.56
901.316	319.63
901.692	305.59
902.069	240.05
902.445	333.67
902.821	307.93
903.197	300.91
903.574	293.88
903.95	303.25
904.326	298.56
904.702	336.01
905.078	333.67
905.454	343.03
905.829	254.09
906.205	279.84
906.581	289.2
906.956	321.97
907.332	223.67
907.707	277.5
908.083	303.25
908.458	247.07
908.833	277.5
909.209	303.25
909.584	298.56
909.959	272.82
910.334	314.95
910.709	218.99
911.084	258.78
911.459	331.33
911.834	366.44
912.209	284.52
912.583	291.54
912.958	265.8
913.333	310.27
913.707	286.86
914.082	263.46
914.456	268.14
914.83	314.95
915.205	268.14
915.579	279.84
915.953	352.4
916.327	270.48
916.701	190.9
917.075	326.65
917.449	354.74
917.823	237.71
918.197	275.16
918.571	291.54
918.944	284.52
919.318	312.61
919.692	291.54
920.065	258.78
920.438	328.99
920.812	361.76
921.185	193.24
921.558	296.22
921.932	275.16
922.305	305.59
922.678	303.25
923.051	298.56
923.424	247.07
923.797	268.14
924.17	279.84
924.542	333.67
924.915	293.88
925.288	324.31
925.661	261.12
926.033	251.75
926.406	340.69
926.778	291.54
927.15	261.12
927.523	279.84
927.895	279.84
928.267	338.35
928.639	286.86
929.011	303.25
929.383	279.84
929.755	228.35
930.127	300.91
930.499	279.84
930.871	310.27
931.242	312.61
931.614	328.99
931.986	300.91
932.357	242.39
932.729	254.09
933.1	310.27
933.471	277.5
933.843	249.41
934.214	275.16
934.585	272.82
934.956	216.65
935.327	270.48
935.698	293.88
936.069	254.09
936.44	347.72
936.811	277.5
937.182	303.25
937.552	300.91
937.923	282.18
938.293	249.41
938.664	270.48
939.034	258.78
939.405	277.5
939.775	244.73
940.145	298.56
940.516	284.52
940.886	317.29
941.256	317.29
941.626	277.5
941.996	303.25
942.366	277.5
942.735	284.52
943.105	256.43
943.475	275.16
943.845	314.95
944.214	242.39
944.584	310.27
944.953	300.91
945.323	305.59
945.692	251.75
946.061	312.61
946.43	254.09
946.8	244.73
947.169	303.25
947.538	279.84
947.907	263.46
948.276	258.78
948.645	291.54
949.013	291.54
949.382	336.01
949.751	291.54
950.119	293.88
950.488	296.22
950.857	263.46
951.225	261.12
951.593	291.54
951.962	291.54
952.33	331.33
952.698	333.67
953.066	303.25
953.434	277.5
953.802	291.54
954.17	305.59
954.538	247.07
954.906	254.09
955.274	261.12
955.642	282.18
956.009	251.75
956.377	300.91
956.744	254.09
957.112	298.56
957.479	249.41
957.847	261.12
958.214	268.14
958.581	286.86
958.948	326.65
959.315	350.06
959.683	303.25
960.05	261.12
960.416	256.43
960.783	275.16
961.15	249.41
961.517	235.37
961.884	265.8
962.25	357.08
962.617	244.73
962.983	242.39
963.35	268.14
963.716	305.59
964.082	254.09
964.449	254.09
964.815	279.84
965.181	289.2
965.547	228.35
965.913	272.82
966.279	211.96
966.645	326.65
967.011	307.93
967.377	328.99
967.742	310.27
968.108	251.75
968.474	307.93
968.839	279.84
969.205	305.59
969.57	277.5
969.935	251.75
970.301	293.88
970.666	279.84
971.031	293.88
971.396	275.16
971.761	237.71
972.126	282.18
972.491	284.52
972.856	240.05
973.221	291.54
973.586	343.03
973.95	319.63
974.315	286.86
974.679	293.88
975.044	282.18
975.408	247.07
975.773	300.91
976.137	270.48
976.501	310.27
976.866	263.46
977.23	296.22
977.594	258.78
977.958	251.75
978.322	300.91
978.686	296.22
979.049	303.25
979.413	261.12
979.777	275.16
980.141	314.95
980.504	298.56
980.868	338.35
981.231	326.65
981.595	244.73
981.958	293.88
982.321	256.43
982.684	272.82
983.048	251.75
983.411	328.99
983.774	277.5
984.137	347.72
984.5	277.5
984.862	289.2
985.225	305.59
985.588	321.97
985.951	300.91
986.313	265.8
986.676	270.48
987.038	247.07
987.401	282.18
987.763	328.99
988.125	291.54
988.488	279.84
988.85	286.86
989.212	277.5
989.574	291.54
989.936	333.67
990.298	256.43
990.66	289.2
991.022	275.16
991.383	286.86
991.745	209.62
992.107	328.99
992.468	247.07
992.83	296.22
993.191	293.88
993.553	282.18
993.914	300.91
994.275	272.82
994.637	340.69
994.998	324.31
995.359	314.95
995.72	244.73
996.081	333.67
996.442	254.09
996.803	209.62
997.163	218.99
997.524	291.54
997.885	261.12
998.245	300.91
998.606	263.46
998.966	291.54
999.327	282.18
999.687	293.88
1000.047	296.22
1000.408	310.27
1000.768	282.18
1001.128	249.41
1001.488	343.03
1001.848	237.71
1002.208	286.86
1002.568	258.78
1002.927	284.52
1003.287	190.9
1003.647	324.31
1004.007	261.12
1004.366	284.52
1004.726	286.86
1005.085	254.09
1005.444	242.39
1005.804	265.8
1006.163	286.86
1006.522	289.2
1006.881	310.27
1007.24	298.56
1007.599	286.86
1007.958	284.52
1008.317	298.56
1008.676	258.78
1009.035	242.39
1009.393	303.25
1009.752	277.5
1010.111	242.39
1010.469	261.12
1010.828	233.03
1011.186	235.37
1011.544	326.65
1011.903	256.43
1012.261	242.39
1012.619	279.84
1012.977	291.54
1013.335	293.88
1013.693	235.37
1014.051	284.52
1014.409	336.01
1014.767	296.22
1015.124	249.41
1015.482	343.03
1015.84	343.03
1016.197	289.2
1016.555	298.56
1016.912	321.97
1017.269	247.07
1017.627	336.01
1017.984	289.2
1018.341	293.88
1018.698	277.5
1019.055	328.99
1019.412	317.29
1019.769	312.61
1020.126	282.18
1020.483	317.29
1020.84	258.78
1021.196	312.61
1021.553	310.27
1021.909	333.67
1022.266	284.52
1022.622	218.99
1022.979	328.99
1023.335	286.86
1023.691	261.12
1024.047	277.5
1024.404	258.78
1024.76	272.82
1025.116	247.07
1025.472	289.2
1025.827	293.88
1026.183	223.67
1026.539	249.41
1026.895	244.73
1027.25	284.52
1027.606	291.54
1027.961	233.03
1028.317	307.93
1028.672	263.46
1029.028	277.5
1029.383	328.99
1029.738	233.03
1030.093	307.93
1030.448	314.95
1030.803	293.88
1031.158	254.09
1031.513	293.88
1031.868	265.8
1032.223	261.12
1032.577	310.27
1032.932	310.27
1033.287	240.05
1033.641	352.4
1033.996	275.16
1034.35	352.4
1034.704	286.86
1035.059	265.8
1035.413	275.16
1035.767	275.16
1036.121	275.16
