Data from Al_FLMS009871__1170__16-38-02-887.txt Node

Date: Fri Mar 08 16:38:02 CST 2024
User: pe5414po
Spectrometer: FLMS00987
Trigger mode: 0
Integration Time (sec): 1.000000E-1
Scans to average: 1
Electric dark correction enabled: true
Nonlinearity correction enabled: false
Boxcar width: 0
XAxis mode: Wavelengths
Number of Pixels in Spectrum: 2048
>>>>>Begin Spectral Data<<<<<
188.938	-135.31
189.409	-135.31
189.879	-135.31
190.349	-196.17
190.819	-125.95
191.29	-93.18
191.76	-83.82
192.23	-60.42
192.7	-53.39
193.17	-79.14
193.64	-20.63
194.109	-29.99
194.579	-51.05
195.049	-22.97
195.519	47.25
195.988	-11.26
196.458	96.4
196.927	94.06
197.397	19.16
197.866	124.49
198.336	124.49
198.805	112.78
199.274	133.85
199.744	152.57
200.213	239.17
200.682	225.13
201.151	124.49
201.62	225.13
202.089	201.72
202.558	248.54
203.027	250.88
203.495	271.94
203.964	241.51
204.433	262.58
204.902	229.81
205.37	316.41
205.839	218.11
206.307	260.24
206.776	293.01
207.244	276.62
207.712	227.47
208.181	211.09
208.649	335.14
209.117	285.98
209.585	285.98
210.053	257.9
210.521	281.3
210.989	213.43
211.457	239.17
211.925	262.58
212.393	253.22
212.861	264.92
213.328	264.92
213.796	281.3
214.264	335.14
214.731	283.64
215.199	281.3
215.666	211.09
216.133	222.79
216.601	250.88
217.068	243.85
217.535	236.83
218.003	243.85
218.47	227.47
218.937	232.15
219.404	218.11
219.871	257.9
220.338	307.05
220.805	253.22
221.271	297.69
221.738	295.35
222.205	229.81
222.671	274.28
223.138	255.56
223.605	269.6
224.071	267.26
224.538	197.04
225.004	239.17
225.47	248.54
225.937	288.32
226.403	243.85
226.869	255.56
227.335	234.49
227.801	243.85
228.267	236.83
228.733	204.07
229.199	290.67
229.665	250.88
230.131	264.92
230.597	229.81
231.062	260.24
231.528	307.05
231.994	269.6
232.459	271.94
232.925	234.49
233.39	293.01
233.856	307.05
234.321	293.01
234.786	232.15
235.252	241.51
235.717	295.35
236.182	227.47
236.647	290.67
237.112	227.47
237.577	293.01
238.042	295.35
238.507	351.52
238.972	255.56
239.436	173.64
239.901	271.94
240.366	309.39
240.83	225.13
241.295	332.79
241.76	271.94
242.224	297.69
242.688	227.47
243.153	293.01
243.617	281.3
244.081	293.01
244.545	250.88
245.01	290.67
245.474	276.62
245.938	311.73
246.402	262.58
246.866	274.28
247.33	227.47
247.793	239.17
248.257	281.3
248.721	264.92
249.185	248.54
249.648	314.07
250.112	300.03
250.575	316.41
251.039	262.58
251.502	243.85
251.965	248.54
252.429	180.66
252.892	293.01
253.355	241.51
253.818	283.64
254.281	220.45
254.744	215.77
255.207	257.9
255.67	246.2
256.133	281.3
256.596	276.62
257.059	274.28
257.522	257.9
257.984	253.22
258.447	250.88
258.909	285.98
259.372	267.26
259.834	300.03
260.297	316.41
260.759	185.34
261.221	271.94
261.684	248.54
262.146	260.24
262.608	241.51
263.07	250.88
263.532	260.24
263.994	304.71
264.456	227.47
264.918	246.2
265.38	274.28
265.842	227.47
266.303	295.35
266.765	276.62
267.227	295.35
267.688	253.22
268.15	290.67
268.611	225.13
269.072	276.62
269.534	290.67
269.995	274.28
270.456	307.05
270.918	241.51
271.379	351.52
271.84	288.32
272.301	285.98
272.762	208.75
273.223	241.51
273.684	323.43
274.144	260.24
274.605	243.85
275.066	234.49
275.527	227.47
275.987	285.98
276.448	311.73
276.908	321.09
277.369	311.73
277.829	225.13
278.289	281.3
278.75	215.77
279.21	337.48
279.67	267.26
280.13	353.86
280.59	325.77
281.05	302.37
281.51	274.28
281.97	304.71
282.43	316.41
282.89	321.09
283.35	211.09
283.809	285.98
284.269	346.84
284.729	227.47
285.188	290.67
285.648	309.39
286.107	253.22
286.567	260.24
287.026	229.81
287.485	264.92
287.944	269.6
288.404	278.96
288.863	297.69
289.322	257.9
289.781	234.49
290.24	246.2
290.699	199.38
291.158	321.09
291.616	281.3
292.075	232.15
292.534	290.67
292.992	323.43
293.451	248.54
293.91	213.43
294.368	325.77
294.827	302.37
295.285	243.85
295.743	295.35
296.202	307.05
296.66	349.18
297.118	262.58
297.576	297.69
298.034	257.9
298.492	316.41
298.95	300.03
299.408	278.96
299.866	246.2
300.324	271.94
300.781	293.01
301.239	278.96
301.697	288.32
302.154	328.11
302.612	316.41
303.069	243.85
303.527	325.77
303.984	264.92
304.441	307.05
304.899	264.92
305.356	321.09
305.813	316.41
306.27	337.48
306.727	297.69
307.184	365.56
307.641	285.98
308.098	274.28
308.555	218.11
309.012	283.64
309.468	297.69
309.925	346.84
310.382	295.35
310.838	271.94
311.295	281.3
311.751	283.64
312.208	307.05
312.664	295.35
313.12	321.09
313.577	302.37
314.033	281.3
314.489	274.28
314.945	262.58
315.401	239.17
315.857	314.07
316.313	213.43
316.769	309.39
317.225	311.73
317.681	253.22
318.136	281.3
318.592	278.96
319.048	218.11
319.503	271.94
319.959	372.58
320.414	236.83
320.869	330.45
321.325	304.71
321.78	293.01
322.235	293.01
322.691	225.13
323.146	229.81
323.601	309.39
324.056	281.3
324.511	239.17
324.966	269.6
325.421	318.75
325.875	274.28
326.33	293.01
326.785	271.94
327.24	283.64
327.694	227.47
328.149	304.71
328.603	234.49
329.058	316.41
329.512	295.35
329.966	323.43
330.421	295.35
330.875	278.96
331.329	391.31
331.783	257.9
332.237	304.71
332.691	243.85
333.145	264.92
333.599	250.88
334.053	370.24
334.507	295.35
334.96	274.28
335.414	295.35
335.868	293.01
336.321	281.3
336.775	295.35
337.228	285.98
337.682	295.35
338.135	356.2
338.588	288.32
339.042	281.3
339.495	304.71
339.948	346.84
340.401	344.5
340.854	250.88
341.307	307.05
341.76	332.79
342.213	372.58
342.666	302.37
343.119	386.63
343.571	307.05
344.024	290.67
344.477	255.56
344.929	262.58
345.382	295.35
345.834	246.2
346.287	325.77
346.739	267.26
347.191	255.56
347.644	281.3
348.096	309.39
348.548	288.32
349	234.49
349.452	225.13
349.904	246.2
350.356	274.28
350.808	316.41
351.26	349.18
351.711	372.58
352.163	267.26
352.615	225.13
353.066	264.92
353.518	295.35
353.969	325.77
354.421	295.35
354.872	227.47
355.324	271.94
355.775	323.43
356.226	302.37
356.677	295.35
357.128	276.62
357.579	293.01
358.03	271.94
358.481	253.22
358.932	295.35
359.383	360.88
359.834	234.49
360.285	269.6
360.735	311.73
361.186	276.62
361.637	253.22
362.087	250.88
362.538	297.69
362.988	318.75
363.438	351.52
363.889	311.73
364.339	218.11
364.789	227.47
365.239	274.28
365.689	304.71
366.139	314.07
366.589	337.48
367.039	276.62
367.489	342.16
367.939	290.67
368.389	300.03
368.839	264.92
369.288	300.03
369.738	360.88
370.187	278.96
370.637	274.28
371.086	328.11
371.536	274.28
371.985	234.49
372.434	307.05
372.884	342.16
373.333	316.41
373.782	290.67
374.231	353.86
374.68	255.56
375.129	267.26
375.578	321.09
376.027	311.73
376.475	297.69
376.924	314.07
377.373	295.35
377.822	332.79
378.27	281.3
378.719	283.64
379.167	360.88
379.616	384.29
380.064	197.04
380.512	232.15
380.961	309.39
381.409	262.58
381.857	335.14
382.305	293.01
382.753	339.82
383.201	236.83
383.649	274.28
384.097	335.14
384.545	281.3
384.992	374.92
385.44	309.39
385.888	351.52
386.335	269.6
386.783	302.37
387.231	283.64
387.678	316.41
388.125	253.22
388.573	311.73
389.02	332.79
389.467	257.9
389.914	288.32
390.362	307.05
390.809	323.43
391.256	323.43
391.703	323.43
392.15	316.41
392.596	363.22
393.043	309.39
393.49	267.26
393.937	271.94
394.383	325.77
394.83	269.6
395.276	321.09
395.723	271.94
396.169	236.83
396.616	297.69
397.062	302.37
397.508	314.07
397.954	260.24
398.401	295.35
398.847	250.88
399.293	318.75
399.739	281.3
400.185	288.32
400.631	239.17
401.076	288.32
401.522	250.88
401.968	222.79
402.414	335.14
402.859	356.2
403.305	269.6
403.75	330.45
404.196	283.64
404.641	288.32
405.086	363.22
405.532	321.09
405.977	281.3
406.422	337.48
406.867	363.22
407.312	311.73
407.757	276.62
408.202	330.45
408.647	325.77
409.092	349.18
409.537	262.58
409.982	314.07
410.426	271.94
410.871	255.56
411.316	267.26
411.76	325.77
412.205	323.43
412.649	377.27
413.093	285.98
413.538	309.39
413.982	325.77
414.426	267.26
414.87	271.94
415.314	257.9
415.758	264.92
416.202	339.82
416.646	309.39
417.09	353.86
417.534	318.75
417.978	346.84
418.421	262.58
418.865	274.28
419.309	269.6
419.752	335.14
420.196	307.05
420.639	278.96
421.083	351.52
421.526	302.37
421.969	302.37
422.412	264.92
422.856	297.69
423.299	328.11
423.742	328.11
424.185	257.9
424.628	248.54
425.071	260.24
425.513	349.18
425.956	297.69
426.399	309.39
426.842	300.03
427.284	250.88
427.727	257.9
428.169	283.64
428.612	269.6
429.054	255.56
429.497	330.45
429.939	271.94
430.381	407.69
430.823	297.69
431.265	281.3
431.707	262.58
432.149	274.28
432.591	262.58
433.033	335.14
433.475	278.96
433.917	288.32
434.359	290.67
434.8	283.64
435.242	274.28
435.684	250.88
436.125	302.37
436.567	344.5
437.008	304.71
437.449	309.39
437.891	325.77
438.332	388.97
438.773	302.37
439.214	295.35
439.656	293.01
440.097	293.01
440.538	318.75
440.978	351.52
441.419	337.48
441.86	206.41
442.301	388.97
442.742	330.45
443.182	328.11
443.623	293.01
444.063	264.92
444.504	281.3
444.944	253.22
445.385	311.73
445.825	314.07
446.265	318.75
446.706	297.69
447.146	372.58
447.586	323.43
448.026	370.24
448.466	297.69
448.906	288.32
449.346	293.01
449.786	295.35
450.225	281.3
450.665	330.45
451.105	278.96
451.544	332.79
451.984	314.07
452.424	325.77
452.863	267.26
453.302	321.09
453.742	267.26
454.181	248.54
454.62	316.41
455.059	267.26
455.499	365.56
455.938	295.35
456.377	346.84
456.816	297.69
457.254	262.58
457.693	297.69
458.132	332.79
458.571	344.5
459.01	293.01
459.448	241.51
459.887	208.75
460.325	388.97
460.764	307.05
461.202	309.39
461.641	311.73
462.079	314.07
462.517	229.81
462.955	264.92
463.393	260.24
463.832	276.62
464.27	328.11
464.708	239.17
465.145	262.58
465.583	325.77
466.021	300.03
466.459	367.9
466.897	300.03
467.334	274.28
467.772	297.69
468.209	330.45
468.647	271.94
469.084	307.05
469.522	384.29
469.959	321.09
470.396	304.71
470.833	297.69
471.271	283.64
471.708	307.05
472.145	309.39
472.582	304.71
473.019	335.14
473.456	285.98
473.892	260.24
474.329	325.77
474.766	271.94
475.202	283.64
475.639	328.11
476.076	325.77
476.512	377.27
476.949	297.69
477.385	328.11
477.821	250.88
478.258	269.6
478.694	304.71
479.13	250.88
479.566	307.05
480.002	307.05
480.438	283.64
480.874	304.71
481.31	269.6
481.746	208.75
482.181	293.01
482.617	295.35
483.053	328.11
483.488	288.32
483.924	304.71
484.36	271.94
484.795	309.39
485.23	264.92
485.666	339.82
486.101	342.16
486.536	321.09
486.971	311.73
487.407	337.48
487.842	342.16
488.277	290.67
488.712	360.88
489.146	314.07
489.581	288.32
490.016	337.48
490.451	372.58
490.885	314.07
491.32	351.52
491.755	264.92
492.189	325.77
492.624	250.88
493.058	337.48
493.492	295.35
493.927	314.07
494.361	330.45
494.795	293.01
495.229	335.14
495.663	393.65
496.097	304.71
496.531	323.43
496.965	337.48
497.399	339.82
497.833	222.79
498.266	234.49
498.7	342.16
499.134	386.63
499.567	300.03
500.001	325.77
500.434	325.77
500.868	281.3
501.301	309.39
501.734	297.69
502.168	288.32
502.601	278.96
503.034	316.41
503.467	325.77
503.9	297.69
504.333	283.64
504.766	278.96
505.199	297.69
505.632	283.64
506.064	260.24
506.497	360.88
506.93	311.73
507.362	307.05
507.795	248.54
508.227	311.73
508.66	328.11
509.092	314.07
509.524	353.86
509.956	365.56
510.389	295.35
510.821	283.64
511.253	295.35
511.685	246.2
512.117	274.28
512.549	295.35
512.981	276.62
513.412	323.43
513.844	374.92
514.276	314.07
514.707	257.9
515.139	332.79
515.571	276.62
516.002	316.41
516.433	248.54
516.865	314.07
517.296	295.35
517.727	370.24
518.159	321.09
518.59	295.35
519.021	365.56
519.452	248.54
519.883	276.62
520.314	281.3
520.744	374.92
521.175	293.01
521.606	248.54
522.037	323.43
522.467	302.37
522.898	293.01
523.328	300.03
523.759	323.43
524.189	323.43
524.62	281.3
525.05	267.26
525.48	316.41
525.91	314.07
526.341	295.35
526.771	307.05
527.201	351.52
527.631	330.45
528.061	342.16
528.49	309.39
528.92	330.45
529.35	257.9
529.78	360.88
530.209	309.39
530.639	349.18
531.068	309.39
531.498	318.75
531.927	342.16
532.357	302.37
532.786	262.58
533.215	302.37
533.644	321.09
534.074	267.26
534.503	379.61
534.932	316.41
535.361	290.67
535.79	323.43
536.218	285.98
536.647	323.43
537.076	339.82
537.505	269.6
537.933	365.56
538.362	323.43
538.79	351.52
539.219	290.67
539.647	307.05
540.076	311.73
540.504	356.2
540.932	323.43
541.36	339.82
541.788	307.05
542.217	229.81
542.645	283.64
543.073	304.71
543.5	309.39
543.928	246.2
544.356	337.48
544.784	300.03
545.211	323.43
545.639	260.24
546.067	290.67
546.494	302.37
546.922	250.88
547.349	309.39
547.776	367.9
548.204	325.77
548.631	332.79
549.058	307.05
549.485	264.92
549.912	192.36
550.339	307.05
550.766	276.62
551.193	264.92
551.62	314.07
552.047	285.98
552.474	278.96
552.9	356.2
553.327	257.9
553.754	318.75
554.18	332.79
554.607	255.56
555.033	358.54
555.459	314.07
555.886	283.64
556.312	351.52
556.738	360.88
557.164	360.88
557.59	304.71
558.016	271.94
558.442	290.67
558.868	309.39
559.294	239.17
559.72	314.07
560.145	274.28
560.571	274.28
560.997	288.32
561.422	267.26
561.848	318.75
562.273	337.48
562.699	323.43
563.124	358.54
563.549	290.67
563.974	330.45
564.4	297.69
564.825	267.26
565.25	295.35
565.675	330.45
566.1	295.35
566.525	349.18
566.95	276.62
567.374	281.3
567.799	290.67
568.224	300.03
568.648	262.58
569.073	290.67
569.497	316.41
569.922	330.45
570.346	316.41
570.771	321.09
571.195	297.69
571.619	339.82
572.043	360.88
572.467	297.69
572.891	332.79
573.315	236.83
573.739	337.48
574.163	309.39
574.587	311.73
575.011	290.67
575.435	351.52
575.858	311.73
576.282	264.92
576.705	328.11
577.129	278.96
577.552	271.94
577.976	267.26
578.399	342.16
578.822	274.28
579.245	250.88
579.669	311.73
580.092	356.2
580.515	318.75
580.938	281.3
581.361	330.45
581.784	267.26
582.206	302.37
582.629	293.01
583.052	321.09
583.474	206.41
583.897	342.16
584.32	332.79
584.742	281.3
585.165	257.9
585.587	278.96
586.009	271.94
586.431	328.11
586.854	278.96
587.276	262.58
587.698	269.6
588.12	213.43
588.542	288.32
588.964	283.64
589.386	316.41
589.807	339.82
590.229	325.77
590.651	213.43
591.073	356.2
591.494	269.6
591.916	295.35
592.337	302.37
592.759	278.96
593.18	283.64
593.601	283.64
594.022	248.54
594.444	257.9
594.865	363.22
595.286	314.07
595.707	337.48
596.128	323.43
596.549	304.71
596.97	358.54
597.39	295.35
597.811	255.56
598.232	300.03
598.652	276.62
599.073	262.58
599.494	290.67
599.914	276.62
600.334	288.32
600.755	342.16
601.175	335.14
601.595	288.32
602.015	314.07
602.436	311.73
602.856	426.42
603.276	353.86
603.696	321.09
604.115	300.03
604.535	276.62
604.955	281.3
605.375	325.77
605.794	295.35
606.214	250.88
606.634	285.98
607.053	236.83
607.473	325.77
607.892	285.98
608.311	344.5
608.731	248.54
609.15	323.43
609.569	302.37
609.988	337.48
610.407	269.6
610.826	332.79
611.245	276.62
611.664	290.67
612.083	278.96
612.501	307.05
612.92	295.35
613.339	318.75
613.757	278.96
614.176	260.24
614.594	274.28
615.013	332.79
615.431	283.64
615.85	288.32
616.268	283.64
616.686	295.35
617.104	285.98
617.522	300.03
617.94	288.32
618.358	332.79
618.776	365.56
619.194	328.11
619.612	325.77
620.03	236.83
620.447	300.03
620.865	302.37
621.282	307.05
621.7	269.6
622.117	290.67
622.535	358.54
622.952	267.26
623.369	288.32
623.787	297.69
624.204	278.96
624.621	346.84
625.038	346.84
625.455	339.82
625.872	339.82
626.289	307.05
626.706	335.14
627.123	316.41
627.539	332.79
627.956	276.62
628.373	321.09
628.789	325.77
629.206	278.96
629.622	276.62
630.038	300.03
630.455	300.03
630.871	255.56
631.287	288.32
631.703	309.39
632.12	316.41
632.536	283.64
632.952	309.39
633.368	344.5
633.783	283.64
634.199	283.64
634.615	384.29
635.031	316.41
635.446	302.37
635.862	281.3
636.277	281.3
636.693	288.32
637.108	241.51
637.524	346.84
637.939	316.41
638.354	278.96
638.77	330.45
639.185	367.9
639.6	358.54
640.015	283.64
640.43	311.73
640.845	314.07
641.259	309.39
641.674	253.22
642.089	192.36
642.504	295.35
642.918	285.98
643.333	260.24
643.747	199.38
644.162	262.58
644.576	304.71
644.991	276.62
645.405	293.01
645.819	318.75
646.233	293.01
646.647	295.35
647.061	229.81
647.475	276.62
647.889	325.77
648.303	318.75
648.717	243.85
649.131	295.35
649.545	323.43
649.958	283.64
650.372	307.05
650.785	344.5
651.199	267.26
651.612	262.58
652.026	300.03
652.439	344.5
652.852	293.01
653.266	281.3
653.679	325.77
654.092	236.83
654.505	278.96
654.918	281.3
655.331	330.45
655.744	283.64
656.156	318.75
656.569	302.37
656.982	307.05
657.394	281.3
657.807	337.48
658.22	335.14
658.632	253.22
659.044	241.51
659.457	297.69
659.869	278.96
660.281	274.28
660.693	367.9
661.106	321.09
661.518	353.86
661.93	316.41
662.342	342.16
662.754	304.71
663.165	304.71
663.577	293.01
663.989	321.09
664.401	314.07
664.812	318.75
665.224	314.07
665.635	332.79
666.047	318.75
666.458	285.98
666.869	288.32
667.281	276.62
667.692	323.43
668.103	293.01
668.514	257.9
668.925	255.56
669.336	290.67
669.747	328.11
670.158	318.75
670.569	300.03
670.979	346.84
671.39	283.64
671.801	316.41
672.211	307.05
672.622	293.01
673.032	330.45
673.443	314.07
673.853	316.41
674.263	274.28
674.674	295.35
675.084	295.35
675.494	276.62
675.904	353.86
676.314	328.11
676.724	248.54
677.134	337.48
677.544	314.07
677.953	302.37
678.363	288.32
678.773	412.37
679.182	297.69
679.592	342.16
680.001	295.35
680.411	353.86
680.82	302.37
681.23	367.9
681.639	342.16
682.048	290.67
682.457	260.24
682.866	300.03
683.275	285.98
683.684	295.35
684.093	325.77
684.502	302.37
684.911	307.05
685.32	318.75
685.728	267.26
686.137	339.82
686.546	309.39
686.954	330.45
687.363	246.2
687.771	234.49
688.179	318.75
688.588	297.69
688.996	281.3
689.404	257.9
689.812	274.28
690.22	293.01
690.628	335.14
691.036	307.05
691.444	309.39
691.852	243.85
692.26	300.03
692.667	269.6
693.075	339.82
693.483	293.01
693.89	278.96
694.298	339.82
694.705	311.73
695.112	271.94
695.52	342.16
695.927	274.28
696.334	332.79
696.741	229.81
697.148	278.96
697.555	309.39
697.962	267.26
698.369	346.84
698.776	271.94
699.183	297.69
699.59	307.05
699.996	243.85
700.403	344.5
700.81	367.9
701.216	302.37
701.623	293.01
702.029	335.14
702.435	269.6
702.842	285.98
703.248	267.26
703.654	257.9
704.06	293.01
704.466	264.92
704.872	314.07
705.278	393.65
705.684	304.71
706.09	318.75
706.496	328.11
706.901	285.98
707.307	293.01
707.712	370.24
708.118	241.51
708.523	274.28
708.929	332.79
709.334	342.16
709.74	243.85
710.145	297.69
710.55	300.03
710.955	262.58
711.36	262.58
711.765	236.83
712.17	335.14
712.575	325.77
712.98	901.55
713.385	367.9
713.789	295.35
714.194	288.32
714.599	302.37
715.003	365.56
715.408	295.35
715.812	267.26
716.217	316.41
716.621	300.03
717.025	316.41
717.429	267.26
717.833	314.07
718.238	269.6
718.642	260.24
719.046	278.96
719.449	300.03
719.853	304.71
720.257	293.01
720.661	344.5
721.065	349.18
721.468	293.01
721.872	295.35
722.275	318.75
722.679	307.05
723.082	374.92
723.485	248.54
723.889	309.39
724.292	307.05
724.695	283.64
725.098	358.54
725.501	328.11
725.904	269.6
726.307	260.24
726.71	374.92
727.113	267.26
727.516	344.5
727.918	288.32
728.321	274.28
728.724	307.05
729.126	243.85
729.529	274.28
729.931	283.64
730.333	314.07
730.736	222.79
731.138	278.96
731.54	271.94
731.942	393.65
732.344	365.56
732.746	330.45
733.148	264.92
733.55	330.45
733.952	288.32
734.354	293.01
734.756	281.3
735.157	271.94
735.559	295.35
735.96	260.24
736.362	323.43
736.763	386.63
737.165	264.92
737.566	304.71
737.967	255.56
738.368	314.07
738.77	290.67
739.171	337.48
739.572	290.67
739.973	281.3
740.374	206.41
740.774	293.01
741.175	321.09
741.576	316.41
741.977	297.69
742.377	260.24
742.778	281.3
743.178	304.71
743.579	250.88
743.979	330.45
744.379	302.37
744.78	283.64
745.18	271.94
745.58	321.09
745.98	281.3
746.38	267.26
746.78	342.16
747.18	349.18
747.58	300.03
747.98	325.77
748.38	365.56
748.779	285.98
749.179	276.62
749.578	297.69
749.978	297.69
750.377	255.56
750.777	262.58
751.176	281.3
751.575	227.47
751.975	278.96
752.374	323.43
752.773	307.05
753.172	218.11
753.571	328.11
753.97	260.24
754.369	304.71
754.768	325.77
755.166	290.67
755.565	274.28
755.964	288.32
756.362	328.11
756.761	241.51
757.159	269.6
757.558	290.67
757.956	335.14
758.354	283.64
758.753	278.96
759.151	349.18
759.549	349.18
759.947	274.28
760.345	342.16
760.743	302.37
761.141	253.22
761.539	262.58
761.936	318.75
762.334	290.67
762.732	304.71
763.129	293.01
763.527	321.09
763.924	255.56
764.322	330.45
764.719	285.98
765.117	295.35
765.514	300.03
765.911	257.9
766.308	323.43
766.705	370.24
767.102	318.75
767.499	311.73
767.896	262.58
768.293	323.43
768.69	300.03
769.086	264.92
769.483	295.35
769.88	278.96
770.276	300.03
770.673	307.05
771.069	267.26
771.466	271.94
771.862	278.96
772.258	260.24
772.654	255.56
773.05	295.35
773.447	264.92
773.843	377.27
774.239	278.96
774.634	276.62
775.03	295.35
775.426	374.92
775.822	318.75
776.218	311.73
776.613	290.67
777.009	271.94
777.404	335.14
777.8	269.6
778.195	295.35
778.59	330.45
778.986	250.88
779.381	250.88
779.776	260.24
780.171	304.71
780.566	285.98
780.961	260.24
781.356	307.05
781.751	316.41
782.146	300.03
782.54	295.35
782.935	288.32
783.33	358.54
783.724	283.64
784.119	293.01
784.513	337.48
784.908	264.92
785.302	332.79
785.696	257.9
786.09	337.48
786.485	264.92
786.879	300.03
787.273	271.94
787.667	239.17
788.061	269.6
788.454	318.75
788.848	288.32
789.242	288.32
789.636	267.26
790.029	241.51
790.423	260.24
790.816	274.28
791.21	269.6
791.603	257.9
791.997	335.14
792.39	246.2
792.783	403.01
793.176	325.77
793.569	276.62
793.962	236.83
794.355	243.85
794.748	307.05
795.141	311.73
795.534	290.67
795.927	332.79
796.319	264.92
796.712	321.09
797.105	276.62
797.497	307.05
797.89	304.71
798.282	300.03
798.674	314.07
799.067	323.43
799.459	311.73
799.851	323.43
800.243	269.6
800.635	262.58
801.027	271.94
801.419	318.75
801.811	323.43
802.203	283.64
802.594	260.24
802.986	330.45
803.378	297.69
803.769	314.07
804.161	314.07
804.552	241.51
804.944	332.79
805.335	250.88
805.726	323.43
806.118	281.3
806.509	283.64
806.9	234.49
807.291	316.41
807.682	370.24
808.073	269.6
808.464	370.24
808.855	278.96
809.245	278.96
809.636	290.67
810.027	283.64
810.417	262.58
810.808	297.69
811.198	283.64
811.589	377.27
811.979	300.03
812.369	260.24
812.759	264.92
813.15	285.98
813.54	323.43
813.93	344.5
814.32	316.41
814.71	309.39
815.1	178.32
815.489	271.94
815.879	236.83
816.269	264.92
816.658	339.82
817.048	288.32
817.438	260.24
817.827	360.88
818.216	281.3
818.606	271.94
818.995	274.28
819.384	311.73
819.773	276.62
820.163	297.69
820.552	339.82
820.941	300.03
821.33	304.71
821.718	262.58
822.107	288.32
822.496	271.94
822.885	335.14
823.273	281.3
823.662	274.28
824.05	311.73
824.439	269.6
824.827	363.22
825.216	297.69
825.604	253.22
825.992	300.03
826.38	302.37
826.768	236.83
827.156	293.01
827.544	349.18
827.932	307.05
828.32	356.2
828.708	318.75
829.096	285.98
829.483	300.03
829.871	335.14
830.259	353.86
830.646	236.83
831.034	318.75
831.421	302.37
831.808	330.45
832.196	288.32
832.583	337.48
832.97	339.82
833.357	290.67
833.744	337.48
834.131	274.28
834.518	311.73
834.905	300.03
835.292	250.88
835.678	278.96
836.065	248.54
836.452	346.84
836.838	269.6
837.225	353.86
837.611	297.69
837.998	276.62
838.384	264.92
838.77	269.6
839.157	316.41
839.543	311.73
839.929	262.58
840.315	304.71
840.701	283.64
841.087	260.24
841.473	351.52
841.858	321.09
842.244	267.26
842.63	276.62
843.015	278.96
843.401	566.85
843.787	300.03
844.172	318.75
844.557	300.03
844.943	283.64
845.328	304.71
845.713	335.14
846.098	302.37
846.483	363.22
846.868	318.75
847.253	304.71
847.638	278.96
848.023	285.98
848.408	330.45
848.793	297.69
849.177	295.35
849.562	311.73
849.947	248.54
850.331	276.62
850.715	307.05
851.1	314.07
851.484	328.11
851.868	332.79
852.253	243.85
852.637	283.64
853.021	271.94
853.405	316.41
853.789	215.77
854.173	302.37
854.557	285.98
854.94	278.96
855.324	367.9
855.708	293.01
856.091	370.24
856.475	318.75
856.858	264.92
857.242	295.35
857.625	314.07
858.009	360.88
858.392	269.6
858.775	304.71
859.158	253.22
859.541	314.07
859.924	290.67
860.307	307.05
860.69	253.22
861.073	288.32
861.456	290.67
861.838	293.01
862.221	344.5
862.604	372.58
862.986	335.14
863.369	264.92
863.751	370.24
864.133	302.37
864.516	297.69
864.898	325.77
865.28	314.07
865.662	342.16
866.044	290.67
866.426	208.75
866.808	325.77
867.19	276.62
867.572	328.11
867.954	278.96
868.336	318.75
868.717	236.83
869.099	281.3
869.48	274.28
869.862	302.37
870.243	297.69
870.625	323.43
871.006	293.01
871.387	225.13
871.768	328.11
872.149	288.32
872.53	337.48
872.911	253.22
873.292	325.77
873.673	311.73
874.054	363.22
874.435	386.63
874.815	311.73
875.196	353.86
875.577	309.39
875.957	363.22
876.338	332.79
876.718	318.75
877.098	325.77
877.479	264.92
877.859	288.32
878.239	257.9
878.619	283.64
878.999	330.45
879.379	295.35
879.759	274.28
880.139	309.39
880.519	271.94
880.898	314.07
881.278	257.9
881.658	229.81
882.037	344.5
882.417	311.73
882.796	262.58
883.176	323.43
883.555	267.26
883.934	316.41
884.313	253.22
884.693	260.24
885.072	229.81
885.451	239.17
885.83	246.2
886.209	377.27
886.587	278.96
886.966	257.9
887.345	253.22
887.724	267.26
888.102	239.17
888.481	260.24
888.859	262.58
889.238	283.64
889.616	253.22
889.994	271.94
890.373	316.41
890.751	293.01
891.129	234.49
891.507	278.96
891.885	274.28
892.263	293.01
892.641	328.11
893.019	250.88
893.396	344.5
893.774	328.11
894.152	253.22
894.529	293.01
894.907	325.77
895.284	293.01
895.662	250.88
896.039	260.24
896.416	285.98
896.794	302.37
897.171	328.11
897.548	293.01
897.925	302.37
898.302	332.79
898.679	300.03
899.056	325.77
899.433	295.35
899.809	229.81
900.186	257.9
900.563	381.95
900.939	246.2
901.316	262.58
901.692	290.67
902.069	304.71
902.445	339.82
902.821	243.85
903.197	283.64
903.574	250.88
903.95	262.58
904.326	304.71
904.702	339.82
905.078	271.94
905.454	255.56
905.829	311.73
906.205	332.79
906.581	290.67
906.956	297.69
907.332	309.39
907.707	248.54
908.083	243.85
908.458	241.51
908.833	288.32
909.209	339.82
909.584	206.41
909.959	264.92
910.334	293.01
910.709	241.51
911.084	332.79
911.459	330.45
911.834	281.3
912.209	304.71
912.583	293.01
912.958	309.39
913.333	201.72
913.707	330.45
914.082	304.71
914.456	281.3
914.83	297.69
915.205	271.94
915.579	290.67
915.953	281.3
916.327	283.64
916.701	246.2
917.075	250.88
917.449	297.69
917.823	311.73
918.197	318.75
918.571	342.16
918.944	274.28
919.318	302.37
919.692	304.71
920.065	283.64
920.438	295.35
920.812	314.07
921.185	267.26
921.558	379.61
921.932	276.62
922.305	309.39
922.678	253.22
923.051	318.75
923.424	384.29
923.797	267.26
924.17	293.01
924.542	307.05
924.915	288.32
925.288	330.45
925.661	290.67
926.033	295.35
926.406	283.64
926.778	278.96
927.15	351.52
927.523	278.96
927.895	248.54
928.267	323.43
928.639	293.01
929.011	342.16
929.383	264.92
929.755	304.71
930.127	304.71
930.499	281.3
930.871	318.75
931.242	290.67
931.614	360.88
931.986	290.67
932.357	278.96
932.729	274.28
933.1	335.14
933.471	285.98
933.843	283.64
934.214	213.43
934.585	267.26
934.956	190.02
935.327	267.26
935.698	290.67
936.069	297.69
936.44	342.16
936.811	225.13
937.182	295.35
937.552	339.82
937.923	349.18
938.293	323.43
938.664	185.34
939.034	243.85
939.405	271.94
939.775	281.3
940.145	323.43
940.516	264.92
940.886	302.37
941.256	330.45
941.626	278.96
941.996	257.9
942.366	314.07
942.735	295.35
943.105	332.79
943.475	325.77
943.845	215.77
944.214	328.11
944.584	295.35
944.953	239.17
945.323	307.05
945.692	302.37
946.061	307.05
946.43	285.98
946.8	309.39
947.169	269.6
947.538	300.03
947.907	283.64
948.276	290.67
948.645	278.96
949.013	316.41
949.382	311.73
949.751	290.67
950.119	330.45
950.488	274.28
950.857	278.96
951.225	304.71
951.593	297.69
951.962	356.2
952.33	328.11
952.698	297.69
953.066	300.03
953.434	264.92
953.802	199.38
954.17	335.14
954.538	288.32
954.906	353.86
955.274	342.16
955.642	262.58
956.009	307.05
956.377	321.09
956.744	246.2
957.112	281.3
957.479	250.88
957.847	236.83
958.214	328.11
958.581	267.26
958.948	255.56
959.315	311.73
959.683	271.94
960.05	395.99
960.416	346.84
960.783	295.35
961.15	267.26
961.517	260.24
961.884	262.58
962.25	311.73
962.617	234.49
962.983	290.67
963.35	250.88
963.716	321.09
964.082	267.26
964.449	311.73
964.815	325.77
965.181	293.01
965.547	262.58
965.913	332.79
966.279	267.26
966.645	325.77
967.011	276.62
967.377	307.05
967.742	356.2
968.108	239.17
968.474	241.51
968.839	300.03
969.205	302.37
969.57	311.73
969.935	215.77
970.301	302.37
970.666	283.64
971.031	211.09
971.396	300.03
971.761	344.5
972.126	281.3
972.491	309.39
972.856	309.39
973.221	293.01
973.586	316.41
973.95	288.32
974.315	293.01
974.679	255.56
975.044	314.07
975.408	260.24
975.773	311.73
976.137	295.35
976.501	323.43
976.866	220.45
977.23	293.01
977.594	253.22
977.958	332.79
978.322	323.43
978.686	257.9
979.049	290.67
979.413	213.43
979.777	262.58
980.141	309.39
980.504	248.54
980.868	255.56
981.231	288.32
981.595	283.64
981.958	283.64
982.321	323.43
982.684	290.67
983.048	344.5
983.411	328.11
983.774	285.98
984.137	304.71
984.5	260.24
984.862	283.64
985.225	264.92
985.588	243.85
985.951	248.54
986.313	283.64
986.676	271.94
987.038	262.58
987.401	222.79
987.763	262.58
988.125	304.71
988.488	278.96
988.85	297.69
989.212	274.28
989.574	311.73
989.936	332.79
990.298	278.96
990.66	278.96
991.022	300.03
991.383	365.56
991.745	309.39
992.107	288.32
992.468	302.37
992.83	321.09
993.191	236.83
993.553	227.47
993.914	246.2
994.275	285.98
994.637	276.62
994.998	300.03
995.359	290.67
995.72	276.62
996.081	290.67
996.442	332.79
996.803	339.82
997.163	293.01
997.524	300.03
997.885	325.77
998.245	309.39
998.606	346.84
998.966	262.58
999.327	367.9
999.687	227.47
1000.047	330.45
1000.408	307.05
1000.768	250.88
1001.128	262.58
1001.488	257.9
1001.848	323.43
1002.208	236.83
1002.568	236.83
1002.927	297.69
1003.287	262.58
1003.647	342.16
1004.007	314.07
1004.366	309.39
1004.726	293.01
1005.085	278.96
1005.444	290.67
1005.804	328.11
1006.163	307.05
1006.522	295.35
1006.881	311.73
1007.24	297.69
1007.599	288.32
1007.958	278.96
1008.317	215.77
1008.676	253.22
1009.035	260.24
1009.393	372.58
1009.752	278.96
1010.111	307.05
1010.469	302.37
1010.828	288.32
1011.186	278.96
1011.544	274.28
1011.903	297.69
1012.261	314.07
1012.619	255.56
1012.977	335.14
1013.335	285.98
1013.693	353.86
1014.051	257.9
1014.409	346.84
1014.767	297.69
1015.124	239.17
1015.482	344.5
1015.84	290.67
1016.197	293.01
1016.555	293.01
1016.912	332.79
1017.269	321.09
1017.627	302.37
1017.984	323.43
1018.341	215.77
1018.698	248.54
1019.055	304.71
1019.412	285.98
1019.769	248.54
1020.126	278.96
1020.483	342.16
1020.84	220.45
1021.196	304.71
1021.553	318.75
1021.909	353.86
1022.266	271.94
1022.622	276.62
1022.979	248.54
1023.335	339.82
1023.691	274.28
1024.047	302.37
1024.404	271.94
1024.76	215.77
1025.116	201.72
1025.472	267.26
1025.827	239.17
1026.183	297.69
1026.539	283.64
1026.895	332.79
1027.25	300.03
1027.606	239.17
1027.961	269.6
1028.317	267.26
1028.672	285.98
1029.028	260.24
1029.383	281.3
1029.738	278.96
1030.093	281.3
1030.448	309.39
1030.803	297.69
1031.158	297.69
1031.513	274.28
1031.868	274.28
1032.223	260.24
1032.577	316.41
1032.932	283.64
1033.287	300.03
1033.641	234.49
1033.996	316.41
1034.35	264.92
1034.704	248.54
1035.059	293.01
1035.413	293.01
1035.767	293.01
1036.121	293.01
