Data from Al_FLMS009871__1161__16-38-01-987.txt Node

Date: Fri Mar 08 16:38:01 CST 2024
User: pe5414po
Spectrometer: FLMS00987
Trigger mode: 0
Integration Time (sec): 1.000000E-1
Scans to average: 1
Electric dark correction enabled: true
Nonlinearity correction enabled: false
Boxcar width: 0
XAxis mode: Wavelengths
Number of Pixels in Spectrum: 2048
>>>>>Begin Spectral Data<<<<<
188.938	-55
189.409	-55
189.879	-55
190.349	-125.22
190.819	-99.47
191.29	-99.47
191.76	-92.45
192.23	-83.09
192.7	-78.41
193.17	-66.71
193.64	-19.89
194.109	17.55
194.579	-1.17
195.049	15.21
195.519	-8.19
195.988	24.58
196.458	43.3
196.927	76.07
197.397	10.53
197.866	111.18
198.336	150.96
198.805	188.41
199.274	218.84
199.744	115.86
200.213	249.27
200.682	195.43
201.151	223.52
201.62	223.52
202.089	260.97
202.558	235.22
203.027	277.35
203.495	277.35
203.964	239.9
204.433	310.12
204.902	340.55
205.37	347.57
205.839	324.16
206.307	300.76
206.776	340.55
207.244	321.82
207.712	270.33
208.181	319.48
208.649	265.65
209.117	284.38
209.585	317.14
210.053	310.12
210.521	317.14
210.989	279.69
211.457	317.14
211.925	216.5
212.393	321.82
212.861	324.16
213.328	282.03
213.796	300.76
214.264	298.42
214.731	270.33
215.199	333.53
215.666	298.42
216.133	260.97
216.601	197.78
217.068	244.59
217.535	324.16
218.003	239.9
218.47	291.4
218.937	321.82
219.404	298.42
219.871	277.35
220.338	282.03
220.805	345.23
221.271	303.1
221.738	258.63
222.205	249.27
222.671	270.33
223.138	300.76
223.605	256.29
224.071	235.22
224.538	235.22
225.004	258.63
225.47	260.97
225.937	265.65
226.403	349.91
226.869	279.69
227.335	286.72
227.801	253.95
228.267	260.97
228.733	218.84
229.199	277.35
229.665	263.31
230.131	279.69
230.597	310.12
231.062	237.56
231.528	286.72
231.994	298.42
232.459	347.57
232.925	223.52
233.39	298.42
233.856	296.08
234.321	286.72
234.786	312.46
235.252	324.16
235.717	314.8
236.182	291.4
236.647	277.35
237.112	284.38
237.577	211.82
238.042	328.85
238.507	275.01
238.972	202.46
239.436	251.61
239.901	249.27
240.366	270.33
240.83	251.61
241.295	300.76
241.76	282.03
242.224	249.27
242.688	216.5
243.153	272.67
243.617	293.74
244.081	279.69
244.545	263.31
245.01	317.14
245.474	293.74
245.938	321.82
246.402	282.03
246.866	303.1
247.33	221.18
247.793	307.78
248.257	354.59
248.721	246.93
249.185	284.38
249.648	267.99
250.112	296.08
250.575	291.4
251.039	303.1
251.502	270.33
251.965	267.99
252.429	310.12
252.892	312.46
253.355	275.01
253.818	249.27
254.281	277.35
254.744	303.1
255.207	307.78
255.67	223.52
256.133	291.4
256.596	267.99
257.059	256.29
257.522	324.16
257.984	333.53
258.447	251.61
258.909	258.63
259.372	270.33
259.834	300.76
260.297	277.35
260.759	244.59
261.221	286.72
261.684	253.95
262.146	326.5
262.608	272.67
263.07	242.25
263.532	286.72
263.994	373.32
264.456	277.35
264.918	293.74
265.38	300.76
265.842	272.67
266.303	319.48
266.765	338.21
267.227	363.95
267.688	326.5
268.15	284.38
268.611	289.06
269.072	312.46
269.534	291.4
269.995	267.99
270.456	349.91
270.918	296.08
271.379	270.33
271.84	317.14
272.301	249.27
272.762	289.06
273.223	333.53
273.684	310.12
274.144	352.25
274.605	291.4
275.066	267.99
275.527	296.08
275.987	317.14
276.448	356.93
276.908	321.82
277.369	361.61
277.829	324.16
278.289	356.93
278.75	349.91
279.21	279.69
279.67	310.12
280.13	319.48
280.59	284.38
281.05	279.69
281.51	272.67
281.97	289.06
282.43	265.65
282.89	284.38
283.35	291.4
283.809	279.69
284.269	291.4
284.729	326.5
285.188	307.78
285.648	293.74
286.107	305.44
286.567	345.23
287.026	249.27
287.485	310.12
287.944	298.42
288.404	282.03
288.863	296.08
289.322	310.12
289.781	209.48
290.24	338.21
290.699	307.78
291.158	324.16
291.616	331.19
292.075	289.06
292.534	298.42
292.992	235.22
293.451	342.89
293.91	289.06
294.368	272.67
294.827	305.44
295.285	321.82
295.743	356.93
296.202	366.29
296.66	312.46
297.118	277.35
297.576	373.32
298.034	246.93
298.492	354.59
298.95	307.78
299.408	333.53
299.866	282.03
300.324	392.04
300.781	324.16
301.239	408.42
301.697	291.4
302.154	321.82
302.612	263.31
303.069	291.4
303.527	291.4
303.984	321.82
304.441	368.63
304.899	284.38
305.356	279.69
305.813	256.29
306.27	317.14
306.727	321.82
307.184	363.95
307.641	333.53
308.098	331.19
308.555	244.59
309.012	340.55
309.468	324.16
309.925	361.61
310.382	284.38
310.838	275.01
311.295	307.78
311.751	239.9
312.208	296.08
312.664	270.33
313.12	303.1
313.577	263.31
314.033	253.95
314.489	319.48
314.945	291.4
315.401	307.78
315.857	284.38
316.313	298.42
316.769	326.5
317.225	345.23
317.681	375.66
318.136	293.74
318.592	314.8
319.048	305.44
319.503	230.54
319.959	307.78
320.414	321.82
320.869	333.53
321.325	319.48
321.78	286.72
322.235	342.89
322.691	303.1
323.146	314.8
323.601	354.59
324.056	286.72
324.511	338.21
324.966	331.19
325.421	333.53
325.875	319.48
326.33	314.8
326.785	265.65
327.24	345.23
327.694	352.25
328.149	260.97
328.603	282.03
329.058	335.87
329.512	277.35
329.966	328.85
330.421	342.89
330.875	312.46
331.329	333.53
331.783	342.89
332.237	303.1
332.691	216.5
333.145	340.55
333.599	291.4
334.053	333.53
334.507	410.76
334.96	317.14
335.414	321.82
335.868	331.19
336.321	267.99
336.775	342.89
337.228	352.25
337.682	303.1
338.135	279.69
338.588	305.44
339.042	338.21
339.495	338.21
339.948	312.46
340.401	300.76
340.854	333.53
341.307	335.87
341.76	378
342.213	256.29
342.666	363.95
343.119	361.61
343.571	347.57
344.024	354.59
344.477	289.06
344.929	361.61
345.382	333.53
345.834	289.06
346.287	253.95
346.739	324.16
347.191	305.44
347.644	352.25
348.096	300.76
348.548	293.74
349	300.76
349.452	352.25
349.904	277.35
350.356	303.1
350.808	345.23
351.26	326.5
351.711	310.12
352.163	333.53
352.615	378
353.066	342.89
353.518	310.12
353.969	312.46
354.421	319.48
354.872	317.14
355.324	338.21
355.775	303.1
356.226	345.23
356.677	256.29
357.128	328.85
357.579	307.78
358.03	289.06
358.481	370.97
358.932	392.04
359.383	317.14
359.834	305.44
360.285	319.48
360.735	347.57
361.186	300.76
361.637	253.95
362.087	319.48
362.538	317.14
362.988	382.68
363.438	363.95
363.889	331.19
364.339	354.59
364.789	352.25
365.239	319.48
365.689	347.57
366.139	312.46
366.589	291.4
367.039	272.67
367.489	321.82
367.939	345.23
368.389	307.78
368.839	293.74
369.288	368.63
369.738	340.55
370.187	324.16
370.637	258.63
371.086	298.42
371.536	312.46
371.985	378
372.434	258.63
372.884	296.08
373.333	324.16
373.782	289.06
374.231	293.74
374.68	347.57
375.129	291.4
375.578	342.89
376.027	286.72
376.475	303.1
376.924	378
377.373	406.08
377.822	342.89
378.27	305.44
378.719	387.36
379.167	335.87
379.616	307.78
380.064	361.61
380.512	324.16
380.961	298.42
381.409	324.16
381.857	267.99
382.305	347.57
382.753	333.53
383.201	296.08
383.649	300.76
384.097	333.53
384.545	335.87
384.992	333.53
385.44	342.89
385.888	317.14
386.335	319.48
386.783	296.08
387.231	277.35
387.678	296.08
388.125	286.72
388.573	321.82
389.02	244.59
389.467	319.48
389.914	324.16
390.362	338.21
390.809	340.55
391.256	293.74
391.703	275.01
392.15	314.8
392.596	378
393.043	359.27
393.49	331.19
393.937	321.82
394.383	319.48
394.83	270.33
395.276	331.19
395.723	284.38
396.169	317.14
396.616	293.74
397.062	328.85
397.508	326.5
397.954	368.63
398.401	342.89
398.847	317.14
399.293	298.42
399.739	352.25
400.185	424.81
400.631	347.57
401.076	333.53
401.522	300.76
401.968	286.72
402.414	331.19
402.859	359.27
403.305	324.16
403.75	359.27
404.196	338.21
404.641	289.06
405.086	378
405.532	338.21
405.977	387.36
406.422	331.19
406.867	310.12
407.312	312.46
407.757	396.72
408.202	354.59
408.647	284.38
409.092	335.87
409.537	293.74
409.982	345.23
410.426	286.72
410.871	415.45
411.316	375.66
411.76	317.14
412.205	324.16
412.649	394.38
413.093	349.91
413.538	396.72
413.982	328.85
414.426	310.12
414.87	312.46
415.314	340.55
415.758	298.42
416.202	396.72
416.646	331.19
417.09	349.91
417.534	312.46
417.978	352.25
418.421	275.01
418.865	298.42
419.309	298.42
419.752	307.78
420.196	328.85
420.639	312.46
421.083	305.44
421.526	366.29
421.969	333.53
422.412	275.01
422.856	354.59
423.299	314.8
423.742	340.55
424.185	328.85
424.628	284.38
425.071	347.57
425.513	342.89
425.956	359.27
426.399	340.55
426.842	307.78
427.284	378
427.727	408.42
428.169	378
428.612	326.5
429.054	272.67
429.497	354.59
429.939	258.63
430.381	317.14
430.823	291.4
431.265	359.27
431.707	333.53
432.149	314.8
432.591	370.97
433.033	349.91
433.475	312.46
433.917	399.06
434.359	258.63
434.8	272.67
435.242	354.59
435.684	312.46
436.125	366.29
436.567	366.29
437.008	396.72
437.449	389.7
437.891	345.23
438.332	326.5
438.773	326.5
439.214	335.87
439.656	291.4
440.097	314.8
440.538	342.89
440.978	342.89
441.419	366.29
441.86	298.42
442.301	277.35
442.742	305.44
443.182	267.99
443.623	331.19
444.063	286.72
444.504	394.38
444.944	366.29
445.385	389.7
445.825	321.82
446.265	370.97
446.706	340.55
447.146	214.16
447.586	352.25
448.026	363.95
448.466	300.76
448.906	331.19
449.346	277.35
449.786	356.93
450.225	347.57
450.665	317.14
451.105	354.59
451.544	338.21
451.984	359.27
452.424	326.5
452.863	356.93
453.302	380.34
453.742	406.08
454.181	382.68
454.62	328.85
455.059	293.74
455.499	272.67
455.938	363.95
456.377	296.08
456.816	335.87
457.254	387.36
457.693	326.5
458.132	324.16
458.571	342.89
459.01	310.12
459.448	378
459.887	375.66
460.325	366.29
460.764	333.53
461.202	349.91
461.641	363.95
462.079	321.82
462.517	293.74
462.955	361.61
463.393	354.59
463.832	352.25
464.27	289.06
464.708	349.91
465.145	361.61
465.583	277.35
466.021	352.25
466.459	333.53
466.897	326.5
467.334	272.67
467.772	300.76
468.209	305.44
468.647	286.72
469.084	296.08
469.522	260.97
469.959	321.82
470.396	342.89
470.833	263.31
471.271	342.89
471.708	314.8
472.145	275.01
472.582	366.29
473.019	345.23
473.456	324.16
473.892	319.48
474.329	335.87
474.766	368.63
475.202	375.66
475.639	361.61
476.076	349.91
476.512	394.38
476.949	382.68
477.385	363.95
477.821	319.48
478.258	307.78
478.694	279.69
479.13	356.93
479.566	314.8
480.002	303.1
480.438	370.97
480.874	324.16
481.31	349.91
481.746	263.31
482.181	345.23
482.617	319.48
483.053	370.97
483.488	340.55
483.924	275.01
484.36	305.44
484.795	359.27
485.23	291.4
485.666	275.01
486.101	359.27
486.536	385.02
486.971	307.78
487.407	303.1
487.842	340.55
488.277	359.27
488.712	331.19
489.146	338.21
489.581	326.5
490.016	363.95
490.451	349.91
490.885	349.91
491.32	354.59
491.755	338.21
492.189	385.02
492.624	307.78
493.058	298.42
493.492	282.03
493.927	331.19
494.361	368.63
494.795	338.21
495.229	399.06
495.663	359.27
496.097	359.27
496.531	363.95
496.965	331.19
497.399	328.85
497.833	270.33
498.266	265.65
498.7	375.66
499.134	354.59
499.567	354.59
500.001	375.66
500.434	373.32
500.868	284.38
501.301	319.48
501.734	347.57
502.168	321.82
502.601	352.25
503.034	293.74
503.467	270.33
503.9	354.59
504.333	321.82
504.766	286.72
505.199	293.74
505.632	300.76
506.064	375.66
506.497	321.82
506.93	319.48
507.362	303.1
507.795	293.74
508.227	312.46
508.66	312.46
509.092	345.23
509.524	378
509.956	434.17
510.389	354.59
510.821	359.27
511.253	314.8
511.685	340.55
512.117	363.95
512.549	356.93
512.981	307.78
513.412	310.12
513.844	246.93
514.276	272.67
514.707	326.5
515.139	300.76
515.571	373.32
516.002	378
516.433	349.91
516.865	347.57
517.296	303.1
517.727	403.74
518.159	321.82
518.59	363.95
519.021	340.55
519.452	331.19
519.883	312.46
520.314	293.74
520.744	342.89
521.175	289.06
521.606	317.14
522.037	307.78
522.467	298.42
522.898	258.63
523.328	300.76
523.759	389.7
524.189	296.08
524.62	328.85
525.05	342.89
525.48	317.14
525.91	300.76
526.341	389.7
526.771	368.63
527.201	347.57
527.631	319.48
528.061	317.14
528.49	328.85
528.92	359.27
529.35	335.87
529.78	293.74
530.209	286.72
530.639	354.59
531.068	307.78
531.498	394.38
531.927	284.38
532.357	328.85
532.786	305.44
533.215	347.57
533.644	284.38
534.074	312.46
534.503	293.74
534.932	338.21
535.361	349.91
535.79	312.46
536.218	335.87
536.647	312.46
537.076	335.87
537.505	307.78
537.933	359.27
538.362	356.93
538.79	349.91
539.219	338.21
539.647	314.8
540.076	387.36
540.504	382.68
540.932	326.5
541.36	326.5
541.788	342.89
542.217	289.06
542.645	282.03
543.073	300.76
543.5	296.08
543.928	356.93
544.356	310.12
544.784	331.19
545.211	349.91
545.639	296.08
546.067	321.82
546.494	363.95
546.922	387.36
547.349	368.63
547.776	361.61
548.204	373.32
548.631	328.85
549.058	335.87
549.485	340.55
549.912	314.8
550.339	328.85
550.766	392.04
551.193	366.29
551.62	293.74
552.047	267.99
552.474	382.68
552.9	328.85
553.327	378
553.754	275.01
554.18	333.53
554.607	253.95
555.033	335.87
555.459	368.63
555.886	307.78
556.312	305.44
556.738	331.19
557.164	356.93
557.59	354.59
558.016	328.85
558.442	319.48
558.868	326.5
559.294	298.42
559.72	286.72
560.145	326.5
560.571	326.5
560.997	338.21
561.422	263.31
561.848	370.97
562.273	347.57
562.699	286.72
563.124	307.78
563.549	373.32
563.974	338.21
564.4	317.14
564.825	361.61
565.25	380.34
565.675	300.76
566.1	368.63
566.525	352.25
566.95	347.57
567.374	347.57
567.799	378
568.224	340.55
568.648	352.25
569.073	345.23
569.497	284.38
569.922	331.19
570.346	307.78
570.771	417.79
571.195	375.66
571.619	378
572.043	345.23
572.467	366.29
572.891	333.53
573.315	373.32
573.739	293.74
574.163	347.57
574.587	326.5
575.011	324.16
575.435	286.72
575.858	275.01
576.282	331.19
576.705	328.85
577.129	314.8
577.552	422.47
577.976	354.59
578.399	317.14
578.822	312.46
579.245	370.97
579.669	378
580.092	314.8
580.515	253.95
580.938	345.23
581.361	356.93
581.784	265.65
582.206	305.44
582.629	340.55
583.052	319.48
583.474	345.23
583.897	378
584.32	342.89
584.742	317.14
585.165	317.14
585.587	277.35
586.009	307.78
586.431	352.25
586.854	328.85
587.276	352.25
587.698	319.48
588.12	347.57
588.542	347.57
588.964	335.87
589.386	305.44
589.807	326.5
590.229	317.14
590.651	326.5
591.073	310.12
591.494	282.03
591.916	338.21
592.337	300.76
592.759	328.85
593.18	378
593.601	345.23
594.022	359.27
594.444	317.14
594.865	368.63
595.286	349.91
595.707	291.4
596.128	317.14
596.549	310.12
596.97	345.23
597.39	359.27
597.811	307.78
598.232	324.16
598.652	298.42
599.073	305.44
599.494	312.46
599.914	338.21
600.334	333.53
600.755	305.44
601.175	342.89
601.595	256.29
602.015	368.63
602.436	310.12
602.856	464.6
603.276	356.93
603.696	382.68
604.115	345.23
604.535	340.55
604.955	352.25
605.375	289.06
605.794	300.76
606.214	314.8
606.634	354.59
607.053	361.61
607.473	300.76
607.892	223.52
608.311	319.48
608.731	361.61
609.15	333.53
609.569	284.38
609.988	389.7
610.407	354.59
610.826	342.89
611.245	361.61
611.664	373.32
612.083	305.44
612.501	300.76
612.92	286.72
613.339	338.21
613.757	356.93
614.176	328.85
614.594	312.46
615.013	385.02
615.431	349.91
615.85	349.91
616.268	335.87
616.686	354.59
617.104	359.27
617.522	307.78
617.94	335.87
618.358	328.85
618.776	300.76
619.194	303.1
619.612	310.12
620.03	324.16
620.447	284.38
620.865	312.46
621.282	349.91
621.7	363.95
622.117	328.85
622.535	317.14
622.952	331.19
623.369	298.42
623.787	300.76
624.204	321.82
624.621	328.85
625.038	368.63
625.455	296.08
625.872	289.06
626.289	331.19
626.706	303.1
627.123	256.29
627.539	319.48
627.956	267.99
628.373	298.42
628.789	321.82
629.206	317.14
629.622	275.01
630.038	253.95
630.455	286.72
630.871	335.87
631.287	272.67
631.703	326.5
632.12	289.06
632.536	352.25
632.952	296.08
633.368	256.29
633.783	296.08
634.199	319.48
634.615	333.53
635.031	342.89
635.446	340.55
635.862	333.53
636.277	326.5
636.693	328.85
637.108	286.72
637.524	345.23
637.939	300.76
638.354	338.21
638.77	317.14
639.185	319.48
639.6	310.12
640.015	317.14
640.43	368.63
640.845	366.29
641.259	340.55
641.674	298.42
642.089	263.31
642.504	363.95
642.918	387.36
643.333	326.5
643.747	333.53
644.162	331.19
644.576	356.93
644.991	349.91
645.405	347.57
645.819	300.76
646.233	303.1
646.647	303.1
647.061	331.19
647.475	326.5
647.889	303.1
648.303	246.93
648.717	359.27
649.131	321.82
649.545	300.76
649.958	331.19
650.372	345.23
650.785	335.87
651.199	284.38
651.612	335.87
652.026	335.87
652.439	333.53
652.852	356.93
653.266	321.82
653.679	324.16
654.092	314.8
654.505	366.29
654.918	340.55
655.331	331.19
655.744	394.38
656.156	272.67
656.569	335.87
656.982	321.82
657.394	321.82
657.807	317.14
658.22	303.1
658.632	347.57
659.044	246.93
659.457	373.32
659.869	361.61
660.281	331.19
660.693	331.19
661.106	359.27
661.518	314.8
661.93	333.53
662.342	345.23
662.754	331.19
663.165	354.59
663.577	282.03
663.989	305.44
664.401	324.16
664.812	349.91
665.224	319.48
665.635	429.49
666.047	338.21
666.458	338.21
666.869	331.19
667.281	340.55
667.692	310.12
668.103	317.14
668.514	326.5
668.925	289.06
669.336	378
669.747	289.06
670.158	333.53
670.569	361.61
670.979	286.72
671.39	317.14
671.801	305.44
672.211	300.76
672.622	389.7
673.032	249.27
673.443	300.76
673.853	263.31
674.263	326.5
674.674	347.57
675.084	291.4
675.494	396.72
675.904	373.32
676.314	356.93
676.724	275.01
677.134	326.5
677.544	307.78
677.953	296.08
678.363	335.87
678.773	349.91
679.182	338.21
679.592	333.53
680.001	328.85
680.411	356.93
680.82	396.72
681.23	326.5
681.639	319.48
682.048	387.36
682.457	368.63
682.866	363.95
683.275	282.03
683.684	303.1
684.093	275.01
684.502	307.78
684.911	314.8
685.32	303.1
685.728	303.1
686.137	349.91
686.546	333.53
686.954	296.08
687.363	359.27
687.771	354.59
688.179	307.78
688.588	310.12
688.996	291.4
689.404	256.29
689.812	296.08
690.22	352.25
690.628	340.55
691.036	340.55
691.444	260.97
691.852	370.97
692.26	375.66
692.667	331.19
693.075	326.5
693.483	324.16
693.89	352.25
694.298	312.46
694.705	354.59
695.112	342.89
695.52	352.25
695.927	296.08
696.334	368.63
696.741	338.21
697.148	375.66
697.555	328.85
697.962	324.16
698.369	317.14
698.776	392.04
699.183	307.78
699.59	275.01
699.996	314.8
700.403	225.86
700.81	286.72
701.216	263.31
701.623	326.5
702.029	347.57
702.435	232.88
702.842	370.97
703.248	335.87
703.654	347.57
704.06	293.74
704.466	324.16
704.872	272.67
705.278	342.89
705.684	279.69
706.09	307.78
706.496	347.57
706.901	279.69
707.307	314.8
707.712	305.44
708.118	328.85
708.523	335.87
708.929	328.85
709.334	342.89
709.74	333.53
710.145	251.61
710.55	249.27
710.955	289.06
711.36	370.97
711.765	291.4
712.17	286.72
712.575	324.16
712.98	857.81
713.385	338.21
713.789	312.46
714.194	324.16
714.599	272.67
715.003	324.16
715.408	298.42
715.812	378
716.217	291.4
716.621	326.5
717.025	258.63
717.429	356.93
717.833	289.06
718.238	260.97
718.642	338.21
719.046	305.44
719.449	312.46
719.853	310.12
720.257	319.48
720.661	307.78
721.065	347.57
721.468	293.74
721.872	345.23
722.275	317.14
722.679	361.61
723.082	321.82
723.485	340.55
723.889	314.8
724.292	282.03
724.695	291.4
725.098	392.04
725.501	349.91
725.904	277.35
726.307	349.91
726.71	340.55
727.113	338.21
727.516	321.82
727.918	338.21
728.321	270.33
728.724	265.65
729.126	289.06
729.529	307.78
729.931	321.82
730.333	300.76
730.736	331.19
731.138	314.8
731.54	352.25
731.942	335.87
732.344	317.14
732.746	265.65
733.148	291.4
733.55	300.76
733.952	328.85
734.354	338.21
734.756	326.5
735.157	251.61
735.559	265.65
735.96	345.23
736.362	368.63
736.763	385.02
737.165	296.08
737.566	340.55
737.967	342.89
738.368	387.36
738.77	312.46
739.171	361.61
739.572	298.42
739.973	342.89
740.374	307.78
740.774	326.5
741.175	328.85
741.576	352.25
741.977	342.89
742.377	286.72
742.778	375.66
743.178	256.29
743.579	314.8
743.979	333.53
744.379	366.29
744.78	349.91
745.18	326.5
745.58	282.03
745.98	356.93
746.38	340.55
746.78	307.78
747.18	314.8
747.58	321.82
747.98	293.74
748.38	326.5
748.779	324.16
749.179	356.93
749.578	368.63
749.978	307.78
750.377	310.12
750.777	319.48
751.176	298.42
751.575	307.78
751.975	333.53
752.374	424.81
752.773	335.87
753.172	253.95
753.571	314.8
753.97	310.12
754.369	340.55
754.768	366.29
755.166	298.42
755.565	333.53
755.964	298.42
756.362	331.19
756.761	279.69
757.159	244.59
757.558	324.16
757.956	263.31
758.354	354.59
758.753	366.29
759.151	303.1
759.549	282.03
759.947	331.19
760.345	342.89
760.743	298.42
761.141	345.23
761.539	331.19
761.936	317.14
762.334	324.16
762.732	314.8
763.129	291.4
763.527	363.95
763.924	445.87
764.322	380.34
764.719	305.44
765.117	382.68
765.514	282.03
765.911	239.9
766.308	305.44
766.705	286.72
767.102	333.53
767.499	326.5
767.896	347.57
768.293	333.53
768.69	310.12
769.086	314.8
769.483	342.89
769.88	223.52
770.276	380.34
770.673	378
771.069	422.47
771.466	286.72
771.862	342.89
772.258	300.76
772.654	349.91
773.05	345.23
773.447	291.4
773.843	282.03
774.239	326.5
774.634	340.55
775.03	347.57
775.426	307.78
775.822	293.74
776.218	366.29
776.613	345.23
777.009	331.19
777.404	314.8
777.8	289.06
778.195	265.65
778.59	342.89
778.986	368.63
779.381	286.72
779.776	296.08
780.171	349.91
780.566	342.89
780.961	349.91
781.356	361.61
781.751	310.12
782.146	340.55
782.54	385.02
782.935	331.19
783.33	403.74
783.724	359.27
784.119	349.91
784.513	293.74
784.908	312.46
785.302	359.27
785.696	368.63
786.09	438.85
786.485	349.91
786.879	462.26
787.273	275.01
787.667	251.61
788.061	324.16
788.454	293.74
788.848	321.82
789.242	321.82
789.636	296.08
790.029	258.63
790.423	298.42
790.816	359.27
791.21	382.68
791.603	291.4
791.997	328.85
792.39	319.48
792.783	321.82
793.176	291.4
793.569	331.19
793.962	331.19
794.355	349.91
794.748	345.23
795.141	359.27
795.534	312.46
795.927	298.42
796.319	335.87
796.712	324.16
797.105	293.74
797.497	373.32
797.89	342.89
798.282	305.44
798.674	352.25
799.067	335.87
799.459	314.8
799.851	328.85
800.243	211.82
800.635	300.76
801.027	370.97
801.419	394.38
801.811	378
802.203	310.12
802.594	321.82
802.986	300.76
803.378	270.33
803.769	331.19
804.161	284.38
804.552	303.1
804.944	345.23
805.335	286.72
805.726	335.87
806.118	349.91
806.509	237.56
806.9	361.61
807.291	347.57
807.682	328.85
808.073	312.46
808.464	363.95
808.855	328.85
809.245	345.23
809.636	317.14
810.027	242.25
810.417	253.95
810.808	354.59
811.198	310.12
811.589	347.57
811.979	408.42
812.369	321.82
812.759	291.4
813.15	335.87
813.54	335.87
813.93	342.89
814.32	410.76
814.71	345.23
815.1	333.53
815.489	328.85
815.879	244.59
816.269	310.12
816.658	342.89
817.048	361.61
817.438	359.27
817.827	335.87
818.216	321.82
818.606	296.08
818.995	361.61
819.384	293.74
819.773	324.16
820.163	340.55
820.552	366.29
820.941	356.93
821.33	331.19
821.718	347.57
822.107	345.23
822.496	289.06
822.885	340.55
823.273	321.82
823.662	321.82
824.05	333.53
824.439	305.44
824.827	345.23
825.216	289.06
825.604	354.59
825.992	319.48
826.38	328.85
826.768	296.08
827.156	296.08
827.544	300.76
827.932	340.55
828.32	331.19
828.708	370.97
829.096	282.03
829.483	298.42
829.871	303.1
830.259	359.27
830.646	286.72
831.034	326.5
831.421	282.03
831.808	345.23
832.196	335.87
832.583	305.44
832.97	296.08
833.357	298.42
833.744	347.57
834.131	347.57
834.518	286.72
834.905	314.8
835.292	263.31
835.678	260.97
836.065	312.46
836.452	333.53
836.838	361.61
837.225	354.59
837.611	328.85
837.998	289.06
838.384	296.08
838.77	347.57
839.157	291.4
839.543	373.32
839.929	338.21
840.315	310.12
840.701	275.01
841.087	335.87
841.473	319.48
841.858	331.19
842.244	345.23
842.63	317.14
843.015	356.93
843.401	560.56
843.787	396.72
844.172	347.57
844.557	277.35
844.943	279.69
845.328	319.48
845.713	289.06
846.098	335.87
846.483	338.21
846.868	347.57
847.253	340.55
847.638	249.27
848.023	347.57
848.408	265.65
848.793	340.55
849.177	317.14
849.562	333.53
849.947	331.19
850.331	293.74
850.715	340.55
851.1	324.16
851.484	291.4
851.868	321.82
852.253	307.78
852.637	359.27
853.021	300.76
853.405	326.5
853.789	340.55
854.173	366.29
854.557	284.38
854.94	293.74
855.324	296.08
855.708	279.69
856.091	289.06
856.475	209.48
856.858	293.74
857.242	314.8
857.625	361.61
858.009	314.8
858.392	312.46
858.775	251.61
859.158	305.44
859.541	399.06
859.924	385.02
860.307	331.19
860.69	263.31
861.073	328.85
861.456	328.85
861.838	312.46
862.221	359.27
862.604	359.27
862.986	260.97
863.369	359.27
863.751	326.5
864.133	335.87
864.516	270.33
864.898	361.61
865.28	335.87
865.662	366.29
866.044	324.16
866.426	286.72
866.808	296.08
867.19	356.93
867.572	349.91
867.954	333.53
868.336	389.7
868.717	333.53
869.099	270.33
869.48	312.46
869.862	394.38
870.243	300.76
870.625	328.85
871.006	338.21
871.387	279.69
871.768	293.74
872.149	335.87
872.53	284.38
872.911	326.5
873.292	328.85
873.673	265.65
874.054	286.72
874.435	275.01
874.815	328.85
875.196	354.59
875.577	289.06
875.957	314.8
876.338	321.82
876.718	260.97
877.098	305.44
877.479	310.12
877.859	342.89
878.239	289.06
878.619	333.53
878.999	338.21
879.379	331.19
879.759	389.7
880.139	319.48
880.519	333.53
880.898	279.69
881.278	326.5
881.658	324.16
882.037	331.19
882.417	310.12
882.796	291.4
883.176	282.03
883.555	300.76
883.934	326.5
884.313	373.32
884.693	335.87
885.072	284.38
885.451	293.74
885.83	319.48
886.209	310.12
886.587	272.67
886.966	326.5
887.345	326.5
887.724	289.06
888.102	293.74
888.481	396.72
888.859	342.89
889.238	338.21
889.616	324.16
889.994	331.19
890.373	307.78
890.751	314.8
891.129	335.87
891.507	310.12
891.885	321.82
892.263	361.61
892.641	333.53
893.019	333.53
893.396	363.95
893.774	317.14
894.152	380.34
894.529	282.03
894.907	356.93
895.284	305.44
895.662	249.27
896.039	314.8
896.416	232.88
896.794	298.42
897.171	291.4
897.548	319.48
897.925	239.9
898.302	277.35
898.679	296.08
899.056	340.55
899.433	307.78
899.809	333.53
900.186	324.16
900.563	319.48
900.939	345.23
901.316	342.89
901.692	310.12
902.069	319.48
902.445	349.91
902.821	352.25
903.197	352.25
903.574	293.74
903.95	270.33
904.326	317.14
904.702	291.4
905.078	338.21
905.454	354.59
905.829	305.44
906.205	347.57
906.581	326.5
906.956	232.88
907.332	305.44
907.707	291.4
908.083	321.82
908.458	314.8
908.833	352.25
909.209	310.12
909.584	312.46
909.959	331.19
910.334	370.97
910.709	352.25
911.084	307.78
911.459	373.32
911.834	303.1
912.209	310.12
912.583	366.29
912.958	338.21
913.333	277.35
913.707	340.55
914.082	307.78
914.456	331.19
914.83	368.63
915.205	347.57
915.579	363.95
915.953	342.89
916.327	363.95
916.701	321.82
917.075	307.78
917.449	300.76
917.823	380.34
918.197	333.53
918.571	326.5
918.944	333.53
919.318	354.59
919.692	356.93
920.065	370.97
920.438	277.35
920.812	342.89
921.185	310.12
921.558	317.14
921.932	338.21
922.305	342.89
922.678	305.44
923.051	312.46
923.424	324.16
923.797	307.78
924.17	277.35
924.542	296.08
924.915	279.69
925.288	310.12
925.661	258.63
926.033	380.34
926.406	347.57
926.778	333.53
927.15	331.19
927.523	366.29
927.895	286.72
928.267	359.27
928.639	282.03
929.011	298.42
929.383	326.5
929.755	328.85
930.127	363.95
930.499	345.23
930.871	338.21
931.242	328.85
931.614	349.91
931.986	375.66
932.357	286.72
932.729	340.55
933.1	303.1
933.471	335.87
933.843	359.27
934.214	291.4
934.585	284.38
934.956	293.74
935.327	324.16
935.698	303.1
936.069	303.1
936.44	293.74
936.811	368.63
937.182	366.29
937.552	335.87
937.923	293.74
938.293	340.55
938.664	340.55
939.034	331.19
939.405	296.08
939.775	289.06
940.145	312.46
940.516	326.5
940.886	331.19
941.256	319.48
941.626	291.4
941.996	331.19
942.366	319.48
942.735	363.95
943.105	275.01
943.475	242.25
943.845	256.29
944.214	321.82
944.584	324.16
944.953	275.01
945.323	319.48
945.692	298.42
946.061	321.82
946.43	413.1
946.8	289.06
947.169	331.19
947.538	286.72
947.907	289.06
948.276	265.65
948.645	291.4
949.013	335.87
949.382	328.85
949.751	267.99
950.119	293.74
950.488	368.63
950.857	305.44
951.225	359.27
951.593	380.34
951.962	307.78
952.33	349.91
952.698	310.12
953.066	265.65
953.434	328.85
953.802	385.02
954.17	284.38
954.538	349.91
954.906	293.74
955.274	293.74
955.642	335.87
956.009	293.74
956.377	321.82
956.744	373.32
957.112	331.19
957.479	338.21
957.847	363.95
958.214	382.68
958.581	338.21
958.948	331.19
959.315	368.63
959.683	361.61
960.05	338.21
960.416	359.27
960.783	279.69
961.15	326.5
961.517	310.12
961.884	246.93
962.25	321.82
962.617	347.57
962.983	338.21
963.35	303.1
963.716	335.87
964.082	331.19
964.449	312.46
964.815	312.46
965.181	321.82
965.547	319.48
965.913	275.01
966.279	298.42
966.645	321.82
967.011	326.5
967.377	335.87
967.742	307.78
968.108	319.48
968.474	331.19
968.839	310.12
969.205	380.34
969.57	282.03
969.935	335.87
970.301	335.87
970.666	349.91
971.031	338.21
971.396	312.46
971.761	408.42
972.126	347.57
972.491	293.74
972.856	382.68
973.221	237.56
973.586	319.48
973.95	275.01
974.315	326.5
974.679	347.57
975.044	345.23
975.408	275.01
975.773	317.14
976.137	314.8
976.501	307.78
976.866	333.53
977.23	307.78
977.594	291.4
977.958	324.16
978.322	300.76
978.686	347.57
979.049	305.44
979.413	298.42
979.777	342.89
980.141	387.36
980.504	340.55
980.868	366.29
981.231	319.48
981.595	300.76
981.958	326.5
982.321	326.5
982.684	349.91
983.048	354.59
983.411	251.61
983.774	267.99
984.137	300.76
984.5	307.78
984.862	347.57
985.225	310.12
985.588	324.16
985.951	275.01
986.313	314.8
986.676	321.82
987.038	340.55
987.401	249.27
987.763	335.87
988.125	305.44
988.488	363.95
988.85	279.69
989.212	319.48
989.574	319.48
989.936	286.72
990.298	314.8
990.66	310.12
991.022	340.55
991.383	312.46
991.745	305.44
992.107	305.44
992.468	359.27
992.83	279.69
993.191	303.1
993.553	403.74
993.914	319.48
994.275	289.06
994.637	324.16
994.998	312.46
995.359	275.01
995.72	345.23
996.081	305.44
996.442	282.03
996.803	303.1
997.163	298.42
997.524	314.8
997.885	328.85
998.245	345.23
998.606	349.91
998.966	361.61
999.327	305.44
999.687	232.88
1000.047	361.61
1000.408	349.91
1000.768	338.21
1001.128	296.08
1001.488	300.76
1001.848	324.16
1002.208	298.42
1002.568	354.59
1002.927	291.4
1003.287	317.14
1003.647	366.29
1004.007	296.08
1004.366	272.67
1004.726	298.42
1005.085	347.57
1005.444	307.78
1005.804	375.66
1006.163	256.29
1006.522	324.16
1006.881	279.69
1007.24	310.12
1007.599	317.14
1007.958	340.55
1008.317	277.35
1008.676	305.44
1009.035	340.55
1009.393	310.12
1009.752	317.14
1010.111	385.02
1010.469	333.53
1010.828	270.33
1011.186	284.38
1011.544	324.16
1011.903	326.5
1012.261	305.44
1012.619	314.8
1012.977	326.5
1013.335	333.53
1013.693	286.72
1014.051	310.12
1014.409	253.95
1014.767	370.97
1015.124	338.21
1015.482	413.1
1015.84	270.33
1016.197	373.32
1016.555	272.67
1016.912	349.91
1017.269	354.59
1017.627	328.85
1017.984	310.12
1018.341	335.87
1018.698	265.65
1019.055	300.76
1019.412	275.01
1019.769	293.74
1020.126	342.89
1020.483	312.46
1020.84	378
1021.196	303.1
1021.553	368.63
1021.909	361.61
1022.266	326.5
1022.622	246.93
1022.979	321.82
1023.335	378
1023.691	300.76
1024.047	333.53
1024.404	303.1
1024.76	279.69
1025.116	312.46
1025.472	349.91
1025.827	366.29
1026.183	359.27
1026.539	319.48
1026.895	368.63
1027.25	373.32
1027.606	293.74
1027.961	354.59
1028.317	331.19
1028.672	293.74
1029.028	267.99
1029.383	312.46
1029.738	296.08
1030.093	251.61
1030.448	349.91
1030.803	324.16
1031.158	326.5
1031.513	338.21
1031.868	333.53
1032.223	331.19
1032.577	361.61
1032.932	296.08
1033.287	368.63
1033.641	305.44
1033.996	284.38
1034.35	338.21
1034.704	291.4
1035.059	317.14
1035.413	356.93
1035.767	356.93
1036.121	356.93
