Data from Al_FLMS009871__1165__16-38-02-387.txt Node

Date: Fri Mar 08 16:38:02 CST 2024
User: pe5414po
Spectrometer: FLMS00987
Trigger mode: 0
Integration Time (sec): 1.000000E-1
Scans to average: 1
Electric dark correction enabled: true
Nonlinearity correction enabled: false
Boxcar width: 0
XAxis mode: Wavelengths
Number of Pixels in Spectrum: 2048
>>>>>Begin Spectral Data<<<<<
188.938	25.75
189.409	25.75
189.879	25.75
190.349	-86.6
190.819	-93.62
191.29	-93.62
191.76	-107.66
192.23	-131.07
192.7	-74.9
193.17	-58.51
193.64	2.34
194.109	-112.35
194.579	-21.06
195.049	7.02
195.519	-9.36
195.988	30.43
196.458	44.47
196.927	93.62
197.397	107.66
197.866	152.13
198.336	170.86
198.805	187.24
199.274	198.95
199.744	145.11
200.213	339.38
200.682	311.29
201.151	306.61
201.62	315.97
202.089	374.49
202.558	442.36
203.027	470.45
203.495	543
203.964	430.66
204.433	442.36
204.902	442.36
205.37	400.23
205.839	461.09
206.307	447.04
206.776	461.09
207.244	526.62
207.712	575.77
208.181	624.92
208.649	571.09
209.117	578.11
209.585	676.41
210.053	678.76
210.521	748.97
210.989	676.41
211.457	880.04
211.925	924.51
212.393	1029.84
212.861	971.32
213.328	915.15
213.796	779.4
214.264	702.16
214.731	741.95
215.199	720.89
215.666	641.31
216.133	816.85
216.601	924.51
217.068	1111.75
217.535	1088.35
218.003	1394.96
218.47	1598.59
218.937	1479.22
219.404	1132.82
219.871	1177.29
220.338	1373.89
220.805	1362.19
221.271	1135.16
221.738	961.96
222.205	940.9
222.671	861.32
223.138	1090.69
223.605	1322.4
224.071	1235.8
224.538	1100.05
225.004	1036.86
225.47	1273.25
225.937	1439.43
226.403	1472.2
226.869	1212.4
227.335	767.7
227.801	676.41
228.267	538.32
228.733	620.24
229.199	561.73
229.665	564.07
230.131	601.52
230.597	660.03
231.062	653.01
231.528	624.92
231.994	685.78
232.459	564.07
232.925	571.09
233.39	580.45
233.856	463.43
234.321	629.6
234.786	798.12
235.252	1130.48
235.717	2033.93
236.182	2874.18
236.647	3283.77
237.112	2562.89
237.577	1671.14
238.042	947.92
238.507	770.04
238.972	589.82
239.436	599.18
239.901	641.31
240.366	676.41
240.83	587.47
241.295	512.58
241.76	568.75
242.224	538.32
242.688	550.03
243.153	547.69
243.617	543
244.081	566.41
244.545	514.92
245.01	543
245.474	496.19
245.938	629.6
246.402	645.99
246.866	629.6
247.33	718.54
247.793	681.1
248.257	587.47
248.721	596.84
249.185	596.84
249.648	608.54
250.112	641.31
250.575	589.82
251.039	744.29
251.502	730.25
251.965	690.46
252.429	702.16
252.892	629.6
253.355	664.71
253.818	681.1
254.281	702.16
254.744	774.72
255.207	882.38
255.67	1289.64
256.133	1806.89
256.596	2455.22
257.059	2565.23
257.522	2160.31
257.984	1446.45
258.447	1158.57
258.909	1228.78
259.372	1322.4
259.834	1249.85
260.297	1086.01
260.759	1043.88
261.221	858.98
261.684	1186.65
262.146	1811.57
262.608	2282.02
263.07	2059.67
263.532	1511.99
263.994	1015.79
264.456	1076.65
264.918	1137.5
265.38	1327.08
265.842	1109.41
266.303	959.62
266.765	695.14
267.227	528.96
267.688	622.58
268.15	594.5
268.611	613.22
269.072	624.92
269.534	660.03
269.995	655.35
270.456	720.89
270.918	650.67
271.379	664.71
271.84	603.86
272.301	564.07
272.762	629.6
273.223	622.58
273.684	620.24
274.144	702.16
274.605	723.23
275.066	713.86
275.527	674.07
275.987	746.63
276.448	835.57
276.908	868.34
277.369	1078.99
277.829	1659.44
278.289	3468.67
278.75	6237.53
279.21	8322.94
279.67	8503.17
280.13	6345.19
280.59	4189.56
281.05	3559.95
281.51	3082.49
281.97	2094.78
282.43	931.53
282.89	711.52
283.35	667.05
283.809	685.78
284.269	870.68
284.729	1090.69
285.188	1125.8
285.648	891.74
286.107	587.47
286.567	582.79
287.026	557.05
287.485	596.84
287.944	667.05
288.404	767.7
288.863	695.14
289.322	702.16
289.781	706.84
290.24	690.46
290.699	606.2
291.158	638.97
291.616	699.82
292.075	842.59
292.534	1006.43
292.992	1132.82
293.451	1177.29
293.91	1062.6
294.368	901.11
294.827	763.01
295.285	788.76
295.743	589.82
296.202	486.83
296.66	554.71
297.118	482.15
297.576	498.53
298.034	507.9
298.492	521.94
298.95	456.4
299.408	486.83
299.866	456.4
300.324	456.4
300.781	472.79
301.239	454.06
301.697	479.81
302.154	500.87
302.612	510.24
303.069	547.69
303.527	510.24
303.984	582.79
304.441	702.16
304.899	758.33
305.356	987.71
305.813	1029.84
306.27	1027.5
306.727	1359.85
307.184	2019.88
307.641	3847.84
308.098	5638.35
308.555	6890.54
309.012	7468.65
309.468	6235.19
309.925	3213.56
310.382	1144.52
310.838	709.18
311.295	627.26
311.751	606.2
312.208	554.71
312.664	545.34
313.12	538.32
313.577	554.71
314.033	519.6
314.489	531.3
314.945	568.75
315.401	603.86
315.857	573.43
316.313	594.5
316.769	482.15
317.225	482.15
317.681	472.79
318.136	423.64
318.592	435.34
319.048	360.44
319.503	421.3
319.959	411.93
320.414	437.68
320.869	435.34
321.325	449.38
321.78	512.58
322.235	493.85
322.691	421.3
323.146	514.92
323.601	582.79
324.056	753.65
324.511	936.21
324.966	1027.5
325.421	882.38
325.875	624.92
326.33	561.73
326.785	657.69
327.24	866
327.694	919.83
328.149	725.57
328.603	498.53
329.058	479.81
329.512	449.38
329.966	465.77
330.421	421.3
330.875	437.68
331.329	451.72
331.783	489.17
332.237	543
332.691	526.62
333.145	575.77
333.599	540.66
334.053	559.39
334.507	564.07
334.96	634.29
335.414	669.39
335.868	613.22
336.321	697.48
336.775	760.67
337.228	748.97
337.682	561.73
338.135	472.79
338.588	575.77
339.042	498.53
339.495	418.96
339.948	437.68
340.401	449.38
340.854	472.79
341.307	465.77
341.76	440.02
342.213	416.62
342.666	451.72
343.119	444.7
343.571	538.32
344.024	550.03
344.477	482.15
344.929	507.9
345.382	524.28
345.834	454.06
346.287	440.02
346.739	482.15
347.191	484.49
347.644	456.4
348.096	519.6
348.548	512.58
349	524.28
349.452	477.47
349.904	514.92
350.356	505.56
350.808	496.19
351.26	489.17
351.711	470.45
352.163	489.17
352.615	512.58
353.066	587.47
353.518	582.79
353.969	578.11
354.421	564.07
354.872	557.05
355.324	585.13
355.775	629.6
356.226	748.97
356.677	849.61
357.128	1132.82
357.579	1689.87
358.03	2820.35
358.481	4571.07
358.932	5406.64
359.383	4079.55
359.834	2925.67
360.285	3063.76
360.735	2764.17
361.186	2143.93
361.637	1685.19
362.087	1039.2
362.538	615.56
362.988	550.03
363.438	592.16
363.889	433
364.339	550.03
364.789	613.22
365.239	599.18
365.689	601.52
366.139	587.47
366.589	561.73
367.039	561.73
367.489	456.4
367.939	578.11
368.389	524.28
368.839	507.9
369.288	568.75
369.738	631.94
370.187	819.19
370.637	887.06
371.086	952.6
371.536	964.3
371.985	851.95
372.434	725.57
372.884	575.77
373.333	599.18
373.782	568.75
374.231	554.71
374.68	547.69
375.129	552.37
375.578	484.49
376.027	543
376.475	526.62
376.924	533.64
377.373	526.62
377.822	416.62
378.27	498.53
378.719	493.85
379.167	479.81
379.616	540.66
380.064	491.51
380.512	554.71
380.961	571.09
381.409	606.2
381.857	566.41
382.305	683.44
382.753	727.91
383.201	929.19
383.649	1020.47
384.097	959.62
384.545	784.08
384.992	650.67
385.44	568.75
385.888	653.01
386.335	561.73
386.783	603.86
387.231	524.28
387.678	594.5
388.125	571.09
388.573	596.84
389.02	547.69
389.467	521.94
389.914	543
390.362	564.07
390.809	585.13
391.256	617.9
391.703	631.94
392.15	620.24
392.596	732.59
393.043	1043.88
393.49	1734.34
393.937	3108.23
394.383	5071.94
394.83	5989.43
395.276	4896.4
395.723	4683.41
396.169	7112.89
396.616	7405.45
397.062	4470.42
397.508	1729.66
397.954	924.51
398.401	613.22
398.847	610.88
399.293	678.76
399.739	622.58
400.185	697.48
400.631	589.82
401.076	545.34
401.522	510.24
401.968	585.13
402.414	533.64
402.859	657.69
403.305	620.24
403.75	758.33
404.196	739.61
404.641	727.91
405.086	648.33
405.532	624.92
405.977	657.69
406.422	667.05
406.867	613.22
407.312	638.97
407.757	706.84
408.202	620.24
408.647	634.29
409.092	655.35
409.537	620.24
409.982	613.22
410.426	643.65
410.871	631.94
411.316	592.16
411.76	578.11
412.205	655.35
412.649	650.67
413.093	706.84
413.538	695.14
413.982	795.78
414.426	718.54
414.87	814.51
415.314	884.72
415.758	999.41
416.202	873.02
416.646	748.97
417.09	723.23
417.534	744.29
417.978	725.57
418.421	671.73
418.865	643.65
419.309	592.16
419.752	627.26
420.196	510.24
420.639	566.41
421.083	566.41
421.526	601.52
421.969	596.84
422.412	510.24
422.856	617.9
423.299	645.99
423.742	634.29
424.185	645.99
424.628	561.73
425.071	503.22
425.513	582.79
425.956	571.09
426.399	418.96
426.842	503.22
427.284	547.69
427.727	606.2
428.169	465.77
428.612	458.74
429.054	482.15
429.497	482.15
429.939	486.83
430.381	444.7
430.823	475.13
431.265	472.79
431.707	449.38
432.149	442.36
432.591	440.02
433.033	538.32
433.475	440.02
433.917	479.81
434.359	507.9
434.8	517.26
435.242	552.37
435.684	554.71
436.125	564.07
436.567	437.68
437.008	559.39
437.449	479.81
437.891	526.62
438.332	521.94
438.773	543
439.214	514.92
439.656	498.53
440.097	554.71
440.538	533.64
440.978	531.3
441.419	624.92
441.86	550.03
442.301	568.75
442.742	578.11
443.182	599.18
443.623	674.07
444.063	613.22
444.504	580.45
444.944	795.78
445.385	676.41
445.825	779.4
446.265	894.08
446.706	952.6
447.146	1135.16
447.586	1401.98
448.026	1640.72
448.466	1778.81
448.906	1741.36
449.346	1270.91
449.786	992.39
450.225	1069.62
450.665	1036.86
451.105	1139.84
451.544	1586.88
451.984	1678.16
452.424	1668.8
452.863	1736.68
453.302	2251.6
453.742	2162.65
454.181	1519.01
454.62	994.73
455.059	725.57
455.499	655.35
455.938	578.11
456.377	596.84
456.816	610.88
457.254	505.56
457.693	559.39
458.132	468.11
458.571	538.32
459.01	503.22
459.448	507.9
459.887	514.92
460.325	461.09
460.764	463.43
461.202	566.41
461.641	587.47
462.079	503.22
462.517	573.43
462.955	641.31
463.393	580.45
463.832	678.76
464.27	669.39
464.708	681.1
465.145	571.09
465.583	671.73
466.021	720.89
466.459	898.77
466.897	1128.14
467.334	966.64
467.772	674.07
468.209	606.2
468.647	507.9
469.084	533.64
469.522	531.3
469.959	484.49
470.396	500.87
470.833	587.47
471.271	493.85
471.708	449.38
472.145	482.15
472.582	440.02
473.019	538.32
473.456	500.87
473.892	517.26
474.329	444.7
474.766	465.77
475.202	486.83
475.639	435.34
476.076	479.81
476.512	468.11
476.949	524.28
477.385	489.17
477.821	477.47
478.258	507.9
478.694	489.17
479.13	545.34
479.566	503.22
480.002	493.85
480.438	517.26
480.874	545.34
481.31	531.3
481.746	514.92
482.181	407.25
482.617	540.66
483.053	433
483.488	514.92
483.924	461.09
484.36	543
484.795	580.45
485.23	592.16
485.666	615.56
486.101	685.78
486.536	746.63
486.971	638.97
487.407	667.05
487.842	664.71
488.277	610.88
488.712	505.56
489.146	550.03
489.581	606.2
490.016	517.26
490.451	550.03
490.885	545.34
491.32	524.28
491.755	613.22
492.189	592.16
492.624	543
493.058	550.03
493.492	596.84
493.927	543
494.361	479.81
494.795	573.43
495.229	519.6
495.663	543
496.097	493.85
496.531	503.22
496.965	498.53
497.399	463.43
497.833	433
498.266	514.92
498.7	538.32
499.134	587.47
499.567	683.44
500.001	788.76
500.434	858.98
500.868	926.85
501.301	973.66
501.734	873.02
502.168	582.79
502.601	674.07
503.034	540.66
503.467	554.71
503.9	559.39
504.333	615.56
504.766	465.77
505.199	617.9
505.632	465.77
506.064	552.37
506.497	514.92
506.93	561.73
507.362	578.11
507.795	580.45
508.227	526.62
508.66	493.85
509.092	554.71
509.524	528.96
509.956	545.34
510.389	610.88
510.821	524.28
511.253	615.56
511.685	524.28
512.117	564.07
512.549	503.22
512.981	535.98
513.412	603.86
513.844	582.79
514.276	624.92
514.707	631.94
515.139	676.41
515.571	631.94
516.002	648.33
516.433	660.03
516.865	678.76
517.296	713.86
517.727	851.95
518.159	891.74
518.59	908.13
519.021	866
519.452	774.72
519.883	732.59
520.314	587.47
520.744	606.2
521.175	552.37
521.606	636.63
522.037	629.6
522.467	627.26
522.898	678.76
523.328	624.92
523.759	559.39
524.189	629.6
524.62	667.05
525.05	664.71
525.48	603.86
525.91	622.58
526.341	732.59
526.771	704.5
527.201	737.27
527.631	753.65
528.061	842.59
528.49	840.25
528.92	1046.22
529.35	1338.79
529.78	2724.38
530.209	12566.34
530.639	30576.76
531.068	47480.11
531.498	63042.33
531.927	63042.33
532.357	63042.33
532.786	63042.33
533.215	63042.33
533.644	39129.08
534.074	14930.28
534.503	6118.16
534.932	2878.86
535.361	1586.88
535.79	1104.73
536.218	903.45
536.647	786.42
537.076	641.31
537.505	645.99
537.933	592.16
538.362	608.54
538.79	526.62
539.219	528.96
539.647	503.22
540.076	498.53
540.504	550.03
540.932	428.32
541.36	524.28
541.788	468.11
542.217	582.79
542.645	491.51
543.073	477.47
543.5	451.72
543.928	517.26
544.356	433
544.784	486.83
545.211	503.22
545.639	479.81
546.067	521.94
546.494	503.22
546.922	521.94
547.349	430.66
547.776	493.85
548.204	402.57
548.631	407.25
549.058	482.15
549.485	470.45
549.912	496.19
550.339	479.81
550.766	430.66
551.193	435.34
551.62	400.23
552.047	418.96
552.474	442.36
552.9	451.72
553.327	472.79
553.754	449.38
554.18	496.19
554.607	465.77
555.033	451.72
555.459	472.79
555.886	507.9
556.312	418.96
556.738	463.43
557.164	461.09
557.59	444.7
558.016	456.4
558.442	440.02
558.868	580.45
559.294	606.2
559.72	734.93
560.145	805.14
560.571	765.36
560.997	606.2
561.422	547.69
561.848	538.32
562.273	447.04
562.699	477.47
563.124	383.85
563.549	421.3
563.974	402.57
564.4	440.02
564.825	503.22
565.25	475.13
565.675	493.85
566.1	461.09
566.525	498.53
566.95	543
567.374	599.18
567.799	664.71
568.224	681.1
568.648	713.86
569.073	887.06
569.497	1050.9
569.922	1313.04
570.346	1788.17
570.771	1476.88
571.195	936.21
571.619	816.85
572.043	755.99
572.467	840.25
572.891	1062.6
573.315	957.28
573.739	760.67
574.163	585.13
574.587	519.6
575.011	435.34
575.435	456.4
575.858	493.85
576.282	500.87
576.705	440.02
577.129	402.57
577.552	388.53
577.976	486.83
578.399	416.62
578.822	456.4
579.245	358.1
579.669	360.44
580.092	353.42
580.515	402.57
580.938	383.85
581.361	423.64
581.784	388.53
582.206	351.08
582.629	381.51
583.052	409.59
583.474	451.72
583.897	482.15
584.32	425.98
584.742	458.74
585.165	430.66
585.587	414.27
586.009	425.98
586.431	397.89
586.854	442.36
587.276	470.45
587.698	353.42
588.12	421.3
588.542	440.02
588.964	442.36
589.386	414.27
589.807	468.11
590.229	475.13
590.651	447.04
591.073	381.51
591.494	418.96
591.916	465.77
592.337	365.12
592.759	360.44
593.18	449.38
593.601	393.21
594.022	440.02
594.444	428.32
594.865	444.7
595.286	428.32
595.707	381.51
596.128	414.27
596.549	322.99
596.97	402.57
597.39	421.3
597.811	411.93
598.232	400.23
598.652	402.57
599.073	348.74
599.494	390.87
599.914	475.13
600.334	397.89
600.755	358.1
601.175	386.19
601.595	397.89
602.015	393.21
602.436	351.08
602.856	507.9
603.276	381.51
603.696	435.34
604.115	418.96
604.535	416.62
604.955	348.74
605.375	397.89
605.794	421.3
606.214	397.89
606.634	374.49
607.053	418.96
607.473	444.7
607.892	404.91
608.311	496.19
608.731	348.74
609.15	407.25
609.569	416.62
609.988	344.06
610.407	400.23
610.826	386.19
611.245	402.57
611.664	435.34
612.083	425.98
612.501	407.25
612.92	376.83
613.339	409.59
613.757	430.66
614.176	379.17
614.594	421.3
615.013	400.23
615.431	444.7
615.85	409.59
616.268	425.98
616.686	479.81
617.104	477.47
617.522	435.34
617.94	463.43
618.358	454.06
618.776	465.77
619.194	409.59
619.612	440.02
620.03	454.06
620.447	435.34
620.865	393.21
621.282	472.79
621.7	493.85
622.117	575.77
622.535	533.64
622.952	559.39
623.369	734.93
623.787	931.53
624.204	1034.52
624.621	1022.81
625.038	1118.78
625.455	992.39
625.872	856.64
626.289	688.12
626.706	573.43
627.123	510.24
627.539	465.77
627.956	440.02
628.373	421.3
628.789	428.32
629.206	402.57
629.622	421.3
630.038	451.72
630.455	404.91
630.871	355.76
631.287	334.7
631.703	381.51
632.12	414.27
632.536	404.91
632.952	428.32
633.368	337.04
633.783	416.62
634.199	330.02
634.615	381.51
635.031	416.62
635.446	339.38
635.862	346.4
636.277	386.19
636.693	299.59
637.108	318.31
637.524	344.06
637.939	358.1
638.354	376.83
638.77	395.55
639.185	381.51
639.6	365.12
640.015	348.74
640.43	390.87
640.845	334.7
641.259	327.68
641.674	409.59
642.089	414.27
642.504	327.68
642.918	360.44
643.333	400.23
643.747	416.62
644.162	386.19
644.576	414.27
644.991	388.53
645.405	388.53
645.819	327.68
646.233	292.57
646.647	390.87
647.061	355.76
647.475	440.02
647.889	344.06
648.303	418.96
648.717	402.57
649.131	367.46
649.545	404.91
649.958	435.34
650.372	421.3
650.785	395.55
651.199	390.87
651.612	367.46
652.026	337.04
652.439	362.78
652.852	409.59
653.266	388.53
653.679	400.23
654.092	423.64
654.505	435.34
654.918	440.02
655.331	500.87
655.744	496.19
656.156	648.33
656.569	870.68
656.982	947.92
657.394	837.91
657.807	667.05
658.22	540.66
658.632	493.85
659.044	437.68
659.457	421.3
659.869	433
660.281	393.21
660.693	374.49
661.106	430.66
661.518	339.38
661.93	390.87
662.342	400.23
662.754	301.93
663.165	372.15
663.577	395.55
663.989	388.53
664.401	379.17
664.812	325.33
665.224	383.85
665.635	381.51
666.047	393.21
666.458	322.99
666.869	346.4
667.281	334.7
667.692	393.21
668.103	418.96
668.514	425.98
668.925	353.42
669.336	369.8
669.747	414.27
670.158	468.11
670.569	402.57
670.979	407.25
671.39	332.36
671.801	320.65
672.211	358.1
672.622	437.68
673.032	369.8
673.443	346.4
673.853	362.78
674.263	400.23
674.674	355.76
675.084	360.44
675.494	344.06
675.904	294.91
676.314	360.44
676.724	297.25
677.134	397.89
677.544	355.76
677.953	313.63
678.363	393.21
678.773	379.17
679.182	332.36
679.592	362.78
680.001	379.17
680.411	344.06
680.82	327.68
681.23	416.62
681.639	346.4
682.048	379.17
682.457	365.12
682.866	404.91
683.275	393.21
683.684	470.45
684.093	468.11
684.502	404.91
684.911	390.87
685.32	376.83
685.728	358.1
686.137	367.46
686.546	381.51
686.954	337.04
687.363	306.61
687.771	325.33
688.179	339.38
688.588	341.72
688.996	339.38
689.404	402.57
689.812	360.44
690.22	358.1
690.628	332.36
691.036	344.06
691.444	315.97
691.852	318.31
692.26	372.15
692.667	383.85
693.075	383.85
693.483	365.12
693.89	344.06
694.298	374.49
694.705	339.38
695.112	334.7
695.52	334.7
695.927	365.12
696.334	418.96
696.741	395.55
697.148	346.4
697.555	440.02
697.962	456.4
698.369	337.04
698.776	330.02
699.183	414.27
699.59	325.33
699.996	365.12
700.403	362.78
700.81	315.97
701.216	348.74
701.623	351.08
702.029	395.55
702.435	416.62
702.842	379.17
703.248	358.1
703.654	421.3
704.06	498.53
704.466	603.86
704.872	617.9
705.278	638.97
705.684	596.84
706.09	554.71
706.496	557.05
706.901	512.58
707.307	423.64
707.712	327.68
708.118	344.06
708.523	360.44
708.929	346.4
709.334	325.33
709.74	367.46
710.145	280.86
710.55	308.95
710.955	409.59
711.36	360.44
711.765	367.46
712.17	367.46
712.575	400.23
712.98	894.08
713.385	351.08
713.789	358.1
714.194	301.93
714.599	365.12
715.003	346.4
715.408	294.91
715.812	348.74
716.217	358.1
716.621	306.61
717.025	311.29
717.429	304.27
717.833	348.74
718.238	311.29
718.642	332.36
719.046	339.38
719.449	294.91
719.853	362.78
720.257	372.15
720.661	327.68
721.065	362.78
721.468	318.31
721.872	304.27
722.275	369.8
722.679	362.78
723.082	341.72
723.485	297.25
723.889	308.95
724.292	276.18
724.695	374.49
725.098	355.76
725.501	383.85
725.904	311.29
726.307	351.08
726.71	381.51
727.113	348.74
727.516	358.1
727.918	423.64
728.321	341.72
728.724	365.12
729.126	344.06
729.529	362.78
729.931	283.2
730.333	341.72
730.736	372.15
731.138	318.31
731.54	369.8
731.942	348.74
732.344	365.12
732.746	332.36
733.148	292.57
733.55	322.99
733.952	358.1
734.354	344.06
734.756	308.95
735.157	325.33
735.559	332.36
735.96	367.46
736.362	379.17
736.763	269.16
737.165	322.99
737.566	327.68
737.967	306.61
738.368	262.14
738.77	318.31
739.171	374.49
739.572	348.74
739.973	346.4
740.374	292.57
740.774	297.25
741.175	292.57
741.576	311.29
741.977	358.1
742.377	259.8
742.778	407.25
743.178	353.42
743.579	390.87
743.979	325.33
744.379	346.4
744.78	346.4
745.18	411.93
745.58	383.85
745.98	397.89
746.38	315.97
746.78	470.45
747.18	418.96
747.58	433
747.98	369.8
748.38	365.12
748.779	376.83
749.179	327.68
749.578	344.06
749.978	365.12
750.377	358.1
750.777	315.97
751.176	297.25
751.575	369.8
751.975	353.42
752.374	386.19
752.773	299.59
753.172	285.55
753.571	351.08
753.97	369.8
754.369	292.57
754.768	372.15
755.166	397.89
755.565	337.04
755.964	337.04
756.362	362.78
756.761	397.89
757.159	322.99
757.558	320.65
757.956	325.33
758.354	313.63
758.753	299.59
759.151	327.68
759.549	339.38
759.947	304.27
760.345	341.72
760.743	358.1
761.141	259.8
761.539	315.97
761.936	318.31
762.334	313.63
762.732	334.7
763.129	332.36
763.527	280.86
763.924	320.65
764.322	365.12
764.719	276.18
765.117	327.68
765.514	306.61
765.911	315.97
766.308	334.7
766.705	374.49
767.102	358.1
767.499	365.12
767.896	322.99
768.293	379.17
768.69	297.25
769.086	344.06
769.483	367.46
769.88	355.76
770.276	421.3
770.673	346.4
771.069	308.95
771.466	376.83
771.862	334.7
772.258	362.78
772.654	334.7
773.05	325.33
773.447	287.89
773.843	337.04
774.239	322.99
774.634	346.4
775.03	360.44
775.426	332.36
775.822	306.61
776.218	397.89
776.613	334.7
777.009	416.62
777.404	528.96
777.8	411.93
778.195	388.53
778.59	351.08
778.986	360.44
779.381	290.23
779.776	301.93
780.171	327.68
780.566	341.72
780.961	379.17
781.356	325.33
781.751	376.83
782.146	311.29
782.54	360.44
782.935	337.04
783.33	341.72
783.724	372.15
784.119	311.29
784.513	341.72
784.908	358.1
785.302	308.95
785.696	337.04
786.09	330.02
786.485	369.8
786.879	348.74
787.273	227.03
787.667	409.59
788.061	315.97
788.454	332.36
788.848	400.23
789.242	306.61
789.636	351.08
790.029	388.53
790.423	341.72
790.816	341.72
791.21	346.4
791.603	308.95
791.997	369.8
792.39	337.04
792.783	243.42
793.176	339.38
793.569	306.61
793.962	271.5
794.355	287.89
794.748	386.19
795.141	315.97
795.534	290.23
795.927	320.65
796.319	308.95
796.712	344.06
797.105	351.08
797.497	311.29
797.89	358.1
798.282	311.29
798.674	271.5
799.067	318.31
799.459	320.65
799.851	287.89
800.243	278.52
800.635	292.57
801.027	339.38
801.419	283.2
801.811	388.53
802.203	379.17
802.594	301.93
802.986	287.89
803.378	353.42
803.769	248.1
804.161	313.63
804.552	348.74
804.944	285.55
805.335	313.63
805.726	257.46
806.118	327.68
806.509	315.97
806.9	266.82
807.291	327.68
807.682	318.31
808.073	330.02
808.464	369.8
808.855	369.8
809.245	283.2
809.636	297.25
810.027	362.78
810.417	332.36
810.808	341.72
811.198	358.1
811.589	337.04
811.979	252.78
812.369	341.72
812.759	346.4
813.15	306.61
813.54	311.29
813.93	348.74
814.32	304.27
814.71	372.15
815.1	355.76
815.489	320.65
815.879	283.2
816.269	322.99
816.658	257.46
817.048	344.06
817.438	278.52
817.827	367.46
818.216	346.4
818.606	318.31
818.995	304.27
819.384	383.85
819.773	325.33
820.163	325.33
820.552	362.78
820.941	351.08
821.33	433
821.718	369.8
822.107	379.17
822.496	318.31
822.885	365.12
823.273	362.78
823.662	346.4
824.05	322.99
824.439	325.33
824.827	372.15
825.216	388.53
825.604	334.7
825.992	383.85
826.38	313.63
826.768	332.36
827.156	360.44
827.544	388.53
827.932	339.38
828.32	341.72
828.708	318.31
829.096	266.82
829.483	355.76
829.871	278.52
830.259	355.76
830.646	348.74
831.034	365.12
831.421	353.42
831.808	308.95
832.196	301.93
832.583	325.33
832.97	320.65
833.357	379.17
833.744	292.57
834.131	330.02
834.518	397.89
834.905	348.74
835.292	318.31
835.678	297.25
836.065	348.74
836.452	257.46
836.838	311.29
837.225	306.61
837.611	266.82
837.998	353.42
838.384	304.27
838.77	344.06
839.157	280.86
839.543	294.91
839.929	341.72
840.315	318.31
840.701	318.31
841.087	320.65
841.473	318.31
841.858	322.99
842.244	334.7
842.63	339.38
843.015	386.19
843.401	601.52
843.787	355.76
844.172	365.12
844.557	301.93
844.943	278.52
845.328	259.8
845.713	381.51
846.098	301.93
846.483	353.42
846.868	383.85
847.253	337.04
847.638	304.27
848.023	358.1
848.408	346.4
848.793	311.29
849.177	353.42
849.562	341.72
849.947	376.83
850.331	306.61
850.715	297.25
851.1	252.78
851.484	397.89
851.868	381.51
852.253	318.31
852.637	327.68
853.021	283.2
853.405	276.18
853.789	304.27
854.173	334.7
854.557	353.42
854.94	283.2
855.324	304.27
855.708	346.4
856.091	271.5
856.475	234.05
856.858	301.93
857.242	304.27
857.625	315.97
858.009	325.33
858.392	339.38
858.775	358.1
859.158	346.4
859.541	337.04
859.924	308.95
860.307	330.02
860.69	273.84
861.073	278.52
861.456	297.25
861.838	315.97
862.221	315.97
862.604	381.51
862.986	374.49
863.369	313.63
863.751	327.68
864.133	313.63
864.516	337.04
864.898	325.33
865.28	224.69
865.662	297.25
866.044	304.27
866.426	353.42
866.808	285.55
867.19	306.61
867.572	332.36
867.954	280.86
868.336	337.04
868.717	327.68
869.099	299.59
869.48	341.72
869.862	334.7
870.243	297.25
870.625	339.38
871.006	358.1
871.387	360.44
871.768	290.23
872.149	388.53
872.53	306.61
872.911	325.33
873.292	388.53
873.673	315.97
874.054	313.63
874.435	355.76
874.815	285.55
875.196	299.59
875.577	337.04
875.957	327.68
876.338	334.7
876.718	369.8
877.098	297.25
877.479	339.38
877.859	334.7
878.239	322.99
878.619	294.91
878.999	351.08
879.379	353.42
879.759	280.86
880.139	299.59
880.519	285.55
880.898	318.31
881.278	322.99
881.658	301.93
882.037	348.74
882.417	308.95
882.796	334.7
883.176	271.5
883.555	325.33
883.934	367.46
884.313	325.33
884.693	369.8
885.072	353.42
885.451	360.44
885.83	344.06
886.209	290.23
886.587	290.23
886.966	369.8
887.345	365.12
887.724	308.95
888.102	334.7
888.481	297.25
888.859	280.86
889.238	292.57
889.616	259.8
889.994	313.63
890.373	280.86
890.751	325.33
891.129	372.15
891.507	346.4
891.885	332.36
892.263	390.87
892.641	322.99
893.019	374.49
893.396	297.25
893.774	365.12
894.152	383.85
894.529	285.55
894.907	297.25
895.284	290.23
895.662	273.84
896.039	255.12
896.416	337.04
896.794	294.91
897.171	320.65
897.548	269.16
897.925	339.38
898.302	306.61
898.679	299.59
899.056	339.38
899.433	327.68
899.809	292.57
900.186	318.31
900.563	311.29
900.939	259.8
901.316	400.23
901.692	386.19
902.069	344.06
902.445	348.74
902.821	271.5
903.197	351.08
903.574	358.1
903.95	332.36
904.326	306.61
904.702	301.93
905.078	369.8
905.454	330.02
905.829	322.99
906.205	294.91
906.581	325.33
906.956	313.63
907.332	330.02
907.707	322.99
908.083	318.31
908.458	290.23
908.833	337.04
909.209	344.06
909.584	332.36
909.959	283.2
910.334	339.38
910.709	269.16
911.084	280.86
911.459	308.95
911.834	348.74
912.209	334.7
912.583	374.49
912.958	358.1
913.333	320.65
913.707	297.25
914.082	322.99
914.456	301.93
914.83	278.52
915.205	292.57
915.579	304.27
915.953	308.95
916.327	325.33
916.701	337.04
917.075	231.71
917.449	351.08
917.823	362.78
918.197	299.59
918.571	297.25
918.944	262.14
919.318	308.95
919.692	308.95
920.065	315.97
920.438	322.99
920.812	301.93
921.185	330.02
921.558	381.51
921.932	322.99
922.305	285.55
922.678	320.65
923.051	348.74
923.424	341.72
923.797	322.99
924.17	341.72
924.542	306.61
924.915	353.42
925.288	351.08
925.661	234.05
926.033	322.99
926.406	341.72
926.778	327.68
927.15	285.55
927.523	311.29
927.895	285.55
928.267	294.91
928.639	315.97
929.011	252.78
929.383	334.7
929.755	383.85
930.127	369.8
930.499	313.63
930.871	269.16
931.242	304.27
931.614	367.46
931.986	341.72
932.357	322.99
932.729	365.12
933.1	327.68
933.471	358.1
933.843	322.99
934.214	290.23
934.585	358.1
934.956	292.57
935.327	292.57
935.698	407.25
936.069	362.78
936.44	339.38
936.811	315.97
937.182	315.97
937.552	327.68
937.923	304.27
938.293	287.89
938.664	280.86
939.034	285.55
939.405	273.84
939.775	332.36
940.145	374.49
940.516	348.74
940.886	327.68
941.256	306.61
941.626	285.55
941.996	353.42
942.366	339.38
942.735	339.38
943.105	294.91
943.475	271.5
943.845	332.36
944.214	381.51
944.584	320.65
944.953	308.95
945.323	376.83
945.692	299.59
946.061	224.69
946.43	339.38
946.8	245.76
947.169	264.48
947.538	381.51
947.907	287.89
948.276	344.06
948.645	264.48
949.013	325.33
949.382	322.99
949.751	322.99
950.119	341.72
950.488	278.52
950.857	285.55
951.225	318.31
951.593	290.23
951.962	294.91
952.33	318.31
952.698	262.14
953.066	278.52
953.434	287.89
953.802	318.31
954.17	264.48
954.538	311.29
954.906	355.76
955.274	299.59
955.642	334.7
956.009	334.7
956.377	353.42
956.744	325.33
957.112	330.02
957.479	374.49
957.847	332.36
958.214	243.42
958.581	393.21
958.948	404.91
959.315	325.33
959.683	313.63
960.05	264.48
960.416	348.74
960.783	301.93
961.15	337.04
961.517	379.17
961.884	292.57
962.25	353.42
962.617	409.59
962.983	367.46
963.35	318.31
963.716	362.78
964.082	257.46
964.449	379.17
964.815	264.48
965.181	306.61
965.547	407.25
965.913	299.59
966.279	318.31
966.645	367.46
967.011	276.18
967.377	360.44
967.742	353.42
968.108	395.55
968.474	287.89
968.839	304.27
969.205	337.04
969.57	257.46
969.935	255.12
970.301	294.91
970.666	290.23
971.031	358.1
971.396	322.99
971.761	358.1
972.126	341.72
972.491	334.7
972.856	278.52
973.221	327.68
973.586	330.02
973.95	299.59
974.315	285.55
974.679	341.72
975.044	269.16
975.408	334.7
975.773	315.97
976.137	351.08
976.501	337.04
976.866	327.68
977.23	280.86
977.594	280.86
977.958	304.27
978.322	269.16
978.686	287.89
979.049	264.48
979.413	311.29
979.777	374.49
980.141	285.55
980.504	346.4
980.868	306.61
981.231	381.51
981.595	269.16
981.958	397.89
982.321	259.8
982.684	332.36
983.048	322.99
983.411	337.04
983.774	299.59
984.137	355.76
984.5	304.27
984.862	388.53
985.225	306.61
985.588	367.46
985.951	344.06
986.313	322.99
986.676	304.27
987.038	351.08
987.401	315.97
987.763	322.99
988.125	238.73
988.488	299.59
988.85	304.27
989.212	327.68
989.574	304.27
989.936	262.14
990.298	301.93
990.66	346.4
991.022	320.65
991.383	341.72
991.745	306.61
992.107	287.89
992.468	306.61
992.83	306.61
993.191	332.36
993.553	332.36
993.914	299.59
994.275	308.95
994.637	332.36
994.998	337.04
995.359	280.86
995.72	311.29
996.081	358.1
996.442	304.27
996.803	330.02
997.163	297.25
997.524	344.06
997.885	362.78
998.245	337.04
998.606	334.7
998.966	252.78
999.327	294.91
999.687	360.44
1000.047	325.33
1000.408	290.23
1000.768	367.46
1001.128	299.59
1001.488	252.78
1001.848	341.72
1002.208	315.97
1002.568	320.65
1002.927	311.29
1003.287	264.48
1003.647	351.08
1004.007	374.49
1004.366	269.16
1004.726	283.2
1005.085	269.16
1005.444	402.57
1005.804	297.25
1006.163	313.63
1006.522	283.2
1006.881	304.27
1007.24	344.06
1007.599	318.31
1007.958	360.44
1008.317	325.33
1008.676	276.18
1009.035	313.63
1009.393	339.38
1009.752	304.27
1010.111	322.99
1010.469	271.5
1010.828	341.72
1011.186	306.61
1011.544	351.08
1011.903	308.95
1012.261	315.97
1012.619	294.91
1012.977	369.8
1013.335	360.44
1013.693	306.61
1014.051	280.86
1014.409	355.76
1014.767	299.59
1015.124	299.59
1015.482	290.23
1015.84	348.74
1016.197	320.65
1016.555	297.25
1016.912	236.39
1017.269	203.63
1017.627	339.38
1017.984	348.74
1018.341	280.86
1018.698	358.1
1019.055	346.4
1019.412	269.16
1019.769	306.61
1020.126	245.76
1020.483	320.65
1020.84	278.52
1021.196	327.68
1021.553	327.68
1021.909	297.25
1022.266	269.16
1022.622	294.91
1022.979	348.74
1023.335	255.12
1023.691	327.68
1024.047	327.68
1024.404	379.17
1024.76	301.93
1025.116	315.97
1025.472	334.7
1025.827	339.38
1026.183	360.44
1026.539	273.84
1026.895	337.04
1027.25	322.99
1027.606	325.33
1027.961	308.95
1028.317	315.97
1028.672	386.19
1029.028	308.95
1029.383	280.86
1029.738	320.65
1030.093	322.99
1030.448	334.7
1030.803	325.33
1031.158	315.97
1031.513	334.7
1031.868	355.76
1032.223	322.99
1032.577	327.68
1032.932	285.55
1033.287	308.95
1033.641	358.1
1033.996	374.49
1034.35	334.7
1034.704	337.04
1035.059	273.84
1035.413	344.06
1035.767	344.06
1036.121	344.06
