Data from Al_FLMS009871__1175__16-38-03-387.txt Node

Date: Fri Mar 08 16:38:03 CST 2024
User: pe5414po
Spectrometer: FLMS00987
Trigger mode: 0
Integration Time (sec): 1.000000E-1
Scans to average: 1
Electric dark correction enabled: true
Nonlinearity correction enabled: false
Boxcar width: 0
XAxis mode: Wavelengths
Number of Pixels in Spectrum: 2048
>>>>>Begin Spectral Data<<<<<
188.938	-82.21
189.409	-82.21
189.879	-82.21
190.349	-140.72
190.819	-98.6
191.29	-147.75
191.76	-117.32
192.23	-114.98
192.7	-12
193.17	-9.65
193.64	-40.08
194.109	-14.34
194.579	-4.97
195.049	-51.78
195.519	25.45
195.988	37.16
196.458	46.52
196.927	126.1
197.397	23.11
197.866	172.91
198.336	81.63
198.805	142.48
199.274	224.4
199.744	177.59
200.213	172.91
200.682	186.95
201.151	208.02
201.62	179.93
202.089	231.42
202.558	243.12
203.027	222.06
203.495	250.14
203.964	311
204.433	327.38
204.902	259.51
205.37	280.57
205.839	289.93
206.307	231.42
206.776	287.59
207.244	308.66
207.712	259.51
208.181	259.51
208.649	299.3
209.117	200.99
209.585	268.87
210.053	229.08
210.521	238.44
210.989	264.19
211.457	243.12
211.925	303.98
212.393	229.08
212.861	233.76
213.328	287.59
213.796	254.83
214.264	308.66
214.731	285.25
215.199	301.64
215.666	233.76
216.133	217.38
216.601	254.83
217.068	247.8
217.535	329.72
218.003	217.38
218.47	226.74
218.937	254.83
219.404	252.49
219.871	301.64
220.338	278.23
220.805	273.55
221.271	278.23
221.738	184.61
222.205	245.46
222.671	294.61
223.138	208.02
223.605	271.21
224.071	332.06
224.538	236.1
225.004	205.67
225.47	245.46
225.937	273.55
226.403	247.8
226.869	254.83
227.335	240.78
227.801	320.36
228.267	226.74
228.733	313.34
229.199	348.45
229.665	336.74
230.131	320.36
230.597	250.14
231.062	271.21
231.528	212.7
231.994	245.46
232.459	245.46
232.925	299.3
233.39	231.42
233.856	289.93
234.321	301.64
234.786	282.91
235.252	311
235.717	303.98
236.182	273.55
236.647	287.59
237.112	264.19
237.577	240.78
238.042	229.08
238.507	245.46
238.972	327.38
239.436	292.27
239.901	252.49
240.366	238.44
240.83	334.4
241.295	226.74
241.76	250.14
242.224	306.32
242.688	299.3
243.153	266.53
243.617	240.78
244.081	233.76
244.545	224.4
245.01	278.23
245.474	318.02
245.938	247.8
246.402	236.1
246.866	259.51
247.33	266.53
247.793	165.89
248.257	308.66
248.721	311
249.185	247.8
249.648	266.53
250.112	280.57
250.575	203.33
251.039	268.87
251.502	233.76
251.965	299.3
252.429	282.91
252.892	261.85
253.355	308.66
253.818	282.91
254.281	226.74
254.744	250.14
255.207	236.1
255.67	339.09
256.133	334.4
256.596	250.14
257.059	350.79
257.522	264.19
257.984	250.14
258.447	341.43
258.909	341.43
259.372	233.76
259.834	259.51
260.297	196.31
260.759	271.21
261.221	205.67
261.684	264.19
262.146	266.53
262.608	231.42
263.07	301.64
263.532	339.09
263.994	245.46
264.456	327.38
264.918	303.98
265.38	236.1
265.842	236.1
266.303	311
266.765	287.59
267.227	303.98
267.688	259.51
268.15	329.72
268.611	329.72
269.072	285.25
269.534	303.98
269.995	271.21
270.456	325.04
270.918	273.55
271.379	285.25
271.84	280.57
272.301	259.51
272.762	266.53
273.223	254.83
273.684	266.53
274.144	343.77
274.605	289.93
275.066	332.06
275.527	311
275.987	289.93
276.448	257.17
276.908	268.87
277.369	275.89
277.829	250.14
278.289	278.23
278.75	322.7
279.21	252.49
279.67	285.25
280.13	261.85
280.59	280.57
281.05	275.89
281.51	278.23
281.97	294.61
282.43	287.59
282.89	254.83
283.35	224.4
283.809	261.85
284.269	374.19
284.729	224.4
285.188	254.83
285.648	296.96
286.107	329.72
286.567	311
287.026	240.78
287.485	296.96
287.944	271.21
288.404	236.1
288.863	339.09
289.322	285.25
289.781	224.4
290.24	306.32
290.699	292.27
291.158	311
291.616	285.25
292.075	315.68
292.534	271.21
292.992	278.23
293.451	296.96
293.91	313.34
294.368	346.11
294.827	273.55
295.285	280.57
295.743	388.24
296.202	308.66
296.66	301.64
297.118	301.64
297.576	315.68
298.034	383.56
298.492	306.32
298.95	278.23
299.408	278.23
299.866	271.21
300.324	268.87
300.781	285.25
301.239	336.74
301.697	308.66
302.154	268.87
302.612	289.93
303.069	261.85
303.527	320.36
303.984	222.06
304.441	294.61
304.899	296.96
305.356	306.32
305.813	315.68
306.27	289.93
306.727	308.66
307.184	303.98
307.641	285.25
308.098	318.02
308.555	334.4
309.012	301.64
309.468	341.43
309.925	285.25
310.382	301.64
310.838	280.57
311.295	273.55
311.751	257.17
312.208	252.49
312.664	282.91
313.12	301.64
313.577	231.42
314.033	285.25
314.489	296.96
314.945	343.77
315.401	273.55
315.857	383.56
316.313	322.7
316.769	350.79
317.225	327.38
317.681	278.23
318.136	301.64
318.592	243.12
319.048	332.06
319.503	296.96
319.959	252.49
320.414	301.64
320.869	306.32
321.325	303.98
321.78	341.43
322.235	292.27
322.691	301.64
323.146	341.43
323.601	275.89
324.056	285.25
324.511	278.23
324.966	254.83
325.421	266.53
325.875	238.44
326.33	299.3
326.785	266.53
327.24	226.74
327.694	308.66
328.149	341.43
328.603	339.09
329.058	318.02
329.512	296.96
329.966	357.81
330.421	266.53
330.875	292.27
331.329	193.97
331.783	303.98
332.237	296.96
332.691	313.34
333.145	273.55
333.599	275.89
334.053	303.98
334.507	355.47
334.96	275.89
335.414	339.09
335.868	299.3
336.321	233.76
336.775	320.36
337.228	229.08
337.682	301.64
338.135	301.64
338.588	339.09
339.042	357.81
339.495	327.38
339.948	282.91
340.401	306.32
340.854	296.96
341.307	296.96
341.76	292.27
342.213	334.4
342.666	327.38
343.119	369.51
343.571	280.57
344.024	301.64
344.477	336.74
344.929	311
345.382	360.15
345.834	311
346.287	268.87
346.739	264.19
347.191	306.32
347.644	336.74
348.096	292.27
348.548	369.51
349	311
349.452	289.93
349.904	282.91
350.356	306.32
350.808	313.34
351.26	287.59
351.711	278.23
352.163	301.64
352.615	341.43
353.066	341.43
353.518	285.25
353.969	299.3
354.421	287.59
354.872	299.3
355.324	332.06
355.775	299.3
356.226	250.14
356.677	266.53
357.128	250.14
357.579	350.79
358.03	292.27
358.481	308.66
358.932	299.3
359.383	271.21
359.834	332.06
360.285	287.59
360.735	231.42
361.186	287.59
361.637	301.64
362.087	219.72
362.538	318.02
362.988	289.93
363.438	285.25
363.889	343.77
364.339	374.19
364.789	296.96
365.239	278.23
365.689	341.43
366.139	257.17
366.589	320.36
367.039	266.53
367.489	336.74
367.939	303.98
368.389	332.06
368.839	362.49
369.288	252.49
369.738	343.77
370.187	229.08
370.637	322.7
371.086	243.12
371.536	306.32
371.985	289.93
372.434	266.53
372.884	318.02
373.333	301.64
373.782	332.06
374.231	348.45
374.68	308.66
375.129	357.81
375.578	343.77
376.027	299.3
376.475	268.87
376.924	329.72
377.373	278.23
377.822	257.17
378.27	320.36
378.719	360.15
379.167	287.59
379.616	308.66
380.064	299.3
380.512	362.49
380.961	275.89
381.409	252.49
381.857	306.32
382.305	268.87
382.753	341.43
383.201	261.85
383.649	339.09
384.097	289.93
384.545	327.38
384.992	313.34
385.44	334.4
385.888	329.72
386.335	268.87
386.783	296.96
387.231	341.43
387.678	289.93
388.125	273.55
388.573	308.66
389.02	374.19
389.467	355.47
389.914	268.87
390.362	292.27
390.809	315.68
391.256	339.09
391.703	329.72
392.15	289.93
392.596	325.04
393.043	285.25
393.49	296.96
393.937	343.77
394.383	245.46
394.83	388.24
395.276	350.79
395.723	299.3
396.169	327.38
396.616	264.19
397.062	219.72
397.508	313.34
397.954	287.59
398.401	296.96
398.847	320.36
399.293	308.66
399.739	378.87
400.185	336.74
400.631	341.43
401.076	287.59
401.522	367.17
401.968	350.79
402.414	315.68
402.859	369.51
403.305	313.34
403.75	301.64
404.196	322.7
404.641	299.3
405.086	374.19
405.532	308.66
405.977	362.49
406.422	378.87
406.867	259.51
407.312	240.78
407.757	306.32
408.202	308.66
408.647	275.89
409.092	266.53
409.537	280.57
409.982	280.57
410.426	306.32
410.871	327.38
411.316	327.38
411.76	292.27
412.205	329.72
412.649	257.17
413.093	311
413.538	287.59
413.982	254.83
414.426	315.68
414.87	289.93
415.314	259.51
415.758	313.34
416.202	399.94
416.646	332.06
417.09	320.36
417.534	271.21
417.978	294.61
418.421	318.02
418.865	336.74
419.309	367.17
419.752	325.04
420.196	336.74
420.639	320.36
421.083	320.36
421.526	306.32
421.969	318.02
422.412	334.4
422.856	329.72
423.299	240.78
423.742	247.8
424.185	315.68
424.628	238.44
425.071	278.23
425.513	346.11
425.956	313.34
426.399	299.3
426.842	313.34
427.284	341.43
427.727	282.91
428.169	308.66
428.612	329.72
429.054	285.25
429.497	360.15
429.939	282.91
430.381	264.19
430.823	278.23
431.265	322.7
431.707	318.02
432.149	306.32
432.591	240.78
433.033	341.43
433.475	364.83
433.917	306.32
434.359	364.83
434.8	308.66
435.242	322.7
435.684	254.83
436.125	332.06
436.567	287.59
437.008	301.64
437.449	327.38
437.891	334.4
438.332	257.17
438.773	322.7
439.214	306.32
439.656	367.17
440.097	275.89
440.538	364.83
440.978	247.8
441.419	299.3
441.86	339.09
442.301	327.38
442.742	287.59
443.182	313.34
443.623	301.64
444.063	259.51
444.504	329.72
444.944	280.57
445.385	299.3
445.825	325.04
446.265	327.38
446.706	348.45
447.146	278.23
447.586	282.91
448.026	303.98
448.466	278.23
448.906	311
449.346	332.06
449.786	273.55
450.225	303.98
450.665	303.98
451.105	343.77
451.544	327.38
451.984	343.77
452.424	322.7
452.863	369.51
453.302	299.3
453.742	311
454.181	303.98
454.62	374.19
455.059	322.7
455.499	353.13
455.938	357.81
456.377	336.74
456.816	320.36
457.254	336.74
457.693	332.06
458.132	273.55
458.571	301.64
459.01	301.64
459.448	315.68
459.887	257.17
460.325	292.27
460.764	362.49
461.202	306.32
461.641	308.66
462.079	346.11
462.517	278.23
462.955	369.51
463.393	406.96
463.832	329.72
464.27	226.74
464.708	313.34
465.145	299.3
465.583	299.3
466.021	278.23
466.459	306.32
466.897	327.38
467.334	334.4
467.772	292.27
468.209	374.19
468.647	266.53
469.084	325.04
469.522	275.89
469.959	311
470.396	367.17
470.833	233.76
471.271	299.3
471.708	313.34
472.145	357.81
472.582	296.96
473.019	306.32
473.456	296.96
473.892	341.43
474.329	301.64
474.766	346.11
475.202	271.21
475.639	318.02
476.076	322.7
476.512	282.91
476.949	254.83
477.385	268.87
477.821	320.36
478.258	327.38
478.694	325.04
479.13	268.87
479.566	285.25
480.002	231.42
480.438	334.4
480.874	346.11
481.31	360.15
481.746	336.74
482.181	332.06
482.617	364.83
483.053	268.87
483.488	383.56
483.924	343.77
484.36	341.43
484.795	306.32
485.23	318.02
485.666	399.94
486.101	289.93
486.536	271.21
486.971	271.21
487.407	264.19
487.842	308.66
488.277	376.53
488.712	259.51
489.146	343.77
489.581	348.45
490.016	301.64
490.451	306.32
490.885	261.85
491.32	294.61
491.755	296.96
492.189	362.49
492.624	397.6
493.058	334.4
493.492	285.25
493.927	327.38
494.361	303.98
494.795	322.7
495.229	280.57
495.663	313.34
496.097	320.36
496.531	285.25
496.965	280.57
497.399	301.64
497.833	299.3
498.266	343.77
498.7	341.43
499.134	282.91
499.567	315.68
500.001	301.64
500.434	252.49
500.868	313.34
501.301	329.72
501.734	257.17
502.168	311
502.601	273.55
503.034	299.3
503.467	296.96
503.9	308.66
504.333	292.27
504.766	311
505.199	367.17
505.632	341.43
506.064	334.4
506.497	343.77
506.93	367.17
507.362	222.06
507.795	275.89
508.227	313.34
508.66	327.38
509.092	376.53
509.524	360.15
509.956	318.02
510.389	364.83
510.821	385.9
511.253	268.87
511.685	322.7
512.117	245.46
512.549	390.58
512.981	315.68
513.412	280.57
513.844	327.38
514.276	325.04
514.707	327.38
515.139	294.61
515.571	315.68
516.002	315.68
516.433	285.25
516.865	348.45
517.296	327.38
517.727	332.06
518.159	285.25
518.59	313.34
519.021	339.09
519.452	311
519.883	308.66
520.314	294.61
520.744	247.8
521.175	287.59
521.606	282.91
522.037	367.17
522.467	224.4
522.898	308.66
523.328	303.98
523.759	292.27
524.189	273.55
524.62	259.51
525.05	245.46
525.48	313.34
525.91	339.09
526.341	334.4
526.771	322.7
527.201	292.27
527.631	313.34
528.061	268.87
528.49	341.43
528.92	332.06
529.35	287.59
529.78	322.7
530.209	313.34
530.639	435.05
531.068	275.89
531.498	332.06
531.927	303.98
532.357	355.47
532.786	285.25
533.215	318.02
533.644	327.38
534.074	308.66
534.503	320.36
534.932	360.15
535.361	334.4
535.79	325.04
536.218	273.55
536.647	357.81
537.076	374.19
537.505	327.38
537.933	266.53
538.362	264.19
538.79	273.55
539.219	311
539.647	254.83
540.076	346.11
540.504	320.36
540.932	301.64
541.36	320.36
541.788	287.59
542.217	264.19
542.645	278.23
543.073	357.81
543.5	315.68
543.928	252.49
544.356	259.51
544.784	350.79
545.211	315.68
545.639	322.7
546.067	306.32
546.494	303.98
546.922	261.85
547.349	266.53
547.776	261.85
548.204	289.93
548.631	275.89
549.058	301.64
549.485	280.57
549.912	292.27
550.339	320.36
550.766	261.85
551.193	306.32
551.62	301.64
552.047	343.77
552.474	250.14
552.9	296.96
553.327	257.17
553.754	278.23
554.18	289.93
554.607	285.25
555.033	289.93
555.459	318.02
555.886	280.57
556.312	362.49
556.738	364.83
557.164	296.96
557.59	339.09
558.016	348.45
558.442	299.3
558.868	264.19
559.294	313.34
559.72	254.83
560.145	385.9
560.571	296.96
560.997	301.64
561.422	303.98
561.848	339.09
562.273	268.87
562.699	308.66
563.124	311
563.549	369.51
563.974	376.53
564.4	294.61
564.825	301.64
565.25	334.4
565.675	322.7
566.1	273.55
566.525	313.34
566.95	381.21
567.374	289.93
567.799	341.43
568.224	320.36
568.648	266.53
569.073	346.11
569.497	348.45
569.922	318.02
570.346	292.27
570.771	285.25
571.195	353.13
571.619	287.59
572.043	325.04
572.467	320.36
572.891	252.49
573.315	261.85
573.739	313.34
574.163	313.34
574.587	362.49
575.011	329.72
575.435	282.91
575.858	327.38
576.282	299.3
576.705	308.66
577.129	264.19
577.552	306.32
577.976	353.13
578.399	334.4
578.822	329.72
579.245	306.32
579.669	318.02
580.092	313.34
580.515	322.7
580.938	296.96
581.361	299.3
581.784	343.77
582.206	341.43
582.629	341.43
583.052	322.7
583.474	287.59
583.897	360.15
584.32	313.34
584.742	341.43
585.165	388.24
585.587	355.47
586.009	336.74
586.431	271.21
586.854	322.7
587.276	294.61
587.698	222.06
588.12	296.96
588.542	282.91
588.964	378.87
589.386	369.51
589.807	355.47
590.229	332.06
590.651	296.96
591.073	308.66
591.494	299.3
591.916	306.32
592.337	327.38
592.759	261.85
593.18	339.09
593.601	236.1
594.022	318.02
594.444	320.36
594.865	268.87
595.286	287.59
595.707	306.32
596.128	371.85
596.549	325.04
596.97	332.06
597.39	318.02
597.811	313.34
598.232	364.83
598.652	299.3
599.073	299.3
599.494	292.27
599.914	308.66
600.334	282.91
600.755	315.68
601.175	311
601.595	292.27
602.015	329.72
602.436	325.04
602.856	411.64
603.276	245.46
603.696	273.55
604.115	296.96
604.535	275.89
604.955	371.85
605.375	282.91
605.794	301.64
606.214	299.3
606.634	360.15
607.053	318.02
607.473	343.77
607.892	292.27
608.311	334.4
608.731	318.02
609.15	339.09
609.569	346.11
609.988	306.32
610.407	318.02
610.826	320.36
611.245	306.32
611.664	353.13
612.083	336.74
612.501	329.72
612.92	296.96
613.339	294.61
613.757	332.06
614.176	315.68
614.594	315.68
615.013	303.98
615.431	285.25
615.85	285.25
616.268	308.66
616.686	313.34
617.104	322.7
617.522	341.43
617.94	303.98
618.358	292.27
618.776	266.53
619.194	322.7
619.612	308.66
620.03	355.47
620.447	367.17
620.865	322.7
621.282	308.66
621.7	390.58
622.117	264.19
622.535	306.32
622.952	285.25
623.369	282.91
623.787	299.3
624.204	273.55
624.621	308.66
625.038	280.57
625.455	306.32
625.872	282.91
626.289	292.27
626.706	325.04
627.123	273.55
627.539	416.32
627.956	301.64
628.373	264.19
628.789	355.47
629.206	371.85
629.622	322.7
630.038	325.04
630.455	292.27
630.871	343.77
631.287	341.43
631.703	313.34
632.12	186.95
632.536	292.27
632.952	313.34
633.368	332.06
633.783	318.02
634.199	264.19
634.615	325.04
635.031	374.19
635.446	346.11
635.862	282.91
636.277	311
636.693	285.25
637.108	278.23
637.524	404.62
637.939	268.87
638.354	287.59
638.77	360.15
639.185	285.25
639.6	334.4
640.015	280.57
640.43	252.49
640.845	313.34
641.259	303.98
641.674	332.06
642.089	264.19
642.504	343.77
642.918	289.93
643.333	275.89
643.747	252.49
644.162	292.27
644.576	271.21
644.991	296.96
645.405	261.85
645.819	296.96
646.233	296.96
646.647	329.72
647.061	336.74
647.475	357.81
647.889	322.7
648.303	355.47
648.717	320.36
649.131	325.04
649.545	287.59
649.958	280.57
650.372	296.96
650.785	240.78
651.199	266.53
651.612	346.11
652.026	362.49
652.439	275.89
652.852	322.7
653.266	243.12
653.679	278.23
654.092	332.06
654.505	336.74
654.918	275.89
655.331	339.09
655.744	308.66
656.156	360.15
656.569	268.87
656.982	332.06
657.394	273.55
657.807	292.27
658.22	299.3
658.632	257.17
659.044	299.3
659.457	292.27
659.869	273.55
660.281	362.49
660.693	313.34
661.106	320.36
661.518	320.36
661.93	296.96
662.342	257.17
662.754	280.57
663.165	264.19
663.577	292.27
663.989	299.3
664.401	313.34
664.812	292.27
665.224	254.83
665.635	268.87
666.047	315.68
666.458	285.25
666.869	343.77
667.281	362.49
667.692	285.25
668.103	336.74
668.514	289.93
668.925	388.24
669.336	294.61
669.747	303.98
670.158	311
670.569	315.68
670.979	299.3
671.39	341.43
671.801	289.93
672.211	278.23
672.622	303.98
673.032	264.19
673.443	285.25
673.853	311
674.263	318.02
674.674	327.38
675.084	343.77
675.494	303.98
675.904	320.36
676.314	329.72
676.724	264.19
677.134	313.34
677.544	313.34
677.953	311
678.363	362.49
678.773	362.49
679.182	303.98
679.592	289.93
680.001	296.96
680.411	257.17
680.82	313.34
681.23	238.44
681.639	329.72
682.048	308.66
682.457	308.66
682.866	285.25
683.275	261.85
683.684	296.96
684.093	315.68
684.502	325.04
684.911	299.3
685.32	334.4
685.728	285.25
686.137	257.17
686.546	322.7
686.954	329.72
687.363	374.19
687.771	327.38
688.179	369.51
688.588	369.51
688.996	264.19
689.404	311
689.812	315.68
690.22	308.66
690.628	322.7
691.036	325.04
691.444	315.68
691.852	369.51
692.26	329.72
692.667	275.89
693.075	308.66
693.483	378.87
693.89	332.06
694.298	329.72
694.705	336.74
695.112	371.85
695.52	205.67
695.927	257.17
696.334	287.59
696.741	343.77
697.148	303.98
697.555	315.68
697.962	327.38
698.369	219.72
698.776	271.21
699.183	271.21
699.59	322.7
699.996	311
700.403	285.25
700.81	367.17
701.216	287.59
701.623	308.66
702.029	381.21
702.435	303.98
702.842	329.72
703.248	346.11
703.654	212.7
704.06	327.38
704.466	318.02
704.872	268.87
705.278	339.09
705.684	266.53
706.09	311
706.496	273.55
706.901	313.34
707.307	292.27
707.712	397.6
708.118	357.81
708.523	301.64
708.929	336.74
709.334	203.33
709.74	350.79
710.145	353.13
710.55	306.32
710.955	334.4
711.36	280.57
711.765	280.57
712.17	332.06
712.575	336.74
712.98	907.84
713.385	329.72
713.789	329.72
714.194	289.93
714.599	315.68
715.003	212.7
715.408	367.17
715.812	311
716.217	301.64
716.621	285.25
717.025	266.53
717.429	273.55
717.833	306.32
718.238	278.23
718.642	285.25
719.046	313.34
719.449	282.91
719.853	336.74
720.257	313.34
720.661	275.89
721.065	243.12
721.468	311
721.872	320.36
722.275	275.89
722.679	261.85
723.082	329.72
723.485	362.49
723.889	325.04
724.292	318.02
724.695	315.68
725.098	334.4
725.501	322.7
725.904	294.61
726.307	292.27
726.71	252.49
727.113	252.49
727.516	247.8
727.918	280.57
728.321	296.96
728.724	315.68
729.126	320.36
729.529	275.89
729.931	311
730.333	219.72
730.736	285.25
731.138	315.68
731.54	196.31
731.942	301.64
732.344	308.66
732.746	425.68
733.148	280.57
733.55	301.64
733.952	254.83
734.354	287.59
734.756	243.12
735.157	325.04
735.559	278.23
735.96	306.32
736.362	322.7
736.763	339.09
737.165	275.89
737.566	252.49
737.967	252.49
738.368	327.38
738.77	306.32
739.171	285.25
739.572	292.27
739.973	325.04
740.374	296.96
740.774	313.34
741.175	266.53
741.576	315.68
741.977	318.02
742.377	271.21
742.778	322.7
743.178	341.43
743.579	318.02
743.979	278.23
744.379	357.81
744.78	285.25
745.18	252.49
745.58	259.51
745.98	327.38
746.38	296.96
746.78	383.56
747.18	296.96
747.58	378.87
747.98	287.59
748.38	327.38
748.779	329.72
749.179	289.93
749.578	303.98
749.978	271.21
750.377	339.09
750.777	325.04
751.176	343.77
751.575	233.76
751.975	315.68
752.374	264.19
752.773	289.93
753.172	266.53
753.571	259.51
753.97	369.51
754.369	296.96
754.768	268.87
755.166	332.06
755.565	322.7
755.964	341.43
756.362	299.3
756.761	303.98
757.159	266.53
757.558	285.25
757.956	341.43
758.354	315.68
758.753	280.57
759.151	318.02
759.549	289.93
759.947	313.34
760.345	299.3
760.743	311
761.141	296.96
761.539	273.55
761.936	355.47
762.334	296.96
762.732	325.04
763.129	308.66
763.527	329.72
763.924	329.72
764.322	346.11
764.719	318.02
765.117	325.04
765.514	245.46
765.911	320.36
766.308	278.23
766.705	273.55
767.102	299.3
767.499	334.4
767.896	343.77
768.293	313.34
768.69	287.59
769.086	311
769.483	308.66
769.88	346.11
770.276	327.38
770.673	289.93
771.069	329.72
771.466	325.04
771.862	292.27
772.258	306.32
772.654	240.78
773.05	282.91
773.447	364.83
773.843	296.96
774.239	299.3
774.634	318.02
775.03	273.55
775.426	311
775.822	299.3
776.218	348.45
776.613	259.51
777.009	353.13
777.404	348.45
777.8	278.23
778.195	222.06
778.59	275.89
778.986	336.74
779.381	311
779.776	289.93
780.171	275.89
780.566	243.12
780.961	296.96
781.356	273.55
781.751	282.91
782.146	266.53
782.54	339.09
782.935	271.21
783.33	301.64
783.724	278.23
784.119	355.47
784.513	348.45
784.908	273.55
785.302	259.51
785.696	303.98
786.09	273.55
786.485	282.91
786.879	282.91
787.273	322.7
787.667	378.87
788.061	287.59
788.454	306.32
788.848	353.13
789.242	318.02
789.636	322.7
790.029	369.51
790.423	318.02
790.816	233.76
791.21	320.36
791.603	346.11
791.997	303.98
792.39	315.68
792.783	301.64
793.176	311
793.569	334.4
793.962	322.7
794.355	313.34
794.748	301.64
795.141	268.87
795.534	332.06
795.927	247.8
796.319	229.08
796.712	306.32
797.105	289.93
797.497	336.74
797.89	257.17
798.282	364.83
798.674	318.02
799.067	292.27
799.459	371.85
799.851	257.17
800.243	357.81
800.635	268.87
801.027	315.68
801.419	318.02
801.811	369.51
802.203	320.36
802.594	229.08
802.986	322.7
803.378	306.32
803.769	280.57
804.161	273.55
804.552	266.53
804.944	308.66
805.335	233.76
805.726	334.4
806.118	296.96
806.509	243.12
806.9	264.19
807.291	348.45
807.682	238.44
808.073	294.61
808.464	306.32
808.855	282.91
809.245	311
809.636	261.85
810.027	346.11
810.417	252.49
810.808	296.96
811.198	296.96
811.589	292.27
811.979	390.58
812.369	409.3
812.759	360.15
813.15	308.66
813.54	367.17
813.93	346.11
814.32	299.3
814.71	294.61
815.1	245.46
815.489	250.14
815.879	287.59
816.269	296.96
816.658	350.79
817.048	231.42
817.438	322.7
817.827	294.61
818.216	294.61
818.606	327.38
818.995	289.93
819.384	294.61
819.773	313.34
820.163	336.74
820.552	264.19
820.941	245.46
821.33	341.43
821.718	266.53
822.107	315.68
822.496	343.77
822.885	273.55
823.273	322.7
823.662	289.93
824.05	303.98
824.439	224.4
824.827	343.77
825.216	355.47
825.604	292.27
825.992	299.3
826.38	311
826.768	289.93
827.156	231.42
827.544	325.04
827.932	292.27
828.32	278.23
828.708	273.55
829.096	275.89
829.483	285.25
829.871	325.04
830.259	332.06
830.646	353.13
831.034	318.02
831.421	303.98
831.808	355.47
832.196	322.7
832.583	332.06
832.97	278.23
833.357	257.17
833.744	315.68
834.131	271.21
834.518	322.7
834.905	308.66
835.292	374.19
835.678	369.51
836.065	268.87
836.452	252.49
836.838	245.46
837.225	334.4
837.611	275.89
837.998	289.93
838.384	343.77
838.77	292.27
839.157	327.38
839.543	388.24
839.929	329.72
840.315	313.34
840.701	325.04
841.087	348.45
841.473	285.25
841.858	301.64
842.244	318.02
842.63	332.06
843.015	329.72
843.401	547.39
843.787	367.17
844.172	292.27
844.557	303.98
844.943	311
845.328	257.17
845.713	273.55
846.098	353.13
846.483	261.85
846.868	292.27
847.253	266.53
847.638	273.55
848.023	364.83
848.408	329.72
848.793	268.87
849.177	289.93
849.562	329.72
849.947	357.81
850.331	325.04
850.715	280.57
851.1	357.81
851.484	367.17
851.868	306.32
852.253	266.53
852.637	282.91
853.021	254.83
853.405	301.64
853.789	229.08
854.173	369.51
854.557	325.04
854.94	296.96
855.324	357.81
855.708	299.3
856.091	252.49
856.475	318.02
856.858	332.06
857.242	371.85
857.625	254.83
858.009	311
858.392	287.59
858.775	303.98
859.158	280.57
859.541	348.45
859.924	268.87
860.307	257.17
860.69	350.79
861.073	339.09
861.456	268.87
861.838	313.34
862.221	275.89
862.604	238.44
862.986	296.96
863.369	271.21
863.751	294.61
864.133	266.53
864.516	285.25
864.898	252.49
865.28	296.96
865.662	303.98
866.044	299.3
866.426	275.89
866.808	198.65
867.19	360.15
867.572	280.57
867.954	343.77
868.336	308.66
868.717	278.23
869.099	285.25
869.48	362.49
869.862	299.3
870.243	329.72
870.625	285.25
871.006	308.66
871.387	261.85
871.768	259.51
872.149	236.1
872.53	280.57
872.911	259.51
873.292	240.78
873.673	318.02
874.054	273.55
874.435	292.27
874.815	299.3
875.196	285.25
875.577	278.23
875.957	250.14
876.338	287.59
876.718	334.4
877.098	313.34
877.479	252.49
877.859	341.43
878.239	247.8
878.619	294.61
878.999	289.93
879.379	329.72
879.759	336.74
880.139	336.74
880.519	318.02
880.898	357.81
881.278	385.9
881.658	306.32
882.037	245.46
882.417	315.68
882.796	306.32
883.176	311
883.555	322.7
883.934	362.49
884.313	369.51
884.693	374.19
885.072	320.36
885.451	327.38
885.83	313.34
886.209	327.38
886.587	329.72
886.966	315.68
887.345	268.87
887.724	313.34
888.102	315.68
888.481	273.55
888.859	308.66
889.238	271.21
889.616	308.66
889.994	275.89
890.373	301.64
890.751	325.04
891.129	292.27
891.507	292.27
891.885	346.11
892.263	348.45
892.641	313.34
893.019	287.59
893.396	287.59
893.774	250.14
894.152	278.23
894.529	271.21
894.907	346.11
895.284	346.11
895.662	229.08
896.039	313.34
896.416	329.72
896.794	325.04
897.171	278.23
897.548	322.7
897.925	392.92
898.302	315.68
898.679	289.93
899.056	350.79
899.433	294.61
899.809	311
900.186	275.89
900.563	282.91
900.939	285.25
901.316	332.06
901.692	362.49
902.069	243.12
902.445	301.64
902.821	322.7
903.197	313.34
903.574	303.98
903.95	268.87
904.326	259.51
904.702	336.74
905.078	289.93
905.454	271.21
905.829	294.61
906.205	257.17
906.581	339.09
906.956	296.96
907.332	353.13
907.707	261.85
908.083	327.38
908.458	301.64
908.833	266.53
909.209	360.15
909.584	301.64
909.959	287.59
910.334	325.04
910.709	350.79
911.084	289.93
911.459	306.32
911.834	332.06
912.209	289.93
912.583	261.85
912.958	325.04
913.333	332.06
913.707	238.44
914.082	250.14
914.456	306.32
914.83	261.85
915.205	280.57
915.579	336.74
915.953	252.49
916.327	294.61
916.701	259.51
917.075	287.59
917.449	315.68
917.823	273.55
918.197	289.93
918.571	336.74
918.944	350.79
919.318	303.98
919.692	301.64
920.065	292.27
920.438	311
920.812	285.25
921.185	336.74
921.558	325.04
921.932	278.23
922.305	236.1
922.678	224.4
923.051	315.68
923.424	322.7
923.797	294.61
924.17	320.36
924.542	353.13
924.915	388.24
925.288	266.53
925.661	336.74
926.033	315.68
926.406	322.7
926.778	313.34
927.15	257.17
927.523	353.13
927.895	271.21
928.267	285.25
928.639	350.79
929.011	266.53
929.383	308.66
929.755	325.04
930.127	308.66
930.499	299.3
930.871	350.79
931.242	282.91
931.614	341.43
931.986	306.32
932.357	343.77
932.729	346.11
933.1	348.45
933.471	285.25
933.843	303.98
934.214	318.02
934.585	292.27
934.956	306.32
935.327	280.57
935.698	336.74
936.069	287.59
936.44	264.19
936.811	299.3
937.182	315.68
937.552	334.4
937.923	289.93
938.293	287.59
938.664	264.19
939.034	346.11
939.405	299.3
939.775	325.04
940.145	280.57
940.516	306.32
940.886	306.32
941.256	296.96
941.626	299.3
941.996	231.42
942.366	261.85
942.735	275.89
943.105	336.74
943.475	311
943.845	289.93
944.214	339.09
944.584	299.3
944.953	339.09
945.323	292.27
945.692	268.87
946.061	348.45
946.43	273.55
946.8	287.59
947.169	311
947.538	332.06
947.907	259.51
948.276	282.91
948.645	322.7
949.013	348.45
949.382	285.25
949.751	322.7
950.119	404.62
950.488	322.7
950.857	296.96
951.225	303.98
951.593	233.76
951.962	306.32
952.33	289.93
952.698	308.66
953.066	364.83
953.434	273.55
953.802	275.89
954.17	254.83
954.538	282.91
954.906	264.19
955.274	357.81
955.642	275.89
956.009	301.64
956.377	264.19
956.744	301.64
957.112	259.51
957.479	294.61
957.847	264.19
958.214	301.64
958.581	282.91
958.948	280.57
959.315	341.43
959.683	353.13
960.05	245.46
960.416	287.59
960.783	245.46
961.15	294.61
961.517	215.04
961.884	287.59
962.25	261.85
962.617	301.64
962.983	247.8
963.35	301.64
963.716	275.89
964.082	292.27
964.449	339.09
964.815	257.17
965.181	325.04
965.547	294.61
965.913	348.45
966.279	259.51
966.645	285.25
967.011	364.83
967.377	285.25
967.742	278.23
968.108	346.11
968.474	289.93
968.839	315.68
969.205	350.79
969.57	238.44
969.935	334.4
970.301	287.59
970.666	308.66
971.031	280.57
971.396	252.49
971.761	294.61
972.126	322.7
972.491	348.45
972.856	311
973.221	353.13
973.586	294.61
973.95	285.25
974.315	292.27
974.679	292.27
975.044	374.19
975.408	280.57
975.773	261.85
976.137	348.45
976.501	240.78
976.866	329.72
977.23	268.87
977.594	306.32
977.958	292.27
978.322	271.21
978.686	334.4
979.049	350.79
979.413	257.17
979.777	231.42
980.141	287.59
980.504	308.66
980.868	303.98
981.231	280.57
981.595	332.06
981.958	285.25
982.321	306.32
982.684	257.17
983.048	325.04
983.411	308.66
983.774	308.66
984.137	299.3
984.5	350.79
984.862	280.57
985.225	259.51
985.588	395.26
985.951	320.36
986.313	313.34
986.676	348.45
987.038	313.34
987.401	287.59
987.763	273.55
988.125	280.57
988.488	287.59
988.85	271.21
989.212	369.51
989.574	343.77
989.936	339.09
990.298	313.34
990.66	301.64
991.022	336.74
991.383	294.61
991.745	259.51
992.107	294.61
992.468	362.49
992.83	348.45
993.191	350.79
993.553	350.79
993.914	318.02
994.275	280.57
994.637	273.55
994.998	341.43
995.359	336.74
995.72	339.09
996.081	296.96
996.442	273.55
996.803	327.38
997.163	250.14
997.524	329.72
997.885	280.57
998.245	254.83
998.606	334.4
998.966	252.49
999.327	282.91
999.687	278.23
1000.047	334.4
1000.408	280.57
1000.768	278.23
1001.128	311
1001.488	271.21
1001.848	280.57
1002.208	334.4
1002.568	294.61
1002.927	287.59
1003.287	320.36
1003.647	339.09
1004.007	271.21
1004.366	261.85
1004.726	224.4
1005.085	264.19
1005.444	292.27
1005.804	282.91
1006.163	371.85
1006.522	306.32
1006.881	329.72
1007.24	292.27
1007.599	301.64
1007.958	294.61
1008.317	327.38
1008.676	282.91
1009.035	296.96
1009.393	357.81
1009.752	275.89
1010.111	306.32
1010.469	278.23
1010.828	322.7
1011.186	259.51
1011.544	275.89
1011.903	313.34
1012.261	327.38
1012.619	289.93
1012.977	308.66
1013.335	327.38
1013.693	318.02
1014.051	315.68
1014.409	296.96
1014.767	348.45
1015.124	325.04
1015.482	334.4
1015.84	285.25
1016.197	224.4
1016.555	311
1016.912	299.3
1017.269	355.47
1017.627	275.89
1017.984	273.55
1018.341	296.96
1018.698	264.19
1019.055	264.19
1019.412	224.4
1019.769	282.91
1020.126	313.34
1020.483	287.59
1020.84	278.23
1021.196	282.91
1021.553	329.72
1021.909	294.61
1022.266	257.17
1022.622	271.21
1022.979	254.83
1023.335	367.17
1023.691	360.15
1024.047	303.98
1024.404	259.51
1024.76	315.68
1025.116	273.55
1025.472	285.25
1025.827	271.21
1026.183	285.25
1026.539	285.25
1026.895	301.64
1027.25	275.89
1027.606	301.64
1027.961	210.36
1028.317	332.06
1028.672	287.59
1029.028	322.7
1029.383	259.51
1029.738	346.11
1030.093	285.25
1030.448	392.92
1030.803	294.61
1031.158	350.79
1031.513	306.32
1031.868	303.98
1032.223	325.04
1032.577	280.57
1032.932	294.61
1033.287	327.38
1033.641	350.79
1033.996	332.06
1034.35	357.81
1034.704	289.93
1035.059	329.72
1035.413	313.34
1035.767	313.34
1036.121	313.34
