Data from Al_FLMS009871__1176__16-38-03-487.txt Node

Date: Fri Mar 08 16:38:03 CST 2024
User: pe5414po
Spectrometer: FLMS00987
Trigger mode: 0
Integration Time (sec): 1.000000E-1
Scans to average: 1
Electric dark correction enabled: true
Nonlinearity correction enabled: false
Boxcar width: 0
XAxis mode: Wavelengths
Number of Pixels in Spectrum: 2048
>>>>>Begin Spectral Data<<<<<
188.938	-85.87
189.409	-85.87
189.879	-85.87
190.349	-99.91
190.819	-104.59
191.29	-130.34
191.76	-102.25
192.23	-113.95
192.7	-62.46
193.17	-17.99
193.64	10.09
194.109	-55.44
194.579	-17.99
195.049	-20.33
195.519	33.5
195.988	-22.67
196.458	80.31
196.927	80.31
197.397	66.27
197.866	124.78
198.336	148.19
198.805	134.14
199.274	138.82
199.744	183.29
200.213	213.72
200.682	258.19
201.151	185.63
201.62	173.93
202.089	255.85
202.558	272.23
203.027	293.3
203.495	272.23
203.964	260.53
204.433	246.49
204.902	300.32
205.37	232.44
205.839	295.64
206.307	314.36
206.776	283.94
207.244	309.68
207.712	295.64
208.181	251.17
208.649	358.83
209.117	293.3
209.585	323.73
210.053	246.49
210.521	276.91
210.989	227.76
211.457	293.3
211.925	274.57
212.393	307.34
212.861	316.7
213.328	307.34
213.796	321.38
214.264	297.98
214.731	281.6
215.199	206.7
215.666	216.06
216.133	260.53
216.601	286.28
217.068	258.19
217.535	248.83
218.003	262.87
218.47	276.91
218.937	227.76
219.404	288.62
219.871	209.04
220.338	309.68
220.805	241.81
221.271	279.26
221.738	281.6
222.205	316.7
222.671	248.83
223.138	323.73
223.605	286.28
224.071	286.28
224.538	281.6
225.004	288.62
225.47	321.38
225.937	279.26
226.403	269.89
226.869	323.73
227.335	267.55
227.801	293.3
228.267	286.28
228.733	272.23
229.199	279.26
229.665	288.62
230.131	335.43
230.597	218.4
231.062	281.6
231.528	286.28
231.994	281.6
232.459	290.96
232.925	340.11
233.39	295.64
233.856	255.85
234.321	290.96
234.786	323.73
235.252	312.02
235.717	223.08
236.182	316.7
236.647	300.32
237.112	269.89
237.577	302.66
238.042	239.47
238.507	272.23
238.972	248.83
239.436	295.64
239.901	302.66
240.366	307.34
240.83	267.55
241.295	307.34
241.76	246.49
242.224	340.11
242.688	319.04
243.153	344.79
243.617	314.36
244.081	321.38
244.545	312.02
245.01	244.15
245.474	300.32
245.938	251.17
246.402	293.3
246.866	255.85
247.33	300.32
247.793	286.28
248.257	239.47
248.721	297.98
249.185	232.44
249.648	300.32
250.112	237.13
250.575	302.66
251.039	262.87
251.502	276.91
251.965	295.64
252.429	241.81
252.892	288.62
253.355	305
253.818	279.26
254.281	227.76
254.744	276.91
255.207	305
255.67	283.94
256.133	276.91
256.596	321.38
257.059	312.02
257.522	344.79
257.984	326.07
258.447	307.34
258.909	269.89
259.372	293.3
259.834	276.91
260.297	305
260.759	305
261.221	300.32
261.684	269.89
262.146	288.62
262.608	251.17
263.07	330.75
263.532	216.06
263.994	309.68
264.456	323.73
264.918	272.23
265.38	255.85
265.842	290.96
266.303	300.32
266.765	279.26
267.227	365.85
267.688	283.94
268.15	370.54
268.611	267.55
269.072	281.6
269.534	305
269.995	283.94
270.456	274.57
270.918	326.07
271.379	314.36
271.84	265.21
272.301	246.49
272.762	363.51
273.223	323.73
273.684	363.51
274.144	326.07
274.605	223.08
275.066	309.68
275.527	312.02
275.987	295.64
276.448	262.87
276.908	323.73
277.369	319.04
277.829	302.66
278.289	312.02
278.75	333.09
279.21	330.75
279.67	272.23
280.13	260.53
280.59	302.66
281.05	321.38
281.51	316.7
281.97	300.32
282.43	342.45
282.89	349.47
283.35	260.53
283.809	314.36
284.269	272.23
284.729	302.66
285.188	326.07
285.648	314.36
286.107	302.66
286.567	319.04
287.026	269.89
287.485	286.28
287.944	283.94
288.404	316.7
288.863	267.55
289.322	337.77
289.781	321.38
290.24	293.3
290.699	328.41
291.158	255.85
291.616	300.32
292.075	255.85
292.534	335.43
292.992	323.73
293.451	251.17
293.91	234.78
294.368	312.02
294.827	398.62
295.285	340.11
295.743	305
296.202	253.51
296.66	260.53
297.118	377.56
297.576	288.62
298.034	302.66
298.492	262.87
298.95	262.87
299.408	312.02
299.866	305
300.324	326.07
300.781	300.32
301.239	234.78
301.697	358.83
302.154	321.38
302.612	370.54
303.069	267.55
303.527	314.36
303.984	297.98
304.441	363.51
304.899	340.11
305.356	330.75
305.813	297.98
306.27	314.36
306.727	323.73
307.184	269.89
307.641	316.7
308.098	351.81
308.555	330.75
309.012	297.98
309.468	356.49
309.925	342.45
310.382	410.33
310.838	368.2
311.295	248.83
311.751	286.28
312.208	274.57
312.664	286.28
313.12	307.34
313.577	372.88
314.033	312.02
314.489	237.13
314.945	344.79
315.401	333.09
315.857	347.13
316.313	297.98
316.769	335.43
317.225	290.96
317.681	321.38
318.136	328.41
318.592	323.73
319.048	319.04
319.503	323.73
319.959	326.07
320.414	337.77
320.869	312.02
321.325	300.32
321.78	312.02
322.235	272.23
322.691	272.23
323.146	302.66
323.601	305
324.056	307.34
324.511	323.73
324.966	290.96
325.421	316.7
325.875	283.94
326.33	337.77
326.785	283.94
327.24	309.68
327.694	258.19
328.149	297.98
328.603	286.28
329.058	265.21
329.512	314.36
329.966	358.83
330.421	262.87
330.875	326.07
331.329	354.15
331.783	265.21
332.237	255.85
332.691	309.68
333.145	328.41
333.599	305
334.053	354.15
334.507	335.43
334.96	351.81
335.414	309.68
335.868	260.53
336.321	328.41
336.775	361.17
337.228	368.2
337.682	342.45
338.135	361.17
338.588	295.64
339.042	335.43
339.495	340.11
339.948	307.34
340.401	312.02
340.854	312.02
341.307	351.81
341.76	283.94
342.213	351.81
342.666	326.07
343.119	293.3
343.571	363.51
344.024	316.7
344.477	297.98
344.929	337.77
345.382	335.43
345.834	290.96
346.287	258.19
346.739	286.28
347.191	389.26
347.644	379.9
348.096	365.85
348.548	307.34
349	312.02
349.452	316.7
349.904	312.02
350.356	323.73
350.808	375.22
351.26	302.66
351.711	300.32
352.163	297.98
352.615	377.56
353.066	309.68
353.518	293.3
353.969	347.13
354.421	286.28
354.872	307.34
355.324	328.41
355.775	344.79
356.226	276.91
356.677	321.38
357.128	276.91
357.579	262.87
358.03	286.28
358.481	368.2
358.932	279.26
359.383	288.62
359.834	333.09
360.285	372.88
360.735	438.41
361.186	337.77
361.637	361.17
362.087	269.89
362.538	272.23
362.988	337.77
363.438	333.09
363.889	283.94
364.339	314.36
364.789	314.36
365.239	365.85
365.689	358.83
366.139	321.38
366.589	349.47
367.039	312.02
367.489	314.36
367.939	354.15
368.389	335.43
368.839	307.34
369.288	293.3
369.738	326.07
370.187	272.23
370.637	347.13
371.086	276.91
371.536	283.94
371.985	319.04
372.434	272.23
372.884	379.9
373.333	302.66
373.782	340.11
374.231	342.45
374.68	356.49
375.129	312.02
375.578	335.43
376.027	344.79
376.475	349.47
376.924	347.13
377.373	363.51
377.822	379.9
378.27	351.81
378.719	330.75
379.167	286.28
379.616	365.85
380.064	307.34
380.512	302.66
380.961	349.47
381.409	312.02
381.857	300.32
382.305	276.91
382.753	344.79
383.201	330.75
383.649	330.75
384.097	290.96
384.545	302.66
384.992	347.13
385.44	358.83
385.888	335.43
386.335	319.04
386.783	297.98
387.231	216.06
387.678	288.62
388.125	305
388.573	342.45
389.02	300.32
389.467	314.36
389.914	314.36
390.362	316.7
390.809	255.85
391.256	314.36
391.703	377.56
392.15	269.89
392.596	361.17
393.043	340.11
393.49	335.43
393.937	316.7
394.383	393.94
394.83	330.75
395.276	274.57
395.723	379.9
396.169	337.77
396.616	305
397.062	344.79
397.508	335.43
397.954	312.02
398.401	351.81
398.847	326.07
399.293	300.32
399.739	319.04
400.185	354.15
400.631	335.43
401.076	281.6
401.522	351.81
401.968	333.09
402.414	337.77
402.859	300.32
403.305	319.04
403.75	330.75
404.196	312.02
404.641	333.09
405.086	351.81
405.532	333.09
405.977	340.11
406.422	363.51
406.867	349.47
407.312	316.7
407.757	288.62
408.202	340.11
408.647	328.41
409.092	377.56
409.537	323.73
409.982	300.32
410.426	326.07
410.871	356.49
411.316	330.75
411.76	283.94
412.205	262.87
412.649	267.55
413.093	267.55
413.538	340.11
413.982	340.11
414.426	351.81
414.87	269.89
415.314	335.43
415.758	297.98
416.202	358.83
416.646	307.34
417.09	314.36
417.534	328.41
417.978	319.04
418.421	279.26
418.865	333.09
419.309	326.07
419.752	244.15
420.196	323.73
420.639	370.54
421.083	312.02
421.526	314.36
421.969	356.49
422.412	260.53
422.856	279.26
423.299	283.94
423.742	316.7
424.185	253.51
424.628	361.17
425.071	267.55
425.513	358.83
425.956	351.81
426.399	300.32
426.842	349.47
427.284	340.11
427.727	269.89
428.169	312.02
428.612	305
429.054	288.62
429.497	260.53
429.939	300.32
430.381	340.11
430.823	377.56
431.265	365.85
431.707	342.45
432.149	333.09
432.591	293.3
433.033	283.94
433.475	319.04
433.917	400.96
434.359	372.88
434.8	321.38
435.242	283.94
435.684	347.13
436.125	342.45
436.567	384.58
437.008	288.62
437.449	335.43
437.891	272.23
438.332	316.7
438.773	309.68
439.214	333.09
439.656	333.09
440.097	305
440.538	305
440.978	290.96
441.419	316.7
441.86	326.07
442.301	283.94
442.742	335.43
443.182	305
443.623	389.26
444.063	314.36
444.504	302.66
444.944	295.64
445.385	326.07
445.825	316.7
446.265	340.11
446.706	288.62
447.146	330.75
447.586	347.13
448.026	375.22
448.466	344.79
448.906	398.62
449.346	293.3
449.786	351.81
450.225	319.04
450.665	267.55
451.105	340.11
451.544	330.75
451.984	340.11
452.424	365.85
452.863	340.11
453.302	316.7
453.742	274.57
454.181	307.34
454.62	281.6
455.059	349.47
455.499	361.17
455.938	288.62
456.377	290.96
456.816	295.64
457.254	368.2
457.693	297.98
458.132	361.17
458.571	286.28
459.01	302.66
459.448	330.75
459.887	323.73
460.325	279.26
460.764	335.43
461.202	321.38
461.641	316.7
462.079	368.2
462.517	300.32
462.955	351.81
463.393	330.75
463.832	295.64
464.27	326.07
464.708	309.68
465.145	321.38
465.583	335.43
466.021	293.3
466.459	319.04
466.897	342.45
467.334	335.43
467.772	319.04
468.209	363.51
468.647	323.73
469.084	400.96
469.522	365.85
469.959	342.45
470.396	361.17
470.833	335.43
471.271	347.13
471.708	379.9
472.145	321.38
472.582	321.38
473.019	328.41
473.456	323.73
473.892	312.02
474.329	274.57
474.766	354.15
475.202	347.13
475.639	321.38
476.076	274.57
476.512	349.47
476.949	323.73
477.385	234.78
477.821	283.94
478.258	302.66
478.694	316.7
479.13	335.43
479.566	356.49
480.002	396.28
480.438	335.43
480.874	351.81
481.31	328.41
481.746	295.64
482.181	302.66
482.617	436.07
483.053	316.7
483.488	300.32
483.924	330.75
484.36	312.02
484.795	274.57
485.23	290.96
485.666	305
486.101	321.38
486.536	279.26
486.971	302.66
487.407	375.22
487.842	307.34
488.277	297.98
488.712	305
489.146	283.94
489.581	333.09
490.016	347.13
490.451	295.64
490.885	312.02
491.32	293.3
491.755	307.34
492.189	323.73
492.624	358.83
493.058	377.56
493.492	297.98
493.927	314.36
494.361	349.47
494.795	283.94
495.229	307.34
495.663	347.13
496.097	354.15
496.531	269.89
496.965	330.75
497.399	300.32
497.833	267.55
498.266	351.81
498.7	342.45
499.134	396.28
499.567	398.62
500.001	335.43
500.434	354.15
500.868	340.11
501.301	377.56
501.734	382.24
502.168	356.49
502.601	351.81
503.034	312.02
503.467	297.98
503.9	319.04
504.333	342.45
504.766	330.75
505.199	312.02
505.632	351.81
506.064	253.51
506.497	293.3
506.93	335.43
507.362	321.38
507.795	269.89
508.227	220.74
508.66	316.7
509.092	337.77
509.524	321.38
509.956	305
510.389	326.07
510.821	314.36
511.253	319.04
511.685	321.38
512.117	297.98
512.549	333.09
512.981	363.51
513.412	333.09
513.844	326.07
514.276	314.36
514.707	396.28
515.139	309.68
515.571	302.66
516.002	281.6
516.433	349.47
516.865	293.3
517.296	361.17
517.727	377.56
518.159	370.54
518.59	354.15
519.021	316.7
519.452	340.11
519.883	344.79
520.314	326.07
520.744	314.36
521.175	314.36
521.606	312.02
522.037	351.81
522.467	342.45
522.898	302.66
523.328	321.38
523.759	293.3
524.189	269.89
524.62	288.62
525.05	326.07
525.48	396.28
525.91	377.56
526.341	319.04
526.771	379.9
527.201	319.04
527.631	297.98
528.061	312.02
528.49	361.17
528.92	344.79
529.35	309.68
529.78	328.41
530.209	326.07
530.639	349.47
531.068	351.81
531.498	319.04
531.927	309.68
532.357	319.04
532.786	335.43
533.215	326.07
533.644	286.28
534.074	314.36
534.503	379.9
534.932	370.54
535.361	314.36
535.79	326.07
536.218	297.98
536.647	255.85
537.076	316.7
537.505	335.43
537.933	323.73
538.362	328.41
538.79	330.75
539.219	342.45
539.647	375.22
540.076	312.02
540.504	286.28
540.932	354.15
541.36	283.94
541.788	323.73
542.217	363.51
542.645	316.7
543.073	267.55
543.5	274.57
543.928	340.11
544.356	290.96
544.784	365.85
545.211	368.2
545.639	293.3
546.067	269.89
546.494	337.77
546.922	347.13
547.349	326.07
547.776	316.7
548.204	276.91
548.631	319.04
549.058	347.13
549.485	384.58
549.912	262.87
550.339	335.43
550.766	319.04
551.193	328.41
551.62	337.77
552.047	351.81
552.474	356.49
552.9	351.81
553.327	305
553.754	286.28
554.18	283.94
554.607	328.41
555.033	330.75
555.459	326.07
555.886	340.11
556.312	396.28
556.738	337.77
557.164	251.17
557.59	286.28
558.016	354.15
558.442	335.43
558.868	276.91
559.294	337.77
559.72	279.26
560.145	356.49
560.571	356.49
560.997	269.89
561.422	276.91
561.848	319.04
562.273	370.54
562.699	337.77
563.124	361.17
563.549	335.43
563.974	342.45
564.4	288.62
564.825	305
565.25	340.11
565.675	290.96
566.1	335.43
566.525	239.47
566.95	354.15
567.374	326.07
567.799	365.85
568.224	300.32
568.648	363.51
569.073	356.49
569.497	323.73
569.922	262.87
570.346	309.68
570.771	361.17
571.195	375.22
571.619	349.47
572.043	295.64
572.467	286.28
572.891	265.21
573.315	351.81
573.739	312.02
574.163	330.75
574.587	335.43
575.011	288.62
575.435	377.56
575.858	316.7
576.282	372.88
576.705	365.85
577.129	351.81
577.552	335.43
577.976	272.23
578.399	281.6
578.822	351.81
579.245	382.24
579.669	337.77
580.092	347.13
580.515	337.77
580.938	312.02
581.361	272.23
581.784	286.28
582.206	347.13
582.629	375.22
583.052	344.79
583.474	319.04
583.897	377.56
584.32	342.45
584.742	347.13
585.165	337.77
585.587	384.58
586.009	255.85
586.431	358.83
586.854	272.23
587.276	328.41
587.698	314.36
588.12	321.38
588.542	316.7
588.964	356.49
589.386	258.19
589.807	316.7
590.229	358.83
590.651	365.85
591.073	248.83
591.494	340.11
591.916	309.68
592.337	415.01
592.759	319.04
593.18	349.47
593.601	312.02
594.022	375.22
594.444	321.38
594.865	305
595.286	358.83
595.707	330.75
596.128	309.68
596.549	330.75
596.97	307.34
597.39	312.02
597.811	354.15
598.232	295.64
598.652	232.44
599.073	281.6
599.494	265.21
599.914	361.17
600.334	312.02
600.755	356.49
601.175	309.68
601.595	335.43
602.015	358.83
602.436	255.85
602.856	478.2
603.276	244.15
603.696	328.41
604.115	288.62
604.535	283.94
604.955	375.22
605.375	389.26
605.794	337.77
606.214	314.36
606.634	358.83
607.053	323.73
607.473	312.02
607.892	351.81
608.311	279.26
608.731	326.07
609.15	330.75
609.569	330.75
609.988	330.75
610.407	305
610.826	333.09
611.245	293.3
611.664	283.94
612.083	335.43
612.501	274.57
612.92	377.56
613.339	297.98
613.757	302.66
614.176	300.32
614.594	293.3
615.013	302.66
615.431	276.91
615.85	326.07
616.268	379.9
616.686	363.51
617.104	335.43
617.522	377.56
617.94	276.91
618.358	363.51
618.776	370.54
619.194	314.36
619.612	344.79
620.03	363.51
620.447	356.49
620.865	326.07
621.282	330.75
621.7	356.49
622.117	356.49
622.535	356.49
622.952	262.87
623.369	386.92
623.787	295.64
624.204	309.68
624.621	342.45
625.038	295.64
625.455	297.98
625.872	340.11
626.289	365.85
626.706	288.62
627.123	340.11
627.539	281.6
627.956	344.79
628.373	319.04
628.789	328.41
629.206	349.47
629.622	370.54
630.038	328.41
630.455	370.54
630.871	384.58
631.287	326.07
631.703	358.83
632.12	365.85
632.536	265.21
632.952	333.09
633.368	272.23
633.783	344.79
634.199	375.22
634.615	326.07
635.031	344.79
635.446	351.81
635.862	290.96
636.277	337.77
636.693	337.77
637.108	300.32
637.524	321.38
637.939	328.41
638.354	323.73
638.77	333.09
639.185	375.22
639.6	297.98
640.015	333.09
640.43	326.07
640.845	307.34
641.259	309.68
641.674	379.9
642.089	297.98
642.504	300.32
642.918	342.45
643.333	351.81
643.747	354.15
644.162	290.96
644.576	333.09
644.991	297.98
645.405	316.7
645.819	286.28
646.233	300.32
646.647	340.11
647.061	328.41
647.475	342.45
647.889	382.24
648.303	375.22
648.717	321.38
649.131	347.13
649.545	307.34
649.958	290.96
650.372	342.45
650.785	340.11
651.199	337.77
651.612	272.23
652.026	309.68
652.439	302.66
652.852	297.98
653.266	305
653.679	347.13
654.092	337.77
654.505	316.7
654.918	347.13
655.331	316.7
655.744	361.17
656.156	267.55
656.569	361.17
656.982	295.64
657.394	281.6
657.807	335.43
658.22	326.07
658.632	326.07
659.044	302.66
659.457	342.45
659.869	314.36
660.281	347.13
660.693	314.36
661.106	340.11
661.518	293.3
661.93	363.51
662.342	351.81
662.754	302.66
663.165	382.24
663.577	293.3
663.989	290.96
664.401	326.07
664.812	312.02
665.224	361.17
665.635	330.75
666.047	337.77
666.458	333.09
666.869	340.11
667.281	358.83
667.692	316.7
668.103	333.09
668.514	312.02
668.925	274.57
669.336	358.83
669.747	337.77
670.158	307.34
670.569	283.94
670.979	312.02
671.39	326.07
671.801	319.04
672.211	300.32
672.622	344.79
673.032	349.47
673.443	328.41
673.853	309.68
674.263	323.73
674.674	351.81
675.084	349.47
675.494	356.49
675.904	356.49
676.314	293.3
676.724	349.47
677.134	363.51
677.544	337.77
677.953	286.28
678.363	307.34
678.773	293.3
679.182	342.45
679.592	347.13
680.001	349.47
680.411	347.13
680.82	358.83
681.23	330.75
681.639	300.32
682.048	312.02
682.457	365.85
682.866	288.62
683.275	297.98
683.684	351.81
684.093	330.75
684.502	295.64
684.911	286.28
685.32	262.87
685.728	358.83
686.137	241.81
686.546	312.02
686.954	391.6
687.363	393.94
687.771	368.2
688.179	347.13
688.588	279.26
688.996	328.41
689.404	351.81
689.812	396.28
690.22	319.04
690.628	375.22
691.036	384.58
691.444	358.83
691.852	307.34
692.26	370.54
692.667	286.28
693.075	258.19
693.483	312.02
693.89	300.32
694.298	302.66
694.705	419.69
695.112	302.66
695.52	368.2
695.927	267.55
696.334	344.79
696.741	393.94
697.148	316.7
697.555	307.34
697.962	321.38
698.369	258.19
698.776	342.45
699.183	272.23
699.59	333.09
699.996	274.57
700.403	302.66
700.81	326.07
701.216	323.73
701.623	297.98
702.029	321.38
702.435	241.81
702.842	267.55
703.248	279.26
703.654	276.91
704.06	237.13
704.466	290.96
704.872	312.02
705.278	286.28
705.684	246.49
706.09	321.38
706.496	300.32
706.901	330.75
707.307	358.83
707.712	218.4
708.118	330.75
708.523	300.32
708.929	354.15
709.334	330.75
709.74	302.66
710.145	307.34
710.55	323.73
710.955	351.81
711.36	330.75
711.765	321.38
712.17	314.36
712.575	358.83
712.98	915.88
713.385	344.79
713.789	307.34
714.194	316.7
714.599	302.66
715.003	328.41
715.408	305
715.812	272.23
716.217	309.68
716.621	340.11
717.025	328.41
717.429	302.66
717.833	258.19
718.238	347.13
718.642	330.75
719.046	337.77
719.449	344.79
719.853	363.51
720.257	351.81
720.661	269.89
721.065	272.23
721.468	365.85
721.872	323.73
722.275	283.94
722.679	305
723.082	337.77
723.485	333.09
723.889	269.89
724.292	312.02
724.695	349.47
725.098	290.96
725.501	279.26
725.904	347.13
726.307	312.02
726.71	288.62
727.113	300.32
727.516	328.41
727.918	333.09
728.321	307.34
728.724	342.45
729.126	314.36
729.529	281.6
729.931	363.51
730.333	333.09
730.736	293.3
731.138	349.47
731.54	351.81
731.942	351.81
732.344	372.88
732.746	330.75
733.148	293.3
733.55	297.98
733.952	363.51
734.354	305
734.756	274.57
735.157	255.85
735.559	253.51
735.96	281.6
736.362	349.47
736.763	293.3
737.165	316.7
737.566	267.55
737.967	290.96
738.368	326.07
738.77	274.57
739.171	356.49
739.572	321.38
739.973	333.09
740.374	281.6
740.774	382.24
741.175	351.81
741.576	316.7
741.977	269.89
742.377	328.41
742.778	370.54
743.178	326.07
743.579	351.81
743.979	379.9
744.379	333.09
744.78	293.3
745.18	309.68
745.58	274.57
745.98	344.79
746.38	335.43
746.78	283.94
747.18	347.13
747.58	260.53
747.98	347.13
748.38	295.64
748.779	307.34
749.179	281.6
749.578	230.1
749.978	337.77
750.377	344.79
750.777	328.41
751.176	314.36
751.575	330.75
751.975	290.96
752.374	323.73
752.773	300.32
753.172	302.66
753.571	232.44
753.97	323.73
754.369	326.07
754.768	342.45
755.166	391.6
755.565	290.96
755.964	307.34
756.362	309.68
756.761	312.02
757.159	361.17
757.558	375.22
757.956	337.77
758.354	328.41
758.753	316.7
759.151	354.15
759.549	295.64
759.947	258.19
760.345	305
760.743	309.68
761.141	337.77
761.539	340.11
761.936	283.94
762.334	265.21
762.732	333.09
763.129	342.45
763.527	302.66
763.924	358.83
764.322	288.62
764.719	321.38
765.117	326.07
765.514	321.38
765.911	340.11
766.308	328.41
766.705	340.11
767.102	314.36
767.499	260.53
767.896	344.79
768.293	286.28
768.69	340.11
769.086	340.11
769.483	361.17
769.88	286.28
770.276	279.26
770.673	312.02
771.069	340.11
771.466	223.08
771.862	354.15
772.258	262.87
772.654	326.07
773.05	199.68
773.447	309.68
773.843	342.45
774.239	286.28
774.634	272.23
775.03	344.79
775.426	300.32
775.822	307.34
776.218	316.7
776.613	314.36
777.009	281.6
777.404	333.09
777.8	323.73
778.195	300.32
778.59	316.7
778.986	286.28
779.381	307.34
779.776	288.62
780.171	272.23
780.566	323.73
780.961	321.38
781.356	319.04
781.751	323.73
782.146	319.04
782.54	302.66
782.935	279.26
783.33	244.15
783.724	321.38
784.119	314.36
784.513	391.6
784.908	328.41
785.302	314.36
785.696	344.79
786.09	358.83
786.485	347.13
786.879	319.04
787.273	358.83
787.667	234.78
788.061	344.79
788.454	356.49
788.848	323.73
789.242	321.38
789.636	351.81
790.029	309.68
790.423	309.68
790.816	349.47
791.21	302.66
791.603	321.38
791.997	356.49
792.39	290.96
792.783	321.38
793.176	354.15
793.569	302.66
793.962	337.77
794.355	290.96
794.748	312.02
795.141	314.36
795.534	297.98
795.927	281.6
796.319	375.22
796.712	363.51
797.105	302.66
797.497	295.64
797.89	267.55
798.282	333.09
798.674	295.64
799.067	293.3
799.459	354.15
799.851	377.56
800.243	312.02
800.635	321.38
801.027	321.38
801.419	365.85
801.811	279.26
802.203	321.38
802.594	358.83
802.986	391.6
803.378	328.41
803.769	314.36
804.161	335.43
804.552	377.56
804.944	333.09
805.335	272.23
805.726	340.11
806.118	295.64
806.509	293.3
806.9	279.26
807.291	328.41
807.682	297.98
808.073	321.38
808.464	251.17
808.855	328.41
809.245	323.73
809.636	281.6
810.027	330.75
810.417	305
810.808	337.77
811.198	330.75
811.589	300.32
811.979	368.2
812.369	279.26
812.759	262.87
813.15	340.11
813.54	328.41
813.93	307.34
814.32	319.04
814.71	337.77
815.1	330.75
815.489	323.73
815.879	305
816.269	333.09
816.658	314.36
817.048	326.07
817.438	391.6
817.827	335.43
818.216	269.89
818.606	349.47
818.995	319.04
819.384	375.22
819.773	328.41
820.163	333.09
820.552	302.66
820.941	333.09
821.33	309.68
821.718	328.41
822.107	307.34
822.496	260.53
822.885	312.02
823.273	309.68
823.662	286.28
824.05	305
824.439	342.45
824.827	251.17
825.216	290.96
825.604	283.94
825.992	293.3
826.38	283.94
826.768	262.87
827.156	286.28
827.544	326.07
827.932	288.62
828.32	312.02
828.708	323.73
829.096	349.47
829.483	342.45
829.871	314.36
830.259	312.02
830.646	321.38
831.034	279.26
831.421	274.57
831.808	344.79
832.196	330.75
832.583	326.07
832.97	342.45
833.357	283.94
833.744	333.09
834.131	297.98
834.518	361.17
834.905	312.02
835.292	330.75
835.678	335.43
836.065	239.47
836.452	288.62
836.838	363.51
837.225	302.66
837.611	351.81
837.998	279.26
838.384	337.77
838.77	300.32
839.157	269.89
839.543	293.3
839.929	244.15
840.315	305
840.701	276.91
841.087	361.17
841.473	302.66
841.858	319.04
842.244	312.02
842.63	312.02
843.015	326.07
843.401	578.84
843.787	314.36
844.172	330.75
844.557	316.7
844.943	286.28
845.328	347.13
845.713	307.34
846.098	255.85
846.483	309.68
846.868	340.11
847.253	323.73
847.638	319.04
848.023	312.02
848.408	262.87
848.793	349.47
849.177	307.34
849.562	286.28
849.947	326.07
850.331	398.62
850.715	335.43
851.1	281.6
851.484	307.34
851.868	267.55
852.253	326.07
852.637	305
853.021	281.6
853.405	365.85
853.789	368.2
854.173	347.13
854.557	372.88
854.94	309.68
855.324	314.36
855.708	335.43
856.091	300.32
856.475	393.94
856.858	276.91
857.242	283.94
857.625	323.73
858.009	333.09
858.392	361.17
858.775	293.3
859.158	302.66
859.541	335.43
859.924	330.75
860.307	265.21
860.69	316.7
861.073	265.21
861.456	314.36
861.838	297.98
862.221	307.34
862.604	356.49
862.986	326.07
863.369	330.75
863.751	333.09
864.133	290.96
864.516	281.6
864.898	295.64
865.28	368.2
865.662	340.11
866.044	314.36
866.426	262.87
866.808	297.98
867.19	260.53
867.572	269.89
867.954	283.94
868.336	253.51
868.717	393.94
869.099	328.41
869.48	328.41
869.862	279.26
870.243	272.23
870.625	314.36
871.006	370.54
871.387	262.87
871.768	286.28
872.149	333.09
872.53	316.7
872.911	312.02
873.292	356.49
873.673	358.83
874.054	265.21
874.435	272.23
874.815	377.56
875.196	305
875.577	265.21
875.957	307.34
876.338	286.28
876.718	288.62
877.098	344.79
877.479	349.47
877.859	319.04
878.239	326.07
878.619	328.41
878.999	286.28
879.379	368.2
879.759	328.41
880.139	337.77
880.519	300.32
880.898	335.43
881.278	363.51
881.658	323.73
882.037	323.73
882.417	309.68
882.796	300.32
883.176	365.85
883.555	279.26
883.934	349.47
884.313	305
884.693	272.23
885.072	323.73
885.451	272.23
885.83	326.07
886.209	335.43
886.587	328.41
886.966	330.75
887.345	305
887.724	323.73
888.102	290.96
888.481	361.17
888.859	358.83
889.238	307.34
889.616	363.51
889.994	295.64
890.373	321.38
890.751	307.34
891.129	333.09
891.507	314.36
891.885	372.88
892.263	312.02
892.641	286.28
893.019	260.53
893.396	335.43
893.774	323.73
894.152	326.07
894.529	274.57
894.907	356.49
895.284	342.45
895.662	255.85
896.039	333.09
896.416	321.38
896.794	328.41
897.171	354.15
897.548	344.79
897.925	358.83
898.302	344.79
898.679	276.91
899.056	290.96
899.433	356.49
899.809	307.34
900.186	272.23
900.563	344.79
900.939	365.85
901.316	384.58
901.692	351.81
902.069	309.68
902.445	319.04
902.821	314.36
903.197	370.54
903.574	274.57
903.95	300.32
904.326	323.73
904.702	344.79
905.078	340.11
905.454	302.66
905.829	295.64
906.205	265.21
906.581	356.49
906.956	368.2
907.332	302.66
907.707	344.79
908.083	293.3
908.458	309.68
908.833	344.79
909.209	335.43
909.584	356.49
909.959	265.21
910.334	309.68
910.709	309.68
911.084	337.77
911.459	342.45
911.834	358.83
912.209	389.26
912.583	319.04
912.958	267.55
913.333	255.85
913.707	288.62
914.082	312.02
914.456	272.23
914.83	386.92
915.205	307.34
915.579	290.96
915.953	363.51
916.327	300.32
916.701	312.02
917.075	393.94
917.449	267.55
917.823	337.77
918.197	361.17
918.571	326.07
918.944	300.32
919.318	321.38
919.692	276.91
920.065	302.66
920.438	305
920.812	379.9
921.185	288.62
921.558	297.98
921.932	288.62
922.305	354.15
922.678	340.11
923.051	305
923.424	333.09
923.797	337.77
924.17	239.47
924.542	326.07
924.915	321.38
925.288	316.7
925.661	323.73
926.033	265.21
926.406	295.64
926.778	321.38
927.15	356.49
927.523	316.7
927.895	312.02
928.267	349.47
928.639	316.7
929.011	281.6
929.383	333.09
929.755	302.66
930.127	340.11
930.499	300.32
930.871	417.35
931.242	321.38
931.614	246.49
931.986	368.2
932.357	337.77
932.729	302.66
933.1	265.21
933.471	340.11
933.843	330.75
934.214	281.6
934.585	293.3
934.956	372.88
935.327	255.85
935.698	274.57
936.069	337.77
936.44	330.75
936.811	290.96
937.182	302.66
937.552	307.34
937.923	286.28
938.293	349.47
938.664	286.28
939.034	354.15
939.405	328.41
939.775	312.02
940.145	307.34
940.516	255.85
940.886	337.77
941.256	328.41
941.626	312.02
941.996	290.96
942.366	321.38
942.735	300.32
943.105	276.91
943.475	293.3
943.845	281.6
944.214	335.43
944.584	319.04
944.953	293.3
945.323	293.3
945.692	314.36
946.061	314.36
946.43	262.87
946.8	368.2
947.169	302.66
947.538	265.21
947.907	279.26
948.276	290.96
948.645	302.66
949.013	330.75
949.382	335.43
949.751	319.04
950.119	365.85
950.488	330.75
950.857	349.47
951.225	370.54
951.593	300.32
951.962	300.32
952.33	396.28
952.698	340.11
953.066	358.83
953.434	239.47
953.802	370.54
954.17	316.7
954.538	283.94
954.906	307.34
955.274	288.62
955.642	312.02
956.009	370.54
956.377	321.38
956.744	309.68
957.112	351.81
957.479	307.34
957.847	321.38
958.214	283.94
958.581	333.09
958.948	340.11
959.315	333.09
959.683	349.47
960.05	265.21
960.416	326.07
960.783	368.2
961.15	358.83
961.517	288.62
961.884	251.17
962.25	295.64
962.617	326.07
962.983	340.11
963.35	300.32
963.716	290.96
964.082	283.94
964.449	276.91
964.815	246.49
965.181	337.77
965.547	314.36
965.913	302.66
966.279	382.24
966.645	330.75
967.011	328.41
967.377	297.98
967.742	279.26
968.108	300.32
968.474	321.38
968.839	319.04
969.205	290.96
969.57	290.96
969.935	248.83
970.301	260.53
970.666	290.96
971.031	398.62
971.396	314.36
971.761	297.98
972.126	319.04
972.491	323.73
972.856	293.3
973.221	349.47
973.586	309.68
973.95	300.32
974.315	344.79
974.679	279.26
975.044	330.75
975.408	300.32
975.773	333.09
976.137	356.49
976.501	333.09
976.866	297.98
977.23	300.32
977.594	330.75
977.958	379.9
978.322	335.43
978.686	262.87
979.049	337.77
979.413	293.3
979.777	297.98
980.141	379.9
980.504	300.32
980.868	305
981.231	340.11
981.595	333.09
981.958	312.02
982.321	295.64
982.684	260.53
983.048	293.3
983.411	260.53
983.774	237.13
984.137	312.02
984.5	314.36
984.862	321.38
985.225	309.68
985.588	297.98
985.951	274.57
986.313	307.34
986.676	283.94
987.038	323.73
987.401	333.09
987.763	363.51
988.125	314.36
988.488	349.47
988.85	330.75
989.212	344.79
989.574	342.45
989.936	335.43
990.298	363.51
990.66	368.2
991.022	272.23
991.383	340.11
991.745	389.26
992.107	272.23
992.468	330.75
992.83	319.04
993.191	321.38
993.553	358.83
993.914	356.49
994.275	335.43
994.637	323.73
994.998	335.43
995.359	312.02
995.72	342.45
996.081	281.6
996.442	354.15
996.803	276.91
997.163	349.47
997.524	335.43
997.885	379.9
998.245	319.04
998.606	344.79
998.966	307.34
999.327	379.9
999.687	307.34
1000.047	328.41
1000.408	300.32
1000.768	342.45
1001.128	312.02
1001.488	272.23
1001.848	262.87
1002.208	276.91
1002.568	288.62
1002.927	288.62
1003.287	267.55
1003.647	337.77
1004.007	335.43
1004.366	314.36
1004.726	319.04
1005.085	312.02
1005.444	375.22
1005.804	290.96
1006.163	265.21
1006.522	375.22
1006.881	283.94
1007.24	305
1007.599	347.13
1007.958	297.98
1008.317	361.17
1008.676	312.02
1009.035	265.21
1009.393	337.77
1009.752	276.91
1010.111	307.34
1010.469	316.7
1010.828	251.17
1011.186	309.68
1011.544	307.34
1011.903	244.15
1012.261	356.49
1012.619	300.32
1012.977	267.55
1013.335	286.28
1013.693	300.32
1014.051	365.85
1014.409	356.49
1014.767	302.66
1015.124	232.44
1015.482	337.77
1015.84	267.55
1016.197	328.41
1016.555	302.66
1016.912	323.73
1017.269	323.73
1017.627	279.26
1017.984	305
1018.341	335.43
1018.698	255.85
1019.055	326.07
1019.412	309.68
1019.769	269.89
1020.126	300.32
1020.483	344.79
1020.84	351.81
1021.196	389.26
1021.553	356.49
1021.909	295.64
1022.266	333.09
1022.622	321.38
1022.979	354.15
1023.335	375.22
1023.691	316.7
1024.047	316.7
1024.404	340.11
1024.76	328.41
1025.116	351.81
1025.472	314.36
1025.827	328.41
1026.183	321.38
1026.539	323.73
1026.895	302.66
1027.25	316.7
1027.606	276.91
1027.961	307.34
1028.317	316.7
1028.672	312.02
1029.028	305
1029.383	335.43
1029.738	300.32
1030.093	347.13
1030.448	330.75
1030.803	293.3
1031.158	295.64
1031.513	276.91
1031.868	262.87
1032.223	246.49
1032.577	335.43
1032.932	265.21
1033.287	297.98
1033.641	309.68
1033.996	269.89
1034.35	309.68
1034.704	255.85
1035.059	370.54
1035.413	347.13
1035.767	347.13
1036.121	347.13
