Data from Al_FLMS009871__1169__16-38-02-787.txt Node

Date: Fri Mar 08 16:38:02 CST 2024
User: pe5414po
Spectrometer: FLMS00987
Trigger mode: 0
Integration Time (sec): 1.000000E-1
Scans to average: 1
Electric dark correction enabled: true
Nonlinearity correction enabled: false
Boxcar width: 0
XAxis mode: Wavelengths
Number of Pixels in Spectrum: 2048
>>>>>Begin Spectral Data<<<<<
188.938	-60.42
189.409	-60.42
189.879	-60.42
190.349	-37.01
190.819	-121.27
191.29	-74.46
191.76	-135.31
192.23	-86.16
192.7	-90.84
193.17	-72.12
193.64	2.78
194.109	-102.54
194.579	-51.05
195.049	40.23
195.519	-1.9
195.988	73
196.458	68.31
196.927	131.51
197.397	44.91
197.866	103.42
198.336	150.23
198.805	115.13
199.274	180.66
199.744	206.41
200.213	222.79
200.682	204.07
201.151	278.96
201.62	190.02
202.089	288.32
202.558	257.9
203.027	243.85
203.495	248.54
203.964	260.24
204.433	337.48
204.902	332.79
205.37	311.73
205.839	323.43
206.307	328.11
206.776	386.63
207.244	323.43
207.712	339.82
208.181	318.75
208.649	302.37
209.117	269.6
209.585	290.67
210.053	302.37
210.521	344.5
210.989	278.96
211.457	276.62
211.925	335.14
212.393	302.37
212.861	281.3
213.328	300.03
213.796	271.94
214.264	337.48
214.731	302.37
215.199	255.56
215.666	213.43
216.133	335.14
216.601	241.51
217.068	311.73
217.535	274.28
218.003	271.94
218.47	309.39
218.937	314.07
219.404	269.6
219.871	255.56
220.338	246.2
220.805	358.54
221.271	285.98
221.738	239.17
222.205	264.92
222.671	222.79
223.138	288.32
223.605	276.62
224.071	197.04
224.538	264.92
225.004	300.03
225.47	290.67
225.937	295.35
226.403	288.32
226.869	335.14
227.335	278.96
227.801	335.14
228.267	285.98
228.733	318.75
229.199	276.62
229.665	285.98
230.131	262.58
230.597	257.9
231.062	325.77
231.528	342.16
231.994	257.9
232.459	264.92
232.925	271.94
233.39	281.3
233.856	285.98
234.321	267.26
234.786	278.96
235.252	353.86
235.717	302.37
236.182	351.52
236.647	295.35
237.112	239.17
237.577	262.58
238.042	302.37
238.507	262.58
238.972	285.98
239.436	374.92
239.901	283.64
240.366	302.37
240.83	358.54
241.295	318.75
241.76	353.86
242.224	246.2
242.688	325.77
243.153	307.05
243.617	307.05
244.081	304.71
244.545	297.69
245.01	304.71
245.474	281.3
245.938	342.16
246.402	318.75
246.866	374.92
247.33	295.35
247.793	260.24
248.257	360.88
248.721	344.5
249.185	269.6
249.648	318.75
250.112	309.39
250.575	351.52
251.039	318.75
251.502	384.29
251.965	288.32
252.429	302.37
252.892	267.26
253.355	293.01
253.818	297.69
254.281	328.11
254.744	311.73
255.207	356.2
255.67	316.41
256.133	290.67
256.596	316.41
257.059	293.01
257.522	311.73
257.984	323.43
258.447	241.51
258.909	309.39
259.372	311.73
259.834	325.77
260.297	295.35
260.759	346.84
261.221	339.82
261.684	339.82
262.146	271.94
262.608	281.3
263.07	325.77
263.532	316.41
263.994	344.5
264.456	316.41
264.918	349.18
265.38	248.54
265.842	257.9
266.303	356.2
266.765	267.26
267.227	278.96
267.688	271.94
268.15	337.48
268.611	260.24
269.072	337.48
269.534	314.07
269.995	283.64
270.456	316.41
270.918	290.67
271.379	316.41
271.84	304.71
272.301	358.54
272.762	318.75
273.223	288.32
273.684	342.16
274.144	304.71
274.605	302.37
275.066	344.5
275.527	271.94
275.987	271.94
276.448	318.75
276.908	283.64
277.369	300.03
277.829	330.45
278.289	316.41
278.75	321.09
279.21	246.2
279.67	288.32
280.13	325.77
280.59	257.9
281.05	278.96
281.51	316.41
281.97	356.2
282.43	300.03
282.89	314.07
283.35	318.75
283.809	304.71
284.269	297.69
284.729	278.96
285.188	356.2
285.648	325.77
286.107	290.67
286.567	323.43
287.026	309.39
287.485	349.18
287.944	290.67
288.404	250.88
288.863	356.2
289.322	349.18
289.781	349.18
290.24	297.69
290.699	342.16
291.158	302.37
291.616	377.27
292.075	316.41
292.534	351.52
292.992	262.58
293.451	283.64
293.91	372.58
294.368	356.2
294.827	342.16
295.285	307.05
295.743	367.9
296.202	332.79
296.66	400.67
297.118	295.35
297.576	318.75
298.034	372.58
298.492	276.62
298.95	290.67
299.408	300.03
299.866	353.86
300.324	285.98
300.781	276.62
301.239	358.54
301.697	363.22
302.154	374.92
302.612	388.97
303.069	328.11
303.527	316.41
303.984	346.84
304.441	339.82
304.899	332.79
305.356	367.9
305.813	337.48
306.27	358.54
306.727	321.09
307.184	360.88
307.641	335.14
308.098	339.82
308.555	339.82
309.012	330.45
309.468	314.07
309.925	318.75
310.382	297.69
310.838	269.6
311.295	260.24
311.751	356.2
312.208	316.41
312.664	314.07
313.12	285.98
313.577	304.71
314.033	335.14
314.489	309.39
314.945	281.3
315.401	328.11
315.857	337.48
316.313	323.43
316.769	302.37
317.225	381.95
317.681	344.5
318.136	358.54
318.592	314.07
319.048	344.5
319.503	407.69
319.959	309.39
320.414	344.5
320.869	356.2
321.325	351.52
321.78	323.43
322.235	264.92
322.691	281.3
323.146	325.77
323.601	337.48
324.056	290.67
324.511	278.96
324.966	325.77
325.421	342.16
325.875	367.9
326.33	316.41
326.785	356.2
327.24	323.43
327.694	356.2
328.149	424.08
328.603	318.75
329.058	349.18
329.512	379.61
329.966	307.05
330.421	321.09
330.875	372.58
331.329	288.32
331.783	271.94
332.237	300.03
332.691	344.5
333.145	290.67
333.599	309.39
334.053	321.09
334.507	367.9
334.96	351.52
335.414	316.41
335.868	391.31
336.321	349.18
336.775	353.86
337.228	304.71
337.682	295.35
338.135	281.3
338.588	278.96
339.042	337.48
339.495	351.52
339.948	285.98
340.401	321.09
340.854	281.3
341.307	321.09
341.76	346.84
342.213	314.07
342.666	330.45
343.119	339.82
343.571	349.18
344.024	316.41
344.477	318.75
344.929	325.77
345.382	278.96
345.834	325.77
346.287	314.07
346.739	274.28
347.191	318.75
347.644	314.07
348.096	314.07
348.548	309.39
349	325.77
349.452	297.69
349.904	262.58
350.356	356.2
350.808	335.14
351.26	342.16
351.711	300.03
352.163	297.69
352.615	321.09
353.066	300.03
353.518	379.61
353.969	325.77
354.421	384.29
354.872	316.41
355.324	330.45
355.775	370.24
356.226	337.48
356.677	325.77
357.128	370.24
357.579	349.18
358.03	351.52
358.481	321.09
358.932	262.58
359.383	356.2
359.834	349.18
360.285	360.88
360.735	339.82
361.186	316.41
361.637	321.09
362.087	330.45
362.538	360.88
362.988	293.01
363.438	309.39
363.889	335.14
364.339	349.18
364.789	337.48
365.239	325.77
365.689	344.5
366.139	360.88
366.589	344.5
367.039	349.18
367.489	412.37
367.939	346.84
368.389	332.79
368.839	365.56
369.288	372.58
369.738	302.37
370.187	325.77
370.637	309.39
371.086	335.14
371.536	257.9
371.985	283.64
372.434	337.48
372.884	330.45
373.333	374.92
373.782	328.11
374.231	358.54
374.68	311.73
375.129	321.09
375.578	363.22
376.027	250.88
376.475	358.54
376.924	307.05
377.373	307.05
377.822	360.88
378.27	388.97
378.719	311.73
379.167	360.88
379.616	304.71
380.064	370.24
380.512	304.71
380.961	335.14
381.409	328.11
381.857	328.11
382.305	398.33
382.753	388.97
383.201	328.11
383.649	377.27
384.097	414.71
384.545	309.39
384.992	384.29
385.44	428.76
385.888	344.5
386.335	358.54
386.783	274.28
387.231	377.27
387.678	342.16
388.125	328.11
388.573	325.77
389.02	339.82
389.467	302.37
389.914	332.79
390.362	386.63
390.809	346.84
391.256	278.96
391.703	344.5
392.15	356.2
392.596	325.77
393.043	349.18
393.49	388.97
393.937	370.24
394.383	349.18
394.83	309.39
395.276	335.14
395.723	304.71
396.169	337.48
396.616	241.51
397.062	316.41
397.508	398.33
397.954	337.48
398.401	288.32
398.847	342.16
399.293	262.58
399.739	328.11
400.185	358.54
400.631	337.48
401.076	328.11
401.522	344.5
401.968	339.82
402.414	358.54
402.859	344.5
403.305	288.32
403.75	309.39
404.196	293.01
404.641	307.05
405.086	337.48
405.532	360.88
405.977	321.09
406.422	311.73
406.867	328.11
407.312	353.86
407.757	379.61
408.202	386.63
408.647	339.82
409.092	377.27
409.537	360.88
409.982	332.79
410.426	330.45
410.871	367.9
411.316	410.03
411.76	337.48
412.205	365.56
412.649	302.37
413.093	297.69
413.538	300.03
413.982	269.6
414.426	367.9
414.87	302.37
415.314	332.79
415.758	391.31
416.202	384.29
416.646	353.86
417.09	363.22
417.534	304.71
417.978	365.56
418.421	363.22
418.865	323.43
419.309	304.71
419.752	332.79
420.196	339.82
420.639	342.16
421.083	328.11
421.526	300.03
421.969	337.48
422.412	316.41
422.856	332.79
423.299	330.45
423.742	372.58
424.185	316.41
424.628	374.92
425.071	337.48
425.513	381.95
425.956	365.56
426.399	318.75
426.842	367.9
427.284	307.05
427.727	332.79
428.169	358.54
428.612	339.82
429.054	363.22
429.497	356.2
429.939	248.54
430.381	321.09
430.823	325.77
431.265	356.2
431.707	363.22
432.149	351.52
432.591	316.41
433.033	384.29
433.475	283.64
433.917	309.39
434.359	318.75
434.8	323.43
435.242	367.9
435.684	367.9
436.125	377.27
436.567	325.77
437.008	351.52
437.449	325.77
437.891	349.18
438.332	316.41
438.773	365.56
439.214	309.39
439.656	388.97
440.097	363.22
440.538	323.43
440.978	381.95
441.419	363.22
441.86	374.92
442.301	285.98
442.742	314.07
443.182	351.52
443.623	398.33
444.063	302.37
444.504	314.07
444.944	356.2
445.385	346.84
445.825	388.97
446.265	353.86
446.706	267.26
447.146	260.24
447.586	288.32
448.026	346.84
448.466	388.97
448.906	356.2
449.346	384.29
449.786	314.07
450.225	278.96
450.665	356.2
451.105	274.28
451.544	363.22
451.984	281.3
452.424	318.75
452.863	316.41
453.302	293.01
453.742	257.9
454.181	424.08
454.62	307.05
455.059	300.03
455.499	330.45
455.938	342.16
456.377	353.86
456.816	346.84
457.254	311.73
457.693	363.22
458.132	374.92
458.571	314.07
459.01	367.9
459.448	321.09
459.887	379.61
460.325	339.82
460.764	342.16
461.202	330.45
461.641	339.82
462.079	318.75
462.517	321.09
462.955	328.11
463.393	410.03
463.832	344.5
464.27	297.69
464.708	363.22
465.145	377.27
465.583	290.67
466.021	323.43
466.459	356.2
466.897	295.35
467.334	377.27
467.772	264.92
468.209	295.35
468.647	297.69
469.084	300.03
469.522	339.82
469.959	311.73
470.396	370.24
470.833	351.52
471.271	349.18
471.708	288.32
472.145	349.18
472.582	337.48
473.019	342.16
473.456	297.69
473.892	407.69
474.329	405.35
474.766	353.86
475.202	285.98
475.639	318.75
476.076	328.11
476.512	344.5
476.949	360.88
477.385	337.48
477.821	264.92
478.258	335.14
478.694	281.3
479.13	342.16
479.566	316.41
480.002	335.14
480.438	332.79
480.874	358.54
481.31	290.67
481.746	304.71
482.181	337.48
482.617	318.75
483.053	363.22
483.488	410.03
483.924	342.16
484.36	302.37
484.795	358.54
485.23	309.39
485.666	351.52
486.101	318.75
486.536	288.32
486.971	283.64
487.407	260.24
487.842	374.92
488.277	358.54
488.712	332.79
489.146	358.54
489.581	351.52
490.016	367.9
490.451	335.14
490.885	332.79
491.32	349.18
491.755	337.48
492.189	321.09
492.624	337.48
493.058	398.33
493.492	269.6
493.927	353.86
494.361	381.95
494.795	307.05
495.229	304.71
495.663	356.2
496.097	351.52
496.531	360.88
496.965	304.71
497.399	332.79
497.833	386.63
498.266	365.56
498.7	365.56
499.134	304.71
499.567	304.71
500.001	307.05
500.434	339.82
500.868	339.82
501.301	370.24
501.734	323.43
502.168	262.58
502.601	344.5
503.034	307.05
503.467	370.24
503.9	318.75
504.333	358.54
504.766	318.75
505.199	314.07
505.632	309.39
506.064	358.54
506.497	344.5
506.93	367.9
507.362	388.97
507.795	363.22
508.227	288.32
508.66	295.35
509.092	325.77
509.524	332.79
509.956	295.35
510.389	407.69
510.821	374.92
511.253	351.52
511.685	365.56
512.117	346.84
512.549	243.85
512.981	307.05
513.412	342.16
513.844	353.86
514.276	428.76
514.707	260.24
515.139	328.11
515.571	318.75
516.002	262.58
516.433	328.11
516.865	295.35
517.296	349.18
517.727	316.41
518.159	311.73
518.59	293.01
519.021	337.48
519.452	386.63
519.883	384.29
520.314	325.77
520.744	386.63
521.175	372.58
521.606	330.45
522.037	381.95
522.467	295.35
522.898	381.95
523.328	332.79
523.759	321.09
524.189	384.29
524.62	314.07
525.05	304.71
525.48	285.98
525.91	330.45
526.341	335.14
526.771	356.2
527.201	295.35
527.631	323.43
528.061	330.45
528.49	314.07
528.92	293.01
529.35	318.75
529.78	220.45
530.209	302.37
530.639	239.17
531.068	288.32
531.498	363.22
531.927	328.11
532.357	419.39
532.786	356.2
533.215	379.61
533.644	342.16
534.074	367.9
534.503	332.79
534.932	297.69
535.361	360.88
535.79	328.11
536.218	363.22
536.647	323.43
537.076	309.39
537.505	328.11
537.933	293.01
538.362	407.69
538.79	365.56
539.219	339.82
539.647	358.54
540.076	344.5
540.504	356.2
540.932	325.77
541.36	353.86
541.788	283.64
542.217	295.35
542.645	363.22
543.073	365.56
543.5	318.75
543.928	321.09
544.356	309.39
544.784	304.71
545.211	363.22
545.639	311.73
546.067	321.09
546.494	321.09
546.922	276.62
547.349	304.71
547.776	372.58
548.204	330.45
548.631	311.73
549.058	304.71
549.485	295.35
549.912	374.92
550.339	297.69
550.766	339.82
551.193	300.03
551.62	290.67
552.047	367.9
552.474	271.94
552.9	344.5
553.327	363.22
553.754	274.28
554.18	335.14
554.607	400.67
555.033	374.92
555.459	388.97
555.886	325.77
556.312	370.24
556.738	342.16
557.164	381.95
557.59	314.07
558.016	388.97
558.442	309.39
558.868	360.88
559.294	318.75
559.72	271.94
560.145	342.16
560.571	311.73
560.997	295.35
561.422	302.37
561.848	283.64
562.273	332.79
562.699	278.96
563.124	328.11
563.549	386.63
563.974	330.45
564.4	337.48
564.825	356.2
565.25	330.45
565.675	381.95
566.1	321.09
566.525	339.82
566.95	274.28
567.374	330.45
567.799	342.16
568.224	274.28
568.648	335.14
569.073	358.54
569.497	349.18
569.922	384.29
570.346	400.67
570.771	342.16
571.195	339.82
571.619	349.18
572.043	307.05
572.467	271.94
572.891	323.43
573.315	316.41
573.739	311.73
574.163	318.75
574.587	358.54
575.011	379.61
575.435	318.75
575.858	339.82
576.282	325.77
576.705	330.45
577.129	360.88
577.552	377.27
577.976	353.86
578.399	370.24
578.822	349.18
579.245	454.5
579.669	288.32
580.092	323.43
580.515	328.11
580.938	297.69
581.361	290.67
581.784	281.3
582.206	388.97
582.629	330.45
583.052	346.84
583.474	335.14
583.897	381.95
584.32	323.43
584.742	321.09
585.165	293.01
585.587	253.22
586.009	365.56
586.431	360.88
586.854	297.69
587.276	335.14
587.698	330.45
588.12	349.18
588.542	365.56
588.964	290.67
589.386	360.88
589.807	391.31
590.229	386.63
590.651	353.86
591.073	321.09
591.494	328.11
591.916	262.58
592.337	395.99
592.759	346.84
593.18	381.95
593.601	344.5
594.022	344.5
594.444	335.14
594.865	363.22
595.286	309.39
595.707	342.16
596.128	314.07
596.549	370.24
596.97	370.24
597.39	353.86
597.811	342.16
598.232	337.48
598.652	323.43
599.073	351.52
599.494	365.56
599.914	281.3
600.334	325.77
600.755	384.29
601.175	351.52
601.595	358.54
602.015	330.45
602.436	332.79
602.856	410.03
603.276	314.07
603.696	330.45
604.115	255.56
604.535	323.43
604.955	393.65
605.375	356.2
605.794	297.69
606.214	330.45
606.634	281.3
607.053	358.54
607.473	353.86
607.892	281.3
608.311	330.45
608.731	339.82
609.15	344.5
609.569	309.39
609.988	358.54
610.407	372.58
610.826	297.69
611.245	271.94
611.664	311.73
612.083	353.86
612.501	285.98
612.92	314.07
613.339	325.77
613.757	339.82
614.176	309.39
614.594	309.39
615.013	337.48
615.431	318.75
615.85	330.45
616.268	381.95
616.686	372.58
617.104	311.73
617.522	293.01
617.94	335.14
618.358	332.79
618.776	403.01
619.194	321.09
619.612	414.71
620.03	388.97
620.447	328.11
620.865	372.58
621.282	339.82
621.7	335.14
622.117	295.35
622.535	349.18
622.952	379.61
623.369	363.22
623.787	351.52
624.204	365.56
624.621	349.18
625.038	356.2
625.455	323.43
625.872	304.71
626.289	358.54
626.706	325.77
627.123	367.9
627.539	295.35
627.956	356.2
628.373	335.14
628.789	323.43
629.206	353.86
629.622	318.75
630.038	307.05
630.455	370.24
630.871	323.43
631.287	346.84
631.703	293.01
632.12	318.75
632.536	271.94
632.952	332.79
633.368	363.22
633.783	297.69
634.199	353.86
634.615	297.69
635.031	285.98
635.446	346.84
635.862	346.84
636.277	351.52
636.693	398.33
637.108	323.43
637.524	391.31
637.939	349.18
638.354	351.52
638.77	351.52
639.185	290.67
639.6	356.2
640.015	381.95
640.43	342.16
640.845	323.43
641.259	400.67
641.674	330.45
642.089	314.07
642.504	295.35
642.918	388.97
643.333	318.75
643.747	311.73
644.162	337.48
644.576	314.07
644.991	342.16
645.405	367.9
645.819	316.41
646.233	307.05
646.647	337.48
647.061	426.42
647.475	358.54
647.889	318.75
648.303	328.11
648.717	288.32
649.131	412.37
649.545	335.14
649.958	288.32
650.372	349.18
650.785	332.79
651.199	321.09
651.612	365.56
652.026	332.79
652.439	325.77
652.852	388.97
653.266	297.69
653.679	325.77
654.092	351.52
654.505	356.2
654.918	253.22
655.331	300.03
655.744	374.92
656.156	384.29
656.569	297.69
656.982	321.09
657.394	316.41
657.807	316.41
658.22	358.54
658.632	351.52
659.044	283.64
659.457	328.11
659.869	328.11
660.281	372.58
660.693	300.03
661.106	367.9
661.518	353.86
661.93	353.86
662.342	346.84
662.754	330.45
663.165	302.37
663.577	388.97
663.989	314.07
664.401	288.32
664.812	330.45
665.224	293.01
665.635	370.24
666.047	337.48
666.458	388.97
666.869	349.18
667.281	302.37
667.692	346.84
668.103	335.14
668.514	328.11
668.925	363.22
669.336	316.41
669.747	321.09
670.158	300.03
670.569	349.18
670.979	370.24
671.39	346.84
671.801	316.41
672.211	344.5
672.622	307.05
673.032	351.52
673.443	316.41
673.853	351.52
674.263	370.24
674.674	337.48
675.084	328.11
675.494	332.79
675.904	379.61
676.314	300.03
676.724	353.86
677.134	381.95
677.544	365.56
677.953	360.88
678.363	321.09
678.773	346.84
679.182	351.52
679.592	344.5
680.001	285.98
680.411	321.09
680.82	325.77
681.23	309.39
681.639	351.52
682.048	337.48
682.457	321.09
682.866	290.67
683.275	349.18
683.684	295.35
684.093	353.86
684.502	283.64
684.911	363.22
685.32	386.63
685.728	365.56
686.137	243.85
686.546	321.09
686.954	459.18
687.363	372.58
687.771	339.82
688.179	358.54
688.588	297.69
688.996	316.41
689.404	323.43
689.812	339.82
690.22	353.86
690.628	360.88
691.036	379.61
691.444	337.48
691.852	297.69
692.26	346.84
692.667	304.71
693.075	388.97
693.483	367.9
693.89	328.11
694.298	269.6
694.705	346.84
695.112	332.79
695.52	302.37
695.927	283.64
696.334	351.52
696.741	349.18
697.148	328.11
697.555	377.27
697.962	335.14
698.369	370.24
698.776	316.41
699.183	330.45
699.59	311.73
699.996	398.33
700.403	304.71
700.81	346.84
701.216	372.58
701.623	297.69
702.029	300.03
702.435	365.56
702.842	307.05
703.248	337.48
703.654	318.75
704.06	325.77
704.466	335.14
704.872	328.11
705.278	311.73
705.684	386.63
706.09	309.39
706.496	351.52
706.901	316.41
707.307	307.05
707.712	297.69
708.118	353.86
708.523	370.24
708.929	271.94
709.334	370.24
709.74	290.67
710.145	365.56
710.55	346.84
710.955	302.37
711.36	304.71
711.765	339.82
712.17	349.18
712.575	293.01
712.98	938.99
713.385	360.88
713.789	293.01
714.194	363.22
714.599	278.96
715.003	339.82
715.408	323.43
715.812	325.77
716.217	360.88
716.621	356.2
717.025	330.45
717.429	318.75
717.833	304.71
718.238	365.56
718.642	316.41
719.046	358.54
719.449	335.14
719.853	374.92
720.257	335.14
720.661	328.11
721.065	330.45
721.468	257.9
721.872	321.09
722.275	285.98
722.679	264.92
723.082	391.31
723.485	346.84
723.889	311.73
724.292	318.75
724.695	377.27
725.098	314.07
725.501	250.88
725.904	278.96
726.307	363.22
726.71	381.95
727.113	403.01
727.516	351.52
727.918	332.79
728.321	276.62
728.724	332.79
729.126	335.14
729.529	360.88
729.931	337.48
730.333	309.39
730.736	328.11
731.138	304.71
731.54	370.24
731.942	307.05
732.344	372.58
732.746	293.01
733.148	342.16
733.55	318.75
733.952	295.35
734.354	285.98
734.756	307.05
735.157	318.75
735.559	339.82
735.96	295.35
736.362	374.92
736.763	337.48
737.165	325.77
737.566	349.18
737.967	253.22
738.368	330.45
738.77	335.14
739.171	332.79
739.572	381.95
739.973	325.77
740.374	363.22
740.774	323.43
741.175	328.11
741.576	351.52
741.977	243.85
742.377	360.88
742.778	351.52
743.178	358.54
743.579	370.24
743.979	335.14
744.379	360.88
744.78	318.75
745.18	302.37
745.58	328.11
745.98	328.11
746.38	356.2
746.78	302.37
747.18	297.69
747.58	353.86
747.98	278.96
748.38	269.6
748.779	330.45
749.179	365.56
749.578	356.2
749.978	342.16
750.377	318.75
750.777	325.77
751.176	353.86
751.575	311.73
751.975	328.11
752.374	246.2
752.773	384.29
753.172	370.24
753.571	307.05
753.97	325.77
754.369	363.22
754.768	330.45
755.166	318.75
755.565	300.03
755.964	342.16
756.362	323.43
756.761	316.41
757.159	339.82
757.558	372.58
757.956	295.35
758.354	342.16
758.753	370.24
759.151	311.73
759.549	276.62
759.947	346.84
760.345	384.29
760.743	285.98
761.141	269.6
761.539	290.67
761.936	363.22
762.334	381.95
762.732	285.98
763.129	318.75
763.527	288.32
763.924	314.07
764.322	342.16
764.719	342.16
765.117	344.5
765.514	285.98
765.911	332.79
766.308	337.48
766.705	262.58
767.102	370.24
767.499	384.29
767.896	370.24
768.293	358.54
768.69	260.24
769.086	290.67
769.483	321.09
769.88	314.07
770.276	302.37
770.673	365.56
771.069	330.45
771.466	344.5
771.862	332.79
772.258	349.18
772.654	349.18
773.05	307.05
773.447	337.48
773.843	356.2
774.239	330.45
774.634	377.27
775.03	332.79
775.426	363.22
775.822	293.01
776.218	367.9
776.613	344.5
777.009	388.97
777.404	360.88
777.8	288.32
778.195	311.73
778.59	318.75
778.986	262.58
779.381	365.56
779.776	351.52
780.171	381.95
780.566	353.86
780.961	283.64
781.356	307.05
781.751	356.2
782.146	328.11
782.54	346.84
782.935	325.77
783.33	365.56
783.724	316.41
784.119	325.77
784.513	330.45
784.908	304.71
785.302	349.18
785.696	323.43
786.09	370.24
786.485	302.37
786.879	332.79
787.273	344.5
787.667	351.52
788.061	328.11
788.454	353.86
788.848	267.26
789.242	295.35
789.636	370.24
790.029	358.54
790.423	332.79
790.816	328.11
791.21	388.97
791.603	314.07
791.997	330.45
792.39	351.52
792.783	367.9
793.176	356.2
793.569	309.39
793.962	381.95
794.355	323.43
794.748	339.82
795.141	330.45
795.534	311.73
795.927	328.11
796.319	407.69
796.712	260.24
797.105	321.09
797.497	358.54
797.89	297.69
798.282	365.56
798.674	407.69
799.067	302.37
799.459	307.05
799.851	314.07
800.243	386.63
800.635	318.75
801.027	386.63
801.419	351.52
801.811	328.11
802.203	307.05
802.594	353.86
802.986	288.32
803.378	328.11
803.769	325.77
804.161	379.61
804.552	290.67
804.944	323.43
805.335	372.58
805.726	290.67
806.118	342.16
806.509	311.73
806.9	309.39
807.291	323.43
807.682	353.86
808.073	323.43
808.464	330.45
808.855	349.18
809.245	351.52
809.636	360.88
810.027	239.17
810.417	302.37
810.808	353.86
811.198	300.03
811.589	351.52
811.979	407.69
812.369	358.54
812.759	328.11
813.15	339.82
813.54	365.56
813.93	309.39
814.32	349.18
814.71	339.82
815.1	353.86
815.489	367.9
815.879	302.37
816.269	335.14
816.658	381.95
817.048	342.16
817.438	325.77
817.827	339.82
818.216	388.97
818.606	388.97
818.995	379.61
819.384	318.75
819.773	372.58
820.163	314.07
820.552	328.11
820.941	356.2
821.33	391.31
821.718	342.16
822.107	318.75
822.496	330.45
822.885	349.18
823.273	365.56
823.662	370.24
824.05	405.35
824.439	367.9
824.827	293.01
825.216	307.05
825.604	342.16
825.992	321.09
826.38	353.86
826.768	293.01
827.156	300.03
827.544	323.43
827.932	344.5
828.32	328.11
828.708	349.18
829.096	311.73
829.483	332.79
829.871	290.67
830.259	297.69
830.646	321.09
831.034	381.95
831.421	351.52
831.808	311.73
832.196	304.71
832.583	293.01
832.97	300.03
833.357	276.62
833.744	363.22
834.131	314.07
834.518	311.73
834.905	302.37
835.292	304.71
835.678	271.94
836.065	356.2
836.452	353.86
836.838	321.09
837.225	295.35
837.611	269.6
837.998	325.77
838.384	356.2
838.77	307.05
839.157	295.35
839.543	323.43
839.929	328.11
840.315	377.27
840.701	384.29
841.087	342.16
841.473	309.39
841.858	283.64
842.244	325.77
842.63	372.58
843.015	342.16
843.401	587.91
843.787	414.71
844.172	356.2
844.557	328.11
844.943	290.67
845.328	318.75
845.713	335.14
846.098	321.09
846.483	307.05
846.868	353.86
847.253	377.27
847.638	374.92
848.023	307.05
848.408	323.43
848.793	323.43
849.177	335.14
849.562	260.24
849.947	281.3
850.331	337.48
850.715	300.03
851.1	398.33
851.484	295.35
851.868	321.09
852.253	316.41
852.637	307.05
853.021	332.79
853.405	374.92
853.789	321.09
854.173	360.88
854.557	300.03
854.94	379.61
855.324	358.54
855.708	311.73
856.091	276.62
856.475	358.54
856.858	342.16
857.242	316.41
857.625	321.09
858.009	337.48
858.392	353.86
858.775	342.16
859.158	351.52
859.541	288.32
859.924	372.58
860.307	328.11
860.69	337.48
861.073	309.39
861.456	295.35
861.838	323.43
862.221	316.41
862.604	293.01
862.986	293.01
863.369	332.79
863.751	295.35
864.133	346.84
864.516	358.54
864.898	321.09
865.28	435.78
865.662	346.84
866.044	358.54
866.426	325.77
866.808	255.56
867.19	435.78
867.572	372.58
867.954	311.73
868.336	346.84
868.717	335.14
869.099	295.35
869.48	276.62
869.862	400.67
870.243	288.32
870.625	342.16
871.006	314.07
871.387	332.79
871.768	356.2
872.149	285.98
872.53	328.11
872.911	370.24
873.292	295.35
873.673	278.96
874.054	328.11
874.435	358.54
874.815	374.92
875.196	309.39
875.577	323.43
875.957	321.09
876.338	274.28
876.718	344.5
877.098	339.82
877.479	276.62
877.859	353.86
878.239	386.63
878.619	365.56
878.999	349.18
879.379	346.84
879.759	346.84
880.139	325.77
880.519	321.09
880.898	297.69
881.278	372.58
881.658	339.82
882.037	323.43
882.417	344.5
882.796	398.33
883.176	323.43
883.555	311.73
883.934	304.71
884.313	393.65
884.693	318.75
885.072	328.11
885.451	321.09
885.83	332.79
886.209	377.27
886.587	349.18
886.966	344.5
887.345	363.22
887.724	393.65
888.102	367.9
888.481	325.77
888.859	300.03
889.238	370.24
889.616	330.45
889.994	339.82
890.373	346.84
890.751	311.73
891.129	370.24
891.507	293.01
891.885	316.41
892.263	311.73
892.641	400.67
893.019	309.39
893.396	353.86
893.774	374.92
894.152	335.14
894.529	328.11
894.907	302.37
895.284	346.84
895.662	344.5
896.039	337.48
896.416	335.14
896.794	330.45
897.171	321.09
897.548	360.88
897.925	307.05
898.302	318.75
898.679	353.86
899.056	377.27
899.433	314.07
899.809	365.56
900.186	335.14
900.563	342.16
900.939	325.77
901.316	276.62
901.692	278.96
902.069	314.07
902.445	239.17
902.821	332.79
903.197	328.11
903.574	304.71
903.95	342.16
904.326	290.67
904.702	257.9
905.078	316.41
905.454	309.39
905.829	300.03
906.205	381.95
906.581	290.67
906.956	318.75
907.332	316.41
907.707	307.05
908.083	314.07
908.458	344.5
908.833	330.45
909.209	398.33
909.584	328.11
909.959	393.65
910.334	253.22
910.709	349.18
911.084	309.39
911.459	353.86
911.834	339.82
912.209	358.54
912.583	321.09
912.958	349.18
913.333	365.56
913.707	330.45
914.082	344.5
914.456	358.54
914.83	302.37
915.205	293.01
915.579	311.73
915.953	239.17
916.327	363.22
916.701	302.37
917.075	335.14
917.449	339.82
917.823	314.07
918.197	346.84
918.571	288.32
918.944	271.94
919.318	349.18
919.692	370.24
920.065	339.82
920.438	300.03
920.812	344.5
921.185	321.09
921.558	262.58
921.932	274.28
922.305	344.5
922.678	271.94
923.051	264.92
923.424	316.41
923.797	321.09
924.17	332.79
924.542	353.86
924.915	321.09
925.288	243.85
925.661	307.05
926.033	323.43
926.406	370.24
926.778	307.05
927.15	391.31
927.523	262.58
927.895	393.65
928.267	328.11
928.639	393.65
929.011	346.84
929.383	293.01
929.755	367.9
930.127	325.77
930.499	316.41
930.871	293.01
931.242	349.18
931.614	274.28
931.986	300.03
932.357	295.35
932.729	377.27
933.1	321.09
933.471	353.86
933.843	293.01
934.214	332.79
934.585	325.77
934.956	293.01
935.327	346.84
935.698	344.5
936.069	332.79
936.44	323.43
936.811	367.9
937.182	274.28
937.552	300.03
937.923	337.48
938.293	360.88
938.664	316.41
939.034	377.27
939.405	353.86
939.775	297.69
940.145	271.94
940.516	304.71
940.886	321.09
941.256	318.75
941.626	300.03
941.996	330.45
942.366	323.43
942.735	311.73
943.105	358.54
943.475	344.5
943.845	330.45
944.214	342.16
944.584	325.77
944.953	325.77
945.323	276.62
945.692	335.14
946.061	318.75
946.43	388.97
946.8	379.61
947.169	346.84
947.538	271.94
947.907	264.92
948.276	300.03
948.645	328.11
949.013	344.5
949.382	395.99
949.751	344.5
950.119	339.82
950.488	344.5
950.857	328.11
951.225	358.54
951.593	393.65
951.962	330.45
952.33	342.16
952.698	386.63
953.066	353.86
953.434	330.45
953.802	321.09
954.17	314.07
954.538	358.54
954.906	346.84
955.274	330.45
955.642	316.41
956.009	295.35
956.377	293.01
956.744	349.18
957.112	288.32
957.479	281.3
957.847	276.62
958.214	344.5
958.581	325.77
958.948	360.88
959.315	358.54
959.683	388.97
960.05	281.3
960.416	360.88
960.783	374.92
961.15	344.5
961.517	360.88
961.884	293.01
962.25	346.84
962.617	330.45
962.983	328.11
963.35	314.07
963.716	353.86
964.082	260.24
964.449	311.73
964.815	316.41
965.181	337.48
965.547	374.92
965.913	304.71
966.279	330.45
966.645	342.16
967.011	358.54
967.377	344.5
967.742	318.75
968.108	316.41
968.474	332.79
968.839	316.41
969.205	314.07
969.57	302.37
969.935	290.67
970.301	323.43
970.666	323.43
971.031	328.11
971.396	391.31
971.761	307.05
972.126	370.24
972.491	342.16
972.856	339.82
973.221	332.79
973.586	337.48
973.95	337.48
974.315	356.2
974.679	325.77
975.044	332.79
975.408	297.69
975.773	335.14
976.137	307.05
976.501	290.67
976.866	304.71
977.23	346.84
977.594	342.16
977.958	314.07
978.322	293.01
978.686	304.71
979.049	339.82
979.413	346.84
979.777	365.56
980.141	363.22
980.504	300.03
980.868	344.5
981.231	283.64
981.595	335.14
981.958	328.11
982.321	241.51
982.684	267.26
983.048	344.5
983.411	360.88
983.774	302.37
984.137	346.84
984.5	342.16
984.862	309.39
985.225	342.16
985.588	325.77
985.951	358.54
986.313	300.03
986.676	246.2
987.038	332.79
987.401	384.29
987.763	363.22
988.125	335.14
988.488	330.45
988.85	304.71
989.212	400.67
989.574	314.07
989.936	314.07
990.298	269.6
990.66	328.11
991.022	351.52
991.383	328.11
991.745	351.52
992.107	314.07
992.468	330.45
992.83	318.75
993.191	316.41
993.553	328.11
993.914	300.03
994.275	353.86
994.637	381.95
994.998	360.88
995.359	330.45
995.72	353.86
996.081	356.2
996.442	337.48
996.803	337.48
997.163	339.82
997.524	257.9
997.885	293.01
998.245	349.18
998.606	297.69
998.966	339.82
999.327	295.35
999.687	363.22
1000.047	311.73
1000.408	318.75
1000.768	297.69
1001.128	356.2
1001.488	337.48
1001.848	321.09
1002.208	274.28
1002.568	379.61
1002.927	241.51
1003.287	391.31
1003.647	358.54
1004.007	325.77
1004.366	356.2
1004.726	370.24
1005.085	318.75
1005.444	372.58
1005.804	309.39
1006.163	330.45
1006.522	346.84
1006.881	264.92
1007.24	323.43
1007.599	339.82
1007.958	349.18
1008.317	335.14
1008.676	339.82
1009.035	356.2
1009.393	339.82
1009.752	344.5
1010.111	281.3
1010.469	316.41
1010.828	325.77
1011.186	400.67
1011.544	342.16
1011.903	358.54
1012.261	295.35
1012.619	332.79
1012.977	323.43
1013.335	267.26
1013.693	335.14
1014.051	300.03
1014.409	370.24
1014.767	403.01
1015.124	351.52
1015.482	374.92
1015.84	311.73
1016.197	412.37
1016.555	302.37
1016.912	300.03
1017.269	325.77
1017.627	307.05
1017.984	405.35
1018.341	241.51
1018.698	321.09
1019.055	379.61
1019.412	337.48
1019.769	222.79
1020.126	365.56
1020.483	302.37
1020.84	332.79
1021.196	339.82
1021.553	365.56
1021.909	353.86
1022.266	311.73
1022.622	351.52
1022.979	307.05
1023.335	316.41
1023.691	300.03
1024.047	372.58
1024.404	328.11
1024.76	318.75
1025.116	351.52
1025.472	278.96
1025.827	309.39
1026.183	255.56
1026.539	307.05
1026.895	304.71
1027.25	295.35
1027.606	260.24
1027.961	428.76
1028.317	337.48
1028.672	337.48
1029.028	365.56
1029.383	281.3
1029.738	384.29
1030.093	330.45
1030.448	288.32
1030.803	367.9
1031.158	353.86
1031.513	391.31
1031.868	405.35
1032.223	314.07
1032.577	321.09
1032.932	225.13
1033.287	351.52
1033.641	358.54
1033.996	304.71
1034.35	302.37
1034.704	325.77
1035.059	304.71
1035.413	367.9
1035.767	367.9
1036.121	367.9
