Data from Al_FLMS009871__1162__16-38-02-087.txt Node

Date: Fri Mar 08 16:38:02 CST 2024
User: pe5414po
Spectrometer: FLMS00987
Trigger mode: 0
Integration Time (sec): 1.000000E-1
Scans to average: 1
Electric dark correction enabled: true
Nonlinearity correction enabled: false
Boxcar width: 0
XAxis mode: Wavelengths
Number of Pixels in Spectrum: 2048
>>>>>Begin Spectral Data<<<<<
188.938	-23.41
189.409	-23.41
189.879	-23.41
190.349	-100.64
190.819	-159.16
191.29	-135.75
191.76	-60.85
192.23	-72.56
192.7	-67.88
193.17	-91.28
193.64	-88.94
194.109	-23.41
194.579	-16.38
195.049	18.72
195.519	21.06
195.988	51.49
196.458	98.3
196.927	86.6
197.397	119.37
197.866	100.64
198.336	60.85
198.805	135.75
199.274	138.09
199.744	135.75
200.213	191.92
200.682	182.56
201.151	210.65
201.62	220.01
202.089	201.29
202.558	168.52
203.027	280.86
203.495	201.29
203.964	304.27
204.433	262.14
204.902	273.84
205.37	269.16
205.839	257.46
206.307	257.46
206.776	306.61
207.244	320.65
207.712	299.59
208.181	252.78
208.649	351.08
209.117	280.86
209.585	311.29
210.053	208.31
210.521	339.38
210.989	262.14
211.457	245.76
211.925	273.84
212.393	283.2
212.861	344.06
213.328	278.52
213.796	301.93
214.264	222.35
214.731	189.58
215.199	276.18
215.666	262.14
216.133	241.08
216.601	313.63
217.068	236.39
217.535	304.27
218.003	212.99
218.47	210.65
218.937	276.18
219.404	264.48
219.871	262.14
220.338	257.46
220.805	290.23
221.271	271.5
221.738	264.48
222.205	264.48
222.671	224.69
223.138	287.89
223.605	212.99
224.071	198.95
224.538	189.58
225.004	241.08
225.47	248.1
225.937	266.82
226.403	278.52
226.869	227.03
227.335	252.78
227.801	252.78
228.267	318.31
228.733	238.73
229.199	292.57
229.665	287.89
230.131	269.16
230.597	227.03
231.062	262.14
231.528	264.48
231.994	238.73
232.459	308.95
232.925	245.76
233.39	231.71
233.856	259.8
234.321	290.23
234.786	259.8
235.252	255.12
235.717	229.37
236.182	304.27
236.647	283.2
237.112	266.82
237.577	212.99
238.042	266.82
238.507	252.78
238.972	278.52
239.436	262.14
239.901	257.46
240.366	290.23
240.83	273.84
241.295	238.73
241.76	278.52
242.224	238.73
242.688	301.93
243.153	264.48
243.617	299.59
244.081	229.37
244.545	243.42
245.01	255.12
245.474	250.44
245.938	278.52
246.402	280.86
246.866	273.84
247.33	217.67
247.793	224.69
248.257	238.73
248.721	259.8
249.185	236.39
249.648	241.08
250.112	259.8
250.575	248.1
251.039	262.14
251.502	227.03
251.965	304.27
252.429	322.99
252.892	304.27
253.355	362.78
253.818	287.89
254.281	285.55
254.744	290.23
255.207	318.31
255.67	234.05
256.133	248.1
256.596	271.5
257.059	250.44
257.522	278.52
257.984	264.48
258.447	257.46
258.909	241.08
259.372	290.23
259.834	290.23
260.297	255.12
260.759	257.46
261.221	294.91
261.684	241.08
262.146	292.57
262.608	306.61
263.07	257.46
263.532	299.59
263.994	262.14
264.456	273.84
264.918	257.46
265.38	332.36
265.842	231.71
266.303	231.71
266.765	301.93
267.227	294.91
267.688	327.68
268.15	290.23
268.611	271.5
269.072	283.2
269.534	243.42
269.995	325.33
270.456	325.33
270.918	325.33
271.379	269.16
271.84	250.44
272.301	257.46
272.762	262.14
273.223	327.68
273.684	318.31
274.144	294.91
274.605	238.73
275.066	315.97
275.527	269.16
275.987	269.16
276.448	280.86
276.908	266.82
277.369	290.23
277.829	294.91
278.289	327.68
278.75	306.61
279.21	280.86
279.67	255.12
280.13	276.18
280.59	259.8
281.05	322.99
281.51	292.57
281.97	245.76
282.43	337.04
282.89	285.55
283.35	332.36
283.809	315.97
284.269	325.33
284.729	231.71
285.188	220.01
285.648	299.59
286.107	327.68
286.567	248.1
287.026	318.31
287.485	313.63
287.944	231.71
288.404	287.89
288.863	285.55
289.322	287.89
289.781	262.14
290.24	290.23
290.699	313.63
291.158	341.72
291.616	313.63
292.075	287.89
292.534	278.52
292.992	276.18
293.451	257.46
293.91	332.36
294.368	308.95
294.827	337.04
295.285	318.31
295.743	248.1
296.202	332.36
296.66	330.02
297.118	273.84
297.576	297.25
298.034	299.59
298.492	285.55
298.95	339.38
299.408	311.29
299.866	304.27
300.324	278.52
300.781	280.86
301.239	278.52
301.697	334.7
302.154	280.86
302.612	318.31
303.069	311.29
303.527	271.5
303.984	234.05
304.441	315.97
304.899	278.52
305.356	306.61
305.813	325.33
306.27	325.33
306.727	290.23
307.184	294.91
307.641	308.95
308.098	318.31
308.555	313.63
309.012	259.8
309.468	318.31
309.925	358.1
310.382	259.8
310.838	205.97
311.295	327.68
311.751	264.48
312.208	348.74
312.664	276.18
313.12	259.8
313.577	320.65
314.033	273.84
314.489	287.89
314.945	294.91
315.401	220.01
315.857	348.74
316.313	255.12
316.769	285.55
317.225	252.78
317.681	351.08
318.136	339.38
318.592	264.48
319.048	313.63
319.503	245.76
319.959	248.1
320.414	301.93
320.869	311.29
321.325	262.14
321.78	241.08
322.235	318.31
322.691	315.97
323.146	306.61
323.601	339.38
324.056	332.36
324.511	330.02
324.966	294.91
325.421	322.99
325.875	315.97
326.33	304.27
326.785	395.55
327.24	262.14
327.694	285.55
328.149	304.27
328.603	308.95
329.058	283.2
329.512	245.76
329.966	276.18
330.421	294.91
330.875	311.29
331.329	278.52
331.783	344.06
332.237	299.59
332.691	294.91
333.145	236.39
333.599	308.95
334.053	290.23
334.507	297.25
334.96	322.99
335.414	330.02
335.868	269.16
336.321	292.57
336.775	285.55
337.228	285.55
337.682	339.38
338.135	313.63
338.588	273.84
339.042	248.1
339.495	248.1
339.948	259.8
340.401	332.36
340.854	330.02
341.307	290.23
341.76	271.5
342.213	318.31
342.666	374.49
343.119	297.25
343.571	245.76
344.024	315.97
344.477	278.52
344.929	334.7
345.382	262.14
345.834	348.74
346.287	322.99
346.739	351.08
347.191	280.86
347.644	311.29
348.096	348.74
348.548	248.1
349	248.1
349.452	255.12
349.904	287.89
350.356	330.02
350.808	351.08
351.26	294.91
351.711	325.33
352.163	243.42
352.615	301.93
353.066	285.55
353.518	365.12
353.969	285.55
354.421	273.84
354.872	287.89
355.324	266.82
355.775	306.61
356.226	365.12
356.677	344.06
357.128	308.95
357.579	304.27
358.03	313.63
358.481	297.25
358.932	248.1
359.383	264.48
359.834	318.31
360.285	322.99
360.735	276.18
361.186	243.42
361.637	306.61
362.087	297.25
362.538	266.82
362.988	262.14
363.438	330.02
363.889	351.08
364.339	313.63
364.789	332.36
365.239	255.12
365.689	325.33
366.139	341.72
366.589	243.42
367.039	322.99
367.489	278.52
367.939	308.95
368.389	322.99
368.839	273.84
369.288	351.08
369.738	313.63
370.187	255.12
370.637	304.27
371.086	311.29
371.536	318.31
371.985	271.5
372.434	325.33
372.884	332.36
373.333	297.25
373.782	311.29
374.231	344.06
374.68	304.27
375.129	238.73
375.578	299.59
376.027	301.93
376.475	299.59
376.924	271.5
377.373	346.4
377.822	358.1
378.27	311.29
378.719	269.16
379.167	306.61
379.616	283.2
380.064	292.57
380.512	320.65
380.961	369.8
381.409	271.5
381.857	306.61
382.305	334.7
382.753	334.7
383.201	248.1
383.649	259.8
384.097	299.59
384.545	327.68
384.992	360.44
385.44	304.27
385.888	379.17
386.335	278.52
386.783	264.48
387.231	365.12
387.678	308.95
388.125	327.68
388.573	360.44
389.02	362.78
389.467	301.93
389.914	315.97
390.362	334.7
390.809	285.55
391.256	290.23
391.703	315.97
392.15	365.12
392.596	341.72
393.043	355.76
393.49	301.93
393.937	294.91
394.383	315.97
394.83	318.31
395.276	297.25
395.723	297.25
396.169	318.31
396.616	276.18
397.062	334.7
397.508	313.63
397.954	346.4
398.401	306.61
398.847	332.36
399.293	355.76
399.739	290.23
400.185	301.93
400.631	341.72
401.076	313.63
401.522	320.65
401.968	325.33
402.414	287.89
402.859	294.91
403.305	346.4
403.75	367.46
404.196	285.55
404.641	299.59
405.086	299.59
405.532	283.2
405.977	339.38
406.422	280.86
406.867	292.57
407.312	297.25
407.757	259.8
408.202	273.84
408.647	330.02
409.092	320.65
409.537	285.55
409.982	322.99
410.426	315.97
410.871	362.78
411.316	376.83
411.76	337.04
412.205	337.04
412.649	351.08
413.093	313.63
413.538	231.71
413.982	330.02
414.426	301.93
414.87	327.68
415.314	220.01
415.758	346.4
416.202	320.65
416.646	273.84
417.09	287.89
417.534	294.91
417.978	320.65
418.421	362.78
418.865	250.44
419.309	276.18
419.752	322.99
420.196	306.61
420.639	280.86
421.083	332.36
421.526	304.27
421.969	294.91
422.412	322.99
422.856	278.52
423.299	360.44
423.742	332.36
424.185	220.01
424.628	304.27
425.071	285.55
425.513	271.5
425.956	290.23
426.399	322.99
426.842	313.63
427.284	276.18
427.727	376.83
428.169	292.57
428.612	299.59
429.054	304.27
429.497	327.68
429.939	339.38
430.381	259.8
430.823	311.29
431.265	252.78
431.707	344.06
432.149	283.2
432.591	374.49
433.033	311.29
433.475	386.19
433.917	271.5
434.359	367.46
434.8	311.29
435.242	315.97
435.684	278.52
436.125	358.1
436.567	372.15
437.008	353.42
437.449	351.08
437.891	322.99
438.332	362.78
438.773	294.91
439.214	280.86
439.656	280.86
440.097	337.04
440.538	271.5
440.978	318.31
441.419	320.65
441.86	255.12
442.301	311.29
442.742	306.61
443.182	320.65
443.623	273.84
444.063	292.57
444.504	320.65
444.944	304.27
445.385	259.8
445.825	255.12
446.265	330.02
446.706	320.65
447.146	313.63
447.586	290.23
448.026	292.57
448.466	255.12
448.906	325.33
449.346	276.18
449.786	306.61
450.225	292.57
450.665	311.29
451.105	346.4
451.544	327.68
451.984	365.12
452.424	372.15
452.863	320.65
453.302	255.12
453.742	372.15
454.181	255.12
454.62	248.1
455.059	306.61
455.499	339.38
455.938	294.91
456.377	287.89
456.816	294.91
457.254	308.95
457.693	320.65
458.132	285.55
458.571	294.91
459.01	294.91
459.448	344.06
459.887	297.25
460.325	257.46
460.764	304.27
461.202	337.04
461.641	290.23
462.079	294.91
462.517	308.95
462.955	374.49
463.393	330.02
463.832	376.83
464.27	360.44
464.708	358.1
465.145	283.2
465.583	245.76
466.021	320.65
466.459	304.27
466.897	315.97
467.334	325.33
467.772	292.57
468.209	306.61
468.647	351.08
469.084	252.78
469.522	299.59
469.959	292.57
470.396	346.4
470.833	341.72
471.271	325.33
471.708	320.65
472.145	348.74
472.582	358.1
473.019	351.08
473.456	365.12
473.892	315.97
474.329	255.12
474.766	330.02
475.202	332.36
475.639	386.19
476.076	304.27
476.512	315.97
476.949	306.61
477.385	332.36
477.821	330.02
478.258	337.04
478.694	271.5
479.13	313.63
479.566	341.72
480.002	273.84
480.438	287.89
480.874	315.97
481.31	308.95
481.746	294.91
482.181	250.44
482.617	276.18
483.053	299.59
483.488	344.06
483.924	313.63
484.36	308.95
484.795	308.95
485.23	264.48
485.666	313.63
486.101	346.4
486.536	344.06
486.971	320.65
487.407	353.42
487.842	294.91
488.277	278.52
488.712	304.27
489.146	306.61
489.581	393.21
490.016	327.68
490.451	327.68
490.885	327.68
491.32	243.42
491.755	358.1
492.189	259.8
492.624	325.33
493.058	358.1
493.492	320.65
493.927	301.93
494.361	220.01
494.795	276.18
495.229	381.51
495.663	301.93
496.097	325.33
496.531	322.99
496.965	257.46
497.399	355.76
497.833	278.52
498.266	318.31
498.7	280.86
499.134	285.55
499.567	278.52
500.001	313.63
500.434	348.74
500.868	348.74
501.301	337.04
501.734	341.72
502.168	341.72
502.601	301.93
503.034	259.8
503.467	344.06
503.9	257.46
504.333	360.44
504.766	334.7
505.199	322.99
505.632	346.4
506.064	224.69
506.497	294.91
506.93	266.82
507.362	290.23
507.795	287.89
508.227	311.29
508.66	299.59
509.092	322.99
509.524	325.33
509.956	257.46
510.389	325.33
510.821	287.89
511.253	322.99
511.685	332.36
512.117	280.86
512.549	271.5
512.981	308.95
513.412	332.36
513.844	308.95
514.276	245.76
514.707	330.02
515.139	362.78
515.571	276.18
516.002	301.93
516.433	297.25
516.865	330.02
517.296	318.31
517.727	322.99
518.159	376.83
518.59	337.04
519.021	353.42
519.452	287.89
519.883	299.59
520.314	348.74
520.744	311.29
521.175	337.04
521.606	304.27
522.037	325.33
522.467	325.33
522.898	287.89
523.328	273.84
523.759	346.4
524.189	369.8
524.62	285.55
525.05	257.46
525.48	311.29
525.91	301.93
526.341	360.44
526.771	290.23
527.201	280.86
527.631	330.02
528.061	292.57
528.49	346.4
528.92	325.33
529.35	311.29
529.78	306.61
530.209	334.7
530.639	330.02
531.068	285.55
531.498	278.52
531.927	313.63
532.357	299.59
532.786	334.7
533.215	304.27
533.644	280.86
534.074	294.91
534.503	269.16
534.932	304.27
535.361	304.27
535.79	311.29
536.218	337.04
536.647	327.68
537.076	351.08
537.505	374.49
537.933	311.29
538.362	344.06
538.79	339.38
539.219	369.8
539.647	311.29
540.076	330.02
540.504	299.59
540.932	320.65
541.36	322.99
541.788	325.33
542.217	330.02
542.645	301.93
543.073	283.2
543.5	346.4
543.928	299.59
544.356	287.89
544.784	273.84
545.211	297.25
545.639	297.25
546.067	306.61
546.494	313.63
546.922	320.65
547.349	299.59
547.776	374.49
548.204	271.5
548.631	322.99
549.058	353.42
549.485	301.93
549.912	325.33
550.339	311.29
550.766	304.27
551.193	341.72
551.62	311.29
552.047	276.18
552.474	381.51
552.9	318.31
553.327	299.59
553.754	344.06
554.18	290.23
554.607	294.91
555.033	320.65
555.459	306.61
555.886	355.76
556.312	334.7
556.738	276.18
557.164	315.97
557.59	402.57
558.016	306.61
558.442	332.36
558.868	327.68
559.294	346.4
559.72	315.97
560.145	313.63
560.571	252.78
560.997	330.02
561.422	273.84
561.848	280.86
562.273	271.5
562.699	297.25
563.124	348.74
563.549	311.29
563.974	250.44
564.4	325.33
564.825	276.18
565.25	334.7
565.675	325.33
566.1	318.31
566.525	257.46
566.95	266.82
567.374	290.23
567.799	299.59
568.224	227.03
568.648	304.27
569.073	299.59
569.497	287.89
569.922	273.84
570.346	269.16
570.771	332.36
571.195	283.2
571.619	318.31
572.043	278.52
572.467	327.68
572.891	318.31
573.315	339.38
573.739	306.61
574.163	313.63
574.587	330.02
575.011	311.29
575.435	353.42
575.858	327.68
576.282	337.04
576.705	301.93
577.129	325.33
577.552	285.55
577.976	231.71
578.399	283.2
578.822	287.89
579.245	285.55
579.669	294.91
580.092	318.31
580.515	255.12
580.938	341.72
581.361	280.86
581.784	337.04
582.206	311.29
582.629	315.97
583.052	341.72
583.474	259.8
583.897	301.93
584.32	306.61
584.742	327.68
585.165	271.5
585.587	327.68
586.009	315.97
586.431	313.63
586.854	353.42
587.276	306.61
587.698	297.25
588.12	243.42
588.542	327.68
588.964	313.63
589.386	304.27
589.807	285.55
590.229	301.93
590.651	292.57
591.073	337.04
591.494	313.63
591.916	341.72
592.337	325.33
592.759	287.89
593.18	287.89
593.601	271.5
594.022	294.91
594.444	271.5
594.865	313.63
595.286	285.55
595.707	231.71
596.128	341.72
596.549	358.1
596.97	383.85
597.39	322.99
597.811	369.8
598.232	280.86
598.652	287.89
599.073	287.89
599.494	276.18
599.914	341.72
600.334	287.89
600.755	313.63
601.175	294.91
601.595	360.44
602.015	346.4
602.436	327.68
602.856	407.25
603.276	355.76
603.696	294.91
604.115	259.8
604.535	283.2
604.955	332.36
605.375	320.65
605.794	294.91
606.214	304.27
606.634	311.29
607.053	351.08
607.473	273.84
607.892	271.5
608.311	308.95
608.731	287.89
609.15	290.23
609.569	311.29
609.988	301.93
610.407	348.74
610.826	290.23
611.245	287.89
611.664	344.06
612.083	339.38
612.501	330.02
612.92	306.61
613.339	308.95
613.757	318.31
614.176	292.57
614.594	269.16
615.013	313.63
615.431	283.2
615.85	255.12
616.268	264.48
616.686	313.63
617.104	280.86
617.522	344.06
617.94	325.33
618.358	301.93
618.776	308.95
619.194	259.8
619.612	271.5
620.03	318.31
620.447	372.15
620.865	306.61
621.282	280.86
621.7	344.06
622.117	227.03
622.535	299.59
622.952	355.76
623.369	250.44
623.787	285.55
624.204	297.25
624.621	358.1
625.038	325.33
625.455	388.53
625.872	332.36
626.289	355.76
626.706	315.97
627.123	308.95
627.539	346.4
627.956	276.18
628.373	311.29
628.789	262.14
629.206	292.57
629.622	330.02
630.038	266.82
630.455	273.84
630.871	301.93
631.287	297.25
631.703	320.65
632.12	220.01
632.536	278.52
632.952	297.25
633.368	238.73
633.783	334.7
634.199	280.86
634.615	308.95
635.031	313.63
635.446	304.27
635.862	290.23
636.277	315.97
636.693	292.57
637.108	355.76
637.524	374.49
637.939	320.65
638.354	341.72
638.77	255.12
639.185	241.08
639.6	339.38
640.015	264.48
640.43	327.68
640.845	311.29
641.259	257.46
641.674	292.57
642.089	334.7
642.504	292.57
642.918	301.93
643.333	322.99
643.747	287.89
644.162	337.04
644.576	325.33
644.991	320.65
645.405	299.59
645.819	266.82
646.233	292.57
646.647	313.63
647.061	320.65
647.475	297.25
647.889	290.23
648.303	241.08
648.717	285.55
649.131	330.02
649.545	388.53
649.958	283.2
650.372	322.99
650.785	290.23
651.199	353.42
651.612	257.46
652.026	227.03
652.439	337.04
652.852	287.89
653.266	290.23
653.679	290.23
654.092	306.61
654.505	273.84
654.918	308.95
655.331	330.02
655.744	297.25
656.156	332.36
656.569	287.89
656.982	212.99
657.394	287.89
657.807	271.5
658.22	280.86
658.632	299.59
659.044	285.55
659.457	276.18
659.869	344.06
660.281	297.25
660.693	330.02
661.106	308.95
661.518	341.72
661.93	299.59
662.342	271.5
662.754	227.03
663.165	255.12
663.577	318.31
663.989	301.93
664.401	334.7
664.812	334.7
665.224	297.25
665.635	325.33
666.047	358.1
666.458	308.95
666.869	285.55
667.281	266.82
667.692	257.46
668.103	306.61
668.514	287.89
668.925	313.63
669.336	327.68
669.747	294.91
670.158	304.27
670.569	280.86
670.979	262.14
671.39	301.93
671.801	276.18
672.211	262.14
672.622	273.84
673.032	301.93
673.443	278.52
673.853	360.44
674.263	325.33
674.674	292.57
675.084	306.61
675.494	369.8
675.904	280.86
676.314	360.44
676.724	325.33
677.134	308.95
677.544	308.95
677.953	367.46
678.363	379.17
678.773	365.12
679.182	386.19
679.592	330.02
680.001	278.52
680.411	266.82
680.82	250.44
681.23	273.84
681.639	245.76
682.048	369.8
682.457	285.55
682.866	341.72
683.275	306.61
683.684	287.89
684.093	299.59
684.502	318.31
684.911	318.31
685.32	290.23
685.728	308.95
686.137	301.93
686.546	278.52
686.954	259.8
687.363	297.25
687.771	386.19
688.179	273.84
688.588	322.99
688.996	313.63
689.404	313.63
689.812	334.7
690.22	269.16
690.628	313.63
691.036	280.86
691.444	313.63
691.852	369.8
692.26	262.14
692.667	374.49
693.075	250.44
693.483	313.63
693.89	257.46
694.298	283.2
694.705	273.84
695.112	299.59
695.52	332.36
695.927	276.18
696.334	409.59
696.741	353.42
697.148	306.61
697.555	346.4
697.962	332.36
698.369	266.82
698.776	271.5
699.183	393.21
699.59	292.57
699.996	369.8
700.403	365.12
700.81	330.02
701.216	320.65
701.623	325.33
702.029	337.04
702.435	297.25
702.842	306.61
703.248	325.33
703.654	276.18
704.06	334.7
704.466	285.55
704.872	332.36
705.278	294.91
705.684	280.86
706.09	290.23
706.496	294.91
706.901	234.05
707.307	271.5
707.712	301.93
708.118	372.15
708.523	313.63
708.929	334.7
709.334	273.84
709.74	320.65
710.145	360.44
710.55	341.72
710.955	290.23
711.36	269.16
711.765	283.2
712.17	313.63
712.575	252.78
712.98	863.66
713.385	318.31
713.789	367.46
714.194	299.59
714.599	306.61
715.003	325.33
715.408	283.2
715.812	311.29
716.217	292.57
716.621	313.63
717.025	276.18
717.429	269.16
717.833	315.97
718.238	306.61
718.642	285.55
719.046	280.86
719.449	276.18
719.853	318.31
720.257	318.31
720.661	285.55
721.065	334.7
721.468	266.82
721.872	320.65
722.275	315.97
722.679	327.68
723.082	355.76
723.485	285.55
723.889	269.16
724.292	243.42
724.695	306.61
725.098	297.25
725.501	294.91
725.904	248.1
726.307	306.61
726.71	271.5
727.113	318.31
727.516	299.59
727.918	313.63
728.321	262.14
728.724	259.8
729.126	339.38
729.529	330.02
729.931	276.18
730.333	269.16
730.736	294.91
731.138	320.65
731.54	306.61
731.942	243.42
732.344	308.95
732.746	257.46
733.148	330.02
733.55	308.95
733.952	301.93
734.354	315.97
734.756	243.42
735.157	339.38
735.559	306.61
735.96	344.06
736.362	304.27
736.763	362.78
737.165	320.65
737.566	332.36
737.967	304.27
738.368	318.31
738.77	308.95
739.171	269.16
739.572	332.36
739.973	313.63
740.374	273.84
740.774	325.33
741.175	318.31
741.576	308.95
741.977	327.68
742.377	273.84
742.778	313.63
743.178	269.16
743.579	339.38
743.979	348.74
744.379	273.84
744.78	341.72
745.18	294.91
745.58	283.2
745.98	297.25
746.38	264.48
746.78	271.5
747.18	393.21
747.58	297.25
747.98	365.12
748.38	306.61
748.779	353.42
749.179	278.52
749.578	299.59
749.978	241.08
750.377	308.95
750.777	304.27
751.176	318.31
751.575	287.89
751.975	294.91
752.374	320.65
752.773	304.27
753.172	306.61
753.571	248.1
753.97	266.82
754.369	339.38
754.768	318.31
755.166	294.91
755.565	271.5
755.964	322.99
756.362	297.25
756.761	301.93
757.159	285.55
757.558	283.2
757.956	294.91
758.354	332.36
758.753	292.57
759.151	285.55
759.549	315.97
759.947	332.36
760.345	332.36
760.743	339.38
761.141	346.4
761.539	327.68
761.936	299.59
762.334	276.18
762.732	311.29
763.129	259.8
763.527	297.25
763.924	367.46
764.322	318.31
764.719	306.61
765.117	318.31
765.514	280.86
765.911	301.93
766.308	353.42
766.705	294.91
767.102	311.29
767.499	273.84
767.896	245.76
768.293	280.86
768.69	276.18
769.086	283.2
769.483	297.25
769.88	334.7
770.276	297.25
770.673	374.49
771.069	344.06
771.466	290.23
771.862	294.91
772.258	337.04
772.654	273.84
773.05	257.46
773.447	301.93
773.843	280.86
774.239	358.1
774.634	344.06
775.03	322.99
775.426	287.89
775.822	283.2
776.218	334.7
776.613	332.36
777.009	318.31
777.404	257.46
777.8	301.93
778.195	313.63
778.59	271.5
778.986	269.16
779.381	294.91
779.776	311.29
780.171	304.27
780.566	353.42
780.961	322.99
781.356	337.04
781.751	283.2
782.146	271.5
782.54	290.23
782.935	220.01
783.33	287.89
783.724	353.42
784.119	344.06
784.513	278.52
784.908	299.59
785.302	271.5
785.696	252.78
786.09	299.59
786.485	341.72
786.879	334.7
787.273	315.97
787.667	334.7
788.061	255.12
788.454	299.59
788.848	327.68
789.242	262.14
789.636	351.08
790.029	353.42
790.423	334.7
790.816	287.89
791.21	311.29
791.603	360.44
791.997	285.55
792.39	304.27
792.783	318.31
793.176	301.93
793.569	322.99
793.962	238.73
794.355	332.36
794.748	330.02
795.141	269.16
795.534	322.99
795.927	351.08
796.319	318.31
796.712	325.33
797.105	276.18
797.497	416.62
797.89	290.23
798.282	306.61
798.674	360.44
799.067	266.82
799.459	299.59
799.851	297.25
800.243	346.4
800.635	262.14
801.027	313.63
801.419	287.89
801.811	304.27
802.203	301.93
802.594	278.52
802.986	294.91
803.378	322.99
803.769	308.95
804.161	348.74
804.552	332.36
804.944	294.91
805.335	299.59
805.726	292.57
806.118	297.25
806.509	407.25
806.9	280.86
807.291	301.93
807.682	306.61
808.073	257.46
808.464	299.59
808.855	334.7
809.245	273.84
809.636	280.86
810.027	332.36
810.417	278.52
810.808	266.82
811.198	320.65
811.589	255.12
811.979	294.91
812.369	294.91
812.759	369.8
813.15	255.12
813.54	315.97
813.93	355.76
814.32	276.18
814.71	299.59
815.1	259.8
815.489	337.04
815.879	372.15
816.269	262.14
816.658	241.08
817.048	262.14
817.438	320.65
817.827	285.55
818.216	348.74
818.606	290.23
818.995	287.89
819.384	259.8
819.773	294.91
820.163	259.8
820.552	301.93
820.941	407.25
821.33	266.82
821.718	229.37
822.107	271.5
822.496	287.89
822.885	322.99
823.273	351.08
823.662	332.36
824.05	344.06
824.439	322.99
824.827	285.55
825.216	304.27
825.604	266.82
825.992	262.14
826.38	308.95
826.768	280.86
827.156	299.59
827.544	290.23
827.932	212.99
828.32	287.89
828.708	348.74
829.096	287.89
829.483	273.84
829.871	327.68
830.259	322.99
830.646	315.97
831.034	308.95
831.421	339.38
831.808	334.7
832.196	318.31
832.583	299.59
832.97	301.93
833.357	330.02
833.744	290.23
834.131	320.65
834.518	344.06
834.905	306.61
835.292	278.52
835.678	311.29
836.065	348.74
836.452	294.91
836.838	351.08
837.225	290.23
837.611	255.12
837.998	353.42
838.384	290.23
838.77	290.23
839.157	250.44
839.543	339.38
839.929	313.63
840.315	339.38
840.701	264.48
841.087	318.31
841.473	297.25
841.858	327.68
842.244	227.03
842.63	301.93
843.015	306.61
843.401	575.77
843.787	231.71
844.172	325.33
844.557	362.78
844.943	243.42
845.328	285.55
845.713	252.78
846.098	332.36
846.483	290.23
846.868	255.12
847.253	280.86
847.638	264.48
848.023	280.86
848.408	306.61
848.793	362.78
849.177	273.84
849.562	297.25
849.947	250.44
850.331	299.59
850.715	337.04
851.1	306.61
851.484	257.46
851.868	276.18
852.253	287.89
852.637	283.2
853.021	290.23
853.405	285.55
853.789	346.4
854.173	276.18
854.557	353.42
854.94	315.97
855.324	327.68
855.708	315.97
856.091	318.31
856.475	234.05
856.858	294.91
857.242	278.52
857.625	224.69
858.009	339.38
858.392	255.12
858.775	290.23
859.158	257.46
859.541	273.84
859.924	297.25
860.307	287.89
860.69	311.29
861.073	294.91
861.456	325.33
861.838	308.95
862.221	299.59
862.604	306.61
862.986	271.5
863.369	313.63
863.751	325.33
864.133	301.93
864.516	332.36
864.898	386.19
865.28	308.95
865.662	276.18
866.044	367.46
866.426	322.99
866.808	315.97
867.19	236.39
867.572	285.55
867.954	264.48
868.336	341.72
868.717	337.04
869.099	236.39
869.48	374.49
869.862	330.02
870.243	337.04
870.625	306.61
871.006	283.2
871.387	330.02
871.768	269.16
872.149	348.74
872.53	337.04
872.911	339.38
873.292	315.97
873.673	299.59
874.054	245.76
874.435	283.2
874.815	250.44
875.196	280.86
875.577	273.84
875.957	311.29
876.338	269.16
876.718	294.91
877.098	297.25
877.479	264.48
877.859	287.89
878.239	327.68
878.619	318.31
878.999	294.91
879.379	283.2
879.759	280.86
880.139	348.74
880.519	339.38
880.898	327.68
881.278	287.89
881.658	297.25
882.037	320.65
882.417	311.29
882.796	325.33
883.176	313.63
883.555	290.23
883.934	339.38
884.313	325.33
884.693	304.27
885.072	304.27
885.451	287.89
885.83	269.16
886.209	262.14
886.587	266.82
886.966	271.5
887.345	290.23
887.724	318.31
888.102	320.65
888.481	322.99
888.859	330.02
889.238	320.65
889.616	334.7
889.994	259.8
890.373	262.14
890.751	297.25
891.129	283.2
891.507	351.08
891.885	262.14
892.263	353.42
892.641	252.78
893.019	287.89
893.396	285.55
893.774	264.48
894.152	299.59
894.529	278.52
894.907	224.69
895.284	322.99
895.662	330.02
896.039	250.44
896.416	271.5
896.794	344.06
897.171	308.95
897.548	273.84
897.925	271.5
898.302	259.8
898.679	337.04
899.056	339.38
899.433	269.16
899.809	278.52
900.186	313.63
900.563	287.89
900.939	344.06
901.316	332.36
901.692	280.86
902.069	271.5
902.445	360.44
902.821	308.95
903.197	234.05
903.574	315.97
903.95	287.89
904.326	313.63
904.702	269.16
905.078	269.16
905.454	257.46
905.829	383.85
906.205	266.82
906.581	322.99
906.956	299.59
907.332	262.14
907.707	330.02
908.083	266.82
908.458	266.82
908.833	217.67
909.209	273.84
909.584	311.29
909.959	266.82
910.334	266.82
910.709	292.57
911.084	320.65
911.459	311.29
911.834	308.95
912.209	266.82
912.583	278.52
912.958	330.02
913.333	283.2
913.707	245.76
914.082	322.99
914.456	280.86
914.83	301.93
915.205	339.38
915.579	241.08
915.953	322.99
916.327	325.33
916.701	269.16
917.075	320.65
917.449	341.72
917.823	332.36
918.197	285.55
918.571	332.36
918.944	348.74
919.318	304.27
919.692	294.91
920.065	318.31
920.438	341.72
920.812	344.06
921.185	280.86
921.558	229.37
921.932	278.52
922.305	248.1
922.678	280.86
923.051	236.39
923.424	276.18
923.797	332.36
924.17	313.63
924.542	306.61
924.915	348.74
925.288	276.18
925.661	271.5
926.033	280.86
926.406	266.82
926.778	330.02
927.15	276.18
927.523	245.76
927.895	339.38
928.267	318.31
928.639	330.02
929.011	262.14
929.383	339.38
929.755	283.2
930.127	255.12
930.499	306.61
930.871	269.16
931.242	278.52
931.614	320.65
931.986	250.44
932.357	266.82
932.729	346.4
933.1	285.55
933.471	264.48
933.843	304.27
934.214	262.14
934.585	320.65
934.956	355.76
935.327	297.25
935.698	266.82
936.069	245.76
936.44	278.52
936.811	301.93
937.182	318.31
937.552	308.95
937.923	311.29
938.293	346.4
938.664	278.52
939.034	278.52
939.405	259.8
939.775	325.33
940.145	339.38
940.516	224.69
940.886	337.04
941.256	318.31
941.626	294.91
941.996	306.61
942.366	269.16
942.735	283.2
943.105	325.33
943.475	304.27
943.845	285.55
944.214	299.59
944.584	311.29
944.953	285.55
945.323	271.5
945.692	304.27
946.061	283.2
946.43	320.65
946.8	304.27
947.169	231.71
947.538	285.55
947.907	273.84
948.276	297.25
948.645	313.63
949.013	322.99
949.382	271.5
949.751	287.89
950.119	313.63
950.488	276.18
950.857	294.91
951.225	245.76
951.593	308.95
951.962	285.55
952.33	322.99
952.698	304.27
953.066	273.84
953.434	301.93
953.802	257.46
954.17	369.8
954.538	280.86
954.906	273.84
955.274	353.42
955.642	248.1
956.009	313.63
956.377	255.12
956.744	245.76
957.112	341.72
957.479	276.18
957.847	299.59
958.214	292.57
958.581	334.7
958.948	327.68
959.315	341.72
959.683	297.25
960.05	376.83
960.416	276.18
960.783	241.08
961.15	266.82
961.517	276.18
961.884	301.93
962.25	341.72
962.617	280.86
962.983	257.46
963.35	262.14
963.716	297.25
964.082	257.46
964.449	315.97
964.815	313.63
965.181	292.57
965.547	322.99
965.913	383.85
966.279	322.99
966.645	224.69
967.011	292.57
967.377	294.91
967.742	273.84
968.108	327.68
968.474	320.65
968.839	273.84
969.205	313.63
969.57	339.38
969.935	344.06
970.301	348.74
970.666	315.97
971.031	304.27
971.396	297.25
971.761	266.82
972.126	264.48
972.491	266.82
972.856	252.78
973.221	322.99
973.586	290.23
973.95	278.52
974.315	248.1
974.679	306.61
975.044	262.14
975.408	273.84
975.773	327.68
976.137	365.12
976.501	332.36
976.866	330.02
977.23	306.61
977.594	367.46
977.958	278.52
978.322	294.91
978.686	287.89
979.049	327.68
979.413	297.25
979.777	308.95
980.141	229.37
980.504	243.42
980.868	269.16
981.231	332.36
981.595	315.97
981.958	285.55
982.321	358.1
982.684	341.72
983.048	313.63
983.411	304.27
983.774	285.55
984.137	348.74
984.5	322.99
984.862	290.23
985.225	304.27
985.588	313.63
985.951	334.7
986.313	299.59
986.676	269.16
987.038	360.44
987.401	318.31
987.763	294.91
988.125	325.33
988.488	313.63
988.85	257.46
989.212	339.38
989.574	304.27
989.936	243.42
990.298	276.18
990.66	308.95
991.022	301.93
991.383	285.55
991.745	311.29
992.107	313.63
992.468	358.1
992.83	325.33
993.191	341.72
993.553	311.29
993.914	322.99
994.275	297.25
994.637	280.86
994.998	337.04
995.359	358.1
995.72	262.14
996.081	374.49
996.442	344.06
996.803	255.12
997.163	287.89
997.524	311.29
997.885	297.25
998.245	313.63
998.606	315.97
998.966	299.59
999.327	330.02
999.687	346.4
1000.047	257.46
1000.408	285.55
1000.768	250.44
1001.128	339.38
1001.488	273.84
1001.848	346.4
1002.208	290.23
1002.568	243.42
1002.927	297.25
1003.287	259.8
1003.647	311.29
1004.007	292.57
1004.366	297.25
1004.726	374.49
1005.085	313.63
1005.444	334.7
1005.804	278.52
1006.163	252.78
1006.522	250.44
1006.881	294.91
1007.24	351.08
1007.599	304.27
1007.958	287.89
1008.317	304.27
1008.676	304.27
1009.035	304.27
1009.393	397.89
1009.752	332.36
1010.111	299.59
1010.469	299.59
1010.828	257.46
1011.186	285.55
1011.544	271.5
1011.903	278.52
1012.261	358.1
1012.619	327.68
1012.977	379.17
1013.335	301.93
1013.693	276.18
1014.051	297.25
1014.409	292.57
1014.767	337.04
1015.124	297.25
1015.482	346.4
1015.84	327.68
1016.197	320.65
1016.555	283.2
1016.912	308.95
1017.269	301.93
1017.627	273.84
1017.984	353.42
1018.341	381.51
1018.698	301.93
1019.055	278.52
1019.412	320.65
1019.769	280.86
1020.126	294.91
1020.483	320.65
1020.84	355.76
1021.196	292.57
1021.553	334.7
1021.909	271.5
1022.266	283.2
1022.622	325.33
1022.979	330.02
1023.335	280.86
1023.691	264.48
1024.047	278.52
1024.404	355.76
1024.76	311.29
1025.116	301.93
1025.472	301.93
1025.827	341.72
1026.183	344.06
1026.539	292.57
1026.895	227.03
1027.25	278.52
1027.606	318.31
1027.961	318.31
1028.317	264.48
1028.672	283.2
1029.028	388.53
1029.383	297.25
1029.738	301.93
1030.093	264.48
1030.448	320.65
1030.803	318.31
1031.158	262.14
1031.513	278.52
1031.868	325.33
1032.223	255.12
1032.577	301.93
1032.932	259.8
1033.287	346.4
1033.641	332.36
1033.996	287.89
1034.35	348.74
1034.704	257.46
1035.059	273.84
1035.413	346.4
1035.767	346.4
1036.121	346.4
