Data from Al_FLMS009871__1179__16-38-03-787.txt Node

Date: Fri Mar 08 16:38:03 CST 2024
User: pe5414po
Spectrometer: FLMS00987
Trigger mode: 0
Integration Time (sec): 1.000000E-1
Scans to average: 1
Electric dark correction enabled: true
Nonlinearity correction enabled: false
Boxcar width: 0
XAxis mode: Wavelengths
Number of Pixels in Spectrum: 2048
>>>>>Begin Spectral Data<<<<<
188.938	-59.39
189.409	-59.39
189.879	-59.39
190.349	-50.03
190.819	-64.07
191.29	-117.9
191.76	-157.69
192.23	-106.2
192.7	-66.41
193.17	-68.75
193.64	1.46
194.109	-40.67
194.579	-94.5
195.049	-24.28
195.519	78.7
195.988	62.32
196.458	64.66
196.927	120.83
197.397	104.45
197.866	132.53
198.336	111.47
198.805	209.77
199.274	181.68
199.744	202.75
200.213	240.2
200.682	205.09
201.151	240.2
201.62	155.94
202.089	265.94
202.558	200.41
203.027	275.31
203.495	303.39
203.964	265.94
204.433	296.37
204.902	258.92
205.37	268.28
205.839	357.22
206.307	324.46
206.776	275.31
207.244	294.03
207.712	303.39
208.181	310.41
208.649	354.88
209.117	268.28
209.585	324.46
210.053	277.65
210.521	329.14
210.989	312.75
211.457	289.35
211.925	298.71
212.393	312.75
212.861	263.6
213.328	235.52
213.796	336.16
214.264	336.16
214.731	329.14
215.199	226.15
215.666	272.96
216.133	312.75
216.601	317.44
217.068	272.96
217.535	305.73
218.003	282.33
218.47	277.65
218.937	312.75
219.404	263.6
219.871	350.2
220.338	268.28
220.805	265.94
221.271	282.33
221.738	324.46
222.205	301.05
222.671	308.07
223.138	282.33
223.605	301.05
224.071	340.84
224.538	272.96
225.004	279.99
225.47	282.33
225.937	263.6
226.403	249.56
226.869	226.15
227.335	289.35
227.801	282.33
228.267	272.96
228.733	294.03
229.199	272.96
229.665	308.07
230.131	254.24
230.597	301.05
231.062	268.28
231.528	333.82
231.994	317.44
232.459	296.37
232.925	291.69
233.39	284.67
233.856	214.45
234.321	265.94
234.786	326.8
235.252	329.14
235.717	277.65
236.182	261.26
236.647	296.37
237.112	298.71
237.577	310.41
238.042	265.94
238.507	336.16
238.972	294.03
239.436	279.99
239.901	263.6
240.366	296.37
240.83	289.35
241.295	324.46
241.76	350.2
242.224	235.52
242.688	308.07
243.153	294.03
243.617	340.84
244.081	296.37
244.545	296.37
245.01	340.84
245.474	282.33
245.938	310.41
246.402	317.44
246.866	368.93
247.33	277.65
247.793	254.24
248.257	254.24
248.721	270.62
249.185	315.09
249.648	284.67
250.112	291.69
250.575	244.88
251.039	289.35
251.502	294.03
251.965	235.52
252.429	357.22
252.892	258.92
253.355	336.16
253.818	296.37
254.281	324.46
254.744	291.69
255.207	308.07
255.67	256.58
256.133	265.94
256.596	237.86
257.059	296.37
257.522	303.39
257.984	319.78
258.447	305.73
258.909	305.73
259.372	265.94
259.834	277.65
260.297	272.96
260.759	303.39
261.221	294.03
261.684	315.09
262.146	270.62
262.608	272.96
263.07	282.33
263.532	375.95
263.994	294.03
264.456	279.99
264.918	338.5
265.38	268.28
265.842	338.5
266.303	343.18
266.765	303.39
267.227	291.69
267.688	336.16
268.15	296.37
268.611	279.99
269.072	329.14
269.534	333.82
269.995	308.07
270.456	284.67
270.918	242.54
271.379	291.69
271.84	256.58
272.301	350.2
272.762	361.91
273.223	303.39
273.684	338.5
274.144	361.91
274.605	310.41
275.066	308.07
275.527	301.05
275.987	413.4
276.448	284.67
276.908	244.88
277.369	336.16
277.829	296.37
278.289	319.78
278.75	282.33
279.21	319.78
279.67	308.07
280.13	317.44
280.59	352.54
281.05	305.73
281.51	357.22
281.97	345.52
282.43	340.84
282.89	303.39
283.35	298.71
283.809	315.09
284.269	364.25
284.729	268.28
285.188	329.14
285.648	359.56
286.107	317.44
286.567	322.12
287.026	298.71
287.485	366.59
287.944	301.05
288.404	270.62
288.863	291.69
289.322	237.86
289.781	235.52
290.24	291.69
290.699	303.39
291.158	315.09
291.616	291.69
292.075	343.18
292.534	272.96
292.992	296.37
293.451	336.16
293.91	329.14
294.368	303.39
294.827	371.27
295.285	350.2
295.743	378.29
296.202	333.82
296.66	361.91
297.118	350.2
297.576	310.41
298.034	287.01
298.492	317.44
298.95	251.9
299.408	249.56
299.866	291.69
300.324	373.61
300.781	336.16
301.239	322.12
301.697	317.44
302.154	319.78
302.612	312.75
303.069	331.48
303.527	352.54
303.984	336.16
304.441	319.78
304.899	371.27
305.356	277.65
305.813	308.07
306.27	326.8
306.727	301.05
307.184	279.99
307.641	256.58
308.098	298.71
308.555	294.03
309.012	310.41
309.468	364.25
309.925	319.78
310.382	308.07
310.838	324.46
311.295	324.46
311.751	364.25
312.208	366.59
312.664	373.61
313.12	303.39
313.577	387.65
314.033	312.75
314.489	305.73
314.945	326.8
315.401	352.54
315.857	310.41
316.313	287.01
316.769	275.31
317.225	336.16
317.681	331.48
318.136	319.78
318.592	378.29
319.048	305.73
319.503	298.71
319.959	343.18
320.414	272.96
320.869	371.27
321.325	312.75
321.78	364.25
322.235	322.12
322.691	361.91
323.146	294.03
323.601	315.09
324.056	312.75
324.511	366.59
324.966	294.03
325.421	329.14
325.875	312.75
326.33	296.37
326.785	291.69
327.24	282.33
327.694	347.86
328.149	324.46
328.603	331.48
329.058	272.96
329.512	338.5
329.966	319.78
330.421	350.2
330.875	305.73
331.329	319.78
331.783	291.69
332.237	347.86
332.691	291.69
333.145	331.48
333.599	301.05
334.053	291.69
334.507	352.54
334.96	366.59
335.414	343.18
335.868	268.28
336.321	310.41
336.775	354.88
337.228	296.37
337.682	303.39
338.135	312.75
338.588	352.54
339.042	336.16
339.495	378.29
339.948	399.35
340.401	343.18
340.854	312.75
341.307	326.8
341.76	315.09
342.213	378.29
342.666	308.07
343.119	324.46
343.571	261.26
344.024	308.07
344.477	404.03
344.929	364.25
345.382	368.93
345.834	336.16
346.287	401.69
346.739	389.99
347.191	373.61
347.644	305.73
348.096	350.2
348.548	336.16
349	340.84
349.452	308.07
349.904	308.07
350.356	352.54
350.808	364.25
351.26	380.63
351.711	289.35
352.163	354.88
352.615	289.35
353.066	270.62
353.518	359.56
353.969	354.88
354.421	331.48
354.872	317.44
355.324	331.48
355.775	319.78
356.226	364.25
356.677	282.33
357.128	401.69
357.579	296.37
358.03	347.86
358.481	345.52
358.932	375.95
359.383	322.12
359.834	326.8
360.285	319.78
360.735	270.62
361.186	277.65
361.637	343.18
362.087	345.52
362.538	305.73
362.988	373.61
363.438	322.12
363.889	298.71
364.339	387.65
364.789	312.75
365.239	350.2
365.689	352.54
366.139	392.33
366.589	305.73
367.039	291.69
367.489	399.35
367.939	336.16
368.389	298.71
368.839	359.56
369.288	287.01
369.738	317.44
370.187	373.61
370.637	340.84
371.086	324.46
371.536	350.2
371.985	298.71
372.434	326.8
372.884	361.91
373.333	331.48
373.782	315.09
374.231	350.2
374.68	373.61
375.129	331.48
375.578	310.41
376.027	331.48
376.475	301.05
376.924	322.12
377.373	436.8
377.822	352.54
378.27	319.78
378.719	413.4
379.167	352.54
379.616	345.52
380.064	303.39
380.512	357.22
380.961	343.18
381.409	378.29
381.857	275.31
382.305	352.54
382.753	319.78
383.201	322.12
383.649	361.91
384.097	329.14
384.545	312.75
384.992	282.33
385.44	305.73
385.888	368.93
386.335	371.27
386.783	371.27
387.231	282.33
387.678	322.12
388.125	333.82
388.573	331.48
389.02	326.8
389.467	301.05
389.914	371.27
390.362	397.01
390.809	343.18
391.256	326.8
391.703	305.73
392.15	326.8
392.596	352.54
393.043	298.71
393.49	354.88
393.937	270.62
394.383	354.88
394.83	368.93
395.276	340.84
395.723	364.25
396.169	350.2
396.616	364.25
397.062	333.82
397.508	422.76
397.954	354.88
398.401	399.35
398.847	303.39
399.293	378.29
399.739	338.5
400.185	387.65
400.631	237.86
401.076	296.37
401.522	375.95
401.968	268.28
402.414	315.09
402.859	399.35
403.305	279.99
403.75	296.37
404.196	373.61
404.641	294.03
405.086	284.67
405.532	373.61
405.977	270.62
406.422	350.2
406.867	352.54
407.312	258.92
407.757	317.44
408.202	298.71
408.647	380.63
409.092	322.12
409.537	265.94
409.982	345.52
410.426	336.16
410.871	340.84
411.316	361.91
411.76	319.78
412.205	298.71
412.649	368.93
413.093	361.91
413.538	354.88
413.982	343.18
414.426	340.84
414.87	375.95
415.314	364.25
415.758	303.39
416.202	326.8
416.646	221.47
417.09	352.54
417.534	368.93
417.978	371.27
418.421	242.54
418.865	256.58
419.309	303.39
419.752	287.01
420.196	331.48
420.639	382.97
421.083	324.46
421.526	422.76
421.969	378.29
422.412	385.31
422.856	397.01
423.299	382.97
423.742	272.96
424.185	375.95
424.628	291.69
425.071	315.09
425.513	298.71
425.956	357.22
426.399	296.37
426.842	301.05
427.284	331.48
427.727	298.71
428.169	296.37
428.612	382.97
429.054	329.14
429.497	333.82
429.939	326.8
430.381	340.84
430.823	308.07
431.265	296.37
431.707	322.12
432.149	359.56
432.591	333.82
433.033	331.48
433.475	336.16
433.917	333.82
434.359	272.96
434.8	415.74
435.242	366.59
435.684	242.54
436.125	392.33
436.567	347.86
437.008	361.91
437.449	305.73
437.891	294.03
438.332	294.03
438.773	357.22
439.214	364.25
439.656	336.16
440.097	371.27
440.538	343.18
440.978	361.91
441.419	420.42
441.86	340.84
442.301	336.16
442.742	382.97
443.182	425.1
443.623	354.88
444.063	352.54
444.504	322.12
444.944	340.84
445.385	282.33
445.825	294.03
446.265	354.88
446.706	315.09
447.146	315.09
447.586	371.27
448.026	310.41
448.466	350.2
448.906	368.93
449.346	378.29
449.786	275.31
450.225	333.82
450.665	343.18
451.105	380.63
451.544	310.41
451.984	333.82
452.424	308.07
452.863	298.71
453.302	354.88
453.742	324.46
454.181	279.99
454.62	331.48
455.059	340.84
455.499	298.71
455.938	359.56
456.377	294.03
456.816	366.59
457.254	305.73
457.693	340.84
458.132	375.95
458.571	319.78
459.01	324.46
459.448	289.35
459.887	310.41
460.325	347.86
460.764	291.69
461.202	247.22
461.641	382.97
462.079	287.01
462.517	291.69
462.955	296.37
463.393	343.18
463.832	279.99
464.27	247.22
464.708	357.22
465.145	317.44
465.583	354.88
466.021	289.35
466.459	329.14
466.897	338.5
467.334	289.35
467.772	364.25
468.209	350.2
468.647	301.05
469.084	394.67
469.522	373.61
469.959	340.84
470.396	282.33
470.833	361.91
471.271	347.86
471.708	350.2
472.145	305.73
472.582	324.46
473.019	345.52
473.456	319.78
473.892	338.5
474.329	303.39
474.766	289.35
475.202	331.48
475.639	347.86
476.076	319.78
476.512	357.22
476.949	401.69
477.385	291.69
477.821	324.46
478.258	291.69
478.694	329.14
479.13	275.31
479.566	343.18
480.002	298.71
480.438	305.73
480.874	324.46
481.31	333.82
481.746	298.71
482.181	359.56
482.617	303.39
483.053	312.75
483.488	275.31
483.924	359.56
484.36	282.33
484.795	343.18
485.23	343.18
485.666	375.95
486.101	333.82
486.536	338.5
486.971	279.99
487.407	331.48
487.842	319.78
488.277	270.62
488.712	282.33
489.146	406.38
489.581	347.86
490.016	357.22
490.451	326.8
490.885	315.09
491.32	343.18
491.755	301.05
492.189	375.95
492.624	350.2
493.058	261.26
493.492	326.8
493.927	343.18
494.361	347.86
494.795	347.86
495.229	364.25
495.663	242.54
496.097	359.56
496.531	319.78
496.965	319.78
497.399	392.33
497.833	317.44
498.266	361.91
498.7	305.73
499.134	319.78
499.567	336.16
500.001	387.65
500.434	312.75
500.868	322.12
501.301	319.78
501.734	340.84
502.168	357.22
502.601	291.69
503.034	329.14
503.467	310.41
503.9	422.76
504.333	310.41
504.766	371.27
505.199	366.59
505.632	361.91
506.064	319.78
506.497	338.5
506.93	340.84
507.362	329.14
507.795	387.65
508.227	333.82
508.66	404.03
509.092	333.82
509.524	319.78
509.956	389.99
510.389	350.2
510.821	333.82
511.253	289.35
511.685	380.63
512.117	354.88
512.549	352.54
512.981	317.44
513.412	326.8
513.844	354.88
514.276	368.93
514.707	289.35
515.139	350.2
515.571	350.2
516.002	345.52
516.433	310.41
516.865	354.88
517.296	315.09
517.727	338.5
518.159	392.33
518.59	422.76
519.021	331.48
519.452	378.29
519.883	357.22
520.314	331.48
520.744	305.73
521.175	394.67
521.606	389.99
522.037	305.73
522.467	380.63
522.898	317.44
523.328	315.09
523.759	322.12
524.189	392.33
524.62	340.84
525.05	298.71
525.48	308.07
525.91	296.37
526.341	350.2
526.771	371.27
527.201	336.16
527.631	345.52
528.061	312.75
528.49	287.01
528.92	359.56
529.35	326.8
529.78	336.16
530.209	357.22
530.639	345.52
531.068	347.86
531.498	317.44
531.927	350.2
532.357	333.82
532.786	336.16
533.215	329.14
533.644	289.35
534.074	179.34
534.503	350.2
534.932	364.25
535.361	272.96
535.79	294.03
536.218	315.09
536.647	380.63
537.076	294.03
537.505	282.33
537.933	333.82
538.362	322.12
538.79	331.48
539.219	315.09
539.647	324.46
540.076	308.07
540.504	319.78
540.932	291.69
541.36	322.12
541.788	350.2
542.217	317.44
542.645	324.46
543.073	361.91
543.5	357.22
543.928	333.82
544.356	317.44
544.784	382.97
545.211	354.88
545.639	343.18
546.067	406.38
546.494	364.25
546.922	312.75
547.349	289.35
547.776	279.99
548.204	277.65
548.631	308.07
549.058	357.22
549.485	340.84
549.912	294.03
550.339	303.39
550.766	322.12
551.193	352.54
551.62	319.78
552.047	319.78
552.474	301.05
552.9	347.86
553.327	279.99
553.754	324.46
554.18	319.78
554.607	324.46
555.033	268.28
555.459	359.56
555.886	336.16
556.312	347.86
556.738	303.39
557.164	364.25
557.59	291.69
558.016	382.97
558.442	329.14
558.868	244.88
559.294	275.31
559.72	389.99
560.145	392.33
560.571	310.41
560.997	305.73
561.422	371.27
561.848	322.12
562.273	289.35
562.699	366.59
563.124	359.56
563.549	242.54
563.974	268.28
564.4	336.16
564.825	343.18
565.25	389.99
565.675	331.48
566.1	317.44
566.525	336.16
566.95	354.88
567.374	331.48
567.799	319.78
568.224	298.71
568.648	331.48
569.073	359.56
569.497	329.14
569.922	315.09
570.346	279.99
570.771	361.91
571.195	315.09
571.619	361.91
572.043	368.93
572.467	345.52
572.891	317.44
573.315	340.84
573.739	322.12
574.163	380.63
574.587	270.62
575.011	359.56
575.435	343.18
575.858	315.09
576.282	397.01
576.705	312.75
577.129	366.59
577.552	336.16
577.976	289.35
578.399	333.82
578.822	357.22
579.245	347.86
579.669	359.56
580.092	303.39
580.515	317.44
580.938	352.54
581.361	291.69
581.784	277.65
582.206	343.18
582.629	317.44
583.052	350.2
583.474	287.01
583.897	350.2
584.32	336.16
584.742	336.16
585.165	361.91
585.587	317.44
586.009	357.22
586.431	387.65
586.854	378.29
587.276	331.48
587.698	284.67
588.12	272.96
588.542	319.78
588.964	357.22
589.386	315.09
589.807	338.5
590.229	375.95
590.651	371.27
591.073	380.63
591.494	345.52
591.916	329.14
592.337	347.86
592.759	364.25
593.18	294.03
593.601	359.56
594.022	333.82
594.444	329.14
594.865	326.8
595.286	385.31
595.707	282.33
596.128	359.56
596.549	343.18
596.97	448.51
597.39	408.72
597.811	277.65
598.232	324.46
598.652	350.2
599.073	298.71
599.494	279.99
599.914	308.07
600.334	397.01
600.755	347.86
601.175	359.56
601.595	322.12
602.015	439.14
602.436	333.82
602.856	389.99
603.276	343.18
603.696	352.54
604.115	331.48
604.535	368.93
604.955	336.16
605.375	350.2
605.794	322.12
606.214	366.59
606.634	357.22
607.053	345.52
607.473	324.46
607.892	347.86
608.311	296.37
608.731	324.46
609.15	378.29
609.569	359.56
609.988	329.14
610.407	303.39
610.826	345.52
611.245	375.95
611.664	338.5
612.083	301.05
612.501	287.01
612.92	326.8
613.339	357.22
613.757	319.78
614.176	380.63
614.594	354.88
615.013	326.8
615.431	329.14
615.85	333.82
616.268	303.39
616.686	340.84
617.104	364.25
617.522	361.91
617.94	373.61
618.358	315.09
618.776	310.41
619.194	303.39
619.612	317.44
620.03	322.12
620.447	317.44
620.865	296.37
621.282	347.86
621.7	340.84
622.117	357.22
622.535	326.8
622.952	350.2
623.369	361.91
623.787	319.78
624.204	244.88
624.621	378.29
625.038	361.91
625.455	387.65
625.872	343.18
626.289	333.82
626.706	319.78
627.123	294.03
627.539	287.01
627.956	340.84
628.373	294.03
628.789	371.27
629.206	361.91
629.622	340.84
630.038	371.27
630.455	343.18
630.871	284.67
631.287	303.39
631.703	347.86
632.12	364.25
632.536	303.39
632.952	357.22
633.368	408.72
633.783	375.95
634.199	340.84
634.615	343.18
635.031	338.5
635.446	317.44
635.862	408.72
636.277	329.14
636.693	317.44
637.108	333.82
637.524	364.25
637.939	336.16
638.354	329.14
638.77	317.44
639.185	392.33
639.6	373.61
640.015	373.61
640.43	357.22
640.845	265.94
641.259	331.48
641.674	261.26
642.089	373.61
642.504	333.82
642.918	315.09
643.333	361.91
643.747	308.07
644.162	308.07
644.576	312.75
644.991	326.8
645.405	308.07
645.819	308.07
646.233	345.52
646.647	244.88
647.061	336.16
647.475	387.65
647.889	289.35
648.303	354.88
648.717	329.14
649.131	392.33
649.545	357.22
649.958	368.93
650.372	331.48
650.785	329.14
651.199	387.65
651.612	291.69
652.026	333.82
652.439	333.82
652.852	268.28
653.266	305.73
653.679	282.33
654.092	345.52
654.505	326.8
654.918	350.2
655.331	336.16
655.744	357.22
656.156	382.97
656.569	331.48
656.982	291.69
657.394	326.8
657.807	277.65
658.22	401.69
658.632	366.59
659.044	324.46
659.457	312.75
659.869	336.16
660.281	364.25
660.693	333.82
661.106	294.03
661.518	329.14
661.93	322.12
662.342	345.52
662.754	359.56
663.165	315.09
663.577	371.27
663.989	418.08
664.401	382.97
664.812	291.69
665.224	294.03
665.635	331.48
666.047	373.61
666.458	308.07
666.869	375.95
667.281	319.78
667.692	357.22
668.103	345.52
668.514	294.03
668.925	329.14
669.336	296.37
669.747	301.05
670.158	397.01
670.569	329.14
670.979	329.14
671.39	368.93
671.801	315.09
672.211	310.41
672.622	315.09
673.032	329.14
673.443	361.91
673.853	303.39
674.263	394.67
674.674	378.29
675.084	319.78
675.494	350.2
675.904	418.08
676.314	329.14
676.724	375.95
677.134	357.22
677.544	380.63
677.953	364.25
678.363	296.37
678.773	361.91
679.182	371.27
679.592	368.93
680.001	373.61
680.411	336.16
680.82	359.56
681.23	345.52
681.639	301.05
682.048	322.12
682.457	340.84
682.866	338.5
683.275	373.61
683.684	310.41
684.093	361.91
684.502	315.09
684.911	329.14
685.32	336.16
685.728	343.18
686.137	359.56
686.546	378.29
686.954	310.41
687.363	322.12
687.771	326.8
688.179	221.47
688.588	347.86
688.996	221.47
689.404	315.09
689.812	326.8
690.22	289.35
690.628	319.78
691.036	317.44
691.444	340.84
691.852	308.07
692.26	331.48
692.667	324.46
693.075	340.84
693.483	324.46
693.89	336.16
694.298	361.91
694.705	364.25
695.112	333.82
695.52	387.65
695.927	340.84
696.334	336.16
696.741	359.56
697.148	359.56
697.555	315.09
697.962	418.08
698.369	345.52
698.776	319.78
699.183	315.09
699.59	359.56
699.996	317.44
700.403	350.2
700.81	338.5
701.216	322.12
701.623	357.22
702.029	312.75
702.435	357.22
702.842	343.18
703.248	394.67
703.654	361.91
704.06	240.2
704.466	291.69
704.872	303.39
705.278	268.28
705.684	317.44
706.09	308.07
706.496	371.27
706.901	263.6
707.307	312.75
707.712	350.2
708.118	364.25
708.523	312.75
708.929	301.05
709.334	329.14
709.74	333.82
710.145	265.94
710.55	315.09
710.955	315.09
711.36	277.65
711.765	378.29
712.17	287.01
712.575	322.12
712.98	897.89
713.385	298.71
713.789	319.78
714.194	279.99
714.599	291.69
715.003	322.12
715.408	373.61
715.812	319.78
716.217	340.84
716.621	329.14
717.025	357.22
717.429	373.61
717.833	315.09
718.238	319.78
718.642	329.14
719.046	343.18
719.449	322.12
719.853	345.52
720.257	357.22
720.661	291.69
721.065	317.44
721.468	319.78
721.872	312.75
722.275	287.01
722.679	361.91
723.082	345.52
723.485	310.41
723.889	296.37
724.292	308.07
724.695	336.16
725.098	354.88
725.501	301.05
725.904	317.44
726.307	368.93
726.71	359.56
727.113	317.44
727.516	319.78
727.918	354.88
728.321	315.09
728.724	291.69
729.126	294.03
729.529	324.46
729.931	429.78
730.333	317.44
730.736	380.63
731.138	343.18
731.54	350.2
731.942	368.93
732.344	284.67
732.746	326.8
733.148	336.16
733.55	272.96
733.952	315.09
734.354	301.05
734.756	336.16
735.157	275.31
735.559	352.54
735.96	251.9
736.362	277.65
736.763	331.48
737.165	324.46
737.566	317.44
737.967	294.03
738.368	354.88
738.77	357.22
739.171	312.75
739.572	317.44
739.973	352.54
740.374	312.75
740.774	301.05
741.175	319.78
741.576	312.75
741.977	378.29
742.377	361.91
742.778	343.18
743.178	357.22
743.579	319.78
743.979	347.86
744.379	312.75
744.78	298.71
745.18	375.95
745.58	366.59
745.98	352.54
746.38	296.37
746.78	308.07
747.18	361.91
747.58	319.78
747.98	336.16
748.38	326.8
748.779	387.65
749.179	251.9
749.578	338.5
749.978	368.93
750.377	317.44
750.777	333.82
751.176	256.58
751.575	329.14
751.975	399.35
752.374	406.38
752.773	397.01
753.172	343.18
753.571	375.95
753.97	326.8
754.369	352.54
754.768	333.82
755.166	359.56
755.565	347.86
755.964	289.35
756.362	331.48
756.761	279.99
757.159	343.18
757.558	287.01
757.956	298.71
758.354	366.59
758.753	354.88
759.151	279.99
759.549	322.12
759.947	336.16
760.345	310.41
760.743	298.71
761.141	373.61
761.539	343.18
761.936	279.99
762.334	258.92
762.732	340.84
763.129	308.07
763.527	284.67
763.924	312.75
764.322	359.56
764.719	352.54
765.117	289.35
765.514	357.22
765.911	305.73
766.308	385.31
766.705	326.8
767.102	312.75
767.499	324.46
767.896	317.44
768.293	343.18
768.69	326.8
769.086	375.95
769.483	303.39
769.88	317.44
770.276	294.03
770.673	317.44
771.069	343.18
771.466	319.78
771.862	336.16
772.258	338.5
772.654	345.52
773.05	294.03
773.447	329.14
773.843	359.56
774.239	352.54
774.634	326.8
775.03	291.69
775.426	319.78
775.822	310.41
776.218	284.67
776.613	373.61
777.009	366.59
777.404	315.09
777.8	263.6
778.195	338.5
778.59	364.25
778.986	277.65
779.381	368.93
779.776	352.54
780.171	277.65
780.566	317.44
780.961	322.12
781.356	329.14
781.751	350.2
782.146	326.8
782.54	378.29
782.935	319.78
783.33	329.14
783.724	315.09
784.119	331.48
784.513	282.33
784.908	371.27
785.302	310.41
785.696	279.99
786.09	319.78
786.485	319.78
786.879	336.16
787.273	352.54
787.667	331.48
788.061	380.63
788.454	343.18
788.848	345.52
789.242	312.75
789.636	310.41
790.029	378.29
790.423	294.03
790.816	331.48
791.21	343.18
791.603	361.91
791.997	394.67
792.39	282.33
792.783	324.46
793.176	364.25
793.569	336.16
793.962	305.73
794.355	385.31
794.748	378.29
795.141	308.07
795.534	345.52
795.927	331.48
796.319	389.99
796.712	371.27
797.105	308.07
797.497	387.65
797.89	357.22
798.282	378.29
798.674	350.2
799.067	364.25
799.459	361.91
799.851	291.69
800.243	357.22
800.635	333.82
801.027	284.67
801.419	336.16
801.811	347.86
802.203	282.33
802.594	298.71
802.986	357.22
803.378	350.2
803.769	305.73
804.161	338.5
804.552	326.8
804.944	277.65
805.335	343.18
805.726	378.29
806.118	291.69
806.509	340.84
806.9	331.48
807.291	401.69
807.682	338.5
808.073	357.22
808.464	305.73
808.855	291.69
809.245	364.25
809.636	277.65
810.027	301.05
810.417	378.29
810.808	296.37
811.198	317.44
811.589	326.8
811.979	361.91
812.369	315.09
812.759	326.8
813.15	312.75
813.54	345.52
813.93	228.49
814.32	294.03
814.71	303.39
815.1	394.67
815.489	401.69
815.879	357.22
816.269	287.01
816.658	380.63
817.048	305.73
817.438	373.61
817.827	319.78
818.216	336.16
818.606	261.26
818.995	350.2
819.384	392.33
819.773	319.78
820.163	322.12
820.552	308.07
820.941	343.18
821.33	364.25
821.718	272.96
822.107	315.09
822.496	312.75
822.885	336.16
823.273	284.67
823.662	305.73
824.05	303.39
824.439	324.46
824.827	322.12
825.216	361.91
825.604	275.31
825.992	380.63
826.38	294.03
826.768	380.63
827.156	317.44
827.544	343.18
827.932	336.16
828.32	347.86
828.708	326.8
829.096	392.33
829.483	303.39
829.871	312.75
830.259	329.14
830.646	308.07
831.034	340.84
831.421	366.59
831.808	319.78
832.196	310.41
832.583	368.93
832.97	385.31
833.357	357.22
833.744	329.14
834.131	385.31
834.518	310.41
834.905	282.33
835.292	282.33
835.678	305.73
836.065	254.24
836.452	315.09
836.838	282.33
837.225	380.63
837.611	354.88
837.998	371.27
838.384	340.84
838.77	347.86
839.157	322.12
839.543	336.16
839.929	326.8
840.315	413.4
840.701	305.73
841.087	343.18
841.473	289.35
841.858	308.07
842.244	277.65
842.63	298.71
843.015	336.16
843.401	626.39
843.787	326.8
844.172	387.65
844.557	298.71
844.943	303.39
845.328	331.48
845.713	359.56
846.098	343.18
846.483	359.56
846.868	366.59
847.253	347.86
847.638	385.31
848.023	331.48
848.408	310.41
848.793	324.46
849.177	333.82
849.562	408.72
849.947	338.5
850.331	305.73
850.715	429.78
851.1	336.16
851.484	336.16
851.868	352.54
852.253	270.62
852.637	322.12
853.021	317.44
853.405	265.94
853.789	317.44
854.173	331.48
854.557	357.22
854.94	298.71
855.324	389.99
855.708	331.48
856.091	324.46
856.475	333.82
856.858	336.16
857.242	340.84
857.625	357.22
858.009	359.56
858.392	387.65
858.775	336.16
859.158	315.09
859.541	375.95
859.924	287.01
860.307	324.46
860.69	336.16
861.073	294.03
861.456	315.09
861.838	303.39
862.221	387.65
862.604	350.2
862.986	287.01
863.369	336.16
863.751	310.41
864.133	277.65
864.516	296.37
864.898	392.33
865.28	340.84
865.662	301.05
866.044	331.48
866.426	331.48
866.808	326.8
867.19	272.96
867.572	319.78
867.954	380.63
868.336	371.27
868.717	308.07
869.099	310.41
869.48	394.67
869.862	261.26
870.243	368.93
870.625	270.62
871.006	338.5
871.387	347.86
871.768	350.2
872.149	305.73
872.53	354.88
872.911	315.09
873.292	319.78
873.673	375.95
874.054	340.84
874.435	331.48
874.815	308.07
875.196	282.33
875.577	343.18
875.957	352.54
876.338	333.82
876.718	331.48
877.098	347.86
877.479	303.39
877.859	368.93
878.239	317.44
878.619	361.91
878.999	263.6
879.379	347.86
879.759	352.54
880.139	359.56
880.519	265.94
880.898	272.96
881.278	319.78
881.658	368.93
882.037	338.5
882.417	319.78
882.796	296.37
883.176	301.05
883.555	277.65
883.934	319.78
884.313	296.37
884.693	322.12
885.072	347.86
885.451	331.48
885.83	375.95
886.209	298.71
886.587	357.22
886.966	310.41
887.345	352.54
887.724	347.86
888.102	279.99
888.481	287.01
888.859	343.18
889.238	368.93
889.616	315.09
889.994	354.88
890.373	382.97
890.751	326.8
891.129	347.86
891.507	298.71
891.885	359.56
892.263	294.03
892.641	322.12
893.019	366.59
893.396	364.25
893.774	319.78
894.152	324.46
894.529	357.22
894.907	305.73
895.284	354.88
895.662	315.09
896.039	354.88
896.416	263.6
896.794	336.16
897.171	406.38
897.548	237.86
897.925	345.52
898.302	287.01
898.679	312.75
899.056	352.54
899.433	263.6
899.809	308.07
900.186	312.75
900.563	268.28
900.939	275.31
901.316	371.27
901.692	265.94
902.069	361.91
902.445	397.01
902.821	301.05
903.197	294.03
903.574	399.35
903.95	397.01
904.326	361.91
904.702	301.05
905.078	305.73
905.454	275.31
905.829	315.09
906.205	354.88
906.581	319.78
906.956	336.16
907.332	324.46
907.707	294.03
908.083	303.39
908.458	338.5
908.833	294.03
909.209	340.84
909.584	366.59
909.959	404.03
910.334	338.5
910.709	272.96
911.084	287.01
911.459	310.41
911.834	282.33
912.209	352.54
912.583	319.78
912.958	312.75
913.333	338.5
913.707	375.95
914.082	378.29
914.456	371.27
914.83	361.91
915.205	277.65
915.579	389.99
915.953	352.54
916.327	350.2
916.701	350.2
917.075	326.8
917.449	317.44
917.823	289.35
918.197	333.82
918.571	361.91
918.944	289.35
919.318	331.48
919.692	308.07
920.065	308.07
920.438	392.33
920.812	298.71
921.185	343.18
921.558	378.29
921.932	345.52
922.305	317.44
922.678	284.67
923.051	312.75
923.424	338.5
923.797	279.99
924.17	345.52
924.542	272.96
924.915	272.96
925.288	315.09
925.661	368.93
926.033	387.65
926.406	324.46
926.778	315.09
927.15	317.44
927.523	319.78
927.895	343.18
928.267	326.8
928.639	340.84
929.011	298.71
929.383	380.63
929.755	312.75
930.127	289.35
930.499	352.54
930.871	308.07
931.242	294.03
931.614	357.22
931.986	294.03
932.357	294.03
932.729	326.8
933.1	329.14
933.471	315.09
933.843	296.37
934.214	258.92
934.585	364.25
934.956	357.22
935.327	322.12
935.698	397.01
936.069	298.71
936.44	336.16
936.811	343.18
937.182	343.18
937.552	352.54
937.923	354.88
938.293	308.07
938.664	382.97
939.034	312.75
939.405	350.2
939.775	340.84
940.145	256.58
940.516	317.44
940.886	244.88
941.256	324.46
941.626	310.41
941.996	305.73
942.366	331.48
942.735	343.18
943.105	322.12
943.475	254.24
943.845	303.39
944.214	338.5
944.584	368.93
944.953	301.05
945.323	324.46
945.692	399.35
946.061	371.27
946.43	371.27
946.8	333.82
947.169	312.75
947.538	294.03
947.907	378.29
948.276	382.97
948.645	284.67
949.013	296.37
949.382	319.78
949.751	319.78
950.119	331.48
950.488	347.86
950.857	359.56
951.225	319.78
951.593	324.46
951.962	319.78
952.33	361.91
952.698	343.18
953.066	352.54
953.434	312.75
953.802	347.86
954.17	275.31
954.538	354.88
954.906	336.16
955.274	338.5
955.642	385.31
956.009	366.59
956.377	303.39
956.744	317.44
957.112	375.95
957.479	347.86
957.847	315.09
958.214	338.5
958.581	364.25
958.948	371.27
959.315	315.09
959.683	322.12
960.05	287.01
960.416	359.56
960.783	401.69
961.15	340.84
961.517	357.22
961.884	368.93
962.25	347.86
962.617	303.39
962.983	357.22
963.35	268.28
963.716	319.78
964.082	301.05
964.449	343.18
964.815	385.31
965.181	354.88
965.547	361.91
965.913	333.82
966.279	317.44
966.645	338.5
967.011	354.88
967.377	294.03
967.742	303.39
968.108	354.88
968.474	338.5
968.839	322.12
969.205	329.14
969.57	324.46
969.935	322.12
970.301	333.82
970.666	296.37
971.031	268.28
971.396	368.93
971.761	371.27
972.126	270.62
972.491	345.52
972.856	308.07
973.221	319.78
973.586	289.35
973.95	387.65
974.315	298.71
974.679	312.75
975.044	315.09
975.408	275.31
975.773	324.46
976.137	354.88
976.501	333.82
976.866	354.88
977.23	347.86
977.594	294.03
977.958	251.9
978.322	275.31
978.686	317.44
979.049	347.86
979.413	366.59
979.777	317.44
980.141	343.18
980.504	331.48
980.868	296.37
981.231	254.24
981.595	298.71
981.958	312.75
982.321	272.96
982.684	350.2
983.048	329.14
983.411	340.84
983.774	329.14
984.137	268.28
984.5	385.31
984.862	333.82
985.225	366.59
985.588	310.41
985.951	336.16
986.313	352.54
986.676	406.38
987.038	263.6
987.401	296.37
987.763	326.8
988.125	359.56
988.488	343.18
988.85	315.09
989.212	284.67
989.574	322.12
989.936	366.59
990.298	345.52
990.66	322.12
991.022	305.73
991.383	305.73
991.745	277.65
992.107	350.2
992.468	249.56
992.83	284.67
993.191	331.48
993.553	382.97
993.914	333.82
994.275	322.12
994.637	352.54
994.998	319.78
995.359	279.99
995.72	303.39
996.081	315.09
996.442	298.71
996.803	296.37
997.163	345.52
997.524	338.5
997.885	256.58
998.245	350.2
998.606	308.07
998.966	312.75
999.327	249.56
999.687	272.96
1000.047	310.41
1000.408	298.71
1000.768	375.95
1001.128	289.35
1001.488	380.63
1001.848	319.78
1002.208	326.8
1002.568	324.46
1002.927	331.48
1003.287	322.12
1003.647	301.05
1004.007	322.12
1004.366	298.71
1004.726	338.5
1005.085	380.63
1005.444	338.5
1005.804	301.05
1006.163	265.94
1006.522	329.14
1006.881	382.97
1007.24	291.69
1007.599	272.96
1007.958	343.18
1008.317	305.73
1008.676	317.44
1009.035	347.86
1009.393	296.37
1009.752	308.07
1010.111	345.52
1010.469	345.52
1010.828	296.37
1011.186	350.2
1011.544	284.67
1011.903	345.52
1012.261	294.03
1012.619	326.8
1012.977	357.22
1013.335	282.33
1013.693	279.99
1014.051	310.41
1014.409	373.61
1014.767	310.41
1015.124	352.54
1015.482	345.52
1015.84	258.92
1016.197	294.03
1016.555	254.24
1016.912	340.84
1017.269	298.71
1017.627	345.52
1017.984	301.05
1018.341	230.84
1018.698	343.18
1019.055	359.56
1019.412	294.03
1019.769	324.46
1020.126	392.33
1020.483	350.2
1020.84	347.86
1021.196	333.82
1021.553	336.16
1021.909	326.8
1022.266	375.95
1022.622	404.03
1022.979	397.01
1023.335	401.69
1023.691	340.84
1024.047	357.22
1024.404	301.05
1024.76	310.41
1025.116	359.56
1025.472	329.14
1025.827	352.54
1026.183	333.82
1026.539	361.91
1026.895	315.09
1027.25	319.78
1027.606	317.44
1027.961	350.2
1028.317	401.69
1028.672	303.39
1029.028	343.18
1029.383	284.67
1029.738	347.86
1030.093	312.75
1030.448	366.59
1030.803	265.94
1031.158	347.86
1031.513	371.27
1031.868	305.73
1032.223	301.05
1032.577	258.92
1032.932	343.18
1033.287	364.25
1033.641	368.93
1033.996	319.78
1034.35	322.12
1034.704	308.07
1035.059	397.01
1035.413	343.18
1035.767	343.18
1036.121	343.18
