Data from Al_FLMS009871__54__11-30-40-623.txt Node

Date: Fri Mar 08 11:30:40 CST 2024
User: pe5414po
Spectrometer: FLMS00987
Trigger mode: 0
Integration Time (sec): 1.000000E-1
Scans to average: 1
Electric dark correction enabled: true
Nonlinearity correction enabled: false
Boxcar width: 0
XAxis mode: Wavelengths
Number of Pixels in Spectrum: 2048
>>>>>Begin Spectral Data<<<<<
188.938	-48.42
189.409	-48.42
189.879	-48.42
190.349	-139.7
190.819	-156.08
191.29	-132.68
191.76	-116.3
192.23	-74.17
192.7	-15.65
193.17	-64.8
193.64	-39.06
194.109	-60.12
194.579	-25.01
195.049	-17.99
195.519	77.97
195.988	49.88
196.458	61.59
196.927	56.9
197.397	106.06
197.866	117.76
198.336	75.63
198.805	244.15
199.274	138.82
199.744	202.02
200.213	178.61
200.682	227.76
201.151	199.68
201.62	251.17
202.089	216.06
202.558	241.81
203.027	253.51
203.495	234.78
203.964	274.57
204.433	255.85
204.902	223.08
205.37	330.75
205.839	237.13
206.307	323.73
206.776	347.13
207.244	307.34
207.712	267.55
208.181	333.09
208.649	314.36
209.117	363.51
209.585	269.89
210.053	319.04
210.521	276.91
210.989	262.87
211.457	246.49
211.925	293.3
212.393	232.44
212.861	234.78
213.328	255.85
213.796	305
214.264	290.96
214.731	307.34
215.199	237.13
215.666	323.73
216.133	361.17
216.601	269.89
217.068	307.34
217.535	272.23
218.003	267.55
218.47	272.23
218.937	213.72
219.404	269.89
219.871	288.62
220.338	244.15
220.805	288.62
221.271	255.85
221.738	269.89
222.205	302.66
222.671	274.57
223.138	260.53
223.605	276.91
224.071	260.53
224.538	258.19
225.004	244.15
225.47	293.3
225.937	225.42
226.403	326.07
226.869	234.78
227.335	335.43
227.801	281.6
228.267	241.81
228.733	330.75
229.199	283.94
229.665	269.89
230.131	274.57
230.597	218.4
231.062	220.74
231.528	234.78
231.994	265.21
232.459	365.85
232.925	248.83
233.39	258.19
233.856	312.02
234.321	216.06
234.786	335.43
235.252	262.87
235.717	272.23
236.182	253.51
236.647	293.3
237.112	316.7
237.577	255.85
238.042	321.38
238.507	255.85
238.972	244.15
239.436	269.89
239.901	267.55
240.366	211.38
240.83	342.45
241.295	251.17
241.76	232.44
242.224	248.83
242.688	234.78
243.153	300.32
243.617	265.21
244.081	269.89
244.545	262.87
245.01	260.53
245.474	260.53
245.938	295.64
246.402	321.38
246.866	279.26
247.33	302.66
247.793	288.62
248.257	295.64
248.721	300.32
249.185	354.15
249.648	300.32
250.112	265.21
250.575	272.23
251.039	307.34
251.502	185.63
251.965	279.26
252.429	305
252.892	265.21
253.355	274.57
253.818	321.38
254.281	349.47
254.744	211.38
255.207	262.87
255.67	323.73
256.133	244.15
256.596	300.32
257.059	230.1
257.522	265.21
257.984	319.04
258.447	288.62
258.909	307.34
259.372	286.28
259.834	272.23
260.297	288.62
260.759	265.21
261.221	274.57
261.684	290.96
262.146	330.75
262.608	279.26
263.07	309.68
263.532	262.87
263.994	302.66
264.456	314.36
264.918	302.66
265.38	288.62
265.842	255.85
266.303	328.41
266.765	248.83
267.227	305
267.688	260.53
268.15	333.09
268.611	288.62
269.072	253.51
269.534	272.23
269.995	265.21
270.456	239.47
270.918	340.11
271.379	269.89
271.84	312.02
272.301	267.55
272.762	328.41
273.223	258.19
273.684	326.07
274.144	309.68
274.605	328.41
275.066	279.26
275.527	375.22
275.987	330.75
276.448	297.98
276.908	279.26
277.369	377.56
277.829	246.49
278.289	286.28
278.75	269.89
279.21	330.75
279.67	347.13
280.13	347.13
280.59	253.51
281.05	335.43
281.51	262.87
281.97	265.21
282.43	312.02
282.89	265.21
283.35	274.57
283.809	288.62
284.269	239.47
284.729	272.23
285.188	323.73
285.648	258.19
286.107	326.07
286.567	305
287.026	302.66
287.485	333.09
287.944	300.32
288.404	288.62
288.863	290.96
289.322	323.73
289.781	309.68
290.24	293.3
290.699	316.7
291.158	330.75
291.616	361.17
292.075	288.62
292.534	328.41
292.992	297.98
293.451	333.09
293.91	319.04
294.368	358.83
294.827	307.34
295.285	260.53
295.743	248.83
296.202	293.3
296.66	305
297.118	358.83
297.576	223.08
298.034	290.96
298.492	244.15
298.95	328.41
299.408	281.6
299.866	283.94
300.324	344.79
300.781	288.62
301.239	297.98
301.697	293.3
302.154	323.73
302.612	363.51
303.069	260.53
303.527	326.07
303.984	276.91
304.441	290.96
304.899	372.88
305.356	340.11
305.813	330.75
306.27	337.77
306.727	307.34
307.184	321.38
307.641	290.96
308.098	328.41
308.555	297.98
309.012	283.94
309.468	267.55
309.925	316.7
310.382	283.94
310.838	293.3
311.295	309.68
311.751	347.13
312.208	316.7
312.664	323.73
313.12	328.41
313.577	307.34
314.033	288.62
314.489	312.02
314.945	361.17
315.401	330.75
315.857	354.15
316.313	265.21
316.769	290.96
317.225	267.55
317.681	351.81
318.136	330.75
318.592	300.32
319.048	297.98
319.503	281.6
319.959	305
320.414	295.64
320.869	321.38
321.325	340.11
321.78	307.34
322.235	375.22
322.691	300.32
323.146	361.17
323.601	276.91
324.056	307.34
324.511	288.62
324.966	279.26
325.421	234.78
325.875	262.87
326.33	340.11
326.785	307.34
327.24	335.43
327.694	330.75
328.149	307.34
328.603	300.32
329.058	297.98
329.512	288.62
329.966	328.41
330.421	279.26
330.875	335.43
331.329	283.94
331.783	316.7
332.237	316.7
332.691	297.98
333.145	335.43
333.599	300.32
334.053	274.57
334.507	297.98
334.96	279.26
335.414	368.2
335.868	340.11
336.321	347.13
336.775	312.02
337.228	302.66
337.682	323.73
338.135	333.09
338.588	321.38
339.042	328.41
339.495	286.28
339.948	342.45
340.401	361.17
340.854	333.09
341.307	288.62
341.76	276.91
342.213	361.17
342.666	337.77
343.119	248.83
343.571	321.38
344.024	281.6
344.477	305
344.929	330.75
345.382	295.64
345.834	347.13
346.287	349.47
346.739	342.45
347.191	333.09
347.644	281.6
348.096	255.85
348.548	323.73
349	384.58
349.452	333.09
349.904	330.75
350.356	347.13
350.808	295.64
351.26	288.62
351.711	342.45
352.163	295.64
352.615	321.38
353.066	361.17
353.518	340.11
353.969	295.64
354.421	333.09
354.872	220.74
355.324	281.6
355.775	319.04
356.226	342.45
356.677	276.91
357.128	300.32
357.579	335.43
358.03	274.57
358.481	314.36
358.932	286.28
359.383	340.11
359.834	293.3
360.285	333.09
360.735	305
361.186	290.96
361.637	328.41
362.087	295.64
362.538	300.32
362.988	276.91
363.438	330.75
363.889	283.94
364.339	323.73
364.789	340.11
365.239	300.32
365.689	347.13
366.139	286.28
366.589	328.41
367.039	305
367.489	326.07
367.939	312.02
368.389	356.49
368.839	335.43
369.288	314.36
369.738	312.02
370.187	333.09
370.637	312.02
371.086	307.34
371.536	281.6
371.985	314.36
372.434	305
372.884	272.23
373.333	349.47
373.782	316.7
374.231	276.91
374.68	323.73
375.129	279.26
375.578	393.94
376.027	340.11
376.475	286.28
376.924	309.68
377.373	297.98
377.822	307.34
378.27	290.96
378.719	361.17
379.167	283.94
379.616	288.62
380.064	344.79
380.512	237.13
380.961	337.77
381.409	309.68
381.857	377.56
382.305	344.79
382.753	323.73
383.201	312.02
383.649	335.43
384.097	319.04
384.545	340.11
384.992	333.09
385.44	319.04
385.888	255.85
386.335	260.53
386.783	379.9
387.231	290.96
387.678	297.98
388.125	286.28
388.573	335.43
389.02	253.51
389.467	293.3
389.914	279.26
390.362	314.36
390.809	265.21
391.256	377.56
391.703	351.81
392.15	349.47
392.596	328.41
393.043	295.64
393.49	305
393.937	290.96
394.383	295.64
394.83	344.79
395.276	286.28
395.723	333.09
396.169	307.34
396.616	300.32
397.062	335.43
397.508	276.91
397.954	342.45
398.401	340.11
398.847	283.94
399.293	368.2
399.739	342.45
400.185	244.15
400.631	305
401.076	309.68
401.522	323.73
401.968	379.9
402.414	335.43
402.859	276.91
403.305	368.2
403.75	305
404.196	342.45
404.641	363.51
405.086	300.32
405.532	342.45
405.977	305
406.422	290.96
406.867	326.07
407.312	269.89
407.757	300.32
408.202	281.6
408.647	283.94
409.092	321.38
409.537	312.02
409.982	279.26
410.426	330.75
410.871	328.41
411.316	337.77
411.76	323.73
412.205	312.02
412.649	323.73
413.093	302.66
413.538	335.43
413.982	389.26
414.426	253.51
414.87	337.77
415.314	323.73
415.758	297.98
416.202	323.73
416.646	269.89
417.09	344.79
417.534	276.91
417.978	349.47
418.421	356.49
418.865	354.15
419.309	391.6
419.752	365.85
420.196	276.91
420.639	316.7
421.083	283.94
421.526	386.92
421.969	335.43
422.412	375.22
422.856	340.11
423.299	347.13
423.742	323.73
424.185	344.79
424.628	368.2
425.071	370.54
425.513	368.2
425.956	337.77
426.399	316.7
426.842	361.17
427.284	333.09
427.727	356.49
428.169	377.56
428.612	391.6
429.054	328.41
429.497	295.64
429.939	372.88
430.381	351.81
430.823	372.88
431.265	368.2
431.707	417.35
432.149	429.05
432.591	407.98
433.033	405.64
433.475	468.84
433.917	468.84
434.359	391.6
434.8	492.24
435.242	515.65
435.684	503.95
436.125	485.22
436.567	424.37
437.008	487.56
437.449	433.73
437.891	415.01
438.332	485.22
438.773	454.8
439.214	461.82
439.656	548.42
440.097	525.01
440.538	485.22
440.978	543.74
441.419	529.69
441.86	464.16
442.301	508.63
442.742	508.63
443.182	508.63
443.623	534.37
444.063	590.55
444.504	534.37
444.944	464.16
445.385	464.16
445.825	513.31
446.265	569.48
446.706	527.35
447.146	515.65
447.586	557.78
448.026	583.52
448.466	574.16
448.906	520.33
449.346	513.31
449.786	487.56
450.225	506.29
450.665	450.11
451.105	553.1
451.544	513.31
451.984	475.86
452.424	489.9
452.863	508.63
453.302	410.33
453.742	410.33
454.181	466.5
454.62	468.84
455.059	412.67
455.499	499.27
455.938	466.5
456.377	489.9
456.816	433.73
457.254	354.15
457.693	445.43
458.132	382.24
458.571	398.62
459.01	478.2
459.448	391.6
459.887	393.94
460.325	405.64
460.764	445.43
461.202	433.73
461.641	405.64
462.079	400.96
462.517	403.3
462.955	426.71
463.393	384.58
463.832	440.75
464.27	424.37
464.708	415.01
465.145	337.77
465.583	405.64
466.021	419.69
466.459	426.71
466.897	426.71
467.334	377.56
467.772	422.03
468.209	419.69
468.647	356.49
469.084	398.62
469.522	431.39
469.959	391.6
470.396	410.33
470.833	391.6
471.271	370.54
471.708	391.6
472.145	410.33
472.582	386.92
473.019	405.64
473.456	389.26
473.892	330.75
474.329	372.88
474.766	351.81
475.202	389.26
475.639	347.13
476.076	384.58
476.512	424.37
476.949	337.77
477.385	337.77
477.821	316.7
478.258	363.51
478.694	356.49
479.13	358.83
479.566	340.11
480.002	410.33
480.438	396.28
480.874	363.51
481.31	426.71
481.746	342.45
482.181	396.28
482.617	384.58
483.053	354.15
483.488	333.09
483.924	393.94
484.36	342.45
484.795	461.82
485.23	415.01
485.666	412.67
486.101	452.45
486.536	417.35
486.971	407.98
487.407	450.11
487.842	471.18
488.277	398.62
488.712	431.39
489.146	384.58
489.581	396.28
490.016	342.45
490.451	450.11
490.885	410.33
491.32	386.92
491.755	412.67
492.189	393.94
492.624	522.67
493.058	443.09
493.492	445.43
493.927	400.96
494.361	415.01
494.795	438.41
495.229	403.3
495.663	379.9
496.097	405.64
496.531	393.94
496.965	419.69
497.399	424.37
497.833	436.07
498.266	407.98
498.7	457.14
499.134	349.47
499.567	403.3
500.001	379.9
500.434	403.3
500.868	368.2
501.301	407.98
501.734	415.01
502.168	478.2
502.601	410.33
503.034	356.49
503.467	389.26
503.9	398.62
504.333	447.77
504.766	405.64
505.199	452.45
505.632	440.75
506.064	379.9
506.497	457.14
506.93	379.9
507.362	393.94
507.795	429.05
508.227	412.67
508.66	415.01
509.092	393.94
509.524	438.41
509.956	429.05
510.389	429.05
510.821	426.71
511.253	363.51
511.685	457.14
512.117	457.14
512.549	391.6
512.981	468.84
513.412	419.69
513.844	433.73
514.276	386.92
514.707	358.83
515.139	415.01
515.571	452.45
516.002	356.49
516.433	478.2
516.865	478.2
517.296	407.98
517.727	440.75
518.159	457.14
518.59	480.54
519.021	433.73
519.452	440.75
519.883	377.56
520.314	410.33
520.744	417.35
521.175	436.07
521.606	391.6
522.037	351.81
522.467	386.92
522.898	454.8
523.328	365.85
523.759	438.41
524.189	431.39
524.62	436.07
525.05	426.71
525.48	429.05
525.91	400.96
526.341	457.14
526.771	440.75
527.201	417.35
527.631	415.01
528.061	368.2
528.49	429.05
528.92	452.45
529.35	417.35
529.78	422.03
530.209	459.48
530.639	424.37
531.068	417.35
531.498	379.9
531.927	499.27
532.357	391.6
532.786	459.48
533.215	403.3
533.644	478.2
534.074	412.67
534.503	475.86
534.932	443.09
535.361	410.33
535.79	400.96
536.218	443.09
536.647	447.77
537.076	478.2
537.505	438.41
537.933	485.22
538.362	501.61
538.79	471.18
539.219	508.63
539.647	522.67
540.076	517.99
540.504	543.74
540.932	543.74
541.36	567.14
541.788	635.02
542.217	646.72
542.645	635.02
543.073	639.7
543.5	567.14
543.928	630.34
544.356	616.29
544.784	592.89
545.211	576.5
545.639	539.05
546.067	510.97
546.494	555.44
546.922	450.11
547.349	445.43
547.776	450.11
548.204	478.2
548.631	459.48
549.058	429.05
549.485	454.8
549.912	466.5
550.339	461.82
550.766	471.18
551.193	396.28
551.62	539.05
552.047	429.05
552.474	478.2
552.9	422.03
553.327	412.67
553.754	412.67
554.18	415.01
554.607	415.01
555.033	429.05
555.459	452.45
555.886	377.56
556.312	375.22
556.738	398.62
557.164	485.22
557.59	445.43
558.016	487.56
558.442	415.01
558.868	450.11
559.294	489.9
559.72	440.75
560.145	405.64
560.571	450.11
560.997	489.9
561.422	365.85
561.848	410.33
562.273	393.94
562.699	405.64
563.124	426.71
563.549	447.77
563.974	503.95
564.4	405.64
564.825	426.71
565.25	389.26
565.675	499.27
566.1	443.09
566.525	450.11
566.95	422.03
567.374	450.11
567.799	412.67
568.224	450.11
568.648	438.41
569.073	410.33
569.497	438.41
569.922	466.5
570.346	429.05
570.771	354.15
571.195	386.92
571.619	391.6
572.043	410.33
572.467	382.24
572.891	415.01
573.315	440.75
573.739	415.01
574.163	400.96
574.587	429.05
575.011	417.35
575.435	489.9
575.858	431.39
576.282	522.67
576.705	410.33
577.129	464.16
577.552	454.8
577.976	415.01
578.399	405.64
578.822	471.18
579.245	482.88
579.669	473.52
580.092	351.81
580.515	440.75
580.938	426.71
581.361	473.52
581.784	431.39
582.206	459.48
582.629	415.01
583.052	478.2
583.474	450.11
583.897	424.37
584.32	415.01
584.742	393.94
585.165	508.63
585.587	475.86
586.009	431.39
586.431	422.03
586.854	400.96
587.276	384.58
587.698	405.64
588.12	461.82
588.542	424.37
588.964	461.82
589.386	396.28
589.807	422.03
590.229	389.26
590.651	389.26
591.073	323.73
591.494	431.39
591.916	452.45
592.337	389.26
592.759	492.24
593.18	454.8
593.601	419.69
594.022	398.62
594.444	323.73
594.865	337.77
595.286	436.07
595.707	447.77
596.128	407.98
596.549	417.35
596.97	391.6
597.39	356.49
597.811	391.6
598.232	379.9
598.652	445.43
599.073	410.33
599.494	433.73
599.914	424.37
600.334	375.22
600.755	403.3
601.175	433.73
601.595	398.62
602.015	365.85
602.436	415.01
602.856	532.03
603.276	389.26
603.696	389.26
604.115	377.56
604.535	417.35
604.955	391.6
605.375	403.3
605.794	445.43
606.214	436.07
606.634	412.67
607.053	372.88
607.473	419.69
607.892	412.67
608.311	398.62
608.731	433.73
609.15	461.82
609.569	480.54
609.988	588.21
610.407	623.31
610.826	665.44
611.245	510.97
611.664	510.97
612.083	541.4
612.501	525.01
612.92	480.54
613.339	468.84
613.757	407.98
614.176	438.41
614.594	419.69
615.013	426.71
615.431	354.15
615.85	295.64
616.268	297.98
616.686	363.51
617.104	379.9
617.522	335.43
617.94	365.85
618.358	382.24
618.776	405.64
619.194	375.22
619.612	433.73
620.03	410.33
620.447	400.96
620.865	351.81
621.282	433.73
621.7	375.22
622.117	377.56
622.535	358.83
622.952	347.13
623.369	431.39
623.787	424.37
624.204	436.07
624.621	342.45
625.038	354.15
625.455	391.6
625.872	370.54
626.289	323.73
626.706	398.62
627.123	405.64
627.539	316.7
627.956	365.85
628.373	342.45
628.789	347.13
629.206	356.49
629.622	386.92
630.038	368.2
630.455	365.85
630.871	321.38
631.287	293.3
631.703	351.81
632.12	370.54
632.536	354.15
632.952	342.45
633.368	319.04
633.783	393.94
634.199	337.77
634.615	391.6
635.031	389.26
635.446	372.88
635.862	410.33
636.277	368.2
636.693	335.43
637.108	375.22
637.524	368.2
637.939	340.11
638.354	389.26
638.77	293.3
639.185	344.79
639.6	351.81
640.015	295.64
640.43	286.28
640.845	309.68
641.259	368.2
641.674	356.49
642.089	351.81
642.504	319.04
642.918	237.13
643.333	365.85
643.747	330.75
644.162	403.3
644.576	368.2
644.991	239.47
645.405	349.47
645.819	295.64
646.233	293.3
646.647	389.26
647.061	384.58
647.475	375.22
647.889	370.54
648.303	365.85
648.717	295.64
649.131	321.38
649.545	251.17
649.958	319.04
650.372	340.11
650.785	300.32
651.199	319.04
651.612	279.26
652.026	344.79
652.439	365.85
652.852	316.7
653.266	363.51
653.679	307.34
654.092	386.92
654.505	354.15
654.918	377.56
655.331	349.47
655.744	358.83
656.156	337.77
656.569	297.98
656.982	333.09
657.394	314.36
657.807	365.85
658.22	330.75
658.632	377.56
659.044	309.68
659.457	267.55
659.869	302.66
660.281	286.28
660.693	272.23
661.106	302.66
661.518	314.36
661.93	351.81
662.342	295.64
662.754	283.94
663.165	300.32
663.577	342.45
663.989	253.51
664.401	370.54
664.812	300.32
665.224	269.89
665.635	319.04
666.047	312.02
666.458	290.96
666.869	330.75
667.281	368.2
667.692	340.11
668.103	361.17
668.514	302.66
668.925	286.28
669.336	384.58
669.747	328.41
670.158	314.36
670.569	342.45
670.979	300.32
671.39	368.2
671.801	321.38
672.211	347.13
672.622	351.81
673.032	316.7
673.443	347.13
673.853	337.77
674.263	302.66
674.674	272.23
675.084	279.26
675.494	405.64
675.904	316.7
676.314	351.81
676.724	335.43
677.134	368.2
677.544	342.45
677.953	349.47
678.363	272.23
678.773	354.15
679.182	323.73
679.592	328.41
680.001	351.81
680.411	283.94
680.82	349.47
681.23	323.73
681.639	377.56
682.048	290.96
682.457	351.81
682.866	290.96
683.275	328.41
683.684	342.45
684.093	340.11
684.502	342.45
684.911	330.75
685.32	316.7
685.728	319.04
686.137	347.13
686.546	333.09
686.954	290.96
687.363	344.79
687.771	372.88
688.179	330.75
688.588	370.54
688.996	279.26
689.404	312.02
689.812	297.98
690.22	286.28
690.628	305
691.036	307.34
691.444	351.81
691.852	288.62
692.26	426.71
692.667	370.54
693.075	297.98
693.483	300.32
693.89	340.11
694.298	328.41
694.705	309.68
695.112	297.98
695.52	307.34
695.927	276.91
696.334	321.38
696.741	344.79
697.148	307.34
697.555	335.43
697.962	333.09
698.369	351.81
698.776	279.26
699.183	316.7
699.59	274.57
699.996	361.17
700.403	323.73
700.81	326.07
701.216	269.89
701.623	295.64
702.029	323.73
702.435	309.68
702.842	330.75
703.248	255.85
703.654	342.45
704.06	309.68
704.466	386.92
704.872	328.41
705.278	431.39
705.684	323.73
706.09	354.15
706.496	262.87
706.901	288.62
707.307	363.51
707.712	276.91
708.118	326.07
708.523	330.75
708.929	344.79
709.334	354.15
709.74	290.96
710.145	344.79
710.55	342.45
710.955	316.7
711.36	330.75
711.765	312.02
712.17	349.47
712.575	290.96
712.98	840.98
713.385	286.28
713.789	290.96
714.194	323.73
714.599	302.66
715.003	302.66
715.408	295.64
715.812	269.89
716.217	342.45
716.621	319.04
717.025	351.81
717.429	356.49
717.833	363.51
718.238	314.36
718.642	335.43
719.046	333.09
719.449	316.7
719.853	368.2
720.257	347.13
720.661	312.02
721.065	337.77
721.468	326.07
721.872	337.77
722.275	283.94
722.679	305
723.082	307.34
723.485	330.75
723.889	372.88
724.292	295.64
724.695	319.04
725.098	340.11
725.501	290.96
725.904	279.26
726.307	253.51
726.71	312.02
727.113	323.73
727.516	424.37
727.918	354.15
728.321	335.43
728.724	300.32
729.126	393.94
729.529	356.49
729.931	326.07
730.333	302.66
730.736	372.88
731.138	279.26
731.54	316.7
731.942	386.92
732.344	323.73
732.746	297.98
733.148	316.7
733.55	288.62
733.952	337.77
734.354	319.04
734.756	340.11
735.157	279.26
735.559	316.7
735.96	279.26
736.362	279.26
736.763	290.96
737.165	335.43
737.566	297.98
737.967	368.2
738.368	283.94
738.77	283.94
739.171	279.26
739.572	396.28
739.973	305
740.374	337.77
740.774	319.04
741.175	382.24
741.576	314.36
741.977	328.41
742.377	288.62
742.778	358.83
743.178	330.75
743.579	328.41
743.979	349.47
744.379	293.3
744.78	272.23
745.18	333.09
745.58	293.3
745.98	239.47
746.38	361.17
746.78	335.43
747.18	290.96
747.58	290.96
747.98	187.97
748.38	351.81
748.779	302.66
749.179	358.83
749.578	279.26
749.978	260.53
750.377	347.13
750.777	342.45
751.176	305
751.575	302.66
751.975	288.62
752.374	293.3
752.773	267.55
753.172	295.64
753.571	333.09
753.97	330.75
754.369	305
754.768	225.42
755.166	323.73
755.565	253.51
755.964	365.85
756.362	328.41
756.761	302.66
757.159	319.04
757.558	288.62
757.956	354.15
758.354	335.43
758.753	272.23
759.151	326.07
759.549	326.07
759.947	307.34
760.345	363.51
760.743	316.7
761.141	293.3
761.539	358.83
761.936	297.98
762.334	312.02
762.732	321.38
763.129	314.36
763.527	281.6
763.924	312.02
764.322	337.77
764.719	333.09
765.117	328.41
765.514	260.53
765.911	314.36
766.308	302.66
766.705	290.96
767.102	283.94
767.499	293.3
767.896	323.73
768.293	276.91
768.69	265.21
769.086	323.73
769.483	286.28
769.88	262.87
770.276	356.49
770.673	342.45
771.069	351.81
771.466	333.09
771.862	307.34
772.258	400.96
772.654	323.73
773.05	384.58
773.447	300.32
773.843	316.7
774.239	330.75
774.634	295.64
775.03	279.26
775.426	312.02
775.822	283.94
776.218	258.19
776.613	272.23
777.009	330.75
777.404	286.28
777.8	333.09
778.195	379.9
778.59	326.07
778.986	403.3
779.381	342.45
779.776	319.04
780.171	347.13
780.566	307.34
780.961	260.53
781.356	295.64
781.751	312.02
782.146	255.85
782.54	344.79
782.935	363.51
783.33	309.68
783.724	286.28
784.119	305
784.513	321.38
784.908	326.07
785.302	316.7
785.696	323.73
786.09	276.91
786.485	319.04
786.879	274.57
787.273	307.34
787.667	319.04
788.061	295.64
788.454	302.66
788.848	305
789.242	354.15
789.636	349.47
790.029	290.96
790.423	281.6
790.816	337.77
791.21	316.7
791.603	272.23
791.997	269.89
792.39	316.7
792.783	307.34
793.176	288.62
793.569	288.62
793.962	344.79
794.355	302.66
794.748	316.7
795.141	368.2
795.534	321.38
795.927	288.62
796.319	286.28
796.712	368.2
797.105	375.22
797.497	328.41
797.89	344.79
798.282	361.17
798.674	328.41
799.067	349.47
799.459	335.43
799.851	396.28
800.243	258.19
800.635	312.02
801.027	276.91
801.419	349.47
801.811	305
802.203	305
802.594	314.36
802.986	300.32
803.378	351.81
803.769	309.68
804.161	314.36
804.552	323.73
804.944	358.83
805.335	342.45
805.726	302.66
806.118	328.41
806.509	253.51
806.9	300.32
807.291	295.64
807.682	319.04
808.073	288.62
808.464	279.26
808.855	312.02
809.245	281.6
809.636	358.83
810.027	302.66
810.417	396.28
810.808	333.09
811.198	330.75
811.589	337.77
811.979	305
812.369	337.77
812.759	309.68
813.15	361.17
813.54	297.98
813.93	314.36
814.32	330.75
814.71	307.34
815.1	319.04
815.489	344.79
815.879	347.13
816.269	323.73
816.658	377.56
817.048	326.07
817.438	288.62
817.827	312.02
818.216	300.32
818.606	370.54
818.995	326.07
819.384	312.02
819.773	258.19
820.163	251.17
820.552	323.73
820.941	354.15
821.33	286.28
821.718	323.73
822.107	302.66
822.496	300.32
822.885	302.66
823.273	286.28
823.662	300.32
824.05	347.13
824.439	255.85
824.827	328.41
825.216	281.6
825.604	330.75
825.992	316.7
826.38	361.17
826.768	283.94
827.156	316.7
827.544	384.58
827.932	279.26
828.32	361.17
828.708	305
829.096	302.66
829.483	326.07
829.871	316.7
830.259	230.1
830.646	309.68
831.034	309.68
831.421	330.75
831.808	255.85
832.196	248.83
832.583	288.62
832.97	255.85
833.357	323.73
833.744	276.91
834.131	286.28
834.518	358.83
834.905	290.96
835.292	295.64
835.678	305
836.065	309.68
836.452	281.6
836.838	269.89
837.225	300.32
837.611	300.32
837.998	363.51
838.384	260.53
838.77	358.83
839.157	340.11
839.543	330.75
839.929	312.02
840.315	288.62
840.701	300.32
841.087	328.41
841.473	379.9
841.858	379.9
842.244	316.7
842.63	283.94
843.015	283.94
843.401	609.27
843.787	295.64
844.172	349.47
844.557	305
844.943	300.32
845.328	316.7
845.713	361.17
846.098	239.47
846.483	239.47
846.868	405.64
847.253	288.62
847.638	356.49
848.023	384.58
848.408	342.45
848.793	337.77
849.177	335.43
849.562	354.15
849.947	354.15
850.331	319.04
850.715	349.47
851.1	265.21
851.484	396.28
851.868	274.57
852.253	321.38
852.637	314.36
853.021	272.23
853.405	272.23
853.789	253.51
854.173	305
854.557	300.32
854.94	297.98
855.324	340.11
855.708	335.43
856.091	319.04
856.475	326.07
856.858	288.62
857.242	314.36
857.625	302.66
858.009	363.51
858.392	349.47
858.775	349.47
859.158	309.68
859.541	309.68
859.924	307.34
860.307	361.17
860.69	323.73
861.073	255.85
861.456	335.43
861.838	335.43
862.221	328.41
862.604	356.49
862.986	342.45
863.369	349.47
863.751	368.2
864.133	312.02
864.516	349.47
864.898	337.77
865.28	370.54
865.662	337.77
866.044	309.68
866.426	286.28
866.808	293.3
867.19	295.64
867.572	283.94
867.954	344.79
868.336	347.13
868.717	262.87
869.099	290.96
869.48	281.6
869.862	307.34
870.243	297.98
870.625	288.62
871.006	340.11
871.387	307.34
871.768	279.26
872.149	288.62
872.53	321.38
872.911	389.26
873.292	326.07
873.673	302.66
874.054	316.7
874.435	258.19
874.815	314.36
875.196	335.43
875.577	300.32
875.957	358.83
876.338	347.13
876.718	328.41
877.098	354.15
877.479	330.75
877.859	370.54
878.239	321.38
878.619	293.3
878.999	349.47
879.379	356.49
879.759	314.36
880.139	351.81
880.519	319.04
880.898	384.58
881.278	316.7
881.658	323.73
882.037	333.09
882.417	391.6
882.796	372.88
883.176	321.38
883.555	342.45
883.934	375.22
884.313	340.11
884.693	283.94
885.072	314.36
885.451	328.41
885.83	316.7
886.209	365.85
886.587	262.87
886.966	323.73
887.345	293.3
887.724	279.26
888.102	358.83
888.481	330.75
888.859	314.36
889.238	300.32
889.616	316.7
889.994	356.49
890.373	309.68
890.751	314.36
891.129	363.51
891.507	293.3
891.885	297.98
892.263	330.75
892.641	323.73
893.019	321.38
893.396	272.23
893.774	279.26
894.152	309.68
894.529	234.78
894.907	370.54
895.284	260.53
895.662	326.07
896.039	293.3
896.416	349.47
896.794	323.73
897.171	326.07
897.548	335.43
897.925	290.96
898.302	281.6
898.679	342.45
899.056	354.15
899.433	274.57
899.809	307.34
900.186	260.53
900.563	244.15
900.939	237.13
901.316	309.68
901.692	260.53
902.069	279.26
902.445	326.07
902.821	323.73
903.197	297.98
903.574	321.38
903.95	312.02
904.326	368.2
904.702	300.32
905.078	354.15
905.454	319.04
905.829	319.04
906.205	244.15
906.581	274.57
906.956	288.62
907.332	283.94
907.707	344.79
908.083	297.98
908.458	370.54
908.833	354.15
909.209	300.32
909.584	283.94
909.959	312.02
910.334	234.78
910.709	237.13
911.084	279.26
911.459	333.09
911.834	356.49
912.209	312.02
912.583	319.04
912.958	279.26
913.333	262.87
913.707	279.26
914.082	351.81
914.456	340.11
914.83	269.89
915.205	312.02
915.579	269.89
915.953	319.04
916.327	333.09
916.701	302.66
917.075	286.28
917.449	312.02
917.823	274.57
918.197	319.04
918.571	295.64
918.944	295.64
919.318	300.32
919.692	328.41
920.065	297.98
920.438	319.04
920.812	365.85
921.185	340.11
921.558	279.26
921.932	349.47
922.305	372.88
922.678	297.98
923.051	323.73
923.424	302.66
923.797	328.41
924.17	265.21
924.542	321.38
924.915	262.87
925.288	309.68
925.661	321.38
926.033	379.9
926.406	309.68
926.778	302.66
927.15	312.02
927.523	333.09
927.895	290.96
928.267	279.26
928.639	286.28
929.011	305
929.383	328.41
929.755	283.94
930.127	279.26
930.499	328.41
930.871	305
931.242	274.57
931.614	290.96
931.986	293.3
932.357	330.75
932.729	286.28
933.1	267.55
933.471	316.7
933.843	220.74
934.214	347.13
934.585	379.9
934.956	314.36
935.327	330.75
935.698	234.78
936.069	241.81
936.44	216.06
936.811	333.09
937.182	290.96
937.552	293.3
937.923	312.02
938.293	326.07
938.664	258.19
939.034	265.21
939.405	281.6
939.775	361.17
940.145	349.47
940.516	267.55
940.886	262.87
941.256	265.21
941.626	337.77
941.996	333.09
942.366	347.13
942.735	335.43
943.105	342.45
943.475	363.51
943.845	356.49
944.214	344.79
944.584	344.79
944.953	290.96
945.323	330.75
945.692	335.43
946.061	405.64
946.43	283.94
946.8	293.3
947.169	286.28
947.538	330.75
947.907	323.73
948.276	323.73
948.645	337.77
949.013	328.41
949.382	370.54
949.751	309.68
950.119	365.85
950.488	297.98
950.857	312.02
951.225	295.64
951.593	340.11
951.962	312.02
952.33	269.89
952.698	276.91
953.066	314.36
953.434	309.68
953.802	323.73
954.17	269.89
954.538	314.36
954.906	337.77
955.274	283.94
955.642	276.91
956.009	340.11
956.377	370.54
956.744	297.98
957.112	300.32
957.479	305
957.847	305
958.214	323.73
958.581	307.34
958.948	269.89
959.315	356.49
959.683	262.87
960.05	333.09
960.416	279.26
960.783	274.57
961.15	349.47
961.517	349.47
961.884	351.81
962.25	335.43
962.617	300.32
962.983	384.58
963.35	272.23
963.716	314.36
964.082	326.07
964.449	368.2
964.815	326.07
965.181	297.98
965.547	305
965.913	307.34
966.279	309.68
966.645	326.07
967.011	297.98
967.377	319.04
967.742	302.66
968.108	279.26
968.474	340.11
968.839	316.7
969.205	321.38
969.57	328.41
969.935	283.94
970.301	365.85
970.666	260.53
971.031	365.85
971.396	283.94
971.761	281.6
972.126	237.13
972.491	363.51
972.856	316.7
973.221	276.91
973.586	321.38
973.95	323.73
974.315	349.47
974.679	279.26
975.044	323.73
975.408	295.64
975.773	290.96
976.137	342.45
976.501	241.81
976.866	319.04
977.23	319.04
977.594	279.26
977.958	319.04
978.322	269.89
978.686	302.66
979.049	251.17
979.413	354.15
979.777	283.94
980.141	344.79
980.504	337.77
980.868	321.38
981.231	349.47
981.595	375.22
981.958	279.26
982.321	312.02
982.684	347.13
983.048	258.19
983.411	312.02
983.774	340.11
984.137	286.28
984.5	335.43
984.862	342.45
985.225	309.68
985.588	323.73
985.951	295.64
986.313	312.02
986.676	337.77
987.038	302.66
987.401	295.64
987.763	314.36
988.125	351.81
988.488	321.38
988.85	314.36
989.212	337.77
989.574	305
989.936	281.6
990.298	333.09
990.66	258.19
991.022	269.89
991.383	276.91
991.745	269.89
992.107	342.45
992.468	431.39
992.83	302.66
993.191	300.32
993.553	316.7
993.914	295.64
994.275	260.53
994.637	356.49
994.998	321.38
995.359	358.83
995.72	337.77
996.081	293.3
996.442	330.75
996.803	305
997.163	328.41
997.524	340.11
997.885	328.41
998.245	290.96
998.606	286.28
998.966	283.94
999.327	276.91
999.687	251.17
1000.047	326.07
1000.408	290.96
1000.768	234.78
1001.128	309.68
1001.488	293.3
1001.848	302.66
1002.208	293.3
1002.568	321.38
1002.927	321.38
1003.287	309.68
1003.647	361.17
1004.007	248.83
1004.366	276.91
1004.726	300.32
1005.085	297.98
1005.444	333.09
1005.804	290.96
1006.163	286.28
1006.522	283.94
1006.881	260.53
1007.24	244.15
1007.599	279.26
1007.958	328.41
1008.317	319.04
1008.676	358.83
1009.035	321.38
1009.393	297.98
1009.752	269.89
1010.111	288.62
1010.469	342.45
1010.828	314.36
1011.186	354.15
1011.544	312.02
1011.903	293.3
1012.261	309.68
1012.619	384.58
1012.977	335.43
1013.335	305
1013.693	323.73
1014.051	297.98
1014.409	368.2
1014.767	302.66
1015.124	300.32
1015.482	328.41
1015.84	265.21
1016.197	258.19
1016.555	281.6
1016.912	269.89
1017.269	340.11
1017.627	347.13
1017.984	319.04
1018.341	307.34
1018.698	307.34
1019.055	258.19
1019.412	330.75
1019.769	312.02
1020.126	274.57
1020.483	297.98
1020.84	300.32
1021.196	244.15
1021.553	300.32
1021.909	361.17
1022.266	321.38
1022.622	274.57
1022.979	293.3
1023.335	363.51
1023.691	351.81
1024.047	328.41
1024.404	314.36
1024.76	281.6
1025.116	330.75
1025.472	258.19
1025.827	255.85
1026.183	347.13
1026.539	302.66
1026.895	337.77
1027.25	328.41
1027.606	319.04
1027.961	312.02
1028.317	347.13
1028.672	279.26
1029.028	316.7
1029.383	340.11
1029.738	290.96
1030.093	335.43
1030.448	307.34
1030.803	302.66
1031.158	281.6
1031.513	293.3
1031.868	344.79
1032.223	335.43
1032.577	328.41
1032.932	297.98
1033.287	314.36
1033.641	335.43
1033.996	288.62
1034.35	321.38
1034.704	307.34
1035.059	323.73
1035.413	382.24
1035.767	382.24
1036.121	382.24
