Data from Al_FLMS009871__199__12-01-03-674.txt Node

Date: Fri Mar 08 12:01:03 CST 2024
User: pe5414po
Spectrometer: FLMS00987
Trigger mode: 0
Integration Time (sec): 1.000000E-1
Scans to average: 1
Electric dark correction enabled: true
Nonlinearity correction enabled: false
Boxcar width: 0
XAxis mode: Wavelengths
Number of Pixels in Spectrum: 2048
>>>>>Begin Spectral Data<<<<<
188.938	-75.92
189.409	-75.92
189.879	-75.92
190.349	-52.52
190.819	-136.78
191.29	-87.62
191.76	-136.78
192.23	-115.71
192.7	-80.6
193.17	-19.75
193.64	-47.83
194.109	-99.33
194.579	27.06
195.049	8.34
195.519	20.04
195.988	90.26
196.458	36.42
196.927	104.3
197.397	80.89
197.866	99.62
198.336	120.68
198.805	155.79
199.274	169.84
199.744	120.68
200.213	200.26
200.682	240.05
201.151	233.03
201.62	193.24
202.089	254.09
202.558	242.39
203.027	289.2
203.495	240.05
203.964	228.35
204.433	216.65
204.902	254.09
205.37	366.44
205.839	237.71
206.307	321.97
206.776	366.44
207.244	300.91
207.712	263.46
208.181	303.25
208.649	289.2
209.117	263.46
209.585	333.67
210.053	300.91
210.521	223.67
210.989	296.22
211.457	263.46
211.925	242.39
212.393	277.5
212.861	179.2
213.328	228.35
213.796	240.05
214.264	296.22
214.731	242.39
215.199	230.69
215.666	256.43
216.133	303.25
216.601	284.52
217.068	282.18
217.535	303.25
218.003	237.71
218.47	237.71
218.937	261.12
219.404	235.37
219.871	242.39
220.338	261.12
220.805	270.48
221.271	291.54
221.738	263.46
222.205	263.46
222.671	235.37
223.138	328.99
223.605	277.5
224.071	263.46
224.538	249.41
225.004	268.14
225.47	254.09
225.937	317.29
226.403	240.05
226.869	270.48
227.335	218.99
227.801	300.91
228.267	319.63
228.733	293.88
229.199	296.22
229.665	218.99
230.131	268.14
230.597	244.73
231.062	233.03
231.528	298.56
231.994	289.2
232.459	298.56
232.925	272.82
233.39	310.27
233.856	296.22
234.321	291.54
234.786	314.95
235.252	272.82
235.717	282.18
236.182	293.88
236.647	244.73
237.112	298.56
237.577	230.69
238.042	296.22
238.507	251.75
238.972	328.99
239.436	286.86
239.901	247.07
240.366	261.12
240.83	249.41
241.295	240.05
241.76	275.16
242.224	307.93
242.688	282.18
243.153	261.12
243.617	307.93
244.081	331.33
244.545	272.82
245.01	240.05
245.474	286.86
245.938	319.63
246.402	261.12
246.866	216.65
247.33	233.03
247.793	279.84
248.257	202.6
248.721	291.54
249.185	296.22
249.648	366.44
250.112	333.67
250.575	298.56
251.039	254.09
251.502	214.31
251.965	249.41
252.429	293.88
252.892	249.41
253.355	324.31
253.818	338.35
254.281	209.62
254.744	233.03
255.207	275.16
255.67	317.29
256.133	282.18
256.596	303.25
257.059	268.14
257.522	270.48
257.984	244.73
258.447	277.5
258.909	270.48
259.372	293.88
259.834	305.59
260.297	352.4
260.759	275.16
261.221	263.46
261.684	321.97
262.146	321.97
262.608	275.16
263.07	256.43
263.532	235.37
263.994	331.33
264.456	345.38
264.918	181.54
265.38	228.35
265.842	314.95
266.303	251.75
266.765	291.54
267.227	293.88
267.688	270.48
268.15	275.16
268.611	272.82
269.072	254.09
269.534	303.25
269.995	272.82
270.456	284.52
270.918	263.46
271.379	277.5
271.84	326.65
272.301	263.46
272.762	275.16
273.223	244.73
273.684	237.71
274.144	226.01
274.605	240.05
275.066	321.97
275.527	254.09
275.987	321.97
276.448	258.78
276.908	312.61
277.369	298.56
277.829	338.35
278.289	312.61
278.75	284.52
279.21	289.2
279.67	338.35
280.13	282.18
280.59	275.16
281.05	275.16
281.51	277.5
281.97	305.59
282.43	291.54
282.89	279.84
283.35	270.48
283.809	265.8
284.269	321.97
284.729	230.69
285.188	319.63
285.648	235.37
286.107	251.75
286.567	270.48
287.026	359.42
287.485	296.22
287.944	343.03
288.404	310.27
288.863	305.59
289.322	298.56
289.781	247.07
290.24	284.52
290.699	314.95
291.158	275.16
291.616	352.4
292.075	279.84
292.534	275.16
292.992	321.97
293.451	293.88
293.91	293.88
294.368	352.4
294.827	228.35
295.285	275.16
295.743	303.25
296.202	218.99
296.66	289.2
297.118	275.16
297.576	340.69
298.034	350.06
298.492	284.52
298.95	207.28
299.408	303.25
299.866	312.61
300.324	289.2
300.781	303.25
301.239	357.08
301.697	345.38
302.154	284.52
302.612	310.27
303.069	307.93
303.527	277.5
303.984	300.91
304.441	336.01
304.899	328.99
305.356	338.35
305.813	345.38
306.27	272.82
306.727	296.22
307.184	403.89
307.641	263.46
308.098	249.41
308.555	357.08
309.012	275.16
309.468	282.18
309.925	291.54
310.382	317.29
310.838	366.44
311.295	303.25
311.751	300.91
312.208	244.73
312.664	254.09
313.12	291.54
313.577	298.56
314.033	291.54
314.489	310.27
314.945	333.67
315.401	319.63
315.857	328.99
316.313	338.35
316.769	277.5
317.225	345.38
317.681	291.54
318.136	328.99
318.592	366.44
319.048	321.97
319.503	286.86
319.959	366.44
320.414	286.86
320.869	403.89
321.325	303.25
321.78	289.2
322.235	319.63
322.691	228.35
323.146	328.99
323.601	317.29
324.056	310.27
324.511	347.72
324.966	387.5
325.421	291.54
325.875	300.91
326.33	268.14
326.785	314.95
327.24	279.84
327.694	272.82
328.149	277.5
328.603	298.56
329.058	275.16
329.512	286.86
329.966	338.35
330.421	242.39
330.875	258.78
331.329	275.16
331.783	275.16
332.237	291.54
332.691	282.18
333.145	336.01
333.599	345.38
334.053	387.5
334.507	291.54
334.96	324.31
335.414	291.54
335.868	338.35
336.321	354.74
336.775	277.5
337.228	345.38
337.682	352.4
338.135	347.72
338.588	328.99
339.042	312.61
339.495	282.18
339.948	270.48
340.401	352.4
340.854	300.91
341.307	303.25
341.76	286.86
342.213	277.5
342.666	284.52
343.119	314.95
343.571	317.29
344.024	321.97
344.477	336.01
344.929	284.52
345.382	293.88
345.834	300.91
346.287	350.06
346.739	352.4
347.191	326.65
347.644	340.69
348.096	343.03
348.548	279.84
349	336.01
349.452	338.35
349.904	289.2
350.356	345.38
350.808	300.91
351.26	352.4
351.711	310.27
352.163	314.95
352.615	338.35
353.066	347.72
353.518	350.06
353.969	282.18
354.421	284.52
354.872	286.86
355.324	310.27
355.775	270.48
356.226	328.99
356.677	279.84
357.128	317.29
357.579	291.54
358.03	328.99
358.481	235.37
358.932	333.67
359.383	352.4
359.834	244.73
360.285	300.91
360.735	357.08
361.186	265.8
361.637	307.93
362.087	296.22
362.538	268.14
362.988	310.27
363.438	345.38
363.889	254.09
364.339	293.88
364.789	289.2
365.239	263.46
365.689	305.59
366.139	305.59
366.589	326.65
367.039	357.08
367.489	310.27
367.939	317.29
368.389	326.65
368.839	277.5
369.288	314.95
369.738	291.54
370.187	343.03
370.637	324.31
371.086	284.52
371.536	307.93
371.985	324.31
372.434	354.74
372.884	373.46
373.333	312.61
373.782	399.21
374.231	312.61
374.68	300.91
375.129	319.63
375.578	307.93
376.027	303.25
376.475	336.01
376.924	314.95
377.373	333.67
377.822	300.91
378.27	307.93
378.719	333.67
379.167	293.88
379.616	270.48
380.064	282.18
380.512	310.27
380.961	368.78
381.409	303.25
381.857	328.99
382.305	343.03
382.753	310.27
383.201	364.1
383.649	350.06
384.097	286.86
384.545	321.97
384.992	286.86
385.44	343.03
385.888	340.69
386.335	261.12
386.783	312.61
387.231	354.74
387.678	298.56
388.125	256.43
388.573	272.82
389.02	312.61
389.467	272.82
389.914	305.59
390.362	284.52
390.809	286.86
391.256	331.33
391.703	272.82
392.15	298.56
392.596	378.14
393.043	270.48
393.49	279.84
393.937	249.41
394.383	296.22
394.83	270.48
395.276	244.73
395.723	235.37
396.169	303.25
396.616	345.38
397.062	399.21
397.508	328.99
397.954	300.91
398.401	298.56
398.847	258.78
399.293	312.61
399.739	399.21
400.185	310.27
400.631	277.5
401.076	270.48
401.522	350.06
401.968	303.25
402.414	310.27
402.859	242.39
403.305	338.35
403.75	307.93
404.196	331.33
404.641	366.44
405.086	333.67
405.532	389.85
405.977	268.14
406.422	336.01
406.867	286.86
407.312	256.43
407.757	345.38
408.202	368.78
408.647	352.4
409.092	303.25
409.537	312.61
409.982	352.4
410.426	317.29
410.871	293.88
411.316	321.97
411.76	289.2
412.205	354.74
412.649	296.22
413.093	340.69
413.538	373.46
413.982	314.95
414.426	272.82
414.87	275.16
415.314	326.65
415.758	333.67
416.202	303.25
416.646	319.63
417.09	420.27
417.534	319.63
417.978	364.1
418.421	289.2
418.865	343.03
419.309	291.54
419.752	394.53
420.196	380.48
420.639	291.54
421.083	326.65
421.526	338.35
421.969	314.95
422.412	345.38
422.856	343.03
423.299	347.72
423.742	366.44
424.185	359.42
424.628	324.31
425.071	331.33
425.513	296.22
425.956	366.44
426.399	382.82
426.842	340.69
427.284	396.87
427.727	345.38
428.169	366.44
428.612	296.22
429.054	317.29
429.497	317.29
429.939	366.44
430.381	366.44
430.823	373.46
431.265	371.12
431.707	361.76
432.149	385.16
432.591	324.31
433.033	427.29
433.475	392.19
433.917	364.1
434.359	417.93
434.8	443.68
435.242	485.81
435.684	492.83
436.125	455.38
436.567	401.55
437.008	443.68
437.449	357.08
437.891	378.14
438.332	364.1
438.773	394.53
439.214	457.72
439.656	408.57
440.097	392.19
440.538	403.89
440.978	352.4
441.419	408.57
441.86	476.45
442.301	478.79
442.742	431.98
443.182	401.55
443.623	415.59
444.063	403.89
444.504	483.47
444.944	422.61
445.385	441.34
445.825	439
446.265	534.96
446.706	457.72
447.146	371.12
447.586	427.29
448.026	446.02
448.466	385.16
448.906	511.55
449.346	406.23
449.786	439
450.225	439
450.665	413.25
451.105	462.4
451.544	476.45
451.984	446.02
452.424	427.29
452.863	488.15
453.302	368.78
453.742	413.25
454.181	368.78
454.62	415.59
455.059	375.8
455.499	443.68
455.938	403.89
456.377	345.38
456.816	396.87
457.254	408.57
457.693	368.78
458.132	399.21
458.571	366.44
459.01	401.55
459.448	373.46
459.887	387.5
460.325	368.78
460.764	371.12
461.202	385.16
461.641	436.66
462.079	457.72
462.517	410.91
462.955	429.63
463.393	305.59
463.832	424.95
464.27	338.35
464.708	366.44
465.145	375.8
465.583	396.87
466.021	364.1
466.459	338.35
466.897	343.03
467.334	352.4
467.772	373.46
468.209	352.4
468.647	389.85
469.084	340.69
469.522	387.5
469.959	371.12
470.396	340.69
470.833	387.5
471.271	364.1
471.708	396.87
472.145	373.46
472.582	387.5
473.019	331.33
473.456	352.4
473.892	410.91
474.329	324.31
474.766	359.42
475.202	303.25
475.639	392.19
476.076	366.44
476.512	345.38
476.949	378.14
477.385	382.82
477.821	319.63
478.258	413.25
478.694	371.12
479.13	401.55
479.566	413.25
480.002	338.35
480.438	357.08
480.874	396.87
481.31	403.89
481.746	296.22
482.181	399.21
482.617	366.44
483.053	387.5
483.488	361.76
483.924	382.82
484.36	392.19
484.795	399.21
485.23	424.95
485.666	396.87
486.101	427.29
486.536	455.38
486.971	410.91
487.407	420.27
487.842	424.95
488.277	406.23
488.712	448.36
489.146	394.53
489.581	417.93
490.016	429.63
490.451	396.87
490.885	366.44
491.32	417.93
491.755	401.55
492.189	375.8
492.624	364.1
493.058	338.35
493.492	401.55
493.927	343.03
494.361	422.61
494.795	399.21
495.229	446.02
495.663	422.61
496.097	420.27
496.531	408.57
496.965	378.14
497.399	373.46
497.833	380.48
498.266	394.53
498.7	378.14
499.134	420.27
499.567	357.08
500.001	321.97
500.434	399.21
500.868	443.68
501.301	483.47
501.734	366.44
502.168	368.78
502.601	401.55
503.034	373.46
503.467	321.97
503.9	394.53
504.333	424.95
504.766	310.27
505.199	431.98
505.632	340.69
506.064	385.16
506.497	387.5
506.93	394.53
507.362	431.98
507.795	406.23
508.227	436.66
508.66	368.78
509.092	375.8
509.524	375.8
509.956	359.42
510.389	387.5
510.821	401.55
511.253	408.57
511.685	366.44
512.117	396.87
512.549	410.91
512.981	431.98
513.412	298.56
513.844	380.48
514.276	387.5
514.707	460.06
515.139	328.99
515.571	366.44
516.002	415.59
516.433	424.95
516.865	366.44
517.296	328.99
517.727	352.4
518.159	359.42
518.59	350.06
519.021	324.31
519.452	366.44
519.883	424.95
520.314	354.74
520.744	336.01
521.175	368.78
521.606	380.48
522.037	312.61
522.467	375.8
522.898	389.85
523.328	406.23
523.759	368.78
524.189	364.1
524.62	399.21
525.05	424.95
525.48	396.87
525.91	350.06
526.341	385.16
526.771	387.5
527.201	401.55
527.631	387.5
528.061	359.42
528.49	413.25
528.92	434.32
529.35	375.8
529.78	396.87
530.209	382.82
530.639	385.16
531.068	406.23
531.498	399.21
531.927	378.14
532.357	450.7
532.786	413.25
533.215	424.95
533.644	387.5
534.074	336.01
534.503	385.16
534.932	436.66
535.361	420.27
535.79	396.87
536.218	357.08
536.647	417.93
537.076	340.69
537.505	403.89
537.933	373.46
538.362	450.7
538.79	406.23
539.219	481.13
539.647	408.57
540.076	450.7
540.504	525.6
540.932	556.02
541.36	593.47
541.788	556.02
542.217	651.99
542.645	619.22
543.073	649.64
543.5	729.22
543.928	705.82
544.356	682.41
544.784	722.2
545.211	649.64
545.639	651.99
546.067	546.66
546.494	506.87
546.922	525.6
547.349	527.94
547.776	490.49
548.204	443.68
548.631	492.83
549.058	455.38
549.485	499.85
549.912	396.87
550.339	448.36
550.766	490.49
551.193	443.68
551.62	457.72
552.047	434.32
552.474	422.61
552.9	424.95
553.327	415.59
553.754	427.29
554.18	410.91
554.607	366.44
555.033	434.32
555.459	321.97
555.886	387.5
556.312	399.21
556.738	422.61
557.164	453.04
557.59	387.5
558.016	485.81
558.442	336.01
558.868	422.61
559.294	467.08
559.72	481.13
560.145	394.53
560.571	394.53
560.997	460.06
561.422	357.08
561.848	359.42
562.273	333.67
562.699	413.25
563.124	427.29
563.549	436.66
563.974	453.04
564.4	420.27
564.825	389.85
565.25	359.42
565.675	401.55
566.1	340.69
566.525	375.8
566.95	373.46
567.374	392.19
567.799	389.85
568.224	415.59
568.648	347.72
569.073	389.85
569.497	394.53
569.922	392.19
570.346	378.14
570.771	450.7
571.195	331.33
571.619	371.12
572.043	431.98
572.467	354.74
572.891	394.53
573.315	331.33
573.739	387.5
574.163	375.8
574.587	422.61
575.011	375.8
575.435	410.91
575.858	406.23
576.282	394.53
576.705	343.03
577.129	464.74
577.552	399.21
577.976	439
578.399	403.89
578.822	387.5
579.245	467.08
579.669	429.63
580.092	366.44
580.515	417.93
580.938	429.63
581.361	488.15
581.784	446.02
582.206	389.85
582.629	396.87
583.052	455.38
583.474	357.08
583.897	462.4
584.32	424.95
584.742	467.08
585.165	406.23
585.587	394.53
586.009	443.68
586.431	448.36
586.854	492.83
587.276	424.95
587.698	464.74
588.12	439
588.542	469.42
588.964	429.63
589.386	434.32
589.807	415.59
590.229	403.89
590.651	394.53
591.073	385.16
591.494	415.59
591.916	350.06
592.337	357.08
592.759	446.02
593.18	394.53
593.601	382.82
594.022	382.82
594.444	319.63
594.865	424.95
595.286	417.93
595.707	408.57
596.128	389.85
596.549	319.63
596.97	406.23
597.39	359.42
597.811	350.06
598.232	406.23
598.652	314.95
599.073	350.06
599.494	373.46
599.914	396.87
600.334	284.52
600.755	293.88
601.175	378.14
601.595	366.44
602.015	317.29
602.436	387.5
602.856	495.17
603.276	331.33
603.696	357.08
604.115	343.03
604.535	424.95
604.955	352.4
605.375	364.1
605.794	343.03
606.214	373.46
606.634	401.55
607.053	378.14
607.473	403.89
607.892	429.63
608.311	375.8
608.731	446.02
609.15	429.63
609.569	497.51
609.988	595.81
610.407	740.93
610.826	724.54
611.245	783.06
611.664	740.93
612.083	738.59
612.501	623.9
612.92	630.92
613.339	556.02
613.757	488.15
614.176	427.29
614.594	443.68
615.013	439
615.431	406.23
615.85	488.15
616.268	392.19
616.686	401.55
617.104	375.8
617.522	368.78
617.94	399.21
618.358	347.72
618.776	385.16
619.194	385.16
619.612	401.55
620.03	406.23
620.447	403.89
620.865	441.34
621.282	361.76
621.7	394.53
622.117	378.14
622.535	371.12
622.952	427.29
623.369	279.84
623.787	422.61
624.204	392.19
624.621	345.38
625.038	331.33
625.455	422.61
625.872	343.03
626.289	385.16
626.706	361.76
627.123	321.97
627.539	338.35
627.956	359.42
628.373	361.76
628.789	410.91
629.206	359.42
629.622	375.8
630.038	420.27
630.455	345.38
630.871	347.72
631.287	424.95
631.703	422.61
632.12	389.85
632.536	249.41
632.952	286.86
633.368	368.78
633.783	347.72
634.199	293.88
634.615	373.46
635.031	340.69
635.446	312.61
635.862	333.67
636.277	345.38
636.693	385.16
637.108	336.01
637.524	392.19
637.939	345.38
638.354	338.35
638.77	371.12
639.185	375.8
639.6	399.21
640.015	310.27
640.43	314.95
640.845	317.29
641.259	333.67
641.674	298.56
642.089	314.95
642.504	345.38
642.918	305.59
643.333	336.01
643.747	408.57
644.162	331.33
644.576	254.09
644.991	293.88
645.405	333.67
645.819	350.06
646.233	303.25
646.647	375.8
647.061	373.46
647.475	317.29
647.889	312.61
648.303	251.75
648.717	305.59
649.131	389.85
649.545	249.41
649.958	340.69
650.372	343.03
650.785	406.23
651.199	406.23
651.612	396.87
652.026	321.97
652.439	321.97
652.852	331.33
653.266	392.19
653.679	364.1
654.092	326.65
654.505	336.01
654.918	312.61
655.331	254.09
655.744	286.86
656.156	258.78
656.569	371.12
656.982	312.61
657.394	310.27
657.807	331.33
658.22	326.65
658.632	303.25
659.044	326.65
659.457	375.8
659.869	354.74
660.281	300.91
660.693	317.29
661.106	328.99
661.518	282.18
661.93	385.16
662.342	314.95
662.754	314.95
663.165	389.85
663.577	357.08
663.989	296.22
664.401	326.65
664.812	312.61
665.224	326.65
665.635	343.03
666.047	261.12
666.458	380.48
666.869	345.38
667.281	343.03
667.692	340.69
668.103	296.22
668.514	261.12
668.925	286.86
669.336	336.01
669.747	345.38
670.158	317.29
670.569	300.91
670.979	307.93
671.39	389.85
671.801	371.12
672.211	305.59
672.622	314.95
673.032	338.35
673.443	331.33
673.853	340.69
674.263	284.52
674.674	293.88
675.084	361.76
675.494	350.06
675.904	265.8
676.314	321.97
676.724	364.1
677.134	396.87
677.544	350.06
677.953	401.55
678.363	312.61
678.773	338.35
679.182	387.5
679.592	279.84
680.001	357.08
680.411	293.88
680.82	314.95
681.23	331.33
681.639	347.72
682.048	324.31
682.457	336.01
682.866	373.46
683.275	284.52
683.684	338.35
684.093	354.74
684.502	347.72
684.911	282.18
685.32	373.46
685.728	333.67
686.137	375.8
686.546	282.18
686.954	300.91
687.363	291.54
687.771	350.06
688.179	343.03
688.588	352.4
688.996	310.27
689.404	347.72
689.812	350.06
690.22	303.25
690.628	293.88
691.036	263.46
691.444	314.95
691.852	326.65
692.26	336.01
692.667	279.84
693.075	357.08
693.483	331.33
693.89	366.44
694.298	328.99
694.705	314.95
695.112	300.91
695.52	307.93
695.927	249.41
696.334	244.73
696.741	340.69
697.148	305.59
697.555	314.95
697.962	312.61
698.369	427.29
698.776	354.74
699.183	331.33
699.59	368.78
699.996	303.25
700.403	279.84
700.81	286.86
701.216	317.29
701.623	293.88
702.029	298.56
702.435	286.86
702.842	279.84
703.248	347.72
703.654	401.55
704.06	291.54
704.466	298.56
704.872	338.35
705.278	319.63
705.684	286.86
706.09	300.91
706.496	371.12
706.901	310.27
707.307	394.53
707.712	378.14
708.118	310.27
708.523	354.74
708.929	343.03
709.334	305.59
709.74	364.1
710.145	296.22
710.55	389.85
710.955	321.97
711.36	340.69
711.765	352.4
712.17	251.75
712.575	293.88
712.98	1019.45
713.385	364.1
713.789	307.93
714.194	282.18
714.599	293.88
715.003	272.82
715.408	324.31
715.812	286.86
716.217	291.54
716.621	326.65
717.025	328.99
717.429	270.48
717.833	373.46
718.238	277.5
718.642	235.37
719.046	319.63
719.449	300.91
719.853	305.59
720.257	326.65
720.661	244.73
721.065	277.5
721.468	328.99
721.872	340.69
722.275	254.09
722.679	352.4
723.082	298.56
723.485	277.5
723.889	289.2
724.292	305.59
724.695	317.29
725.098	357.08
725.501	275.16
725.904	314.95
726.307	373.46
726.71	338.35
727.113	314.95
727.516	298.56
727.918	326.65
728.321	399.21
728.724	324.31
729.126	317.29
729.529	375.8
729.931	310.27
730.333	298.56
730.736	303.25
731.138	249.41
731.54	324.31
731.942	314.95
732.344	305.59
732.746	303.25
733.148	275.16
733.55	265.8
733.952	336.01
734.354	336.01
734.756	284.52
735.157	233.03
735.559	340.69
735.96	328.99
736.362	394.53
736.763	345.38
737.165	263.46
737.566	312.61
737.967	347.72
738.368	305.59
738.77	268.14
739.171	291.54
739.572	331.33
739.973	324.31
740.374	340.69
740.774	242.39
741.175	310.27
741.576	364.1
741.977	233.03
742.377	336.01
742.778	296.22
743.178	333.67
743.579	328.99
743.979	300.91
744.379	277.5
744.78	331.33
745.18	326.65
745.58	324.31
745.98	366.44
746.38	275.16
746.78	326.65
747.18	268.14
747.58	270.48
747.98	375.8
748.38	354.74
748.779	310.27
749.179	247.07
749.578	268.14
749.978	296.22
750.377	286.86
750.777	310.27
751.176	298.56
751.575	312.61
751.975	312.61
752.374	261.12
752.773	305.59
753.172	328.99
753.571	321.97
753.97	317.29
754.369	319.63
754.768	312.61
755.166	286.86
755.565	275.16
755.964	324.31
756.362	314.95
756.761	307.93
757.159	312.61
757.558	382.82
757.956	331.33
758.354	312.61
758.753	314.95
759.151	364.1
759.549	380.48
759.947	293.88
760.345	307.93
760.743	350.06
761.141	366.44
761.539	317.29
761.936	340.69
762.334	380.48
762.732	321.97
763.129	366.44
763.527	300.91
763.924	331.33
764.322	275.16
764.719	326.65
765.117	300.91
765.514	268.14
765.911	326.65
766.308	331.33
766.705	258.78
767.102	347.72
767.499	340.69
767.896	314.95
768.293	364.1
768.69	242.39
769.086	357.08
769.483	279.84
769.88	284.52
770.276	338.35
770.673	272.82
771.069	333.67
771.466	249.41
771.862	368.78
772.258	305.59
772.654	272.82
773.05	350.06
773.447	336.01
773.843	368.78
774.239	298.56
774.634	319.63
775.03	331.33
775.426	310.27
775.822	279.84
776.218	291.54
776.613	263.46
777.009	336.01
777.404	305.59
777.8	258.78
778.195	310.27
778.59	277.5
778.986	310.27
779.381	289.2
779.776	251.75
780.171	324.31
780.566	312.61
780.961	319.63
781.356	352.4
781.751	310.27
782.146	284.52
782.54	303.25
782.935	286.86
783.33	373.46
783.724	328.99
784.119	345.38
784.513	336.01
784.908	331.33
785.302	310.27
785.696	319.63
786.09	314.95
786.485	305.59
786.879	251.75
787.273	282.18
787.667	296.22
788.061	289.2
788.454	275.16
788.848	371.12
789.242	352.4
789.636	279.84
790.029	263.46
790.423	256.43
790.816	303.25
791.21	382.82
791.603	258.78
791.997	380.48
792.39	321.97
792.783	275.16
793.176	357.08
793.569	303.25
793.962	289.2
794.355	289.2
794.748	373.46
795.141	258.78
795.534	345.38
795.927	371.12
796.319	338.35
796.712	272.82
797.105	331.33
797.497	338.35
797.89	312.61
798.282	324.31
798.674	296.22
799.067	242.39
799.459	324.31
799.851	298.56
800.243	326.65
800.635	317.29
801.027	286.86
801.419	289.2
801.811	314.95
802.203	226.01
802.594	352.4
802.986	336.01
803.378	361.76
803.769	368.78
804.161	319.63
804.552	256.43
804.944	277.5
805.335	354.74
805.726	345.38
806.118	272.82
806.509	265.8
806.9	336.01
807.291	314.95
807.682	324.31
808.073	319.63
808.464	331.33
808.855	338.35
809.245	359.42
809.636	359.42
810.027	254.09
810.417	331.33
810.808	296.22
811.198	350.06
811.589	293.88
811.979	314.95
812.369	298.56
812.759	317.29
813.15	326.65
813.54	270.48
813.93	336.01
814.32	324.31
814.71	324.31
815.1	314.95
815.489	319.63
815.879	258.78
816.269	242.39
816.658	289.2
817.048	298.56
817.438	305.59
817.827	340.69
818.216	347.72
818.606	300.91
818.995	272.82
819.384	317.29
819.773	312.61
820.163	347.72
820.552	319.63
820.941	296.22
821.33	333.67
821.718	303.25
822.107	300.91
822.496	347.72
822.885	350.06
823.273	359.42
823.662	303.25
824.05	314.95
824.439	347.72
824.827	284.52
825.216	345.38
825.604	284.52
825.992	321.97
826.38	268.14
826.768	317.29
827.156	230.69
827.544	303.25
827.932	298.56
828.32	312.61
828.708	300.91
829.096	307.93
829.483	317.29
829.871	305.59
830.259	312.61
830.646	343.03
831.034	249.41
831.421	338.35
831.808	340.69
832.196	321.97
832.583	317.29
832.97	312.61
833.357	338.35
833.744	368.78
834.131	387.5
834.518	272.82
834.905	312.61
835.292	333.67
835.678	345.38
836.065	317.29
836.452	272.82
836.838	279.84
837.225	275.16
837.611	328.99
837.998	286.86
838.384	268.14
838.77	389.85
839.157	368.78
839.543	347.72
839.929	321.97
840.315	345.38
840.701	373.46
841.087	326.65
841.473	291.54
841.858	265.8
842.244	249.41
842.63	282.18
843.015	347.72
843.401	637.94
843.787	336.01
844.172	279.84
844.557	277.5
844.943	258.78
845.328	319.63
845.713	314.95
846.098	328.99
846.483	340.69
846.868	336.01
847.253	296.22
847.638	270.48
848.023	221.33
848.408	336.01
848.793	314.95
849.177	345.38
849.562	314.95
849.947	270.48
850.331	324.31
850.715	331.33
851.1	328.99
851.484	247.07
851.868	324.31
852.253	223.67
852.637	279.84
853.021	314.95
853.405	265.8
853.789	242.39
854.173	328.99
854.557	314.95
854.94	340.69
855.324	312.61
855.708	361.76
856.091	343.03
856.475	303.25
856.858	275.16
857.242	303.25
857.625	293.88
858.009	331.33
858.392	321.97
858.775	284.52
859.158	317.29
859.541	242.39
859.924	270.48
860.307	279.84
860.69	317.29
861.073	286.86
861.456	291.54
861.838	361.76
862.221	291.54
862.604	277.5
862.986	307.93
863.369	361.76
863.751	321.97
864.133	282.18
864.516	354.74
864.898	226.01
865.28	279.84
865.662	345.38
866.044	357.08
866.426	357.08
866.808	282.18
867.19	300.91
867.572	314.95
867.954	258.78
868.336	352.4
868.717	310.27
869.099	216.65
869.48	387.5
869.862	326.65
870.243	312.61
870.625	324.31
871.006	258.78
871.387	284.52
871.768	361.76
872.149	251.75
872.53	373.46
872.911	340.69
873.292	331.33
873.673	317.29
874.054	263.46
874.435	375.8
874.815	345.38
875.196	279.84
875.577	319.63
875.957	268.14
876.338	352.4
876.718	314.95
877.098	305.59
877.479	305.59
877.859	326.65
878.239	336.01
878.619	293.88
878.999	242.39
879.379	265.8
879.759	319.63
880.139	319.63
880.519	340.69
880.898	352.4
881.278	298.56
881.658	268.14
882.037	319.63
882.417	368.78
882.796	321.97
883.176	347.72
883.555	326.65
883.934	319.63
884.313	293.88
884.693	293.88
885.072	324.31
885.451	366.44
885.83	263.46
886.209	340.69
886.587	275.16
886.966	298.56
887.345	272.82
887.724	296.22
888.102	331.33
888.481	354.74
888.859	328.99
889.238	286.86
889.616	270.48
889.994	279.84
890.373	361.76
890.751	333.67
891.129	336.01
891.507	291.54
891.885	352.4
892.263	256.43
892.641	293.88
893.019	230.69
893.396	305.59
893.774	293.88
894.152	303.25
894.529	298.56
894.907	359.42
895.284	261.12
895.662	321.97
896.039	345.38
896.416	221.33
896.794	289.2
897.171	343.03
897.548	242.39
897.925	300.91
898.302	317.29
898.679	357.08
899.056	275.16
899.433	357.08
899.809	343.03
900.186	310.27
900.563	361.76
900.939	331.33
901.316	328.99
901.692	326.65
902.069	328.99
902.445	364.1
902.821	275.16
903.197	263.46
903.574	314.95
903.95	305.59
904.326	343.03
904.702	350.06
905.078	277.5
905.454	321.97
905.829	312.61
906.205	317.29
906.581	350.06
906.956	326.65
907.332	396.87
907.707	279.84
908.083	296.22
908.458	303.25
908.833	333.67
909.209	298.56
909.584	347.72
909.959	312.61
910.334	368.78
910.709	326.65
911.084	240.05
911.459	263.46
911.834	331.33
912.209	307.93
912.583	268.14
912.958	307.93
913.333	328.99
913.707	279.84
914.082	319.63
914.456	368.78
914.83	328.99
915.205	333.67
915.579	305.59
915.953	333.67
916.327	284.52
916.701	244.73
917.075	331.33
917.449	340.69
917.823	303.25
918.197	336.01
918.571	305.59
918.944	307.93
919.318	317.29
919.692	303.25
920.065	277.5
920.438	378.14
920.812	352.4
921.185	249.41
921.558	326.65
921.932	275.16
922.305	261.12
922.678	331.33
923.051	317.29
923.424	324.31
923.797	261.12
924.17	258.78
924.542	270.48
924.915	399.21
925.288	364.1
925.661	282.18
926.033	331.33
926.406	305.59
926.778	298.56
927.15	305.59
927.523	347.72
927.895	326.65
928.267	284.52
928.639	286.86
929.011	307.93
929.383	272.82
929.755	286.86
930.127	336.01
930.499	303.25
930.871	343.03
931.242	361.76
931.614	303.25
931.986	314.95
932.357	312.61
932.729	293.88
933.1	378.14
933.471	247.07
933.843	336.01
934.214	298.56
934.585	331.33
934.956	317.29
935.327	364.1
935.698	296.22
936.069	235.37
936.44	289.2
936.811	324.31
937.182	254.09
937.552	331.33
937.923	282.18
938.293	272.82
938.664	284.52
939.034	282.18
939.405	340.69
939.775	357.08
940.145	319.63
940.516	354.74
940.886	235.37
941.256	289.2
941.626	310.27
941.996	352.4
942.366	343.03
942.735	338.35
943.105	272.82
943.475	244.73
943.845	261.12
944.214	279.84
944.584	254.09
944.953	310.27
945.323	235.37
945.692	305.59
946.061	305.59
946.43	272.82
946.8	291.54
947.169	319.63
947.538	312.61
947.907	247.07
948.276	244.73
948.645	296.22
949.013	347.72
949.382	336.01
949.751	298.56
950.119	221.33
950.488	293.88
950.857	263.46
951.225	314.95
951.593	286.86
951.962	336.01
952.33	298.56
952.698	328.99
953.066	336.01
953.434	270.48
953.802	333.67
954.17	268.14
954.538	319.63
954.906	361.76
955.274	305.59
955.642	321.97
956.009	321.97
956.377	263.46
956.744	354.74
957.112	293.88
957.479	307.93
957.847	275.16
958.214	361.76
958.581	343.03
958.948	354.74
959.315	300.91
959.683	251.75
960.05	298.56
960.416	228.35
960.783	324.31
961.15	319.63
961.517	319.63
961.884	249.41
962.25	331.33
962.617	317.29
962.983	319.63
963.35	291.54
963.716	265.8
964.082	298.56
964.449	371.12
964.815	333.67
965.181	338.35
965.547	270.48
965.913	268.14
966.279	298.56
966.645	256.43
967.011	343.03
967.377	343.03
967.742	340.69
968.108	291.54
968.474	359.42
968.839	247.07
969.205	382.82
969.57	359.42
969.935	310.27
970.301	368.78
970.666	261.12
971.031	305.59
971.396	265.8
971.761	343.03
972.126	242.39
972.491	324.31
972.856	373.46
973.221	298.56
973.586	378.14
973.95	291.54
974.315	392.19
974.679	361.76
975.044	310.27
975.408	321.97
975.773	319.63
976.137	268.14
976.501	354.74
976.866	328.99
977.23	251.75
977.594	310.27
977.958	293.88
978.322	314.95
978.686	268.14
979.049	286.86
979.413	319.63
979.777	293.88
980.141	312.61
980.504	364.1
980.868	218.99
981.231	291.54
981.595	298.56
981.958	317.29
982.321	385.16
982.684	279.84
983.048	282.18
983.411	324.31
983.774	268.14
984.137	352.4
984.5	371.12
984.862	338.35
985.225	303.25
985.588	279.84
985.951	359.42
986.313	340.69
986.676	277.5
987.038	317.29
987.401	361.76
987.763	289.2
988.125	289.2
988.488	251.75
988.85	328.99
989.212	293.88
989.574	310.27
989.936	249.41
990.298	282.18
990.66	272.82
991.022	279.84
991.383	305.59
991.745	275.16
992.107	277.5
992.468	263.46
992.83	314.95
993.191	261.12
993.553	303.25
993.914	237.71
994.275	282.18
994.637	331.33
994.998	352.4
995.359	326.65
995.72	293.88
996.081	310.27
996.442	321.97
996.803	336.01
997.163	286.86
997.524	298.56
997.885	249.41
998.245	275.16
998.606	300.91
998.966	340.69
999.327	277.5
999.687	284.52
1000.047	275.16
1000.408	314.95
1000.768	345.38
1001.128	284.52
1001.488	303.25
1001.848	326.65
1002.208	279.84
1002.568	310.27
1002.927	336.01
1003.287	326.65
1003.647	366.44
1004.007	314.95
1004.366	343.03
1004.726	333.67
1005.085	314.95
1005.444	296.22
1005.804	303.25
1006.163	364.1
1006.522	345.38
1006.881	270.48
1007.24	261.12
1007.599	312.61
1007.958	254.09
1008.317	300.91
1008.676	314.95
1009.035	319.63
1009.393	298.56
1009.752	385.16
1010.111	324.31
1010.469	312.61
1010.828	310.27
1011.186	328.99
1011.544	319.63
1011.903	340.69
1012.261	256.43
1012.619	305.59
1012.977	357.08
1013.335	357.08
1013.693	251.75
1014.051	284.52
1014.409	312.61
1014.767	314.95
1015.124	282.18
1015.482	305.59
1015.84	336.01
1016.197	270.48
1016.555	336.01
1016.912	310.27
1017.269	336.01
1017.627	305.59
1017.984	296.22
1018.341	371.12
1018.698	328.99
1019.055	296.22
1019.412	303.25
1019.769	275.16
1020.126	340.69
1020.483	324.31
1020.84	321.97
1021.196	331.33
1021.553	350.06
1021.909	321.97
1022.266	256.43
1022.622	303.25
1022.979	359.42
1023.335	298.56
1023.691	331.33
1024.047	345.38
1024.404	275.16
1024.76	289.2
1025.116	338.35
1025.472	321.97
1025.827	333.67
1026.183	275.16
1026.539	324.31
1026.895	291.54
1027.25	279.84
1027.606	321.97
1027.961	326.65
1028.317	298.56
1028.672	375.8
1029.028	282.18
1029.383	307.93
1029.738	244.73
1030.093	282.18
1030.448	319.63
1030.803	338.35
1031.158	286.86
1031.513	272.82
1031.868	286.86
1032.223	268.14
1032.577	361.76
1032.932	326.65
1033.287	310.27
1033.641	340.69
1033.996	321.97
1034.35	317.29
1034.704	286.86
1035.059	258.78
1035.413	326.65
1035.767	326.65
1036.121	326.65
