Data from Al_FLMS009871__194__12-01-03-174.txt Node

Date: Fri Mar 08 12:01:03 CST 2024
User: pe5414po
Spectrometer: FLMS00987
Trigger mode: 0
Integration Time (sec): 1.000000E-1
Scans to average: 1
Electric dark correction enabled: true
Nonlinearity correction enabled: false
Boxcar width: 0
XAxis mode: Wavelengths
Number of Pixels in Spectrum: 2048
>>>>>Begin Spectral Data<<<<<
188.938	-130.78
189.409	-130.78
189.879	-130.78
190.349	-98.01
190.819	-98.01
191.29	-107.37
191.76	-133.12
192.23	-128.44
192.7	-58.22
193.17	-44.18
193.64	-39.5
194.109	14.34
194.579	-30.13
195.049	-13.75
195.519	30.72
195.988	56.47
196.458	26.04
196.927	65.83
197.397	63.49
197.866	175.83
198.336	122
198.805	122
199.274	131.36
199.744	164.13
200.213	192.22
200.682	201.58
201.151	187.54
201.62	206.26
202.089	330.31
202.558	269.45
203.027	283.5
203.495	267.11
203.964	257.75
204.433	311.58
204.902	332.65
205.37	208.6
205.839	297.54
206.307	306.9
206.776	311.58
207.244	264.77
207.712	269.45
208.181	196.9
208.649	299.88
209.117	306.9
209.585	325.63
210.053	257.75
210.521	323.29
210.989	229.67
211.457	267.11
211.925	351.37
212.393	325.63
212.861	297.54
213.328	264.77
213.796	203.92
214.264	274.14
214.731	206.26
215.199	262.43
215.666	260.09
216.133	248.39
216.601	227.32
217.068	281.16
217.535	295.2
218.003	224.98
218.47	274.14
218.937	217.96
219.404	271.79
219.871	288.18
220.338	276.48
220.805	189.88
221.271	264.77
221.738	215.62
222.205	215.62
222.671	236.69
223.138	227.32
223.605	232.01
224.071	253.07
224.538	285.84
225.004	143.07
225.47	260.09
225.937	239.03
226.403	285.84
226.869	302.22
227.335	194.56
227.801	234.35
228.267	236.69
228.733	320.95
229.199	232.01
229.665	224.98
230.131	248.39
230.597	288.18
231.062	292.86
231.528	267.11
231.994	267.11
232.459	255.41
232.925	281.16
233.39	199.24
233.856	325.63
234.321	274.14
234.786	325.63
235.252	304.56
235.717	260.09
236.182	224.98
236.647	241.37
237.112	248.39
237.577	227.32
238.042	201.58
238.507	299.88
238.972	323.29
239.436	269.45
239.901	246.05
240.366	297.54
240.83	271.79
241.295	283.5
241.76	281.16
242.224	246.05
242.688	318.61
243.153	257.75
243.617	269.45
244.081	229.67
244.545	199.24
245.01	257.75
245.474	274.14
245.938	304.56
246.402	250.73
246.866	236.69
247.33	311.58
247.793	255.41
248.257	274.14
248.721	304.56
249.185	213.28
249.648	264.77
250.112	208.6
250.575	292.86
251.039	278.82
251.502	290.52
251.965	241.37
252.429	311.58
252.892	255.41
253.355	285.84
253.818	229.67
254.281	313.92
254.744	260.09
255.207	236.69
255.67	250.73
256.133	278.82
256.596	217.96
257.059	290.52
257.522	260.09
257.984	239.03
258.447	318.61
258.909	288.18
259.372	304.56
259.834	253.07
260.297	325.63
260.759	276.48
261.221	220.3
261.684	255.41
262.146	248.39
262.608	276.48
263.07	302.22
263.532	283.5
263.994	316.26
264.456	316.26
264.918	236.69
265.38	250.73
265.842	227.32
266.303	327.97
266.765	281.16
267.227	353.71
267.688	290.52
268.15	325.63
268.611	271.79
269.072	290.52
269.534	224.98
269.995	253.07
270.456	290.52
270.918	262.43
271.379	229.67
271.84	257.75
272.301	299.88
272.762	253.07
273.223	243.71
273.684	288.18
274.144	311.58
274.605	332.65
275.066	262.43
275.527	290.52
275.987	239.03
276.448	246.05
276.908	325.63
277.369	229.67
277.829	290.52
278.289	260.09
278.75	260.09
279.21	253.07
279.67	288.18
280.13	318.61
280.59	271.79
281.05	281.16
281.51	332.65
281.97	276.48
282.43	290.52
282.89	257.75
283.35	285.84
283.809	334.99
284.269	302.22
284.729	342.01
285.188	260.09
285.648	283.5
286.107	271.79
286.567	264.77
287.026	306.9
287.485	271.79
287.944	255.41
288.404	253.07
288.863	292.86
289.322	290.52
289.781	271.79
290.24	232.01
290.699	253.07
291.158	306.9
291.616	267.11
292.075	267.11
292.534	253.07
292.992	299.88
293.451	253.07
293.91	288.18
294.368	316.26
294.827	271.79
295.285	327.97
295.743	262.43
296.202	257.75
296.66	285.84
297.118	210.94
297.576	309.24
298.034	271.79
298.492	260.09
298.95	255.41
299.408	339.67
299.866	337.33
300.324	229.67
300.781	262.43
301.239	306.9
301.697	236.69
302.154	370.1
302.612	269.45
303.069	285.84
303.527	257.75
303.984	278.82
304.441	232.01
304.899	290.52
305.356	278.82
305.813	241.37
306.27	257.75
306.727	285.84
307.184	276.48
307.641	332.65
308.098	276.48
308.555	264.77
309.012	264.77
309.468	274.14
309.925	297.54
310.382	288.18
310.838	227.32
311.295	278.82
311.751	269.45
312.208	248.39
312.664	290.52
313.12	334.99
313.577	234.35
314.033	309.24
314.489	274.14
314.945	313.92
315.401	309.24
315.857	327.97
316.313	323.29
316.769	339.67
317.225	274.14
317.681	262.43
318.136	281.16
318.592	278.82
319.048	306.9
319.503	278.82
319.959	323.29
320.414	342.01
320.869	337.33
321.325	309.24
321.78	327.97
322.235	241.37
322.691	260.09
323.146	318.61
323.601	239.03
324.056	253.07
324.511	285.84
324.966	332.65
325.421	318.61
325.875	208.6
326.33	253.07
326.785	246.05
327.24	330.31
327.694	267.11
328.149	283.5
328.603	342.01
329.058	334.99
329.512	278.82
329.966	274.14
330.421	358.39
330.875	306.9
331.329	248.39
331.783	239.03
332.237	297.54
332.691	278.82
333.145	281.16
333.599	358.39
334.053	260.09
334.507	295.2
334.96	309.24
335.414	318.61
335.868	278.82
336.321	304.56
336.775	302.22
337.228	290.52
337.682	332.65
338.135	290.52
338.588	316.26
339.042	274.14
339.495	323.29
339.948	232.01
340.401	239.03
340.854	337.33
341.307	334.99
341.76	297.54
342.213	271.79
342.666	208.6
343.119	332.65
343.571	239.03
344.024	309.24
344.477	332.65
344.929	274.14
345.382	288.18
345.834	236.69
346.287	257.75
346.739	283.5
347.191	334.99
347.644	243.71
348.096	311.58
348.548	306.9
349	297.54
349.452	248.39
349.904	318.61
350.356	297.54
350.808	276.48
351.26	271.79
351.711	349.03
352.163	243.71
352.615	248.39
353.066	311.58
353.518	323.29
353.969	283.5
354.421	253.07
354.872	344.35
355.324	269.45
355.775	316.26
356.226	306.9
356.677	285.84
357.128	285.84
357.579	323.29
358.03	309.24
358.481	281.16
358.932	316.26
359.383	269.45
359.834	269.45
360.285	234.35
360.735	290.52
361.186	318.61
361.637	304.56
362.087	220.3
362.538	257.75
362.988	262.43
363.438	257.75
363.889	194.56
364.339	339.67
364.789	320.95
365.239	267.11
365.689	316.26
366.139	290.52
366.589	302.22
367.039	264.77
367.489	264.77
367.939	267.11
368.389	276.48
368.839	302.22
369.288	232.01
369.738	325.63
370.187	334.99
370.637	269.45
371.086	288.18
371.536	285.84
371.985	285.84
372.434	323.29
372.884	313.92
373.333	337.33
373.782	311.58
374.231	292.86
374.68	344.35
375.129	320.95
375.578	313.92
376.027	264.77
376.475	297.54
376.924	295.2
377.373	292.86
377.822	278.82
378.27	325.63
378.719	327.97
379.167	246.05
379.616	264.77
380.064	323.29
380.512	290.52
380.961	309.24
381.409	330.31
381.857	320.95
382.305	217.96
382.753	337.33
383.201	313.92
383.649	222.64
384.097	316.26
384.545	250.73
384.992	253.07
385.44	353.71
385.888	257.75
386.335	220.3
386.783	243.71
387.231	327.97
387.678	318.61
388.125	311.58
388.573	320.95
389.02	313.92
389.467	313.92
389.914	332.65
390.362	330.31
390.809	311.58
391.256	316.26
391.703	320.95
392.15	311.58
392.596	349.03
393.043	269.45
393.49	248.39
393.937	260.09
394.383	255.41
394.83	325.63
395.276	271.79
395.723	217.96
396.169	295.2
396.616	278.82
397.062	220.3
397.508	285.84
397.954	264.77
398.401	302.22
398.847	248.39
399.293	297.54
399.739	325.63
400.185	250.73
400.631	353.71
401.076	349.03
401.522	299.88
401.968	318.61
402.414	313.92
402.859	351.37
403.305	316.26
403.75	342.01
404.196	323.29
404.641	320.95
405.086	260.09
405.532	318.61
405.977	246.05
406.422	297.54
406.867	316.26
407.312	262.43
407.757	304.56
408.202	306.9
408.647	309.24
409.092	295.2
409.537	332.65
409.982	274.14
410.426	309.24
410.871	313.92
411.316	316.26
411.76	306.9
412.205	288.18
412.649	304.56
413.093	260.09
413.538	318.61
413.982	290.52
414.426	267.11
414.87	311.58
415.314	295.2
415.758	309.24
416.202	365.42
416.646	306.9
417.09	283.5
417.534	349.03
417.978	327.97
418.421	299.88
418.865	309.24
419.309	292.86
419.752	320.95
420.196	323.29
420.639	318.61
421.083	360.74
421.526	269.45
421.969	311.58
422.412	320.95
422.856	365.42
423.299	400.52
423.742	342.01
424.185	311.58
424.628	330.31
425.071	351.37
425.513	332.65
425.956	367.76
426.399	320.95
426.842	330.31
427.284	358.39
427.727	334.99
428.169	292.86
428.612	367.76
429.054	330.31
429.497	339.67
429.939	323.29
430.381	302.22
430.823	325.63
431.265	292.86
431.707	349.03
432.149	297.54
432.591	325.63
433.033	304.56
433.475	344.35
433.917	358.39
434.359	426.27
434.8	430.95
435.242	512.87
435.684	468.4
436.125	437.97
436.567	456.7
437.008	412.23
437.449	388.82
437.891	374.78
438.332	487.12
438.773	370.1
439.214	346.69
439.656	372.44
440.097	356.05
440.538	360.74
440.978	381.8
441.419	374.78
441.86	412.23
442.301	444.99
442.742	381.8
443.182	430.95
443.623	416.91
444.063	337.33
444.504	391.16
444.944	482.44
445.385	388.82
445.825	400.52
446.265	402.86
446.706	515.21
447.146	377.12
447.586	437.97
448.026	459.04
448.466	421.59
448.906	477.76
449.346	400.52
449.786	426.27
450.225	463.72
450.665	365.42
451.105	393.5
451.544	379.46
451.984	367.76
452.424	363.08
452.863	374.78
453.302	356.05
453.742	475.42
454.181	419.25
454.62	346.69
455.059	370.1
455.499	290.52
455.938	398.18
456.377	398.18
456.816	323.29
457.254	325.63
457.693	346.69
458.132	358.39
458.571	372.44
459.01	334.99
459.448	388.82
459.887	379.46
460.325	391.16
460.764	351.37
461.202	356.05
461.641	377.12
462.079	391.16
462.517	332.65
462.955	264.77
463.393	365.42
463.832	325.63
464.27	346.69
464.708	423.93
465.145	400.52
465.583	360.74
466.021	337.33
466.459	360.74
466.897	358.39
467.334	332.65
467.772	325.63
468.209	299.88
468.647	344.35
469.084	325.63
469.522	386.48
469.959	365.42
470.396	346.69
470.833	323.29
471.271	370.1
471.708	349.03
472.145	351.37
472.582	281.16
473.019	353.71
473.456	358.39
473.892	292.86
474.329	367.76
474.766	318.61
475.202	313.92
475.639	311.58
476.076	302.22
476.512	363.08
476.949	360.74
477.385	339.67
477.821	302.22
478.258	377.12
478.694	346.69
479.13	358.39
479.566	400.52
480.002	363.08
480.438	353.71
480.874	360.74
481.31	377.12
481.746	346.69
482.181	342.01
482.617	379.46
483.053	381.8
483.488	377.12
483.924	360.74
484.36	377.12
484.795	391.16
485.23	393.5
485.666	414.57
486.101	386.48
486.536	400.52
486.971	374.78
487.407	398.18
487.842	344.35
488.277	367.76
488.712	365.42
489.146	388.82
489.581	409.89
490.016	416.91
490.451	405.21
490.885	482.44
491.32	353.71
491.755	421.59
492.189	400.52
492.624	381.8
493.058	419.25
493.492	356.05
493.927	407.55
494.361	304.56
494.795	416.91
495.229	412.23
495.663	398.18
496.097	325.63
496.531	349.03
496.965	306.9
497.399	384.14
497.833	386.48
498.266	407.55
498.7	358.39
499.134	342.01
499.567	379.46
500.001	447.33
500.434	367.76
500.868	377.12
501.301	330.31
501.734	292.86
502.168	318.61
502.601	353.71
503.034	391.16
503.467	386.48
503.9	320.95
504.333	342.01
504.766	379.46
505.199	412.23
505.632	330.31
506.064	358.39
506.497	358.39
506.93	363.08
507.362	356.05
507.795	292.86
508.227	339.67
508.66	372.44
509.092	337.33
509.524	323.29
509.956	381.8
510.389	363.08
510.821	342.01
511.253	337.33
511.685	358.39
512.117	370.1
512.549	398.18
512.981	386.48
513.412	388.82
513.844	386.48
514.276	334.99
514.707	433.29
515.139	372.44
515.571	363.08
516.002	367.76
516.433	379.46
516.865	339.67
517.296	309.24
517.727	313.92
518.159	363.08
518.59	386.48
519.021	381.8
519.452	327.97
519.883	391.16
520.314	327.97
520.744	363.08
521.175	398.18
521.606	318.61
522.037	370.1
522.467	318.61
522.898	421.59
523.328	353.71
523.759	313.92
524.189	372.44
524.62	342.01
525.05	402.86
525.48	384.14
525.91	395.84
526.341	426.27
526.771	433.29
527.201	412.23
527.631	351.37
528.061	339.67
528.49	386.48
528.92	353.71
529.35	360.74
529.78	409.89
530.209	381.8
530.639	358.39
531.068	318.61
531.498	330.31
531.927	407.55
532.357	365.42
532.786	470.74
533.215	379.46
533.644	372.44
534.074	320.95
534.503	332.65
534.932	428.61
535.361	391.16
535.79	388.82
536.218	405.21
536.647	405.21
537.076	430.95
537.505	459.04
537.933	358.39
538.362	423.93
538.79	400.52
539.219	454.36
539.647	440.31
540.076	456.7
540.504	456.7
540.932	547.98
541.36	615.85
541.788	627.56
542.217	683.73
542.645	674.37
543.073	615.85
543.5	655.64
543.928	599.47
544.356	618.19
544.784	660.32
545.211	683.73
545.639	641.6
546.067	585.43
546.494	576.06
546.922	508.19
547.349	421.59
547.776	367.76
548.204	391.16
548.631	447.33
549.058	414.57
549.485	412.23
549.912	461.38
550.339	398.18
550.766	459.04
551.193	400.52
551.62	444.99
552.047	381.8
552.474	522.23
552.9	430.95
553.327	374.78
553.754	381.8
554.18	407.55
554.607	356.05
555.033	398.18
555.459	365.42
555.886	332.65
556.312	419.25
556.738	351.37
557.164	372.44
557.59	332.65
558.016	381.8
558.442	384.14
558.868	316.26
559.294	332.65
559.72	344.35
560.145	384.14
560.571	379.46
560.997	356.05
561.422	372.44
561.848	384.14
562.273	388.82
562.699	419.25
563.124	327.97
563.549	388.82
563.974	318.61
564.4	377.12
564.825	370.1
565.25	398.18
565.675	423.93
566.1	379.46
566.525	442.65
566.95	377.12
567.374	367.76
567.799	344.35
568.224	405.21
568.648	367.76
569.073	353.71
569.497	334.99
569.922	346.69
570.346	344.35
570.771	316.26
571.195	360.74
571.619	416.91
572.043	365.42
572.467	337.33
572.891	365.42
573.315	400.52
573.739	405.21
574.163	327.97
574.587	379.46
575.011	374.78
575.435	374.78
575.858	475.42
576.282	402.86
576.705	297.54
577.129	416.91
577.552	365.42
577.976	402.86
578.399	384.14
578.822	398.18
579.245	414.57
579.669	346.69
580.092	430.95
580.515	360.74
580.938	405.21
581.361	419.25
581.784	416.91
582.206	407.55
582.629	447.33
583.052	367.76
583.474	365.42
583.897	414.57
584.32	423.93
584.742	449.68
585.165	461.38
585.587	440.31
586.009	400.52
586.431	452.02
586.854	440.31
587.276	381.8
587.698	454.36
588.12	491.81
588.542	461.38
588.964	374.78
589.386	379.46
589.807	400.52
590.229	395.84
590.651	344.35
591.073	402.86
591.494	400.52
591.916	430.95
592.337	391.16
592.759	444.99
593.18	398.18
593.601	356.05
594.022	393.5
594.444	356.05
594.865	377.12
595.286	381.8
595.707	393.5
596.128	356.05
596.549	374.78
596.97	363.08
597.39	323.29
597.811	407.55
598.232	398.18
598.652	393.5
599.073	426.27
599.494	311.58
599.914	339.67
600.334	344.35
600.755	379.46
601.175	344.35
601.595	363.08
602.015	395.84
602.436	379.46
602.856	522.23
603.276	323.29
603.696	379.46
604.115	283.5
604.535	316.26
604.955	346.69
605.375	395.84
605.794	334.99
606.214	260.09
606.634	398.18
607.053	370.1
607.473	349.03
607.892	388.82
608.311	421.59
608.731	381.8
609.15	452.02
609.569	480.1
609.988	578.4
610.407	641.6
610.826	693.09
611.245	784.37
611.664	714.16
612.083	636.92
612.501	625.22
612.92	524.57
613.339	585.43
613.757	508.19
614.176	491.81
614.594	459.04
615.013	402.86
615.431	475.42
615.85	344.35
616.268	386.48
616.686	444.99
617.104	374.78
617.522	379.46
617.94	370.1
618.358	344.35
618.776	414.57
619.194	449.68
619.612	419.25
620.03	414.57
620.447	402.86
620.865	409.89
621.282	365.42
621.7	374.78
622.117	377.12
622.535	304.56
622.952	285.84
623.369	379.46
623.787	407.55
624.204	367.76
624.621	386.48
625.038	325.63
625.455	320.95
625.872	395.84
626.289	353.71
626.706	344.35
627.123	309.24
627.539	391.16
627.956	288.18
628.373	388.82
628.789	384.14
629.206	346.69
629.622	290.52
630.038	309.24
630.455	395.84
630.871	346.69
631.287	379.46
631.703	332.65
632.12	379.46
632.536	344.35
632.952	402.86
633.368	316.26
633.783	325.63
634.199	302.22
634.615	271.79
635.031	346.69
635.446	318.61
635.862	304.56
636.277	395.84
636.693	309.24
637.108	393.5
637.524	332.65
637.939	372.44
638.354	334.99
638.77	351.37
639.185	262.43
639.6	330.31
640.015	243.71
640.43	332.65
640.845	306.9
641.259	313.92
641.674	311.58
642.089	257.75
642.504	283.5
642.918	337.33
643.333	302.22
643.747	306.9
644.162	353.71
644.576	405.21
644.991	370.1
645.405	292.86
645.819	327.97
646.233	276.48
646.647	316.26
647.061	316.26
647.475	288.18
647.889	337.33
648.303	325.63
648.717	332.65
649.131	360.74
649.545	313.92
649.958	388.82
650.372	332.65
650.785	353.71
651.199	386.48
651.612	260.09
652.026	330.31
652.439	363.08
652.852	313.92
653.266	278.82
653.679	299.88
654.092	311.58
654.505	323.29
654.918	330.31
655.331	271.79
655.744	360.74
656.156	288.18
656.569	274.14
656.982	325.63
657.394	243.71
657.807	320.95
658.22	285.84
658.632	320.95
659.044	356.05
659.457	384.14
659.869	349.03
660.281	325.63
660.693	349.03
661.106	398.18
661.518	323.29
661.93	330.31
662.342	304.56
662.754	381.8
663.165	325.63
663.577	386.48
663.989	330.31
664.401	339.67
664.812	309.24
665.224	229.67
665.635	320.95
666.047	320.95
666.458	334.99
666.869	290.52
667.281	339.67
667.692	264.77
668.103	283.5
668.514	304.56
668.925	309.24
669.336	334.99
669.747	274.14
670.158	363.08
670.569	320.95
670.979	337.33
671.39	337.33
671.801	274.14
672.211	285.84
672.622	288.18
673.032	323.29
673.443	239.03
673.853	264.77
674.263	325.63
674.674	356.05
675.084	227.32
675.494	320.95
675.904	302.22
676.314	281.16
676.724	267.11
677.134	292.86
677.544	288.18
677.953	367.76
678.363	332.65
678.773	344.35
679.182	325.63
679.592	276.48
680.001	311.58
680.411	334.99
680.82	299.88
681.23	313.92
681.639	306.9
682.048	269.45
682.457	262.43
682.866	267.11
683.275	358.39
683.684	285.84
684.093	262.43
684.502	239.03
684.911	246.05
685.32	311.58
685.728	241.37
686.137	299.88
686.546	306.9
686.954	278.82
687.363	288.18
687.771	346.69
688.179	323.29
688.588	309.24
688.996	398.18
689.404	215.62
689.812	351.37
690.22	363.08
690.628	299.88
691.036	372.44
691.444	360.74
691.852	227.32
692.26	360.74
692.667	313.92
693.075	313.92
693.483	353.71
693.89	297.54
694.298	339.67
694.705	302.22
695.112	349.03
695.52	342.01
695.927	337.33
696.334	306.9
696.741	306.9
697.148	255.41
697.555	288.18
697.962	267.11
698.369	276.48
698.776	295.2
699.183	283.5
699.59	327.97
699.996	320.95
700.403	386.48
700.81	349.03
701.216	292.86
701.623	327.97
702.029	306.9
702.435	264.77
702.842	283.5
703.248	334.99
703.654	323.29
704.06	313.92
704.466	344.35
704.872	246.05
705.278	276.48
705.684	339.67
706.09	311.58
706.496	402.86
706.901	311.58
707.307	288.18
707.712	330.31
708.118	306.9
708.523	398.18
708.929	316.26
709.334	318.61
709.74	274.14
710.145	337.33
710.55	339.67
710.955	313.92
711.36	309.24
711.765	311.58
712.17	356.05
712.575	241.37
712.98	877.99
713.385	299.88
713.789	306.9
714.194	290.52
714.599	257.75
715.003	281.16
715.408	267.11
715.812	327.97
716.217	351.37
716.621	274.14
717.025	332.65
717.429	339.67
717.833	342.01
718.238	260.09
718.642	344.35
719.046	306.9
719.449	302.22
719.853	316.26
720.257	337.33
720.661	234.35
721.065	304.56
721.468	241.37
721.872	295.2
722.275	253.07
722.679	299.88
723.082	316.26
723.485	276.48
723.889	306.9
724.292	351.37
724.695	267.11
725.098	370.1
725.501	363.08
725.904	295.2
726.307	316.26
726.71	213.28
727.113	349.03
727.516	295.2
727.918	349.03
728.321	313.92
728.724	299.88
729.126	353.71
729.529	255.41
729.931	386.48
730.333	325.63
730.736	192.22
731.138	304.56
731.54	288.18
731.942	283.5
732.344	304.56
732.746	306.9
733.148	320.95
733.55	281.16
733.952	283.5
734.354	236.69
734.756	318.61
735.157	227.32
735.559	253.07
735.96	297.54
736.362	320.95
736.763	285.84
737.165	306.9
737.566	239.03
737.967	304.56
738.368	325.63
738.77	236.69
739.171	309.24
739.572	288.18
739.973	344.35
740.374	309.24
740.774	269.45
741.175	337.33
741.576	271.79
741.977	253.07
742.377	351.37
742.778	323.29
743.178	243.71
743.579	281.16
743.979	234.35
744.379	339.67
744.78	203.92
745.18	281.16
745.58	285.84
745.98	271.79
746.38	306.9
746.78	281.16
747.18	337.33
747.58	260.09
747.98	313.92
748.38	327.97
748.779	276.48
749.179	281.16
749.578	299.88
749.978	232.01
750.377	309.24
750.777	297.54
751.176	276.48
751.575	276.48
751.975	290.52
752.374	267.11
752.773	229.67
753.172	292.86
753.571	306.9
753.97	234.35
754.369	250.73
754.768	278.82
755.166	241.37
755.565	313.92
755.964	346.69
756.362	290.52
756.761	332.65
757.159	309.24
757.558	236.69
757.956	332.65
758.354	318.61
758.753	311.58
759.151	318.61
759.549	288.18
759.947	302.22
760.345	313.92
760.743	363.08
761.141	253.07
761.539	309.24
761.936	292.86
762.334	330.31
762.732	285.84
763.129	398.18
763.527	290.52
763.924	269.45
764.322	311.58
764.719	288.18
765.117	297.54
765.514	290.52
765.911	290.52
766.308	283.5
766.705	318.61
767.102	309.24
767.499	281.16
767.896	285.84
768.293	288.18
768.69	281.16
769.086	257.75
769.483	346.69
769.88	274.14
770.276	304.56
770.673	313.92
771.069	292.86
771.466	229.67
771.862	316.26
772.258	330.31
772.654	320.95
773.05	288.18
773.447	250.73
773.843	327.97
774.239	292.86
774.634	297.54
775.03	304.56
775.426	327.97
775.822	337.33
776.218	320.95
776.613	313.92
777.009	344.35
777.404	309.24
777.8	327.97
778.195	334.99
778.59	311.58
778.986	234.35
779.381	304.56
779.776	356.05
780.171	271.79
780.566	246.05
780.961	262.43
781.356	334.99
781.751	290.52
782.146	285.84
782.54	199.24
782.935	285.84
783.33	337.33
783.724	323.29
784.119	283.5
784.513	316.26
784.908	297.54
785.302	229.67
785.696	306.9
786.09	236.69
786.485	257.75
786.879	281.16
787.273	255.41
787.667	290.52
788.061	274.14
788.454	292.86
788.848	234.35
789.242	241.37
789.636	309.24
790.029	260.09
790.423	320.95
790.816	267.11
791.21	313.92
791.603	248.39
791.997	323.29
792.39	316.26
792.783	325.63
793.176	325.63
793.569	302.22
793.962	297.54
794.355	337.33
794.748	239.03
795.141	299.88
795.534	297.54
795.927	281.16
796.319	276.48
796.712	320.95
797.105	243.71
797.497	262.43
797.89	229.67
798.282	302.22
798.674	325.63
799.067	313.92
799.459	295.2
799.851	283.5
800.243	269.45
800.635	318.61
801.027	311.58
801.419	274.14
801.811	292.86
802.203	304.56
802.594	224.98
802.986	353.71
803.378	316.26
803.769	363.08
804.161	278.82
804.552	276.48
804.944	304.56
805.335	267.11
805.726	346.69
806.118	323.29
806.509	260.09
806.9	274.14
807.291	269.45
807.682	224.98
808.073	297.54
808.464	304.56
808.855	311.58
809.245	276.48
809.636	299.88
810.027	313.92
810.417	236.69
810.808	306.9
811.198	283.5
811.589	426.27
811.979	311.58
812.369	353.71
812.759	356.05
813.15	311.58
813.54	255.41
813.93	217.96
814.32	276.48
814.71	271.79
815.1	330.31
815.489	302.22
815.879	302.22
816.269	316.26
816.658	351.37
817.048	236.69
817.438	274.14
817.827	274.14
818.216	342.01
818.606	288.18
818.995	232.01
819.384	288.18
819.773	297.54
820.163	278.82
820.552	313.92
820.941	295.2
821.33	304.56
821.718	281.16
822.107	248.39
822.496	292.86
822.885	391.16
823.273	255.41
823.662	281.16
824.05	250.73
824.439	255.41
824.827	304.56
825.216	325.63
825.604	290.52
825.992	285.84
826.38	260.09
826.768	260.09
827.156	313.92
827.544	323.29
827.932	255.41
828.32	271.79
828.708	337.33
829.096	246.05
829.483	236.69
829.871	274.14
830.259	248.39
830.646	346.69
831.034	278.82
831.421	278.82
831.808	241.37
832.196	246.05
832.583	290.52
832.97	318.61
833.357	332.65
833.744	262.43
834.131	283.5
834.518	356.05
834.905	318.61
835.292	344.35
835.678	262.43
836.065	255.41
836.452	323.29
836.838	248.39
837.225	295.2
837.611	262.43
837.998	264.77
838.384	283.5
838.77	288.18
839.157	217.96
839.543	332.65
839.929	302.22
840.315	278.82
840.701	285.84
841.087	306.9
841.473	250.73
841.858	241.37
842.244	318.61
842.63	255.41
843.015	313.92
843.401	627.56
843.787	276.48
844.172	243.71
844.557	255.41
844.943	330.31
845.328	351.37
845.713	363.08
846.098	351.37
846.483	269.45
846.868	278.82
847.253	344.35
847.638	337.33
848.023	306.9
848.408	332.65
848.793	323.29
849.177	290.52
849.562	285.84
849.947	309.24
850.331	330.31
850.715	241.37
851.1	304.56
851.484	236.69
851.868	299.88
852.253	306.9
852.637	304.56
853.021	274.14
853.405	325.63
853.789	304.56
854.173	370.1
854.557	278.82
854.94	311.58
855.324	262.43
855.708	283.5
856.091	222.64
856.475	337.33
856.858	339.67
857.242	239.03
857.625	250.73
858.009	243.71
858.392	313.92
858.775	320.95
859.158	264.77
859.541	276.48
859.924	290.52
860.307	260.09
860.69	246.05
861.073	344.35
861.456	311.58
861.838	337.33
862.221	327.97
862.604	334.99
862.986	262.43
863.369	260.09
863.751	313.92
864.133	313.92
864.516	360.74
864.898	290.52
865.28	271.79
865.662	302.22
866.044	250.73
866.426	311.58
866.808	281.16
867.19	304.56
867.572	311.58
867.954	243.71
868.336	292.86
868.717	313.92
869.099	334.99
869.48	316.26
869.862	276.48
870.243	227.32
870.625	353.71
871.006	313.92
871.387	206.26
871.768	316.26
872.149	274.14
872.53	276.48
872.911	330.31
873.292	313.92
873.673	313.92
874.054	194.56
874.435	260.09
874.815	264.77
875.196	283.5
875.577	320.95
875.957	318.61
876.338	271.79
876.718	241.37
877.098	288.18
877.479	316.26
877.859	323.29
878.239	318.61
878.619	285.84
878.999	299.88
879.379	374.78
879.759	283.5
880.139	337.33
880.519	334.99
880.898	257.75
881.278	313.92
881.658	334.99
882.037	253.07
882.417	332.65
882.796	358.39
883.176	334.99
883.555	257.75
883.934	313.92
884.313	330.31
884.693	320.95
885.072	248.39
885.451	325.63
885.83	353.71
886.209	264.77
886.587	269.45
886.966	236.69
887.345	295.2
887.724	327.97
888.102	316.26
888.481	281.16
888.859	278.82
889.238	269.45
889.616	304.56
889.994	243.71
890.373	248.39
890.751	337.33
891.129	257.75
891.507	334.99
891.885	262.43
892.263	325.63
892.641	388.82
893.019	325.63
893.396	243.71
893.774	285.84
894.152	248.39
894.529	353.71
894.907	299.88
895.284	276.48
895.662	260.09
896.039	316.26
896.416	276.48
896.794	388.82
897.171	288.18
897.548	327.97
897.925	332.65
898.302	260.09
898.679	292.86
899.056	239.03
899.433	304.56
899.809	320.95
900.186	318.61
900.563	208.6
900.939	292.86
901.316	288.18
901.692	288.18
902.069	271.79
902.445	302.22
902.821	260.09
903.197	295.2
903.574	327.97
903.95	290.52
904.326	334.99
904.702	271.79
905.078	339.67
905.454	337.33
905.829	304.56
906.205	290.52
906.581	271.79
906.956	283.5
907.332	271.79
907.707	292.86
908.083	234.35
908.458	257.75
908.833	297.54
909.209	327.97
909.584	316.26
909.959	304.56
910.334	283.5
910.709	304.56
911.084	281.16
911.459	257.75
911.834	236.69
912.209	278.82
912.583	292.86
912.958	290.52
913.333	283.5
913.707	250.73
914.082	285.84
914.456	302.22
914.83	281.16
915.205	325.63
915.579	262.43
915.953	330.31
916.327	349.03
916.701	304.56
917.075	248.39
917.449	299.88
917.823	302.22
918.197	302.22
918.571	320.95
918.944	274.14
919.318	370.1
919.692	353.71
920.065	269.45
920.438	288.18
920.812	269.45
921.185	274.14
921.558	210.94
921.932	257.75
922.305	267.11
922.678	281.16
923.051	297.54
923.424	283.5
923.797	255.41
924.17	302.22
924.542	285.84
924.915	201.58
925.288	250.73
925.661	330.31
926.033	306.9
926.406	288.18
926.778	292.86
927.15	290.52
927.523	344.35
927.895	267.11
928.267	295.2
928.639	339.67
929.011	234.35
929.383	304.56
929.755	302.22
930.127	292.86
930.499	260.09
930.871	285.84
931.242	283.5
931.614	222.64
931.986	311.58
932.357	342.01
932.729	241.37
933.1	260.09
933.471	248.39
933.843	325.63
934.214	236.69
934.585	309.24
934.956	318.61
935.327	278.82
935.698	299.88
936.069	325.63
936.44	313.92
936.811	257.75
937.182	276.48
937.552	290.52
937.923	281.16
938.293	292.86
938.664	246.05
939.034	316.26
939.405	337.33
939.775	318.61
940.145	344.35
940.516	297.54
940.886	234.35
941.256	342.01
941.626	271.79
941.996	271.79
942.366	285.84
942.735	313.92
943.105	269.45
943.475	342.01
943.845	224.98
944.214	344.35
944.584	255.41
944.953	285.84
945.323	330.31
945.692	285.84
946.061	332.65
946.43	344.35
946.8	255.41
947.169	241.37
947.538	339.67
947.907	292.86
948.276	271.79
948.645	269.45
949.013	356.05
949.382	255.41
949.751	222.64
950.119	281.16
950.488	281.16
950.857	295.2
951.225	232.01
951.593	299.88
951.962	304.56
952.33	281.16
952.698	316.26
953.066	304.56
953.434	267.11
953.802	288.18
954.17	215.62
954.538	342.01
954.906	306.9
955.274	208.6
955.642	276.48
956.009	299.88
956.377	334.99
956.744	285.84
957.112	246.05
957.479	339.67
957.847	262.43
958.214	224.98
958.581	255.41
958.948	339.67
959.315	278.82
959.683	327.97
960.05	281.16
960.416	278.82
960.783	344.35
961.15	271.79
961.517	304.56
961.884	309.24
962.25	323.29
962.617	365.42
962.983	346.69
963.35	339.67
963.716	299.88
964.082	306.9
964.449	313.92
964.815	337.33
965.181	339.67
965.547	285.84
965.913	285.84
966.279	330.31
966.645	327.97
967.011	349.03
967.377	325.63
967.742	302.22
968.108	283.5
968.474	290.52
968.839	278.82
969.205	337.33
969.57	274.14
969.935	316.26
970.301	210.94
970.666	342.01
971.031	262.43
971.396	260.09
971.761	309.24
972.126	325.63
972.491	363.08
972.856	337.33
973.221	267.11
973.586	337.33
973.95	342.01
974.315	253.07
974.679	304.56
975.044	278.82
975.408	304.56
975.773	358.39
976.137	299.88
976.501	316.26
976.866	351.37
977.23	320.95
977.594	358.39
977.958	271.79
978.322	332.65
978.686	269.45
979.049	344.35
979.413	292.86
979.777	304.56
980.141	260.09
980.504	299.88
980.868	281.16
981.231	311.58
981.595	260.09
981.958	295.2
982.321	304.56
982.684	239.03
983.048	246.05
983.411	370.1
983.774	269.45
984.137	250.73
984.5	255.41
984.862	381.8
985.225	358.39
985.588	332.65
985.951	248.39
986.313	353.71
986.676	313.92
987.038	250.73
987.401	297.54
987.763	274.14
988.125	253.07
988.488	320.95
988.85	295.2
989.212	267.11
989.574	269.45
989.936	276.48
990.298	288.18
990.66	274.14
991.022	297.54
991.383	271.79
991.745	330.31
992.107	360.74
992.468	306.9
992.83	318.61
993.191	295.2
993.553	297.54
993.914	283.5
994.275	313.92
994.637	299.88
994.998	274.14
995.359	290.52
995.72	269.45
996.081	278.82
996.442	248.39
996.803	250.73
997.163	304.56
997.524	285.84
997.885	318.61
998.245	217.96
998.606	295.2
998.966	199.24
999.327	241.37
999.687	262.43
1000.047	283.5
1000.408	288.18
1000.768	264.77
1001.128	327.97
1001.488	243.71
1001.848	302.22
1002.208	309.24
1002.568	288.18
1002.927	309.24
1003.287	267.11
1003.647	250.73
1004.007	313.92
1004.366	313.92
1004.726	281.16
1005.085	292.86
1005.444	290.52
1005.804	325.63
1006.163	288.18
1006.522	234.35
1006.881	274.14
1007.24	313.92
1007.599	285.84
1007.958	234.35
1008.317	206.26
1008.676	349.03
1009.035	283.5
1009.393	306.9
1009.752	262.43
1010.111	337.33
1010.469	325.63
1010.828	274.14
1011.186	323.29
1011.544	356.05
1011.903	313.92
1012.261	337.33
1012.619	203.92
1012.977	278.82
1013.335	276.48
1013.693	297.54
1014.051	285.84
1014.409	309.24
1014.767	313.92
1015.124	292.86
1015.482	332.65
1015.84	255.41
1016.197	313.92
1016.555	269.45
1016.912	255.41
1017.269	297.54
1017.627	264.77
1017.984	302.22
1018.341	253.07
1018.698	227.32
1019.055	276.48
1019.412	278.82
1019.769	232.01
1020.126	276.48
1020.483	288.18
1020.84	274.14
1021.196	323.29
1021.553	309.24
1021.909	264.77
1022.266	285.84
1022.622	283.5
1022.979	316.26
1023.335	332.65
1023.691	241.37
1024.047	353.71
1024.404	292.86
1024.76	224.98
1025.116	227.32
1025.472	285.84
1025.827	318.61
1026.183	241.37
1026.539	262.43
1026.895	278.82
1027.25	334.99
1027.606	351.37
1027.961	234.35
1028.317	290.52
1028.672	342.01
1029.028	253.07
1029.383	278.82
1029.738	365.42
1030.093	253.07
1030.448	349.03
1030.803	304.56
1031.158	187.54
1031.513	342.01
1031.868	271.79
1032.223	241.37
1032.577	288.18
1032.932	351.37
1033.287	260.09
1033.641	346.69
1033.996	323.29
1034.35	285.84
1034.704	278.82
1035.059	271.79
1035.413	332.65
1035.767	332.65
1036.121	332.65
