Data from Al_FLMS009871__1030__16-23-58-915.txt Node

Date: Fri Mar 08 16:23:58 CST 2024
User: pe5414po
Spectrometer: FLMS00987
Trigger mode: 0
Integration Time (sec): 1.000000E-1
Scans to average: 1
Electric dark correction enabled: true
Nonlinearity correction enabled: false
Boxcar width: 0
XAxis mode: Wavelengths
Number of Pixels in Spectrum: 2048
>>>>>Begin Spectral Data<<<<<
188.938	-36.57
189.409	-36.57
189.879	-36.57
190.349	-123.17
190.819	-95.08
191.29	-50.61
191.76	-111.47
192.23	-41.25
192.7	-41.25
193.17	-64.66
193.64	-62.32
194.109	-45.93
194.579	-99.77
195.049	26.62
195.519	-8.48
195.988	40.67
196.458	108.54
196.927	54.71
197.397	85.14
197.866	131.95
198.336	78.12
198.805	115.56
199.274	211.53
199.744	164.72
200.213	183.44
200.682	176.42
201.151	213.87
201.62	246.63
202.089	241.95
202.558	199.82
203.027	272.38
203.495	272.38
203.964	288.76
204.433	211.53
204.902	246.63
205.37	230.25
205.839	206.84
206.307	309.83
206.776	284.08
207.244	251.32
207.712	274.72
208.181	342.6
208.649	286.42
209.117	330.89
209.585	314.51
210.053	316.85
210.521	326.21
210.989	293.44
211.457	302.81
211.925	270.04
212.393	300.47
212.861	239.61
213.328	321.53
213.796	307.49
214.264	239.61
214.731	220.89
215.199	274.72
215.666	293.44
216.133	248.97
216.601	265.36
217.068	241.95
217.535	307.49
218.003	246.63
218.47	251.32
218.937	171.74
219.404	253.66
219.871	291.1
220.338	227.91
220.805	267.7
221.271	288.76
221.738	258.34
222.205	272.38
222.671	265.36
223.138	213.87
223.605	286.42
224.071	270.04
224.538	272.38
225.004	232.59
225.47	239.61
225.937	279.4
226.403	309.83
226.869	347.28
227.335	295.79
227.801	312.17
228.267	309.83
228.733	234.93
229.199	248.97
229.665	246.63
230.131	260.68
230.597	272.38
231.062	295.79
231.528	298.13
231.994	204.5
232.459	295.79
232.925	267.7
233.39	246.63
233.856	277.06
234.321	305.15
234.786	251.32
235.252	312.17
235.717	284.08
236.182	270.04
236.647	288.76
237.112	248.97
237.577	321.53
238.042	246.63
238.507	272.38
238.972	230.25
239.436	279.4
239.901	312.17
240.366	270.04
240.83	361.32
241.295	251.32
241.76	309.83
242.224	335.57
242.688	263.02
243.153	256
243.617	239.61
244.081	281.74
244.545	206.84
245.01	305.15
245.474	307.49
245.938	270.04
246.402	272.38
246.866	258.34
247.33	288.76
247.793	277.06
248.257	295.79
248.721	277.06
249.185	288.76
249.648	248.97
250.112	284.08
250.575	246.63
251.039	237.27
251.502	333.23
251.965	270.04
252.429	349.62
252.892	335.57
253.355	302.81
253.818	274.72
254.281	263.02
254.744	227.91
255.207	244.29
255.67	288.76
256.133	251.32
256.596	248.97
257.059	218.55
257.522	319.19
257.984	314.51
258.447	253.66
258.909	284.08
259.372	256
259.834	272.38
260.297	213.87
260.759	239.61
261.221	288.76
261.684	288.76
262.146	314.51
262.608	347.28
263.07	321.53
263.532	286.42
263.994	291.1
264.456	270.04
264.918	291.1
265.38	284.08
265.842	298.13
266.303	333.23
266.765	314.51
267.227	333.23
267.688	326.21
268.15	291.1
268.611	330.89
269.072	209.19
269.534	260.68
269.995	253.66
270.456	305.15
270.918	307.49
271.379	251.32
271.84	291.1
272.301	253.66
272.762	326.21
273.223	248.97
273.684	300.47
274.144	272.38
274.605	323.87
275.066	277.06
275.527	284.08
275.987	300.47
276.448	295.79
276.908	335.57
277.369	246.63
277.829	321.53
278.289	351.96
278.75	298.13
279.21	323.87
279.67	298.13
280.13	256
280.59	260.68
281.05	244.29
281.51	270.04
281.97	230.25
282.43	288.76
282.89	291.1
283.35	286.42
283.809	309.83
284.269	279.4
284.729	281.74
285.188	286.42
285.648	302.81
286.107	333.23
286.567	309.83
287.026	211.53
287.485	237.27
287.944	326.21
288.404	312.17
288.863	267.7
289.322	316.85
289.781	302.81
290.24	248.97
290.699	256
291.158	363.66
291.616	295.79
292.075	302.81
292.534	344.94
292.992	326.21
293.451	291.1
293.91	279.4
294.368	363.66
294.827	380.04
295.285	333.23
295.743	305.15
296.202	351.96
296.66	248.97
297.118	270.04
297.576	307.49
298.034	316.85
298.492	354.3
298.95	326.21
299.408	291.1
299.866	319.19
300.324	300.47
300.781	342.6
301.239	333.23
301.697	319.19
302.154	366
302.612	328.55
303.069	293.44
303.527	274.72
303.984	309.83
304.441	281.74
304.899	295.79
305.356	293.44
305.813	330.89
306.27	309.83
306.727	300.47
307.184	358.98
307.641	330.89
308.098	293.44
308.555	300.47
309.012	300.47
309.468	270.04
309.925	298.13
310.382	363.66
310.838	370.68
311.295	295.79
311.751	337.91
312.208	314.51
312.664	258.34
313.12	321.53
313.577	256
314.033	337.91
314.489	321.53
314.945	298.13
315.401	321.53
315.857	302.81
316.313	305.15
316.769	274.72
317.225	225.57
317.681	302.81
318.136	293.44
318.592	321.53
319.048	302.81
319.503	305.15
319.959	298.13
320.414	326.21
320.869	293.44
321.325	274.72
321.78	270.04
322.235	319.19
322.691	281.74
323.146	293.44
323.601	326.21
324.056	333.23
324.511	328.55
324.966	314.51
325.421	330.89
325.875	291.1
326.33	377.7
326.785	319.19
327.24	293.44
327.694	316.85
328.149	300.47
328.603	349.62
329.058	309.83
329.512	316.85
329.966	314.51
330.421	295.79
330.875	298.13
331.329	277.06
331.783	206.84
332.237	293.44
332.691	377.7
333.145	314.51
333.599	298.13
334.053	295.79
334.507	340.26
334.96	349.62
335.414	335.57
335.868	281.74
336.321	354.3
336.775	302.81
337.228	387.07
337.682	323.87
338.135	356.64
338.588	272.38
339.042	382.39
339.495	232.59
339.948	288.76
340.401	323.87
340.854	244.29
341.307	281.74
341.76	295.79
342.213	323.87
342.666	326.21
343.119	361.32
343.571	267.7
344.024	373.02
344.477	270.04
344.929	333.23
345.382	330.89
345.834	330.89
346.287	380.04
346.739	258.34
347.191	284.08
347.644	284.08
348.096	330.89
348.548	246.63
349	312.17
349.452	363.66
349.904	288.76
350.356	302.81
350.808	363.66
351.26	326.21
351.711	300.47
352.163	286.42
352.615	344.94
353.066	309.83
353.518	328.55
353.969	300.47
354.421	256
354.872	291.1
355.324	277.06
355.775	230.25
356.226	337.91
356.677	354.3
357.128	319.19
357.579	288.76
358.03	288.76
358.481	366
358.932	394.09
359.383	277.06
359.834	267.7
360.285	347.28
360.735	291.1
361.186	319.19
361.637	321.53
362.087	274.72
362.538	366
362.988	328.55
363.438	380.04
363.889	373.02
364.339	340.26
364.789	234.93
365.239	333.23
365.689	401.11
366.139	347.28
366.589	312.17
367.039	314.51
367.489	335.57
367.939	356.64
368.389	309.83
368.839	316.85
369.288	284.08
369.738	314.51
370.187	281.74
370.637	342.6
371.086	314.51
371.536	265.36
371.985	265.36
372.434	319.19
372.884	321.53
373.333	316.85
373.782	298.13
374.231	349.62
374.68	342.6
375.129	330.89
375.578	323.87
376.027	309.83
376.475	279.4
376.924	284.08
377.373	298.13
377.822	312.17
378.27	295.79
378.719	281.74
379.167	302.81
379.616	342.6
380.064	288.76
380.512	401.11
380.961	309.83
381.409	284.08
381.857	344.94
382.305	323.87
382.753	225.57
383.201	333.23
383.649	307.49
384.097	291.1
384.545	358.98
384.992	305.15
385.44	326.21
385.888	286.42
386.335	323.87
386.783	279.4
387.231	354.3
387.678	370.68
388.125	326.21
388.573	316.85
389.02	281.74
389.467	263.02
389.914	363.66
390.362	295.79
390.809	239.61
391.256	370.68
391.703	356.64
392.15	342.6
392.596	302.81
393.043	349.62
393.49	302.81
393.937	328.55
394.383	288.76
394.83	377.7
395.276	316.85
395.723	307.49
396.169	337.91
396.616	281.74
397.062	312.17
397.508	300.47
397.954	309.83
398.401	337.91
398.847	333.23
399.293	316.85
399.739	366
400.185	314.51
400.631	258.34
401.076	284.08
401.522	267.7
401.968	281.74
402.414	326.21
402.859	312.17
403.305	335.57
403.75	321.53
404.196	333.23
404.641	309.83
405.086	316.85
405.532	328.55
405.977	293.44
406.422	373.02
406.867	286.42
407.312	328.55
407.757	347.28
408.202	227.91
408.647	398.77
409.092	251.32
409.537	309.83
409.982	394.09
410.426	405.79
410.871	237.27
411.316	309.83
411.76	295.79
412.205	267.7
412.649	335.57
413.093	279.4
413.538	295.79
413.982	382.39
414.426	298.13
414.87	333.23
415.314	417.49
415.758	302.81
416.202	281.74
416.646	333.23
417.09	246.63
417.534	373.02
417.978	326.21
418.421	342.6
418.865	298.13
419.309	312.17
419.752	314.51
420.196	370.68
420.639	349.62
421.083	319.19
421.526	373.02
421.969	241.95
422.412	335.57
422.856	312.17
423.299	347.28
423.742	309.83
424.185	366
424.628	366
425.071	265.36
425.513	333.23
425.956	267.7
426.399	263.02
426.842	291.1
427.284	363.66
427.727	330.89
428.169	326.21
428.612	309.83
429.054	370.68
429.497	309.83
429.939	302.81
430.381	337.91
430.823	314.51
431.265	265.36
431.707	351.96
432.149	344.94
432.591	314.51
433.033	279.4
433.475	354.3
433.917	358.98
434.359	319.19
434.8	265.36
435.242	295.79
435.684	314.51
436.125	274.72
436.567	314.51
437.008	265.36
437.449	330.89
437.891	307.49
438.332	391.75
438.773	335.57
439.214	373.02
439.656	293.44
440.097	258.34
440.538	277.06
440.978	300.47
441.419	295.79
441.86	340.26
442.301	241.95
442.742	302.81
443.182	319.19
443.623	335.57
444.063	363.66
444.504	351.96
444.944	270.04
445.385	342.6
445.825	347.28
446.265	356.64
446.706	326.21
447.146	337.91
447.586	330.89
448.026	258.34
448.466	389.41
448.906	291.1
449.346	342.6
449.786	330.89
450.225	340.26
450.665	302.81
451.105	337.91
451.544	354.3
451.984	298.13
452.424	326.21
452.863	274.72
453.302	356.64
453.742	351.96
454.181	361.32
454.62	319.19
455.059	330.89
455.499	258.34
455.938	279.4
456.377	330.89
456.816	309.83
457.254	321.53
457.693	358.98
458.132	323.87
458.571	265.36
459.01	319.19
459.448	288.76
459.887	312.17
460.325	326.21
460.764	302.81
461.202	295.79
461.641	295.79
462.079	298.13
462.517	323.87
462.955	298.13
463.393	377.7
463.832	307.49
464.27	328.55
464.708	307.49
465.145	366
465.583	298.13
466.021	309.83
466.459	230.25
466.897	286.42
467.334	347.28
467.772	295.79
468.209	319.19
468.647	265.36
469.084	358.98
469.522	263.02
469.959	363.66
470.396	286.42
470.833	316.85
471.271	284.08
471.708	370.68
472.145	328.55
472.582	293.44
473.019	351.96
473.456	349.62
473.892	363.66
474.329	277.06
474.766	288.76
475.202	279.4
475.639	326.21
476.076	286.42
476.512	340.26
476.949	328.55
477.385	347.28
477.821	314.51
478.258	284.08
478.694	382.39
479.13	263.02
479.566	370.68
480.002	354.3
480.438	298.13
480.874	314.51
481.31	384.73
481.746	373.02
482.181	356.64
482.617	309.83
483.053	302.81
483.488	295.79
483.924	337.91
484.36	286.42
484.795	300.47
485.23	293.44
485.666	284.08
486.101	323.87
486.536	326.21
486.971	305.15
487.407	316.85
487.842	312.17
488.277	251.32
488.712	314.51
489.146	298.13
489.581	356.64
490.016	373.02
490.451	309.83
490.885	354.3
491.32	300.47
491.755	323.87
492.189	309.83
492.624	342.6
493.058	323.87
493.492	319.19
493.927	260.68
494.361	286.42
494.795	330.89
495.229	316.85
495.663	323.87
496.097	323.87
496.531	316.85
496.965	340.26
497.399	323.87
497.833	358.98
498.266	256
498.7	323.87
499.134	307.49
499.567	340.26
500.001	326.21
500.434	363.66
500.868	270.04
501.301	333.23
501.734	288.76
502.168	342.6
502.601	375.36
503.034	337.91
503.467	321.53
503.9	291.1
504.333	321.53
504.766	309.83
505.199	356.64
505.632	326.21
506.064	337.91
506.497	307.49
506.93	309.83
507.362	267.7
507.795	347.28
508.227	291.1
508.66	305.15
509.092	347.28
509.524	321.53
509.956	272.38
510.389	370.68
510.821	312.17
511.253	281.74
511.685	274.72
512.117	342.6
512.549	354.3
512.981	260.68
513.412	366
513.844	293.44
514.276	246.63
514.707	291.1
515.139	314.51
515.571	281.74
516.002	279.4
516.433	326.21
516.865	333.23
517.296	382.39
517.727	272.38
518.159	263.02
518.59	356.64
519.021	293.44
519.452	323.87
519.883	361.32
520.314	384.73
520.744	366
521.175	260.68
521.606	298.13
522.037	373.02
522.467	342.6
522.898	277.06
523.328	314.51
523.759	361.32
524.189	300.47
524.62	251.32
525.05	321.53
525.48	316.85
525.91	330.89
526.341	314.51
526.771	328.55
527.201	382.39
527.631	333.23
528.061	344.94
528.49	387.07
528.92	286.42
529.35	305.15
529.78	330.89
530.209	305.15
530.639	349.62
531.068	298.13
531.498	344.94
531.927	330.89
532.357	284.08
532.786	312.17
533.215	319.19
533.644	295.79
534.074	284.08
534.503	344.94
534.932	298.13
535.361	277.06
535.79	354.3
536.218	373.02
536.647	323.87
537.076	319.19
537.505	307.49
537.933	333.23
538.362	328.55
538.79	330.89
539.219	253.66
539.647	356.64
540.076	335.57
540.504	351.96
540.932	321.53
541.36	319.19
541.788	305.15
542.217	314.51
542.645	349.62
543.073	316.85
543.5	253.66
543.928	298.13
544.356	302.81
544.784	260.68
545.211	394.09
545.639	319.19
546.067	319.19
546.494	373.02
546.922	281.74
547.349	244.29
547.776	300.47
548.204	295.79
548.631	267.7
549.058	347.28
549.485	342.6
549.912	305.15
550.339	293.44
550.766	354.3
551.193	253.66
551.62	391.75
552.047	256
552.474	330.89
552.9	295.79
553.327	342.6
553.754	323.87
554.18	335.57
554.607	373.02
555.033	284.08
555.459	307.49
555.886	335.57
556.312	309.83
556.738	319.19
557.164	316.85
557.59	258.34
558.016	342.6
558.442	309.83
558.868	216.21
559.294	291.1
559.72	340.26
560.145	330.89
560.571	286.42
560.997	342.6
561.422	267.7
561.848	330.89
562.273	321.53
562.699	298.13
563.124	344.94
563.549	349.62
563.974	330.89
564.4	288.76
564.825	356.64
565.25	281.74
565.675	368.34
566.1	298.13
566.525	272.38
566.95	277.06
567.374	342.6
567.799	382.39
568.224	323.87
568.648	277.06
569.073	302.81
569.497	349.62
569.922	286.42
570.346	316.85
570.771	316.85
571.195	316.85
571.619	326.21
572.043	330.89
572.467	258.34
572.891	291.1
573.315	295.79
573.739	356.64
574.163	349.62
574.587	293.44
575.011	305.15
575.435	298.13
575.858	337.91
576.282	298.13
576.705	349.62
577.129	260.68
577.552	319.19
577.976	347.28
578.399	333.23
578.822	307.49
579.245	366
579.669	305.15
580.092	267.7
580.515	330.89
580.938	319.19
581.361	239.61
581.784	293.44
582.206	298.13
582.629	344.94
583.052	286.42
583.474	340.26
583.897	298.13
584.32	314.51
584.742	286.42
585.165	340.26
585.587	387.07
586.009	351.96
586.431	316.85
586.854	279.4
587.276	284.08
587.698	293.44
588.12	288.76
588.542	263.02
588.964	347.28
589.386	312.17
589.807	321.53
590.229	286.42
590.651	337.91
591.073	291.1
591.494	279.4
591.916	302.81
592.337	326.21
592.759	323.87
593.18	263.02
593.601	309.83
594.022	326.21
594.444	286.42
594.865	307.49
595.286	347.28
595.707	305.15
596.128	333.23
596.549	363.66
596.97	305.15
597.39	319.19
597.811	321.53
598.232	265.36
598.652	314.51
599.073	415.15
599.494	314.51
599.914	330.89
600.334	349.62
600.755	256
601.175	274.72
601.595	344.94
602.015	302.81
602.436	302.81
602.856	447.92
603.276	349.62
603.696	333.23
604.115	279.4
604.535	382.39
604.955	366
605.375	349.62
605.794	288.76
606.214	309.83
606.634	323.87
607.053	314.51
607.473	316.85
607.892	370.68
608.311	328.55
608.731	410.47
609.15	307.49
609.569	281.74
609.988	326.21
610.407	328.55
610.826	277.06
611.245	356.64
611.664	291.1
612.083	281.74
612.501	272.38
612.92	298.13
613.339	281.74
613.757	314.51
614.176	333.23
614.594	305.15
615.013	337.91
615.431	309.83
615.85	279.4
616.268	312.17
616.686	279.4
617.104	281.74
617.522	286.42
617.94	319.19
618.358	246.63
618.776	319.19
619.194	375.36
619.612	251.32
620.03	305.15
620.447	363.66
620.865	319.19
621.282	370.68
621.7	328.55
622.117	335.57
622.535	272.38
622.952	333.23
623.369	349.62
623.787	305.15
624.204	258.34
624.621	248.97
625.038	302.81
625.455	368.34
625.872	326.21
626.289	270.04
626.706	316.85
627.123	335.57
627.539	312.17
627.956	295.79
628.373	309.83
628.789	314.51
629.206	323.87
629.622	316.85
630.038	307.49
630.455	356.64
630.871	326.21
631.287	298.13
631.703	305.15
632.12	333.23
632.536	323.87
632.952	408.13
633.368	319.19
633.783	373.02
634.199	354.3
634.615	307.49
635.031	340.26
635.446	389.41
635.862	286.42
636.277	384.73
636.693	211.53
637.108	321.53
637.524	373.02
637.939	298.13
638.354	309.83
638.77	288.76
639.185	330.89
639.6	351.96
640.015	300.47
640.43	309.83
640.845	389.41
641.259	312.17
641.674	340.26
642.089	347.28
642.504	295.79
642.918	265.36
643.333	387.07
643.747	344.94
644.162	398.77
644.576	293.44
644.991	405.79
645.405	358.98
645.819	337.91
646.233	316.85
646.647	298.13
647.061	293.44
647.475	284.08
647.889	300.47
648.303	323.87
648.717	323.87
649.131	316.85
649.545	340.26
649.958	319.19
650.372	293.44
650.785	330.89
651.199	295.79
651.612	316.85
652.026	356.64
652.439	321.53
652.852	312.17
653.266	288.76
653.679	356.64
654.092	380.04
654.505	373.02
654.918	302.81
655.331	258.34
655.744	333.23
656.156	340.26
656.569	351.96
656.982	288.76
657.394	316.85
657.807	326.21
658.22	382.39
658.632	391.75
659.044	295.79
659.457	286.42
659.869	328.55
660.281	361.32
660.693	230.25
661.106	321.53
661.518	344.94
661.93	389.41
662.342	298.13
662.754	340.26
663.165	307.49
663.577	263.02
663.989	330.89
664.401	319.19
664.812	312.17
665.224	272.38
665.635	356.64
666.047	368.34
666.458	361.32
666.869	340.26
667.281	328.55
667.692	272.38
668.103	302.81
668.514	293.44
668.925	316.85
669.336	328.55
669.747	272.38
670.158	368.34
670.569	302.81
670.979	356.64
671.39	323.87
671.801	220.89
672.211	256
672.622	326.21
673.032	272.38
673.443	335.57
673.853	321.53
674.263	358.98
674.674	375.36
675.084	281.74
675.494	277.06
675.904	284.08
676.314	377.7
676.724	333.23
677.134	309.83
677.544	265.36
677.953	363.66
678.363	330.89
678.773	349.62
679.182	370.68
679.592	358.98
680.001	356.64
680.411	279.4
680.82	363.66
681.23	340.26
681.639	358.98
682.048	333.23
682.457	370.68
682.866	323.87
683.275	377.7
683.684	288.76
684.093	274.72
684.502	373.02
684.911	284.08
685.32	274.72
685.728	337.91
686.137	321.53
686.546	253.66
686.954	302.81
687.363	387.07
687.771	366
688.179	293.44
688.588	234.93
688.996	321.53
689.404	377.7
689.812	314.51
690.22	302.81
690.628	305.15
691.036	256
691.444	298.13
691.852	354.3
692.26	316.85
692.667	368.34
693.075	270.04
693.483	380.04
693.89	277.06
694.298	366
694.705	391.75
695.112	347.28
695.52	274.72
695.927	349.62
696.334	403.45
696.741	328.55
697.148	337.91
697.555	302.81
697.962	302.81
698.369	356.64
698.776	361.32
699.183	272.38
699.59	288.76
699.996	298.13
700.403	398.77
700.81	330.89
701.216	277.06
701.623	295.79
702.029	281.74
702.435	368.34
702.842	335.57
703.248	373.02
703.654	302.81
704.06	323.87
704.466	358.98
704.872	398.77
705.278	309.83
705.684	284.08
706.09	330.89
706.496	330.89
706.901	349.62
707.307	337.91
707.712	298.13
708.118	368.34
708.523	373.02
708.929	330.89
709.334	323.87
709.74	333.23
710.145	274.72
710.55	309.83
710.955	293.44
711.36	316.85
711.765	284.08
712.17	251.32
712.575	328.55
712.98	845.81
713.385	295.79
713.789	307.49
714.194	277.06
714.599	300.47
715.003	288.76
715.408	330.89
715.812	347.28
716.217	284.08
716.621	333.23
717.025	328.55
717.429	260.68
717.833	314.51
718.238	335.57
718.642	321.53
719.046	281.74
719.449	342.6
719.853	307.49
720.257	295.79
720.661	330.89
721.065	286.42
721.468	354.3
721.872	281.74
722.275	312.17
722.679	260.68
723.082	344.94
723.485	314.51
723.889	366
724.292	344.94
724.695	300.47
725.098	370.68
725.501	354.3
725.904	281.74
726.307	295.79
726.71	347.28
727.113	251.32
727.516	314.51
727.918	323.87
728.321	293.44
728.724	314.51
729.126	333.23
729.529	335.57
729.931	340.26
730.333	246.63
730.736	246.63
731.138	326.21
731.54	337.91
731.942	363.66
732.344	260.68
732.746	298.13
733.148	291.1
733.55	295.79
733.952	361.32
734.354	253.66
734.756	356.64
735.157	347.28
735.559	298.13
735.96	354.3
736.362	384.73
736.763	314.51
737.165	323.87
737.566	319.19
737.967	300.47
738.368	286.42
738.77	298.13
739.171	298.13
739.572	342.6
739.973	323.87
740.374	302.81
740.774	333.23
741.175	347.28
741.576	260.68
741.977	307.49
742.377	358.98
742.778	302.81
743.178	300.47
743.579	333.23
743.979	351.96
744.379	363.66
744.78	326.21
745.18	281.74
745.58	312.17
745.98	358.98
746.38	291.1
746.78	333.23
747.18	356.64
747.58	326.21
747.98	260.68
748.38	319.19
748.779	293.44
749.179	286.42
749.578	253.66
749.978	323.87
750.377	398.77
750.777	321.53
751.176	265.36
751.575	380.04
751.975	241.95
752.374	326.21
752.773	316.85
753.172	241.95
753.571	387.07
753.97	361.32
754.369	277.06
754.768	295.79
755.166	356.64
755.565	288.76
755.964	330.89
756.362	335.57
756.761	330.89
757.159	394.09
757.558	230.25
757.956	340.26
758.354	366
758.753	316.85
759.151	337.91
759.549	274.72
759.947	382.39
760.345	328.55
760.743	286.42
761.141	333.23
761.539	284.08
761.936	347.28
762.334	295.79
762.732	330.89
763.129	321.53
763.527	298.13
763.924	258.34
764.322	340.26
764.719	307.49
765.117	279.4
765.514	277.06
765.911	349.62
766.308	330.89
766.705	272.38
767.102	319.19
767.499	256
767.896	265.36
768.293	312.17
768.69	309.83
769.086	328.55
769.483	316.85
769.88	340.26
770.276	349.62
770.673	323.87
771.069	337.91
771.466	337.91
771.862	293.44
772.258	358.98
772.654	307.49
773.05	300.47
773.447	347.28
773.843	256
774.239	223.23
774.634	323.87
775.03	258.34
775.426	370.68
775.822	330.89
776.218	319.19
776.613	349.62
777.009	368.34
777.404	349.62
777.8	340.26
778.195	305.15
778.59	368.34
778.986	349.62
779.381	349.62
779.776	302.81
780.171	340.26
780.566	335.57
780.961	302.81
781.356	326.21
781.751	321.53
782.146	312.17
782.54	239.61
782.935	316.85
783.33	333.23
783.724	316.85
784.119	284.08
784.513	279.4
784.908	314.51
785.302	326.21
785.696	328.55
786.09	340.26
786.485	356.64
786.879	363.66
787.273	319.19
787.667	309.83
788.061	344.94
788.454	300.47
788.848	356.64
789.242	286.42
789.636	337.91
790.029	370.68
790.423	323.87
790.816	291.1
791.21	340.26
791.603	351.96
791.997	335.57
792.39	340.26
792.783	380.04
793.176	256
793.569	256
793.962	286.42
794.355	307.49
794.748	344.94
795.141	298.13
795.534	373.02
795.927	321.53
796.319	300.47
796.712	253.66
797.105	366
797.497	291.1
797.89	302.81
798.282	281.74
798.674	370.68
799.067	337.91
799.459	291.1
799.851	354.3
800.243	347.28
800.635	354.3
801.027	375.36
801.419	319.19
801.811	333.23
802.203	328.55
802.594	356.64
802.986	295.79
803.378	305.15
803.769	330.89
804.161	291.1
804.552	305.15
804.944	335.57
805.335	373.02
805.726	349.62
806.118	328.55
806.509	340.26
806.9	319.19
807.291	389.41
807.682	293.44
808.073	319.19
808.464	274.72
808.855	309.83
809.245	335.57
809.636	270.04
810.027	347.28
810.417	349.62
810.808	356.64
811.198	328.55
811.589	328.55
811.979	314.51
812.369	293.44
812.759	305.15
813.15	319.19
813.54	286.42
813.93	307.49
814.32	335.57
814.71	335.57
815.1	295.79
815.489	340.26
815.879	295.79
816.269	300.47
816.658	309.83
817.048	223.23
817.438	293.44
817.827	316.85
818.216	295.79
818.606	281.74
818.995	323.87
819.384	288.76
819.773	337.91
820.163	274.72
820.552	267.7
820.941	377.7
821.33	370.68
821.718	323.87
822.107	326.21
822.496	256
822.885	373.02
823.273	321.53
823.662	340.26
824.05	314.51
824.439	302.81
824.827	295.79
825.216	265.36
825.604	302.81
825.992	302.81
826.38	307.49
826.768	293.44
827.156	274.72
827.544	302.81
827.932	293.44
828.32	272.38
828.708	363.66
829.096	358.98
829.483	358.98
829.871	382.39
830.259	375.36
830.646	323.87
831.034	344.94
831.421	274.72
831.808	314.51
832.196	319.19
832.583	274.72
832.97	328.55
833.357	326.21
833.744	298.13
834.131	328.55
834.518	298.13
834.905	267.7
835.292	328.55
835.678	281.74
836.065	295.79
836.452	263.02
836.838	284.08
837.225	333.23
837.611	328.55
837.998	284.08
838.384	347.28
838.77	302.81
839.157	354.3
839.543	366
839.929	330.89
840.315	356.64
840.701	307.49
841.087	319.19
841.473	305.15
841.858	354.3
842.244	370.68
842.63	309.83
843.015	328.55
843.401	358.98
843.787	309.83
844.172	279.4
844.557	291.1
844.943	300.47
845.328	330.89
845.713	263.02
846.098	300.47
846.483	281.74
846.868	323.87
847.253	368.34
847.638	267.7
848.023	263.02
848.408	300.47
848.793	316.85
849.177	316.85
849.562	265.36
849.947	333.23
850.331	375.36
850.715	295.79
851.1	333.23
851.484	307.49
851.868	326.21
852.253	300.47
852.637	326.21
853.021	321.53
853.405	309.83
853.789	314.51
854.173	300.47
854.557	281.74
854.94	340.26
855.324	248.97
855.708	312.17
856.091	295.79
856.475	370.68
856.858	293.44
857.242	321.53
857.625	251.32
858.009	358.98
858.392	302.81
858.775	298.13
859.158	260.68
859.541	281.74
859.924	316.85
860.307	284.08
860.69	267.7
861.073	309.83
861.456	333.23
861.838	300.47
862.221	321.53
862.604	340.26
862.986	328.55
863.369	344.94
863.751	323.87
864.133	368.34
864.516	307.49
864.898	253.66
865.28	366
865.662	326.21
866.044	312.17
866.426	272.38
866.808	356.64
867.19	347.28
867.572	333.23
867.954	368.34
868.336	291.1
868.717	305.15
869.099	333.23
869.48	288.76
869.862	307.49
870.243	286.42
870.625	312.17
871.006	363.66
871.387	300.47
871.768	408.13
872.149	316.85
872.53	293.44
872.911	384.73
873.292	351.96
873.673	302.81
874.054	337.91
874.435	302.81
874.815	366
875.196	354.3
875.577	349.62
875.957	342.6
876.338	302.81
876.718	337.91
877.098	328.55
877.479	307.49
877.859	316.85
878.239	265.36
878.619	291.1
878.999	248.97
879.379	375.36
879.759	351.96
880.139	363.66
880.519	328.55
880.898	349.62
881.278	333.23
881.658	349.62
882.037	225.57
882.417	291.1
882.796	316.85
883.176	321.53
883.555	270.04
883.934	244.29
884.313	361.32
884.693	323.87
885.072	321.53
885.451	286.42
885.83	314.51
886.209	288.76
886.587	293.44
886.966	288.76
887.345	330.89
887.724	302.81
888.102	314.51
888.481	302.81
888.859	272.38
889.238	298.13
889.616	265.36
889.994	246.63
890.373	274.72
890.751	277.06
891.129	295.79
891.507	330.89
891.885	288.76
892.263	260.68
892.641	316.85
893.019	293.44
893.396	358.98
893.774	384.73
894.152	366
894.529	323.87
894.907	335.57
895.284	321.53
895.662	351.96
896.039	300.47
896.416	274.72
896.794	347.28
897.171	321.53
897.548	377.7
897.925	356.64
898.302	349.62
898.679	323.87
899.056	326.21
899.433	279.4
899.809	328.55
900.186	387.07
900.563	358.98
900.939	323.87
901.316	286.42
901.692	361.32
902.069	316.85
902.445	330.89
902.821	288.76
903.197	354.3
903.574	274.72
903.95	272.38
904.326	279.4
904.702	328.55
905.078	342.6
905.454	302.81
905.829	309.83
906.205	347.28
906.581	281.74
906.956	241.95
907.332	326.21
907.707	323.87
908.083	323.87
908.458	295.79
908.833	333.23
909.209	277.06
909.584	316.85
909.959	260.68
910.334	293.44
910.709	288.76
911.084	293.44
911.459	375.36
911.834	366
912.209	307.49
912.583	319.19
912.958	312.17
913.333	295.79
913.707	295.79
914.082	272.38
914.456	333.23
914.83	284.08
915.205	344.94
915.579	335.57
915.953	323.87
916.327	340.26
916.701	312.17
917.075	281.74
917.449	263.02
917.823	302.81
918.197	321.53
918.571	260.68
918.944	253.66
919.318	333.23
919.692	284.08
920.065	373.02
920.438	342.6
920.812	328.55
921.185	312.17
921.558	293.44
921.932	333.23
922.305	396.43
922.678	309.83
923.051	298.13
923.424	382.39
923.797	256
924.17	316.85
924.542	351.96
924.915	305.15
925.288	305.15
925.661	349.62
926.033	291.1
926.406	293.44
926.778	279.4
927.15	358.98
927.523	288.76
927.895	305.15
928.267	316.85
928.639	281.74
929.011	321.53
929.383	333.23
929.755	241.95
930.127	295.79
930.499	356.64
930.871	293.44
931.242	256
931.614	370.68
931.986	312.17
932.357	366
932.729	349.62
933.1	307.49
933.471	293.44
933.843	307.49
934.214	351.96
934.585	260.68
934.956	333.23
935.327	349.62
935.698	333.23
936.069	330.89
936.44	351.96
936.811	260.68
937.182	288.76
937.552	284.08
937.923	335.57
938.293	307.49
938.664	286.42
939.034	361.32
939.405	288.76
939.775	351.96
940.145	272.38
940.516	256
940.886	316.85
941.256	342.6
941.626	340.26
941.996	314.51
942.366	293.44
942.735	314.51
943.105	284.08
943.475	326.21
943.845	358.98
944.214	326.21
944.584	326.21
944.953	321.53
945.323	380.04
945.692	270.04
946.061	263.02
946.43	337.91
946.8	298.13
947.169	246.63
947.538	309.83
947.907	366
948.276	286.42
948.645	333.23
949.013	330.89
949.382	370.68
949.751	253.66
950.119	302.81
950.488	251.32
950.857	354.3
951.225	326.21
951.593	323.87
951.962	344.94
952.33	333.23
952.698	300.47
953.066	319.19
953.434	284.08
953.802	263.02
954.17	321.53
954.538	342.6
954.906	337.91
955.274	312.17
955.642	263.02
956.009	288.76
956.377	270.04
956.744	323.87
957.112	265.36
957.479	337.91
957.847	295.79
958.214	263.02
958.581	293.44
958.948	335.57
959.315	267.7
959.683	321.53
960.05	272.38
960.416	321.53
960.783	323.87
961.15	326.21
961.517	316.85
961.884	356.64
962.25	302.81
962.617	279.4
962.983	272.38
963.35	291.1
963.716	267.7
964.082	316.85
964.449	333.23
964.815	323.87
965.181	333.23
965.547	344.94
965.913	319.19
966.279	330.89
966.645	358.98
967.011	340.26
967.377	314.51
967.742	384.73
968.108	279.4
968.474	288.76
968.839	316.85
969.205	307.49
969.57	314.51
969.935	351.96
970.301	370.68
970.666	337.91
971.031	253.66
971.396	330.89
971.761	330.89
972.126	270.04
972.491	333.23
972.856	319.19
973.221	340.26
973.586	265.36
973.95	314.51
974.315	354.3
974.679	295.79
975.044	340.26
975.408	270.04
975.773	321.53
976.137	305.15
976.501	293.44
976.866	316.85
977.23	281.74
977.594	368.34
977.958	330.89
978.322	312.17
978.686	333.23
979.049	342.6
979.413	270.04
979.777	330.89
980.141	260.68
980.504	335.57
980.868	312.17
981.231	286.42
981.595	354.3
981.958	351.96
982.321	370.68
982.684	335.57
983.048	279.4
983.411	291.1
983.774	326.21
984.137	307.49
984.5	305.15
984.862	314.51
985.225	295.79
985.588	328.55
985.951	333.23
986.313	321.53
986.676	335.57
987.038	363.66
987.401	323.87
987.763	316.85
988.125	265.36
988.488	347.28
988.85	384.73
989.212	274.72
989.574	328.55
989.936	316.85
990.298	300.47
990.66	263.02
991.022	302.81
991.383	323.87
991.745	300.47
992.107	291.1
992.468	286.42
992.83	246.63
993.191	302.81
993.553	286.42
993.914	347.28
994.275	298.13
994.637	307.49
994.998	293.44
995.359	316.85
995.72	347.28
996.081	351.96
996.442	333.23
996.803	279.4
997.163	272.38
997.524	337.91
997.885	335.57
998.245	284.08
998.606	309.83
998.966	295.79
999.327	286.42
999.687	300.47
1000.047	302.81
1000.408	300.47
1000.768	293.44
1001.128	284.08
1001.488	225.57
1001.848	321.53
1002.208	295.79
1002.568	265.36
1002.927	349.62
1003.287	328.55
1003.647	316.85
1004.007	307.49
1004.366	405.79
1004.726	279.4
1005.085	248.97
1005.444	258.34
1005.804	309.83
1006.163	321.53
1006.522	309.83
1006.881	387.07
1007.24	326.21
1007.599	291.1
1007.958	316.85
1008.317	248.97
1008.676	330.89
1009.035	347.28
1009.393	319.19
1009.752	337.91
1010.111	335.57
1010.469	321.53
1010.828	356.64
1011.186	305.15
1011.544	277.06
1011.903	333.23
1012.261	321.53
1012.619	291.1
1012.977	237.27
1013.335	307.49
1013.693	260.68
1014.051	335.57
1014.409	314.51
1014.767	284.08
1015.124	277.06
1015.482	309.83
1015.84	286.42
1016.197	302.81
1016.555	349.62
1016.912	335.57
1017.269	361.32
1017.627	330.89
1017.984	288.76
1018.341	312.17
1018.698	384.73
1019.055	256
1019.412	241.95
1019.769	323.87
1020.126	326.21
1020.483	305.15
1020.84	251.32
1021.196	342.6
1021.553	344.94
1021.909	323.87
1022.266	284.08
1022.622	277.06
1022.979	284.08
1023.335	380.04
1023.691	363.66
1024.047	354.3
1024.404	330.89
1024.76	312.17
1025.116	326.21
1025.472	328.55
1025.827	291.1
1026.183	326.21
1026.539	330.89
1026.895	277.06
1027.25	295.79
1027.606	286.42
1027.961	398.77
1028.317	330.89
1028.672	293.44
1029.028	302.81
1029.383	330.89
1029.738	330.89
1030.093	270.04
1030.448	293.44
1030.803	344.94
1031.158	316.85
1031.513	293.44
1031.868	295.79
1032.223	279.4
1032.577	370.68
1032.932	347.28
1033.287	358.98
1033.641	265.36
1033.996	328.55
1034.35	368.34
1034.704	277.06
1035.059	284.08
1035.413	270.04
1035.767	270.04
1036.121	270.04
