Data from Al_FLMS009871__1039__16-23-59-815.txt Node

Date: Fri Mar 08 16:23:59 CST 2024
User: pe5414po
Spectrometer: FLMS00987
Trigger mode: 0
Integration Time (sec): 1.000000E-1
Scans to average: 1
Electric dark correction enabled: true
Nonlinearity correction enabled: false
Boxcar width: 0
XAxis mode: Wavelengths
Number of Pixels in Spectrum: 2048
>>>>>Begin Spectral Data<<<<<
188.938	-62.61
189.409	-62.61
189.879	-62.61
190.349	-93.04
190.819	-78.99
191.29	-149.21
191.76	-81.33
192.23	-130.48
192.7	-62.61
193.17	-111.76
193.64	-20.48
194.109	-8.78
194.579	21.65
195.049	0.59
195.519	12.29
195.988	87.18
196.458	68.46
196.927	84.84
197.397	77.82
197.866	117.61
198.336	94.21
198.805	145.7
199.274	213.57
199.744	215.91
200.213	239.32
200.682	213.57
201.151	244
201.62	269.75
202.089	279.11
202.558	234.64
203.027	148.04
203.495	241.66
203.964	265.07
204.433	260.38
204.902	260.38
205.37	302.51
205.839	316.56
206.307	248.68
206.776	297.83
207.244	316.56
207.712	304.85
208.181	274.43
208.649	304.85
209.117	368.05
209.585	335.28
210.053	248.68
210.521	295.49
210.989	351.67
211.457	267.41
211.925	269.75
212.393	286.13
212.861	286.13
213.328	220.6
213.796	239.32
214.264	288.47
214.731	295.49
215.199	304.85
215.666	239.32
216.133	192.51
216.601	288.47
217.068	244
217.535	267.41
218.003	295.49
218.47	253.36
218.937	316.56
219.404	218.25
219.871	244
220.338	286.13
220.805	274.43
221.271	222.94
221.738	248.68
222.205	260.38
222.671	304.85
223.138	229.96
223.605	279.11
224.071	276.77
224.538	260.38
225.004	248.68
225.47	220.6
225.937	269.75
226.403	276.77
226.869	213.57
227.335	253.36
227.801	323.58
228.267	269.75
228.733	295.49
229.199	297.83
229.665	255.7
230.131	211.23
230.597	241.66
231.062	276.77
231.528	311.88
231.994	314.22
232.459	300.17
232.925	279.11
233.39	239.32
233.856	276.77
234.321	314.22
234.786	232.3
235.252	260.38
235.717	314.22
236.182	295.49
236.647	258.04
237.112	269.75
237.577	321.24
238.042	276.77
238.507	276.77
238.972	300.17
239.436	297.83
239.901	300.17
240.366	258.04
240.83	220.6
241.295	208.89
241.76	265.07
242.224	251.02
242.688	290.81
243.153	281.45
243.617	276.77
244.081	244
244.545	288.47
245.01	354.01
245.474	354.01
245.938	370.39
246.402	241.66
246.866	307.2
247.33	288.47
247.793	293.15
248.257	229.96
248.721	269.75
249.185	344.64
249.648	241.66
250.112	337.62
250.575	318.9
251.039	251.02
251.502	316.56
251.965	283.79
252.429	297.83
252.892	391.45
253.355	335.28
253.818	260.38
254.281	304.85
254.744	311.88
255.207	288.47
255.67	283.79
256.133	241.66
256.596	211.23
257.059	286.13
257.522	297.83
257.984	253.36
258.447	279.11
258.909	379.75
259.372	215.91
259.834	232.3
260.297	208.89
260.759	311.88
261.221	258.04
261.684	321.24
262.146	269.75
262.608	258.04
263.07	323.58
263.532	281.45
263.994	239.32
264.456	307.2
264.918	253.36
265.38	304.85
265.842	311.88
266.303	300.17
266.765	316.56
267.227	265.07
267.688	332.94
268.15	318.9
268.611	307.2
269.072	325.92
269.534	314.22
269.995	295.49
270.456	227.62
270.918	251.02
271.379	251.02
271.84	286.13
272.301	300.17
272.762	323.58
273.223	349.32
273.684	396.14
274.144	276.77
274.605	307.2
275.066	323.58
275.527	276.77
275.987	346.98
276.448	323.58
276.908	288.47
277.369	229.96
277.829	281.45
278.289	311.88
278.75	337.62
279.21	307.2
279.67	290.81
280.13	288.47
280.59	318.9
281.05	260.38
281.51	297.83
281.97	274.43
282.43	283.79
282.89	251.02
283.35	302.51
283.809	297.83
284.269	314.22
284.729	262.73
285.188	283.79
285.648	332.94
286.107	339.96
286.567	351.67
287.026	335.28
287.485	346.98
287.944	384.43
288.404	346.98
288.863	328.26
289.322	330.6
289.781	335.28
290.24	265.07
290.699	358.69
291.158	339.96
291.616	323.58
292.075	288.47
292.534	253.36
292.992	286.13
293.451	342.3
293.91	328.26
294.368	279.11
294.827	288.47
295.285	272.09
295.743	342.3
296.202	213.57
296.66	330.6
297.118	260.38
297.576	325.92
298.034	300.17
298.492	321.24
298.95	295.49
299.408	269.75
299.866	302.51
300.324	363.37
300.781	314.22
301.239	281.45
301.697	339.96
302.154	272.09
302.612	260.38
303.069	304.85
303.527	316.56
303.984	286.13
304.441	325.92
304.899	288.47
305.356	267.41
305.813	344.64
306.27	332.94
306.727	251.02
307.184	344.64
307.641	314.22
308.098	363.37
308.555	403.16
309.012	354.01
309.468	330.6
309.925	248.68
310.382	335.28
310.838	335.28
311.295	297.83
311.751	309.54
312.208	309.54
312.664	274.43
313.12	330.6
313.577	311.88
314.033	316.56
314.489	382.09
314.945	295.49
315.401	267.41
315.857	314.22
316.313	260.38
316.769	297.83
317.225	295.49
317.681	323.58
318.136	361.03
318.592	311.88
319.048	269.75
319.503	346.98
319.959	281.45
320.414	314.22
320.869	290.81
321.325	354.01
321.78	368.05
322.235	311.88
322.691	346.98
323.146	344.64
323.601	288.47
324.056	309.54
324.511	281.45
324.966	293.15
325.421	307.2
325.875	316.56
326.33	316.56
326.785	279.11
327.24	361.03
327.694	316.56
328.149	269.75
328.603	302.51
329.058	325.92
329.512	346.98
329.966	288.47
330.421	241.66
330.875	229.96
331.329	236.98
331.783	330.6
332.237	335.28
332.691	293.15
333.145	318.9
333.599	309.54
334.053	323.58
334.507	330.6
334.96	290.81
335.414	274.43
335.868	274.43
336.321	253.36
336.775	295.49
337.228	297.83
337.682	332.94
338.135	295.49
338.588	274.43
339.042	379.75
339.495	293.15
339.948	356.35
340.401	304.85
340.854	309.54
341.307	244
341.76	356.35
342.213	382.09
342.666	379.75
343.119	279.11
343.571	368.05
344.024	330.6
344.477	307.2
344.929	304.85
345.382	311.88
345.834	314.22
346.287	286.13
346.739	311.88
347.191	300.17
347.644	272.09
348.096	379.75
348.548	337.62
349	295.49
349.452	330.6
349.904	325.92
350.356	332.94
350.808	335.28
351.26	361.03
351.711	356.35
352.163	311.88
352.615	300.17
353.066	311.88
353.518	300.17
353.969	311.88
354.421	342.3
354.872	330.6
355.324	351.67
355.775	438.27
356.226	323.58
356.677	351.67
357.128	365.71
357.579	328.26
358.03	358.69
358.481	342.3
358.932	318.9
359.383	293.15
359.834	293.15
360.285	342.3
360.735	253.36
361.186	335.28
361.637	309.54
362.087	346.98
362.538	215.91
362.988	335.28
363.438	288.47
363.889	391.45
364.339	368.05
364.789	269.75
365.239	302.51
365.689	279.11
366.139	368.05
366.589	361.03
367.039	311.88
367.489	300.17
367.939	293.15
368.389	346.98
368.839	304.85
369.288	379.75
369.738	368.05
370.187	356.35
370.637	297.83
371.086	206.55
371.536	328.26
371.985	323.58
372.434	330.6
372.884	265.07
373.333	274.43
373.782	339.96
374.231	337.62
374.68	389.11
375.129	337.62
375.578	262.73
376.027	309.54
376.475	358.69
376.924	337.62
377.373	279.11
377.822	283.79
378.27	260.38
378.719	290.81
379.167	358.69
379.616	354.01
380.064	290.81
380.512	344.64
380.961	222.94
381.409	342.3
381.857	344.64
382.305	335.28
382.753	316.56
383.201	311.88
383.649	332.94
384.097	251.02
384.545	311.88
384.992	391.45
385.44	379.75
385.888	281.45
386.335	297.83
386.783	304.85
387.231	293.15
387.678	314.22
388.125	377.41
388.573	265.07
389.02	323.58
389.467	295.49
389.914	286.13
390.362	281.45
390.809	276.77
391.256	346.98
391.703	342.3
392.15	323.58
392.596	354.01
393.043	375.07
393.49	335.28
393.937	314.22
394.383	342.3
394.83	372.73
395.276	269.75
395.723	307.2
396.169	267.41
396.616	370.39
397.062	316.56
397.508	297.83
397.954	330.6
398.401	323.58
398.847	342.3
399.293	368.05
399.739	302.51
400.185	356.35
400.631	342.3
401.076	290.81
401.522	365.71
401.968	323.58
402.414	358.69
402.859	309.54
403.305	335.28
403.75	325.92
404.196	337.62
404.641	276.77
405.086	297.83
405.532	344.64
405.977	335.28
406.422	307.2
406.867	267.41
407.312	335.28
407.757	330.6
408.202	251.02
408.647	354.01
409.092	276.77
409.537	302.51
409.982	346.98
410.426	293.15
410.871	316.56
411.316	323.58
411.76	286.13
412.205	382.09
412.649	370.39
413.093	269.75
413.538	318.9
413.982	314.22
414.426	325.92
414.87	323.58
415.314	255.7
415.758	316.56
416.202	389.11
416.646	335.28
417.09	351.67
417.534	356.35
417.978	325.92
418.421	304.85
418.865	321.24
419.309	318.9
419.752	330.6
420.196	321.24
420.639	346.98
421.083	337.62
421.526	321.24
421.969	323.58
422.412	314.22
422.856	325.92
423.299	349.32
423.742	295.49
424.185	342.3
424.628	300.17
425.071	339.96
425.513	314.22
425.956	342.3
426.399	365.71
426.842	335.28
427.284	365.71
427.727	239.32
428.169	332.94
428.612	372.73
429.054	293.15
429.497	330.6
429.939	379.75
430.381	389.11
430.823	307.2
431.265	342.3
431.707	309.54
432.149	328.26
432.591	384.43
433.033	358.69
433.475	323.58
433.917	297.83
434.359	297.83
434.8	227.62
435.242	286.13
435.684	393.8
436.125	316.56
436.567	288.47
437.008	309.54
437.449	309.54
437.891	297.83
438.332	265.07
438.773	321.24
439.214	311.88
439.656	297.83
440.097	358.69
440.538	300.17
440.978	295.49
441.419	328.26
441.86	321.24
442.301	318.9
442.742	354.01
443.182	309.54
443.623	293.15
444.063	300.17
444.504	339.96
444.944	335.28
445.385	321.24
445.825	290.81
446.265	335.28
446.706	332.94
447.146	293.15
447.586	295.49
448.026	372.73
448.466	316.56
448.906	356.35
449.346	346.98
449.786	332.94
450.225	335.28
450.665	269.75
451.105	307.2
451.544	325.92
451.984	337.62
452.424	311.88
452.863	363.37
453.302	316.56
453.742	302.51
454.181	344.64
454.62	365.71
455.059	222.94
455.499	297.83
455.938	276.77
456.377	330.6
456.816	316.56
457.254	363.37
457.693	288.47
458.132	337.62
458.571	300.17
459.01	283.79
459.448	279.11
459.887	302.51
460.325	283.79
460.764	335.28
461.202	351.67
461.641	302.51
462.079	309.54
462.517	342.3
462.955	358.69
463.393	304.85
463.832	332.94
464.27	349.32
464.708	300.17
465.145	370.39
465.583	346.98
466.021	300.17
466.459	267.41
466.897	241.66
467.334	337.62
467.772	339.96
468.209	321.24
468.647	309.54
469.084	283.79
469.522	297.83
469.959	267.41
470.396	314.22
470.833	349.32
471.271	304.85
471.708	311.88
472.145	389.11
472.582	295.49
473.019	356.35
473.456	304.85
473.892	361.03
474.329	346.98
474.766	342.3
475.202	400.82
475.639	332.94
476.076	332.94
476.512	349.32
476.949	332.94
477.385	265.07
477.821	337.62
478.258	286.13
478.694	314.22
479.13	290.81
479.566	337.62
480.002	321.24
480.438	365.71
480.874	332.94
481.31	349.32
481.746	302.51
482.181	351.67
482.617	372.73
483.053	314.22
483.488	314.22
483.924	314.22
484.36	304.85
484.795	354.01
485.23	337.62
485.666	342.3
486.101	346.98
486.536	314.22
486.971	358.69
487.407	372.73
487.842	304.85
488.277	321.24
488.712	304.85
489.146	337.62
489.581	339.96
490.016	342.3
490.451	290.81
490.885	351.67
491.32	344.64
491.755	323.58
492.189	300.17
492.624	293.15
493.058	295.49
493.492	363.37
493.927	351.67
494.361	260.38
494.795	318.9
495.229	314.22
495.663	339.96
496.097	253.36
496.531	349.32
496.965	265.07
497.399	267.41
497.833	323.58
498.266	325.92
498.7	272.09
499.134	314.22
499.567	332.94
500.001	323.58
500.434	274.43
500.868	307.2
501.301	318.9
501.734	328.26
502.168	356.35
502.601	304.85
503.034	274.43
503.467	368.05
503.9	269.75
504.333	339.96
504.766	314.22
505.199	328.26
505.632	276.77
506.064	339.96
506.497	286.13
506.93	318.9
507.362	330.6
507.795	318.9
508.227	337.62
508.66	276.77
509.092	372.73
509.524	281.45
509.956	302.51
510.389	354.01
510.821	300.17
511.253	325.92
511.685	311.88
512.117	328.26
512.549	363.37
512.981	316.56
513.412	316.56
513.844	342.3
514.276	321.24
514.707	293.15
515.139	311.88
515.571	321.24
516.002	281.45
516.433	346.98
516.865	295.49
517.296	300.17
517.727	286.13
518.159	302.51
518.59	368.05
519.021	342.3
519.452	330.6
519.883	295.49
520.314	304.85
520.744	328.26
521.175	356.35
521.606	258.04
522.037	267.41
522.467	346.98
522.898	321.24
523.328	307.2
523.759	309.54
524.189	272.09
524.62	311.88
525.05	276.77
525.48	410.18
525.91	288.47
526.341	293.15
526.771	267.41
527.201	337.62
527.631	321.24
528.061	344.64
528.49	314.22
528.92	304.85
529.35	311.88
529.78	389.11
530.209	194.85
530.639	309.54
531.068	417.2
531.498	337.62
531.927	276.77
532.357	302.51
532.786	279.11
533.215	258.04
533.644	297.83
534.074	337.62
534.503	300.17
534.932	236.98
535.361	290.81
535.79	358.69
536.218	307.2
536.647	311.88
537.076	351.67
537.505	354.01
537.933	328.26
538.362	321.24
538.79	309.54
539.219	314.22
539.647	344.64
540.076	344.64
540.504	267.41
540.932	368.05
541.36	272.09
541.788	293.15
542.217	368.05
542.645	342.3
543.073	384.43
543.5	330.6
543.928	346.98
544.356	309.54
544.784	304.85
545.211	316.56
545.639	318.9
546.067	354.01
546.494	302.51
546.922	332.94
547.349	288.47
547.776	321.24
548.204	330.6
548.631	309.54
549.058	309.54
549.485	349.32
549.912	332.94
550.339	309.54
550.766	199.53
551.193	321.24
551.62	220.6
552.047	309.54
552.474	316.56
552.9	332.94
553.327	272.09
553.754	323.58
554.18	349.32
554.607	330.6
555.033	258.04
555.459	325.92
555.886	300.17
556.312	318.9
556.738	342.3
557.164	295.49
557.59	330.6
558.016	339.96
558.442	344.64
558.868	295.49
559.294	346.98
559.72	361.03
560.145	342.3
560.571	293.15
560.997	356.35
561.422	325.92
561.848	262.73
562.273	370.39
562.699	304.85
563.124	307.2
563.549	311.88
563.974	354.01
564.4	361.03
564.825	290.81
565.25	354.01
565.675	318.9
566.1	372.73
566.525	300.17
566.95	241.66
567.374	349.32
567.799	325.92
568.224	293.15
568.648	307.2
569.073	344.64
569.497	332.94
569.922	363.37
570.346	318.9
570.771	382.09
571.195	316.56
571.619	328.26
572.043	325.92
572.467	311.88
572.891	274.43
573.315	288.47
573.739	335.28
574.163	316.56
574.587	398.48
575.011	309.54
575.435	386.77
575.858	358.69
576.282	321.24
576.705	309.54
577.129	358.69
577.552	272.09
577.976	328.26
578.399	314.22
578.822	255.7
579.245	258.04
579.669	330.6
580.092	325.92
580.515	304.85
580.938	351.67
581.361	351.67
581.784	356.35
582.206	297.83
582.629	332.94
583.052	318.9
583.474	328.26
583.897	297.83
584.32	330.6
584.742	318.9
585.165	283.79
585.587	288.47
586.009	354.01
586.431	267.41
586.854	279.11
587.276	361.03
587.698	358.69
588.12	325.92
588.542	318.9
588.964	283.79
589.386	309.54
589.807	295.49
590.229	283.79
590.651	325.92
591.073	300.17
591.494	307.2
591.916	286.13
592.337	314.22
592.759	302.51
593.18	288.47
593.601	335.28
594.022	286.13
594.444	337.62
594.865	337.62
595.286	283.79
595.707	321.24
596.128	361.03
596.549	363.37
596.97	330.6
597.39	342.3
597.811	318.9
598.232	304.85
598.652	293.15
599.073	356.35
599.494	267.41
599.914	302.51
600.334	328.26
600.755	337.62
601.175	297.83
601.595	262.73
602.015	290.81
602.436	297.83
602.856	485.08
603.276	339.96
603.696	330.6
604.115	265.07
604.535	330.6
604.955	297.83
605.375	300.17
605.794	318.9
606.214	361.03
606.634	342.3
607.053	302.51
607.473	330.6
607.892	358.69
608.311	323.58
608.731	332.94
609.15	248.68
609.569	332.94
609.988	328.26
610.407	300.17
610.826	370.39
611.245	351.67
611.664	361.03
612.083	293.15
612.501	288.47
612.92	253.36
613.339	272.09
613.757	304.85
614.176	393.8
614.594	288.47
615.013	382.09
615.431	307.2
615.85	337.62
616.268	344.64
616.686	321.24
617.104	349.32
617.522	396.14
617.94	321.24
618.358	311.88
618.776	351.67
619.194	253.36
619.612	234.64
620.03	286.13
620.447	309.54
620.865	290.81
621.282	377.41
621.7	372.73
622.117	290.81
622.535	335.28
622.952	354.01
623.369	248.68
623.787	349.32
624.204	241.66
624.621	274.43
625.038	339.96
625.455	342.3
625.872	375.07
626.289	344.64
626.706	290.81
627.123	361.03
627.539	323.58
627.956	330.6
628.373	316.56
628.789	316.56
629.206	323.58
629.622	286.13
630.038	342.3
630.455	339.96
630.871	311.88
631.287	276.77
631.703	309.54
632.12	286.13
632.536	365.71
632.952	365.71
633.368	286.13
633.783	302.51
634.199	229.96
634.615	335.28
635.031	279.11
635.446	300.17
635.862	328.26
636.277	244
636.693	354.01
637.108	288.47
637.524	325.92
637.939	335.28
638.354	339.96
638.77	335.28
639.185	316.56
639.6	330.6
640.015	358.69
640.43	342.3
640.845	372.73
641.259	349.32
641.674	300.17
642.089	314.22
642.504	295.49
642.918	297.83
643.333	375.07
643.747	279.11
644.162	272.09
644.576	393.8
644.991	339.96
645.405	330.6
645.819	339.96
646.233	349.32
646.647	349.32
647.061	361.03
647.475	318.9
647.889	370.39
648.303	304.85
648.717	304.85
649.131	318.9
649.545	241.66
649.958	356.35
650.372	295.49
650.785	281.45
651.199	316.56
651.612	311.88
652.026	311.88
652.439	318.9
652.852	279.11
653.266	302.51
653.679	351.67
654.092	281.45
654.505	335.28
654.918	344.64
655.331	361.03
655.744	304.85
656.156	358.69
656.569	297.83
656.982	330.6
657.394	314.22
657.807	309.54
658.22	337.62
658.632	344.64
659.044	318.9
659.457	300.17
659.869	283.79
660.281	377.41
660.693	339.96
661.106	335.28
661.518	265.07
661.93	346.98
662.342	332.94
662.754	346.98
663.165	293.15
663.577	337.62
663.989	307.2
664.401	290.81
664.812	279.11
665.224	318.9
665.635	325.92
666.047	358.69
666.458	255.7
666.869	339.96
667.281	316.56
667.692	307.2
668.103	248.68
668.514	332.94
668.925	328.26
669.336	354.01
669.747	335.28
670.158	262.73
670.569	323.58
670.979	260.38
671.39	297.83
671.801	316.56
672.211	297.83
672.622	300.17
673.032	311.88
673.443	269.75
673.853	255.7
674.263	302.51
674.674	321.24
675.084	337.62
675.494	344.64
675.904	281.45
676.314	215.91
676.724	244
677.134	311.88
677.544	297.83
677.953	321.24
678.363	372.73
678.773	325.92
679.182	295.49
679.592	297.83
680.001	332.94
680.411	283.79
680.82	344.64
681.23	342.3
681.639	330.6
682.048	281.45
682.457	295.49
682.866	344.64
683.275	286.13
683.684	300.17
684.093	354.01
684.502	403.16
684.911	288.47
685.32	342.3
685.728	283.79
686.137	307.2
686.546	321.24
686.954	316.56
687.363	318.9
687.771	323.58
688.179	293.15
688.588	332.94
688.996	372.73
689.404	424.22
689.812	286.13
690.22	323.58
690.628	351.67
691.036	377.41
691.444	295.49
691.852	281.45
692.26	356.35
692.667	309.54
693.075	323.58
693.483	337.62
693.89	358.69
694.298	372.73
694.705	297.83
695.112	323.58
695.52	302.51
695.927	346.98
696.334	311.88
696.741	293.15
697.148	290.81
697.555	300.17
697.962	279.11
698.369	304.85
698.776	248.68
699.183	316.56
699.59	330.6
699.996	349.32
700.403	239.32
700.81	272.09
701.216	344.64
701.623	300.17
702.029	309.54
702.435	379.75
702.842	325.92
703.248	325.92
703.654	377.41
704.06	302.51
704.466	309.54
704.872	321.24
705.278	302.51
705.684	332.94
706.09	286.13
706.496	382.09
706.901	337.62
707.307	281.45
707.712	356.35
708.118	370.39
708.523	246.34
708.929	283.79
709.334	335.28
709.74	297.83
710.145	281.45
710.55	300.17
710.955	323.58
711.36	344.64
711.765	358.69
712.17	321.24
712.575	293.15
712.98	899.35
713.385	377.41
713.789	304.85
714.194	314.22
714.599	244
715.003	321.24
715.408	318.9
715.812	318.9
716.217	337.62
716.621	302.51
717.025	309.54
717.429	316.56
717.833	335.28
718.238	279.11
718.642	375.07
719.046	316.56
719.449	265.07
719.853	307.2
720.257	330.6
720.661	232.3
721.065	368.05
721.468	337.62
721.872	363.37
722.275	276.77
722.679	283.79
723.082	309.54
723.485	288.47
723.889	386.77
724.292	253.36
724.695	304.85
725.098	325.92
725.501	344.64
725.904	323.58
726.307	321.24
726.71	300.17
727.113	349.32
727.516	405.5
727.918	304.85
728.321	262.73
728.724	330.6
729.126	253.36
729.529	365.71
729.931	281.45
730.333	335.28
730.736	342.3
731.138	330.6
731.54	307.2
731.942	293.15
732.344	316.56
732.746	286.13
733.148	229.96
733.55	363.37
733.952	356.35
734.354	377.41
734.756	361.03
735.157	337.62
735.559	302.51
735.96	321.24
736.362	276.77
736.763	346.98
737.165	241.66
737.566	323.58
737.967	346.98
738.368	342.3
738.77	288.47
739.171	293.15
739.572	318.9
739.973	335.28
740.374	295.49
740.774	349.32
741.175	318.9
741.576	307.2
741.977	283.79
742.377	304.85
742.778	346.98
743.178	246.34
743.579	363.37
743.979	314.22
744.379	332.94
744.78	358.69
745.18	215.91
745.58	363.37
745.98	393.8
746.38	314.22
746.78	323.58
747.18	279.11
747.58	325.92
747.98	297.83
748.38	290.81
748.779	323.58
749.179	358.69
749.578	288.47
749.978	321.24
750.377	307.2
750.777	304.85
751.176	300.17
751.575	283.79
751.975	295.49
752.374	279.11
752.773	356.35
753.172	302.51
753.571	337.62
753.97	290.81
754.369	297.83
754.768	325.92
755.166	356.35
755.565	344.64
755.964	349.32
756.362	260.38
756.761	307.2
757.159	311.88
757.558	269.75
757.956	328.26
758.354	339.96
758.753	321.24
759.151	318.9
759.549	344.64
759.947	297.83
760.345	300.17
760.743	342.3
761.141	246.34
761.539	354.01
761.936	293.15
762.334	302.51
762.732	342.3
763.129	300.17
763.527	255.7
763.924	323.58
764.322	314.22
764.719	365.71
765.117	311.88
765.514	323.58
765.911	351.67
766.308	351.67
766.705	274.43
767.102	304.85
767.499	318.9
767.896	361.03
768.293	328.26
768.69	318.9
769.086	258.04
769.483	288.47
769.88	318.9
770.276	311.88
770.673	302.51
771.069	314.22
771.466	269.75
771.862	288.47
772.258	351.67
772.654	314.22
773.05	356.35
773.447	269.75
773.843	358.69
774.239	304.85
774.634	328.26
775.03	311.88
775.426	293.15
775.822	314.22
776.218	309.54
776.613	265.07
777.009	272.09
777.404	314.22
777.8	323.58
778.195	293.15
778.59	276.77
778.986	339.96
779.381	281.45
779.776	328.26
780.171	300.17
780.566	337.62
780.961	267.41
781.356	363.37
781.751	330.6
782.146	335.28
782.54	321.24
782.935	328.26
783.33	368.05
783.724	370.39
784.119	321.24
784.513	318.9
784.908	297.83
785.302	286.13
785.696	309.54
786.09	337.62
786.485	265.07
786.879	297.83
787.273	332.94
787.667	302.51
788.061	335.28
788.454	300.17
788.848	279.11
789.242	276.77
789.636	253.36
790.029	330.6
790.423	344.64
790.816	269.75
791.21	309.54
791.603	344.64
791.997	244
792.39	321.24
792.783	307.2
793.176	297.83
793.569	279.11
793.962	349.32
794.355	267.41
794.748	321.24
795.141	321.24
795.534	302.51
795.927	281.45
796.319	323.58
796.712	314.22
797.105	290.81
797.497	337.62
797.89	269.75
798.282	370.39
798.674	375.07
799.067	307.2
799.459	349.32
799.851	325.92
800.243	276.77
800.635	368.05
801.027	335.28
801.419	314.22
801.811	311.88
802.203	337.62
802.594	328.26
802.986	372.73
803.378	393.8
803.769	361.03
804.161	302.51
804.552	316.56
804.944	339.96
805.335	311.88
805.726	361.03
806.118	318.9
806.509	297.83
806.9	244
807.291	314.22
807.682	295.49
808.073	349.32
808.464	311.88
808.855	297.83
809.245	286.13
809.636	295.49
810.027	323.58
810.417	258.04
810.808	321.24
811.198	375.07
811.589	356.35
811.979	295.49
812.369	281.45
812.759	346.98
813.15	302.51
813.54	293.15
813.93	267.41
814.32	260.38
814.71	316.56
815.1	281.45
815.489	365.71
815.879	356.35
816.269	335.28
816.658	307.2
817.048	293.15
817.438	288.47
817.827	321.24
818.216	349.32
818.606	316.56
818.995	361.03
819.384	302.51
819.773	281.45
820.163	300.17
820.552	321.24
820.941	342.3
821.33	239.32
821.718	330.6
822.107	213.57
822.496	337.62
822.885	290.81
823.273	290.81
823.662	375.07
824.05	358.69
824.439	330.6
824.827	339.96
825.216	283.79
825.604	288.47
825.992	342.3
826.38	337.62
826.768	304.85
827.156	361.03
827.544	311.88
827.932	304.85
828.32	321.24
828.708	290.81
829.096	304.85
829.483	234.64
829.871	375.07
830.259	370.39
830.646	260.38
831.034	300.17
831.421	288.47
831.808	311.88
832.196	295.49
832.583	354.01
832.97	269.75
833.357	335.28
833.744	314.22
834.131	328.26
834.518	321.24
834.905	260.38
835.292	316.56
835.678	258.04
836.065	344.64
836.452	295.49
836.838	302.51
837.225	260.38
837.611	258.04
837.998	260.38
838.384	258.04
838.77	304.85
839.157	321.24
839.543	332.94
839.929	344.64
840.315	290.81
840.701	262.73
841.087	332.94
841.473	356.35
841.858	363.37
842.244	288.47
842.63	311.88
843.015	337.62
843.401	363.37
843.787	302.51
844.172	283.79
844.557	304.85
844.943	307.2
845.328	330.6
845.713	370.39
846.098	332.94
846.483	365.71
846.868	279.11
847.253	267.41
847.638	300.17
848.023	304.85
848.408	325.92
848.793	335.28
849.177	262.73
849.562	269.75
849.947	314.22
850.331	283.79
850.715	316.56
851.1	344.64
851.484	321.24
851.868	351.67
852.253	342.3
852.637	344.64
853.021	354.01
853.405	375.07
853.789	314.22
854.173	332.94
854.557	335.28
854.94	325.92
855.324	354.01
855.708	314.22
856.091	323.58
856.475	325.92
856.858	307.2
857.242	302.51
857.625	318.9
858.009	351.67
858.392	335.28
858.775	335.28
859.158	323.58
859.541	316.56
859.924	332.94
860.307	325.92
860.69	316.56
861.073	309.54
861.456	297.83
861.838	328.26
862.221	335.28
862.604	279.11
862.986	265.07
863.369	269.75
863.751	269.75
864.133	307.2
864.516	363.37
864.898	379.75
865.28	335.28
865.662	349.32
866.044	311.88
866.426	344.64
866.808	318.9
867.19	330.6
867.572	286.13
867.954	304.85
868.336	325.92
868.717	241.66
869.099	332.94
869.48	356.35
869.862	267.41
870.243	283.79
870.625	302.51
871.006	304.85
871.387	335.28
871.768	314.22
872.149	323.58
872.53	309.54
872.911	323.58
873.292	344.64
873.673	304.85
874.054	309.54
874.435	358.69
874.815	370.39
875.196	344.64
875.577	342.3
875.957	279.11
876.338	346.98
876.718	309.54
877.098	335.28
877.479	276.77
877.859	321.24
878.239	344.64
878.619	311.88
878.999	344.64
879.379	342.3
879.759	281.45
880.139	274.43
880.519	286.13
880.898	339.96
881.278	323.58
881.658	288.47
882.037	375.07
882.417	281.45
882.796	365.71
883.176	332.94
883.555	311.88
883.934	349.32
884.313	269.75
884.693	349.32
885.072	309.54
885.451	361.03
885.83	328.26
886.209	307.2
886.587	342.3
886.966	302.51
887.345	375.07
887.724	335.28
888.102	269.75
888.481	318.9
888.859	304.85
889.238	344.64
889.616	330.6
889.994	391.45
890.373	288.47
890.751	309.54
891.129	339.96
891.507	300.17
891.885	297.83
892.263	260.38
892.641	316.56
893.019	379.75
893.396	325.92
893.774	344.64
894.152	269.75
894.529	265.07
894.907	239.32
895.284	354.01
895.662	255.7
896.039	344.64
896.416	328.26
896.794	379.75
897.171	307.2
897.548	342.3
897.925	316.56
898.302	363.37
898.679	267.41
899.056	325.92
899.433	318.9
899.809	283.79
900.186	218.25
900.563	225.28
900.939	283.79
901.316	335.28
901.692	248.68
902.069	342.3
902.445	335.28
902.821	225.28
903.197	279.11
903.574	286.13
903.95	304.85
904.326	279.11
904.702	255.7
905.078	311.88
905.454	351.67
905.829	309.54
906.205	288.47
906.581	248.68
906.956	323.58
907.332	332.94
907.707	358.69
908.083	339.96
908.458	337.62
908.833	332.94
909.209	323.58
909.584	318.9
909.959	281.45
910.334	311.88
910.709	323.58
911.084	300.17
911.459	307.2
911.834	335.28
912.209	281.45
912.583	323.58
912.958	311.88
913.333	349.32
913.707	288.47
914.082	335.28
914.456	365.71
914.83	314.22
915.205	290.81
915.579	335.28
915.953	349.32
916.327	283.79
916.701	318.9
917.075	311.88
917.449	311.88
917.823	286.13
918.197	300.17
918.571	321.24
918.944	309.54
919.318	239.32
919.692	309.54
920.065	335.28
920.438	332.94
920.812	307.2
921.185	290.81
921.558	260.38
921.932	297.83
922.305	281.45
922.678	279.11
923.051	372.73
923.424	330.6
923.797	311.88
924.17	330.6
924.542	297.83
924.915	265.07
925.288	351.67
925.661	314.22
926.033	309.54
926.406	316.56
926.778	276.77
927.15	318.9
927.523	318.9
927.895	232.3
928.267	339.96
928.639	267.41
929.011	274.43
929.383	330.6
929.755	325.92
930.127	332.94
930.499	267.41
930.871	370.39
931.242	351.67
931.614	316.56
931.986	318.9
932.357	318.9
932.729	281.45
933.1	370.39
933.471	339.96
933.843	269.75
934.214	391.45
934.585	297.83
934.956	304.85
935.327	332.94
935.698	339.96
936.069	325.92
936.44	325.92
936.811	281.45
937.182	318.9
937.552	304.85
937.923	325.92
938.293	293.15
938.664	311.88
939.034	316.56
939.405	379.75
939.775	260.38
940.145	262.73
940.516	337.62
940.886	265.07
941.256	300.17
941.626	316.56
941.996	274.43
942.366	260.38
942.735	290.81
943.105	325.92
943.475	316.56
943.845	281.45
944.214	297.83
944.584	269.75
944.953	316.56
945.323	255.7
945.692	316.56
946.061	302.51
946.43	316.56
946.8	293.15
947.169	304.85
947.538	321.24
947.907	281.45
948.276	349.32
948.645	318.9
949.013	337.62
949.382	248.68
949.751	293.15
950.119	295.49
950.488	302.51
950.857	302.51
951.225	337.62
951.593	304.85
951.962	323.58
952.33	304.85
952.698	229.96
953.066	283.79
953.434	281.45
953.802	267.41
954.17	272.09
954.538	281.45
954.906	318.9
955.274	265.07
955.642	365.71
956.009	307.2
956.377	293.15
956.744	279.11
957.112	267.41
957.479	330.6
957.847	251.02
958.214	272.09
958.581	349.32
958.948	304.85
959.315	337.62
959.683	321.24
960.05	246.34
960.416	337.62
960.783	248.68
961.15	283.79
961.517	309.54
961.884	351.67
962.25	419.54
962.617	258.04
962.983	318.9
963.35	307.2
963.716	351.67
964.082	349.32
964.449	351.67
964.815	302.51
965.181	316.56
965.547	332.94
965.913	370.39
966.279	318.9
966.645	323.58
967.011	363.37
967.377	286.13
967.742	295.49
968.108	339.96
968.474	361.03
968.839	349.32
969.205	370.39
969.57	304.85
969.935	286.13
970.301	244
970.666	300.17
971.031	309.54
971.396	342.3
971.761	342.3
972.126	354.01
972.491	297.83
972.856	321.24
973.221	328.26
973.586	304.85
973.95	274.43
974.315	377.41
974.679	286.13
975.044	279.11
975.408	290.81
975.773	323.58
976.137	346.98
976.501	295.49
976.866	311.88
977.23	302.51
977.594	295.49
977.958	386.77
978.322	318.9
978.686	309.54
979.049	300.17
979.413	262.73
979.777	290.81
980.141	302.51
980.504	241.66
980.868	302.51
981.231	339.96
981.595	316.56
981.958	323.58
982.321	335.28
982.684	361.03
983.048	318.9
983.411	344.64
983.774	314.22
984.137	255.7
984.5	309.54
984.862	311.88
985.225	372.73
985.588	258.04
985.951	295.49
986.313	297.83
986.676	234.64
987.038	363.37
987.401	379.75
987.763	276.77
988.125	344.64
988.488	265.07
988.85	288.47
989.212	332.94
989.574	258.04
989.936	293.15
990.298	300.17
990.66	279.11
991.022	346.98
991.383	342.3
991.745	314.22
992.107	297.83
992.468	358.69
992.83	311.88
993.191	365.71
993.553	262.73
993.914	339.96
994.275	295.49
994.637	309.54
994.998	325.92
995.359	279.11
995.72	328.26
996.081	323.58
996.442	349.32
996.803	316.56
997.163	335.28
997.524	349.32
997.885	318.9
998.245	281.45
998.606	279.11
998.966	297.83
999.327	328.26
999.687	344.64
1000.047	358.69
1000.408	283.79
1000.768	255.7
1001.128	265.07
1001.488	288.47
1001.848	323.58
1002.208	281.45
1002.568	295.49
1002.927	328.26
1003.287	307.2
1003.647	323.58
1004.007	288.47
1004.366	290.81
1004.726	311.88
1005.085	288.47
1005.444	314.22
1005.804	321.24
1006.163	302.51
1006.522	300.17
1006.881	311.88
1007.24	389.11
1007.599	295.49
1007.958	365.71
1008.317	316.56
1008.676	328.26
1009.035	286.13
1009.393	281.45
1009.752	311.88
1010.111	279.11
1010.469	382.09
1010.828	318.9
1011.186	339.96
1011.544	304.85
1011.903	302.51
1012.261	302.51
1012.619	246.34
1012.977	267.41
1013.335	375.07
1013.693	361.03
1014.051	290.81
1014.409	290.81
1014.767	342.3
1015.124	349.32
1015.482	365.71
1015.84	344.64
1016.197	316.56
1016.555	328.26
1016.912	328.26
1017.269	311.88
1017.627	279.11
1017.984	288.47
1018.341	283.79
1018.698	279.11
1019.055	365.71
1019.412	288.47
1019.769	325.92
1020.126	276.77
1020.483	302.51
1020.84	302.51
1021.196	307.2
1021.553	283.79
1021.909	281.45
1022.266	295.49
1022.622	332.94
1022.979	391.45
1023.335	323.58
1023.691	335.28
1024.047	262.73
1024.404	267.41
1024.76	236.98
1025.116	375.07
1025.472	283.79
1025.827	377.41
1026.183	351.67
1026.539	323.58
1026.895	339.96
1027.25	309.54
1027.606	304.85
1027.961	244
1028.317	272.09
1028.672	234.64
1029.028	260.38
1029.383	304.85
1029.738	391.45
1030.093	307.2
1030.448	302.51
1030.803	330.6
1031.158	267.41
1031.513	269.75
1031.868	330.6
1032.223	304.85
1032.577	253.36
1032.932	304.85
1033.287	293.15
1033.641	417.2
1033.996	375.07
1034.35	321.24
1034.704	304.85
1035.059	328.26
1035.413	286.13
1035.767	286.13
1036.121	286.13
