Data from Al_FLMS009871__1023__16-23-58-214.txt Node

Date: Fri Mar 08 16:23:58 CST 2024
User: pe5414po
Spectrometer: FLMS00987
Trigger mode: 0
Integration Time (sec): 1.000000E-1
Scans to average: 1
Electric dark correction enabled: true
Nonlinearity correction enabled: false
Boxcar width: 0
XAxis mode: Wavelengths
Number of Pixels in Spectrum: 2048
>>>>>Begin Spectral Data<<<<<
188.938	-16.68
189.409	-16.68
189.879	-16.68
190.349	-98.6
190.819	-133.7
191.29	-114.98
191.76	-105.62
192.23	-112.64
192.7	-84.55
193.17	-107.96
193.64	13.75
194.109	-42.42
194.579	-77.53
195.049	34.82
195.519	4.39
195.988	13.75
196.458	55.88
196.927	121.42
197.397	46.52
197.866	191.63
198.336	163.54
198.805	142.48
199.274	95.67
199.744	231.42
200.213	229.08
200.682	247.8
201.151	212.7
201.62	254.83
202.089	243.12
202.558	238.44
203.027	200.99
203.495	261.85
203.964	222.06
204.433	268.87
204.902	299.3
205.37	355.47
205.839	273.55
206.307	261.85
206.776	294.61
207.244	222.06
207.712	259.51
208.181	278.23
208.649	325.04
209.117	261.85
209.585	294.61
210.053	346.11
210.521	247.8
210.989	294.61
211.457	282.91
211.925	257.17
212.393	278.23
212.861	252.49
213.328	238.44
213.796	254.83
214.264	233.76
214.731	299.3
215.199	301.64
215.666	210.36
216.133	268.87
216.601	236.1
217.068	315.68
217.535	259.51
218.003	266.53
218.47	252.49
218.937	245.46
219.404	257.17
219.871	261.85
220.338	210.36
220.805	278.23
221.271	273.55
221.738	318.02
222.205	264.19
222.671	261.85
223.138	243.12
223.605	198.65
224.071	278.23
224.538	217.38
225.004	193.97
225.47	254.83
225.937	231.42
226.403	275.89
226.869	273.55
227.335	261.85
227.801	292.27
228.267	238.44
228.733	313.34
229.199	240.78
229.665	292.27
230.131	217.38
230.597	266.53
231.062	196.31
231.528	261.85
231.994	250.14
232.459	268.87
232.925	261.85
233.39	264.19
233.856	273.55
234.321	247.8
234.786	252.49
235.252	240.78
235.717	193.97
236.182	240.78
236.647	299.3
237.112	208.02
237.577	285.25
238.042	238.44
238.507	200.99
238.972	325.04
239.436	334.4
239.901	275.89
240.366	257.17
240.83	308.66
241.295	289.93
241.76	280.57
242.224	336.74
242.688	303.98
243.153	320.36
243.617	296.96
244.081	259.51
244.545	287.59
245.01	346.11
245.474	250.14
245.938	243.12
246.402	238.44
246.866	303.98
247.33	287.59
247.793	243.12
248.257	296.96
248.721	313.34
249.185	252.49
249.648	271.21
250.112	329.72
250.575	261.85
251.039	266.53
251.502	315.68
251.965	222.06
252.429	329.72
252.892	306.32
253.355	271.21
253.818	332.06
254.281	289.93
254.744	250.14
255.207	275.89
255.67	245.46
256.133	303.98
256.596	259.51
257.059	271.21
257.522	332.06
257.984	287.59
258.447	289.93
258.909	271.21
259.372	329.72
259.834	322.7
260.297	266.53
260.759	245.46
261.221	334.4
261.684	287.59
262.146	332.06
262.608	257.17
263.07	292.27
263.532	303.98
263.994	266.53
264.456	294.61
264.918	238.44
265.38	320.36
265.842	318.02
266.303	318.02
266.765	308.66
267.227	289.93
267.688	282.91
268.15	301.64
268.611	311
269.072	315.68
269.534	212.7
269.995	259.51
270.456	315.68
270.918	348.45
271.379	308.66
271.84	318.02
272.301	247.8
272.762	336.74
273.223	306.32
273.684	264.19
274.144	273.55
274.605	275.89
275.066	273.55
275.527	257.17
275.987	268.87
276.448	259.51
276.908	299.3
277.369	273.55
277.829	252.49
278.289	224.4
278.75	308.66
279.21	278.23
279.67	268.87
280.13	259.51
280.59	273.55
281.05	278.23
281.51	285.25
281.97	322.7
282.43	294.61
282.89	320.36
283.35	341.43
283.809	275.89
284.269	289.93
284.729	261.85
285.188	226.74
285.648	210.36
286.107	318.02
286.567	287.59
287.026	306.32
287.485	296.96
287.944	350.79
288.404	339.09
288.863	383.56
289.322	322.7
289.781	285.25
290.24	285.25
290.699	353.13
291.158	282.91
291.616	318.02
292.075	322.7
292.534	233.76
292.992	294.61
293.451	339.09
293.91	264.19
294.368	271.21
294.827	287.59
295.285	266.53
295.743	231.42
296.202	254.83
296.66	296.96
297.118	289.93
297.576	294.61
298.034	224.4
298.492	306.32
298.95	313.34
299.408	376.53
299.866	313.34
300.324	343.77
300.781	289.93
301.239	294.61
301.697	306.32
302.154	346.11
302.612	355.47
303.069	325.04
303.527	341.43
303.984	289.93
304.441	268.87
304.899	325.04
305.356	238.44
305.813	303.98
306.27	296.96
306.727	289.93
307.184	341.43
307.641	313.34
308.098	341.43
308.555	266.53
309.012	282.91
309.468	280.57
309.925	280.57
310.382	318.02
310.838	308.66
311.295	329.72
311.751	311
312.208	273.55
312.664	409.3
313.12	348.45
313.577	306.32
314.033	339.09
314.489	292.27
314.945	252.49
315.401	353.13
315.857	336.74
316.313	311
316.769	259.51
317.225	339.09
317.681	318.02
318.136	268.87
318.592	339.09
319.048	275.89
319.503	362.49
319.959	287.59
320.414	355.47
320.869	292.27
321.325	327.38
321.78	346.11
322.235	318.02
322.691	287.59
323.146	282.91
323.601	278.23
324.056	268.87
324.511	254.83
324.966	294.61
325.421	287.59
325.875	243.12
326.33	280.57
326.785	320.36
327.24	299.3
327.694	383.56
328.149	273.55
328.603	311
329.058	353.13
329.512	273.55
329.966	268.87
330.421	353.13
330.875	296.96
331.329	341.43
331.783	329.72
332.237	383.56
332.691	303.98
333.145	280.57
333.599	313.34
334.053	329.72
334.507	282.91
334.96	299.3
335.414	292.27
335.868	280.57
336.321	296.96
336.775	259.51
337.228	282.91
337.682	282.91
338.135	264.19
338.588	280.57
339.042	360.15
339.495	329.72
339.948	306.32
340.401	301.64
340.854	334.4
341.307	299.3
341.76	296.96
342.213	313.34
342.666	320.36
343.119	336.74
343.571	306.32
344.024	388.24
344.477	271.21
344.929	278.23
345.382	311
345.834	271.21
346.287	247.8
346.739	325.04
347.191	327.38
347.644	334.4
348.096	315.68
348.548	346.11
349	322.7
349.452	339.09
349.904	275.89
350.356	350.79
350.808	334.4
351.26	350.79
351.711	325.04
352.163	364.83
352.615	374.19
353.066	360.15
353.518	318.02
353.969	266.53
354.421	264.19
354.872	329.72
355.324	303.98
355.775	320.36
356.226	289.93
356.677	259.51
357.128	311
357.579	346.11
358.03	320.36
358.481	282.91
358.932	364.83
359.383	334.4
359.834	343.77
360.285	254.83
360.735	334.4
361.186	320.36
361.637	289.93
362.087	247.8
362.538	287.59
362.988	364.83
363.438	329.72
363.889	278.23
364.339	388.24
364.789	336.74
365.239	282.91
365.689	311
366.139	374.19
366.589	327.38
367.039	301.64
367.489	273.55
367.939	362.49
368.389	320.36
368.839	348.45
369.288	334.4
369.738	287.59
370.187	318.02
370.637	282.91
371.086	315.68
371.536	289.93
371.985	308.66
372.434	278.23
372.884	385.9
373.333	341.43
373.782	311
374.231	334.4
374.68	346.11
375.129	222.06
375.578	294.61
376.027	311
376.475	318.02
376.924	357.81
377.373	355.47
377.822	322.7
378.27	311
378.719	320.36
379.167	301.64
379.616	268.87
380.064	383.56
380.512	296.96
380.961	367.17
381.409	236.1
381.857	224.4
382.305	254.83
382.753	233.76
383.201	315.68
383.649	240.78
384.097	315.68
384.545	287.59
384.992	343.77
385.44	383.56
385.888	280.57
386.335	285.25
386.783	378.87
387.231	318.02
387.678	250.14
388.125	329.72
388.573	280.57
389.02	266.53
389.467	259.51
389.914	280.57
390.362	315.68
390.809	362.49
391.256	308.66
391.703	303.98
392.15	385.9
392.596	299.3
393.043	266.53
393.49	371.85
393.937	360.15
394.383	357.81
394.83	320.36
395.276	378.87
395.723	275.89
396.169	318.02
396.616	306.32
397.062	357.81
397.508	327.38
397.954	360.15
398.401	348.45
398.847	364.83
399.293	259.51
399.739	292.27
400.185	308.66
400.631	357.81
401.076	292.27
401.522	224.4
401.968	306.32
402.414	311
402.859	376.53
403.305	296.96
403.75	259.51
404.196	294.61
404.641	315.68
405.086	329.72
405.532	369.51
405.977	336.74
406.422	308.66
406.867	313.34
407.312	413.98
407.757	308.66
408.202	273.55
408.647	264.19
409.092	355.47
409.537	311
409.982	292.27
410.426	334.4
410.871	311
411.316	301.64
411.76	296.96
412.205	339.09
412.649	271.21
413.093	329.72
413.538	278.23
413.982	303.98
414.426	357.81
414.87	353.13
415.314	311
415.758	285.25
416.202	299.3
416.646	264.19
417.09	336.74
417.534	367.17
417.978	313.34
418.421	320.36
418.865	311
419.309	226.74
419.752	301.64
420.196	322.7
420.639	301.64
421.083	301.64
421.526	395.26
421.969	367.17
422.412	318.02
422.856	250.14
423.299	306.32
423.742	371.85
424.185	329.72
424.628	264.19
425.071	322.7
425.513	238.44
425.956	303.98
426.399	348.45
426.842	296.96
427.284	299.3
427.727	332.06
428.169	308.66
428.612	329.72
429.054	303.98
429.497	329.72
429.939	369.51
430.381	376.53
430.823	320.36
431.265	378.87
431.707	264.19
432.149	346.11
432.591	353.13
433.033	287.59
433.475	275.89
433.917	353.13
434.359	325.04
434.8	327.38
435.242	369.51
435.684	332.06
436.125	332.06
436.567	280.57
437.008	287.59
437.449	275.89
437.891	341.43
438.332	243.12
438.773	311
439.214	308.66
439.656	369.51
440.097	285.25
440.538	273.55
440.978	311
441.419	301.64
441.86	364.83
442.301	299.3
442.742	231.42
443.182	353.13
443.623	292.27
444.063	385.9
444.504	325.04
444.944	364.83
445.385	318.02
445.825	334.4
446.265	334.4
446.706	261.85
447.146	339.09
447.586	268.87
448.026	360.15
448.466	322.7
448.906	287.59
449.346	325.04
449.786	350.79
450.225	336.74
450.665	285.25
451.105	341.43
451.544	327.38
451.984	308.66
452.424	287.59
452.863	294.61
453.302	336.74
453.742	325.04
454.181	367.17
454.62	346.11
455.059	355.47
455.499	264.19
455.938	294.61
456.377	254.83
456.816	371.85
457.254	254.83
457.693	362.49
458.132	313.34
458.571	357.81
459.01	374.19
459.448	320.36
459.887	303.98
460.325	299.3
460.764	348.45
461.202	292.27
461.641	353.13
462.079	318.02
462.517	268.87
462.955	367.17
463.393	367.17
463.832	275.89
464.27	301.64
464.708	275.89
465.145	301.64
465.583	259.51
466.021	336.74
466.459	343.77
466.897	266.53
467.334	325.04
467.772	289.93
468.209	320.36
468.647	341.43
469.084	360.15
469.522	322.7
469.959	282.91
470.396	357.81
470.833	332.06
471.271	332.06
471.708	374.19
472.145	306.32
472.582	268.87
473.019	308.66
473.456	346.11
473.892	320.36
474.329	397.6
474.766	257.17
475.202	278.23
475.639	306.32
476.076	353.13
476.512	308.66
476.949	313.34
477.385	294.61
477.821	303.98
478.258	374.19
478.694	418.66
479.13	332.06
479.566	369.51
480.002	378.87
480.438	282.91
480.874	341.43
481.31	318.02
481.746	299.3
482.181	327.38
482.617	301.64
483.053	332.06
483.488	325.04
483.924	306.32
484.36	343.77
484.795	278.23
485.23	355.47
485.666	299.3
486.101	313.34
486.536	336.74
486.971	289.93
487.407	362.49
487.842	296.96
488.277	318.02
488.712	301.64
489.146	334.4
489.581	252.49
490.016	332.06
490.451	311
490.885	343.77
491.32	336.74
491.755	315.68
492.189	336.74
492.624	306.32
493.058	341.43
493.492	306.32
493.927	299.3
494.361	348.45
494.795	285.25
495.229	313.34
495.663	280.57
496.097	367.17
496.531	301.64
496.965	280.57
497.399	247.8
497.833	339.09
498.266	268.87
498.7	357.81
499.134	311
499.567	238.44
500.001	343.77
500.434	313.34
500.868	381.21
501.301	343.77
501.734	341.43
502.168	303.98
502.601	271.21
503.034	341.43
503.467	294.61
503.9	332.06
504.333	402.28
504.766	296.96
505.199	318.02
505.632	303.98
506.064	313.34
506.497	311
506.93	341.43
507.362	348.45
507.795	313.34
508.227	322.7
508.66	329.72
509.092	289.93
509.524	268.87
509.956	369.51
510.389	346.11
510.821	339.09
511.253	254.83
511.685	355.47
512.117	313.34
512.549	404.62
512.981	264.19
513.412	343.77
513.844	315.68
514.276	327.38
514.707	362.49
515.139	325.04
515.571	355.47
516.002	355.47
516.433	311
516.865	247.8
517.296	294.61
517.727	329.72
518.159	376.53
518.59	325.04
519.021	308.66
519.452	397.6
519.883	320.36
520.314	362.49
520.744	369.51
521.175	264.19
521.606	285.25
522.037	311
522.467	364.83
522.898	299.3
523.328	287.59
523.759	336.74
524.189	329.72
524.62	254.83
525.05	301.64
525.48	350.79
525.91	381.21
526.341	334.4
526.771	325.04
527.201	292.27
527.631	313.34
528.061	364.83
528.49	308.66
528.92	294.61
529.35	296.96
529.78	350.79
530.209	264.19
530.639	311
531.068	355.47
531.498	303.98
531.927	355.47
532.357	287.59
532.786	296.96
533.215	367.17
533.644	261.85
534.074	353.13
534.503	308.66
534.932	266.53
535.361	334.4
535.79	315.68
536.218	364.83
536.647	334.4
537.076	336.74
537.505	313.34
537.933	327.38
538.362	376.53
538.79	332.06
539.219	325.04
539.647	341.43
540.076	259.51
540.504	250.14
540.932	313.34
541.36	308.66
541.788	341.43
542.217	289.93
542.645	261.85
543.073	303.98
543.5	329.72
543.928	271.21
544.356	278.23
544.784	367.17
545.211	266.53
545.639	325.04
546.067	367.17
546.494	303.98
546.922	325.04
547.349	303.98
547.776	336.74
548.204	320.36
548.631	341.43
549.058	294.61
549.485	289.93
549.912	348.45
550.339	357.81
550.766	360.15
551.193	299.3
551.62	353.13
552.047	320.36
552.474	348.45
552.9	308.66
553.327	282.91
553.754	261.85
554.18	273.55
554.607	325.04
555.033	348.45
555.459	292.27
555.886	329.72
556.312	348.45
556.738	350.79
557.164	343.77
557.59	259.51
558.016	311
558.442	325.04
558.868	308.66
559.294	332.06
559.72	369.51
560.145	306.32
560.571	374.19
560.997	334.4
561.422	341.43
561.848	374.19
562.273	313.34
562.699	254.83
563.124	308.66
563.549	280.57
563.974	343.77
564.4	289.93
564.825	339.09
565.25	315.68
565.675	329.72
566.1	322.7
566.525	343.77
566.95	334.4
567.374	294.61
567.799	339.09
568.224	360.15
568.648	313.34
569.073	280.57
569.497	275.89
569.922	371.85
570.346	289.93
570.771	299.3
571.195	339.09
571.619	383.56
572.043	303.98
572.467	348.45
572.891	334.4
573.315	287.59
573.739	292.27
574.163	336.74
574.587	282.91
575.011	346.11
575.435	294.61
575.858	320.36
576.282	287.59
576.705	404.62
577.129	334.4
577.552	299.3
577.976	301.64
578.399	243.12
578.822	339.09
579.245	355.47
579.669	320.36
580.092	296.96
580.515	325.04
580.938	385.9
581.361	296.96
581.784	282.91
582.206	322.7
582.629	336.74
583.052	292.27
583.474	369.51
583.897	362.49
584.32	383.56
584.742	362.49
585.165	311
585.587	341.43
586.009	369.51
586.431	353.13
586.854	332.06
587.276	329.72
587.698	313.34
588.12	271.21
588.542	318.02
588.964	308.66
589.386	287.59
589.807	369.51
590.229	339.09
590.651	339.09
591.073	334.4
591.494	294.61
591.916	341.43
592.337	320.36
592.759	329.72
593.18	303.98
593.601	280.57
594.022	327.38
594.444	250.14
594.865	334.4
595.286	364.83
595.707	334.4
596.128	339.09
596.549	303.98
596.97	261.85
597.39	287.59
597.811	318.02
598.232	287.59
598.652	322.7
599.073	343.77
599.494	280.57
599.914	353.13
600.334	346.11
600.755	322.7
601.175	266.53
601.595	343.77
602.015	360.15
602.436	320.36
602.856	411.64
603.276	299.3
603.696	336.74
604.115	332.06
604.535	367.17
604.955	339.09
605.375	362.49
605.794	325.04
606.214	303.98
606.634	315.68
607.053	296.96
607.473	285.25
607.892	271.21
608.311	332.06
608.731	294.61
609.15	280.57
609.569	350.79
609.988	399.94
610.407	318.02
610.826	416.32
611.245	329.72
611.664	285.25
612.083	285.25
612.501	296.96
612.92	289.93
613.339	315.68
613.757	308.66
614.176	308.66
614.594	327.38
615.013	325.04
615.431	275.89
615.85	292.27
616.268	245.46
616.686	301.64
617.104	303.98
617.522	299.3
617.94	311
618.358	292.27
618.776	339.09
619.194	318.02
619.612	282.91
620.03	301.64
620.447	278.23
620.865	306.32
621.282	301.64
621.7	296.96
622.117	371.85
622.535	318.02
622.952	294.61
623.369	245.46
623.787	266.53
624.204	341.43
624.621	362.49
625.038	289.93
625.455	325.04
625.872	322.7
626.289	322.7
626.706	299.3
627.123	357.81
627.539	341.43
627.956	336.74
628.373	289.93
628.789	292.27
629.206	339.09
629.622	303.98
630.038	325.04
630.455	329.72
630.871	348.45
631.287	301.64
631.703	271.21
632.12	308.66
632.536	381.21
632.952	315.68
633.368	348.45
633.783	268.87
634.199	315.68
634.615	289.93
635.031	308.66
635.446	325.04
635.862	332.06
636.277	406.96
636.693	264.19
637.108	404.62
637.524	243.12
637.939	332.06
638.354	299.3
638.77	343.77
639.185	259.51
639.6	395.26
640.015	257.17
640.43	278.23
640.845	346.11
641.259	299.3
641.674	268.87
642.089	332.06
642.504	289.93
642.918	339.09
643.333	348.45
643.747	271.21
644.162	266.53
644.576	329.72
644.991	306.32
645.405	296.96
645.819	371.85
646.233	322.7
646.647	362.49
647.061	341.43
647.475	336.74
647.889	322.7
648.303	355.47
648.717	215.04
649.131	289.93
649.545	282.91
649.958	336.74
650.372	325.04
650.785	301.64
651.199	296.96
651.612	329.72
652.026	334.4
652.439	294.61
652.852	357.81
653.266	285.25
653.679	292.27
654.092	275.89
654.505	289.93
654.918	315.68
655.331	364.83
655.744	329.72
656.156	289.93
656.569	381.21
656.982	299.3
657.394	353.13
657.807	273.55
658.22	325.04
658.632	346.11
659.044	282.91
659.457	313.34
659.869	273.55
660.281	313.34
660.693	315.68
661.106	353.13
661.518	355.47
661.93	329.72
662.342	280.57
662.754	388.24
663.165	313.34
663.577	306.32
663.989	343.77
664.401	315.68
664.812	336.74
665.224	360.15
665.635	247.8
666.047	308.66
666.458	303.98
666.869	343.77
667.281	303.98
667.692	285.25
668.103	254.83
668.514	271.21
668.925	308.66
669.336	350.79
669.747	318.02
670.158	315.68
670.569	371.85
670.979	296.96
671.39	303.98
671.801	334.4
672.211	341.43
672.622	350.79
673.032	308.66
673.443	243.12
673.853	294.61
674.263	318.02
674.674	280.57
675.084	301.64
675.494	301.64
675.904	280.57
676.314	381.21
676.724	311
677.134	325.04
677.544	306.32
677.953	268.87
678.363	303.98
678.773	311
679.182	350.79
679.592	364.83
680.001	360.15
680.411	299.3
680.82	292.27
681.23	346.11
681.639	367.17
682.048	332.06
682.457	381.21
682.866	339.09
683.275	395.26
683.684	236.1
684.093	332.06
684.502	289.93
684.911	217.38
685.32	325.04
685.728	357.81
686.137	341.43
686.546	348.45
686.954	287.59
687.363	346.11
687.771	240.78
688.179	374.19
688.588	334.4
688.996	350.79
689.404	259.51
689.812	355.47
690.22	325.04
690.628	327.38
691.036	322.7
691.444	313.34
691.852	311
692.26	341.43
692.667	381.21
693.075	313.34
693.483	392.92
693.89	282.91
694.298	205.67
694.705	355.47
695.112	322.7
695.52	259.51
695.927	334.4
696.334	315.68
696.741	334.4
697.148	332.06
697.555	313.34
697.962	280.57
698.369	322.7
698.776	275.89
699.183	308.66
699.59	313.34
699.996	268.87
700.403	327.38
700.81	336.74
701.216	357.81
701.623	355.47
702.029	322.7
702.435	306.32
702.842	362.49
703.248	390.58
703.654	320.36
704.06	266.53
704.466	238.44
704.872	360.15
705.278	243.12
705.684	320.36
706.09	299.3
706.496	308.66
706.901	294.61
707.307	273.55
707.712	385.9
708.118	320.36
708.523	282.91
708.929	299.3
709.334	339.09
709.74	353.13
710.145	325.04
710.55	320.36
710.955	315.68
711.36	334.4
711.765	294.61
712.17	355.47
712.575	362.49
712.98	889.11
713.385	364.83
713.789	303.98
714.194	259.51
714.599	322.7
715.003	325.04
715.408	292.27
715.812	303.98
716.217	318.02
716.621	327.38
717.025	313.34
717.429	273.55
717.833	336.74
718.238	367.17
718.642	296.96
719.046	275.89
719.449	339.09
719.853	348.45
720.257	301.64
720.661	388.24
721.065	322.7
721.468	254.83
721.872	315.68
722.275	301.64
722.679	280.57
723.082	350.79
723.485	343.77
723.889	299.3
724.292	306.32
724.695	273.55
725.098	332.06
725.501	336.74
725.904	292.27
726.307	280.57
726.71	329.72
727.113	332.06
727.516	371.85
727.918	353.13
728.321	264.19
728.724	381.21
729.126	294.61
729.529	313.34
729.931	303.98
730.333	320.36
730.736	318.02
731.138	294.61
731.54	327.38
731.942	355.47
732.344	343.77
732.746	329.72
733.148	299.3
733.55	343.77
733.952	306.32
734.354	294.61
734.756	292.27
735.157	287.59
735.559	271.21
735.96	275.89
736.362	303.98
736.763	325.04
737.165	303.98
737.566	301.64
737.967	327.38
738.368	247.8
738.77	271.21
739.171	294.61
739.572	268.87
739.973	311
740.374	346.11
740.774	385.9
741.175	299.3
741.576	308.66
741.977	282.91
742.377	282.91
742.778	325.04
743.178	315.68
743.579	259.51
743.979	311
744.379	315.68
744.78	332.06
745.18	336.74
745.58	313.34
745.98	311
746.38	350.79
746.78	210.36
747.18	311
747.58	364.83
747.98	315.68
748.38	289.93
748.779	299.3
749.179	343.77
749.578	315.68
749.978	327.38
750.377	273.55
750.777	348.45
751.176	308.66
751.575	266.53
751.975	287.59
752.374	268.87
752.773	343.77
753.172	282.91
753.571	346.11
753.97	355.47
754.369	271.21
754.768	285.25
755.166	306.32
755.565	292.27
755.964	273.55
756.362	325.04
756.761	261.85
757.159	327.38
757.558	320.36
757.956	339.09
758.354	303.98
758.753	339.09
759.151	353.13
759.549	315.68
759.947	301.64
760.345	313.34
760.743	259.51
761.141	369.51
761.539	374.19
761.936	306.32
762.334	350.79
762.732	285.25
763.129	280.57
763.527	306.32
763.924	341.43
764.322	280.57
764.719	285.25
765.117	395.26
765.514	318.02
765.911	271.21
766.308	334.4
766.705	318.02
767.102	325.04
767.499	376.53
767.896	334.4
768.293	280.57
768.69	348.45
769.086	280.57
769.483	264.19
769.88	332.06
770.276	240.78
770.673	329.72
771.069	339.09
771.466	240.78
771.862	332.06
772.258	233.76
772.654	301.64
773.05	320.36
773.447	308.66
773.843	313.34
774.239	311
774.634	306.32
775.03	287.59
775.426	329.72
775.822	303.98
776.218	334.4
776.613	350.79
777.009	350.79
777.404	292.27
777.8	294.61
778.195	364.83
778.59	285.25
778.986	294.61
779.381	357.81
779.776	350.79
780.171	320.36
780.566	332.06
780.961	280.57
781.356	259.51
781.751	294.61
782.146	254.83
782.54	303.98
782.935	320.36
783.33	303.98
783.724	289.93
784.119	367.17
784.513	243.12
784.908	339.09
785.302	285.25
785.696	320.36
786.09	278.23
786.485	273.55
786.879	287.59
787.273	303.98
787.667	320.36
788.061	299.3
788.454	329.72
788.848	322.7
789.242	369.51
789.636	334.4
790.029	334.4
790.423	282.91
790.816	355.47
791.21	327.38
791.603	285.25
791.997	360.15
792.39	250.14
792.783	367.17
793.176	353.13
793.569	318.02
793.962	257.17
794.355	252.49
794.748	296.96
795.141	275.89
795.534	296.96
795.927	299.3
796.319	348.45
796.712	332.06
797.105	257.17
797.497	266.53
797.89	325.04
798.282	334.4
798.674	280.57
799.067	266.53
799.459	294.61
799.851	332.06
800.243	341.43
800.635	296.96
801.027	350.79
801.419	257.17
801.811	308.66
802.203	294.61
802.594	350.79
802.986	322.7
803.378	219.72
803.769	311
804.161	247.8
804.552	285.25
804.944	303.98
805.335	289.93
805.726	362.49
806.118	303.98
806.509	355.47
806.9	186.95
807.291	325.04
807.682	318.02
808.073	336.74
808.464	315.68
808.855	320.36
809.245	289.93
809.636	339.09
810.027	245.46
810.417	303.98
810.808	367.17
811.198	320.36
811.589	353.13
811.979	385.9
812.369	313.34
812.759	311
813.15	292.27
813.54	294.61
813.93	287.59
814.32	289.93
814.71	367.17
815.1	311
815.489	341.43
815.879	318.02
816.269	385.9
816.658	329.72
817.048	301.64
817.438	280.57
817.827	282.91
818.216	306.32
818.606	385.9
818.995	325.04
819.384	245.46
819.773	329.72
820.163	308.66
820.552	226.74
820.941	313.34
821.33	259.51
821.718	329.72
822.107	367.17
822.496	334.4
822.885	261.85
823.273	247.8
823.662	315.68
824.05	409.3
824.439	280.57
824.827	311
825.216	275.89
825.604	299.3
825.992	308.66
826.38	292.27
826.768	381.21
827.156	299.3
827.544	296.96
827.932	306.32
828.32	339.09
828.708	360.15
829.096	320.36
829.483	332.06
829.871	303.98
830.259	245.46
830.646	294.61
831.034	282.91
831.421	327.38
831.808	303.98
832.196	320.36
832.583	303.98
832.97	268.87
833.357	325.04
833.744	261.85
834.131	339.09
834.518	374.19
834.905	229.08
835.292	285.25
835.678	367.17
836.065	296.96
836.452	320.36
836.838	271.21
837.225	299.3
837.611	287.59
837.998	313.34
838.384	320.36
838.77	329.72
839.157	292.27
839.543	294.61
839.929	243.12
840.315	311
840.701	282.91
841.087	343.77
841.473	280.57
841.858	343.77
842.244	306.32
842.63	353.13
843.015	360.15
843.401	371.85
843.787	350.79
844.172	346.11
844.557	271.21
844.943	285.25
845.328	355.47
845.713	294.61
846.098	325.04
846.483	259.51
846.868	327.38
847.253	240.78
847.638	360.15
848.023	247.8
848.408	280.57
848.793	348.45
849.177	322.7
849.562	332.06
849.947	280.57
850.331	334.4
850.715	339.09
851.1	313.34
851.484	289.93
851.868	339.09
852.253	289.93
852.637	287.59
853.021	322.7
853.405	311
853.789	320.36
854.173	296.96
854.557	327.38
854.94	350.79
855.324	278.23
855.708	292.27
856.091	327.38
856.475	306.32
856.858	341.43
857.242	247.8
857.625	367.17
858.009	306.32
858.392	346.11
858.775	364.83
859.158	350.79
859.541	343.77
859.924	238.44
860.307	282.91
860.69	306.32
861.073	247.8
861.456	322.7
861.838	346.11
862.221	278.23
862.604	289.93
862.986	327.38
863.369	322.7
863.751	329.72
864.133	289.93
864.516	268.87
864.898	254.83
865.28	275.89
865.662	315.68
866.044	315.68
866.426	374.19
866.808	362.49
867.19	308.66
867.572	299.3
867.954	294.61
868.336	278.23
868.717	313.34
869.099	245.46
869.48	282.91
869.862	285.25
870.243	360.15
870.625	327.38
871.006	240.78
871.387	273.55
871.768	318.02
872.149	318.02
872.53	311
872.911	280.57
873.292	254.83
873.673	306.32
874.054	329.72
874.435	259.51
874.815	278.23
875.196	320.36
875.577	322.7
875.957	273.55
876.338	318.02
876.718	294.61
877.098	212.7
877.479	350.79
877.859	315.68
878.239	301.64
878.619	350.79
878.999	289.93
879.379	299.3
879.759	303.98
880.139	348.45
880.519	332.06
880.898	311
881.278	367.17
881.658	355.47
882.037	296.96
882.417	280.57
882.796	325.04
883.176	282.91
883.555	329.72
883.934	299.3
884.313	325.04
884.693	289.93
885.072	329.72
885.451	287.59
885.83	334.4
886.209	336.74
886.587	296.96
886.966	320.36
887.345	303.98
887.724	355.47
888.102	329.72
888.481	280.57
888.859	325.04
889.238	332.06
889.616	311
889.994	343.77
890.373	278.23
890.751	308.66
891.129	285.25
891.507	315.68
891.885	299.3
892.263	257.17
892.641	306.32
893.019	243.12
893.396	289.93
893.774	292.27
894.152	303.98
894.529	346.11
894.907	311
895.284	287.59
895.662	353.13
896.039	229.08
896.416	311
896.794	306.32
897.171	303.98
897.548	350.79
897.925	308.66
898.302	311
898.679	327.38
899.056	355.47
899.433	280.57
899.809	367.17
900.186	320.36
900.563	348.45
900.939	311
901.316	348.45
901.692	306.32
902.069	325.04
902.445	296.96
902.821	357.81
903.197	348.45
903.574	308.66
903.95	313.34
904.326	303.98
904.702	296.96
905.078	348.45
905.454	282.91
905.829	266.53
906.205	322.7
906.581	266.53
906.956	287.59
907.332	357.81
907.707	336.74
908.083	308.66
908.458	308.66
908.833	280.57
909.209	301.64
909.584	301.64
909.959	278.23
910.334	334.4
910.709	334.4
911.084	287.59
911.459	315.68
911.834	313.34
912.209	247.8
912.583	285.25
912.958	275.89
913.333	303.98
913.707	285.25
914.082	327.38
914.456	313.34
914.83	313.34
915.205	327.38
915.579	266.53
915.953	240.78
916.327	238.44
916.701	252.49
917.075	329.72
917.449	252.49
917.823	261.85
918.197	350.79
918.571	278.23
918.944	325.04
919.318	413.98
919.692	329.72
920.065	364.83
920.438	280.57
920.812	327.38
921.185	264.19
921.558	357.81
921.932	273.55
922.305	315.68
922.678	348.45
923.051	367.17
923.424	292.27
923.797	357.81
924.17	261.85
924.542	390.58
924.915	296.96
925.288	278.23
925.661	334.4
926.033	264.19
926.406	313.34
926.778	332.06
927.15	341.43
927.523	341.43
927.895	334.4
928.267	341.43
928.639	374.19
929.011	336.74
929.383	252.49
929.755	336.74
930.127	271.21
930.499	240.78
930.871	273.55
931.242	311
931.614	306.32
931.986	339.09
932.357	318.02
932.729	306.32
933.1	315.68
933.471	313.34
933.843	348.45
934.214	334.4
934.585	355.47
934.956	327.38
935.327	322.7
935.698	264.19
936.069	261.85
936.44	301.64
936.811	315.68
937.182	322.7
937.552	306.32
937.923	367.17
938.293	292.27
938.664	303.98
939.034	318.02
939.405	289.93
939.775	282.91
940.145	348.45
940.516	280.57
940.886	282.91
941.256	306.32
941.626	287.59
941.996	268.87
942.366	292.27
942.735	399.94
943.105	271.21
943.475	327.38
943.845	289.93
944.214	320.36
944.584	322.7
944.953	250.14
945.323	343.77
945.692	268.87
946.061	390.58
946.43	322.7
946.8	364.83
947.169	271.21
947.538	355.47
947.907	294.61
948.276	261.85
948.645	282.91
949.013	339.09
949.382	296.96
949.751	285.25
950.119	287.59
950.488	296.96
950.857	254.83
951.225	303.98
951.593	289.93
951.962	350.79
952.33	318.02
952.698	296.96
953.066	247.8
953.434	296.96
953.802	271.21
954.17	273.55
954.538	318.02
954.906	360.15
955.274	388.24
955.642	325.04
956.009	343.77
956.377	301.64
956.744	299.3
957.112	341.43
957.479	266.53
957.847	350.79
958.214	287.59
958.581	301.64
958.948	275.89
959.315	280.57
959.683	285.25
960.05	313.34
960.416	343.77
960.783	313.34
961.15	329.72
961.517	294.61
961.884	313.34
962.25	257.17
962.617	313.34
962.983	203.33
963.35	313.34
963.716	257.17
964.082	289.93
964.449	285.25
964.815	322.7
965.181	327.38
965.547	332.06
965.913	268.87
966.279	243.12
966.645	332.06
967.011	301.64
967.377	294.61
967.742	341.43
968.108	236.1
968.474	285.25
968.839	254.83
969.205	332.06
969.57	346.11
969.935	320.36
970.301	247.8
970.666	339.09
971.031	318.02
971.396	301.64
971.761	320.36
972.126	322.7
972.491	254.83
972.856	264.19
973.221	292.27
973.586	245.46
973.95	289.93
974.315	311
974.679	339.09
975.044	315.68
975.408	278.23
975.773	329.72
976.137	301.64
976.501	254.83
976.866	285.25
977.23	275.89
977.594	268.87
977.958	254.83
978.322	367.17
978.686	327.38
979.049	336.74
979.413	332.06
979.777	385.9
980.141	278.23
980.504	329.72
980.868	292.27
981.231	369.51
981.595	282.91
981.958	289.93
982.321	273.55
982.684	254.83
983.048	275.89
983.411	278.23
983.774	320.36
984.137	231.42
984.5	287.59
984.862	313.34
985.225	313.34
985.588	268.87
985.951	303.98
986.313	294.61
986.676	285.25
987.038	271.21
987.401	313.34
987.763	355.47
988.125	322.7
988.488	322.7
988.85	329.72
989.212	336.74
989.574	282.91
989.936	308.66
990.298	341.43
990.66	367.17
991.022	306.32
991.383	343.77
991.745	282.91
992.107	243.12
992.468	339.09
992.83	332.06
993.191	299.3
993.553	329.72
993.914	282.91
994.275	292.27
994.637	299.3
994.998	343.77
995.359	348.45
995.72	212.7
996.081	306.32
996.442	311
996.803	280.57
997.163	268.87
997.524	285.25
997.885	355.47
998.245	296.96
998.606	273.55
998.966	350.79
999.327	346.11
999.687	320.36
1000.047	350.79
1000.408	268.87
1000.768	294.61
1001.128	320.36
1001.488	320.36
1001.848	303.98
1002.208	289.93
1002.568	280.57
1002.927	268.87
1003.287	273.55
1003.647	341.43
1004.007	292.27
1004.366	339.09
1004.726	266.53
1005.085	273.55
1005.444	350.79
1005.804	245.46
1006.163	292.27
1006.522	313.34
1006.881	306.32
1007.24	285.25
1007.599	348.45
1007.958	236.1
1008.317	247.8
1008.676	303.98
1009.035	369.51
1009.393	353.13
1009.752	311
1010.111	280.57
1010.469	224.4
1010.828	308.66
1011.186	318.02
1011.544	315.68
1011.903	278.23
1012.261	348.45
1012.619	311
1012.977	311
1013.335	378.87
1013.693	285.25
1014.051	301.64
1014.409	254.83
1014.767	287.59
1015.124	266.53
1015.482	285.25
1015.84	315.68
1016.197	320.36
1016.555	257.17
1016.912	313.34
1017.269	261.85
1017.627	332.06
1017.984	343.77
1018.341	294.61
1018.698	280.57
1019.055	264.19
1019.412	341.43
1019.769	313.34
1020.126	299.3
1020.483	315.68
1020.84	250.14
1021.196	294.61
1021.553	275.89
1021.909	264.19
1022.266	285.25
1022.622	318.02
1022.979	322.7
1023.335	303.98
1023.691	301.64
1024.047	322.7
1024.404	311
1024.76	233.76
1025.116	327.38
1025.472	254.83
1025.827	336.74
1026.183	334.4
1026.539	343.77
1026.895	353.13
1027.25	282.91
1027.606	334.4
1027.961	261.85
1028.317	299.3
1028.672	327.38
1029.028	353.13
1029.383	252.49
1029.738	306.32
1030.093	311
1030.448	315.68
1030.803	275.89
1031.158	320.36
1031.513	318.02
1031.868	292.27
1032.223	360.15
1032.577	318.02
1032.932	287.59
1033.287	282.91
1033.641	245.46
1033.996	275.89
1034.35	231.42
1034.704	266.53
1035.059	278.23
1035.413	292.27
1035.767	292.27
1036.121	292.27
