Data from Al_FLMS009871__1025__16-23-58-415.txt Node

Date: Fri Mar 08 16:23:58 CST 2024
User: pe5414po
Spectrometer: FLMS00987
Trigger mode: 0
Integration Time (sec): 1.000000E-1
Scans to average: 1
Electric dark correction enabled: true
Nonlinearity correction enabled: false
Boxcar width: 0
XAxis mode: Wavelengths
Number of Pixels in Spectrum: 2048
>>>>>Begin Spectral Data<<<<<
188.938	-57.78
189.409	-57.78
189.879	-57.78
190.349	-83.53
190.819	-43.74
191.29	-123.32
191.76	-111.61
192.23	-62.46
192.7	-50.76
193.17	14.77
193.64	35.84
194.109	-50.76
194.579	-55.44
195.049	-43.74
195.519	-10.97
195.988	82.65
196.458	26.48
196.927	99.03
197.397	33.5
197.866	82.65
198.336	134.14
198.805	162.23
199.274	106.06
199.744	157.55
200.213	195
200.682	159.89
201.151	220.74
201.62	248.83
202.089	232.44
202.558	232.44
203.027	276.91
203.495	312.02
203.964	302.66
204.433	288.62
204.902	274.57
205.37	312.02
205.839	323.73
206.307	244.15
206.776	302.66
207.244	314.36
207.712	333.09
208.181	260.53
208.649	300.32
209.117	319.04
209.585	246.49
210.053	227.76
210.521	293.3
210.989	314.36
211.457	276.91
211.925	267.55
212.393	319.04
212.861	248.83
213.328	213.72
213.796	255.85
214.264	349.47
214.731	295.64
215.199	279.26
215.666	260.53
216.133	258.19
216.601	267.55
217.068	232.44
217.535	326.07
218.003	293.3
218.47	227.76
218.937	283.94
219.404	312.02
219.871	265.21
220.338	230.1
220.805	276.91
221.271	253.51
221.738	281.6
222.205	300.32
222.671	274.57
223.138	223.08
223.605	305
224.071	286.28
224.538	328.41
225.004	220.74
225.47	227.76
225.937	283.94
226.403	251.17
226.869	295.64
227.335	241.81
227.801	239.47
228.267	272.23
228.733	293.3
229.199	302.66
229.665	223.08
230.131	288.62
230.597	290.96
231.062	300.32
231.528	314.36
231.994	274.57
232.459	227.76
232.925	258.19
233.39	234.78
233.856	283.94
234.321	253.51
234.786	253.51
235.252	279.26
235.717	253.51
236.182	239.47
236.647	305
237.112	281.6
237.577	255.85
238.042	333.09
238.507	274.57
238.972	321.38
239.436	281.6
239.901	262.87
240.366	321.38
240.83	361.17
241.295	300.32
241.76	333.09
242.224	323.73
242.688	258.19
243.153	223.08
243.617	286.28
244.081	288.62
244.545	237.13
245.01	363.51
245.474	265.21
245.938	316.7
246.402	349.47
246.866	295.64
247.33	223.08
247.793	290.96
248.257	241.81
248.721	267.55
249.185	241.81
249.648	227.76
250.112	220.74
250.575	260.53
251.039	237.13
251.502	335.43
251.965	309.68
252.429	269.89
252.892	321.38
253.355	314.36
253.818	260.53
254.281	276.91
254.744	255.85
255.207	305
255.67	330.75
256.133	283.94
256.596	293.3
257.059	290.96
257.522	297.98
257.984	276.91
258.447	230.1
258.909	333.09
259.372	281.6
259.834	283.94
260.297	316.7
260.759	307.34
261.221	288.62
261.684	276.91
262.146	347.13
262.608	358.83
263.07	293.3
263.532	283.94
263.994	326.07
264.456	262.87
264.918	290.96
265.38	295.64
265.842	375.22
266.303	195
266.765	272.23
267.227	305
267.688	349.47
268.15	281.6
268.611	358.83
269.072	267.55
269.534	255.85
269.995	290.96
270.456	295.64
270.918	300.32
271.379	330.75
271.84	230.1
272.301	253.51
272.762	218.4
273.223	187.97
273.684	239.47
274.144	255.85
274.605	295.64
275.066	258.19
275.527	295.64
275.987	335.43
276.448	290.96
276.908	293.3
277.369	321.38
277.829	302.66
278.289	297.98
278.75	272.23
279.21	300.32
279.67	295.64
280.13	342.45
280.59	297.98
281.05	333.09
281.51	239.47
281.97	316.7
282.43	344.79
282.89	307.34
283.35	321.38
283.809	302.66
284.269	354.15
284.729	283.94
285.188	316.7
285.648	290.96
286.107	267.55
286.567	246.49
287.026	272.23
287.485	302.66
287.944	314.36
288.404	312.02
288.863	314.36
289.322	333.09
289.781	323.73
290.24	302.66
290.699	319.04
291.158	316.7
291.616	335.43
292.075	279.26
292.534	342.45
292.992	305
293.451	265.21
293.91	321.38
294.368	307.34
294.827	354.15
295.285	293.3
295.743	272.23
296.202	290.96
296.66	358.83
297.118	279.26
297.576	290.96
298.034	272.23
298.492	305
298.95	309.68
299.408	232.44
299.866	253.51
300.324	281.6
300.781	302.66
301.239	314.36
301.697	312.02
302.154	347.13
302.612	258.19
303.069	267.55
303.527	312.02
303.984	281.6
304.441	295.64
304.899	340.11
305.356	307.34
305.813	300.32
306.27	365.85
306.727	307.34
307.184	328.41
307.641	279.26
308.098	286.28
308.555	295.64
309.012	344.79
309.468	281.6
309.925	368.2
310.382	288.62
310.838	302.66
311.295	358.83
311.751	295.64
312.208	276.91
312.664	344.79
313.12	309.68
313.577	314.36
314.033	386.92
314.489	316.7
314.945	335.43
315.401	384.58
315.857	293.3
316.313	248.83
316.769	307.34
317.225	344.79
317.681	272.23
318.136	342.45
318.592	302.66
319.048	316.7
319.503	255.85
319.959	300.32
320.414	288.62
320.869	323.73
321.325	288.62
321.78	276.91
322.235	272.23
322.691	293.3
323.146	293.3
323.601	279.26
324.056	358.83
324.511	328.41
324.966	276.91
325.421	333.09
325.875	274.57
326.33	295.64
326.785	290.96
327.24	302.66
327.694	312.02
328.149	333.09
328.603	312.02
329.058	272.23
329.512	300.32
329.966	305
330.421	307.34
330.875	234.78
331.329	290.96
331.783	314.36
332.237	330.75
332.691	302.66
333.145	272.23
333.599	234.78
334.053	354.15
334.507	361.17
334.96	276.91
335.414	319.04
335.868	323.73
336.321	316.7
336.775	246.49
337.228	354.15
337.682	328.41
338.135	368.2
338.588	279.26
339.042	342.45
339.495	312.02
339.948	384.58
340.401	290.96
340.854	316.7
341.307	377.56
341.76	323.73
342.213	305
342.666	351.81
343.119	302.66
343.571	295.64
344.024	368.2
344.477	340.11
344.929	265.21
345.382	281.6
345.834	344.79
346.287	333.09
346.739	276.91
347.191	351.81
347.644	365.85
348.096	335.43
348.548	326.07
349	283.94
349.452	326.07
349.904	290.96
350.356	293.3
350.808	358.83
351.26	286.28
351.711	321.38
352.163	323.73
352.615	356.49
353.066	337.77
353.518	251.17
353.969	337.77
354.421	354.15
354.872	300.32
355.324	351.81
355.775	302.66
356.226	225.42
356.677	330.75
357.128	295.64
357.579	358.83
358.03	276.91
358.481	361.17
358.932	295.64
359.383	326.07
359.834	290.96
360.285	279.26
360.735	340.11
361.186	340.11
361.637	297.98
362.087	328.41
362.538	302.66
362.988	286.28
363.438	305
363.889	335.43
364.339	356.49
364.789	319.04
365.239	312.02
365.689	237.13
366.139	326.07
366.589	328.41
367.039	337.77
367.489	267.55
367.939	337.77
368.389	326.07
368.839	319.04
369.288	286.28
369.738	293.3
370.187	323.73
370.637	302.66
371.086	314.36
371.536	363.51
371.985	314.36
372.434	260.53
372.884	286.28
373.333	274.57
373.782	377.56
374.231	274.57
374.68	330.75
375.129	330.75
375.578	286.28
376.027	262.87
376.475	314.36
376.924	342.45
377.373	333.09
377.822	279.26
378.27	300.32
378.719	340.11
379.167	283.94
379.616	349.47
380.064	330.75
380.512	262.87
380.961	347.13
381.409	361.17
381.857	347.13
382.305	323.73
382.753	276.91
383.201	328.41
383.649	349.47
384.097	281.6
384.545	326.07
384.992	297.98
385.44	290.96
385.888	258.19
386.335	309.68
386.783	335.43
387.231	368.2
387.678	361.17
388.125	302.66
388.573	300.32
389.02	321.38
389.467	305
389.914	288.62
390.362	333.09
390.809	286.28
391.256	337.77
391.703	288.62
392.15	283.94
392.596	316.7
393.043	335.43
393.49	319.04
393.937	274.57
394.383	328.41
394.83	377.56
395.276	297.98
395.723	276.91
396.169	300.32
396.616	300.32
397.062	328.41
397.508	321.38
397.954	312.02
398.401	361.17
398.847	356.49
399.293	290.96
399.739	337.77
400.185	309.68
400.631	372.88
401.076	328.41
401.522	370.54
401.968	290.96
402.414	290.96
402.859	316.7
403.305	333.09
403.75	302.66
404.196	309.68
404.641	314.36
405.086	302.66
405.532	340.11
405.977	295.64
406.422	337.77
406.867	302.66
407.312	314.36
407.757	295.64
408.202	274.57
408.647	276.91
409.092	342.45
409.537	321.38
409.982	335.43
410.426	262.87
410.871	316.7
411.316	349.47
411.76	356.49
412.205	288.62
412.649	295.64
413.093	321.38
413.538	295.64
413.982	328.41
414.426	354.15
414.87	307.34
415.314	323.73
415.758	288.62
416.202	230.1
416.646	288.62
417.09	382.24
417.534	302.66
417.978	288.62
418.421	372.88
418.865	354.15
419.309	326.07
419.752	305
420.196	358.83
420.639	321.38
421.083	321.38
421.526	326.07
421.969	335.43
422.412	356.49
422.856	333.09
423.299	361.17
423.742	302.66
424.185	330.75
424.628	276.91
425.071	386.92
425.513	400.96
425.956	305
426.399	267.55
426.842	279.26
427.284	319.04
427.727	288.62
428.169	307.34
428.612	283.94
429.054	335.43
429.497	342.45
429.939	321.38
430.381	358.83
430.823	384.58
431.265	368.2
431.707	312.02
432.149	342.45
432.591	323.73
433.033	361.17
433.475	305
433.917	272.23
434.359	269.89
434.8	354.15
435.242	349.47
435.684	297.98
436.125	375.22
436.567	307.34
437.008	340.11
437.449	276.91
437.891	279.26
438.332	323.73
438.773	344.79
439.214	295.64
439.656	316.7
440.097	293.3
440.538	227.76
440.978	316.7
441.419	326.07
441.86	283.94
442.301	262.87
442.742	328.41
443.182	307.34
443.623	312.02
444.063	379.9
444.504	248.83
444.944	323.73
445.385	335.43
445.825	290.96
446.265	330.75
446.706	302.66
447.146	330.75
447.586	372.88
448.026	262.87
448.466	286.28
448.906	295.64
449.346	248.83
449.786	321.38
450.225	356.49
450.665	344.79
451.105	330.75
451.544	316.7
451.984	328.41
452.424	290.96
452.863	302.66
453.302	258.19
453.742	293.3
454.181	333.09
454.62	356.49
455.059	379.9
455.499	293.3
455.938	309.68
456.377	321.38
456.816	342.45
457.254	368.2
457.693	305
458.132	384.58
458.571	314.36
459.01	368.2
459.448	290.96
459.887	312.02
460.325	323.73
460.764	307.34
461.202	337.77
461.641	347.13
462.079	220.74
462.517	321.38
462.955	274.57
463.393	286.28
463.832	281.6
464.27	321.38
464.708	300.32
465.145	300.32
465.583	260.53
466.021	319.04
466.459	272.23
466.897	351.81
467.334	347.13
467.772	293.3
468.209	393.94
468.647	319.04
469.084	372.88
469.522	319.04
469.959	328.41
470.396	309.68
470.833	342.45
471.271	312.02
471.708	342.45
472.145	370.54
472.582	305
473.019	316.7
473.456	248.83
473.892	260.53
474.329	396.28
474.766	307.34
475.202	368.2
475.639	316.7
476.076	344.79
476.512	361.17
476.949	307.34
477.385	333.09
477.821	302.66
478.258	316.7
478.694	330.75
479.13	307.34
479.566	344.79
480.002	347.13
480.438	293.3
480.874	342.45
481.31	293.3
481.746	297.98
482.181	347.13
482.617	314.36
483.053	288.62
483.488	361.17
483.924	274.57
484.36	333.09
484.795	321.38
485.23	283.94
485.666	354.15
486.101	290.96
486.536	297.98
486.971	286.28
487.407	290.96
487.842	372.88
488.277	281.6
488.712	255.85
489.146	335.43
489.581	305
490.016	302.66
490.451	305
490.885	314.36
491.32	302.66
491.755	321.38
492.189	300.32
492.624	316.7
493.058	265.21
493.492	328.41
493.927	314.36
494.361	290.96
494.795	279.26
495.229	351.81
495.663	305
496.097	312.02
496.531	276.91
496.965	269.89
497.399	307.34
497.833	340.11
498.266	379.9
498.7	241.81
499.134	302.66
499.567	269.89
500.001	370.54
500.434	316.7
500.868	297.98
501.301	328.41
501.734	415.01
502.168	340.11
502.601	354.15
503.034	307.34
503.467	361.17
503.9	323.73
504.333	309.68
504.766	269.89
505.199	274.57
505.632	358.83
506.064	232.44
506.497	286.28
506.93	293.3
507.362	356.49
507.795	305
508.227	279.26
508.66	344.79
509.092	305
509.524	248.83
509.956	321.38
510.389	372.88
510.821	349.47
511.253	274.57
511.685	340.11
512.117	244.15
512.549	302.66
512.981	337.77
513.412	295.64
513.844	253.51
514.276	333.09
514.707	319.04
515.139	314.36
515.571	326.07
516.002	281.6
516.433	307.34
516.865	347.13
517.296	279.26
517.727	330.75
518.159	319.04
518.59	335.43
519.021	295.64
519.452	302.66
519.883	295.64
520.314	319.04
520.744	372.88
521.175	330.75
521.606	333.09
522.037	316.7
522.467	333.09
522.898	274.57
523.328	276.91
523.759	293.3
524.189	321.38
524.62	302.66
525.05	295.64
525.48	335.43
525.91	351.81
526.341	290.96
526.771	272.23
527.201	293.3
527.631	363.51
528.061	326.07
528.49	309.68
528.92	323.73
529.35	351.81
529.78	349.47
530.209	321.38
530.639	319.04
531.068	312.02
531.498	344.79
531.927	347.13
532.357	290.96
532.786	286.28
533.215	365.85
533.644	251.17
534.074	300.32
534.503	319.04
534.932	293.3
535.361	290.96
535.79	340.11
536.218	403.3
536.647	328.41
537.076	328.41
537.505	337.77
537.933	314.36
538.362	370.54
538.79	295.64
539.219	351.81
539.647	365.85
540.076	255.85
540.504	288.62
540.932	283.94
541.36	326.07
541.788	342.45
542.217	389.26
542.645	354.15
543.073	290.96
543.5	349.47
543.928	326.07
544.356	293.3
544.784	344.79
545.211	305
545.639	258.19
546.067	326.07
546.494	286.28
546.922	297.98
547.349	283.94
547.776	293.3
548.204	274.57
548.631	316.7
549.058	274.57
549.485	290.96
549.912	295.64
550.339	333.09
550.766	340.11
551.193	398.62
551.62	356.49
552.047	326.07
552.474	293.3
552.9	309.68
553.327	307.34
553.754	286.28
554.18	283.94
554.607	333.09
555.033	347.13
555.459	326.07
555.886	354.15
556.312	314.36
556.738	349.47
557.164	328.41
557.59	265.21
558.016	265.21
558.442	279.26
558.868	276.91
559.294	267.55
559.72	262.87
560.145	407.98
560.571	344.79
560.997	274.57
561.422	377.56
561.848	347.13
562.273	288.62
562.699	335.43
563.124	309.68
563.549	379.9
563.974	333.09
564.4	349.47
564.825	358.83
565.25	323.73
565.675	312.02
566.1	340.11
566.525	365.85
566.95	347.13
567.374	260.53
567.799	290.96
568.224	281.6
568.648	262.87
569.073	281.6
569.497	260.53
569.922	342.45
570.346	351.81
570.771	356.49
571.195	290.96
571.619	302.66
572.043	321.38
572.467	344.79
572.891	276.91
573.315	333.09
573.739	314.36
574.163	309.68
574.587	269.89
575.011	354.15
575.435	391.6
575.858	265.21
576.282	267.55
576.705	283.94
577.129	288.62
577.552	419.69
577.976	309.68
578.399	363.51
578.822	319.04
579.245	312.02
579.669	274.57
580.092	319.04
580.515	293.3
580.938	347.13
581.361	351.81
581.784	309.68
582.206	319.04
582.629	300.32
583.052	286.28
583.474	283.94
583.897	333.09
584.32	342.45
584.742	319.04
585.165	302.66
585.587	370.54
586.009	330.75
586.431	321.38
586.854	351.81
587.276	305
587.698	316.7
588.12	328.41
588.542	314.36
588.964	312.02
589.386	335.43
589.807	344.79
590.229	351.81
590.651	302.66
591.073	295.64
591.494	297.98
591.916	274.57
592.337	321.38
592.759	342.45
593.18	302.66
593.601	260.53
594.022	342.45
594.444	281.6
594.865	279.26
595.286	295.64
595.707	297.98
596.128	232.44
596.549	300.32
596.97	368.2
597.39	340.11
597.811	335.43
598.232	340.11
598.652	253.51
599.073	426.71
599.494	300.32
599.914	302.66
600.334	305
600.755	342.45
601.175	260.53
601.595	319.04
602.015	342.45
602.436	316.7
602.856	368.2
603.276	344.79
603.696	351.81
604.115	344.79
604.535	316.7
604.955	356.49
605.375	326.07
605.794	358.83
606.214	330.75
606.634	340.11
607.053	347.13
607.473	307.34
607.892	286.28
608.311	305
608.731	286.28
609.15	323.73
609.569	326.07
609.988	321.38
610.407	312.02
610.826	330.75
611.245	288.62
611.664	307.34
612.083	333.09
612.501	295.64
612.92	286.28
613.339	274.57
613.757	354.15
614.176	283.94
614.594	297.98
615.013	302.66
615.431	351.81
615.85	377.56
616.268	351.81
616.686	293.3
617.104	309.68
617.522	330.75
617.94	286.28
618.358	363.51
618.776	286.28
619.194	384.58
619.612	384.58
620.03	321.38
620.447	302.66
620.865	274.57
621.282	337.77
621.7	342.45
622.117	342.45
622.535	365.85
622.952	305
623.369	337.77
623.787	349.47
624.204	312.02
624.621	300.32
625.038	330.75
625.455	347.13
625.872	319.04
626.289	351.81
626.706	393.94
627.123	337.77
627.539	262.87
627.956	300.32
628.373	312.02
628.789	319.04
629.206	328.41
629.622	351.81
630.038	314.36
630.455	323.73
630.871	272.23
631.287	281.6
631.703	326.07
632.12	363.51
632.536	227.76
632.952	342.45
633.368	281.6
633.783	307.34
634.199	382.24
634.615	351.81
635.031	297.98
635.446	300.32
635.862	372.88
636.277	279.26
636.693	302.66
637.108	297.98
637.524	361.17
637.939	251.17
638.354	279.26
638.77	281.6
639.185	330.75
639.6	330.75
640.015	312.02
640.43	283.94
640.845	351.81
641.259	347.13
641.674	305
642.089	323.73
642.504	328.41
642.918	293.3
643.333	342.45
643.747	312.02
644.162	400.96
644.576	281.6
644.991	379.9
645.405	344.79
645.819	295.64
646.233	288.62
646.647	351.81
647.061	321.38
647.475	279.26
647.889	321.38
648.303	368.2
648.717	283.94
649.131	258.19
649.545	326.07
649.958	300.32
650.372	267.55
650.785	300.32
651.199	344.79
651.612	316.7
652.026	347.13
652.439	316.7
652.852	333.09
653.266	321.38
653.679	340.11
654.092	328.41
654.505	316.7
654.918	377.56
655.331	314.36
655.744	276.91
656.156	290.96
656.569	344.79
656.982	365.85
657.394	307.34
657.807	312.02
658.22	319.04
658.632	283.94
659.044	305
659.457	279.26
659.869	309.68
660.281	356.49
660.693	314.36
661.106	307.34
661.518	335.43
661.93	286.28
662.342	323.73
662.754	340.11
663.165	274.57
663.577	330.75
663.989	316.7
664.401	330.75
664.812	248.83
665.224	314.36
665.635	333.09
666.047	274.57
666.458	384.58
666.869	340.11
667.281	288.62
667.692	358.83
668.103	281.6
668.514	281.6
668.925	323.73
669.336	302.66
669.747	351.81
670.158	281.6
670.569	384.58
670.979	307.34
671.39	295.64
671.801	340.11
672.211	328.41
672.622	337.77
673.032	312.02
673.443	344.79
673.853	281.6
674.263	314.36
674.674	272.23
675.084	253.51
675.494	321.38
675.904	319.04
676.314	330.75
676.724	286.28
677.134	323.73
677.544	328.41
677.953	319.04
678.363	351.81
678.773	340.11
679.182	358.83
679.592	295.64
680.001	333.09
680.411	302.66
680.82	267.55
681.23	253.51
681.639	377.56
682.048	326.07
682.457	319.04
682.866	307.34
683.275	356.49
683.684	290.96
684.093	316.7
684.502	337.77
684.911	326.07
685.32	305
685.728	328.41
686.137	312.02
686.546	295.64
686.954	358.83
687.363	326.07
687.771	323.73
688.179	351.81
688.588	382.24
688.996	281.6
689.404	269.89
689.812	297.98
690.22	312.02
690.628	391.6
691.036	323.73
691.444	307.34
691.852	312.02
692.26	347.13
692.667	382.24
693.075	363.51
693.483	297.98
693.89	337.77
694.298	305
694.705	288.62
695.112	358.83
695.52	279.26
695.927	333.09
696.334	227.76
696.741	382.24
697.148	328.41
697.555	326.07
697.962	368.2
698.369	407.98
698.776	326.07
699.183	361.17
699.59	260.53
699.996	323.73
700.403	302.66
700.81	349.47
701.216	293.3
701.623	354.15
702.029	330.75
702.435	356.49
702.842	309.68
703.248	333.09
703.654	269.89
704.06	351.81
704.466	379.9
704.872	379.9
705.278	382.24
705.684	269.89
706.09	312.02
706.496	340.11
706.901	330.75
707.307	321.38
707.712	269.89
708.118	290.96
708.523	351.81
708.929	333.09
709.334	309.68
709.74	340.11
710.145	319.04
710.55	283.94
710.955	307.34
711.36	248.83
711.765	309.68
712.17	337.77
712.575	393.94
712.98	855.03
713.385	316.7
713.789	220.74
714.194	267.55
714.599	295.64
715.003	319.04
715.408	293.3
715.812	302.66
716.217	372.88
716.621	283.94
717.025	314.36
717.429	281.6
717.833	305
718.238	382.24
718.642	309.68
719.046	321.38
719.449	342.45
719.853	283.94
720.257	283.94
720.661	305
721.065	281.6
721.468	255.85
721.872	258.19
722.275	300.32
722.679	358.83
723.082	300.32
723.485	379.9
723.889	312.02
724.292	347.13
724.695	300.32
725.098	328.41
725.501	297.98
725.904	300.32
726.307	328.41
726.71	319.04
727.113	323.73
727.516	316.7
727.918	365.85
728.321	342.45
728.724	323.73
729.126	288.62
729.529	316.7
729.931	323.73
730.333	297.98
730.736	354.15
731.138	354.15
731.54	307.34
731.942	274.57
732.344	302.66
732.746	316.7
733.148	297.98
733.55	312.02
733.952	342.45
734.354	290.96
734.756	288.62
735.157	288.62
735.559	290.96
735.96	312.02
736.362	309.68
736.763	335.43
737.165	297.98
737.566	248.83
737.967	356.49
738.368	342.45
738.77	344.79
739.171	363.51
739.572	279.26
739.973	342.45
740.374	316.7
740.774	321.38
741.175	255.85
741.576	297.98
741.977	274.57
742.377	335.43
742.778	333.09
743.178	319.04
743.579	302.66
743.979	370.54
744.379	223.08
744.78	330.75
745.18	375.22
745.58	365.85
745.98	283.94
746.38	386.92
746.78	272.23
747.18	361.17
747.58	351.81
747.98	290.96
748.38	258.19
748.779	361.17
749.179	419.69
749.578	312.02
749.978	328.41
750.377	335.43
750.777	297.98
751.176	274.57
751.575	351.81
751.975	295.64
752.374	349.47
752.773	316.7
753.172	319.04
753.571	279.26
753.97	302.66
754.369	290.96
754.768	260.53
755.166	342.45
755.565	297.98
755.964	328.41
756.362	356.49
756.761	344.79
757.159	251.17
757.558	335.43
757.956	328.41
758.354	290.96
758.753	330.75
759.151	354.15
759.549	321.38
759.947	351.81
760.345	323.73
760.743	248.83
761.141	288.62
761.539	276.91
761.936	330.75
762.334	255.85
762.732	283.94
763.129	307.34
763.527	400.96
763.924	365.85
764.322	337.77
764.719	300.32
765.117	330.75
765.514	335.43
765.911	309.68
766.308	272.23
766.705	319.04
767.102	281.6
767.499	349.47
767.896	281.6
768.293	248.83
768.69	319.04
769.086	351.81
769.483	356.49
769.88	342.45
770.276	297.98
770.673	347.13
771.069	302.66
771.466	309.68
771.862	340.11
772.258	293.3
772.654	361.17
773.05	272.23
773.447	375.22
773.843	286.28
774.239	244.15
774.634	344.79
775.03	286.28
775.426	347.13
775.822	335.43
776.218	295.64
776.613	307.34
777.009	386.92
777.404	314.36
777.8	340.11
778.195	330.75
778.59	340.11
778.986	342.45
779.381	354.15
779.776	300.32
780.171	319.04
780.566	305
780.961	288.62
781.356	330.75
781.751	276.91
782.146	323.73
782.54	363.51
782.935	307.34
783.33	365.85
783.724	297.98
784.119	326.07
784.513	279.26
784.908	279.26
785.302	319.04
785.696	293.3
786.09	354.15
786.485	312.02
786.879	288.62
787.273	272.23
787.667	253.51
788.061	368.2
788.454	342.45
788.848	302.66
789.242	230.1
789.636	337.77
790.029	305
790.423	354.15
790.816	314.36
791.21	340.11
791.603	295.64
791.997	302.66
792.39	363.51
792.783	297.98
793.176	319.04
793.569	316.7
793.962	272.23
794.355	283.94
794.748	372.88
795.141	333.09
795.534	274.57
795.927	319.04
796.319	286.28
796.712	302.66
797.105	283.94
797.497	258.19
797.89	272.23
798.282	293.3
798.674	290.96
799.067	295.64
799.459	302.66
799.851	290.96
800.243	305
800.635	234.78
801.027	330.75
801.419	314.36
801.811	305
802.203	316.7
802.594	319.04
802.986	305
803.378	316.7
803.769	302.66
804.161	307.34
804.552	309.68
804.944	307.34
805.335	372.88
805.726	305
806.118	297.98
806.509	239.47
806.9	241.81
807.291	274.57
807.682	340.11
808.073	316.7
808.464	307.34
808.855	326.07
809.245	286.28
809.636	333.09
810.027	307.34
810.417	340.11
810.808	358.83
811.198	302.66
811.589	288.62
811.979	297.98
812.369	351.81
812.759	342.45
813.15	375.22
813.54	293.3
813.93	326.07
814.32	265.21
814.71	288.62
815.1	333.09
815.489	361.17
815.879	358.83
816.269	365.85
816.658	344.79
817.048	283.94
817.438	302.66
817.827	351.81
818.216	370.54
818.606	288.62
818.995	403.3
819.384	337.77
819.773	340.11
820.163	302.66
820.552	274.57
820.941	300.32
821.33	351.81
821.718	281.6
822.107	262.87
822.496	314.36
822.885	305
823.273	321.38
823.662	314.36
824.05	337.77
824.439	218.4
824.827	227.76
825.216	389.26
825.604	363.51
825.992	286.28
826.38	314.36
826.768	309.68
827.156	321.38
827.544	246.49
827.932	340.11
828.32	368.2
828.708	342.45
829.096	342.45
829.483	314.36
829.871	319.04
830.259	314.36
830.646	326.07
831.034	260.53
831.421	340.11
831.808	295.64
832.196	297.98
832.583	302.66
832.97	279.26
833.357	309.68
833.744	283.94
834.131	330.75
834.518	356.49
834.905	335.43
835.292	309.68
835.678	309.68
836.065	347.13
836.452	333.09
836.838	241.81
837.225	337.77
837.611	290.96
837.998	290.96
838.384	321.38
838.77	297.98
839.157	314.36
839.543	328.41
839.929	216.06
840.315	314.36
840.701	326.07
841.087	344.79
841.473	305
841.858	319.04
842.244	316.7
842.63	312.02
843.015	307.34
843.401	396.28
843.787	333.09
844.172	326.07
844.557	300.32
844.943	302.66
845.328	337.77
845.713	297.98
846.098	330.75
846.483	393.94
846.868	305
847.253	300.32
847.638	321.38
848.023	314.36
848.408	319.04
848.793	251.17
849.177	347.13
849.562	253.51
849.947	307.34
850.331	309.68
850.715	279.26
851.1	300.32
851.484	244.15
851.868	330.75
852.253	272.23
852.637	288.62
853.021	314.36
853.405	347.13
853.789	309.68
854.173	328.41
854.557	316.7
854.94	363.51
855.324	389.26
855.708	258.19
856.091	333.09
856.475	297.98
856.858	288.62
857.242	302.66
857.625	274.57
858.009	288.62
858.392	269.89
858.775	326.07
859.158	319.04
859.541	347.13
859.924	354.15
860.307	321.38
860.69	279.26
861.073	300.32
861.456	272.23
861.838	307.34
862.221	272.23
862.604	246.49
862.986	272.23
863.369	309.68
863.751	312.02
864.133	286.28
864.516	258.19
864.898	295.64
865.28	286.28
865.662	356.49
866.044	330.75
866.426	372.88
866.808	302.66
867.19	358.83
867.572	375.22
867.954	337.77
868.336	316.7
868.717	333.09
869.099	253.51
869.48	347.13
869.862	370.54
870.243	391.6
870.625	288.62
871.006	314.36
871.387	309.68
871.768	288.62
872.149	354.15
872.53	265.21
872.911	321.38
873.292	328.41
873.673	335.43
874.054	349.47
874.435	337.77
874.815	370.54
875.196	361.17
875.577	316.7
875.957	356.49
876.338	305
876.718	302.66
877.098	293.3
877.479	326.07
877.859	375.22
878.239	288.62
878.619	290.96
878.999	347.13
879.379	326.07
879.759	281.6
880.139	354.15
880.519	323.73
880.898	258.19
881.278	368.2
881.658	319.04
882.037	293.3
882.417	241.81
882.796	251.17
883.176	276.91
883.555	328.41
883.934	328.41
884.313	349.47
884.693	363.51
885.072	330.75
885.451	314.36
885.83	305
886.209	333.09
886.587	358.83
886.966	337.77
887.345	344.79
887.724	354.15
888.102	316.7
888.481	356.49
888.859	295.64
889.238	312.02
889.616	293.3
889.994	302.66
890.373	356.49
890.751	340.11
891.129	328.41
891.507	244.15
891.885	328.41
892.263	347.13
892.641	356.49
893.019	328.41
893.396	389.26
893.774	328.41
894.152	314.36
894.529	375.22
894.907	253.51
895.284	321.38
895.662	342.45
896.039	293.3
896.416	319.04
896.794	337.77
897.171	295.64
897.548	255.85
897.925	305
898.302	309.68
898.679	323.73
899.056	288.62
899.433	305
899.809	288.62
900.186	333.09
900.563	344.79
900.939	297.98
901.316	307.34
901.692	358.83
902.069	297.98
902.445	321.38
902.821	321.38
903.197	307.34
903.574	309.68
903.95	293.3
904.326	314.36
904.702	267.55
905.078	283.94
905.454	319.04
905.829	267.55
906.205	358.83
906.581	349.47
906.956	309.68
907.332	323.73
907.707	340.11
908.083	305
908.458	305
908.833	276.91
909.209	391.6
909.584	295.64
909.959	293.3
910.334	260.53
910.709	293.3
911.084	297.98
911.459	363.51
911.834	370.54
912.209	297.98
912.583	342.45
912.958	302.66
913.333	269.89
913.707	293.3
914.082	354.15
914.456	297.98
914.83	267.55
915.205	283.94
915.579	290.96
915.953	288.62
916.327	349.47
916.701	307.34
917.075	281.6
917.449	305
917.823	363.51
918.197	337.77
918.571	316.7
918.944	337.77
919.318	312.02
919.692	297.98
920.065	328.41
920.438	316.7
920.812	286.28
921.185	272.23
921.558	316.7
921.932	290.96
922.305	302.66
922.678	382.24
923.051	347.13
923.424	302.66
923.797	281.6
924.17	314.36
924.542	316.7
924.915	309.68
925.288	319.04
925.661	253.51
926.033	382.24
926.406	297.98
926.778	286.28
927.15	309.68
927.523	323.73
927.895	297.98
928.267	316.7
928.639	293.3
929.011	258.19
929.383	297.98
929.755	269.89
930.127	293.3
930.499	305
930.871	288.62
931.242	363.51
931.614	297.98
931.986	337.77
932.357	349.47
932.729	283.94
933.1	269.89
933.471	293.3
933.843	225.42
934.214	262.87
934.585	356.49
934.956	255.85
935.327	300.32
935.698	248.83
936.069	342.45
936.44	234.78
936.811	337.77
937.182	333.09
937.552	382.24
937.923	312.02
938.293	319.04
938.664	323.73
939.034	251.17
939.405	274.57
939.775	295.64
940.145	356.49
940.516	274.57
940.886	330.75
941.256	225.42
941.626	391.6
941.996	361.17
942.366	281.6
942.735	342.45
943.105	323.73
943.475	288.62
943.845	312.02
944.214	300.32
944.584	307.34
944.953	293.3
945.323	344.79
945.692	281.6
946.061	295.64
946.43	330.75
946.8	239.47
947.169	283.94
947.538	258.19
947.907	326.07
948.276	300.32
948.645	326.07
949.013	300.32
949.382	354.15
949.751	237.13
950.119	319.04
950.488	400.96
950.857	276.91
951.225	326.07
951.593	337.77
951.962	328.41
952.33	330.75
952.698	297.98
953.066	391.6
953.434	290.96
953.802	281.6
954.17	347.13
954.538	312.02
954.906	349.47
955.274	337.77
955.642	328.41
956.009	305
956.377	351.81
956.744	258.19
957.112	281.6
957.479	347.13
957.847	255.85
958.214	279.26
958.581	363.51
958.948	337.77
959.315	319.04
959.683	328.41
960.05	312.02
960.416	293.3
960.783	272.23
961.15	300.32
961.517	314.36
961.884	300.32
962.25	300.32
962.617	314.36
962.983	333.09
963.35	316.7
963.716	267.55
964.082	347.13
964.449	293.3
964.815	255.85
965.181	265.21
965.547	274.57
965.913	347.13
966.279	262.87
966.645	281.6
967.011	295.64
967.377	328.41
967.742	337.77
968.108	286.28
968.474	351.81
968.839	279.26
969.205	323.73
969.57	319.04
969.935	288.62
970.301	372.88
970.666	363.51
971.031	358.83
971.396	300.32
971.761	269.89
972.126	321.38
972.491	237.13
972.856	365.85
973.221	295.64
973.586	297.98
973.95	342.45
974.315	286.28
974.679	258.19
975.044	312.02
975.408	335.43
975.773	288.62
976.137	297.98
976.501	283.94
976.866	328.41
977.23	326.07
977.594	246.49
977.958	326.07
978.322	323.73
978.686	309.68
979.049	321.38
979.413	272.23
979.777	279.26
980.141	288.62
980.504	295.64
980.868	300.32
981.231	300.32
981.595	368.2
981.958	358.83
982.321	297.98
982.684	286.28
983.048	262.87
983.411	342.45
983.774	295.64
984.137	293.3
984.5	349.47
984.862	262.87
985.225	372.88
985.588	316.7
985.951	328.41
986.313	248.83
986.676	323.73
987.038	283.94
987.401	312.02
987.763	356.49
988.125	302.66
988.488	321.38
988.85	319.04
989.212	309.68
989.574	309.68
989.936	276.91
990.298	309.68
990.66	300.32
991.022	323.73
991.383	314.36
991.745	307.34
992.107	230.1
992.468	290.96
992.83	340.11
993.191	340.11
993.553	386.92
993.914	251.17
994.275	361.17
994.637	342.45
994.998	342.45
995.359	347.13
995.72	312.02
996.081	316.7
996.442	316.7
996.803	326.07
997.163	276.91
997.524	314.36
997.885	340.11
998.245	279.26
998.606	316.7
998.966	269.89
999.327	265.21
999.687	300.32
1000.047	363.51
1000.408	312.02
1000.768	302.66
1001.128	309.68
1001.488	295.64
1001.848	293.3
1002.208	290.96
1002.568	300.32
1002.927	314.36
1003.287	386.92
1003.647	356.49
1004.007	276.91
1004.366	290.96
1004.726	321.38
1005.085	276.91
1005.444	305
1005.804	283.94
1006.163	342.45
1006.522	286.28
1006.881	293.3
1007.24	321.38
1007.599	319.04
1007.958	260.53
1008.317	297.98
1008.676	305
1009.035	272.23
1009.393	272.23
1009.752	279.26
1010.111	344.79
1010.469	274.57
1010.828	365.85
1011.186	295.64
1011.544	279.26
1011.903	307.34
1012.261	267.55
1012.619	258.19
1012.977	269.89
1013.335	283.94
1013.693	326.07
1014.051	288.62
1014.409	354.15
1014.767	363.51
1015.124	309.68
1015.482	227.76
1015.84	358.83
1016.197	312.02
1016.555	312.02
1016.912	319.04
1017.269	309.68
1017.627	258.19
1017.984	356.49
1018.341	305
1018.698	234.78
1019.055	342.45
1019.412	293.3
1019.769	309.68
1020.126	326.07
1020.483	295.64
1020.84	316.7
1021.196	281.6
1021.553	286.28
1021.909	288.62
1022.266	358.83
1022.622	288.62
1022.979	300.32
1023.335	386.92
1023.691	293.3
1024.047	305
1024.404	354.15
1024.76	267.55
1025.116	333.09
1025.472	328.41
1025.827	326.07
1026.183	274.57
1026.539	312.02
1026.895	255.85
1027.25	319.04
1027.606	326.07
1027.961	305
1028.317	290.96
1028.672	356.49
1029.028	337.77
1029.383	269.89
1029.738	297.98
1030.093	305
1030.448	286.28
1030.803	347.13
1031.158	344.79
1031.513	340.11
1031.868	302.66
1032.223	302.66
1032.577	384.58
1032.932	260.53
1033.287	309.68
1033.641	286.28
1033.996	319.04
1034.35	305
1034.704	255.85
1035.059	333.09
1035.413	274.57
1035.767	274.57
1036.121	274.57
