Data from Al_FLMS009871__1033__16-23-59-215.txt Node

Date: Fri Mar 08 16:23:59 CST 2024
User: pe5414po
Spectrometer: FLMS00987
Trigger mode: 0
Integration Time (sec): 1.000000E-1
Scans to average: 1
Electric dark correction enabled: true
Nonlinearity correction enabled: false
Boxcar width: 0
XAxis mode: Wavelengths
Number of Pixels in Spectrum: 2048
>>>>>Begin Spectral Data<<<<<
188.938	-87.33
189.409	-87.33
189.879	-87.33
190.349	-141.16
190.819	-80.31
191.29	-21.8
191.76	-99.03
192.23	-143.5
192.7	-33.5
193.17	-96.69
193.64	-17.12
194.109	-54.56
194.579	6.29
195.049	-87.33
195.519	43.74
195.988	-0.73
196.458	50.76
196.927	90.55
197.397	142.04
197.866	118.64
198.336	102.25
198.805	99.91
199.274	128
199.744	144.38
200.213	188.85
200.682	195.87
201.151	207.58
201.62	230.98
202.089	263.75
202.558	294.18
203.027	275.45
203.495	266.09
203.964	254.39
204.433	280.13
204.902	268.43
205.37	310.56
205.839	291.84
206.307	242.68
206.776	200.55
207.244	333.97
207.712	256.73
208.181	266.09
208.649	252.05
209.117	329.28
209.585	333.97
210.053	329.28
210.521	310.56
210.989	270.77
211.457	289.5
211.925	273.11
212.393	238
212.861	261.41
213.328	247.37
213.796	326.94
214.264	289.5
214.731	329.28
215.199	303.54
215.666	259.07
216.133	256.73
216.601	289.5
217.068	233.32
217.535	226.3
218.003	245.02
218.47	249.71
218.937	326.94
219.404	242.68
219.871	209.92
220.338	303.54
220.805	249.71
221.271	261.41
221.738	209.92
222.205	202.9
222.671	310.56
223.138	268.43
223.605	205.24
224.071	245.02
224.538	212.26
225.004	223.96
225.47	216.94
225.937	252.05
226.403	289.5
226.869	245.02
227.335	233.32
227.801	270.77
228.267	238
228.733	280.13
229.199	238
229.665	275.45
230.131	228.64
230.597	245.02
231.062	261.41
231.528	338.65
231.994	249.71
232.459	230.98
232.925	219.28
233.39	322.26
233.856	289.5
234.321	268.43
234.786	305.88
235.252	305.88
235.717	324.6
236.182	298.86
236.647	249.71
237.112	268.43
237.577	315.24
238.042	230.98
238.507	308.22
238.972	305.88
239.436	263.75
239.901	259.07
240.366	235.66
240.83	298.86
241.295	310.56
241.76	336.31
242.224	282.47
242.688	280.13
243.153	223.96
243.617	275.45
244.081	298.86
244.545	275.45
245.01	284.81
245.474	308.22
245.938	296.52
246.402	252.05
246.866	249.71
247.33	324.6
247.793	298.86
248.257	287.15
248.721	326.94
249.185	268.43
249.648	263.75
250.112	317.58
250.575	226.3
251.039	284.81
251.502	273.11
251.965	238
252.429	209.92
252.892	284.81
253.355	315.24
253.818	289.5
254.281	305.88
254.744	235.66
255.207	212.26
255.67	230.98
256.133	312.9
256.596	254.39
257.059	280.13
257.522	230.98
257.984	259.07
258.447	277.79
258.909	298.86
259.372	308.22
259.834	263.75
260.297	249.71
260.759	301.2
261.221	261.41
261.684	256.73
262.146	373.75
262.608	287.15
263.07	280.13
263.532	266.09
263.994	357.37
264.456	350.35
264.918	263.75
265.38	298.86
265.842	221.62
266.303	298.86
266.765	273.11
267.227	345.67
267.688	275.45
268.15	301.2
268.611	364.39
269.072	308.22
269.534	270.77
269.995	319.92
270.456	261.41
270.918	312.9
271.379	266.09
271.84	209.92
272.301	228.64
272.762	326.94
273.223	319.92
273.684	301.2
274.144	301.2
274.605	310.56
275.066	270.77
275.527	312.9
275.987	284.81
276.448	303.54
276.908	303.54
277.369	336.31
277.829	310.56
278.289	315.24
278.75	343.33
279.21	301.2
279.67	284.81
280.13	322.26
280.59	315.24
281.05	273.11
281.51	326.94
281.97	338.65
282.43	287.15
282.89	273.11
283.35	326.94
283.809	308.22
284.269	275.45
284.729	305.88
285.188	275.45
285.648	289.5
286.107	364.39
286.567	273.11
287.026	315.24
287.485	273.11
287.944	223.96
288.404	275.45
288.863	289.5
289.322	249.71
289.781	247.37
290.24	256.73
290.699	310.56
291.158	308.22
291.616	301.2
292.075	254.39
292.534	273.11
292.992	294.18
293.451	359.71
293.91	326.94
294.368	345.67
294.827	252.05
295.285	301.2
295.743	319.92
296.202	280.13
296.66	270.77
297.118	336.31
297.576	284.81
298.034	322.26
298.492	331.62
298.95	294.18
299.408	270.77
299.866	305.88
300.324	338.65
300.781	348.01
301.239	319.92
301.697	280.13
302.154	259.07
302.612	303.54
303.069	252.05
303.527	280.13
303.984	228.64
304.441	319.92
304.899	301.2
305.356	303.54
305.813	303.54
306.27	277.79
306.727	369.07
307.184	303.54
307.641	301.2
308.098	338.65
308.555	301.2
309.012	268.43
309.468	291.84
309.925	247.37
310.382	289.5
310.838	303.54
311.295	338.65
311.751	266.09
312.208	348.01
312.664	336.31
313.12	315.24
313.577	336.31
314.033	371.41
314.489	294.18
314.945	284.81
315.401	287.15
315.857	317.58
316.313	301.2
316.769	371.41
317.225	268.43
317.681	291.84
318.136	242.68
318.592	336.31
319.048	291.84
319.503	305.88
319.959	336.31
320.414	261.41
320.869	326.94
321.325	317.58
321.78	310.56
322.235	345.67
322.691	312.9
323.146	331.62
323.601	331.62
324.056	280.13
324.511	340.99
324.966	291.84
325.421	362.05
325.875	348.01
326.33	336.31
326.785	315.24
327.24	261.41
327.694	268.43
328.149	326.94
328.603	252.05
329.058	268.43
329.512	298.86
329.966	268.43
330.421	209.92
330.875	298.86
331.329	296.52
331.783	359.71
332.237	343.33
332.691	319.92
333.145	270.77
333.599	357.37
334.053	263.75
334.507	380.78
334.96	317.58
335.414	298.86
335.868	280.13
336.321	322.26
336.775	296.52
337.228	322.26
337.682	298.86
338.135	298.86
338.588	268.43
339.042	305.88
339.495	352.69
339.948	345.67
340.401	238
340.854	287.15
341.307	296.52
341.76	362.05
342.213	373.75
342.666	291.84
343.119	319.92
343.571	366.73
344.024	343.33
344.477	298.86
344.929	359.71
345.382	294.18
345.834	261.41
346.287	245.02
346.739	289.5
347.191	357.37
347.644	273.11
348.096	252.05
348.548	275.45
349	373.75
349.452	317.58
349.904	298.86
350.356	256.73
350.808	230.98
351.26	317.58
351.711	340.99
352.163	383.12
352.615	338.65
353.066	291.84
353.518	303.54
353.969	291.84
354.421	322.26
354.872	336.31
355.324	322.26
355.775	287.15
356.226	355.03
356.677	357.37
357.128	378.44
357.579	333.97
358.03	333.97
358.481	411.2
358.932	303.54
359.383	249.71
359.834	319.92
360.285	319.92
360.735	298.86
361.186	343.33
361.637	343.33
362.087	345.67
362.538	331.62
362.988	326.94
363.438	319.92
363.889	324.6
364.339	345.67
364.789	282.47
365.239	242.68
365.689	219.28
366.139	259.07
366.589	289.5
367.039	294.18
367.489	326.94
367.939	319.92
368.389	291.84
368.839	294.18
369.288	315.24
369.738	322.26
370.187	345.67
370.637	336.31
371.086	301.2
371.536	273.11
371.985	352.69
372.434	331.62
372.884	336.31
373.333	275.45
373.782	284.81
374.231	305.88
374.68	259.07
375.129	355.03
375.578	338.65
376.027	310.56
376.475	287.15
376.924	296.52
377.373	289.5
377.822	312.9
378.27	364.39
378.719	348.01
379.167	291.84
379.616	298.86
380.064	348.01
380.512	317.58
380.961	252.05
381.409	369.07
381.857	317.58
382.305	270.77
382.753	322.26
383.201	284.81
383.649	315.24
384.097	317.58
384.545	350.35
384.992	357.37
385.44	235.66
385.888	338.65
386.335	336.31
386.783	310.56
387.231	284.81
387.678	331.62
388.125	345.67
388.573	284.81
389.02	326.94
389.467	296.52
389.914	287.15
390.362	294.18
390.809	333.97
391.256	298.86
391.703	324.6
392.15	249.71
392.596	296.52
393.043	376.09
393.49	289.5
393.937	282.47
394.383	390.14
394.83	301.2
395.276	369.07
395.723	336.31
396.169	266.09
396.616	277.79
397.062	308.22
397.508	338.65
397.954	256.73
398.401	315.24
398.847	329.28
399.293	270.77
399.739	359.71
400.185	338.65
400.631	277.79
401.076	345.67
401.522	322.26
401.968	305.88
402.414	355.03
402.859	263.75
403.305	336.31
403.75	310.56
404.196	291.84
404.641	312.9
405.086	317.58
405.532	345.67
405.977	345.67
406.422	369.07
406.867	324.6
407.312	242.68
407.757	350.35
408.202	317.58
408.647	333.97
409.092	263.75
409.537	303.54
409.982	324.6
410.426	298.86
410.871	348.01
411.316	298.86
411.76	352.69
412.205	362.05
412.649	289.5
413.093	298.86
413.538	331.62
413.982	287.15
414.426	348.01
414.87	340.99
415.314	322.26
415.758	301.2
416.202	319.92
416.646	345.67
417.09	296.52
417.534	352.69
417.978	326.94
418.421	298.86
418.865	317.58
419.309	310.56
419.752	324.6
420.196	340.99
420.639	326.94
421.083	289.5
421.526	345.67
421.969	310.56
422.412	352.69
422.856	336.31
423.299	350.35
423.742	345.67
424.185	369.07
424.628	296.52
425.071	275.45
425.513	259.07
425.956	373.75
426.399	357.37
426.842	319.92
427.284	329.28
427.727	296.52
428.169	289.5
428.612	308.22
429.054	294.18
429.497	401.84
429.939	310.56
430.381	322.26
430.823	345.67
431.265	319.92
431.707	331.62
432.149	336.31
432.591	343.33
433.033	308.22
433.475	355.03
433.917	301.2
434.359	369.07
434.8	301.2
435.242	322.26
435.684	261.41
436.125	308.22
436.567	310.56
437.008	312.9
437.449	282.47
437.891	322.26
438.332	284.81
438.773	322.26
439.214	362.05
439.656	322.26
440.097	371.41
440.538	352.69
440.978	315.24
441.419	324.6
441.86	352.69
442.301	329.28
442.742	310.56
443.182	390.14
443.623	366.73
444.063	273.11
444.504	247.37
444.944	326.94
445.385	329.28
445.825	294.18
446.265	252.05
446.706	301.2
447.146	322.26
447.586	317.58
448.026	315.24
448.466	298.86
448.906	340.99
449.346	343.33
449.786	350.35
450.225	315.24
450.665	312.9
451.105	333.97
451.544	268.43
451.984	338.65
452.424	376.09
452.863	305.88
453.302	315.24
453.742	362.05
454.181	294.18
454.62	294.18
455.059	343.33
455.499	352.69
455.938	296.52
456.377	268.43
456.816	315.24
457.254	315.24
457.693	366.73
458.132	319.92
458.571	291.84
459.01	305.88
459.448	301.2
459.887	331.62
460.325	340.99
460.764	284.81
461.202	268.43
461.641	336.31
462.079	310.56
462.517	315.24
462.955	310.56
463.393	338.65
463.832	294.18
464.27	266.09
464.708	240.34
465.145	350.35
465.583	331.62
466.021	305.88
466.459	305.88
466.897	343.33
467.334	263.75
467.772	329.28
468.209	273.11
468.647	301.2
469.084	315.24
469.522	289.5
469.959	294.18
470.396	355.03
470.833	275.45
471.271	310.56
471.708	270.77
472.145	352.69
472.582	340.99
473.019	390.14
473.456	350.35
473.892	373.75
474.329	319.92
474.766	259.07
475.202	305.88
475.639	315.24
476.076	256.73
476.512	294.18
476.949	291.84
477.385	329.28
477.821	301.2
478.258	380.78
478.694	329.28
479.13	331.62
479.566	364.39
480.002	289.5
480.438	338.65
480.874	270.77
481.31	333.97
481.746	359.71
482.181	336.31
482.617	345.67
483.053	350.35
483.488	329.28
483.924	394.82
484.36	322.26
484.795	326.94
485.23	273.11
485.666	294.18
486.101	322.26
486.536	310.56
486.971	308.22
487.407	345.67
487.842	291.84
488.277	371.41
488.712	233.32
489.146	289.5
489.581	350.35
490.016	280.13
490.451	287.15
490.885	364.39
491.32	345.67
491.755	324.6
492.189	364.39
492.624	268.43
493.058	294.18
493.492	312.9
493.927	315.24
494.361	266.09
494.795	296.52
495.229	324.6
495.663	338.65
496.097	305.88
496.531	338.65
496.965	357.37
497.399	324.6
497.833	289.5
498.266	352.69
498.7	303.54
499.134	359.71
499.567	324.6
500.001	345.67
500.434	301.2
500.868	324.6
501.301	277.79
501.734	315.24
502.168	336.31
502.601	378.44
503.034	329.28
503.467	287.15
503.9	287.15
504.333	359.71
504.766	333.97
505.199	355.03
505.632	305.88
506.064	357.37
506.497	315.24
506.93	315.24
507.362	294.18
507.795	273.11
508.227	312.9
508.66	319.92
509.092	390.14
509.524	282.47
509.956	280.13
510.389	240.34
510.821	298.86
511.253	329.28
511.685	270.77
512.117	303.54
512.549	273.11
512.981	355.03
513.412	369.07
513.844	326.94
514.276	333.97
514.707	317.58
515.139	331.62
515.571	348.01
516.002	298.86
516.433	287.15
516.865	317.58
517.296	329.28
517.727	266.09
518.159	308.22
518.59	338.65
519.021	326.94
519.452	294.18
519.883	315.24
520.314	378.44
520.744	397.16
521.175	336.31
521.606	357.37
522.037	296.52
522.467	296.52
522.898	315.24
523.328	284.81
523.759	270.77
524.189	357.37
524.62	329.28
525.05	357.37
525.48	333.97
525.91	303.54
526.341	322.26
526.771	312.9
527.201	284.81
527.631	259.07
528.061	324.6
528.49	329.28
528.92	394.82
529.35	282.47
529.78	291.84
530.209	259.07
530.639	326.94
531.068	270.77
531.498	322.26
531.927	345.67
532.357	273.11
532.786	350.35
533.215	336.31
533.644	273.11
534.074	280.13
534.503	369.07
534.932	357.37
535.361	336.31
535.79	289.5
536.218	284.81
536.647	371.41
537.076	284.81
537.505	322.26
537.933	308.22
538.362	319.92
538.79	310.56
539.219	362.05
539.647	348.01
540.076	294.18
540.504	359.71
540.932	369.07
541.36	390.14
541.788	284.81
542.217	324.6
542.645	296.52
543.073	259.07
543.5	432.27
543.928	329.28
544.356	352.69
544.784	287.15
545.211	263.75
545.639	317.58
546.067	439.29
546.494	291.84
546.922	362.05
547.349	298.86
547.776	336.31
548.204	336.31
548.631	308.22
549.058	343.33
549.485	345.67
549.912	303.54
550.339	308.22
550.766	312.9
551.193	324.6
551.62	359.71
552.047	324.6
552.474	303.54
552.9	329.28
553.327	310.56
553.754	287.15
554.18	226.3
554.607	315.24
555.033	289.5
555.459	317.58
555.886	343.33
556.312	326.94
556.738	390.14
557.164	322.26
557.59	355.03
558.016	315.24
558.442	326.94
558.868	296.52
559.294	282.47
559.72	355.03
560.145	357.37
560.571	294.18
560.997	348.01
561.422	303.54
561.848	294.18
562.273	270.77
562.699	273.11
563.124	322.26
563.549	315.24
563.974	329.28
564.4	364.39
564.825	238
565.25	333.97
565.675	352.69
566.1	326.94
566.525	266.09
566.95	296.52
567.374	287.15
567.799	310.56
568.224	252.05
568.648	394.82
569.073	240.34
569.497	338.65
569.922	298.86
570.346	275.45
570.771	355.03
571.195	268.43
571.619	312.9
572.043	326.94
572.467	296.52
572.891	317.58
573.315	352.69
573.739	319.92
574.163	303.54
574.587	329.28
575.011	308.22
575.435	338.65
575.858	331.62
576.282	371.41
576.705	336.31
577.129	280.13
577.552	317.58
577.976	319.92
578.399	338.65
578.822	303.54
579.245	303.54
579.669	369.07
580.092	275.45
580.515	308.22
580.938	333.97
581.361	315.24
581.784	343.33
582.206	338.65
582.629	289.5
583.052	273.11
583.474	338.65
583.897	282.47
584.32	322.26
584.742	364.39
585.165	336.31
585.587	345.67
586.009	322.26
586.431	338.65
586.854	308.22
587.276	340.99
587.698	369.07
588.12	319.92
588.542	336.31
588.964	326.94
589.386	371.41
589.807	319.92
590.229	322.26
590.651	331.62
591.073	252.05
591.494	348.01
591.916	298.86
592.337	329.28
592.759	277.79
593.18	275.45
593.601	364.39
594.022	275.45
594.444	294.18
594.865	310.56
595.286	338.65
595.707	266.09
596.128	315.24
596.549	324.6
596.97	280.13
597.39	322.26
597.811	348.01
598.232	310.56
598.652	245.02
599.073	322.26
599.494	385.46
599.914	322.26
600.334	340.99
600.755	336.31
601.175	348.01
601.595	312.9
602.015	348.01
602.436	348.01
602.856	415.88
603.276	322.26
603.696	296.52
604.115	303.54
604.535	289.5
604.955	315.24
605.375	291.84
605.794	282.47
606.214	348.01
606.634	284.81
607.053	348.01
607.473	312.9
607.892	345.67
608.311	289.5
608.731	343.33
609.15	317.58
609.569	343.33
609.988	284.81
610.407	252.05
610.826	343.33
611.245	322.26
611.664	315.24
612.083	287.15
612.501	364.39
612.92	319.92
613.339	305.88
613.757	338.65
614.176	333.97
614.594	326.94
615.013	331.62
615.431	357.37
615.85	308.22
616.268	305.88
616.686	317.58
617.104	310.56
617.522	312.9
617.94	322.26
618.358	333.97
618.776	298.86
619.194	322.26
619.612	240.34
620.03	296.52
620.447	259.07
620.865	326.94
621.282	277.79
621.7	254.39
622.117	263.75
622.535	333.97
622.952	275.45
623.369	394.82
623.787	298.86
624.204	252.05
624.621	338.65
625.038	362.05
625.455	312.9
625.872	312.9
626.289	369.07
626.706	312.9
627.123	310.56
627.539	319.92
627.956	329.28
628.373	259.07
628.789	268.43
629.206	345.67
629.622	312.9
630.038	242.68
630.455	268.43
630.871	282.47
631.287	247.37
631.703	315.24
632.12	261.41
632.536	287.15
632.952	308.22
633.368	329.28
633.783	315.24
634.199	373.75
634.615	291.84
635.031	261.41
635.446	340.99
635.862	259.07
636.277	345.67
636.693	317.58
637.108	392.48
637.524	366.73
637.939	319.92
638.354	303.54
638.77	312.9
639.185	355.03
639.6	345.67
640.015	289.5
640.43	348.01
640.845	324.6
641.259	350.35
641.674	359.71
642.089	317.58
642.504	331.62
642.918	343.33
643.333	390.14
643.747	305.88
644.162	308.22
644.576	282.47
644.991	282.47
645.405	296.52
645.819	310.56
646.233	289.5
646.647	275.45
647.061	369.07
647.475	310.56
647.889	364.39
648.303	266.09
648.717	310.56
649.131	291.84
649.545	284.81
649.958	336.31
650.372	319.92
650.785	336.31
651.199	345.67
651.612	333.97
652.026	350.35
652.439	345.67
652.852	312.9
653.266	392.48
653.679	376.09
654.092	376.09
654.505	317.58
654.918	296.52
655.331	378.44
655.744	294.18
656.156	233.32
656.569	425.25
656.982	291.84
657.394	343.33
657.807	333.97
658.22	331.62
658.632	324.6
659.044	303.54
659.457	259.07
659.869	310.56
660.281	362.05
660.693	291.84
661.106	301.2
661.518	305.88
661.93	322.26
662.342	319.92
662.754	266.09
663.165	298.86
663.577	343.33
663.989	319.92
664.401	326.94
664.812	291.84
665.224	336.31
665.635	240.34
666.047	261.41
666.458	355.03
666.869	312.9
667.281	345.67
667.692	268.43
668.103	350.35
668.514	275.45
668.925	291.84
669.336	303.54
669.747	291.84
670.158	249.71
670.569	305.88
670.979	308.22
671.39	315.24
671.801	303.54
672.211	301.2
672.622	348.01
673.032	383.12
673.443	315.24
673.853	366.73
674.263	322.26
674.674	298.86
675.084	275.45
675.494	305.88
675.904	312.9
676.314	343.33
676.724	345.67
677.134	352.69
677.544	319.92
677.953	310.56
678.363	324.6
678.773	336.31
679.182	310.56
679.592	312.9
680.001	331.62
680.411	324.6
680.82	340.99
681.23	322.26
681.639	310.56
682.048	338.65
682.457	357.37
682.866	277.79
683.275	319.92
683.684	308.22
684.093	326.94
684.502	406.52
684.911	273.11
685.32	322.26
685.728	270.77
686.137	228.64
686.546	348.01
686.954	340.99
687.363	343.33
687.771	303.54
688.179	277.79
688.588	350.35
688.996	319.92
689.404	338.65
689.812	287.15
690.22	324.6
690.628	310.56
691.036	345.67
691.444	345.67
691.852	348.01
692.26	277.79
692.667	406.52
693.075	298.86
693.483	298.86
693.89	294.18
694.298	319.92
694.705	301.2
695.112	326.94
695.52	373.75
695.927	301.2
696.334	303.54
696.741	298.86
697.148	294.18
697.555	238
697.962	336.31
698.369	338.65
698.776	378.44
699.183	357.37
699.59	259.07
699.996	298.86
700.403	289.5
700.81	287.15
701.216	233.32
701.623	254.39
702.029	238
702.435	336.31
702.842	296.52
703.248	312.9
703.654	340.99
704.06	366.73
704.466	350.35
704.872	343.33
705.278	329.28
705.684	352.69
706.09	336.31
706.496	343.33
706.901	296.52
707.307	308.22
707.712	259.07
708.118	322.26
708.523	329.28
708.929	245.02
709.334	284.81
709.74	315.24
710.145	333.97
710.55	340.99
710.955	312.9
711.36	305.88
711.765	273.11
712.17	324.6
712.575	310.56
712.98	900.37
713.385	315.24
713.789	331.62
714.194	315.24
714.599	322.26
715.003	289.5
715.408	301.2
715.812	296.52
716.217	352.69
716.621	287.15
717.025	303.54
717.429	303.54
717.833	291.84
718.238	305.88
718.642	348.01
719.046	282.47
719.449	296.52
719.853	275.45
720.257	277.79
720.661	289.5
721.065	359.71
721.468	357.37
721.872	305.88
722.275	324.6
722.679	261.41
723.082	329.28
723.485	340.99
723.889	319.92
724.292	301.2
724.695	340.99
725.098	280.13
725.501	291.84
725.904	331.62
726.307	275.45
726.71	366.73
727.113	322.26
727.516	317.58
727.918	390.14
728.321	333.97
728.724	298.86
729.126	282.47
729.529	317.58
729.931	315.24
730.333	310.56
730.736	298.86
731.138	284.81
731.54	359.71
731.942	282.47
732.344	359.71
732.746	312.9
733.148	362.05
733.55	221.62
733.952	303.54
734.354	362.05
734.756	296.52
735.157	338.65
735.559	259.07
735.96	324.6
736.362	310.56
736.763	348.01
737.165	378.44
737.566	352.69
737.967	329.28
738.368	326.94
738.77	373.75
739.171	343.33
739.572	333.97
739.973	275.45
740.374	289.5
740.774	284.81
741.175	296.52
741.576	333.97
741.977	301.2
742.377	331.62
742.778	343.33
743.178	333.97
743.579	315.24
743.979	298.86
744.379	362.05
744.78	352.69
745.18	287.15
745.58	291.84
745.98	331.62
746.38	310.56
746.78	324.6
747.18	235.66
747.58	345.67
747.98	291.84
748.38	298.86
748.779	216.94
749.179	373.75
749.578	303.54
749.978	284.81
750.377	317.58
750.777	298.86
751.176	340.99
751.575	333.97
751.975	291.84
752.374	369.07
752.773	317.58
753.172	305.88
753.571	305.88
753.97	345.67
754.369	273.11
754.768	256.73
755.166	348.01
755.565	376.09
755.964	298.86
756.362	322.26
756.761	282.47
757.159	303.54
757.558	331.62
757.956	303.54
758.354	245.02
758.753	270.77
759.151	315.24
759.549	319.92
759.947	296.52
760.345	280.13
760.743	322.26
761.141	296.52
761.539	326.94
761.936	245.02
762.334	312.9
762.732	296.52
763.129	357.37
763.527	322.26
763.924	350.35
764.322	268.43
764.719	273.11
765.117	280.13
765.514	287.15
765.911	310.56
766.308	277.79
766.705	280.13
767.102	317.58
767.499	282.47
767.896	369.07
768.293	277.79
768.69	298.86
769.086	298.86
769.483	270.77
769.88	287.15
770.276	277.79
770.673	298.86
771.069	312.9
771.466	298.86
771.862	277.79
772.258	305.88
772.654	294.18
773.05	301.2
773.447	289.5
773.843	357.37
774.239	296.52
774.634	315.24
775.03	308.22
775.426	289.5
775.822	312.9
776.218	273.11
776.613	282.47
777.009	364.39
777.404	284.81
777.8	301.2
778.195	345.67
778.59	280.13
778.986	317.58
779.381	296.52
779.776	275.45
780.171	345.67
780.566	298.86
780.961	359.71
781.356	366.73
781.751	357.37
782.146	298.86
782.54	308.22
782.935	319.92
783.33	252.05
783.724	294.18
784.119	280.13
784.513	266.09
784.908	294.18
785.302	294.18
785.696	301.2
786.09	336.31
786.485	259.07
786.879	305.88
787.273	291.84
787.667	331.62
788.061	345.67
788.454	329.28
788.848	305.88
789.242	336.31
789.636	296.52
790.029	312.9
790.423	350.35
790.816	282.47
791.21	322.26
791.603	324.6
791.997	296.52
792.39	291.84
792.783	350.35
793.176	385.46
793.569	315.24
793.962	310.56
794.355	326.94
794.748	301.2
795.141	247.37
795.534	273.11
795.927	228.64
796.319	322.26
796.712	308.22
797.105	296.52
797.497	312.9
797.89	268.43
798.282	319.92
798.674	406.52
799.067	329.28
799.459	291.84
799.851	287.15
800.243	387.8
800.635	319.92
801.027	317.58
801.419	340.99
801.811	338.65
802.203	319.92
802.594	345.67
802.986	331.62
803.378	301.2
803.769	383.12
804.161	284.81
804.552	317.58
804.944	296.52
805.335	294.18
805.726	322.26
806.118	333.97
806.509	317.58
806.9	319.92
807.291	287.15
807.682	310.56
808.073	333.97
808.464	228.64
808.855	326.94
809.245	305.88
809.636	298.86
810.027	324.6
810.417	324.6
810.808	312.9
811.198	376.09
811.589	298.86
811.979	277.79
812.369	333.97
812.759	343.33
813.15	331.62
813.54	308.22
813.93	324.6
814.32	245.02
814.71	333.97
815.1	291.84
815.489	336.31
815.879	296.52
816.269	266.09
816.658	348.01
817.048	340.99
817.438	247.37
817.827	287.15
818.216	329.28
818.606	233.32
818.995	287.15
819.384	310.56
819.773	329.28
820.163	345.67
820.552	369.07
820.941	319.92
821.33	270.77
821.718	303.54
822.107	289.5
822.496	305.88
822.885	326.94
823.273	345.67
823.662	319.92
824.05	350.35
824.439	277.79
824.827	298.86
825.216	294.18
825.604	275.45
825.992	305.88
826.38	319.92
826.768	336.31
827.156	338.65
827.544	333.97
827.932	315.24
828.32	378.44
828.708	308.22
829.096	429.93
829.483	324.6
829.871	333.97
830.259	249.71
830.646	284.81
831.034	289.5
831.421	310.56
831.808	296.52
832.196	291.84
832.583	310.56
832.97	280.13
833.357	294.18
833.744	324.6
834.131	247.37
834.518	289.5
834.905	289.5
835.292	338.65
835.678	329.28
836.065	319.92
836.452	270.77
836.838	326.94
837.225	298.86
837.611	364.39
837.998	312.9
838.384	345.67
838.77	289.5
839.157	322.26
839.543	336.31
839.929	245.02
840.315	312.9
840.701	284.81
841.087	259.07
841.473	298.86
841.858	298.86
842.244	329.28
842.63	282.47
843.015	310.56
843.401	383.12
843.787	355.03
844.172	359.71
844.557	340.99
844.943	303.54
845.328	312.9
845.713	256.73
846.098	343.33
846.483	366.73
846.868	343.33
847.253	371.41
847.638	305.88
848.023	362.05
848.408	275.45
848.793	305.88
849.177	301.2
849.562	357.37
849.947	273.11
850.331	329.28
850.715	357.37
851.1	312.9
851.484	294.18
851.868	350.35
852.253	340.99
852.637	364.39
853.021	357.37
853.405	348.01
853.789	277.79
854.173	352.69
854.557	378.44
854.94	308.22
855.324	275.45
855.708	343.33
856.091	273.11
856.475	305.88
856.858	266.09
857.242	305.88
857.625	245.02
858.009	308.22
858.392	301.2
858.775	305.88
859.158	324.6
859.541	270.77
859.924	336.31
860.307	261.41
860.69	249.71
861.073	310.56
861.456	317.58
861.838	317.58
862.221	252.05
862.604	338.65
862.986	355.03
863.369	355.03
863.751	294.18
864.133	331.62
864.516	322.26
864.898	331.62
865.28	312.9
865.662	338.65
866.044	338.65
866.426	338.65
866.808	376.09
867.19	254.39
867.572	308.22
867.954	275.45
868.336	317.58
868.717	270.77
869.099	345.67
869.48	275.45
869.862	315.24
870.243	345.67
870.625	322.26
871.006	294.18
871.387	296.52
871.768	296.52
872.149	280.13
872.53	329.28
872.911	282.47
873.292	305.88
873.673	343.33
874.054	326.94
874.435	289.5
874.815	364.39
875.196	333.97
875.577	230.98
875.957	284.81
876.338	336.31
876.718	228.64
877.098	352.69
877.479	385.46
877.859	376.09
878.239	308.22
878.619	296.52
878.999	324.6
879.379	303.54
879.759	336.31
880.139	247.37
880.519	273.11
880.898	263.75
881.278	273.11
881.658	252.05
882.037	348.01
882.417	256.73
882.796	373.75
883.176	317.58
883.555	308.22
883.934	298.86
884.313	310.56
884.693	289.5
885.072	266.09
885.451	303.54
885.83	331.62
886.209	289.5
886.587	270.77
886.966	310.56
887.345	366.73
887.724	254.39
888.102	270.77
888.481	275.45
888.859	308.22
889.238	331.62
889.616	317.58
889.994	340.99
890.373	324.6
890.751	326.94
891.129	305.88
891.507	303.54
891.885	310.56
892.263	324.6
892.641	219.28
893.019	277.79
893.396	357.37
893.774	326.94
894.152	301.2
894.529	282.47
894.907	319.92
895.284	336.31
895.662	275.45
896.039	303.54
896.416	303.54
896.794	289.5
897.171	387.8
897.548	273.11
897.925	329.28
898.302	319.92
898.679	284.81
899.056	277.79
899.433	312.9
899.809	294.18
900.186	294.18
900.563	315.24
900.939	296.52
901.316	273.11
901.692	282.47
902.069	282.47
902.445	273.11
902.821	259.07
903.197	369.07
903.574	303.54
903.95	336.31
904.326	308.22
904.702	338.65
905.078	301.2
905.454	371.41
905.829	252.05
906.205	312.9
906.581	261.41
906.956	242.68
907.332	291.84
907.707	242.68
908.083	324.6
908.458	340.99
908.833	294.18
909.209	294.18
909.584	261.41
909.959	301.2
910.334	263.75
910.709	296.52
911.084	376.09
911.459	308.22
911.834	289.5
912.209	317.58
912.583	338.65
912.958	326.94
913.333	266.09
913.707	345.67
914.082	340.99
914.456	364.39
914.83	373.75
915.205	277.79
915.579	270.77
915.953	287.15
916.327	308.22
916.701	289.5
917.075	310.56
917.449	266.09
917.823	310.56
918.197	280.13
918.571	317.58
918.944	355.03
919.318	371.41
919.692	331.62
920.065	270.77
920.438	294.18
920.812	303.54
921.185	315.24
921.558	329.28
921.932	303.54
922.305	319.92
922.678	291.84
923.051	324.6
923.424	303.54
923.797	212.26
924.17	270.77
924.542	289.5
924.915	259.07
925.288	329.28
925.661	366.73
926.033	256.73
926.406	275.45
926.778	301.2
927.15	331.62
927.523	223.96
927.895	291.84
928.267	324.6
928.639	238
929.011	315.24
929.383	336.31
929.755	242.68
930.127	315.24
930.499	273.11
930.871	305.88
931.242	340.99
931.614	336.31
931.986	319.92
932.357	317.58
932.729	357.37
933.1	324.6
933.471	284.81
933.843	312.9
934.214	322.26
934.585	308.22
934.956	296.52
935.327	343.33
935.698	348.01
936.069	240.34
936.44	303.54
936.811	301.2
937.182	385.46
937.552	308.22
937.923	310.56
938.293	296.52
938.664	219.28
939.034	214.6
939.405	303.54
939.775	322.26
940.145	319.92
940.516	394.82
940.886	238
941.256	291.84
941.626	291.84
941.996	289.5
942.366	266.09
942.735	245.02
943.105	322.26
943.475	322.26
943.845	294.18
944.214	352.69
944.584	294.18
944.953	315.24
945.323	357.37
945.692	348.01
946.061	352.69
946.43	329.28
946.8	301.2
947.169	340.99
947.538	322.26
947.907	277.79
948.276	331.62
948.645	364.39
949.013	333.97
949.382	390.14
949.751	296.52
950.119	310.56
950.488	345.67
950.857	324.6
951.225	348.01
951.593	259.07
951.962	308.22
952.33	350.35
952.698	287.15
953.066	359.71
953.434	348.01
953.802	261.41
954.17	333.97
954.538	296.52
954.906	352.69
955.274	303.54
955.642	289.5
956.009	273.11
956.377	287.15
956.744	329.28
957.112	268.43
957.479	312.9
957.847	280.13
958.214	329.28
958.581	317.58
958.948	240.34
959.315	287.15
959.683	308.22
960.05	345.67
960.416	336.31
960.783	249.71
961.15	282.47
961.517	336.31
961.884	270.77
962.25	294.18
962.617	301.2
962.983	289.5
963.35	322.26
963.716	298.86
964.082	254.39
964.449	322.26
964.815	340.99
965.181	263.75
965.547	340.99
965.913	294.18
966.279	376.09
966.645	310.56
967.011	298.86
967.377	291.84
967.742	296.52
968.108	336.31
968.474	355.03
968.839	308.22
969.205	266.09
969.57	287.15
969.935	345.67
970.301	317.58
970.666	284.81
971.031	352.69
971.396	305.88
971.761	303.54
972.126	294.18
972.491	315.24
972.856	310.56
973.221	324.6
973.586	287.15
973.95	268.43
974.315	305.88
974.679	252.05
975.044	319.92
975.408	305.88
975.773	329.28
976.137	305.88
976.501	275.45
976.866	298.86
977.23	282.47
977.594	326.94
977.958	324.6
978.322	338.65
978.686	266.09
979.049	336.31
979.413	336.31
979.777	277.79
980.141	312.9
980.504	296.52
980.868	308.22
981.231	303.54
981.595	315.24
981.958	348.01
982.321	343.33
982.684	355.03
983.048	319.92
983.411	240.34
983.774	303.54
984.137	301.2
984.5	322.26
984.862	284.81
985.225	319.92
985.588	301.2
985.951	289.5
986.313	362.05
986.676	338.65
987.038	308.22
987.401	294.18
987.763	340.99
988.125	338.65
988.488	355.03
988.85	270.77
989.212	371.41
989.574	268.43
989.936	294.18
990.298	340.99
990.66	270.77
991.022	287.15
991.383	333.97
991.745	348.01
992.107	333.97
992.468	275.45
992.83	305.88
993.191	305.88
993.553	355.03
993.914	329.28
994.275	338.65
994.637	268.43
994.998	390.14
995.359	284.81
995.72	280.13
996.081	256.73
996.442	348.01
996.803	291.84
997.163	301.2
997.524	289.5
997.885	291.84
998.245	350.35
998.606	280.13
998.966	303.54
999.327	378.44
999.687	340.99
1000.047	296.52
1000.408	331.62
1000.768	273.11
1001.128	324.6
1001.488	348.01
1001.848	291.84
1002.208	263.75
1002.568	308.22
1002.927	301.2
1003.287	280.13
1003.647	317.58
1004.007	294.18
1004.366	261.41
1004.726	284.81
1005.085	270.77
1005.444	322.26
1005.804	287.15
1006.163	355.03
1006.522	352.69
1006.881	345.67
1007.24	305.88
1007.599	310.56
1007.958	303.54
1008.317	352.69
1008.676	317.58
1009.035	333.97
1009.393	308.22
1009.752	287.15
1010.111	263.75
1010.469	303.54
1010.828	287.15
1011.186	266.09
1011.544	287.15
1011.903	355.03
1012.261	315.24
1012.619	329.28
1012.977	291.84
1013.335	357.37
1013.693	294.18
1014.051	268.43
1014.409	284.81
1014.767	289.5
1015.124	355.03
1015.482	366.73
1015.84	282.47
1016.197	296.52
1016.555	340.99
1016.912	331.62
1017.269	345.67
1017.627	280.13
1017.984	319.92
1018.341	245.02
1018.698	324.6
1019.055	289.5
1019.412	331.62
1019.769	289.5
1020.126	275.45
1020.483	338.65
1020.84	350.35
1021.196	301.2
1021.553	270.77
1021.909	329.28
1022.266	336.31
1022.622	273.11
1022.979	336.31
1023.335	355.03
1023.691	312.9
1024.047	280.13
1024.404	308.22
1024.76	308.22
1025.116	308.22
1025.472	301.2
1025.827	298.86
1026.183	284.81
1026.539	308.22
1026.895	303.54
1027.25	326.94
1027.606	261.41
1027.961	263.75
1028.317	308.22
1028.672	282.47
1029.028	280.13
1029.383	303.54
1029.738	326.94
1030.093	256.73
1030.448	322.26
1030.803	266.09
1031.158	287.15
1031.513	289.5
1031.868	296.52
1032.223	287.15
1032.577	263.75
1032.932	315.24
1033.287	359.71
1033.641	324.6
1033.996	310.56
1034.35	256.73
1034.704	207.58
1035.059	366.73
1035.413	240.34
1035.767	240.34
1036.121	240.34
