Data from Al_FLMS009871__1034__16-23-59-315.txt Node

Date: Fri Mar 08 16:23:59 CST 2024
User: pe5414po
Spectrometer: FLMS00987
Trigger mode: 0
Integration Time (sec): 1.000000E-1
Scans to average: 1
Electric dark correction enabled: true
Nonlinearity correction enabled: false
Boxcar width: 0
XAxis mode: Wavelengths
Number of Pixels in Spectrum: 2048
>>>>>Begin Spectral Data<<<<<
188.938	-43.59
189.409	-43.59
189.879	-43.59
190.349	-38.91
190.819	-38.91
191.29	-130.19
191.76	-48.27
192.23	-45.93
192.7	-85.72
193.17	-76.36
193.64	-74.02
194.109	-85.72
194.579	-31.89
195.049	7.9
195.519	40.67
195.988	61.73
196.458	59.39
196.927	35.99
197.397	78.12
197.866	174.08
198.336	120.25
198.805	113.22
199.274	199.82
199.744	164.72
200.213	199.82
200.682	265.36
201.151	211.53
201.62	220.89
202.089	195.14
202.558	281.74
203.027	216.21
203.495	298.13
203.964	298.13
204.433	251.32
204.902	277.06
205.37	281.74
205.839	284.08
206.307	307.49
206.776	330.89
207.244	274.72
207.712	291.1
208.181	291.1
208.649	251.32
209.117	286.42
209.585	337.91
210.053	333.23
210.521	267.7
210.989	298.13
211.457	223.23
211.925	225.57
212.393	256
212.861	284.08
213.328	368.34
213.796	251.32
214.264	319.19
214.731	319.19
215.199	258.34
215.666	272.38
216.133	274.72
216.601	267.7
217.068	248.97
217.535	260.68
218.003	206.84
218.47	314.51
218.937	284.08
219.404	246.63
219.871	279.4
220.338	286.42
220.805	260.68
221.271	263.02
221.738	267.7
222.205	227.91
222.671	246.63
223.138	237.27
223.605	248.97
224.071	274.72
224.538	267.7
225.004	211.53
225.47	267.7
225.937	260.68
226.403	258.34
226.869	279.4
227.335	312.17
227.801	237.27
228.267	293.44
228.733	326.21
229.199	218.55
229.665	305.15
230.131	248.97
230.597	244.29
231.062	218.55
231.528	291.1
231.994	270.04
232.459	293.44
232.925	258.34
233.39	225.57
233.856	272.38
234.321	279.4
234.786	300.47
235.252	223.23
235.717	281.74
236.182	314.51
236.647	260.68
237.112	295.79
237.577	190.46
238.042	253.66
238.507	284.08
238.972	237.27
239.436	232.59
239.901	319.19
240.366	230.25
240.83	305.15
241.295	263.02
241.76	293.44
242.224	300.47
242.688	213.87
243.153	284.08
243.617	291.1
244.081	333.23
244.545	295.79
245.01	260.68
245.474	263.02
245.938	291.1
246.402	256
246.866	260.68
247.33	330.89
247.793	375.36
248.257	272.38
248.721	309.83
249.185	288.76
249.648	244.29
250.112	258.34
250.575	234.93
251.039	267.7
251.502	307.49
251.965	272.38
252.429	312.17
252.892	206.84
253.355	307.49
253.818	204.5
254.281	277.06
254.744	319.19
255.207	281.74
255.67	312.17
256.133	274.72
256.596	284.08
257.059	291.1
257.522	295.79
257.984	267.7
258.447	319.19
258.909	248.97
259.372	300.47
259.834	288.76
260.297	265.36
260.759	337.91
261.221	293.44
261.684	323.87
262.146	260.68
262.608	253.66
263.07	337.91
263.532	309.83
263.994	265.36
264.456	312.17
264.918	263.02
265.38	272.38
265.842	263.02
266.303	342.6
266.765	286.42
267.227	370.68
267.688	281.74
268.15	328.55
268.611	279.4
269.072	260.68
269.534	284.08
269.995	281.74
270.456	319.19
270.918	307.49
271.379	293.44
271.84	319.19
272.301	309.83
272.762	305.15
273.223	321.53
273.684	263.02
274.144	305.15
274.605	333.23
275.066	260.68
275.527	286.42
275.987	370.68
276.448	321.53
276.908	284.08
277.369	274.72
277.829	256
278.289	349.62
278.75	305.15
279.21	291.1
279.67	295.79
280.13	300.47
280.59	328.55
281.05	256
281.51	333.23
281.97	354.3
282.43	300.47
282.89	319.19
283.35	333.23
283.809	260.68
284.269	316.85
284.729	319.19
285.188	253.66
285.648	326.21
286.107	241.95
286.567	321.53
287.026	328.55
287.485	337.91
287.944	288.76
288.404	232.59
288.863	300.47
289.322	258.34
289.781	281.74
290.24	312.17
290.699	251.32
291.158	319.19
291.616	274.72
292.075	281.74
292.534	239.61
292.992	312.17
293.451	370.68
293.91	328.55
294.368	309.83
294.827	312.17
295.285	253.66
295.743	298.13
296.202	263.02
296.66	286.42
297.118	253.66
297.576	300.47
298.034	330.89
298.492	272.38
298.95	288.76
299.408	314.51
299.866	281.74
300.324	277.06
300.781	333.23
301.239	335.57
301.697	373.02
302.154	347.28
302.612	237.27
303.069	251.32
303.527	274.72
303.984	293.44
304.441	295.79
304.899	356.64
305.356	316.85
305.813	263.02
306.27	295.79
306.727	368.34
307.184	263.02
307.641	344.94
308.098	337.91
308.555	344.94
309.012	319.19
309.468	281.74
309.925	298.13
310.382	333.23
310.838	232.59
311.295	347.28
311.751	286.42
312.208	330.89
312.664	302.81
313.12	326.21
313.577	277.06
314.033	335.57
314.489	286.42
314.945	295.79
315.401	330.89
315.857	284.08
316.313	246.63
316.769	293.44
317.225	288.76
317.681	230.25
318.136	314.51
318.592	309.83
319.048	347.28
319.503	373.02
319.959	288.76
320.414	312.17
320.869	328.55
321.325	319.19
321.78	335.57
322.235	302.81
322.691	323.87
323.146	370.68
323.601	337.91
324.056	330.89
324.511	295.79
324.966	241.95
325.421	293.44
325.875	300.47
326.33	319.19
326.785	335.57
327.24	284.08
327.694	328.55
328.149	281.74
328.603	263.02
329.058	312.17
329.512	361.32
329.966	291.1
330.421	267.7
330.875	347.28
331.329	253.66
331.783	293.44
332.237	361.32
332.691	368.34
333.145	305.15
333.599	333.23
334.053	328.55
334.507	316.85
334.96	291.1
335.414	298.13
335.868	284.08
336.321	300.47
336.775	274.72
337.228	286.42
337.682	298.13
338.135	356.64
338.588	286.42
339.042	333.23
339.495	312.17
339.948	326.21
340.401	328.55
340.854	302.81
341.307	241.95
341.76	337.91
342.213	274.72
342.666	342.6
343.119	225.57
343.571	251.32
344.024	314.51
344.477	380.04
344.929	312.17
345.382	291.1
345.834	237.27
346.287	326.21
346.739	321.53
347.191	347.28
347.644	263.02
348.096	323.87
348.548	326.21
349	295.79
349.452	295.79
349.904	305.15
350.356	293.44
350.808	326.21
351.26	251.32
351.711	326.21
352.163	270.04
352.615	258.34
353.066	344.94
353.518	274.72
353.969	344.94
354.421	246.63
354.872	349.62
355.324	349.62
355.775	300.47
356.226	396.43
356.677	314.51
357.128	305.15
357.579	337.91
358.03	300.47
358.481	291.1
358.932	293.44
359.383	326.21
359.834	361.32
360.285	337.91
360.735	314.51
361.186	277.06
361.637	340.26
362.087	326.21
362.538	230.25
362.988	307.49
363.438	274.72
363.889	342.6
364.339	358.98
364.789	335.57
365.239	312.17
365.689	351.96
366.139	326.21
366.589	309.83
367.039	321.53
367.489	314.51
367.939	302.81
368.389	358.98
368.839	277.06
369.288	319.19
369.738	321.53
370.187	389.41
370.637	305.15
371.086	335.57
371.536	305.15
371.985	323.87
372.434	307.49
372.884	293.44
373.333	312.17
373.782	316.85
374.231	368.34
374.68	330.89
375.129	347.28
375.578	263.02
376.027	288.76
376.475	295.79
376.924	281.74
377.373	342.6
377.822	333.23
378.27	326.21
378.719	335.57
379.167	295.79
379.616	344.94
380.064	316.85
380.512	302.81
380.961	321.53
381.409	307.49
381.857	326.21
382.305	363.66
382.753	366
383.201	337.91
383.649	326.21
384.097	335.57
384.545	344.94
384.992	309.83
385.44	342.6
385.888	321.53
386.335	358.98
386.783	326.21
387.231	398.77
387.678	335.57
388.125	366
388.573	314.51
389.02	335.57
389.467	307.49
389.914	363.66
390.362	328.55
390.809	330.89
391.256	298.13
391.703	312.17
392.15	349.62
392.596	347.28
393.043	328.55
393.49	335.57
393.937	272.38
394.383	328.55
394.83	309.83
395.276	323.87
395.723	358.98
396.169	323.87
396.616	389.41
397.062	281.74
397.508	340.26
397.954	300.47
398.401	363.66
398.847	288.76
399.293	281.74
399.739	305.15
400.185	337.91
400.631	368.34
401.076	270.04
401.522	323.87
401.968	316.85
402.414	300.47
402.859	323.87
403.305	321.53
403.75	298.13
404.196	335.57
404.641	337.91
405.086	340.26
405.532	342.6
405.977	293.44
406.422	401.11
406.867	314.51
407.312	347.28
407.757	321.53
408.202	328.55
408.647	340.26
409.092	391.75
409.537	286.42
409.982	366
410.426	370.68
410.871	295.79
411.316	340.26
411.76	321.53
412.205	291.1
412.649	298.13
413.093	349.62
413.538	328.55
413.982	333.23
414.426	267.7
414.87	321.53
415.314	370.68
415.758	380.04
416.202	312.17
416.646	307.49
417.09	342.6
417.534	293.44
417.978	321.53
418.421	248.97
418.865	340.26
419.309	321.53
419.752	361.32
420.196	333.23
420.639	326.21
421.083	267.7
421.526	337.91
421.969	330.89
422.412	321.53
422.856	307.49
423.299	288.76
423.742	248.97
424.185	244.29
424.628	267.7
425.071	288.76
425.513	279.4
425.956	354.3
426.399	333.23
426.842	316.85
427.284	298.13
427.727	293.44
428.169	382.39
428.612	288.76
429.054	307.49
429.497	270.04
429.939	291.1
430.381	321.53
430.823	316.85
431.265	349.62
431.707	330.89
432.149	272.38
432.591	366
433.033	302.81
433.475	384.73
433.917	291.1
434.359	314.51
434.8	305.15
435.242	309.83
435.684	305.15
436.125	323.87
436.567	326.21
437.008	354.3
437.449	375.36
437.891	326.21
438.332	288.76
438.773	330.89
439.214	298.13
439.656	328.55
440.097	284.08
440.538	270.04
440.978	258.34
441.419	298.13
441.86	309.83
442.301	277.06
442.742	335.57
443.182	279.4
443.623	401.11
444.063	309.83
444.504	387.07
444.944	344.94
445.385	373.02
445.825	344.94
446.265	300.47
446.706	380.04
447.146	321.53
447.586	344.94
448.026	354.3
448.466	286.42
448.906	326.21
449.346	319.19
449.786	326.21
450.225	298.13
450.665	358.98
451.105	274.72
451.544	347.28
451.984	279.4
452.424	326.21
452.863	300.47
453.302	333.23
453.742	356.64
454.181	340.26
454.62	316.85
455.059	328.55
455.499	302.81
455.938	319.19
456.377	286.42
456.816	302.81
457.254	319.19
457.693	333.23
458.132	328.55
458.571	382.39
459.01	356.64
459.448	370.68
459.887	326.21
460.325	314.51
460.764	321.53
461.202	309.83
461.641	330.89
462.079	274.72
462.517	316.85
462.955	342.6
463.393	347.28
463.832	314.51
464.27	267.7
464.708	298.13
465.145	298.13
465.583	328.55
466.021	340.26
466.459	316.85
466.897	335.57
467.334	335.57
467.772	295.79
468.209	366
468.647	387.07
469.084	368.34
469.522	316.85
469.959	312.17
470.396	366
470.833	263.02
471.271	291.1
471.708	307.49
472.145	347.28
472.582	309.83
473.019	361.32
473.456	323.87
473.892	251.32
474.329	328.55
474.766	305.15
475.202	330.89
475.639	321.53
476.076	307.49
476.512	291.1
476.949	349.62
477.385	370.68
477.821	300.47
478.258	340.26
478.694	253.66
479.13	234.93
479.566	307.49
480.002	277.06
480.438	366
480.874	314.51
481.31	281.74
481.746	316.85
482.181	373.02
482.617	351.96
483.053	321.53
483.488	300.47
483.924	302.81
484.36	298.13
484.795	302.81
485.23	314.51
485.666	314.51
486.101	333.23
486.536	382.39
486.971	314.51
487.407	279.4
487.842	326.21
488.277	340.26
488.712	316.85
489.146	293.44
489.581	256
490.016	363.66
490.451	333.23
490.885	368.34
491.32	328.55
491.755	295.79
492.189	340.26
492.624	284.08
493.058	319.19
493.492	263.02
493.927	293.44
494.361	323.87
494.795	291.1
495.229	323.87
495.663	394.09
496.097	314.51
496.531	335.57
496.965	305.15
497.399	270.04
497.833	309.83
498.266	373.02
498.7	349.62
499.134	335.57
499.567	335.57
500.001	300.47
500.434	279.4
500.868	263.02
501.301	344.94
501.734	335.57
502.168	286.42
502.601	293.44
503.034	305.15
503.467	391.75
503.9	368.34
504.333	260.68
504.766	328.55
505.199	368.34
505.632	349.62
506.064	361.32
506.497	330.89
506.93	314.51
507.362	319.19
507.795	295.79
508.227	340.26
508.66	272.38
509.092	270.04
509.524	342.6
509.956	344.94
510.389	291.1
510.821	337.91
511.253	288.76
511.685	312.17
512.117	302.81
512.549	258.34
512.981	277.06
513.412	326.21
513.844	370.68
514.276	319.19
514.707	335.57
515.139	377.7
515.571	340.26
516.002	373.02
516.433	281.74
516.865	340.26
517.296	291.1
517.727	319.19
518.159	344.94
518.59	351.96
519.021	309.83
519.452	356.64
519.883	291.1
520.314	284.08
520.744	326.21
521.175	333.23
521.606	286.42
522.037	370.68
522.467	300.47
522.898	312.17
523.328	307.49
523.759	340.26
524.189	335.57
524.62	347.28
525.05	351.96
525.48	270.04
525.91	267.7
526.341	335.57
526.771	291.1
527.201	373.02
527.631	302.81
528.061	312.17
528.49	307.49
528.92	272.38
529.35	312.17
529.78	380.04
530.209	394.09
530.639	321.53
531.068	328.55
531.498	361.32
531.927	340.26
532.357	281.74
532.786	305.15
533.215	323.87
533.644	377.7
534.074	347.28
534.503	337.91
534.932	401.11
535.361	321.53
535.79	286.42
536.218	319.19
536.647	295.79
537.076	302.81
537.505	323.87
537.933	298.13
538.362	370.68
538.79	335.57
539.219	305.15
539.647	391.75
540.076	298.13
540.504	349.62
540.932	312.17
541.36	326.21
541.788	326.21
542.217	270.04
542.645	300.47
543.073	361.32
543.5	340.26
543.928	321.53
544.356	330.89
544.784	342.6
545.211	302.81
545.639	319.19
546.067	281.74
546.494	319.19
546.922	330.89
547.349	342.6
547.776	347.28
548.204	305.15
548.631	314.51
549.058	248.97
549.485	298.13
549.912	319.19
550.339	377.7
550.766	401.11
551.193	349.62
551.62	330.89
552.047	337.91
552.474	305.15
552.9	349.62
553.327	277.06
553.754	375.36
554.18	328.55
554.607	270.04
555.033	333.23
555.459	321.53
555.886	277.06
556.312	389.41
556.738	349.62
557.164	335.57
557.59	253.66
558.016	288.76
558.442	302.81
558.868	295.79
559.294	349.62
559.72	356.64
560.145	260.68
560.571	305.15
560.997	335.57
561.422	328.55
561.848	319.19
562.273	335.57
562.699	293.44
563.124	256
563.549	305.15
563.974	333.23
564.4	340.26
564.825	286.42
565.25	342.6
565.675	354.3
566.1	307.49
566.525	323.87
566.95	265.36
567.374	312.17
567.799	340.26
568.224	246.63
568.648	302.81
569.073	295.79
569.497	323.87
569.922	356.64
570.346	281.74
570.771	291.1
571.195	340.26
571.619	335.57
572.043	361.32
572.467	333.23
572.891	323.87
573.315	366
573.739	279.4
574.163	335.57
574.587	307.49
575.011	246.63
575.435	370.68
575.858	307.49
576.282	330.89
576.705	330.89
577.129	281.74
577.552	307.49
577.976	354.3
578.399	300.47
578.822	366
579.245	323.87
579.669	330.89
580.092	330.89
580.515	258.34
580.938	384.73
581.361	321.53
581.784	281.74
582.206	286.42
582.629	302.81
583.052	361.32
583.474	333.23
583.897	281.74
584.32	302.81
584.742	286.42
585.165	326.21
585.587	335.57
586.009	337.91
586.431	300.47
586.854	302.81
587.276	302.81
587.698	307.49
588.12	356.64
588.542	370.68
588.964	323.87
589.386	389.41
589.807	307.49
590.229	277.06
590.651	298.13
591.073	330.89
591.494	349.62
591.916	335.57
592.337	293.44
592.759	316.85
593.18	342.6
593.601	309.83
594.022	279.4
594.444	328.55
594.865	293.44
595.286	377.7
595.707	328.55
596.128	321.53
596.549	277.06
596.97	309.83
597.39	417.49
597.811	328.55
598.232	305.15
598.652	340.26
599.073	277.06
599.494	326.21
599.914	323.87
600.334	274.72
600.755	253.66
601.175	307.49
601.595	326.21
602.015	293.44
602.436	361.32
602.856	473.67
603.276	344.94
603.696	387.07
604.115	342.6
604.535	330.89
604.955	326.21
605.375	316.85
605.794	347.28
606.214	316.85
606.634	319.19
607.053	321.53
607.473	227.91
607.892	291.1
608.311	330.89
608.731	342.6
609.15	263.02
609.569	347.28
609.988	319.19
610.407	323.87
610.826	274.72
611.245	314.51
611.664	295.79
612.083	380.04
612.501	340.26
612.92	403.45
613.339	316.85
613.757	340.26
614.176	274.72
614.594	351.96
615.013	351.96
615.431	326.21
615.85	309.83
616.268	351.96
616.686	377.7
617.104	326.21
617.522	363.66
617.94	300.47
618.358	335.57
618.776	286.42
619.194	265.36
619.612	349.62
620.03	351.96
620.447	340.26
620.865	354.3
621.282	309.83
621.7	281.74
622.117	302.81
622.535	408.13
622.952	354.3
623.369	286.42
623.787	333.23
624.204	356.64
624.621	340.26
625.038	293.44
625.455	260.68
625.872	330.89
626.289	300.47
626.706	342.6
627.123	314.51
627.539	344.94
627.956	277.06
628.373	258.34
628.789	340.26
629.206	354.3
629.622	251.32
630.038	284.08
630.455	330.89
630.871	286.42
631.287	293.44
631.703	340.26
632.12	337.91
632.536	337.91
632.952	326.21
633.368	319.19
633.783	300.47
634.199	337.91
634.615	328.55
635.031	326.21
635.446	314.51
635.862	323.87
636.277	309.83
636.693	291.1
637.108	326.21
637.524	335.57
637.939	340.26
638.354	323.87
638.77	295.79
639.185	344.94
639.6	302.81
640.015	323.87
640.43	316.85
640.845	307.49
641.259	265.36
641.674	305.15
642.089	312.17
642.504	373.02
642.918	251.32
643.333	300.47
643.747	344.94
644.162	263.02
644.576	358.98
644.991	330.89
645.405	263.02
645.819	237.27
646.233	323.87
646.647	356.64
647.061	361.32
647.475	314.51
647.889	220.89
648.303	302.81
648.717	337.91
649.131	307.49
649.545	316.85
649.958	293.44
650.372	328.55
650.785	267.7
651.199	274.72
651.612	284.08
652.026	370.68
652.439	323.87
652.852	344.94
653.266	291.1
653.679	323.87
654.092	293.44
654.505	288.76
654.918	307.49
655.331	272.38
655.744	335.57
656.156	422.17
656.569	344.94
656.982	284.08
657.394	291.1
657.807	330.89
658.22	342.6
658.632	293.44
659.044	314.51
659.457	253.66
659.869	277.06
660.281	326.21
660.693	333.23
661.106	326.21
661.518	300.47
661.93	302.81
662.342	340.26
662.754	419.83
663.165	284.08
663.577	328.55
663.989	323.87
664.401	286.42
664.812	354.3
665.224	272.38
665.635	291.1
666.047	387.07
666.458	344.94
666.869	321.53
667.281	309.83
667.692	277.06
668.103	300.47
668.514	284.08
668.925	253.66
669.336	286.42
669.747	302.81
670.158	323.87
670.569	263.02
670.979	347.28
671.39	321.53
671.801	328.55
672.211	307.49
672.622	314.51
673.032	333.23
673.443	300.47
673.853	347.28
674.263	302.81
674.674	284.08
675.084	340.26
675.494	356.64
675.904	351.96
676.314	323.87
676.724	351.96
677.134	333.23
677.544	258.34
677.953	349.62
678.363	312.17
678.773	335.57
679.182	349.62
679.592	321.53
680.001	286.42
680.411	291.1
680.82	279.4
681.23	328.55
681.639	319.19
682.048	349.62
682.457	272.38
682.866	293.44
683.275	244.29
683.684	277.06
684.093	314.51
684.502	333.23
684.911	337.91
685.32	309.83
685.728	312.17
686.137	307.49
686.546	344.94
686.954	375.36
687.363	328.55
687.771	295.79
688.179	335.57
688.588	363.66
688.996	333.23
689.404	333.23
689.812	274.72
690.22	312.17
690.628	298.13
691.036	302.81
691.444	344.94
691.852	323.87
692.26	342.6
692.667	302.81
693.075	319.19
693.483	321.53
693.89	358.98
694.298	302.81
694.705	319.19
695.112	328.55
695.52	328.55
695.927	305.15
696.334	337.91
696.741	305.15
697.148	384.73
697.555	272.38
697.962	279.4
698.369	286.42
698.776	302.81
699.183	328.55
699.59	361.32
699.996	298.13
700.403	312.17
700.81	314.51
701.216	300.47
701.623	312.17
702.029	246.63
702.435	300.47
702.842	298.13
703.248	361.32
703.654	333.23
704.06	323.87
704.466	333.23
704.872	302.81
705.278	344.94
705.684	302.81
706.09	293.44
706.496	326.21
706.901	333.23
707.307	330.89
707.712	314.51
708.118	291.1
708.523	344.94
708.929	330.89
709.334	342.6
709.74	382.39
710.145	347.28
710.55	279.4
710.955	366
711.36	326.21
711.765	321.53
712.17	319.19
712.575	265.36
712.98	894.96
713.385	382.39
713.789	300.47
714.194	323.87
714.599	300.47
715.003	354.3
715.408	260.68
715.812	300.47
716.217	335.57
716.621	314.51
717.025	302.81
717.429	387.07
717.833	366
718.238	302.81
718.642	382.39
719.046	323.87
719.449	323.87
719.853	300.47
720.257	319.19
720.661	321.53
721.065	307.49
721.468	368.34
721.872	319.19
722.275	375.36
722.679	342.6
723.082	279.4
723.485	244.29
723.889	347.28
724.292	323.87
724.695	373.02
725.098	316.85
725.501	333.23
725.904	398.77
726.307	274.72
726.71	340.26
727.113	260.68
727.516	293.44
727.918	330.89
728.321	337.91
728.724	347.28
729.126	321.53
729.529	309.83
729.931	309.83
730.333	342.6
730.736	323.87
731.138	309.83
731.54	337.91
731.942	281.74
732.344	279.4
732.746	293.44
733.148	314.51
733.55	309.83
733.952	309.83
734.354	307.49
734.756	323.87
735.157	321.53
735.559	328.55
735.96	295.79
736.362	382.39
736.763	326.21
737.165	375.36
737.566	305.15
737.967	344.94
738.368	279.4
738.77	354.3
739.171	300.47
739.572	312.17
739.973	391.75
740.374	340.26
740.774	358.98
741.175	281.74
741.576	342.6
741.977	405.79
742.377	319.19
742.778	314.51
743.178	370.68
743.579	349.62
743.979	305.15
744.379	356.64
744.78	335.57
745.18	274.72
745.58	263.02
745.98	330.89
746.38	277.06
746.78	307.49
747.18	328.55
747.58	305.15
747.98	384.73
748.38	312.17
748.779	307.49
749.179	333.23
749.578	307.49
749.978	337.91
750.377	309.83
750.777	241.95
751.176	354.3
751.575	307.49
751.975	356.64
752.374	305.15
752.773	288.76
753.172	284.08
753.571	330.89
753.97	347.28
754.369	316.85
754.768	293.44
755.166	272.38
755.565	291.1
755.964	342.6
756.362	354.3
756.761	356.64
757.159	305.15
757.558	351.96
757.956	330.89
758.354	330.89
758.753	356.64
759.151	312.17
759.549	391.75
759.947	300.47
760.345	300.47
760.743	337.91
761.141	305.15
761.539	354.3
761.936	370.68
762.334	300.47
762.732	291.1
763.129	293.44
763.527	241.95
763.924	382.39
764.322	281.74
764.719	291.1
765.117	309.83
765.514	326.21
765.911	279.4
766.308	305.15
766.705	305.15
767.102	319.19
767.499	349.62
767.896	335.57
768.293	358.98
768.69	326.21
769.086	286.42
769.483	337.91
769.88	321.53
770.276	309.83
770.673	330.89
771.069	349.62
771.466	309.83
771.862	328.55
772.258	337.91
772.654	347.28
773.05	314.51
773.447	337.91
773.843	356.64
774.239	328.55
774.634	291.1
775.03	349.62
775.426	239.61
775.822	403.45
776.218	281.74
776.613	333.23
777.009	323.87
777.404	340.26
777.8	323.87
778.195	267.7
778.59	312.17
778.986	302.81
779.381	351.96
779.776	260.68
780.171	354.3
780.566	267.7
780.961	333.23
781.356	316.85
781.751	340.26
782.146	316.85
782.54	279.4
782.935	302.81
783.33	307.49
783.724	333.23
784.119	256
784.513	316.85
784.908	389.41
785.302	335.57
785.696	321.53
786.09	305.15
786.485	298.13
786.879	363.66
787.273	316.85
787.667	337.91
788.061	241.95
788.454	321.53
788.848	302.81
789.242	260.68
789.636	323.87
790.029	326.21
790.423	328.55
790.816	314.51
791.21	316.85
791.603	307.49
791.997	270.04
792.39	314.51
792.783	288.76
793.176	326.21
793.569	288.76
793.962	312.17
794.355	302.81
794.748	298.13
795.141	288.76
795.534	330.89
795.927	323.87
796.319	347.28
796.712	363.66
797.105	302.81
797.497	305.15
797.89	270.04
798.282	300.47
798.674	302.81
799.067	309.83
799.459	316.85
799.851	316.85
800.243	356.64
800.635	305.15
801.027	370.68
801.419	335.57
801.811	288.76
802.203	323.87
802.594	340.26
802.986	302.81
803.378	344.94
803.769	293.44
804.161	363.66
804.552	314.51
804.944	272.38
805.335	265.36
805.726	356.64
806.118	340.26
806.509	298.13
806.9	286.42
807.291	291.1
807.682	291.1
808.073	347.28
808.464	293.44
808.855	335.57
809.245	323.87
809.636	258.34
810.027	300.47
810.417	239.61
810.808	298.13
811.198	265.36
811.589	302.81
811.979	323.87
812.369	260.68
812.759	312.17
813.15	333.23
813.54	314.51
813.93	349.62
814.32	330.89
814.71	314.51
815.1	349.62
815.489	312.17
815.879	305.15
816.269	347.28
816.658	340.26
817.048	342.6
817.438	272.38
817.827	293.44
818.216	272.38
818.606	337.91
818.995	373.02
819.384	267.7
819.773	314.51
820.163	291.1
820.552	258.34
820.941	256
821.33	307.49
821.718	270.04
822.107	286.42
822.496	326.21
822.885	263.02
823.273	288.76
823.662	316.85
824.05	288.76
824.439	279.4
824.827	305.15
825.216	316.85
825.604	326.21
825.992	354.3
826.38	279.4
826.768	312.17
827.156	307.49
827.544	284.08
827.932	312.17
828.32	302.81
828.708	272.38
829.096	354.3
829.483	309.83
829.871	300.47
830.259	333.23
830.646	337.91
831.034	288.76
831.421	291.1
831.808	351.96
832.196	335.57
832.583	272.38
832.97	326.21
833.357	305.15
833.744	335.57
834.131	260.68
834.518	305.15
834.905	335.57
835.292	284.08
835.678	354.3
836.065	312.17
836.452	316.85
836.838	312.17
837.225	277.06
837.611	340.26
837.998	314.51
838.384	344.94
838.77	295.79
839.157	316.85
839.543	309.83
839.929	284.08
840.315	246.63
840.701	382.39
841.087	241.95
841.473	305.15
841.858	295.79
842.244	263.02
842.63	326.21
843.015	279.4
843.401	457.28
843.787	387.07
844.172	314.51
844.557	312.17
844.943	293.44
845.328	321.53
845.713	319.19
846.098	312.17
846.483	319.19
846.868	361.32
847.253	300.47
847.638	323.87
848.023	328.55
848.408	347.28
848.793	321.53
849.177	319.19
849.562	330.89
849.947	328.55
850.331	323.87
850.715	375.36
851.1	305.15
851.484	314.51
851.868	337.91
852.253	293.44
852.637	380.04
853.021	321.53
853.405	298.13
853.789	263.02
854.173	323.87
854.557	363.66
854.94	323.87
855.324	312.17
855.708	305.15
856.091	340.26
856.475	377.7
856.858	326.21
857.242	300.47
857.625	335.57
858.009	286.42
858.392	323.87
858.775	321.53
859.158	248.97
859.541	330.89
859.924	316.85
860.307	251.32
860.69	272.38
861.073	335.57
861.456	258.34
861.838	284.08
862.221	302.81
862.604	291.1
862.986	326.21
863.369	256
863.751	263.02
864.133	342.6
864.516	300.47
864.898	298.13
865.28	314.51
865.662	323.87
866.044	321.53
866.426	351.96
866.808	321.53
867.19	293.44
867.572	344.94
867.954	337.91
868.336	330.89
868.717	417.49
869.099	323.87
869.48	270.04
869.862	370.68
870.243	267.7
870.625	321.53
871.006	302.81
871.387	340.26
871.768	279.4
872.149	251.32
872.53	323.87
872.911	333.23
873.292	300.47
873.673	335.57
874.054	330.89
874.435	349.62
874.815	232.59
875.196	347.28
875.577	270.04
875.957	267.7
876.338	220.89
876.718	326.21
877.098	305.15
877.479	321.53
877.859	302.81
878.239	335.57
878.619	298.13
878.999	321.53
879.379	375.36
879.759	328.55
880.139	330.89
880.519	340.26
880.898	319.19
881.278	295.79
881.658	300.47
882.037	314.51
882.417	272.38
882.796	286.42
883.176	335.57
883.555	333.23
883.934	227.91
884.313	277.06
884.693	265.36
885.072	251.32
885.451	307.49
885.83	328.55
886.209	302.81
886.587	389.41
886.966	330.89
887.345	316.85
887.724	291.1
888.102	356.64
888.481	307.49
888.859	342.6
889.238	335.57
889.616	272.38
889.994	286.42
890.373	293.44
890.751	284.08
891.129	293.44
891.507	295.79
891.885	302.81
892.263	309.83
892.641	277.06
893.019	309.83
893.396	330.89
893.774	267.7
894.152	323.87
894.529	256
894.907	295.79
895.284	351.96
895.662	274.72
896.039	358.98
896.416	314.51
896.794	270.04
897.171	321.53
897.548	347.28
897.925	319.19
898.302	316.85
898.679	321.53
899.056	323.87
899.433	319.19
899.809	272.38
900.186	316.85
900.563	286.42
900.939	354.3
901.316	277.06
901.692	314.51
902.069	270.04
902.445	293.44
902.821	307.49
903.197	316.85
903.574	260.68
903.95	354.3
904.326	263.02
904.702	335.57
905.078	358.98
905.454	354.3
905.829	293.44
906.205	337.91
906.581	265.36
906.956	323.87
907.332	256
907.707	309.83
908.083	305.15
908.458	314.51
908.833	358.98
909.209	300.47
909.584	361.32
909.959	335.57
910.334	326.21
910.709	244.29
911.084	248.97
911.459	354.3
911.834	293.44
912.209	307.49
912.583	281.74
912.958	326.21
913.333	293.44
913.707	328.55
914.082	330.89
914.456	295.79
914.83	256
915.205	300.47
915.579	286.42
915.953	295.79
916.327	251.32
916.701	234.93
917.075	380.04
917.449	396.43
917.823	316.85
918.197	368.34
918.571	291.1
918.944	387.07
919.318	314.51
919.692	316.85
920.065	314.51
920.438	380.04
920.812	300.47
921.185	256
921.558	349.62
921.932	326.21
922.305	302.81
922.678	384.73
923.051	267.7
923.424	267.7
923.797	298.13
924.17	272.38
924.542	281.74
924.915	340.26
925.288	307.49
925.661	312.17
926.033	384.73
926.406	263.02
926.778	277.06
927.15	274.72
927.523	300.47
927.895	319.19
928.267	319.19
928.639	335.57
929.011	328.55
929.383	319.19
929.755	291.1
930.127	281.74
930.499	316.85
930.871	286.42
931.242	267.7
931.614	300.47
931.986	281.74
932.357	358.98
932.729	330.89
933.1	321.53
933.471	281.74
933.843	277.06
934.214	351.96
934.585	263.02
934.956	300.47
935.327	286.42
935.698	251.32
936.069	302.81
936.44	295.79
936.811	281.74
937.182	288.76
937.552	354.3
937.923	309.83
938.293	354.3
938.664	422.17
939.034	340.26
939.405	321.53
939.775	309.83
940.145	274.72
940.516	263.02
940.886	305.15
941.256	258.34
941.626	305.15
941.996	291.1
942.366	309.83
942.735	354.3
943.105	340.26
943.475	298.13
943.845	337.91
944.214	248.97
944.584	298.13
944.953	319.19
945.323	284.08
945.692	286.42
946.061	298.13
946.43	279.4
946.8	309.83
947.169	333.23
947.538	358.98
947.907	307.49
948.276	298.13
948.645	342.6
949.013	284.08
949.382	281.74
949.751	340.26
950.119	387.07
950.488	302.81
950.857	314.51
951.225	314.51
951.593	328.55
951.962	328.55
952.33	347.28
952.698	279.4
953.066	344.94
953.434	281.74
953.802	333.23
954.17	281.74
954.538	293.44
954.906	358.98
955.274	389.41
955.642	358.98
956.009	281.74
956.377	351.96
956.744	319.19
957.112	302.81
957.479	291.1
957.847	347.28
958.214	316.85
958.581	314.51
958.948	328.55
959.315	319.19
959.683	286.42
960.05	265.36
960.416	293.44
960.783	272.38
961.15	300.47
961.517	344.94
961.884	314.51
962.25	356.64
962.617	323.87
962.983	328.55
963.35	256
963.716	260.68
964.082	258.34
964.449	335.57
964.815	351.96
965.181	351.96
965.547	330.89
965.913	373.02
966.279	284.08
966.645	293.44
967.011	298.13
967.377	253.66
967.742	270.04
968.108	258.34
968.474	408.13
968.839	312.17
969.205	370.68
969.57	330.89
969.935	237.27
970.301	354.3
970.666	286.42
971.031	349.62
971.396	323.87
971.761	314.51
972.126	321.53
972.491	312.17
972.856	305.15
973.221	316.85
973.586	302.81
973.95	333.23
974.315	300.47
974.679	307.49
975.044	391.75
975.408	361.32
975.773	256
976.137	333.23
976.501	293.44
976.866	274.72
977.23	373.02
977.594	291.1
977.958	354.3
978.322	333.23
978.686	263.02
979.049	288.76
979.413	389.41
979.777	279.4
980.141	326.21
980.504	319.19
980.868	298.13
981.231	274.72
981.595	335.57
981.958	344.94
982.321	300.47
982.684	377.7
983.048	295.79
983.411	321.53
983.774	321.53
984.137	351.96
984.5	272.38
984.862	326.21
985.225	277.06
985.588	351.96
985.951	387.07
986.313	361.32
986.676	373.02
987.038	241.95
987.401	316.85
987.763	328.55
988.125	298.13
988.488	293.44
988.85	373.02
989.212	274.72
989.574	291.1
989.936	326.21
990.298	305.15
990.66	284.08
991.022	333.23
991.383	305.15
991.745	316.85
992.107	316.85
992.468	314.51
992.83	246.63
993.191	270.04
993.553	265.36
993.914	312.17
994.275	270.04
994.637	342.6
994.998	274.72
995.359	267.7
995.72	272.38
996.081	316.85
996.442	265.36
996.803	281.74
997.163	227.91
997.524	342.6
997.885	335.57
998.245	291.1
998.606	230.25
998.966	314.51
999.327	298.13
999.687	265.36
1000.047	342.6
1000.408	270.04
1000.768	340.26
1001.128	326.21
1001.488	309.83
1001.848	326.21
1002.208	288.76
1002.568	328.55
1002.927	298.13
1003.287	314.51
1003.647	358.98
1004.007	265.36
1004.366	309.83
1004.726	288.76
1005.085	265.36
1005.444	309.83
1005.804	375.36
1006.163	323.87
1006.522	307.49
1006.881	305.15
1007.24	300.47
1007.599	300.47
1007.958	326.21
1008.317	270.04
1008.676	288.76
1009.035	342.6
1009.393	337.91
1009.752	293.44
1010.111	344.94
1010.469	298.13
1010.828	270.04
1011.186	323.87
1011.544	323.87
1011.903	358.98
1012.261	321.53
1012.619	265.36
1012.977	279.4
1013.335	363.66
1013.693	328.55
1014.051	347.28
1014.409	309.83
1014.767	302.81
1015.124	368.34
1015.482	309.83
1015.84	351.96
1016.197	272.38
1016.555	347.28
1016.912	351.96
1017.269	328.55
1017.627	302.81
1017.984	239.61
1018.341	356.64
1018.698	330.89
1019.055	305.15
1019.412	295.79
1019.769	368.34
1020.126	244.29
1020.483	281.74
1020.84	321.53
1021.196	302.81
1021.553	258.34
1021.909	272.38
1022.266	272.38
1022.622	295.79
1022.979	351.96
1023.335	316.85
1023.691	281.74
1024.047	286.42
1024.404	316.85
1024.76	260.68
1025.116	270.04
1025.472	314.51
1025.827	260.68
1026.183	260.68
1026.539	335.57
1026.895	307.49
1027.25	349.62
1027.606	270.04
1027.961	312.17
1028.317	321.53
1028.672	326.21
1029.028	342.6
1029.383	349.62
1029.738	286.42
1030.093	342.6
1030.448	335.57
1030.803	265.36
1031.158	263.02
1031.513	302.81
1031.868	279.4
1032.223	307.49
1032.577	234.93
1032.932	380.04
1033.287	267.7
1033.641	335.57
1033.996	288.76
1034.35	277.06
1034.704	298.13
1035.059	284.08
1035.413	326.21
1035.767	326.21
1036.121	326.21
