Data from Al_FLMS009871__1021__16-23-58-015.txt Node

Date: Fri Mar 08 16:23:58 CST 2024
User: pe5414po
Spectrometer: FLMS00987
Trigger mode: 0
Integration Time (sec): 1.000000E-1
Scans to average: 1
Electric dark correction enabled: true
Nonlinearity correction enabled: false
Boxcar width: 0
XAxis mode: Wavelengths
Number of Pixels in Spectrum: 2048
>>>>>Begin Spectral Data<<<<<
188.938	-66.85
189.409	-66.85
189.879	-66.85
190.349	-92.6
190.819	-73.87
191.29	-127.71
191.76	-134.73
192.23	-101.96
192.7	-15.36
193.17	-62.17
193.64	-36.42
194.109	-50.47
194.579	-29.4
195.049	-17.7
195.519	75.92
195.988	8.05
196.458	66.56
196.927	78.26
197.397	64.22
197.866	153.16
198.336	129.75
198.805	153.16
199.274	188.27
199.744	162.52
200.213	211.67
200.682	190.61
201.151	225.72
201.62	190.61
202.089	225.72
202.558	192.95
203.027	286.57
203.495	218.69
203.964	267.85
204.433	265.5
204.902	225.72
205.37	239.76
205.839	309.97
206.307	295.93
206.776	352.1
207.244	298.27
207.712	267.85
208.181	232.74
208.649	300.61
209.117	281.89
209.585	279.55
210.053	281.89
210.521	256.14
210.989	298.27
211.457	298.27
211.925	274.87
212.393	326.36
212.861	309.97
213.328	293.59
213.796	317
214.264	314.66
214.731	256.14
215.199	270.19
215.666	286.57
216.133	242.1
216.601	197.63
217.068	267.85
217.535	274.87
218.003	239.76
218.47	232.74
218.937	274.87
219.404	235.08
219.871	333.38
220.338	286.57
220.805	288.91
221.271	249.12
221.738	302.95
222.205	286.57
222.671	249.12
223.138	284.23
223.605	258.48
224.071	286.57
224.538	235.08
225.004	202.31
225.47	249.12
225.937	258.48
226.403	309.97
226.869	218.69
227.335	249.12
227.801	244.44
228.267	253.8
228.733	204.65
229.199	295.93
229.665	263.16
230.131	270.19
230.597	228.06
231.062	274.87
231.528	267.85
231.994	284.23
232.459	232.74
232.925	295.93
233.39	267.85
233.856	267.85
234.321	314.66
234.786	317
235.252	305.29
235.717	361.47
236.182	235.08
236.647	235.08
237.112	246.78
237.577	277.21
238.042	249.12
238.507	270.19
238.972	270.19
239.436	263.16
239.901	230.4
240.366	305.29
240.83	228.06
241.295	242.1
241.76	251.46
242.224	230.4
242.688	309.97
243.153	314.66
243.617	284.23
244.081	242.1
244.545	295.93
245.01	307.63
245.474	324.02
245.938	267.85
246.402	256.14
246.866	300.61
247.33	321.68
247.793	263.16
248.257	272.53
248.721	366.15
249.185	288.91
249.648	272.53
250.112	223.37
250.575	270.19
251.039	317
251.502	270.19
251.965	270.19
252.429	321.68
252.892	228.06
253.355	270.19
253.818	228.06
254.281	265.5
254.744	239.76
255.207	216.35
255.67	279.55
256.133	286.57
256.596	319.34
257.059	235.08
257.522	274.87
257.984	260.82
258.447	249.12
258.909	223.37
259.372	284.23
259.834	305.29
260.297	228.06
260.759	286.57
261.221	274.87
261.684	249.12
262.146	342.74
262.608	281.89
263.07	244.44
263.532	211.67
263.994	295.93
264.456	239.76
264.918	251.46
265.38	326.36
265.842	272.53
266.303	314.66
266.765	324.02
267.227	284.23
267.688	274.87
268.15	256.14
268.611	309.97
269.072	188.27
269.534	281.89
269.995	258.48
270.456	338.06
270.918	265.5
271.379	349.76
271.84	302.95
272.301	333.38
272.762	270.19
273.223	253.8
273.684	342.74
274.144	244.44
274.605	300.61
275.066	279.55
275.527	317
275.987	291.25
276.448	317
276.908	288.91
277.369	251.46
277.829	256.14
278.289	293.59
278.75	326.36
279.21	279.55
279.67	335.72
280.13	272.53
280.59	239.76
281.05	317
281.51	302.95
281.97	279.55
282.43	331.04
282.89	328.7
283.35	288.91
283.809	267.85
284.269	302.95
284.729	211.67
285.188	232.74
285.648	265.5
286.107	286.57
286.567	249.12
287.026	305.29
287.485	228.06
287.944	281.89
288.404	235.08
288.863	295.93
289.322	319.34
289.781	253.8
290.24	256.14
290.699	288.91
291.158	333.38
291.616	307.63
292.075	298.27
292.534	328.7
292.992	307.63
293.451	267.85
293.91	256.14
294.368	298.27
294.827	251.46
295.285	307.63
295.743	314.66
296.202	267.85
296.66	223.37
297.118	237.42
297.576	321.68
298.034	291.25
298.492	244.44
298.95	321.68
299.408	286.57
299.866	314.66
300.324	293.59
300.781	302.95
301.239	291.25
301.697	300.61
302.154	267.85
302.612	309.97
303.069	286.57
303.527	270.19
303.984	260.82
304.441	277.21
304.899	288.91
305.356	263.16
305.813	270.19
306.27	326.36
306.727	295.93
307.184	321.68
307.641	312.32
308.098	246.78
308.555	214.01
309.012	314.66
309.468	347.42
309.925	281.89
310.382	305.29
310.838	293.59
311.295	291.25
311.751	335.72
312.208	340.4
312.664	314.66
313.12	272.53
313.577	260.82
314.033	246.78
314.489	295.93
314.945	249.12
315.401	265.5
315.857	307.63
316.313	239.76
316.769	291.25
317.225	366.15
317.681	291.25
318.136	284.23
318.592	338.06
319.048	293.59
319.503	307.63
319.959	218.69
320.414	277.21
320.869	298.27
321.325	286.57
321.78	270.19
322.235	352.1
322.691	300.61
323.146	349.76
323.601	263.16
324.056	218.69
324.511	300.61
324.966	326.36
325.421	249.12
325.875	335.72
326.33	267.85
326.785	335.72
327.24	434.02
327.694	375.51
328.149	260.82
328.603	277.21
329.058	354.44
329.512	291.25
329.966	326.36
330.421	265.5
330.875	249.12
331.329	312.32
331.783	345.08
332.237	335.72
332.691	291.25
333.145	281.89
333.599	281.89
334.053	288.91
334.507	298.27
334.96	293.59
335.414	284.23
335.868	302.95
336.321	298.27
336.775	298.27
337.228	263.16
337.682	366.15
338.135	305.29
338.588	321.68
339.042	302.95
339.495	284.23
339.948	307.63
340.401	328.7
340.854	319.34
341.307	356.79
341.76	263.16
342.213	270.19
342.666	298.27
343.119	274.87
343.571	293.59
344.024	256.14
344.477	284.23
344.929	279.55
345.382	244.44
345.834	300.61
346.287	356.79
346.739	347.42
347.191	279.55
347.644	265.5
348.096	242.1
348.548	270.19
349	279.55
349.452	293.59
349.904	338.06
350.356	335.72
350.808	363.81
351.26	274.87
351.711	230.4
352.163	274.87
352.615	396.57
353.066	326.36
353.518	319.34
353.969	272.53
354.421	277.21
354.872	319.34
355.324	335.72
355.775	317
356.226	284.23
356.677	324.02
357.128	293.59
357.579	298.27
358.03	331.04
358.481	333.38
358.932	272.53
359.383	253.8
359.834	274.87
360.285	305.29
360.735	319.34
361.186	307.63
361.637	260.82
362.087	309.97
362.538	352.1
362.988	326.36
363.438	373.17
363.889	373.17
364.339	298.27
364.789	314.66
365.239	246.78
365.689	288.91
366.139	326.36
366.589	288.91
367.039	272.53
367.489	272.53
367.939	293.59
368.389	312.32
368.839	237.42
369.288	270.19
369.738	340.4
370.187	272.53
370.637	258.48
371.086	272.53
371.536	279.55
371.985	286.57
372.434	279.55
372.884	305.29
373.333	321.68
373.782	288.91
374.231	239.76
374.68	326.36
375.129	272.53
375.578	277.21
376.027	335.72
376.475	291.25
376.924	312.32
377.373	256.14
377.822	281.89
378.27	270.19
378.719	288.91
379.167	300.61
379.616	286.57
380.064	326.36
380.512	288.91
380.961	326.36
381.409	218.69
381.857	277.21
382.305	284.23
382.753	335.72
383.201	218.69
383.649	277.21
384.097	295.93
384.545	347.42
384.992	274.87
385.44	267.85
385.888	342.74
386.335	295.93
386.783	302.95
387.231	384.87
387.678	324.02
388.125	291.25
388.573	272.53
389.02	211.67
389.467	288.91
389.914	305.29
390.362	218.69
390.809	298.27
391.256	347.42
391.703	335.72
392.15	356.79
392.596	347.42
393.043	340.4
393.49	331.04
393.937	251.46
394.383	307.63
394.83	321.68
395.276	305.29
395.723	319.34
396.169	340.4
396.616	256.14
397.062	309.97
397.508	305.29
397.954	382.53
398.401	333.38
398.847	352.1
399.293	302.95
399.739	235.08
400.185	331.04
400.631	324.02
401.076	309.97
401.522	225.72
401.968	359.13
402.414	305.29
402.859	403.6
403.305	307.63
403.75	302.95
404.196	300.61
404.641	352.1
405.086	288.91
405.532	312.32
405.977	286.57
406.422	359.13
406.867	295.93
407.312	246.78
407.757	281.89
408.202	272.53
408.647	305.29
409.092	281.89
409.537	347.42
409.982	265.5
410.426	359.13
410.871	230.4
411.316	391.89
411.76	349.76
412.205	272.53
412.649	342.74
413.093	319.34
413.538	349.76
413.982	295.93
414.426	335.72
414.87	328.7
415.314	335.72
415.758	342.74
416.202	328.7
416.646	274.87
417.09	293.59
417.534	270.19
417.978	291.25
418.421	312.32
418.865	314.66
419.309	324.02
419.752	302.95
420.196	298.27
420.639	281.89
421.083	263.16
421.526	249.12
421.969	300.61
422.412	279.55
422.856	288.91
423.299	326.36
423.742	295.93
424.185	284.23
424.628	260.82
425.071	354.44
425.513	317
425.956	333.38
426.399	319.34
426.842	312.32
427.284	349.76
427.727	288.91
428.169	342.74
428.612	298.27
429.054	244.44
429.497	324.02
429.939	270.19
430.381	338.06
430.823	317
431.265	298.27
431.707	267.85
432.149	349.76
432.591	251.46
433.033	377.85
433.475	298.27
433.917	300.61
434.359	267.85
434.8	260.82
435.242	253.8
435.684	326.36
436.125	284.23
436.567	338.06
437.008	302.95
437.449	349.76
437.891	321.68
438.332	281.89
438.773	190.61
439.214	314.66
439.656	286.57
440.097	258.48
440.538	317
440.978	314.66
441.419	272.53
441.86	291.25
442.301	314.66
442.742	265.5
443.182	291.25
443.623	284.23
444.063	321.68
444.504	314.66
444.944	352.1
445.385	345.08
445.825	272.53
446.265	295.93
446.706	319.34
447.146	333.38
447.586	223.37
448.026	335.72
448.466	352.1
448.906	349.76
449.346	300.61
449.786	340.4
450.225	363.81
450.665	398.92
451.105	309.97
451.544	256.14
451.984	277.21
452.424	363.81
452.863	286.57
453.302	312.32
453.742	398.92
454.181	300.61
454.62	312.32
455.059	347.42
455.499	328.7
455.938	305.29
456.377	331.04
456.816	263.16
457.254	298.27
457.693	321.68
458.132	342.74
458.571	300.61
459.01	274.87
459.448	368.49
459.887	300.61
460.325	291.25
460.764	345.08
461.202	281.89
461.641	333.38
462.079	340.4
462.517	302.95
462.955	331.04
463.393	307.63
463.832	328.7
464.27	333.38
464.708	272.53
465.145	352.1
465.583	331.04
466.021	307.63
466.459	267.85
466.897	354.44
467.334	314.66
467.772	291.25
468.209	321.68
468.647	305.29
469.084	331.04
469.522	314.66
469.959	335.72
470.396	244.44
470.833	286.57
471.271	328.7
471.708	384.87
472.145	307.63
472.582	274.87
473.019	328.7
473.456	326.36
473.892	349.76
474.329	293.59
474.766	319.34
475.202	331.04
475.639	331.04
476.076	314.66
476.512	319.34
476.949	335.72
477.385	300.61
477.821	291.25
478.258	305.29
478.694	288.91
479.13	293.59
479.566	279.55
480.002	260.82
480.438	305.29
480.874	312.32
481.31	277.21
481.746	317
482.181	270.19
482.617	324.02
483.053	342.74
483.488	295.93
483.924	298.27
484.36	331.04
484.795	286.57
485.23	305.29
485.666	309.97
486.101	260.82
486.536	281.89
486.971	338.06
487.407	342.74
487.842	326.36
488.277	302.95
488.712	279.55
489.146	279.55
489.581	314.66
490.016	340.4
490.451	356.79
490.885	279.55
491.32	326.36
491.755	263.16
492.189	324.02
492.624	298.27
493.058	326.36
493.492	317
493.927	265.5
494.361	267.85
494.795	307.63
495.229	242.1
495.663	317
496.097	263.16
496.531	370.83
496.965	326.36
497.399	293.59
497.833	373.17
498.266	288.91
498.7	370.83
499.134	312.32
499.567	300.61
500.001	302.95
500.434	232.74
500.868	366.15
501.301	352.1
501.734	288.91
502.168	314.66
502.601	293.59
503.034	373.17
503.467	319.34
503.9	288.91
504.333	305.29
504.766	338.06
505.199	335.72
505.632	284.23
506.064	251.46
506.497	352.1
506.93	326.36
507.362	317
507.795	277.21
508.227	302.95
508.66	272.53
509.092	274.87
509.524	265.5
509.956	291.25
510.389	267.85
510.821	331.04
511.253	295.93
511.685	328.7
512.117	321.68
512.549	295.93
512.981	263.16
513.412	309.97
513.844	298.27
514.276	314.66
514.707	305.29
515.139	256.14
515.571	265.5
516.002	345.08
516.433	338.06
516.865	333.38
517.296	305.29
517.727	272.53
518.159	312.32
518.59	256.14
519.021	305.29
519.452	324.02
519.883	368.49
520.314	352.1
520.744	375.51
521.175	291.25
521.606	314.66
522.037	333.38
522.467	305.29
522.898	345.08
523.328	326.36
523.759	384.87
524.189	338.06
524.62	309.97
525.05	284.23
525.48	298.27
525.91	307.63
526.341	256.14
526.771	345.08
527.201	333.38
527.631	331.04
528.061	368.49
528.49	338.06
528.92	209.33
529.35	333.38
529.78	277.21
530.209	347.42
530.639	335.72
531.068	249.12
531.498	263.16
531.927	384.87
532.357	345.08
532.786	317
533.215	291.25
533.644	274.87
534.074	331.04
534.503	307.63
534.932	274.87
535.361	331.04
535.79	295.93
536.218	267.85
536.647	345.08
537.076	324.02
537.505	300.61
537.933	291.25
538.362	277.21
538.79	274.87
539.219	328.7
539.647	363.81
540.076	326.36
540.504	380.19
540.932	324.02
541.36	340.4
541.788	326.36
542.217	331.04
542.645	295.93
543.073	328.7
543.5	235.08
543.928	359.13
544.356	333.38
544.784	417.64
545.211	279.55
545.639	284.23
546.067	291.25
546.494	305.29
546.922	309.97
547.349	368.49
547.776	314.66
548.204	251.46
548.631	324.02
549.058	242.1
549.485	291.25
549.912	281.89
550.339	382.53
550.766	281.89
551.193	317
551.62	274.87
552.047	284.23
552.474	331.04
552.9	307.63
553.327	312.32
553.754	272.53
554.18	300.61
554.607	272.53
555.033	331.04
555.459	291.25
555.886	223.37
556.312	279.55
556.738	298.27
557.164	352.1
557.59	265.5
558.016	293.59
558.442	391.89
558.868	302.95
559.294	347.42
559.72	258.48
560.145	333.38
560.571	302.95
560.997	338.06
561.422	317
561.848	272.53
562.273	338.06
562.699	295.93
563.124	288.91
563.549	284.23
563.974	270.19
564.4	317
564.825	305.29
565.25	349.76
565.675	300.61
566.1	302.95
566.525	317
566.95	300.61
567.374	309.97
567.799	317
568.224	267.85
568.648	298.27
569.073	298.27
569.497	349.76
569.922	298.27
570.346	300.61
570.771	298.27
571.195	317
571.619	333.38
572.043	345.08
572.467	293.59
572.891	363.81
573.315	242.1
573.739	258.48
574.163	302.95
574.587	338.06
575.011	237.42
575.435	209.33
575.858	281.89
576.282	352.1
576.705	307.63
577.129	324.02
577.552	338.06
577.976	284.23
578.399	352.1
578.822	321.68
579.245	249.12
579.669	321.68
580.092	300.61
580.515	239.76
580.938	347.42
581.361	370.83
581.784	272.53
582.206	307.63
582.629	305.29
583.052	340.4
583.474	281.89
583.897	331.04
584.32	321.68
584.742	305.29
585.165	286.57
585.587	349.76
586.009	319.34
586.431	319.34
586.854	338.06
587.276	375.51
587.698	342.74
588.12	260.82
588.542	312.32
588.964	293.59
589.386	288.91
589.807	305.29
590.229	317
590.651	263.16
591.073	347.42
591.494	312.32
591.916	342.74
592.337	298.27
592.759	284.23
593.18	377.85
593.601	295.93
594.022	244.44
594.444	274.87
594.865	258.48
595.286	281.89
595.707	319.34
596.128	326.36
596.549	267.85
596.97	263.16
597.39	274.87
597.811	279.55
598.232	265.5
598.652	286.57
599.073	312.32
599.494	253.8
599.914	302.95
600.334	272.53
600.755	356.79
601.175	338.06
601.595	321.68
602.015	277.21
602.436	312.32
602.856	373.17
603.276	279.55
603.696	352.1
604.115	305.29
604.535	314.66
604.955	363.81
605.375	326.36
605.794	375.51
606.214	295.93
606.634	328.7
607.053	298.27
607.473	373.17
607.892	284.23
608.311	300.61
608.731	251.46
609.15	340.4
609.569	251.46
609.988	314.66
610.407	317
610.826	335.72
611.245	291.25
611.664	242.1
612.083	291.25
612.501	307.63
612.92	293.59
613.339	260.82
613.757	260.82
614.176	326.36
614.594	335.72
615.013	347.42
615.431	288.91
615.85	274.87
616.268	312.32
616.686	307.63
617.104	354.44
617.522	312.32
617.94	342.74
618.358	277.21
618.776	284.23
619.194	242.1
619.612	281.89
620.03	305.29
620.447	300.61
620.865	295.93
621.282	312.32
621.7	331.04
622.117	300.61
622.535	331.04
622.952	286.57
623.369	338.06
623.787	277.21
624.204	331.04
624.621	352.1
625.038	291.25
625.455	317
625.872	286.57
626.289	412.96
626.706	305.29
627.123	307.63
627.539	270.19
627.956	249.12
628.373	279.55
628.789	338.06
629.206	321.68
629.622	265.5
630.038	300.61
630.455	321.68
630.871	288.91
631.287	300.61
631.703	277.21
632.12	302.95
632.536	324.02
632.952	331.04
633.368	284.23
633.783	366.15
634.199	328.7
634.615	281.89
635.031	249.12
635.446	295.93
635.862	345.08
636.277	317
636.693	302.95
637.108	342.74
637.524	267.85
637.939	312.32
638.354	340.4
638.77	300.61
639.185	342.74
639.6	333.38
640.015	366.15
640.43	314.66
640.845	312.32
641.259	319.34
641.674	300.61
642.089	293.59
642.504	333.38
642.918	291.25
643.333	354.44
643.747	298.27
644.162	347.42
644.576	291.25
644.991	331.04
645.405	260.82
645.819	312.32
646.233	317
646.647	270.19
647.061	305.29
647.475	312.32
647.889	281.89
648.303	265.5
648.717	302.95
649.131	314.66
649.545	352.1
649.958	302.95
650.372	361.47
650.785	291.25
651.199	314.66
651.612	300.61
652.026	286.57
652.439	300.61
652.852	382.53
653.266	295.93
653.679	293.59
654.092	338.06
654.505	265.5
654.918	288.91
655.331	319.34
655.744	258.48
656.156	312.32
656.569	328.7
656.982	284.23
657.394	321.68
657.807	305.29
658.22	375.51
658.632	349.76
659.044	342.74
659.457	295.93
659.869	309.97
660.281	302.95
660.693	281.89
661.106	338.06
661.518	328.7
661.93	302.95
662.342	314.66
662.754	326.36
663.165	312.32
663.577	274.87
663.989	347.42
664.401	342.74
664.812	331.04
665.224	244.44
665.635	314.66
666.047	359.13
666.458	295.93
666.869	244.44
667.281	326.36
667.692	286.57
668.103	314.66
668.514	300.61
668.925	298.27
669.336	274.87
669.747	319.34
670.158	305.29
670.569	288.91
670.979	317
671.39	384.87
671.801	293.59
672.211	277.21
672.622	312.32
673.032	349.76
673.443	340.4
673.853	249.12
674.263	295.93
674.674	361.47
675.084	305.29
675.494	347.42
675.904	338.06
676.314	375.51
676.724	333.38
677.134	319.34
677.544	284.23
677.953	335.72
678.363	284.23
678.773	342.74
679.182	288.91
679.592	309.97
680.001	256.14
680.411	375.51
680.82	347.42
681.23	317
681.639	326.36
682.048	295.93
682.457	331.04
682.866	302.95
683.275	302.95
683.684	359.13
684.093	230.4
684.502	281.89
684.911	263.16
685.32	319.34
685.728	235.08
686.137	370.83
686.546	317
686.954	298.27
687.363	307.63
687.771	237.42
688.179	277.21
688.588	335.72
688.996	293.59
689.404	293.59
689.812	286.57
690.22	291.25
690.628	312.32
691.036	300.61
691.444	347.42
691.852	291.25
692.26	340.4
692.667	286.57
693.075	293.59
693.483	373.17
693.89	260.82
694.298	291.25
694.705	333.38
695.112	328.7
695.52	312.32
695.927	237.42
696.334	345.08
696.741	309.97
697.148	345.08
697.555	305.29
697.962	267.85
698.369	302.95
698.776	326.36
699.183	317
699.59	305.29
699.996	291.25
700.403	324.02
700.81	345.08
701.216	354.44
701.623	253.8
702.029	363.81
702.435	263.16
702.842	317
703.248	298.27
703.654	260.82
704.06	349.76
704.466	317
704.872	349.76
705.278	284.23
705.684	270.19
706.09	366.15
706.496	317
706.901	347.42
707.307	309.97
707.712	307.63
708.118	279.55
708.523	321.68
708.929	293.59
709.334	270.19
709.74	270.19
710.145	265.5
710.55	328.7
710.955	267.85
711.36	331.04
711.765	284.23
712.17	286.57
712.575	246.78
712.98	881.07
713.385	389.55
713.789	338.06
714.194	305.29
714.599	277.21
715.003	363.81
715.408	366.15
715.812	256.14
716.217	295.93
716.621	314.66
717.025	349.76
717.429	251.46
717.833	281.89
718.238	295.93
718.642	272.53
719.046	258.48
719.449	293.59
719.853	288.91
720.257	249.12
720.661	260.82
721.065	342.74
721.468	295.93
721.872	288.91
722.275	286.57
722.679	307.63
723.082	309.97
723.485	342.74
723.889	265.5
724.292	300.61
724.695	349.76
725.098	326.36
725.501	319.34
725.904	305.29
726.307	270.19
726.71	263.16
727.113	265.5
727.516	284.23
727.918	338.06
728.321	331.04
728.724	218.69
729.126	295.93
729.529	338.06
729.931	335.72
730.333	239.76
730.736	258.48
731.138	352.1
731.54	317
731.942	237.42
732.344	324.02
732.746	309.97
733.148	333.38
733.55	340.4
733.952	366.15
734.354	249.12
734.756	293.59
735.157	267.85
735.559	267.85
735.96	312.32
736.362	319.34
736.763	258.48
737.165	295.93
737.566	342.74
737.967	253.8
738.368	288.91
738.77	300.61
739.171	277.21
739.572	300.61
739.973	326.36
740.374	307.63
740.774	321.68
741.175	277.21
741.576	293.59
741.977	284.23
742.377	312.32
742.778	370.83
743.178	277.21
743.579	295.93
743.979	300.61
744.379	295.93
744.78	342.74
745.18	253.8
745.58	286.57
745.98	302.95
746.38	366.15
746.78	319.34
747.18	335.72
747.58	272.53
747.98	272.53
748.38	312.32
748.779	321.68
749.179	363.81
749.578	317
749.978	354.44
750.377	291.25
750.777	314.66
751.176	340.4
751.575	349.76
751.975	265.5
752.374	302.95
752.773	272.53
753.172	286.57
753.571	295.93
753.97	277.21
754.369	314.66
754.768	321.68
755.166	314.66
755.565	281.89
755.964	281.89
756.362	258.48
756.761	333.38
757.159	319.34
757.558	288.91
757.956	377.85
758.354	300.61
758.753	309.97
759.151	331.04
759.549	260.82
759.947	328.7
760.345	288.91
760.743	293.59
761.141	333.38
761.539	288.91
761.936	293.59
762.334	274.87
762.732	347.42
763.129	258.48
763.527	293.59
763.924	324.02
764.322	263.16
764.719	279.55
765.117	352.1
765.514	281.89
765.911	286.57
766.308	373.17
766.705	302.95
767.102	314.66
767.499	246.78
767.896	192.95
768.293	246.78
768.69	324.02
769.086	338.06
769.483	356.79
769.88	291.25
770.276	277.21
770.673	324.02
771.069	274.87
771.466	312.32
771.862	340.4
772.258	295.93
772.654	291.25
773.05	263.16
773.447	375.51
773.843	333.38
774.239	277.21
774.634	326.36
775.03	260.82
775.426	326.36
775.822	333.38
776.218	300.61
776.613	312.32
777.009	256.14
777.404	312.32
777.8	272.53
778.195	335.72
778.59	309.97
778.986	225.72
779.381	319.34
779.776	317
780.171	340.4
780.566	340.4
780.961	312.32
781.356	354.44
781.751	326.36
782.146	272.53
782.54	263.16
782.935	225.72
783.33	302.95
783.724	317
784.119	317
784.513	298.27
784.908	302.95
785.302	300.61
785.696	265.5
786.09	232.74
786.485	251.46
786.879	300.61
787.273	317
787.667	342.74
788.061	312.32
788.454	293.59
788.848	288.91
789.242	279.55
789.636	347.42
790.029	309.97
790.423	309.97
790.816	279.55
791.21	256.14
791.603	265.5
791.997	260.82
792.39	321.68
792.783	349.76
793.176	244.44
793.569	291.25
793.962	256.14
794.355	356.79
794.748	319.34
795.141	340.4
795.534	298.27
795.927	295.93
796.319	307.63
796.712	270.19
797.105	309.97
797.497	317
797.89	300.61
798.282	317
798.674	265.5
799.067	284.23
799.459	312.32
799.851	354.44
800.243	307.63
800.635	239.76
801.027	277.21
801.419	267.85
801.811	302.95
802.203	288.91
802.594	295.93
802.986	258.48
803.378	314.66
803.769	286.57
804.161	321.68
804.552	291.25
804.944	338.06
805.335	370.83
805.726	281.89
806.118	352.1
806.509	274.87
806.9	321.68
807.291	281.89
807.682	345.08
808.073	272.53
808.464	300.61
808.855	338.06
809.245	265.5
809.636	260.82
810.027	326.36
810.417	331.04
810.808	251.46
811.198	305.29
811.589	340.4
811.979	251.46
812.369	295.93
812.759	284.23
813.15	291.25
813.54	235.08
813.93	246.78
814.32	295.93
814.71	328.7
815.1	256.14
815.489	326.36
815.879	272.53
816.269	309.97
816.658	307.63
817.048	305.29
817.438	321.68
817.827	382.53
818.216	256.14
818.606	274.87
818.995	361.47
819.384	286.57
819.773	279.55
820.163	305.29
820.552	324.02
820.941	239.76
821.33	305.29
821.718	321.68
822.107	272.53
822.496	361.47
822.885	281.89
823.273	305.29
823.662	249.12
824.05	363.81
824.439	352.1
824.827	326.36
825.216	286.57
825.604	328.7
825.992	326.36
826.38	333.38
826.768	284.23
827.156	295.93
827.544	251.46
827.932	331.04
828.32	291.25
828.708	295.93
829.096	333.38
829.483	317
829.871	370.83
830.259	312.32
830.646	281.89
831.034	305.29
831.421	335.72
831.808	263.16
832.196	295.93
832.583	368.49
832.97	239.76
833.357	270.19
833.744	354.44
834.131	263.16
834.518	286.57
834.905	286.57
835.292	345.08
835.678	317
836.065	270.19
836.452	211.67
836.838	338.06
837.225	260.82
837.611	331.04
837.998	321.68
838.384	314.66
838.77	284.23
839.157	321.68
839.543	352.1
839.929	291.25
840.315	230.4
840.701	342.74
841.087	263.16
841.473	309.97
841.858	223.37
842.244	328.7
842.63	319.34
843.015	363.81
843.401	354.44
843.787	293.59
844.172	345.08
844.557	345.08
844.943	279.55
845.328	274.87
845.713	305.29
846.098	284.23
846.483	270.19
846.868	307.63
847.253	342.74
847.638	305.29
848.023	314.66
848.408	260.82
848.793	237.42
849.177	295.93
849.562	324.02
849.947	338.06
850.331	326.36
850.715	305.29
851.1	333.38
851.484	295.93
851.868	274.87
852.253	251.46
852.637	286.57
853.021	221.03
853.405	328.7
853.789	225.72
854.173	317
854.557	272.53
854.94	309.97
855.324	317
855.708	302.95
856.091	279.55
856.475	270.19
856.858	317
857.242	321.68
857.625	286.57
858.009	298.27
858.392	335.72
858.775	307.63
859.158	333.38
859.541	291.25
859.924	288.91
860.307	312.32
860.69	317
861.073	324.02
861.456	349.76
861.838	312.32
862.221	309.97
862.604	317
862.986	305.29
863.369	380.19
863.751	333.38
864.133	307.63
864.516	256.14
864.898	239.76
865.28	328.7
865.662	300.61
866.044	214.01
866.426	305.29
866.808	272.53
867.19	317
867.572	251.46
867.954	265.5
868.336	277.21
868.717	340.4
869.099	265.5
869.48	326.36
869.862	239.76
870.243	300.61
870.625	263.16
871.006	281.89
871.387	293.59
871.768	253.8
872.149	363.81
872.53	251.46
872.911	284.23
873.292	267.85
873.673	302.95
874.054	279.55
874.435	335.72
874.815	263.16
875.196	295.93
875.577	286.57
875.957	307.63
876.338	317
876.718	345.08
877.098	309.97
877.479	267.85
877.859	326.36
878.239	218.69
878.619	270.19
878.999	377.85
879.379	338.06
879.759	317
880.139	314.66
880.519	302.95
880.898	309.97
881.278	288.91
881.658	317
882.037	338.06
882.417	319.34
882.796	298.27
883.176	288.91
883.555	317
883.934	326.36
884.313	293.59
884.693	354.44
885.072	307.63
885.451	331.04
885.83	307.63
886.209	324.02
886.587	270.19
886.966	279.55
887.345	319.34
887.724	345.08
888.102	286.57
888.481	349.76
888.859	326.36
889.238	265.5
889.616	345.08
889.994	319.34
890.373	314.66
890.751	302.95
891.129	380.19
891.507	237.42
891.885	321.68
892.263	277.21
892.641	366.15
893.019	333.38
893.396	314.66
893.774	314.66
894.152	258.48
894.529	251.46
894.907	347.42
895.284	314.66
895.662	291.25
896.039	295.93
896.416	335.72
896.794	326.36
897.171	342.74
897.548	321.68
897.925	300.61
898.302	256.14
898.679	274.87
899.056	319.34
899.433	300.61
899.809	293.59
900.186	258.48
900.563	258.48
900.939	242.1
901.316	312.32
901.692	305.29
902.069	272.53
902.445	286.57
902.821	242.1
903.197	328.7
903.574	295.93
903.95	331.04
904.326	328.7
904.702	242.1
905.078	340.4
905.454	342.74
905.829	338.06
906.205	321.68
906.581	321.68
906.956	324.02
907.332	267.85
907.707	317
908.083	342.74
908.458	281.89
908.833	328.7
909.209	338.06
909.584	302.95
909.959	192.95
910.334	359.13
910.709	265.5
911.084	307.63
911.459	295.93
911.834	295.93
912.209	300.61
912.583	314.66
912.958	345.08
913.333	286.57
913.707	328.7
914.082	331.04
914.456	267.85
914.83	349.76
915.205	309.97
915.579	274.87
915.953	309.97
916.327	286.57
916.701	309.97
917.075	331.04
917.449	319.34
917.823	326.36
918.197	253.8
918.571	260.82
918.944	324.02
919.318	298.27
919.692	349.76
920.065	284.23
920.438	265.5
920.812	239.76
921.185	288.91
921.558	300.61
921.932	328.7
922.305	300.61
922.678	239.76
923.051	288.91
923.424	288.91
923.797	349.76
924.17	317
924.542	300.61
924.915	317
925.288	242.1
925.661	319.34
926.033	293.59
926.406	270.19
926.778	274.87
927.15	307.63
927.523	312.32
927.895	253.8
928.267	321.68
928.639	319.34
929.011	302.95
929.383	309.97
929.755	251.46
930.127	272.53
930.499	246.78
930.871	309.97
931.242	312.32
931.614	349.76
931.986	312.32
932.357	295.93
932.729	331.04
933.1	291.25
933.471	333.38
933.843	286.57
934.214	347.42
934.585	324.02
934.956	326.36
935.327	309.97
935.698	300.61
936.069	232.74
936.44	300.61
936.811	279.55
937.182	307.63
937.552	317
937.923	302.95
938.293	279.55
938.664	326.36
939.034	349.76
939.405	317
939.775	286.57
940.145	279.55
940.516	265.5
940.886	305.29
941.256	317
941.626	295.93
941.996	312.32
942.366	286.57
942.735	277.21
943.105	279.55
943.475	249.12
943.845	319.34
944.214	305.29
944.584	314.66
944.953	331.04
945.323	295.93
945.692	302.95
946.061	338.06
946.43	239.76
946.8	295.93
947.169	314.66
947.538	333.38
947.907	288.91
948.276	319.34
948.645	309.97
949.013	352.1
949.382	295.93
949.751	312.32
950.119	312.32
950.488	251.46
950.857	286.57
951.225	291.25
951.593	277.21
951.962	272.53
952.33	270.19
952.698	342.74
953.066	298.27
953.434	314.66
953.802	312.32
954.17	270.19
954.538	342.74
954.906	302.95
955.274	272.53
955.642	314.66
956.009	270.19
956.377	347.42
956.744	291.25
957.112	232.74
957.479	263.16
957.847	335.72
958.214	246.78
958.581	354.44
958.948	274.87
959.315	335.72
959.683	279.55
960.05	281.89
960.416	218.69
960.783	277.21
961.15	256.14
961.517	288.91
961.884	349.76
962.25	324.02
962.617	258.48
962.983	333.38
963.35	265.5
963.716	333.38
964.082	338.06
964.449	286.57
964.815	281.89
965.181	258.48
965.547	277.21
965.913	265.5
966.279	319.34
966.645	312.32
967.011	291.25
967.377	253.8
967.742	305.29
968.108	326.36
968.474	338.06
968.839	260.82
969.205	345.08
969.57	366.15
969.935	293.59
970.301	265.5
970.666	251.46
971.031	237.42
971.396	293.59
971.761	305.29
972.126	309.97
972.491	293.59
972.856	309.97
973.221	347.42
973.586	295.93
973.95	279.55
974.315	281.89
974.679	312.32
975.044	288.91
975.408	230.4
975.773	302.95
976.137	293.59
976.501	295.93
976.866	335.72
977.23	267.85
977.594	258.48
977.958	235.08
978.322	291.25
978.686	340.4
979.049	333.38
979.413	324.02
979.777	260.82
980.141	317
980.504	295.93
980.868	291.25
981.231	277.21
981.595	284.23
981.958	331.04
982.321	333.38
982.684	340.4
983.048	342.74
983.411	309.97
983.774	333.38
984.137	366.15
984.5	277.21
984.862	319.34
985.225	331.04
985.588	267.85
985.951	331.04
986.313	328.7
986.676	312.32
987.038	300.61
987.401	272.53
987.763	272.53
988.125	307.63
988.488	370.83
988.85	274.87
989.212	260.82
989.574	265.5
989.936	279.55
990.298	305.29
990.66	324.02
991.022	321.68
991.383	319.34
991.745	359.13
992.107	263.16
992.468	281.89
992.83	309.97
993.191	270.19
993.553	314.66
993.914	317
994.275	307.63
994.637	274.87
994.998	279.55
995.359	314.66
995.72	251.46
996.081	265.5
996.442	300.61
996.803	232.74
997.163	239.76
997.524	246.78
997.885	281.89
998.245	242.1
998.606	284.23
998.966	225.72
999.327	309.97
999.687	284.23
1000.047	288.91
1000.408	277.21
1000.768	326.36
1001.128	359.13
1001.488	291.25
1001.848	368.49
1002.208	324.02
1002.568	312.32
1002.927	277.21
1003.287	279.55
1003.647	253.8
1004.007	291.25
1004.366	281.89
1004.726	324.02
1005.085	246.78
1005.444	251.46
1005.804	331.04
1006.163	307.63
1006.522	258.48
1006.881	267.85
1007.24	284.23
1007.599	342.74
1007.958	340.4
1008.317	281.89
1008.676	300.61
1009.035	347.42
1009.393	300.61
1009.752	263.16
1010.111	293.59
1010.469	307.63
1010.828	368.49
1011.186	288.91
1011.544	373.17
1011.903	319.34
1012.261	340.4
1012.619	328.7
1012.977	317
1013.335	312.32
1013.693	246.78
1014.051	300.61
1014.409	298.27
1014.767	256.14
1015.124	272.53
1015.482	277.21
1015.84	293.59
1016.197	326.36
1016.555	281.89
1016.912	345.08
1017.269	342.74
1017.627	295.93
1017.984	270.19
1018.341	228.06
1018.698	307.63
1019.055	291.25
1019.412	267.85
1019.769	288.91
1020.126	309.97
1020.483	256.14
1020.84	293.59
1021.196	286.57
1021.553	335.72
1021.909	340.4
1022.266	291.25
1022.622	305.29
1022.979	342.74
1023.335	335.72
1023.691	286.57
1024.047	274.87
1024.404	281.89
1024.76	309.97
1025.116	335.72
1025.472	347.42
1025.827	295.93
1026.183	293.59
1026.539	317
1026.895	331.04
1027.25	284.23
1027.606	230.4
1027.961	352.1
1028.317	293.59
1028.672	281.89
1029.028	263.16
1029.383	253.8
1029.738	333.38
1030.093	300.61
1030.448	288.91
1030.803	246.78
1031.158	293.59
1031.513	314.66
1031.868	312.32
1032.223	256.14
1032.577	244.44
1032.932	272.53
1033.287	324.02
1033.641	328.7
1033.996	319.34
1034.35	293.59
1034.704	265.5
1035.059	295.93
1035.413	270.19
1035.767	270.19
1036.121	270.19
