Data from Al_FLMS009871__1031__16-23-59-020.txt Node

Date: Fri Mar 08 16:23:59 CST 2024
User: pe5414po
Spectrometer: FLMS00987
Trigger mode: 0
Integration Time (sec): 1.000000E-1
Scans to average: 1
Electric dark correction enabled: true
Nonlinearity correction enabled: false
Boxcar width: 0
XAxis mode: Wavelengths
Number of Pixels in Spectrum: 2048
>>>>>Begin Spectral Data<<<<<
188.938	-15.36
189.409	-15.36
189.879	-15.36
190.349	-174.52
190.819	-87.92
191.29	-167.49
191.76	-104.3
192.23	-85.58
192.7	-78.55
193.17	-85.58
193.64	10.39
194.109	-43.45
194.579	36.13
195.049	-1.32
195.519	40.81
195.988	1.02
196.458	80.6
196.927	87.62
197.397	106.35
197.866	94.65
198.336	108.69
198.805	167.2
199.274	206.99
199.744	155.5
200.213	216.35
200.682	214.01
201.151	204.65
201.62	188.27
202.089	256.14
202.558	258.48
203.027	340.4
203.495	298.27
203.964	225.72
204.433	319.34
204.902	298.27
205.37	272.53
205.839	298.27
206.307	281.89
206.776	314.66
207.244	251.46
207.712	305.29
208.181	237.42
208.649	300.61
209.117	256.14
209.585	307.63
210.053	288.91
210.521	309.97
210.989	309.97
211.457	277.21
211.925	270.19
212.393	293.59
212.861	295.93
213.328	342.74
213.796	331.04
214.264	331.04
214.731	277.21
215.199	288.91
215.666	260.82
216.133	281.89
216.601	272.53
217.068	284.23
217.535	214.01
218.003	218.69
218.47	253.8
218.937	225.72
219.404	300.61
219.871	265.5
220.338	291.25
220.805	305.29
221.271	272.53
221.738	295.93
222.205	300.61
222.671	305.29
223.138	232.74
223.605	230.4
224.071	214.01
224.538	225.72
225.004	317
225.47	246.78
225.937	265.5
226.403	293.59
226.869	253.8
227.335	321.68
227.801	244.44
228.267	333.38
228.733	258.48
229.199	225.72
229.665	267.85
230.131	258.48
230.597	251.46
231.062	237.42
231.528	267.85
231.994	284.23
232.459	237.42
232.925	293.59
233.39	286.57
233.856	256.14
234.321	295.93
234.786	225.72
235.252	277.21
235.717	293.59
236.182	314.66
236.647	302.95
237.112	286.57
237.577	242.1
238.042	305.29
238.507	331.04
238.972	272.53
239.436	270.19
239.901	298.27
240.366	317
240.83	178.9
241.295	319.34
241.76	345.08
242.224	246.78
242.688	317
243.153	272.53
243.617	300.61
244.081	298.27
244.545	281.89
245.01	293.59
245.474	263.16
245.938	263.16
246.402	302.95
246.866	263.16
247.33	253.8
247.793	277.21
248.257	328.7
248.721	375.51
249.185	319.34
249.648	267.85
250.112	274.87
250.575	197.63
251.039	225.72
251.502	281.89
251.965	307.63
252.429	267.85
252.892	272.53
253.355	309.97
253.818	286.57
254.281	260.82
254.744	279.55
255.207	258.48
255.67	338.06
256.133	260.82
256.596	242.1
257.059	260.82
257.522	298.27
257.984	235.08
258.447	317
258.909	298.27
259.372	284.23
259.834	284.23
260.297	295.93
260.759	242.1
261.221	274.87
261.684	333.38
262.146	328.7
262.608	293.59
263.07	298.27
263.532	272.53
263.994	260.82
264.456	384.87
264.918	309.97
265.38	251.46
265.842	272.53
266.303	307.63
266.765	305.29
267.227	281.89
267.688	298.27
268.15	338.06
268.611	279.55
269.072	317
269.534	239.76
269.995	302.95
270.456	305.29
270.918	302.95
271.379	270.19
271.84	326.36
272.301	300.61
272.762	279.55
273.223	258.48
273.684	298.27
274.144	284.23
274.605	300.61
275.066	317
275.527	288.91
275.987	354.44
276.448	319.34
276.908	295.93
277.369	288.91
277.829	317
278.289	377.85
278.75	263.16
279.21	270.19
279.67	265.5
280.13	359.13
280.59	295.93
281.05	328.7
281.51	368.49
281.97	295.93
282.43	286.57
282.89	288.91
283.35	305.29
283.809	319.34
284.269	274.87
284.729	218.69
285.188	307.63
285.648	256.14
286.107	338.06
286.567	272.53
287.026	324.02
287.485	354.44
287.944	263.16
288.404	309.97
288.863	328.7
289.322	288.91
289.781	298.27
290.24	314.66
290.699	398.92
291.158	314.66
291.616	326.36
292.075	298.27
292.534	237.42
292.992	349.76
293.451	326.36
293.91	265.5
294.368	293.59
294.827	300.61
295.285	281.89
295.743	307.63
296.202	267.85
296.66	272.53
297.118	235.08
297.576	300.61
298.034	326.36
298.492	321.68
298.95	347.42
299.408	309.97
299.866	235.08
300.324	312.32
300.781	333.38
301.239	295.93
301.697	286.57
302.154	258.48
302.612	338.06
303.069	302.95
303.527	317
303.984	298.27
304.441	335.72
304.899	272.53
305.356	342.74
305.813	302.95
306.27	321.68
306.727	260.82
307.184	272.53
307.641	256.14
308.098	309.97
308.555	286.57
309.012	373.17
309.468	281.89
309.925	305.29
310.382	277.21
310.838	274.87
311.295	302.95
311.751	328.7
312.208	279.55
312.664	331.04
313.12	356.79
313.577	314.66
314.033	309.97
314.489	256.14
314.945	281.89
315.401	286.57
315.857	377.85
316.313	342.74
316.769	305.29
317.225	342.74
317.681	326.36
318.136	328.7
318.592	209.33
319.048	293.59
319.503	288.91
319.959	279.55
320.414	286.57
320.869	314.66
321.325	356.79
321.78	340.4
322.235	312.32
322.691	288.91
323.146	242.1
323.601	295.93
324.056	370.83
324.511	258.48
324.966	321.68
325.421	312.32
325.875	317
326.33	340.4
326.785	326.36
327.24	384.87
327.694	286.57
328.149	340.4
328.603	309.97
329.058	312.32
329.512	300.61
329.966	284.23
330.421	309.97
330.875	314.66
331.329	356.79
331.783	338.06
332.237	309.97
332.691	328.7
333.145	302.95
333.599	272.53
334.053	286.57
334.507	286.57
334.96	281.89
335.414	328.7
335.868	352.1
336.321	298.27
336.775	321.68
337.228	328.7
337.682	319.34
338.135	359.13
338.588	345.08
339.042	375.51
339.495	333.38
339.948	324.02
340.401	286.57
340.854	349.76
341.307	277.21
341.76	335.72
342.213	293.59
342.666	270.19
343.119	333.38
343.571	373.17
344.024	312.32
344.477	319.34
344.929	307.63
345.382	331.04
345.834	288.91
346.287	356.79
346.739	267.85
347.191	274.87
347.644	272.53
348.096	354.44
348.548	272.53
349	354.44
349.452	281.89
349.904	324.02
350.356	321.68
350.808	309.97
351.26	326.36
351.711	314.66
352.163	335.72
352.615	277.21
353.066	286.57
353.518	340.4
353.969	302.95
354.421	246.78
354.872	382.53
355.324	298.27
355.775	319.34
356.226	347.42
356.677	366.15
357.128	312.32
357.579	335.72
358.03	314.66
358.481	333.38
358.932	347.42
359.383	319.34
359.834	349.76
360.285	331.04
360.735	298.27
361.186	389.55
361.637	291.25
362.087	347.42
362.538	333.38
362.988	410.62
363.438	331.04
363.889	319.34
364.339	412.96
364.789	312.32
365.239	302.95
365.689	305.29
366.139	281.89
366.589	338.06
367.039	277.21
367.489	263.16
367.939	331.04
368.389	328.7
368.839	319.34
369.288	302.95
369.738	253.8
370.187	277.21
370.637	338.06
371.086	309.97
371.536	361.47
371.985	338.06
372.434	335.72
372.884	347.42
373.333	370.83
373.782	312.32
374.231	338.06
374.68	298.27
375.129	295.93
375.578	340.4
376.027	258.48
376.475	352.1
376.924	260.82
377.373	326.36
377.822	277.21
378.27	359.13
378.719	298.27
379.167	326.36
379.616	307.63
380.064	312.32
380.512	342.74
380.961	326.36
381.409	326.36
381.857	251.46
382.305	291.25
382.753	349.76
383.201	349.76
383.649	274.87
384.097	354.44
384.545	333.38
384.992	328.7
385.44	389.55
385.888	333.38
386.335	363.81
386.783	274.87
387.231	277.21
387.678	363.81
388.125	368.49
388.573	363.81
389.02	380.19
389.467	293.59
389.914	349.76
390.362	333.38
390.809	232.74
391.256	405.94
391.703	324.02
392.15	394.23
392.596	331.04
393.043	321.68
393.49	295.93
393.937	293.59
394.383	375.51
394.83	380.19
395.276	333.38
395.723	307.63
396.169	328.7
396.616	281.89
397.062	307.63
397.508	335.72
397.954	326.36
398.401	286.57
398.847	305.29
399.293	373.17
399.739	265.5
400.185	373.17
400.631	321.68
401.076	279.55
401.522	363.81
401.968	347.42
402.414	307.63
402.859	291.25
403.305	284.23
403.75	279.55
404.196	342.74
404.641	354.44
405.086	356.79
405.532	291.25
405.977	349.76
406.422	368.49
406.867	326.36
407.312	309.97
407.757	281.89
408.202	352.1
408.647	258.48
409.092	242.1
409.537	263.16
409.982	324.02
410.426	293.59
410.871	302.95
411.316	298.27
411.76	361.47
412.205	326.36
412.649	272.53
413.093	333.38
413.538	335.72
413.982	302.95
414.426	340.4
414.87	319.34
415.314	340.4
415.758	321.68
416.202	314.66
416.646	263.16
417.09	286.57
417.534	324.02
417.978	267.85
418.421	349.76
418.865	347.42
419.309	359.13
419.752	317
420.196	331.04
420.639	333.38
421.083	277.21
421.526	356.79
421.969	340.4
422.412	347.42
422.856	317
423.299	326.36
423.742	324.02
424.185	291.25
424.628	291.25
425.071	298.27
425.513	307.63
425.956	331.04
426.399	324.02
426.842	300.61
427.284	270.19
427.727	368.49
428.169	281.89
428.612	377.85
429.054	309.97
429.497	312.32
429.939	342.74
430.381	328.7
430.823	352.1
431.265	295.93
431.707	291.25
432.149	274.87
432.591	309.97
433.033	349.76
433.475	293.59
433.917	347.42
434.359	394.23
434.8	342.74
435.242	338.06
435.684	324.02
436.125	286.57
436.567	356.79
437.008	312.32
437.449	300.61
437.891	391.89
438.332	321.68
438.773	324.02
439.214	361.47
439.656	338.06
440.097	317
440.538	300.61
440.978	307.63
441.419	298.27
441.86	319.34
442.301	359.13
442.742	277.21
443.182	335.72
443.623	363.81
444.063	295.93
444.504	366.15
444.944	345.08
445.385	340.4
445.825	317
446.265	354.44
446.706	281.89
447.146	368.49
447.586	375.51
448.026	373.17
448.466	321.68
448.906	398.92
449.346	305.29
449.786	333.38
450.225	293.59
450.665	338.06
451.105	345.08
451.544	354.44
451.984	321.68
452.424	333.38
452.863	356.79
453.302	368.49
453.742	270.19
454.181	253.8
454.62	363.81
455.059	281.89
455.499	319.34
455.938	298.27
456.377	333.38
456.816	312.32
457.254	300.61
457.693	263.16
458.132	410.62
458.571	331.04
459.01	333.38
459.448	309.97
459.887	338.06
460.325	312.32
460.764	258.48
461.202	331.04
461.641	314.66
462.079	324.02
462.517	450.41
462.955	317
463.393	314.66
463.832	223.37
464.27	321.68
464.708	338.06
465.145	307.63
465.583	307.63
466.021	331.04
466.459	305.29
466.897	338.06
467.334	340.4
467.772	321.68
468.209	370.83
468.647	349.76
469.084	319.34
469.522	324.02
469.959	319.34
470.396	349.76
470.833	342.74
471.271	366.15
471.708	298.27
472.145	380.19
472.582	370.83
473.019	326.36
473.456	291.25
473.892	302.95
474.329	302.95
474.766	260.82
475.202	284.23
475.639	333.38
476.076	324.02
476.512	328.7
476.949	298.27
477.385	272.53
477.821	256.14
478.258	354.44
478.694	314.66
479.13	363.81
479.566	305.29
480.002	333.38
480.438	326.36
480.874	279.55
481.31	340.4
481.746	288.91
482.181	321.68
482.617	317
483.053	321.68
483.488	319.34
483.924	293.59
484.36	281.89
484.795	363.81
485.23	281.89
485.666	324.02
486.101	314.66
486.536	324.02
486.971	284.23
487.407	314.66
487.842	298.27
488.277	312.32
488.712	340.4
489.146	267.85
489.581	232.74
490.016	317
490.451	295.93
490.885	300.61
491.32	298.27
491.755	302.95
492.189	302.95
492.624	312.32
493.058	389.55
493.492	331.04
493.927	342.74
494.361	347.42
494.795	342.74
495.229	312.32
495.663	342.74
496.097	274.87
496.531	309.97
496.965	401.26
497.399	314.66
497.833	335.72
498.266	281.89
498.7	361.47
499.134	293.59
499.567	302.95
500.001	335.72
500.434	338.06
500.868	345.08
501.301	366.15
501.734	295.93
502.168	274.87
502.601	272.53
503.034	335.72
503.467	319.34
503.9	359.13
504.333	309.97
504.766	272.53
505.199	312.32
505.632	309.97
506.064	314.66
506.497	389.55
506.93	356.79
507.362	319.34
507.795	309.97
508.227	335.72
508.66	312.32
509.092	324.02
509.524	342.74
509.956	324.02
510.389	349.76
510.821	309.97
511.253	293.59
511.685	321.68
512.117	288.91
512.549	277.21
512.981	267.85
513.412	305.29
513.844	300.61
514.276	270.19
514.707	326.36
515.139	345.08
515.571	321.68
516.002	309.97
516.433	373.17
516.865	265.5
517.296	321.68
517.727	291.25
518.159	352.1
518.59	359.13
519.021	267.85
519.452	300.61
519.883	328.7
520.314	359.13
520.744	291.25
521.175	307.63
521.606	291.25
522.037	338.06
522.467	366.15
522.898	295.93
523.328	349.76
523.759	324.02
524.189	286.57
524.62	384.87
525.05	340.4
525.48	347.42
525.91	317
526.341	317
526.771	352.1
527.201	347.42
527.631	300.61
528.061	354.44
528.49	312.32
528.92	377.85
529.35	277.21
529.78	328.7
530.209	298.27
530.639	328.7
531.068	361.47
531.498	298.27
531.927	309.97
532.357	331.04
532.786	305.29
533.215	387.21
533.644	326.36
534.074	324.02
534.503	309.97
534.932	312.32
535.361	319.34
535.79	321.68
536.218	237.42
536.647	347.42
537.076	319.34
537.505	277.21
537.933	295.93
538.362	286.57
538.79	324.02
539.219	324.02
539.647	349.76
540.076	359.13
540.504	312.32
540.932	345.08
541.36	270.19
541.788	328.7
542.217	389.55
542.645	286.57
543.073	331.04
543.5	288.91
543.928	342.74
544.356	331.04
544.784	321.68
545.211	286.57
545.639	363.81
546.067	298.27
546.494	370.83
546.922	375.51
547.349	237.42
547.776	312.32
548.204	326.36
548.631	317
549.058	300.61
549.485	356.79
549.912	328.7
550.339	349.76
550.766	256.14
551.193	267.85
551.62	370.83
552.047	380.19
552.474	333.38
552.9	333.38
553.327	354.44
553.754	270.19
554.18	340.4
554.607	307.63
555.033	265.5
555.459	256.14
555.886	345.08
556.312	356.79
556.738	274.87
557.164	328.7
557.59	338.06
558.016	349.76
558.442	314.66
558.868	319.34
559.294	319.34
559.72	277.21
560.145	295.93
560.571	340.4
560.997	309.97
561.422	263.16
561.848	391.89
562.273	317
562.699	295.93
563.124	295.93
563.549	338.06
563.974	345.08
564.4	331.04
564.825	317
565.25	373.17
565.675	324.02
566.1	401.26
566.525	309.97
566.95	345.08
567.374	345.08
567.799	340.4
568.224	260.82
568.648	267.85
569.073	298.27
569.497	387.21
569.922	305.29
570.346	237.42
570.771	359.13
571.195	359.13
571.619	338.06
572.043	321.68
572.467	314.66
572.891	309.97
573.315	267.85
573.739	338.06
574.163	347.42
574.587	260.82
575.011	328.7
575.435	260.82
575.858	338.06
576.282	314.66
576.705	354.44
577.129	333.38
577.552	307.63
577.976	333.38
578.399	340.4
578.822	331.04
579.245	307.63
579.669	331.04
580.092	373.17
580.515	319.34
580.938	305.29
581.361	307.63
581.784	263.16
582.206	317
582.629	309.97
583.052	293.59
583.474	317
583.897	267.85
584.32	270.19
584.742	291.25
585.165	347.42
585.587	256.14
586.009	298.27
586.431	284.23
586.854	342.74
587.276	361.47
587.698	244.44
588.12	274.87
588.542	342.74
588.964	410.62
589.386	321.68
589.807	347.42
590.229	281.89
590.651	335.72
591.073	298.27
591.494	324.02
591.916	309.97
592.337	286.57
592.759	317
593.18	321.68
593.601	331.04
594.022	309.97
594.444	340.4
594.865	368.49
595.286	291.25
595.707	295.93
596.128	384.87
596.549	333.38
596.97	314.66
597.39	319.34
597.811	335.72
598.232	338.06
598.652	307.63
599.073	312.32
599.494	338.06
599.914	302.95
600.334	309.97
600.755	331.04
601.175	291.25
601.595	267.85
602.015	333.38
602.436	342.74
602.856	431.68
603.276	328.7
603.696	317
604.115	391.89
604.535	288.91
604.955	309.97
605.375	305.29
605.794	331.04
606.214	317
606.634	335.72
607.053	370.83
607.473	349.76
607.892	291.25
608.311	340.4
608.731	326.36
609.15	331.04
609.569	314.66
609.988	370.83
610.407	342.74
610.826	274.87
611.245	300.61
611.664	274.87
612.083	359.13
612.501	359.13
612.92	295.93
613.339	403.6
613.757	338.06
614.176	291.25
614.594	324.02
615.013	415.3
615.431	375.51
615.85	380.19
616.268	366.15
616.686	340.4
617.104	281.89
617.522	384.87
617.94	331.04
618.358	324.02
618.776	366.15
619.194	408.28
619.612	356.79
620.03	328.7
620.447	321.68
620.865	328.7
621.282	298.27
621.7	333.38
622.117	347.42
622.535	314.66
622.952	361.47
623.369	368.49
623.787	302.95
624.204	286.57
624.621	307.63
625.038	317
625.455	324.02
625.872	314.66
626.289	293.59
626.706	345.08
627.123	326.36
627.539	321.68
627.956	335.72
628.373	253.8
628.789	256.14
629.206	307.63
629.622	356.79
630.038	345.08
630.455	272.53
630.871	281.89
631.287	373.17
631.703	342.74
632.12	298.27
632.536	314.66
632.952	328.7
633.368	307.63
633.783	302.95
634.199	312.32
634.615	288.91
635.031	295.93
635.446	368.49
635.862	333.38
636.277	286.57
636.693	317
637.108	298.27
637.524	328.7
637.939	288.91
638.354	307.63
638.77	373.17
639.185	321.68
639.6	281.89
640.015	345.08
640.43	345.08
640.845	293.59
641.259	319.34
641.674	333.38
642.089	228.06
642.504	382.53
642.918	403.6
643.333	239.76
643.747	335.72
644.162	300.61
644.576	317
644.991	295.93
645.405	354.44
645.819	284.23
646.233	314.66
646.647	359.13
647.061	298.27
647.475	279.55
647.889	338.06
648.303	293.59
648.717	291.25
649.131	354.44
649.545	302.95
649.958	286.57
650.372	263.16
650.785	277.21
651.199	307.63
651.612	366.15
652.026	396.57
652.439	338.06
652.852	326.36
653.266	260.82
653.679	333.38
654.092	314.66
654.505	319.34
654.918	302.95
655.331	326.36
655.744	256.14
656.156	340.4
656.569	342.74
656.982	295.93
657.394	265.5
657.807	309.97
658.22	375.51
658.632	279.55
659.044	321.68
659.457	309.97
659.869	281.89
660.281	370.83
660.693	307.63
661.106	347.42
661.518	338.06
661.93	309.97
662.342	340.4
662.754	302.95
663.165	352.1
663.577	319.34
663.989	338.06
664.401	408.28
664.812	314.66
665.224	317
665.635	352.1
666.047	281.89
666.458	260.82
666.869	293.59
667.281	293.59
667.692	302.95
668.103	342.74
668.514	279.55
668.925	319.34
669.336	291.25
669.747	319.34
670.158	363.81
670.569	302.95
670.979	347.42
671.39	314.66
671.801	342.74
672.211	321.68
672.622	286.57
673.032	389.55
673.443	373.17
673.853	312.32
674.263	300.61
674.674	335.72
675.084	312.32
675.494	317
675.904	309.97
676.314	305.29
676.724	331.04
677.134	272.53
677.544	331.04
677.953	295.93
678.363	331.04
678.773	366.15
679.182	281.89
679.592	286.57
680.001	335.72
680.411	286.57
680.82	263.16
681.23	314.66
681.639	317
682.048	317
682.457	284.23
682.866	366.15
683.275	340.4
683.684	223.37
684.093	307.63
684.502	309.97
684.911	356.79
685.32	356.79
685.728	359.13
686.137	354.44
686.546	291.25
686.954	291.25
687.363	342.74
687.771	305.29
688.179	359.13
688.588	319.34
688.996	347.42
689.404	274.87
689.812	256.14
690.22	361.47
690.628	324.02
691.036	366.15
691.444	338.06
691.852	384.87
692.26	293.59
692.667	340.4
693.075	347.42
693.483	333.38
693.89	309.97
694.298	375.51
694.705	342.74
695.112	338.06
695.52	335.72
695.927	295.93
696.334	352.1
696.741	321.68
697.148	333.38
697.555	349.76
697.962	321.68
698.369	288.91
698.776	286.57
699.183	274.87
699.59	338.06
699.996	314.66
700.403	274.87
700.81	302.95
701.216	380.19
701.623	305.29
702.029	326.36
702.435	384.87
702.842	389.55
703.248	354.44
703.654	260.82
704.06	335.72
704.466	347.42
704.872	298.27
705.278	302.95
705.684	284.23
706.09	335.72
706.496	319.34
706.901	345.08
707.307	267.85
707.712	338.06
708.118	288.91
708.523	356.79
708.929	326.36
709.334	345.08
709.74	258.48
710.145	345.08
710.55	366.15
710.955	312.32
711.36	321.68
711.765	335.72
712.17	354.44
712.575	281.89
712.98	829.57
713.385	394.23
713.789	373.17
714.194	312.32
714.599	380.19
715.003	270.19
715.408	333.38
715.812	321.68
716.217	258.48
716.621	251.46
717.025	232.74
717.429	331.04
717.833	291.25
718.238	317
718.642	293.59
719.046	326.36
719.449	253.8
719.853	300.61
720.257	284.23
720.661	272.53
721.065	359.13
721.468	305.29
721.872	314.66
722.275	356.79
722.679	309.97
723.082	319.34
723.485	284.23
723.889	326.36
724.292	366.15
724.695	309.97
725.098	342.74
725.501	342.74
725.904	312.32
726.307	309.97
726.71	309.97
727.113	373.17
727.516	373.17
727.918	319.34
728.321	309.97
728.724	333.38
729.126	312.32
729.529	345.08
729.931	324.02
730.333	309.97
730.736	293.59
731.138	295.93
731.54	349.76
731.942	331.04
732.344	267.85
732.746	347.42
733.148	317
733.55	314.66
733.952	305.29
734.354	284.23
734.756	361.47
735.157	274.87
735.559	321.68
735.96	312.32
736.362	319.34
736.763	326.36
737.165	328.7
737.566	324.02
737.967	333.38
738.368	319.34
738.77	260.82
739.171	305.29
739.572	265.5
739.973	270.19
740.374	352.1
740.774	363.81
741.175	307.63
741.576	324.02
741.977	246.78
742.377	326.36
742.778	396.57
743.178	284.23
743.579	354.44
743.979	263.16
744.379	307.63
744.78	309.97
745.18	408.28
745.58	302.95
745.98	361.47
746.38	340.4
746.78	258.48
747.18	251.46
747.58	295.93
747.98	298.27
748.38	305.29
748.779	335.72
749.179	345.08
749.578	349.76
749.978	298.27
750.377	288.91
750.777	312.32
751.176	373.17
751.575	281.89
751.975	354.44
752.374	363.81
752.773	352.1
753.172	312.32
753.571	309.97
753.97	209.33
754.369	359.13
754.768	321.68
755.166	375.51
755.565	347.42
755.964	333.38
756.362	366.15
756.761	333.38
757.159	333.38
757.558	342.74
757.956	279.55
758.354	338.06
758.753	307.63
759.151	317
759.549	363.81
759.947	270.19
760.345	291.25
760.743	274.87
761.141	382.53
761.539	368.49
761.936	359.13
762.334	309.97
762.732	300.61
763.129	335.72
763.527	333.38
763.924	324.02
764.322	361.47
764.719	291.25
765.117	317
765.514	340.4
765.911	270.19
766.308	321.68
766.705	333.38
767.102	274.87
767.499	277.21
767.896	401.26
768.293	309.97
768.69	298.27
769.086	263.16
769.483	302.95
769.88	288.91
770.276	324.02
770.673	288.91
771.069	328.7
771.466	333.38
771.862	284.23
772.258	349.76
772.654	331.04
773.05	352.1
773.447	293.59
773.843	333.38
774.239	300.61
774.634	281.89
775.03	349.76
775.426	309.97
775.822	293.59
776.218	319.34
776.613	286.57
777.009	305.29
777.404	249.12
777.8	309.97
778.195	314.66
778.59	326.36
778.986	293.59
779.381	293.59
779.776	309.97
780.171	335.72
780.566	321.68
780.961	342.74
781.356	272.53
781.751	281.89
782.146	326.36
782.54	291.25
782.935	321.68
783.33	314.66
783.724	263.16
784.119	298.27
784.513	286.57
784.908	324.02
785.302	368.49
785.696	328.7
786.09	312.32
786.485	368.49
786.879	307.63
787.273	314.66
787.667	324.02
788.061	356.79
788.454	216.35
788.848	349.76
789.242	335.72
789.636	368.49
790.029	375.51
790.423	333.38
790.816	352.1
791.21	307.63
791.603	324.02
791.997	324.02
792.39	279.55
792.783	246.78
793.176	298.27
793.569	349.76
793.962	274.87
794.355	274.87
794.748	328.7
795.141	279.55
795.534	281.89
795.927	366.15
796.319	328.7
796.712	319.34
797.105	321.68
797.497	291.25
797.89	347.42
798.282	295.93
798.674	342.74
799.067	333.38
799.459	272.53
799.851	300.61
800.243	335.72
800.635	288.91
801.027	242.1
801.419	319.34
801.811	277.21
802.203	340.4
802.594	307.63
802.986	321.68
803.378	333.38
803.769	331.04
804.161	295.93
804.552	326.36
804.944	338.06
805.335	345.08
805.726	305.29
806.118	298.27
806.509	335.72
806.9	328.7
807.291	340.4
807.682	349.76
808.073	321.68
808.464	377.85
808.855	295.93
809.245	300.61
809.636	281.89
810.027	347.42
810.417	305.29
810.808	321.68
811.198	309.97
811.589	281.89
811.979	309.97
812.369	377.85
812.759	347.42
813.15	324.02
813.54	277.21
813.93	370.83
814.32	277.21
814.71	319.34
815.1	288.91
815.489	321.68
815.879	284.23
816.269	293.59
816.658	333.38
817.048	335.72
817.438	300.61
817.827	267.85
818.216	352.1
818.606	331.04
818.995	321.68
819.384	314.66
819.773	298.27
820.163	331.04
820.552	267.85
820.941	295.93
821.33	288.91
821.718	312.32
822.107	328.7
822.496	368.49
822.885	354.44
823.273	331.04
823.662	352.1
824.05	300.61
824.439	314.66
824.827	312.32
825.216	291.25
825.604	274.87
825.992	342.74
826.38	354.44
826.768	305.29
827.156	314.66
827.544	347.42
827.932	335.72
828.32	349.76
828.708	307.63
829.096	298.27
829.483	295.93
829.871	340.4
830.259	328.7
830.646	312.32
831.034	284.23
831.421	246.78
831.808	258.48
832.196	384.87
832.583	291.25
832.97	281.89
833.357	291.25
833.744	223.37
834.131	253.8
834.518	347.42
834.905	272.53
835.292	281.89
835.678	251.46
836.065	253.8
836.452	361.47
836.838	309.97
837.225	300.61
837.611	317
837.998	281.89
838.384	321.68
838.77	281.89
839.157	300.61
839.543	298.27
839.929	342.74
840.315	394.23
840.701	249.12
841.087	277.21
841.473	321.68
841.858	270.19
842.244	347.42
842.63	335.72
843.015	270.19
843.401	384.87
843.787	335.72
844.172	291.25
844.557	326.36
844.943	349.76
845.328	319.34
845.713	326.36
846.098	333.38
846.483	279.55
846.868	370.83
847.253	281.89
847.638	326.36
848.023	349.76
848.408	340.4
848.793	354.44
849.177	295.93
849.562	288.91
849.947	277.21
850.331	314.66
850.715	340.4
851.1	284.23
851.484	345.08
851.868	298.27
852.253	345.08
852.637	263.16
853.021	253.8
853.405	265.5
853.789	307.63
854.173	270.19
854.557	291.25
854.94	281.89
855.324	324.02
855.708	331.04
856.091	251.46
856.475	281.89
856.858	286.57
857.242	260.82
857.625	300.61
858.009	284.23
858.392	286.57
858.775	335.72
859.158	274.87
859.541	319.34
859.924	249.12
860.307	284.23
860.69	312.32
861.073	309.97
861.456	309.97
861.838	274.87
862.221	347.42
862.604	244.44
862.986	230.4
863.369	281.89
863.751	361.47
864.133	267.85
864.516	319.34
864.898	349.76
865.28	347.42
865.662	345.08
866.044	279.55
866.426	272.53
866.808	324.02
867.19	300.61
867.572	345.08
867.954	359.13
868.336	314.66
868.717	345.08
869.099	267.85
869.48	246.78
869.862	342.74
870.243	270.19
870.625	317
871.006	317
871.387	300.61
871.768	279.55
872.149	256.14
872.53	354.44
872.911	363.81
873.292	356.79
873.673	312.32
874.054	328.7
874.435	331.04
874.815	307.63
875.196	277.21
875.577	253.8
875.957	328.7
876.338	319.34
876.718	377.85
877.098	288.91
877.479	300.61
877.859	263.16
878.239	314.66
878.619	286.57
878.999	340.4
879.379	333.38
879.759	347.42
880.139	317
880.519	302.95
880.898	300.61
881.278	298.27
881.658	361.47
882.037	340.4
882.417	281.89
882.796	305.29
883.176	302.95
883.555	359.13
883.934	258.48
884.313	300.61
884.693	293.59
885.072	277.21
885.451	328.7
885.83	317
886.209	342.74
886.587	333.38
886.966	284.23
887.345	277.21
887.724	270.19
888.102	256.14
888.481	284.23
888.859	319.34
889.238	279.55
889.616	307.63
889.994	281.89
890.373	342.74
890.751	244.44
891.129	317
891.507	335.72
891.885	370.83
892.263	363.81
892.641	221.03
893.019	335.72
893.396	288.91
893.774	288.91
894.152	387.21
894.529	307.63
894.907	331.04
895.284	359.13
895.662	326.36
896.039	324.02
896.416	298.27
896.794	291.25
897.171	291.25
897.548	312.32
897.925	321.68
898.302	307.63
898.679	342.74
899.056	319.34
899.433	263.16
899.809	333.38
900.186	340.4
900.563	260.82
900.939	342.74
901.316	314.66
901.692	335.72
902.069	342.74
902.445	359.13
902.821	335.72
903.197	284.23
903.574	298.27
903.95	260.82
904.326	356.79
904.702	312.32
905.078	394.23
905.454	340.4
905.829	293.59
906.205	286.57
906.581	253.8
906.956	319.34
907.332	324.02
907.707	235.08
908.083	270.19
908.458	361.47
908.833	347.42
909.209	298.27
909.584	375.51
909.959	288.91
910.334	298.27
910.709	272.53
911.084	270.19
911.459	319.34
911.834	321.68
912.209	326.36
912.583	286.57
912.958	218.69
913.333	309.97
913.707	314.66
914.082	298.27
914.456	284.23
914.83	286.57
915.205	305.29
915.579	279.55
915.953	354.44
916.327	263.16
916.701	317
917.075	363.81
917.449	326.36
917.823	312.32
918.197	338.06
918.571	317
918.944	260.82
919.318	326.36
919.692	291.25
920.065	324.02
920.438	335.72
920.812	359.13
921.185	335.72
921.558	356.79
921.932	317
922.305	321.68
922.678	352.1
923.051	270.19
923.424	305.29
923.797	312.32
924.17	314.66
924.542	349.76
924.915	288.91
925.288	307.63
925.661	356.79
926.033	340.4
926.406	338.06
926.778	345.08
927.15	293.59
927.523	319.34
927.895	309.97
928.267	314.66
928.639	326.36
929.011	295.93
929.383	305.29
929.755	309.97
930.127	284.23
930.499	349.76
930.871	340.4
931.242	317
931.614	309.97
931.986	300.61
932.357	305.29
932.729	291.25
933.1	265.5
933.471	286.57
933.843	305.29
934.214	274.87
934.585	291.25
934.956	291.25
935.327	298.27
935.698	288.91
936.069	291.25
936.44	291.25
936.811	253.8
937.182	293.59
937.552	335.72
937.923	281.89
938.293	309.97
938.664	300.61
939.034	295.93
939.405	284.23
939.775	295.93
940.145	314.66
940.516	239.76
940.886	279.55
941.256	295.93
941.626	326.36
941.996	302.95
942.366	317
942.735	274.87
943.105	256.14
943.475	293.59
943.845	328.7
944.214	354.44
944.584	309.97
944.953	366.15
945.323	295.93
945.692	309.97
946.061	335.72
946.43	370.83
946.8	263.16
947.169	340.4
947.538	342.74
947.907	284.23
948.276	317
948.645	366.15
949.013	408.28
949.382	223.37
949.751	305.29
950.119	312.32
950.488	324.02
950.857	321.68
951.225	363.81
951.593	274.87
951.962	305.29
952.33	312.32
952.698	324.02
953.066	317
953.434	258.48
953.802	288.91
954.17	309.97
954.538	242.1
954.906	326.36
955.274	312.32
955.642	307.63
956.009	314.66
956.377	312.32
956.744	359.13
957.112	366.15
957.479	288.91
957.847	274.87
958.214	338.06
958.581	380.19
958.948	300.61
959.315	312.32
959.683	328.7
960.05	366.15
960.416	312.32
960.783	338.06
961.15	333.38
961.517	300.61
961.884	305.29
962.25	366.15
962.617	380.19
962.983	270.19
963.35	295.93
963.716	298.27
964.082	305.29
964.449	382.53
964.815	340.4
965.181	293.59
965.547	321.68
965.913	288.91
966.279	317
966.645	361.47
967.011	305.29
967.377	342.74
967.742	302.95
968.108	298.27
968.474	279.55
968.839	354.44
969.205	321.68
969.57	286.57
969.935	256.14
970.301	284.23
970.666	368.49
971.031	324.02
971.396	321.68
971.761	361.47
972.126	342.74
972.491	258.48
972.856	274.87
973.221	328.7
973.586	265.5
973.95	274.87
974.315	331.04
974.679	291.25
975.044	361.47
975.408	286.57
975.773	300.61
976.137	361.47
976.501	295.93
976.866	331.04
977.23	293.59
977.594	295.93
977.958	321.68
978.322	298.27
978.686	356.79
979.049	338.06
979.413	307.63
979.777	309.97
980.141	345.08
980.504	356.79
980.868	291.25
981.231	293.59
981.595	328.7
981.958	307.63
982.321	295.93
982.684	314.66
983.048	319.34
983.411	291.25
983.774	326.36
984.137	298.27
984.5	326.36
984.862	277.21
985.225	319.34
985.588	307.63
985.951	298.27
986.313	331.04
986.676	387.21
987.038	277.21
987.401	260.82
987.763	363.81
988.125	319.34
988.488	300.61
988.85	298.27
989.212	312.32
989.574	298.27
989.936	319.34
990.298	272.53
990.66	293.59
991.022	356.79
991.383	302.95
991.745	286.57
992.107	375.51
992.468	291.25
992.83	286.57
993.191	309.97
993.553	298.27
993.914	352.1
994.275	286.57
994.637	284.23
994.998	361.47
995.359	340.4
995.72	368.49
996.081	349.76
996.442	309.97
996.803	345.08
997.163	295.93
997.524	338.06
997.885	319.34
998.245	305.29
998.606	349.76
998.966	298.27
999.327	361.47
999.687	319.34
1000.047	298.27
1000.408	314.66
1000.768	345.08
1001.128	363.81
1001.488	375.51
1001.848	279.55
1002.208	246.78
1002.568	331.04
1002.927	260.82
1003.287	338.06
1003.647	298.27
1004.007	319.34
1004.366	333.38
1004.726	340.4
1005.085	309.97
1005.444	307.63
1005.804	291.25
1006.163	298.27
1006.522	295.93
1006.881	366.15
1007.24	298.27
1007.599	361.47
1007.958	288.91
1008.317	288.91
1008.676	347.42
1009.035	354.44
1009.393	340.4
1009.752	354.44
1010.111	274.87
1010.469	333.38
1010.828	298.27
1011.186	267.85
1011.544	284.23
1011.903	244.44
1012.261	377.85
1012.619	256.14
1012.977	279.55
1013.335	305.29
1013.693	305.29
1014.051	328.7
1014.409	305.29
1014.767	326.36
1015.124	354.44
1015.482	279.55
1015.84	319.34
1016.197	354.44
1016.555	340.4
1016.912	307.63
1017.269	321.68
1017.627	319.34
1017.984	424.66
1018.341	309.97
1018.698	373.17
1019.055	309.97
1019.412	394.23
1019.769	291.25
1020.126	319.34
1020.483	298.27
1020.84	319.34
1021.196	347.42
1021.553	319.34
1021.909	366.15
1022.266	270.19
1022.622	295.93
1022.979	300.61
1023.335	314.66
1023.691	319.34
1024.047	345.08
1024.404	302.95
1024.76	375.51
1025.116	321.68
1025.472	286.57
1025.827	349.76
1026.183	352.1
1026.539	235.08
1026.895	277.21
1027.25	288.91
1027.606	328.7
1027.961	382.53
1028.317	263.16
1028.672	345.08
1029.028	345.08
1029.383	328.7
1029.738	354.44
1030.093	338.06
1030.448	293.59
1030.803	326.36
1031.158	398.92
1031.513	284.23
1031.868	375.51
1032.223	319.34
1032.577	373.17
1032.932	377.85
1033.287	328.7
1033.641	333.38
1033.996	272.53
1034.35	377.85
1034.704	300.61
1035.059	305.29
1035.413	335.72
1035.767	335.72
1036.121	335.72
