Data from Al_FLMS009871__1032__16-23-59-116.txt Node

Date: Fri Mar 08 16:23:59 CST 2024
User: pe5414po
Spectrometer: FLMS00987
Trigger mode: 0
Integration Time (sec): 1.000000E-1
Scans to average: 1
Electric dark correction enabled: true
Nonlinearity correction enabled: false
Boxcar width: 0
XAxis mode: Wavelengths
Number of Pixels in Spectrum: 2048
>>>>>Begin Spectral Data<<<<<
188.938	-86.6
189.409	-86.6
189.879	-86.6
190.349	-60.85
190.819	-95.96
191.29	-23.41
191.76	-44.47
192.23	-9.36
192.7	-72.56
193.17	-23.41
193.64	-35.11
194.109	-35.11
194.579	-51.49
195.049	-72.56
195.519	25.75
195.988	44.47
196.458	7.02
196.927	49.15
197.397	124.05
197.866	37.45
198.336	79.58
198.805	168.52
199.274	152.13
199.744	161.5
200.213	163.84
200.682	170.86
201.151	266.82
201.62	189.58
202.089	269.16
202.558	241.08
203.027	212.99
203.495	306.61
203.964	292.57
204.433	271.5
204.902	280.86
205.37	299.59
205.839	276.18
206.307	330.02
206.776	360.44
207.244	322.99
207.712	304.27
208.181	259.8
208.649	334.7
209.117	311.29
209.585	283.2
210.053	353.42
210.521	276.18
210.989	271.5
211.457	297.25
211.925	259.8
212.393	266.82
212.861	320.65
213.328	257.46
213.796	224.69
214.264	266.82
214.731	390.87
215.199	269.16
215.666	264.48
216.133	294.91
216.601	283.2
217.068	294.91
217.535	271.5
218.003	306.61
218.47	273.84
218.937	273.84
219.404	259.8
219.871	276.18
220.338	243.42
220.805	297.25
221.271	255.12
221.738	299.59
222.205	283.2
222.671	201.29
223.138	210.65
223.605	292.57
224.071	285.55
224.538	269.16
225.004	245.76
225.47	278.52
225.937	250.44
226.403	245.76
226.869	313.63
227.335	212.99
227.801	257.46
228.267	313.63
228.733	334.7
229.199	180.22
229.665	299.59
230.131	325.33
230.597	339.38
231.062	215.33
231.528	325.33
231.994	290.23
232.459	294.91
232.925	325.33
233.39	276.18
233.856	308.95
234.321	327.67
234.786	348.74
235.252	290.23
235.717	283.2
236.182	252.78
236.647	318.31
237.112	283.2
237.577	327.67
238.042	287.89
238.507	262.14
238.972	280.86
239.436	297.25
239.901	266.82
240.366	271.5
240.83	327.67
241.295	318.31
241.76	280.86
242.224	283.2
242.688	266.82
243.153	234.05
243.617	294.91
244.081	285.55
244.545	353.42
245.01	297.25
245.474	262.14
245.938	227.03
246.402	301.93
246.866	252.78
247.33	318.31
247.793	337.04
248.257	278.52
248.721	292.57
249.185	290.23
249.648	308.95
250.112	220.01
250.575	318.31
251.039	250.44
251.502	276.18
251.965	262.14
252.429	330.02
252.892	266.82
253.355	290.23
253.818	315.97
254.281	374.49
254.744	269.16
255.207	283.2
255.67	322.99
256.133	313.63
256.596	276.18
257.059	299.59
257.522	273.84
257.984	311.29
258.447	344.06
258.909	292.57
259.372	271.5
259.834	315.97
260.297	334.7
260.759	299.59
261.221	362.78
261.684	290.23
262.146	346.4
262.608	266.82
263.07	337.04
263.532	252.78
263.994	210.65
264.456	276.18
264.918	250.44
265.38	351.08
265.842	304.27
266.303	236.39
266.765	259.8
267.227	266.82
267.688	287.89
268.15	222.35
268.611	287.89
269.072	262.14
269.534	217.67
269.995	252.78
270.456	341.72
270.918	318.31
271.379	215.33
271.84	222.35
272.301	327.67
272.762	301.93
273.223	224.69
273.684	271.5
274.144	243.42
274.605	294.91
275.066	259.8
275.527	337.04
275.987	327.67
276.448	257.46
276.908	292.57
277.369	262.14
277.829	191.92
278.289	346.4
278.75	301.93
279.21	325.33
279.67	369.8
280.13	306.61
280.59	285.55
281.05	264.48
281.51	299.59
281.97	330.02
282.43	308.95
282.89	264.48
283.35	297.25
283.809	262.14
284.269	283.2
284.729	294.91
285.188	278.52
285.648	280.86
286.107	360.44
286.567	273.84
287.026	320.65
287.485	318.31
287.944	234.05
288.404	320.65
288.863	320.65
289.322	292.57
289.781	351.08
290.24	304.27
290.699	358.1
291.158	381.51
291.616	334.7
292.075	353.42
292.534	264.48
292.992	301.93
293.451	313.63
293.91	299.59
294.368	290.23
294.827	348.74
295.285	325.33
295.743	311.29
296.202	308.95
296.66	313.63
297.118	273.84
297.576	322.99
298.034	311.29
298.492	262.14
298.95	311.29
299.408	273.84
299.866	287.89
300.324	315.97
300.781	365.12
301.239	320.65
301.697	320.65
302.154	294.91
302.612	341.72
303.069	379.17
303.527	330.02
303.984	358.1
304.441	330.02
304.899	315.97
305.356	269.16
305.813	283.2
306.27	217.67
306.727	301.93
307.184	308.95
307.641	322.99
308.098	287.89
308.555	311.29
309.012	315.97
309.468	290.23
309.925	334.7
310.382	276.18
310.838	301.93
311.295	351.08
311.751	341.72
312.208	276.18
312.664	306.61
313.12	400.23
313.577	325.33
314.033	250.44
314.489	287.89
314.945	341.72
315.401	369.8
315.857	327.67
316.313	322.99
316.769	369.8
317.225	320.65
317.681	315.97
318.136	266.82
318.592	283.2
319.048	283.2
319.503	297.25
319.959	360.44
320.414	301.93
320.869	330.02
321.325	320.65
321.78	280.86
322.235	400.23
322.691	311.29
323.146	320.65
323.601	264.48
324.056	262.14
324.511	299.59
324.966	320.65
325.421	292.57
325.875	315.97
326.33	318.31
326.785	308.95
327.24	320.65
327.694	330.02
328.149	327.67
328.603	327.67
329.058	332.36
329.512	311.29
329.966	306.61
330.421	262.14
330.875	332.36
331.329	353.42
331.783	320.65
332.237	304.27
332.691	299.59
333.145	367.46
333.599	229.37
334.053	376.83
334.507	348.74
334.96	355.76
335.414	283.2
335.868	325.33
336.321	311.29
336.775	320.65
337.228	341.72
337.682	283.2
338.135	299.59
338.588	283.2
339.042	306.61
339.495	367.46
339.948	381.51
340.401	322.99
340.854	259.8
341.307	327.67
341.76	245.76
342.213	402.57
342.666	362.78
343.119	337.04
343.571	355.76
344.024	292.57
344.477	299.59
344.929	332.36
345.382	308.95
345.834	294.91
346.287	330.02
346.739	355.76
347.191	292.57
347.644	374.49
348.096	348.74
348.548	353.42
349	351.08
349.452	311.29
349.904	407.25
350.356	283.2
350.808	294.91
351.26	250.44
351.711	297.25
352.163	278.52
352.615	297.25
353.066	320.65
353.518	365.12
353.969	351.08
354.421	280.86
354.872	332.36
355.324	358.1
355.775	294.91
356.226	287.89
356.677	393.21
357.128	269.16
357.579	330.02
358.03	311.29
358.481	285.55
358.932	294.91
359.383	346.4
359.834	320.65
360.285	353.42
360.735	278.52
361.186	264.48
361.637	276.18
362.087	292.57
362.538	327.67
362.988	322.99
363.438	390.87
363.889	367.46
364.339	311.29
364.789	294.91
365.239	306.61
365.689	285.55
366.139	330.02
366.589	348.74
367.039	348.74
367.489	313.63
367.939	292.57
368.389	301.93
368.839	297.25
369.288	292.57
369.738	287.89
370.187	311.29
370.637	390.87
371.086	318.31
371.536	292.57
371.985	294.91
372.434	283.2
372.884	262.14
373.333	266.82
373.782	264.48
374.231	334.7
374.68	283.2
375.129	285.55
375.578	334.7
376.027	315.97
376.475	322.99
376.924	334.7
377.373	259.8
377.822	327.67
378.27	374.49
378.719	330.02
379.167	365.12
379.616	294.91
380.064	369.8
380.512	304.27
380.961	362.78
381.409	355.76
381.857	292.57
382.305	245.76
382.753	339.38
383.201	327.67
383.649	355.76
384.097	381.51
384.545	315.97
384.992	325.33
385.44	337.04
385.888	322.99
386.335	318.31
386.783	346.4
387.231	308.95
387.678	248.1
388.125	334.7
388.573	332.36
389.02	337.04
389.467	266.82
389.914	250.44
390.362	332.36
390.809	358.1
391.256	313.63
391.703	278.52
392.15	322.99
392.596	348.74
393.043	292.57
393.49	311.29
393.937	313.63
394.383	287.89
394.83	353.42
395.276	325.33
395.723	320.65
396.169	334.7
396.616	337.04
397.062	294.91
397.508	322.99
397.954	353.42
398.401	341.72
398.847	341.72
399.293	339.38
399.739	273.84
400.185	360.44
400.631	353.42
401.076	320.65
401.522	348.74
401.968	287.89
402.414	315.97
402.859	294.91
403.305	297.25
403.75	278.52
404.196	322.99
404.641	304.27
405.086	376.83
405.532	304.27
405.977	346.4
406.422	353.42
406.867	250.44
407.312	348.74
407.757	362.78
408.202	308.95
408.647	346.4
409.092	257.46
409.537	278.52
409.982	318.31
410.426	341.72
410.871	318.31
411.316	334.7
411.76	318.31
412.205	322.99
412.649	297.25
413.093	280.86
413.538	308.95
413.982	327.67
414.426	283.2
414.87	322.99
415.314	299.59
415.758	313.63
416.202	322.99
416.646	320.65
417.09	273.84
417.534	365.12
417.978	334.7
418.421	348.74
418.865	367.46
419.309	278.52
419.752	346.4
420.196	327.67
420.639	287.89
421.083	381.51
421.526	304.27
421.969	369.8
422.412	290.23
422.856	327.67
423.299	285.55
423.742	287.89
424.185	311.29
424.628	369.8
425.071	262.14
425.513	269.16
425.956	318.31
426.399	301.93
426.842	362.78
427.284	332.36
427.727	304.27
428.169	271.5
428.612	292.57
429.054	280.86
429.497	358.1
429.939	376.83
430.381	337.04
430.823	306.61
431.265	238.73
431.707	330.02
432.149	315.97
432.591	285.55
433.033	318.31
433.475	297.25
433.917	320.65
434.359	308.95
434.8	353.42
435.242	313.63
435.684	332.36
436.125	301.93
436.567	346.4
437.008	332.36
437.449	315.97
437.891	325.33
438.332	334.7
438.773	304.27
439.214	330.02
439.656	271.5
440.097	308.95
440.538	332.36
440.978	344.06
441.419	292.57
441.86	327.67
442.301	318.31
442.742	301.93
443.182	365.12
443.623	315.97
444.063	308.95
444.504	262.14
444.944	278.52
445.385	332.36
445.825	285.55
446.265	285.55
446.706	327.67
447.146	322.99
447.586	250.44
448.026	292.57
448.466	292.57
448.906	322.99
449.346	297.25
449.786	266.82
450.225	325.33
450.665	334.7
451.105	301.93
451.544	285.55
451.984	344.06
452.424	337.04
452.863	271.5
453.302	344.06
453.742	386.19
454.181	365.12
454.62	327.67
455.059	379.17
455.499	313.63
455.938	358.1
456.377	304.27
456.816	374.49
457.254	376.83
457.693	330.02
458.132	353.42
458.571	320.65
459.01	369.8
459.448	334.7
459.887	376.83
460.325	299.59
460.764	334.7
461.202	292.57
461.641	365.12
462.079	320.65
462.517	360.44
462.955	252.78
463.393	245.76
463.832	299.59
464.27	297.25
464.708	278.52
465.145	285.55
465.583	273.84
466.021	365.12
466.459	276.18
466.897	262.14
467.334	306.61
467.772	372.15
468.209	374.49
468.647	315.97
469.084	327.67
469.522	402.57
469.959	313.63
470.396	327.67
470.833	337.04
471.271	355.76
471.708	341.72
472.145	390.87
472.582	290.23
473.019	308.95
473.456	238.73
473.892	334.7
474.329	304.27
474.766	304.27
475.202	304.27
475.639	334.7
476.076	318.31
476.512	330.02
476.949	315.97
477.385	330.02
477.821	290.23
478.258	327.67
478.694	287.89
479.13	290.23
479.566	348.74
480.002	337.04
480.438	421.3
480.874	313.63
481.31	351.08
481.746	259.8
482.181	355.76
482.617	322.99
483.053	320.65
483.488	372.15
483.924	313.63
484.36	271.5
484.795	386.19
485.23	358.1
485.666	341.72
486.101	297.25
486.536	374.49
486.971	292.57
487.407	395.55
487.842	344.06
488.277	304.27
488.712	252.78
489.146	348.74
489.581	362.78
490.016	318.31
490.451	297.25
490.885	332.36
491.32	381.51
491.755	322.99
492.189	355.76
492.624	285.55
493.058	315.97
493.492	308.95
493.927	367.46
494.361	379.17
494.795	362.78
495.229	332.36
495.663	313.63
496.097	320.65
496.531	287.89
496.965	360.44
497.399	334.7
497.833	287.89
498.266	283.2
498.7	294.91
499.134	273.84
499.567	299.59
500.001	229.37
500.434	311.29
500.868	372.15
501.301	245.76
501.734	322.99
502.168	301.93
502.601	320.65
503.034	393.21
503.467	287.89
503.9	311.29
504.333	353.42
504.766	287.89
505.199	355.76
505.632	294.91
506.064	339.38
506.497	308.95
506.93	369.8
507.362	365.12
507.795	278.52
508.227	367.46
508.66	285.55
509.092	320.65
509.524	318.31
509.956	383.85
510.389	325.33
510.821	287.89
511.253	353.42
511.685	220.01
512.117	346.4
512.549	294.91
512.981	285.55
513.412	383.85
513.844	390.87
514.276	318.31
514.707	423.64
515.139	273.84
515.571	294.91
516.002	346.4
516.433	337.04
516.865	292.57
517.296	353.42
517.727	306.61
518.159	285.55
518.59	304.27
519.021	339.38
519.452	341.72
519.883	351.08
520.314	259.8
520.744	353.42
521.175	320.65
521.606	353.42
522.037	273.84
522.467	337.04
522.898	280.86
523.328	367.46
523.759	351.08
524.189	292.57
524.62	351.08
525.05	322.99
525.48	339.38
525.91	348.74
526.341	297.25
526.771	325.33
527.201	315.97
527.631	334.7
528.061	330.02
528.49	294.91
528.92	280.86
529.35	308.95
529.78	332.36
530.209	236.39
530.639	353.42
531.068	308.95
531.498	313.63
531.927	301.93
532.357	381.51
532.786	355.76
533.215	257.46
533.644	292.57
534.074	362.78
534.503	327.67
534.932	337.04
535.361	390.87
535.79	292.57
536.218	332.36
536.647	332.36
537.076	318.31
537.505	351.08
537.933	283.2
538.362	344.06
538.79	311.29
539.219	346.4
539.647	320.65
540.076	259.8
540.504	313.63
540.932	334.7
541.36	313.63
541.788	334.7
542.217	304.27
542.645	306.61
543.073	304.27
543.5	287.89
543.928	304.27
544.356	273.84
544.784	280.86
545.211	301.93
545.639	416.62
546.067	376.83
546.494	339.38
546.922	299.59
547.349	278.52
547.776	315.97
548.204	297.25
548.631	348.74
549.058	379.17
549.485	322.99
549.912	313.63
550.339	322.99
550.766	236.39
551.193	339.38
551.62	311.29
552.047	320.65
552.474	348.74
552.9	339.38
553.327	301.93
553.754	297.25
554.18	306.61
554.607	297.25
555.033	344.06
555.459	264.48
555.886	337.04
556.312	313.63
556.738	294.91
557.164	304.27
557.59	325.33
558.016	285.55
558.442	330.02
558.868	311.29
559.294	353.42
559.72	299.59
560.145	344.06
560.571	390.87
560.997	269.16
561.422	327.67
561.848	318.31
562.273	252.78
562.699	290.23
563.124	322.99
563.549	341.72
563.974	322.99
564.4	327.67
564.825	332.36
565.25	334.7
565.675	311.29
566.1	334.7
566.525	332.36
566.95	386.19
567.374	262.14
567.799	353.42
568.224	332.36
568.648	367.46
569.073	330.02
569.497	304.27
569.922	327.67
570.346	334.7
570.771	325.33
571.195	259.8
571.619	344.06
572.043	299.59
572.467	369.8
572.891	294.91
573.315	341.72
573.739	304.27
574.163	355.76
574.587	358.1
575.011	301.93
575.435	330.02
575.858	273.84
576.282	365.12
576.705	372.15
577.129	301.93
577.552	325.33
577.976	292.57
578.399	351.08
578.822	318.31
579.245	348.74
579.669	351.08
580.092	367.46
580.515	259.8
580.938	327.67
581.361	325.33
581.784	376.83
582.206	255.12
582.629	276.18
583.052	299.59
583.474	304.27
583.897	353.42
584.32	306.61
584.742	301.93
585.165	337.04
585.587	273.84
586.009	351.08
586.431	327.67
586.854	306.61
587.276	341.72
587.698	306.61
588.12	353.42
588.542	337.04
588.964	346.4
589.386	348.74
589.807	266.82
590.229	276.18
590.651	313.63
591.073	332.36
591.494	358.1
591.916	273.84
592.337	292.57
592.759	297.25
593.18	283.2
593.601	362.78
594.022	269.16
594.444	269.16
594.865	341.72
595.286	344.06
595.707	308.95
596.128	360.44
596.549	318.31
596.97	353.42
597.39	346.4
597.811	294.91
598.232	325.33
598.652	322.99
599.073	304.27
599.494	341.72
599.914	287.89
600.334	337.04
600.755	315.97
601.175	259.8
601.595	344.06
602.015	332.36
602.436	346.4
602.856	435.34
603.276	355.76
603.696	294.91
604.115	311.29
604.535	290.23
604.955	334.7
605.375	383.85
605.794	334.7
606.214	297.25
606.634	397.89
607.053	229.37
607.473	327.67
607.892	313.63
608.311	327.67
608.731	330.02
609.15	320.65
609.569	313.63
609.988	330.02
610.407	318.31
610.826	306.61
611.245	330.02
611.664	325.33
612.083	311.29
612.501	332.36
612.92	285.55
613.339	325.33
613.757	337.04
614.176	348.74
614.594	311.29
615.013	315.97
615.431	346.4
615.85	266.82
616.268	320.65
616.686	306.61
617.104	327.67
617.522	341.72
617.94	358.1
618.358	372.15
618.776	322.99
619.194	365.12
619.612	348.74
620.03	330.02
620.447	290.23
620.865	381.51
621.282	304.27
621.7	287.89
622.117	311.29
622.535	257.46
622.952	304.27
623.369	325.33
623.787	313.63
624.204	306.61
624.621	339.38
625.038	287.89
625.455	313.63
625.872	353.42
626.289	341.72
626.706	334.7
627.123	285.55
627.539	278.52
627.956	308.95
628.373	348.74
628.789	379.17
629.206	297.25
629.622	383.85
630.038	229.37
630.455	269.16
630.871	325.33
631.287	257.46
631.703	318.31
632.12	292.57
632.536	294.91
632.952	299.59
633.368	227.03
633.783	351.08
634.199	339.38
634.615	358.1
635.031	322.99
635.446	301.93
635.862	348.74
636.277	376.83
636.693	311.29
637.108	269.16
637.524	344.06
637.939	386.19
638.354	353.42
638.77	339.38
639.185	337.04
639.6	327.67
640.015	287.89
640.43	308.95
640.845	306.61
641.259	322.99
641.674	327.67
642.089	318.31
642.504	262.14
642.918	308.95
643.333	236.39
643.747	337.04
644.162	318.31
644.576	299.59
644.991	280.86
645.405	315.97
645.819	327.67
646.233	351.08
646.647	379.17
647.061	290.23
647.475	327.67
647.889	304.27
648.303	283.2
648.717	344.06
649.131	322.99
649.545	327.67
649.958	297.25
650.372	283.2
650.785	271.5
651.199	315.97
651.612	332.36
652.026	355.76
652.439	348.74
652.852	327.67
653.266	262.14
653.679	273.84
654.092	346.4
654.505	362.78
654.918	252.78
655.331	313.63
655.744	283.2
656.156	337.04
656.569	257.46
656.982	262.14
657.394	311.29
657.807	297.25
658.22	290.23
658.632	311.29
659.044	337.04
659.457	287.89
659.869	346.4
660.281	243.42
660.693	334.7
661.106	365.12
661.518	332.36
661.93	341.72
662.342	355.76
662.754	318.31
663.165	365.12
663.577	344.06
663.989	367.46
664.401	351.08
664.812	332.36
665.224	337.04
665.635	327.67
666.047	320.65
666.458	292.57
666.869	311.29
667.281	299.59
667.692	374.49
668.103	409.59
668.514	390.87
668.925	292.57
669.336	318.31
669.747	346.4
670.158	346.4
670.569	285.55
670.979	273.84
671.39	280.86
671.801	248.1
672.211	388.53
672.622	297.25
673.032	339.38
673.443	304.27
673.853	367.46
674.263	301.93
674.674	351.08
675.084	259.8
675.494	358.1
675.904	348.74
676.314	301.93
676.724	311.29
677.134	360.44
677.544	306.61
677.953	301.93
678.363	390.87
678.773	353.42
679.182	311.29
679.592	266.82
680.001	320.65
680.411	308.95
680.82	327.67
681.23	297.25
681.639	344.06
682.048	372.15
682.457	327.67
682.866	341.72
683.275	393.21
683.684	308.95
684.093	285.55
684.502	290.23
684.911	362.78
685.32	294.91
685.728	308.95
686.137	259.8
686.546	313.63
686.954	327.67
687.363	301.93
687.771	271.5
688.179	224.69
688.588	301.93
688.996	332.36
689.404	320.65
689.812	351.08
690.22	304.27
690.628	297.25
691.036	231.71
691.444	278.52
691.852	320.65
692.26	269.16
692.667	318.31
693.075	327.67
693.483	318.31
693.89	325.33
694.298	318.31
694.705	365.12
695.112	327.67
695.52	290.23
695.927	299.59
696.334	294.91
696.741	285.55
697.148	271.5
697.555	327.67
697.962	257.46
698.369	386.19
698.776	269.16
699.183	374.49
699.59	313.63
699.996	330.02
700.403	292.57
700.81	313.63
701.216	337.04
701.623	306.61
702.029	283.2
702.435	362.78
702.842	390.87
703.248	318.31
703.654	252.78
704.06	381.51
704.466	308.95
704.872	365.12
705.278	313.63
705.684	285.55
706.09	290.23
706.496	294.91
706.901	308.95
707.307	367.46
707.712	306.61
708.118	294.91
708.523	315.97
708.929	341.72
709.334	301.93
709.74	308.95
710.145	330.02
710.55	313.63
710.955	344.06
711.36	297.25
711.765	299.59
712.17	348.74
712.575	334.7
712.98	851.95
713.385	365.12
713.789	262.14
714.194	301.93
714.599	266.82
715.003	318.31
715.408	299.59
715.812	397.89
716.217	320.65
716.621	292.57
717.025	332.36
717.429	313.63
717.833	320.65
718.238	278.52
718.642	334.7
719.046	241.08
719.449	362.78
719.853	315.97
720.257	351.08
720.661	285.55
721.065	276.18
721.468	327.67
721.872	280.86
722.275	292.57
722.679	334.7
723.082	348.74
723.485	332.36
723.889	337.04
724.292	301.93
724.695	318.31
725.098	358.1
725.501	311.29
725.904	290.23
726.307	315.97
726.71	262.14
727.113	358.1
727.516	292.57
727.918	369.8
728.321	271.5
728.724	262.14
729.126	311.29
729.529	320.65
729.931	311.29
730.333	313.63
730.736	248.1
731.138	334.7
731.54	297.25
731.942	301.93
732.344	334.7
732.746	287.89
733.148	299.59
733.55	294.91
733.952	311.29
734.354	280.86
734.756	318.31
735.157	351.08
735.559	264.48
735.96	358.1
736.362	369.8
736.763	285.55
737.165	311.29
737.566	264.48
737.967	344.06
738.368	395.55
738.77	311.29
739.171	344.06
739.572	334.7
739.973	360.44
740.374	311.29
740.774	362.78
741.175	271.5
741.576	271.5
741.977	320.65
742.377	348.74
742.778	304.27
743.178	318.31
743.579	341.72
743.979	287.89
744.379	367.46
744.78	320.65
745.18	337.04
745.58	287.89
745.98	337.04
746.38	306.61
746.78	311.29
747.18	290.23
747.58	262.14
747.98	308.95
748.38	285.55
748.779	250.44
749.179	294.91
749.578	337.04
749.978	276.18
750.377	320.65
750.777	276.18
751.176	264.48
751.575	248.1
751.975	283.2
752.374	297.25
752.773	348.74
753.172	339.38
753.571	306.61
753.97	344.06
754.369	360.44
754.768	283.2
755.166	334.7
755.565	294.91
755.964	318.31
756.362	344.06
756.761	255.12
757.159	313.63
757.558	269.16
757.956	341.72
758.354	304.27
758.753	339.38
759.151	372.15
759.549	322.99
759.947	250.44
760.345	315.97
760.743	334.7
761.141	304.27
761.539	287.89
761.936	308.95
762.334	346.4
762.732	322.99
763.129	306.61
763.527	257.46
763.924	308.95
764.322	355.76
764.719	339.38
765.117	318.31
765.514	315.97
765.911	332.36
766.308	290.23
766.705	325.33
767.102	308.95
767.499	322.99
767.896	330.02
768.293	355.76
768.69	294.91
769.086	299.59
769.483	330.02
769.88	245.76
770.276	327.67
770.673	334.7
771.069	332.36
771.466	339.38
771.862	325.33
772.258	304.27
772.654	257.46
773.05	325.33
773.447	269.16
773.843	337.04
774.239	297.25
774.634	344.06
775.03	355.76
775.426	234.05
775.822	313.63
776.218	360.44
776.613	304.27
777.009	402.57
777.404	318.31
777.8	264.48
778.195	339.38
778.59	278.52
778.986	280.86
779.381	397.89
779.776	315.97
780.171	283.2
780.566	271.5
780.961	318.31
781.356	315.97
781.751	355.76
782.146	292.57
782.54	360.44
782.935	299.59
783.33	299.59
783.724	308.95
784.119	297.25
784.513	283.2
784.908	266.82
785.302	351.08
785.696	266.82
786.09	351.08
786.485	334.7
786.879	348.74
787.273	297.25
787.667	273.84
788.061	390.87
788.454	337.04
788.848	283.2
789.242	332.36
789.636	362.78
790.029	294.91
790.423	290.23
790.816	320.65
791.21	367.46
791.603	299.59
791.997	311.29
792.39	304.27
792.783	362.78
793.176	376.83
793.569	294.91
793.962	348.74
794.355	344.06
794.748	234.05
795.141	367.46
795.534	306.61
795.927	348.74
796.319	304.27
796.712	341.72
797.105	241.08
797.497	308.95
797.89	264.48
798.282	325.33
798.674	344.06
799.067	266.82
799.459	369.8
799.851	287.89
800.243	374.49
800.635	290.23
801.027	344.06
801.419	334.7
801.811	308.95
802.203	346.4
802.594	285.55
802.986	360.44
803.378	332.36
803.769	290.23
804.161	243.42
804.552	330.02
804.944	241.08
805.335	264.48
805.726	276.18
806.118	332.36
806.509	315.97
806.9	252.78
807.291	315.97
807.682	297.25
808.073	320.65
808.464	318.31
808.855	369.8
809.245	266.82
809.636	327.67
810.027	297.25
810.417	252.78
810.808	315.97
811.198	273.84
811.589	369.8
811.979	388.53
812.369	322.99
812.759	285.55
813.15	334.7
813.54	287.89
813.93	330.02
814.32	325.33
814.71	311.29
815.1	304.27
815.489	276.18
815.879	358.1
816.269	346.4
816.658	320.65
817.048	344.06
817.438	386.19
817.827	297.25
818.216	365.12
818.606	283.2
818.995	304.27
819.384	372.15
819.773	322.99
820.163	257.46
820.552	330.02
820.941	381.51
821.33	299.59
821.718	348.74
822.107	395.55
822.496	241.08
822.885	355.76
823.273	332.36
823.662	334.7
824.05	292.57
824.439	383.85
824.827	341.72
825.216	287.89
825.604	304.27
825.992	320.65
826.38	285.55
826.768	315.97
827.156	299.59
827.544	255.12
827.932	297.25
828.32	287.89
828.708	355.76
829.096	266.82
829.483	311.29
829.871	332.36
830.259	308.95
830.646	304.27
831.034	315.97
831.421	358.1
831.808	325.33
832.196	337.04
832.583	292.57
832.97	388.53
833.357	330.02
833.744	322.99
834.131	294.91
834.518	381.51
834.905	292.57
835.292	348.74
835.678	320.65
836.065	362.78
836.452	290.23
836.838	278.52
837.225	330.02
837.611	301.93
837.998	285.55
838.384	341.72
838.77	351.08
839.157	269.16
839.543	301.93
839.929	311.29
840.315	348.74
840.701	325.33
841.087	271.5
841.473	273.84
841.858	301.93
842.244	334.7
842.63	271.5
843.015	351.08
843.401	353.42
843.787	278.52
844.172	313.63
844.557	304.27
844.943	348.74
845.328	313.63
845.713	276.18
846.098	320.65
846.483	330.02
846.868	390.87
847.253	325.33
847.638	301.93
848.023	278.52
848.408	372.15
848.793	313.63
849.177	322.99
849.562	330.02
849.947	308.95
850.331	313.63
850.715	334.7
851.1	330.02
851.484	297.25
851.868	318.31
852.253	278.52
852.637	346.4
853.021	245.76
853.405	332.36
853.789	290.23
854.173	337.04
854.557	271.5
854.94	306.61
855.324	386.19
855.708	332.36
856.091	280.86
856.475	327.67
856.858	271.5
857.242	315.97
857.625	348.74
858.009	369.8
858.392	285.55
858.775	318.31
859.158	285.55
859.541	358.1
859.924	311.29
860.307	231.71
860.69	351.08
861.073	297.25
861.456	358.1
861.838	358.1
862.221	299.59
862.604	283.2
862.986	313.63
863.369	325.33
863.751	348.74
864.133	313.63
864.516	334.7
864.898	330.02
865.28	313.63
865.662	315.97
866.044	255.12
866.426	285.55
866.808	301.93
867.19	339.38
867.572	355.76
867.954	353.42
868.336	283.2
868.717	330.02
869.099	334.7
869.48	294.91
869.862	276.18
870.243	306.61
870.625	269.16
871.006	290.23
871.387	325.33
871.768	334.7
872.149	327.67
872.53	308.95
872.911	346.4
873.292	262.14
873.673	383.85
874.054	299.59
874.435	290.23
874.815	318.31
875.196	332.36
875.577	374.49
875.957	332.36
876.338	322.99
876.718	299.59
877.098	273.84
877.479	337.04
877.859	362.78
878.239	278.52
878.619	308.95
878.999	301.93
879.379	276.18
879.759	374.49
880.139	327.67
880.519	393.21
880.898	306.61
881.278	306.61
881.658	299.59
882.037	262.14
882.417	318.31
882.796	327.67
883.176	337.04
883.555	285.55
883.934	280.86
884.313	294.91
884.693	299.59
885.072	262.14
885.451	400.23
885.83	360.44
886.209	362.78
886.587	341.72
886.966	299.59
887.345	332.36
887.724	292.57
888.102	280.86
888.481	311.29
888.859	313.63
889.238	344.06
889.616	315.97
889.994	252.78
890.373	306.61
890.751	278.52
891.129	271.5
891.507	299.59
891.885	341.72
892.263	299.59
892.641	276.18
893.019	332.36
893.396	318.31
893.774	292.57
894.152	304.27
894.529	334.7
894.907	330.02
895.284	294.91
895.662	264.48
896.039	269.16
896.416	346.4
896.794	287.89
897.171	315.97
897.548	269.16
897.925	369.8
898.302	294.91
898.679	290.23
899.056	355.76
899.433	337.04
899.809	297.25
900.186	264.48
900.563	337.04
900.939	322.99
901.316	290.23
901.692	299.59
902.069	278.52
902.445	271.5
902.821	306.61
903.197	243.42
903.574	262.14
903.95	332.36
904.326	304.27
904.702	351.08
905.078	351.08
905.454	262.14
905.829	297.25
906.205	348.74
906.581	330.02
906.956	362.78
907.332	351.08
907.707	285.55
908.083	297.25
908.458	283.2
908.833	318.31
909.209	311.29
909.584	301.93
909.959	374.49
910.334	255.12
910.709	318.31
911.084	306.61
911.459	287.89
911.834	327.67
912.209	311.29
912.583	322.99
912.958	248.1
913.333	365.12
913.707	369.8
914.082	264.48
914.456	297.25
914.83	320.65
915.205	290.23
915.579	306.61
915.953	278.52
916.327	337.04
916.701	315.97
917.075	332.36
917.449	322.99
917.823	299.59
918.197	271.5
918.571	308.95
918.944	283.2
919.318	306.61
919.692	351.08
920.065	327.67
920.438	322.99
920.812	283.2
921.185	294.91
921.558	320.65
921.932	299.59
922.305	390.87
922.678	297.25
923.051	362.78
923.424	339.38
923.797	290.23
924.17	313.63
924.542	299.59
924.915	262.14
925.288	264.48
925.661	294.91
926.033	381.51
926.406	313.63
926.778	238.73
927.15	330.02
927.523	325.33
927.895	294.91
928.267	367.46
928.639	301.93
929.011	353.42
929.383	332.36
929.755	297.25
930.127	320.65
930.499	283.2
930.871	341.72
931.242	259.8
931.614	332.36
931.986	287.89
932.357	348.74
932.729	283.2
933.1	327.67
933.471	287.89
933.843	322.99
934.214	287.89
934.585	344.06
934.956	243.42
935.327	322.99
935.698	376.83
936.069	271.5
936.44	271.5
936.811	332.36
937.182	330.02
937.552	278.52
937.923	304.27
938.293	341.72
938.664	381.51
939.034	264.48
939.405	322.99
939.775	334.7
940.145	264.48
940.516	294.91
940.886	334.7
941.256	325.33
941.626	313.63
941.996	353.42
942.366	306.61
942.735	308.95
943.105	285.55
943.475	301.93
943.845	294.91
944.214	318.31
944.584	322.99
944.953	297.25
945.323	330.02
945.692	297.25
946.061	271.5
946.43	278.52
946.8	299.59
947.169	334.7
947.538	327.67
947.907	243.42
948.276	346.4
948.645	243.42
949.013	280.86
949.382	341.72
949.751	383.85
950.119	346.4
950.488	337.04
950.857	351.08
951.225	358.1
951.593	313.63
951.962	294.91
952.33	276.18
952.698	381.51
953.066	330.02
953.434	311.29
953.802	292.57
954.17	278.52
954.538	332.36
954.906	287.89
955.274	278.52
955.642	269.16
956.009	365.12
956.377	287.89
956.744	318.31
957.112	337.04
957.479	294.91
957.847	290.23
958.214	299.59
958.581	322.99
958.948	351.08
959.315	395.55
959.683	322.99
960.05	308.95
960.416	334.7
960.783	330.02
961.15	278.52
961.517	297.25
961.884	285.55
962.25	294.91
962.617	259.8
962.983	322.99
963.35	327.67
963.716	330.02
964.082	353.42
964.449	280.86
964.815	287.89
965.181	234.05
965.547	292.57
965.913	337.04
966.279	327.67
966.645	346.4
967.011	266.82
967.377	283.2
967.742	308.95
968.108	294.91
968.474	285.55
968.839	334.7
969.205	315.97
969.57	262.14
969.935	297.25
970.301	273.84
970.666	327.67
971.031	411.93
971.396	322.99
971.761	313.63
972.126	339.38
972.491	187.24
972.856	304.27
973.221	334.7
973.586	320.65
973.95	287.89
974.315	337.04
974.679	358.1
975.044	341.72
975.408	311.29
975.773	355.76
976.137	280.86
976.501	334.7
976.866	334.7
977.23	358.1
977.594	360.44
977.958	280.86
978.322	285.55
978.686	327.67
979.049	278.52
979.413	297.25
979.777	379.17
980.141	330.02
980.504	304.27
980.868	299.59
981.231	322.99
981.595	227.03
981.958	320.65
982.321	250.44
982.684	308.95
983.048	283.2
983.411	339.38
983.774	367.46
984.137	369.8
984.5	341.72
984.862	306.61
985.225	339.38
985.588	339.38
985.951	269.16
986.313	315.97
986.676	285.55
987.038	269.16
987.401	301.93
987.763	313.63
988.125	341.72
988.488	348.74
988.85	322.99
989.212	334.7
989.574	372.15
989.936	330.02
990.298	292.57
990.66	330.02
991.022	355.76
991.383	322.99
991.745	292.57
992.107	241.08
992.468	306.61
992.83	257.46
993.191	325.33
993.553	353.42
993.914	346.4
994.275	304.27
994.637	315.97
994.998	318.31
995.359	304.27
995.72	308.95
996.081	292.57
996.442	280.86
996.803	318.31
997.163	301.93
997.524	304.27
997.885	353.42
998.245	285.55
998.606	285.55
998.966	358.1
999.327	325.33
999.687	299.59
1000.047	297.25
1000.408	348.74
1000.768	297.25
1001.128	280.86
1001.488	327.67
1001.848	322.99
1002.208	330.02
1002.568	318.31
1002.927	318.31
1003.287	383.85
1003.647	306.61
1004.007	292.57
1004.366	322.99
1004.726	290.23
1005.085	262.14
1005.444	332.36
1005.804	297.25
1006.163	334.7
1006.522	290.23
1006.881	351.08
1007.24	376.83
1007.599	313.63
1007.958	360.44
1008.317	313.63
1008.676	297.25
1009.035	372.15
1009.393	292.57
1009.752	273.84
1010.111	339.38
1010.469	271.5
1010.828	276.18
1011.186	330.02
1011.544	306.61
1011.903	320.65
1012.261	341.72
1012.619	334.7
1012.977	264.48
1013.335	271.5
1013.693	306.61
1014.051	344.06
1014.409	313.63
1014.767	292.57
1015.124	276.18
1015.482	332.36
1015.84	355.76
1016.197	325.33
1016.555	348.74
1016.912	283.2
1017.269	297.25
1017.627	304.27
1017.984	285.55
1018.341	320.65
1018.698	306.61
1019.055	365.12
1019.412	297.25
1019.769	259.8
1020.126	353.42
1020.483	308.95
1020.84	299.59
1021.196	351.08
1021.553	318.31
1021.909	285.55
1022.266	322.99
1022.622	294.91
1022.979	301.93
1023.335	299.59
1023.691	330.02
1024.047	311.29
1024.404	372.15
1024.76	330.02
1025.116	262.14
1025.472	315.97
1025.827	372.15
1026.183	285.55
1026.539	255.12
1026.895	322.99
1027.25	332.36
1027.606	271.5
1027.961	306.61
1028.317	278.52
1028.672	334.7
1029.028	339.38
1029.383	262.14
1029.738	313.63
1030.093	318.31
1030.448	322.99
1030.803	381.51
1031.158	369.8
1031.513	297.25
1031.868	308.95
1032.223	334.7
1032.577	327.67
1032.932	330.02
1033.287	318.31
1033.641	304.27
1033.996	285.55
1034.35	322.99
1034.704	320.65
1035.059	337.04
1035.413	376.83
1035.767	376.83
1036.121	376.83
