Data from Al_FLMS009871__1020__16-23-57-915.txt Node

Date: Fri Mar 08 16:23:57 CST 2024
User: pe5414po
Spectrometer: FLMS00987
Trigger mode: 0
Integration Time (sec): 1.000000E-1
Scans to average: 1
Electric dark correction enabled: true
Nonlinearity correction enabled: false
Boxcar width: 0
XAxis mode: Wavelengths
Number of Pixels in Spectrum: 2048
>>>>>Begin Spectral Data<<<<<
188.938	-49.15
189.409	-49.15
189.879	-49.15
190.349	-117.03
190.819	-140.43
191.29	-53.83
191.76	-124.05
192.23	-128.73
192.7	-107.66
193.17	-49.15
193.64	-65.53
194.109	-11.7
194.579	-51.49
195.049	4.68
195.519	-2.34
195.988	63.19
196.458	35.11
196.927	74.9
197.397	117.03
197.866	124.05
198.336	175.54
198.805	152.13
199.274	110.01
199.744	177.88
200.213	140.43
200.682	194.26
201.151	257.46
201.62	222.35
202.089	269.16
202.558	259.8
203.027	245.76
203.495	229.37
203.964	147.45
204.433	297.25
204.902	250.44
205.37	327.68
205.839	257.46
206.307	269.16
206.776	297.25
207.244	255.12
207.712	259.8
208.181	271.5
208.649	255.12
209.117	292.57
209.585	327.68
210.053	208.31
210.521	362.78
210.989	248.1
211.457	308.95
211.925	283.2
212.393	266.82
212.861	259.8
213.328	271.5
213.796	334.7
214.264	294.91
214.731	252.78
215.199	222.35
215.666	245.76
216.133	203.63
216.601	266.82
217.068	273.84
217.535	283.2
218.003	248.1
218.47	301.93
218.937	266.82
219.404	224.69
219.871	276.18
220.338	238.73
220.805	280.86
221.271	271.5
221.738	194.26
222.205	140.43
222.671	266.82
223.138	273.84
223.605	269.16
224.071	325.33
224.538	222.35
225.004	257.46
225.47	276.18
225.937	273.84
226.403	236.39
226.869	259.8
227.335	285.55
227.801	243.42
228.267	257.46
228.733	266.82
229.199	273.84
229.665	280.86
230.131	255.12
230.597	276.18
231.062	248.1
231.528	234.05
231.994	325.33
232.459	229.37
232.925	299.59
233.39	234.05
233.856	320.65
234.321	287.89
234.786	196.61
235.252	269.16
235.717	222.35
236.182	187.24
236.647	330.02
237.112	297.25
237.577	236.39
238.042	241.08
238.507	231.71
238.972	285.55
239.436	250.44
239.901	252.78
240.366	283.2
240.83	227.03
241.295	280.86
241.76	297.25
242.224	250.44
242.688	229.37
243.153	238.73
243.617	255.12
244.081	245.76
244.545	264.48
245.01	294.91
245.474	252.78
245.938	276.18
246.402	266.82
246.866	215.33
247.33	248.1
247.793	250.44
248.257	262.14
248.721	341.72
249.185	283.2
249.648	304.27
250.112	273.84
250.575	255.12
251.039	337.04
251.502	266.82
251.965	280.86
252.429	299.59
252.892	290.23
253.355	287.89
253.818	308.95
254.281	264.48
254.744	292.57
255.207	227.03
255.67	259.8
256.133	255.12
256.596	191.92
257.059	322.99
257.522	332.36
257.984	222.35
258.447	248.1
258.909	266.82
259.372	262.14
259.834	365.12
260.297	283.2
260.759	220.01
261.221	234.05
261.684	264.48
262.146	203.63
262.608	276.18
263.07	215.33
263.532	273.84
263.994	304.27
264.456	269.16
264.918	290.23
265.38	287.89
265.842	327.68
266.303	304.27
266.765	273.84
267.227	400.23
267.688	386.19
268.15	287.89
268.611	276.18
269.072	276.18
269.534	311.29
269.995	271.5
270.456	245.76
270.918	327.68
271.379	285.55
271.84	248.1
272.301	315.97
272.762	234.05
273.223	297.25
273.684	262.14
274.144	304.27
274.605	301.93
275.066	241.08
275.527	259.8
275.987	311.29
276.448	280.86
276.908	318.31
277.369	283.2
277.829	273.84
278.289	327.68
278.75	259.8
279.21	292.57
279.67	318.31
280.13	215.33
280.59	330.02
281.05	222.35
281.51	262.14
281.97	311.29
282.43	283.2
282.89	299.59
283.35	325.33
283.809	292.57
284.269	299.59
284.729	271.5
285.188	264.48
285.648	250.44
286.107	294.91
286.567	245.76
287.026	292.57
287.485	304.27
287.944	259.8
288.404	294.91
288.863	271.5
289.322	266.82
289.781	304.27
290.24	255.12
290.699	304.27
291.158	273.84
291.616	294.91
292.075	322.99
292.534	252.78
292.992	351.08
293.451	308.95
293.91	341.72
294.368	294.91
294.827	255.12
295.285	276.18
295.743	320.65
296.202	308.95
296.66	285.55
297.118	280.86
297.576	294.91
298.034	290.23
298.492	236.39
298.95	252.78
299.408	250.44
299.866	304.27
300.324	315.97
300.781	304.27
301.239	255.12
301.697	348.74
302.154	285.55
302.612	306.61
303.069	266.82
303.527	262.14
303.984	262.14
304.441	276.18
304.899	250.44
305.356	341.72
305.813	292.57
306.27	250.44
306.727	266.82
307.184	287.89
307.641	308.95
308.098	262.14
308.555	269.16
309.012	355.76
309.468	292.57
309.925	311.29
310.382	292.57
310.838	306.61
311.295	227.03
311.751	262.14
312.208	313.63
312.664	318.31
313.12	320.65
313.577	271.5
314.033	330.02
314.489	257.46
314.945	283.2
315.401	308.95
315.857	301.93
316.313	220.01
316.769	322.99
317.225	327.68
317.681	301.93
318.136	327.68
318.592	257.46
319.048	266.82
319.503	297.25
319.959	346.4
320.414	241.08
320.869	308.95
321.325	285.55
321.78	353.42
322.235	278.52
322.691	334.7
323.146	287.89
323.601	308.95
324.056	278.52
324.511	301.93
324.966	222.35
325.421	297.25
325.875	330.02
326.33	330.02
326.785	308.95
327.24	362.78
327.694	245.76
328.149	280.86
328.603	299.59
329.058	301.93
329.512	292.57
329.966	299.59
330.421	287.89
330.875	301.93
331.329	327.68
331.783	313.63
332.237	227.03
332.691	315.97
333.145	266.82
333.599	376.83
334.053	294.91
334.507	271.5
334.96	283.2
335.414	294.91
335.868	238.73
336.321	252.78
336.775	292.57
337.228	318.31
337.682	266.82
338.135	304.27
338.588	283.2
339.042	294.91
339.495	325.33
339.948	313.63
340.401	327.68
340.854	276.18
341.307	341.72
341.76	306.61
342.213	341.72
342.666	255.12
343.119	313.63
343.571	294.91
344.024	344.06
344.477	299.59
344.929	332.36
345.382	322.99
345.834	271.5
346.287	344.06
346.739	330.02
347.191	327.68
347.644	318.31
348.096	301.93
348.548	306.61
349	304.27
349.452	325.33
349.904	320.65
350.356	346.4
350.808	287.89
351.26	351.08
351.711	330.02
352.163	294.91
352.615	320.65
353.066	241.08
353.518	313.63
353.969	290.23
354.421	290.23
354.872	266.82
355.324	297.25
355.775	304.27
356.226	334.7
356.677	301.93
357.128	285.55
357.579	283.2
358.03	294.91
358.481	273.84
358.932	280.86
359.383	318.31
359.834	318.31
360.285	234.05
360.735	341.72
361.186	330.02
361.637	344.06
362.087	278.52
362.538	339.38
362.988	346.4
363.438	285.55
363.889	325.33
364.339	376.83
364.789	294.91
365.239	339.38
365.689	299.59
366.139	269.16
366.589	308.95
367.039	248.1
367.489	318.31
367.939	330.02
368.389	255.12
368.839	306.61
369.288	280.86
369.738	287.89
370.187	210.65
370.637	327.68
371.086	278.52
371.536	283.2
371.985	315.97
372.434	322.99
372.884	320.65
373.333	306.61
373.782	280.86
374.231	334.7
374.68	248.1
375.129	318.31
375.578	297.25
376.027	269.16
376.475	344.06
376.924	374.49
377.373	292.57
377.822	315.97
378.27	376.83
378.719	264.48
379.167	259.8
379.616	290.23
380.064	315.97
380.512	238.73
380.961	266.82
381.409	330.02
381.857	255.12
382.305	297.25
382.753	294.91
383.201	266.82
383.649	243.42
384.097	262.14
384.545	306.61
384.992	313.63
385.44	322.99
385.888	344.06
386.335	292.57
386.783	330.02
387.231	299.59
387.678	257.46
388.125	287.89
388.573	322.99
389.02	276.18
389.467	222.35
389.914	252.78
390.362	315.97
390.809	252.78
391.256	280.86
391.703	301.93
392.15	269.16
392.596	358.1
393.043	301.93
393.49	301.93
393.937	299.59
394.383	306.61
394.83	393.21
395.276	327.68
395.723	304.27
396.169	273.84
396.616	301.93
397.062	311.29
397.508	301.93
397.954	234.05
398.401	318.31
398.847	266.82
399.293	313.63
399.739	243.42
400.185	250.44
400.631	264.48
401.076	322.99
401.522	280.86
401.968	367.46
402.414	287.89
402.859	266.82
403.305	299.59
403.75	297.25
404.196	280.86
404.641	315.97
405.086	369.8
405.532	306.61
405.977	353.42
406.422	334.7
406.867	264.48
407.312	341.72
407.757	287.89
408.202	287.89
408.647	330.02
409.092	327.68
409.537	294.91
409.982	306.61
410.426	264.48
410.871	308.95
411.316	273.84
411.76	294.91
412.205	315.97
412.649	290.23
413.093	194.26
413.538	322.99
413.982	280.86
414.426	367.46
414.87	287.89
415.314	320.65
415.758	304.27
416.202	278.52
416.646	280.86
417.09	344.06
417.534	294.91
417.978	299.59
418.421	330.02
418.865	339.38
419.309	344.06
419.752	318.31
420.196	287.89
420.639	299.59
421.083	271.5
421.526	301.93
421.969	348.74
422.412	344.06
422.856	353.42
423.299	306.61
423.742	322.99
424.185	318.31
424.628	287.89
425.071	287.89
425.513	264.48
425.956	304.27
426.399	306.61
426.842	287.89
427.284	334.7
427.727	304.27
428.169	299.59
428.612	367.46
429.054	311.29
429.497	297.25
429.939	308.95
430.381	339.38
430.823	276.18
431.265	308.95
431.707	306.61
432.149	301.93
432.591	290.23
433.033	299.59
433.475	315.97
433.917	330.02
434.359	351.08
434.8	231.71
435.242	297.25
435.684	315.97
436.125	322.99
436.567	346.4
437.008	250.44
437.449	306.61
437.891	348.74
438.332	271.5
438.773	301.93
439.214	264.48
439.656	306.61
440.097	257.46
440.538	362.78
440.978	332.36
441.419	252.78
441.86	283.2
442.301	332.36
442.742	358.1
443.182	327.68
443.623	353.42
444.063	355.76
444.504	294.91
444.944	308.95
445.385	297.25
445.825	278.52
446.265	301.93
446.706	322.99
447.146	315.97
447.586	287.89
448.026	348.74
448.466	280.86
448.906	313.63
449.346	217.67
449.786	330.02
450.225	299.59
450.665	372.15
451.105	355.76
451.544	280.86
451.984	266.82
452.424	315.97
452.863	278.52
453.302	325.33
453.742	353.42
454.181	355.76
454.62	339.38
455.059	264.48
455.499	344.06
455.938	315.97
456.377	325.33
456.816	322.99
457.254	224.69
457.693	348.74
458.132	348.74
458.571	297.25
459.01	285.55
459.448	315.97
459.887	337.04
460.325	299.59
460.764	306.61
461.202	341.72
461.641	297.25
462.079	301.93
462.517	292.57
462.955	325.33
463.393	351.08
463.832	311.29
464.27	318.31
464.708	318.31
465.145	320.65
465.583	346.4
466.021	308.95
466.459	250.44
466.897	311.29
467.334	271.5
467.772	301.93
468.209	320.65
468.647	348.74
469.084	318.31
469.522	264.48
469.959	290.23
470.396	313.63
470.833	374.49
471.271	283.2
471.708	346.4
472.145	320.65
472.582	304.27
473.019	330.02
473.456	341.72
473.892	311.29
474.329	318.31
474.766	304.27
475.202	351.08
475.639	276.18
476.076	318.31
476.512	278.52
476.949	351.08
477.385	271.5
477.821	257.46
478.258	353.42
478.694	269.16
479.13	238.73
479.566	269.16
480.002	290.23
480.438	269.16
480.874	315.97
481.31	318.31
481.746	315.97
482.181	358.1
482.617	362.78
483.053	264.48
483.488	311.29
483.924	325.33
484.36	266.82
484.795	273.84
485.23	327.68
485.666	337.04
486.101	278.52
486.536	369.8
486.971	313.63
487.407	334.7
487.842	325.33
488.277	292.57
488.712	285.55
489.146	294.91
489.581	301.93
490.016	353.42
490.451	266.82
490.885	285.55
491.32	322.99
491.755	318.31
492.189	255.12
492.624	346.4
493.058	341.72
493.492	313.63
493.927	339.38
494.361	313.63
494.795	301.93
495.229	290.23
495.663	243.42
496.097	308.95
496.531	262.14
496.965	257.46
497.399	315.97
497.833	283.2
498.266	325.33
498.7	334.7
499.134	341.72
499.567	372.15
500.001	351.08
500.434	330.02
500.868	278.52
501.301	327.68
501.734	320.65
502.168	290.23
502.601	299.59
503.034	292.57
503.467	287.89
503.9	332.36
504.333	348.74
504.766	315.97
505.199	318.31
505.632	353.42
506.064	322.99
506.497	346.4
506.93	264.48
507.362	353.42
507.795	241.08
508.227	322.99
508.66	301.93
509.092	294.91
509.524	325.33
509.956	273.84
510.389	304.27
510.821	299.59
511.253	294.91
511.685	292.57
512.117	257.46
512.549	294.91
512.981	301.93
513.412	318.31
513.844	351.08
514.276	285.55
514.707	308.95
515.139	271.5
515.571	325.33
516.002	341.72
516.433	308.95
516.865	334.7
517.296	320.65
517.727	283.2
518.159	290.23
518.59	344.06
519.021	334.7
519.452	238.73
519.883	332.36
520.314	386.19
520.744	273.84
521.175	292.57
521.606	271.5
522.037	238.73
522.467	285.55
522.898	346.4
523.328	285.55
523.759	320.65
524.189	285.55
524.62	318.31
525.05	353.42
525.48	337.04
525.91	369.8
526.341	285.55
526.771	339.38
527.201	325.33
527.631	330.02
528.061	365.12
528.49	346.4
528.92	337.04
529.35	344.06
529.78	299.59
530.209	320.65
530.639	330.02
531.068	278.52
531.498	292.57
531.927	292.57
532.357	248.1
532.786	266.82
533.215	348.74
533.644	280.86
534.074	299.59
534.503	299.59
534.932	327.68
535.361	308.95
535.79	344.06
536.218	325.33
536.647	315.97
537.076	292.57
537.505	306.61
537.933	301.93
538.362	400.23
538.79	301.93
539.219	322.99
539.647	287.89
540.076	271.5
540.504	301.93
540.932	294.91
541.36	257.46
541.788	390.87
542.217	320.65
542.645	266.82
543.073	318.31
543.5	252.78
543.928	306.61
544.356	332.36
544.784	294.91
545.211	311.29
545.639	292.57
546.067	339.38
546.494	290.23
546.922	332.36
547.349	318.31
547.776	290.23
548.204	280.86
548.631	311.29
549.058	294.91
549.485	278.52
549.912	264.48
550.339	344.06
550.766	299.59
551.193	299.59
551.62	386.19
552.047	313.63
552.474	358.1
552.9	250.44
553.327	306.61
553.754	271.5
554.18	365.12
554.607	290.23
555.033	301.93
555.459	330.02
555.886	315.97
556.312	301.93
556.738	315.97
557.164	294.91
557.59	308.95
558.016	306.61
558.442	346.4
558.868	292.57
559.294	304.27
559.72	315.97
560.145	311.29
560.571	287.89
560.997	318.31
561.422	280.86
561.848	287.89
562.273	308.95
562.699	325.33
563.124	278.52
563.549	245.76
563.974	348.74
564.4	287.89
564.825	269.16
565.25	264.48
565.675	276.18
566.1	280.86
566.525	297.25
566.95	315.97
567.374	285.55
567.799	299.59
568.224	297.25
568.648	315.97
569.073	330.02
569.497	294.91
569.922	212.99
570.346	339.38
570.771	306.61
571.195	304.27
571.619	351.08
572.043	367.46
572.467	276.18
572.891	353.42
573.315	280.86
573.739	332.36
574.163	290.23
574.587	257.46
575.011	259.8
575.435	320.65
575.858	337.04
576.282	306.61
576.705	346.4
577.129	348.74
577.552	276.18
577.976	334.7
578.399	259.8
578.822	278.52
579.245	276.18
579.669	294.91
580.092	325.33
580.515	297.25
580.938	330.02
581.361	327.68
581.784	322.99
582.206	362.78
582.629	325.33
583.052	276.18
583.474	227.03
583.897	252.78
584.32	278.52
584.742	325.33
585.165	271.5
585.587	313.63
586.009	297.25
586.431	222.35
586.854	278.52
587.276	255.12
587.698	271.5
588.12	269.16
588.542	344.06
588.964	306.61
589.386	313.63
589.807	278.52
590.229	311.29
590.651	283.2
591.073	241.08
591.494	308.95
591.916	292.57
592.337	294.91
592.759	365.12
593.18	311.29
593.601	297.25
594.022	308.95
594.444	379.17
594.865	250.44
595.286	369.8
595.707	320.65
596.128	306.61
596.549	327.68
596.97	264.48
597.39	304.27
597.811	243.42
598.232	283.2
598.652	325.33
599.073	285.55
599.494	290.23
599.914	292.57
600.334	294.91
600.755	250.44
601.175	238.73
601.595	400.23
602.015	285.55
602.436	248.1
602.856	465.77
603.276	332.36
603.696	311.29
604.115	285.55
604.535	262.14
604.955	283.2
605.375	322.99
605.794	290.23
606.214	313.63
606.634	250.44
607.053	257.46
607.473	332.36
607.892	344.06
608.311	290.23
608.731	250.44
609.15	280.86
609.569	322.99
609.988	255.12
610.407	339.38
610.826	315.97
611.245	315.97
611.664	341.72
612.083	304.27
612.501	313.63
612.92	339.38
613.339	306.61
613.757	299.59
614.176	313.63
614.594	285.55
615.013	304.27
615.431	348.74
615.85	278.52
616.268	337.04
616.686	294.91
617.104	266.82
617.522	308.95
617.94	278.52
618.358	320.65
618.776	318.31
619.194	318.31
619.612	297.25
620.03	269.16
620.447	262.14
620.865	301.93
621.282	325.33
621.7	315.97
622.117	376.83
622.535	306.61
622.952	318.31
623.369	301.93
623.787	250.44
624.204	318.31
624.621	264.48
625.038	325.33
625.455	290.23
625.872	283.2
626.289	297.25
626.706	369.8
627.123	278.52
627.539	283.2
627.956	304.27
628.373	339.38
628.789	318.31
629.206	330.02
629.622	294.91
630.038	243.42
630.455	322.99
630.871	292.57
631.287	248.1
631.703	304.27
632.12	301.93
632.536	257.46
632.952	257.46
633.368	257.46
633.783	388.53
634.199	313.63
634.615	294.91
635.031	257.46
635.446	294.91
635.862	299.59
636.277	337.04
636.693	383.85
637.108	276.18
637.524	262.14
637.939	297.25
638.354	311.29
638.77	292.57
639.185	322.99
639.6	311.29
640.015	292.57
640.43	318.31
640.845	304.27
641.259	379.17
641.674	332.36
642.089	257.46
642.504	283.2
642.918	248.1
643.333	341.72
643.747	341.72
644.162	285.55
644.576	276.18
644.991	271.5
645.405	327.68
645.819	280.86
646.233	280.86
646.647	369.8
647.061	301.93
647.475	367.46
647.889	334.7
648.303	334.7
648.717	304.27
649.131	332.36
649.545	327.68
649.958	330.02
650.372	348.74
650.785	290.23
651.199	276.18
651.612	311.29
652.026	304.27
652.439	313.63
652.852	273.84
653.266	276.18
653.679	294.91
654.092	280.86
654.505	346.4
654.918	327.68
655.331	276.18
655.744	337.04
656.156	334.7
656.569	287.89
656.982	269.16
657.394	290.23
657.807	292.57
658.22	306.61
658.632	292.57
659.044	348.74
659.457	264.48
659.869	276.18
660.281	273.84
660.693	276.18
661.106	224.69
661.518	285.55
661.93	341.72
662.342	313.63
662.754	294.91
663.165	334.7
663.577	262.14
663.989	346.4
664.401	252.78
664.812	285.55
665.224	283.2
665.635	259.8
666.047	301.93
666.458	292.57
666.869	318.31
667.281	304.27
667.692	287.89
668.103	341.72
668.514	262.14
668.925	264.48
669.336	322.99
669.747	301.93
670.158	318.31
670.569	273.84
670.979	360.44
671.39	271.5
671.801	313.63
672.211	325.33
672.622	318.31
673.032	327.68
673.443	311.29
673.853	308.95
674.263	231.71
674.674	255.12
675.084	301.93
675.494	332.36
675.904	320.65
676.314	330.02
676.724	262.14
677.134	299.59
677.544	327.68
677.953	308.95
678.363	294.91
678.773	325.33
679.182	278.52
679.592	376.83
680.001	339.38
680.411	304.27
680.82	283.2
681.23	353.42
681.639	294.91
682.048	252.78
682.457	346.4
682.866	341.72
683.275	330.02
683.684	294.91
684.093	278.52
684.502	269.16
684.911	266.82
685.32	360.44
685.728	280.86
686.137	297.25
686.546	269.16
686.954	332.36
687.363	327.68
687.771	301.93
688.179	255.12
688.588	283.2
688.996	337.04
689.404	306.61
689.812	322.99
690.22	262.14
690.628	266.82
691.036	250.44
691.444	236.39
691.852	313.63
692.26	287.89
692.667	234.05
693.075	269.16
693.483	299.59
693.89	360.44
694.298	287.89
694.705	320.65
695.112	362.78
695.52	297.25
695.927	271.5
696.334	283.2
696.741	290.23
697.148	255.12
697.555	306.61
697.962	250.44
698.369	262.14
698.776	330.02
699.183	322.99
699.59	259.8
699.996	306.61
700.403	334.7
700.81	276.18
701.216	257.46
701.623	325.33
702.029	325.33
702.435	301.93
702.842	327.68
703.248	304.27
703.654	344.06
704.06	334.7
704.466	248.1
704.872	259.8
705.278	374.49
705.684	311.29
706.09	353.42
706.496	271.5
706.901	273.84
707.307	362.78
707.712	308.95
708.118	334.7
708.523	283.2
708.929	290.23
709.334	325.33
709.74	325.33
710.145	259.8
710.55	266.82
710.955	269.16
711.36	301.93
711.765	273.84
712.17	334.7
712.575	308.95
712.98	844.93
713.385	360.44
713.789	313.63
714.194	330.02
714.599	311.29
715.003	351.08
715.408	341.72
715.812	294.91
716.217	341.72
716.621	332.36
717.025	308.95
717.429	374.49
717.833	257.46
718.238	313.63
718.642	234.05
719.046	311.29
719.449	325.33
719.853	304.27
720.257	252.78
720.661	311.29
721.065	332.36
721.468	306.61
721.872	322.99
722.275	297.25
722.679	318.31
723.082	341.72
723.485	292.57
723.889	304.27
724.292	283.2
724.695	264.48
725.098	369.8
725.501	238.73
725.904	318.31
726.307	318.31
726.71	313.63
727.113	299.59
727.516	276.18
727.918	395.55
728.321	306.61
728.724	299.59
729.126	297.25
729.529	327.68
729.931	341.72
730.333	311.29
730.736	301.93
731.138	306.61
731.54	320.65
731.942	332.36
732.344	374.49
732.746	280.86
733.148	320.65
733.55	304.27
733.952	304.27
734.354	320.65
734.756	306.61
735.157	290.23
735.559	341.72
735.96	276.18
736.362	290.23
736.763	292.57
737.165	320.65
737.566	280.86
737.967	280.86
738.368	283.2
738.77	252.78
739.171	252.78
739.572	250.44
739.973	325.33
740.374	313.63
740.774	292.57
741.175	292.57
741.576	306.61
741.977	339.38
742.377	346.4
742.778	290.23
743.178	276.18
743.579	362.78
743.979	252.78
744.379	255.12
744.78	325.33
745.18	304.27
745.58	264.48
745.98	264.48
746.38	285.55
746.78	325.33
747.18	322.99
747.58	266.82
747.98	257.46
748.38	290.23
748.779	292.57
749.179	290.23
749.578	327.68
749.978	327.68
750.377	315.97
750.777	313.63
751.176	315.97
751.575	273.84
751.975	301.93
752.374	339.38
752.773	322.99
753.172	376.83
753.571	276.18
753.97	308.95
754.369	360.44
754.768	215.33
755.166	294.91
755.565	299.59
755.964	311.29
756.362	285.55
756.761	315.97
757.159	355.76
757.558	292.57
757.956	337.04
758.354	322.99
758.753	287.89
759.151	292.57
759.549	346.4
759.947	292.57
760.345	290.23
760.743	283.2
761.141	290.23
761.539	311.29
761.936	304.27
762.334	264.48
762.732	355.76
763.129	283.2
763.527	252.78
763.924	299.59
764.322	365.12
764.719	269.16
765.117	341.72
765.514	330.02
765.911	278.52
766.308	311.29
766.705	301.93
767.102	308.95
767.499	327.68
767.896	409.59
768.293	299.59
768.69	346.4
769.086	278.52
769.483	241.08
769.88	334.7
770.276	344.06
770.673	376.83
771.069	344.06
771.466	306.61
771.862	264.48
772.258	269.16
772.654	285.55
773.05	278.52
773.447	330.02
773.843	252.78
774.239	259.8
774.634	304.27
775.03	273.84
775.426	294.91
775.822	283.2
776.218	297.25
776.613	299.59
777.009	313.63
777.404	285.55
777.8	322.99
778.195	255.12
778.59	376.83
778.986	322.99
779.381	365.12
779.776	294.91
780.171	294.91
780.566	294.91
780.961	285.55
781.356	344.06
781.751	318.31
782.146	308.95
782.54	299.59
782.935	332.36
783.33	283.2
783.724	297.25
784.119	241.08
784.513	301.93
784.908	355.76
785.302	327.68
785.696	292.57
786.09	325.33
786.485	262.14
786.879	348.74
787.273	283.2
787.667	351.08
788.061	278.52
788.454	292.57
788.848	229.37
789.242	327.68
789.636	294.91
790.029	315.97
790.423	290.23
790.816	262.14
791.21	320.65
791.603	234.05
791.997	250.44
792.39	367.46
792.783	222.35
793.176	304.27
793.569	283.2
793.962	311.29
794.355	304.27
794.748	245.76
795.141	313.63
795.534	351.08
795.927	308.95
796.319	318.31
796.712	299.59
797.105	322.99
797.497	276.18
797.89	301.93
798.282	330.02
798.674	278.52
799.067	322.99
799.459	252.78
799.851	318.31
800.243	285.55
800.635	367.46
801.027	294.91
801.419	330.02
801.811	278.52
802.203	313.63
802.594	290.23
802.986	341.72
803.378	276.18
803.769	283.2
804.161	294.91
804.552	278.52
804.944	271.5
805.335	271.5
805.726	299.59
806.118	299.59
806.509	269.16
806.9	358.1
807.291	334.7
807.682	236.39
808.073	231.71
808.464	264.48
808.855	322.99
809.245	334.7
809.636	271.5
810.027	311.29
810.417	299.59
810.808	238.73
811.198	344.06
811.589	372.15
811.979	304.27
812.369	297.25
812.759	294.91
813.15	334.7
813.54	269.16
813.93	280.86
814.32	283.2
814.71	332.36
815.1	264.48
815.489	306.61
815.879	255.12
816.269	299.59
816.658	327.68
817.048	308.95
817.438	273.84
817.827	313.63
818.216	269.16
818.606	292.57
818.995	283.2
819.384	308.95
819.773	299.59
820.163	330.02
820.552	285.55
820.941	266.82
821.33	306.61
821.718	334.7
822.107	285.55
822.496	308.95
822.885	318.31
823.273	353.42
823.662	241.08
824.05	318.31
824.439	320.65
824.827	315.97
825.216	320.65
825.604	353.42
825.992	344.06
826.38	280.86
826.768	311.29
827.156	322.99
827.544	301.93
827.932	311.29
828.32	344.06
828.708	229.37
829.096	299.59
829.483	243.42
829.871	271.5
830.259	306.61
830.646	294.91
831.034	264.48
831.421	264.48
831.808	325.33
832.196	311.29
832.583	285.55
832.97	271.5
833.357	294.91
833.744	306.61
834.131	318.31
834.518	313.63
834.905	259.8
835.292	234.05
835.678	259.8
836.065	306.61
836.452	313.63
836.838	212.99
837.225	395.55
837.611	278.52
837.998	320.65
838.384	318.31
838.77	292.57
839.157	290.23
839.543	241.08
839.929	337.04
840.315	362.78
840.701	238.73
841.087	245.76
841.473	301.93
841.858	255.12
842.244	315.97
842.63	257.46
843.015	313.63
843.401	379.17
843.787	276.18
844.172	315.97
844.557	257.46
844.943	271.5
845.328	257.46
845.713	290.23
846.098	278.52
846.483	308.95
846.868	334.7
847.253	234.05
847.638	278.52
848.023	301.93
848.408	372.15
848.793	264.48
849.177	306.61
849.562	306.61
849.947	299.59
850.331	311.29
850.715	318.31
851.1	330.02
851.484	348.74
851.868	315.97
852.253	388.53
852.637	287.89
853.021	229.37
853.405	318.31
853.789	278.52
854.173	346.4
854.557	320.65
854.94	308.95
855.324	320.65
855.708	320.65
856.091	301.93
856.475	318.31
856.858	283.2
857.242	243.42
857.625	327.68
858.009	294.91
858.392	306.61
858.775	299.59
859.158	358.1
859.541	269.16
859.924	322.99
860.307	320.65
860.69	264.48
861.073	280.86
861.456	241.08
861.838	299.59
862.221	322.99
862.604	271.5
862.986	287.89
863.369	301.93
863.751	287.89
864.133	332.36
864.516	325.33
864.898	344.06
865.28	257.46
865.662	315.97
866.044	313.63
866.426	311.29
866.808	311.29
867.19	266.82
867.572	273.84
867.954	332.36
868.336	308.95
868.717	229.37
869.099	280.86
869.48	308.95
869.862	346.4
870.243	259.8
870.625	252.78
871.006	301.93
871.387	273.84
871.768	255.12
872.149	283.2
872.53	269.16
872.911	243.42
873.292	266.82
873.673	285.55
874.054	322.99
874.435	306.61
874.815	311.29
875.196	327.68
875.577	285.55
875.957	294.91
876.338	339.38
876.718	262.14
877.098	264.48
877.479	280.86
877.859	332.36
878.239	262.14
878.619	264.48
878.999	294.91
879.379	287.89
879.759	215.33
880.139	241.08
880.519	294.91
880.898	383.85
881.278	241.08
881.658	339.38
882.037	334.7
882.417	337.04
882.796	353.42
883.176	320.65
883.555	337.04
883.934	353.42
884.313	330.02
884.693	297.25
885.072	355.76
885.451	311.29
885.83	287.89
886.209	290.23
886.587	390.87
886.966	334.7
887.345	304.27
887.724	292.57
888.102	334.7
888.481	269.16
888.859	259.8
889.238	322.99
889.616	238.73
889.994	311.29
890.373	358.1
890.751	283.2
891.129	252.78
891.507	299.59
891.885	332.36
892.263	313.63
892.641	285.55
893.019	339.38
893.396	264.48
893.774	313.63
894.152	285.55
894.529	369.8
894.907	308.95
895.284	351.08
895.662	262.14
896.039	327.68
896.416	322.99
896.794	259.8
897.171	280.86
897.548	334.7
897.925	381.51
898.302	290.23
898.679	227.03
899.056	320.65
899.433	325.33
899.809	297.25
900.186	330.02
900.563	243.42
900.939	327.68
901.316	301.93
901.692	283.2
902.069	341.72
902.445	330.02
902.821	264.48
903.197	308.95
903.574	238.73
903.95	308.95
904.326	257.46
904.702	248.1
905.078	301.93
905.454	304.27
905.829	325.33
906.205	304.27
906.581	285.55
906.956	327.68
907.332	252.78
907.707	320.65
908.083	280.86
908.458	266.82
908.833	311.29
909.209	330.02
909.584	322.99
909.959	287.89
910.334	318.31
910.709	294.91
911.084	313.63
911.459	290.23
911.834	245.76
912.209	250.44
912.583	299.59
912.958	248.1
913.333	306.61
913.707	322.99
914.082	325.33
914.456	311.29
914.83	285.55
915.205	292.57
915.579	365.12
915.953	358.1
916.327	285.55
916.701	290.23
917.075	257.46
917.449	269.16
917.823	276.18
918.197	308.95
918.571	344.06
918.944	332.36
919.318	353.42
919.692	285.55
920.065	311.29
920.438	390.87
920.812	313.63
921.185	358.1
921.558	322.99
921.932	308.95
922.305	287.89
922.678	327.68
923.051	276.18
923.424	271.5
923.797	269.16
924.17	339.38
924.542	311.29
924.915	285.55
925.288	320.65
925.661	315.97
926.033	318.31
926.406	224.69
926.778	285.55
927.15	341.72
927.523	301.93
927.895	278.52
928.267	273.84
928.639	351.08
929.011	332.36
929.383	322.99
929.755	250.44
930.127	290.23
930.499	290.23
930.871	299.59
931.242	327.68
931.614	292.57
931.986	292.57
932.357	339.38
932.729	259.8
933.1	203.63
933.471	313.63
933.843	290.23
934.214	308.95
934.585	334.7
934.956	325.33
935.327	365.12
935.698	315.97
936.069	297.25
936.44	311.29
936.811	330.02
937.182	334.7
937.552	283.2
937.923	278.52
938.293	252.78
938.664	290.23
939.034	283.2
939.405	285.55
939.775	334.7
940.145	315.97
940.516	278.52
940.886	280.86
941.256	308.95
941.626	358.1
941.996	255.12
942.366	292.57
942.735	306.61
943.105	358.1
943.475	257.46
943.845	304.27
944.214	257.46
944.584	231.71
944.953	271.5
945.323	285.55
945.692	257.46
946.061	280.86
946.43	330.02
946.8	297.25
947.169	308.95
947.538	290.23
947.907	301.93
948.276	337.04
948.645	287.89
949.013	330.02
949.382	311.29
949.751	290.23
950.119	306.61
950.488	259.8
950.857	252.78
951.225	266.82
951.593	301.93
951.962	334.7
952.33	283.2
952.698	212.99
953.066	299.59
953.434	248.1
953.802	241.08
954.17	257.46
954.538	330.02
954.906	306.61
955.274	313.63
955.642	297.25
956.009	271.5
956.377	369.8
956.744	292.57
957.112	332.36
957.479	287.89
957.847	273.84
958.214	318.31
958.581	280.86
958.948	257.46
959.315	278.52
959.683	290.23
960.05	311.29
960.416	283.2
960.783	308.95
961.15	358.1
961.517	348.74
961.884	313.63
962.25	337.04
962.617	264.48
962.983	266.82
963.35	304.27
963.716	290.23
964.082	311.29
964.449	294.91
964.815	290.23
965.181	280.86
965.547	344.06
965.913	313.63
966.279	299.59
966.645	283.2
967.011	273.84
967.377	311.29
967.742	276.18
968.108	311.29
968.474	271.5
968.839	248.1
969.205	313.63
969.57	332.36
969.935	252.78
970.301	278.52
970.666	304.27
971.031	341.72
971.396	327.68
971.761	287.89
972.126	301.93
972.491	313.63
972.856	285.55
973.221	287.89
973.586	269.16
973.95	308.95
974.315	351.08
974.679	262.14
975.044	301.93
975.408	297.25
975.773	301.93
976.137	294.91
976.501	344.06
976.866	266.82
977.23	273.84
977.594	327.68
977.958	290.23
978.322	287.89
978.686	304.27
979.049	252.78
979.413	283.2
979.777	334.7
980.141	273.84
980.504	308.95
980.868	306.61
981.231	299.59
981.595	325.33
981.958	327.68
982.321	315.97
982.684	236.39
983.048	287.89
983.411	315.97
983.774	306.61
984.137	320.65
984.5	341.72
984.862	320.65
985.225	292.57
985.588	311.29
985.951	280.86
986.313	252.78
986.676	365.12
987.038	294.91
987.401	252.78
987.763	325.33
988.125	315.97
988.488	306.61
988.85	341.72
989.212	278.52
989.574	236.39
989.936	330.02
990.298	301.93
990.66	308.95
991.022	292.57
991.383	351.08
991.745	337.04
992.107	374.49
992.468	306.61
992.83	280.86
993.191	229.37
993.553	320.65
993.914	278.52
994.275	315.97
994.637	344.06
994.998	243.42
995.359	210.65
995.72	245.76
996.081	325.33
996.442	348.74
996.803	306.61
997.163	266.82
997.524	308.95
997.885	348.74
998.245	280.86
998.606	278.52
998.966	294.91
999.327	320.65
999.687	276.18
1000.047	287.89
1000.408	278.52
1000.768	332.36
1001.128	224.69
1001.488	337.04
1001.848	245.76
1002.208	269.16
1002.568	271.5
1002.927	339.38
1003.287	250.44
1003.647	252.78
1004.007	339.38
1004.366	301.93
1004.726	262.14
1005.085	287.89
1005.444	222.35
1005.804	205.97
1006.163	308.95
1006.522	320.65
1006.881	320.65
1007.24	353.42
1007.599	287.89
1007.958	259.8
1008.317	337.04
1008.676	332.36
1009.035	301.93
1009.393	320.65
1009.752	283.2
1010.111	348.74
1010.469	294.91
1010.828	351.08
1011.186	285.55
1011.544	341.72
1011.903	238.73
1012.261	299.59
1012.619	248.1
1012.977	318.31
1013.335	318.31
1013.693	332.36
1014.051	339.38
1014.409	308.95
1014.767	287.89
1015.124	264.48
1015.482	299.59
1015.84	327.68
1016.197	283.2
1016.555	381.51
1016.912	262.14
1017.269	325.33
1017.627	292.57
1017.984	294.91
1018.341	330.02
1018.698	292.57
1019.055	301.93
1019.412	294.91
1019.769	285.55
1020.126	290.23
1020.483	266.82
1020.84	327.68
1021.196	304.27
1021.553	304.27
1021.909	269.16
1022.266	304.27
1022.622	344.06
1022.979	407.25
1023.335	248.1
1023.691	301.93
1024.047	257.46
1024.404	292.57
1024.76	285.55
1025.116	290.23
1025.472	308.95
1025.827	280.86
1026.183	299.59
1026.539	294.91
1026.895	273.84
1027.25	198.95
1027.606	236.39
1027.961	334.7
1028.317	313.63
1028.672	243.42
1029.028	337.04
1029.383	285.55
1029.738	283.2
1030.093	294.91
1030.448	297.25
1030.803	287.89
1031.158	322.99
1031.513	337.04
1031.868	369.8
1032.223	245.76
1032.577	311.29
1032.932	290.23
1033.287	344.06
1033.641	327.68
1033.996	257.46
1034.35	290.23
1034.704	259.8
1035.059	259.8
1035.413	292.57
1035.767	292.57
1036.121	292.57
