Data from Al_FLMS009871__1026__16-23-58-515.txt Node

Date: Fri Mar 08 16:23:58 CST 2024
User: pe5414po
Spectrometer: FLMS00987
Trigger mode: 0
Integration Time (sec): 1.000000E-1
Scans to average: 1
Electric dark correction enabled: true
Nonlinearity correction enabled: false
Boxcar width: 0
XAxis mode: Wavelengths
Number of Pixels in Spectrum: 2048
>>>>>Begin Spectral Data<<<<<
188.938	-86.6
189.409	-86.6
189.879	-86.6
190.349	-77.24
190.819	-117.03
191.29	-81.92
191.76	-95.96
192.23	-35.11
192.7	-142.77
193.17	-44.47
193.64	-56.17
194.109	-16.38
194.579	-28.09
195.049	-25.75
195.519	32.77
195.988	9.36
196.458	60.85
196.927	84.26
197.397	79.58
197.866	133.41
198.336	126.39
198.805	142.77
199.274	112.35
199.744	184.9
200.213	262.14
200.682	241.08
201.151	294.91
201.62	271.5
202.089	325.33
202.558	337.04
203.027	386.19
203.495	283.2
203.964	388.53
204.433	414.27
204.902	407.25
205.37	407.25
205.839	421.3
206.307	409.59
206.776	486.83
207.244	395.55
207.712	442.36
208.181	496.19
208.649	535.98
209.117	486.83
209.585	482.15
210.053	454.06
210.521	566.41
210.989	543
211.457	631.94
211.925	718.54
212.393	812.17
212.861	844.93
213.328	725.57
213.796	638.97
214.264	498.53
214.731	475.13
215.199	477.47
215.666	512.58
216.133	594.5
216.601	753.65
217.068	779.4
217.535	959.62
218.003	1078.99
218.47	1289.64
218.937	1083.67
219.404	959.62
219.871	957.28
220.338	954.94
220.805	919.83
221.271	901.11
221.738	802.8
222.205	678.76
222.671	702.16
223.138	908.13
223.605	1053.24
224.071	1041.54
224.538	830.89
225.004	781.74
225.47	884.72
225.937	947.92
226.403	997.07
226.869	844.93
227.335	648.33
227.801	540.66
228.267	468.11
228.733	517.26
229.199	528.96
229.665	458.74
230.131	498.53
230.597	543
231.062	580.45
231.528	540.66
231.994	524.28
232.459	486.83
232.925	472.79
233.39	496.19
233.856	484.49
234.321	463.43
234.786	627.26
235.252	915.15
235.717	1497.94
236.182	2080.74
236.647	2356.92
237.112	1741.36
237.577	1093.03
238.042	753.65
238.507	585.13
238.972	521.94
239.436	585.13
239.901	512.58
240.366	475.13
240.83	479.81
241.295	456.4
241.76	423.64
242.224	475.13
242.688	447.04
243.153	519.6
243.617	428.32
244.081	449.38
244.545	475.13
245.01	475.13
245.474	568.75
245.938	498.53
246.402	585.13
246.866	681.1
247.33	653.01
247.793	648.33
248.257	519.6
248.721	526.62
249.185	550.03
249.648	578.11
250.112	603.86
250.575	587.47
251.039	599.18
251.502	606.2
251.965	582.79
252.429	582.79
252.892	568.75
253.355	589.82
253.818	550.03
254.281	580.45
254.744	585.13
255.207	727.91
255.67	973.66
256.133	1322.4
256.596	1699.23
257.059	1907.54
257.522	1621.99
257.984	1160.91
258.447	978.34
258.909	1069.62
259.372	1013.45
259.834	978.34
260.297	842.59
260.759	830.89
261.221	842.59
261.684	1025.15
262.146	1509.65
262.608	1877.11
263.07	1673.48
263.532	1156.22
263.994	835.57
264.456	833.23
264.918	947.92
265.38	915.15
265.842	830.89
266.303	739.61
266.765	641.31
267.227	571.09
267.688	512.58
268.15	573.43
268.611	622.58
269.072	550.03
269.534	566.41
269.995	550.03
270.456	641.31
270.918	638.97
271.379	582.79
271.84	507.9
272.301	507.9
272.762	526.62
273.223	547.69
273.684	552.37
274.144	599.18
274.605	692.8
275.066	730.25
275.527	648.33
275.987	702.16
276.448	716.2
276.908	688.12
277.369	954.94
277.829	1432.41
278.289	2902.26
278.75	5142.16
279.21	7028.63
279.67	7293.11
280.13	5219.39
280.59	3515.48
281.05	2827.37
281.51	2473.95
281.97	1638.38
282.43	830.89
282.89	578.11
283.35	683.44
283.809	594.5
284.269	800.46
284.729	957.28
285.188	887.06
285.648	791.1
286.107	550.03
286.567	554.71
287.026	599.18
287.485	653.01
287.944	582.79
288.404	610.88
288.863	669.39
289.322	627.26
289.781	662.37
290.24	561.73
290.699	650.67
291.158	587.47
291.616	664.71
292.075	676.41
292.534	833.23
292.992	919.83
293.451	952.6
293.91	931.53
294.368	744.29
294.827	631.94
295.285	557.05
295.743	456.4
296.202	451.72
296.66	461.09
297.118	461.09
297.576	512.58
298.034	437.68
298.492	407.25
298.95	482.15
299.408	407.25
299.866	479.81
300.324	433
300.781	376.83
301.239	447.04
301.697	428.32
302.154	468.11
302.612	533.64
303.069	491.51
303.527	554.71
303.984	517.26
304.441	636.63
304.899	688.12
305.356	821.53
305.813	744.29
306.27	814.51
306.727	1048.56
307.184	1678.16
307.641	2923.33
308.098	4140.41
308.555	5130.45
309.012	5397.28
309.468	4507.87
309.925	2443.52
310.382	880.04
310.838	552.37
311.295	573.43
311.751	517.26
312.208	444.7
312.664	477.47
313.12	482.15
313.577	528.96
314.033	472.79
314.489	461.09
314.945	468.11
315.401	564.07
315.857	545.34
316.313	517.26
316.769	430.66
317.225	411.93
317.681	425.98
318.136	491.51
318.592	369.8
319.048	421.3
319.503	374.49
319.959	447.04
320.414	451.72
320.869	404.91
321.325	416.62
321.78	407.25
322.235	442.36
322.691	454.06
323.146	505.56
323.601	503.22
324.056	704.5
324.511	823.87
324.966	873.02
325.421	739.61
325.875	512.58
326.33	585.13
326.785	585.13
327.24	772.38
327.694	795.78
328.149	713.86
328.603	526.62
329.058	498.53
329.512	404.91
329.966	500.87
330.421	547.69
330.875	472.79
331.329	407.25
331.783	496.19
332.237	447.04
332.691	428.32
333.145	545.34
333.599	526.62
334.053	589.82
334.507	634.29
334.96	629.6
335.414	622.58
335.868	655.35
336.321	627.26
336.775	638.97
337.228	669.39
337.682	620.24
338.135	580.45
338.588	505.56
339.042	454.06
339.495	447.04
339.948	458.74
340.401	421.3
340.854	468.11
341.307	372.15
341.76	442.36
342.213	407.25
342.666	435.34
343.119	491.51
343.571	442.36
344.024	477.47
344.477	470.45
344.929	437.68
345.382	442.36
345.834	477.47
346.287	388.53
346.739	411.93
347.191	367.46
347.644	463.43
348.096	407.25
348.548	414.27
349	374.49
349.452	505.56
349.904	428.32
350.356	461.09
350.808	496.19
351.26	411.93
351.711	528.96
352.163	433
352.615	528.96
353.066	524.28
353.518	552.37
353.969	564.07
354.421	496.19
354.872	442.36
355.324	491.51
355.775	528.96
356.226	650.67
356.677	678.76
357.128	978.34
357.579	1486.24
358.03	2324.15
358.481	4042.11
358.932	4458.72
359.383	3335.26
359.834	2576.93
360.285	2775.88
360.735	2525.44
361.186	1825.62
361.637	1535.39
362.087	912.81
362.538	610.88
362.988	564.07
363.438	500.87
363.889	514.92
364.339	531.3
364.789	510.24
365.239	561.73
365.689	517.26
366.139	505.56
366.589	465.77
367.039	437.68
367.489	463.43
367.939	486.83
368.389	547.69
368.839	526.62
369.288	521.94
369.738	573.43
370.187	636.63
370.637	863.66
371.086	856.64
371.536	910.47
371.985	744.29
372.434	660.03
372.884	547.69
373.333	493.85
373.782	519.6
374.231	573.43
374.68	531.3
375.129	596.84
375.578	517.26
376.027	479.81
376.475	477.47
376.924	498.53
377.373	451.72
377.822	421.3
378.27	463.43
378.719	468.11
379.167	449.38
379.616	533.64
380.064	472.79
380.512	535.98
380.961	533.64
381.409	510.24
381.857	533.64
382.305	568.75
382.753	636.63
383.201	791.1
383.649	877.7
384.097	823.87
384.545	727.91
384.992	603.86
385.44	643.65
385.888	610.88
386.335	571.09
386.783	559.39
387.231	587.47
387.678	606.2
388.125	533.64
388.573	547.69
389.02	521.94
389.467	535.98
389.914	526.62
390.362	585.13
390.809	531.3
391.256	540.66
391.703	557.05
392.15	589.82
392.596	657.69
393.043	751.31
393.49	1177.29
393.937	2300.75
394.383	3674.64
394.83	4442.34
395.276	3632.51
395.723	3494.42
396.169	5207.69
396.616	5605.58
397.062	3353.99
397.508	1348.15
397.954	683.44
398.401	500.87
398.847	484.49
399.293	557.05
399.739	543
400.185	641.31
400.631	517.26
401.076	479.81
401.522	475.13
401.968	449.38
402.414	489.17
402.859	552.37
403.305	636.63
403.75	695.14
404.196	711.52
404.641	697.48
405.086	543
405.532	702.16
405.977	683.44
406.422	748.97
406.867	662.37
407.312	575.77
407.757	664.71
408.202	543
408.647	552.37
409.092	451.72
409.537	582.79
409.982	500.87
410.426	514.92
410.871	594.5
411.316	613.22
411.76	585.13
412.205	596.84
412.649	496.19
413.093	634.29
413.538	653.01
413.982	737.27
414.426	695.14
414.87	772.38
415.314	821.53
415.758	1022.81
416.202	933.87
416.646	767.7
417.09	732.59
417.534	765.36
417.978	748.97
418.421	648.33
418.865	557.05
419.309	538.32
419.752	526.62
420.196	547.69
420.639	524.28
421.083	493.85
421.526	517.26
421.969	482.15
422.412	554.71
422.856	594.5
423.299	578.11
423.742	543
424.185	582.79
424.628	585.13
425.071	559.39
425.513	475.13
425.956	482.15
426.399	468.11
426.842	475.13
427.284	437.68
427.727	503.22
428.169	465.77
428.612	416.62
429.054	404.91
429.497	465.77
429.939	493.85
430.381	451.72
430.823	461.09
431.265	486.83
431.707	498.53
432.149	414.27
432.591	411.93
433.033	416.62
433.475	510.24
433.917	514.92
434.359	397.89
434.8	524.28
435.242	592.16
435.684	568.75
436.125	430.66
436.567	475.13
437.008	444.7
437.449	402.57
437.891	465.77
438.332	482.15
438.773	414.27
439.214	475.13
439.656	538.32
440.097	465.77
440.538	554.71
440.978	496.19
441.419	456.4
441.86	568.75
442.301	493.85
442.742	571.09
443.182	608.54
443.623	493.85
444.063	484.49
444.504	526.62
444.944	603.86
445.385	734.93
445.825	699.82
446.265	723.23
446.706	931.53
447.146	999.41
447.586	1205.38
448.026	1542.41
448.466	1680.5
448.906	1467.52
449.346	1196.01
449.786	891.74
450.225	947.92
450.665	929.19
451.105	1158.57
451.544	1416.02
451.984	1563.48
452.424	1488.58
452.863	1657.1
453.302	1982.43
453.742	2003.5
454.181	1427.73
454.62	922.17
455.059	706.84
455.499	564.07
455.938	524.28
456.377	503.22
456.816	456.4
457.254	535.98
457.693	463.43
458.132	510.24
458.571	456.4
459.01	456.4
459.448	468.11
459.887	479.81
460.325	517.26
460.764	442.36
461.202	550.03
461.641	472.79
462.079	449.38
462.517	547.69
462.955	589.82
463.393	606.2
463.832	564.07
464.27	594.5
464.708	629.6
465.145	608.54
465.583	554.71
466.021	650.67
466.459	732.59
466.897	959.62
467.334	828.55
467.772	585.13
468.209	526.62
468.647	547.69
469.084	517.26
469.522	461.09
469.959	461.09
470.396	435.34
470.833	517.26
471.271	524.28
471.708	416.62
472.145	472.79
472.582	470.45
473.019	449.38
473.456	524.28
473.892	395.55
474.329	423.64
474.766	407.25
475.202	468.11
475.639	486.83
476.076	416.62
476.512	477.47
476.949	437.68
477.385	486.83
477.821	449.38
478.258	428.32
478.694	421.3
479.13	475.13
479.566	486.83
480.002	430.66
480.438	484.49
480.874	510.24
481.31	465.77
481.746	486.83
482.181	482.15
482.617	414.27
483.053	461.09
483.488	456.4
483.924	454.06
484.36	470.45
484.795	557.05
485.23	594.5
485.666	634.29
486.101	568.75
486.536	655.35
486.971	629.6
487.407	578.11
487.842	634.29
488.277	596.84
488.712	543
489.146	552.37
489.581	465.77
490.016	540.66
490.451	517.26
490.885	505.56
491.32	561.73
491.755	447.04
492.189	507.9
492.624	510.24
493.058	500.87
493.492	477.47
493.927	503.22
494.361	482.15
494.795	475.13
495.229	461.09
495.663	472.79
496.097	545.34
496.531	451.72
496.965	418.96
497.399	440.02
497.833	489.17
498.266	477.47
498.7	458.74
499.134	503.22
499.567	543
500.001	706.84
500.434	861.32
500.868	898.77
501.301	929.19
501.734	781.74
502.168	620.24
502.601	500.87
503.034	575.77
503.467	519.6
503.9	559.39
504.333	524.28
504.766	507.9
505.199	550.03
505.632	470.45
506.064	465.77
506.497	472.79
506.93	500.87
507.362	447.04
507.795	543
508.227	493.85
508.66	489.17
509.092	521.94
509.524	479.81
509.956	505.56
510.389	409.59
510.821	505.56
511.253	526.62
511.685	538.32
512.117	552.37
512.549	465.77
512.981	514.92
513.412	622.58
513.844	498.53
514.276	524.28
514.707	521.94
515.139	575.77
515.571	601.52
516.002	650.67
516.433	627.26
516.865	634.29
517.296	667.05
517.727	660.03
518.159	676.41
518.59	683.44
519.021	685.78
519.452	603.86
519.883	596.84
520.314	622.58
520.744	519.6
521.175	575.77
521.606	540.66
522.037	554.71
522.467	601.52
522.898	554.71
523.328	582.79
523.759	531.3
524.189	500.87
524.62	514.92
525.05	557.05
525.48	538.32
525.91	573.43
526.341	535.98
526.771	627.26
527.201	732.59
527.631	779.4
528.061	706.84
528.49	842.59
528.92	917.49
529.35	1235.8
529.78	2715.02
530.209	12945.5
530.639	31030.82
531.068	48041.84
531.498	63028.29
531.927	63028.29
532.357	63028.29
532.786	63028.29
533.215	63028.29
533.644	33394.76
534.074	11969.5
534.503	4975.98
534.932	2319.47
535.361	1493.26
535.79	1039.2
536.218	788.76
536.647	737.27
537.076	624.92
537.505	601.52
537.933	603.86
538.362	566.41
538.79	535.98
539.219	456.4
539.647	496.19
540.076	433
540.504	535.98
540.932	496.19
541.36	386.19
541.788	486.83
542.217	571.09
542.645	454.06
543.073	463.43
543.5	454.06
543.928	468.11
544.356	449.38
544.784	475.13
545.211	442.36
545.639	535.98
546.067	425.98
546.494	421.3
546.922	531.3
547.349	454.06
547.776	435.34
548.204	418.96
548.631	425.98
549.058	461.09
549.485	428.32
549.912	442.36
550.339	484.49
550.766	372.15
551.193	435.34
551.62	493.85
552.047	393.21
552.474	404.91
552.9	404.91
553.327	404.91
553.754	414.27
554.18	388.53
554.607	482.15
555.033	454.06
555.459	444.7
555.886	454.06
556.312	470.45
556.738	465.77
557.164	442.36
557.59	418.96
558.016	418.96
558.442	496.19
558.868	409.59
559.294	552.37
559.72	610.88
560.145	784.08
560.571	627.26
560.997	512.58
561.422	486.83
561.848	402.57
562.273	433
562.699	379.17
563.124	381.51
563.549	458.74
563.974	393.21
564.4	383.85
564.825	400.23
565.25	409.59
565.675	421.3
566.1	500.87
566.525	440.02
566.95	507.9
567.374	559.39
567.799	575.77
568.224	606.2
568.648	739.61
569.073	725.57
569.497	868.34
569.922	1233.46
570.346	1621.99
570.771	1469.86
571.195	990.05
571.619	723.23
572.043	685.78
572.467	777.06
572.891	950.26
573.315	957.28
573.739	730.25
574.163	458.74
574.587	440.02
575.011	437.68
575.435	416.62
575.858	421.3
576.282	369.8
576.705	444.7
577.129	404.91
577.552	320.65
577.976	355.76
578.399	400.23
578.822	418.96
579.245	440.02
579.669	346.4
580.092	393.21
580.515	353.42
580.938	447.04
581.361	444.7
581.784	411.93
582.206	337.04
582.629	390.87
583.052	362.78
583.474	358.1
583.897	416.62
584.32	421.3
584.742	433
585.165	428.32
585.587	407.25
586.009	334.7
586.431	407.25
586.854	430.66
587.276	330.02
587.698	461.09
588.12	386.19
588.542	372.15
588.964	430.66
589.386	346.4
589.807	374.49
590.229	430.66
590.651	414.27
591.073	346.4
591.494	374.49
591.916	407.25
592.337	430.66
592.759	397.89
593.18	397.89
593.601	346.4
594.022	381.51
594.444	397.89
594.865	395.55
595.286	451.72
595.707	351.08
596.128	433
596.549	376.83
596.97	393.21
597.39	397.89
597.811	348.74
598.232	369.8
598.652	341.72
599.073	355.76
599.494	418.96
599.914	397.89
600.334	409.59
600.755	362.78
601.175	346.4
601.595	297.25
602.015	358.1
602.436	381.51
602.856	512.58
603.276	341.72
603.696	344.06
604.115	360.44
604.535	358.1
604.955	381.51
605.375	428.32
605.794	400.23
606.214	358.1
606.634	383.85
607.053	372.15
607.473	404.91
607.892	418.96
608.311	360.44
608.731	379.17
609.15	409.59
609.569	421.3
609.988	325.33
610.407	386.19
610.826	418.96
611.245	433
611.664	346.4
612.083	362.78
612.501	402.57
612.92	484.49
613.339	351.08
613.757	365.12
614.176	437.68
614.594	397.89
615.013	442.36
615.431	367.46
615.85	440.02
616.268	409.59
616.686	456.4
617.104	393.21
617.522	425.98
617.94	402.57
618.358	447.04
618.776	442.36
619.194	472.79
619.612	367.46
620.03	402.57
620.447	386.19
620.865	369.8
621.282	428.32
621.7	472.79
622.117	421.3
622.535	444.7
622.952	540.66
623.369	643.65
623.787	821.53
624.204	922.17
624.621	919.83
625.038	901.11
625.455	976
625.872	667.05
626.289	596.84
626.706	463.43
627.123	393.21
627.539	402.57
627.956	402.57
628.373	442.36
628.789	358.1
629.206	388.53
629.622	402.57
630.038	393.21
630.455	374.49
630.871	383.85
631.287	433
631.703	416.62
632.12	416.62
632.536	365.12
632.952	322.99
633.368	379.17
633.783	376.83
634.199	414.27
634.615	299.59
635.031	381.51
635.446	358.1
635.862	299.59
636.277	416.62
636.693	374.49
637.108	367.46
637.524	360.44
637.939	369.8
638.354	348.74
638.77	351.08
639.185	407.25
639.6	423.64
640.015	409.59
640.43	322.99
640.845	301.93
641.259	339.38
641.674	360.44
642.089	362.78
642.504	306.61
642.918	369.8
643.333	337.04
643.747	358.1
644.162	348.74
644.576	400.23
644.991	334.7
645.405	351.08
645.819	322.99
646.233	341.72
646.647	325.33
647.061	395.55
647.475	344.06
647.889	334.7
648.303	390.87
648.717	372.15
649.131	369.8
649.545	344.06
649.958	372.15
650.372	395.55
650.785	362.78
651.199	367.46
651.612	292.57
652.026	353.42
652.439	327.68
652.852	339.38
653.266	337.04
653.679	355.76
654.092	404.91
654.505	430.66
654.918	397.89
655.331	407.25
655.744	547.69
656.156	608.54
656.569	734.93
656.982	952.6
657.394	947.92
657.807	643.65
658.22	557.05
658.632	400.23
659.044	381.51
659.457	374.49
659.869	390.87
660.281	330.02
660.693	372.15
661.106	344.06
661.518	369.8
661.93	381.51
662.342	346.4
662.754	418.96
663.165	362.78
663.577	372.15
663.989	386.19
664.401	346.4
664.812	311.29
665.224	320.65
665.635	372.15
666.047	341.72
666.458	341.72
666.869	360.44
667.281	444.7
667.692	433
668.103	372.15
668.514	283.2
668.925	353.42
669.336	376.83
669.747	308.95
670.158	362.78
670.569	374.49
670.979	334.7
671.39	346.4
671.801	388.53
672.211	334.7
672.622	327.68
673.032	358.1
673.443	318.31
673.853	376.83
674.263	334.7
674.674	355.76
675.084	365.12
675.494	374.49
675.904	360.44
676.314	315.97
676.724	290.23
677.134	285.55
677.544	337.04
677.953	320.65
678.363	292.57
678.773	322.99
679.182	334.7
679.592	322.99
680.001	355.76
680.411	365.12
680.82	376.83
681.23	362.78
681.639	315.97
682.048	374.49
682.457	365.12
682.866	369.8
683.275	339.38
683.684	372.15
684.093	369.8
684.502	402.57
684.911	358.1
685.32	355.76
685.728	325.33
686.137	334.7
686.546	449.38
686.954	360.44
687.363	346.4
687.771	358.1
688.179	358.1
688.588	374.49
688.996	320.65
689.404	365.12
689.812	365.12
690.22	271.5
690.628	318.31
691.036	332.36
691.444	308.95
691.852	257.46
692.26	322.99
692.667	327.68
693.075	315.97
693.483	341.72
693.89	376.83
694.298	367.46
694.705	355.76
695.112	348.74
695.52	372.15
695.927	360.44
696.334	337.04
696.741	332.36
697.148	337.04
697.555	315.97
697.962	278.52
698.369	294.91
698.776	306.61
699.183	322.99
699.59	306.61
699.996	292.57
700.403	353.42
700.81	311.29
701.216	306.61
701.623	334.7
702.029	313.63
702.435	306.61
702.842	322.99
703.248	330.02
703.654	404.91
704.06	437.68
704.466	517.26
704.872	629.6
705.278	472.79
705.684	444.7
706.09	507.9
706.496	589.82
706.901	435.34
707.307	461.09
707.712	428.32
708.118	379.17
708.523	332.36
708.929	330.02
709.334	313.63
709.74	320.65
710.145	301.93
710.55	390.87
710.955	327.68
711.36	306.61
711.765	341.72
712.17	337.04
712.575	330.02
712.98	828.55
713.385	400.23
713.789	250.44
714.194	304.27
714.599	402.57
715.003	334.7
715.408	273.84
715.812	344.06
716.217	353.42
716.621	327.68
717.025	372.15
717.429	411.93
717.833	273.84
718.238	269.16
718.642	337.04
719.046	278.52
719.449	313.63
719.853	294.91
720.257	339.38
720.661	388.53
721.065	381.51
721.468	292.57
721.872	344.06
722.275	234.05
722.679	292.57
723.082	334.7
723.485	355.76
723.889	400.23
724.292	346.4
724.695	290.23
725.098	325.33
725.501	266.82
725.904	325.33
726.307	355.76
726.71	276.18
727.113	297.25
727.516	259.8
727.918	358.1
728.321	313.63
728.724	348.74
729.126	339.38
729.529	306.61
729.931	332.36
730.333	287.89
730.736	351.08
731.138	355.76
731.54	306.61
731.942	278.52
732.344	278.52
732.746	330.02
733.148	299.59
733.55	306.61
733.952	269.16
734.354	395.55
734.756	308.95
735.157	327.68
735.559	334.7
735.96	372.15
736.362	402.57
736.763	337.04
737.165	304.27
737.566	320.65
737.967	325.33
738.368	304.27
738.77	346.4
739.171	339.38
739.572	257.46
739.973	292.57
740.374	325.33
740.774	369.8
741.175	346.4
741.576	358.1
741.977	318.31
742.377	362.78
742.778	301.93
743.178	332.36
743.579	365.12
743.979	337.04
744.379	283.2
744.78	374.49
745.18	306.61
745.58	337.04
745.98	379.17
746.38	351.08
746.78	365.12
747.18	428.32
747.58	341.72
747.98	367.46
748.38	381.51
748.779	332.36
749.179	283.2
749.578	325.33
749.978	322.99
750.377	301.93
750.777	339.38
751.176	280.86
751.575	278.52
751.975	320.65
752.374	290.23
752.773	248.1
753.172	280.86
753.571	372.15
753.97	318.31
754.369	266.82
754.768	339.38
755.166	285.55
755.565	400.23
755.964	322.99
756.362	362.78
756.761	444.7
757.159	334.7
757.558	344.06
757.956	372.15
758.354	334.7
758.753	315.97
759.151	325.33
759.549	320.65
759.947	311.29
760.345	348.74
760.743	297.25
761.141	344.06
761.539	351.08
761.936	313.63
762.334	299.59
762.732	283.2
763.129	339.38
763.527	358.1
763.924	283.2
764.322	304.27
764.719	299.59
765.117	266.82
765.514	322.99
765.911	276.18
766.308	306.61
766.705	341.72
767.102	325.33
767.499	278.52
767.896	269.16
768.293	348.74
768.69	330.02
769.086	301.93
769.483	358.1
769.88	301.93
770.276	355.76
770.673	369.8
771.069	393.21
771.466	308.95
771.862	308.95
772.258	369.8
772.654	297.25
773.05	262.14
773.447	369.8
773.843	318.31
774.239	390.87
774.634	330.02
775.03	285.55
775.426	297.25
775.822	388.53
776.218	278.52
776.613	369.8
777.009	376.83
777.404	404.91
777.8	433
778.195	353.42
778.59	344.06
778.986	332.36
779.381	290.23
779.776	351.08
780.171	315.97
780.566	330.02
780.961	348.74
781.356	374.49
781.751	362.78
782.146	287.89
782.54	290.23
782.935	280.86
783.33	337.04
783.724	339.38
784.119	353.42
784.513	337.04
784.908	379.17
785.302	304.27
785.696	308.95
786.09	339.38
786.485	299.59
786.879	301.93
787.273	330.02
787.667	318.31
788.061	365.12
788.454	304.27
788.848	332.36
789.242	322.99
789.636	346.4
790.029	280.86
790.423	311.29
790.816	301.93
791.21	287.89
791.603	299.59
791.997	421.3
792.39	266.82
792.783	337.04
793.176	428.32
793.569	327.68
793.962	294.91
794.355	334.7
794.748	355.76
795.141	311.29
795.534	332.36
795.927	297.25
796.319	306.61
796.712	285.55
797.105	299.59
797.497	301.93
797.89	367.46
798.282	311.29
798.674	339.38
799.067	280.86
799.459	322.99
799.851	318.31
800.243	285.55
800.635	351.08
801.027	341.72
801.419	400.23
801.811	308.95
802.203	311.29
802.594	348.74
802.986	325.33
803.378	344.06
803.769	280.86
804.161	341.72
804.552	280.86
804.944	283.2
805.335	344.06
805.726	346.4
806.118	292.57
806.509	318.31
806.9	351.08
807.291	334.7
807.682	313.63
808.073	299.59
808.464	285.55
808.855	311.29
809.245	287.89
809.636	301.93
810.027	322.99
810.417	301.93
810.808	308.95
811.198	339.38
811.589	308.95
811.979	404.91
812.369	313.63
812.759	294.91
813.15	271.5
813.54	313.63
813.93	341.72
814.32	297.25
814.71	315.97
815.1	355.76
815.489	376.83
815.879	311.29
816.269	292.57
816.658	292.57
817.048	332.36
817.438	299.59
817.827	299.59
818.216	337.04
818.606	308.95
818.995	292.57
819.384	369.8
819.773	280.86
820.163	332.36
820.552	360.44
820.941	346.4
821.33	386.19
821.718	341.72
822.107	325.33
822.496	381.51
822.885	299.59
823.273	313.63
823.662	301.93
824.05	348.74
824.439	311.29
824.827	294.91
825.216	315.97
825.604	374.49
825.992	304.27
826.38	304.27
826.768	339.38
827.156	315.97
827.544	294.91
827.932	311.29
828.32	297.25
828.708	383.85
829.096	297.25
829.483	297.25
829.871	308.95
830.259	353.42
830.646	346.4
831.034	283.2
831.421	273.84
831.808	257.46
832.196	273.84
832.583	332.36
832.97	327.68
833.357	299.59
833.744	292.57
834.131	285.55
834.518	278.52
834.905	341.72
835.292	369.8
835.678	332.36
836.065	325.33
836.452	362.78
836.838	287.89
837.225	311.29
837.611	348.74
837.998	362.78
838.384	325.33
838.77	372.15
839.157	290.23
839.543	360.44
839.929	301.93
840.315	358.1
840.701	306.61
841.087	318.31
841.473	236.39
841.858	388.53
842.244	402.57
842.63	320.65
843.015	318.31
843.401	411.93
843.787	390.87
844.172	379.17
844.557	322.99
844.943	294.91
845.328	341.72
845.713	348.74
846.098	311.29
846.483	334.7
846.868	339.38
847.253	311.29
847.638	318.31
848.023	304.27
848.408	330.02
848.793	313.63
849.177	360.44
849.562	341.72
849.947	231.71
850.331	360.44
850.715	325.33
851.1	269.16
851.484	330.02
851.868	362.78
852.253	311.29
852.637	320.65
853.021	320.65
853.405	248.1
853.789	315.97
854.173	318.31
854.557	234.05
854.94	276.18
855.324	353.42
855.708	344.06
856.091	290.23
856.475	327.68
856.858	306.61
857.242	348.74
857.625	241.08
858.009	308.95
858.392	313.63
858.775	241.08
859.158	379.17
859.541	287.89
859.924	318.31
860.307	306.61
860.69	339.38
861.073	344.06
861.456	301.93
861.838	308.95
862.221	339.38
862.604	304.27
862.986	358.1
863.369	351.08
863.751	280.86
864.133	346.4
864.516	273.84
864.898	383.85
865.28	250.44
865.662	341.72
866.044	346.4
866.426	271.5
866.808	318.31
867.19	325.33
867.572	301.93
867.954	332.36
868.336	299.59
868.717	304.27
869.099	320.65
869.48	299.59
869.862	367.46
870.243	322.99
870.625	367.46
871.006	280.86
871.387	304.27
871.768	337.04
872.149	283.2
872.53	294.91
872.911	271.5
873.292	315.97
873.673	280.86
874.054	308.95
874.435	315.97
874.815	252.78
875.196	264.48
875.577	346.4
875.957	351.08
876.338	358.1
876.718	308.95
877.098	346.4
877.479	318.31
877.859	287.89
878.239	280.86
878.619	234.05
878.999	351.08
879.379	332.36
879.759	241.08
880.139	341.72
880.519	341.72
880.898	269.16
881.278	297.25
881.658	320.65
882.037	339.38
882.417	344.06
882.796	344.06
883.176	278.52
883.555	313.63
883.934	346.4
884.313	283.2
884.693	334.7
885.072	372.15
885.451	330.02
885.83	238.73
886.209	308.95
886.587	325.33
886.966	278.52
887.345	313.63
887.724	311.29
888.102	280.86
888.481	409.59
888.859	315.97
889.238	297.25
889.616	313.63
889.994	262.14
890.373	311.29
890.751	306.61
891.129	301.93
891.507	292.57
891.885	294.91
892.263	280.86
892.641	348.74
893.019	341.72
893.396	327.68
893.774	353.42
894.152	285.55
894.529	308.95
894.907	301.93
895.284	285.55
895.662	292.57
896.039	339.38
896.416	271.5
896.794	313.63
897.171	301.93
897.548	318.31
897.925	322.99
898.302	337.04
898.679	292.57
899.056	304.27
899.433	322.99
899.809	325.33
900.186	313.63
900.563	313.63
900.939	287.89
901.316	306.61
901.692	315.97
902.069	358.1
902.445	278.52
902.821	334.7
903.197	301.93
903.574	250.44
903.95	304.27
904.326	362.78
904.702	395.55
905.078	318.31
905.454	381.51
905.829	334.7
906.205	344.06
906.581	322.99
906.956	332.36
907.332	306.61
907.707	367.46
908.083	339.38
908.458	315.97
908.833	334.7
909.209	287.89
909.584	285.55
909.959	313.63
910.334	348.74
910.709	278.52
911.084	297.25
911.459	306.61
911.834	353.42
912.209	351.08
912.583	283.2
912.958	320.65
913.333	264.48
913.707	241.08
914.082	273.84
914.456	346.4
914.83	322.99
915.205	285.55
915.579	315.97
915.953	318.31
916.327	299.59
916.701	400.23
917.075	330.02
917.449	292.57
917.823	248.1
918.197	276.18
918.571	292.57
918.944	313.63
919.318	304.27
919.692	358.1
920.065	269.16
920.438	285.55
920.812	255.12
921.185	292.57
921.558	355.76
921.932	367.46
922.305	269.16
922.678	266.82
923.051	294.91
923.424	299.59
923.797	280.86
924.17	283.2
924.542	311.29
924.915	325.33
925.288	304.27
925.661	285.55
926.033	369.8
926.406	252.78
926.778	306.61
927.15	381.51
927.523	278.52
927.895	315.97
928.267	257.46
928.639	315.97
929.011	297.25
929.383	245.76
929.755	301.93
930.127	344.06
930.499	311.29
930.871	264.48
931.242	355.76
931.614	299.59
931.986	273.84
932.357	355.76
932.729	266.82
933.1	365.12
933.471	337.04
933.843	365.12
934.214	294.91
934.585	264.48
934.956	285.55
935.327	360.44
935.698	327.68
936.069	259.8
936.44	313.63
936.811	297.25
937.182	287.89
937.552	308.95
937.923	348.74
938.293	344.06
938.664	259.8
939.034	325.33
939.405	365.12
939.775	322.99
940.145	325.33
940.516	334.7
940.886	348.74
941.256	304.27
941.626	315.97
941.996	339.38
942.366	236.39
942.735	313.63
943.105	311.29
943.475	315.97
943.845	332.36
944.214	341.72
944.584	269.16
944.953	346.4
945.323	269.16
945.692	292.57
946.061	339.38
946.43	297.25
946.8	308.95
947.169	301.93
947.538	299.59
947.907	285.55
948.276	269.16
948.645	327.68
949.013	346.4
949.382	313.63
949.751	334.7
950.119	306.61
950.488	280.86
950.857	332.36
951.225	315.97
951.593	283.2
951.962	353.42
952.33	299.59
952.698	315.97
953.066	358.1
953.434	285.55
953.802	311.29
954.17	304.27
954.538	334.7
954.906	332.36
955.274	278.52
955.642	252.78
956.009	339.38
956.377	264.48
956.744	306.61
957.112	348.74
957.479	322.99
957.847	280.86
958.214	337.04
958.581	311.29
958.948	276.18
959.315	306.61
959.683	285.55
960.05	304.27
960.416	318.31
960.783	236.39
961.15	283.2
961.517	273.84
961.884	301.93
962.25	327.68
962.617	425.98
962.983	280.86
963.35	351.08
963.716	299.59
964.082	337.04
964.449	292.57
964.815	346.4
965.181	297.25
965.547	346.4
965.913	327.68
966.279	322.99
966.645	355.76
967.011	367.46
967.377	337.04
967.742	290.23
968.108	325.33
968.474	290.23
968.839	308.95
969.205	346.4
969.57	276.18
969.935	241.08
970.301	332.36
970.666	308.95
971.031	351.08
971.396	283.2
971.761	273.84
972.126	353.42
972.491	299.59
972.856	315.97
973.221	337.04
973.586	304.27
973.95	297.25
974.315	266.82
974.679	353.42
975.044	266.82
975.408	311.29
975.773	287.89
976.137	311.29
976.501	315.97
976.866	334.7
977.23	337.04
977.594	245.76
977.958	299.59
978.322	320.65
978.686	330.02
979.049	304.27
979.413	299.59
979.777	285.55
980.141	304.27
980.504	313.63
980.868	311.29
981.231	318.31
981.595	264.48
981.958	325.33
982.321	348.74
982.684	332.36
983.048	351.08
983.411	262.14
983.774	315.97
984.137	243.42
984.5	292.57
984.862	297.25
985.225	322.99
985.588	330.02
985.951	318.31
986.313	294.91
986.676	315.97
987.038	330.02
987.401	304.27
987.763	337.04
988.125	306.61
988.488	292.57
988.85	280.86
989.212	320.65
989.574	337.04
989.936	273.84
990.298	313.63
990.66	271.5
991.022	313.63
991.383	360.44
991.745	294.91
992.107	339.38
992.468	304.27
992.83	297.25
993.191	320.65
993.553	334.7
993.914	365.12
994.275	287.89
994.637	330.02
994.998	351.08
995.359	241.08
995.72	308.95
996.081	292.57
996.442	280.86
996.803	334.7
997.163	273.84
997.524	313.63
997.885	341.72
998.245	318.31
998.606	297.25
998.966	308.95
999.327	315.97
999.687	264.48
1000.047	327.68
1000.408	334.7
1000.768	322.99
1001.128	306.61
1001.488	304.27
1001.848	374.49
1002.208	320.65
1002.568	320.65
1002.927	292.57
1003.287	353.42
1003.647	304.27
1004.007	252.78
1004.366	299.59
1004.726	290.23
1005.085	334.7
1005.444	358.1
1005.804	294.91
1006.163	341.72
1006.522	322.99
1006.881	339.38
1007.24	346.4
1007.599	264.48
1007.958	315.97
1008.317	203.63
1008.676	299.59
1009.035	318.31
1009.393	266.82
1009.752	264.48
1010.111	330.02
1010.469	308.95
1010.828	304.27
1011.186	255.12
1011.544	337.04
1011.903	238.73
1012.261	374.49
1012.619	320.65
1012.977	290.23
1013.335	322.99
1013.693	311.29
1014.051	276.18
1014.409	337.04
1014.767	318.31
1015.124	283.2
1015.482	252.78
1015.84	301.93
1016.197	299.59
1016.555	313.63
1016.912	262.14
1017.269	322.99
1017.627	360.44
1017.984	304.27
1018.341	358.1
1018.698	280.86
1019.055	297.25
1019.412	297.25
1019.769	287.89
1020.126	322.99
1020.483	416.62
1020.84	320.65
1021.196	301.93
1021.553	287.89
1021.909	301.93
1022.266	283.2
1022.622	276.18
1022.979	308.95
1023.335	297.25
1023.691	341.72
1024.047	238.73
1024.404	292.57
1024.76	266.82
1025.116	320.65
1025.472	297.25
1025.827	311.29
1026.183	318.31
1026.539	273.84
1026.895	285.55
1027.25	339.38
1027.606	280.86
1027.961	285.55
1028.317	266.82
1028.672	320.65
1029.028	262.14
1029.383	294.91
1029.738	306.61
1030.093	259.8
1030.448	313.63
1030.803	210.65
1031.158	301.93
1031.513	353.42
1031.868	273.84
1032.223	273.84
1032.577	306.61
1032.932	252.78
1033.287	292.57
1033.641	252.78
1033.996	304.27
1034.35	339.38
1034.704	299.59
1035.059	276.18
1035.413	360.44
1035.767	360.44
1036.121	360.44
