Data from Al_FLMS009871__1035__16-23-59-415.txt Node

Date: Fri Mar 08 16:23:59 CST 2024
User: pe5414po
Spectrometer: FLMS00987
Trigger mode: 0
Integration Time (sec): 1.000000E-1
Scans to average: 1
Electric dark correction enabled: true
Nonlinearity correction enabled: false
Boxcar width: 0
XAxis mode: Wavelengths
Number of Pixels in Spectrum: 2048
>>>>>Begin Spectral Data<<<<<
188.938	-40.52
189.409	-40.52
189.879	-40.52
190.349	-134.14
190.819	-129.46
191.29	-87.33
191.76	-40.52
192.23	-120.1
192.7	-87.33
193.17	-42.86
193.64	-26.48
194.109	-77.97
194.579	-33.5
195.049	1.61
195.519	-19.46
195.988	78.85
196.458	95.23
196.927	22.67
197.397	64.8
197.866	99.91
198.336	172.47
198.805	191.19
199.274	102.25
199.744	170.13
200.213	254.39
200.682	266.09
201.151	214.6
201.62	263.75
202.089	266.09
202.558	247.37
203.027	294.18
203.495	268.43
203.964	275.45
204.433	284.81
204.902	284.81
205.37	312.9
205.839	254.39
206.307	350.35
206.776	331.62
207.244	252.05
207.712	326.94
208.181	298.86
208.649	294.18
209.117	261.41
209.585	310.56
210.053	291.84
210.521	310.56
210.989	270.77
211.457	202.9
211.925	322.26
212.393	294.18
212.861	261.41
213.328	263.75
213.796	287.15
214.264	256.73
214.731	209.92
215.199	230.98
215.666	238
216.133	235.66
216.601	256.73
217.068	284.81
217.535	202.9
218.003	261.41
218.47	223.96
218.937	270.77
219.404	238
219.871	212.26
220.338	273.11
220.805	287.15
221.271	277.79
221.738	252.05
222.205	235.66
222.671	214.6
223.138	329.28
223.605	263.75
224.071	249.71
224.538	233.32
225.004	245.02
225.47	294.18
225.937	294.18
226.403	226.3
226.869	277.79
227.335	275.45
227.801	270.77
228.267	242.68
228.733	298.86
229.199	226.3
229.665	270.77
230.131	291.84
230.597	249.71
231.062	268.43
231.528	247.37
231.994	287.15
232.459	252.05
232.925	245.02
233.39	240.34
233.856	275.45
234.321	245.02
234.786	240.34
235.252	228.64
235.717	277.79
236.182	242.68
236.647	294.18
237.112	268.43
237.577	322.26
238.042	277.79
238.507	273.11
238.972	261.41
239.436	315.24
239.901	275.45
240.366	287.15
240.83	270.77
241.295	254.39
241.76	357.37
242.224	247.37
242.688	254.39
243.153	273.11
243.617	247.37
244.081	261.41
244.545	294.18
245.01	238
245.474	275.45
245.938	252.05
246.402	254.39
246.866	312.9
247.33	284.81
247.793	298.86
248.257	249.71
248.721	289.5
249.185	298.86
249.648	303.54
250.112	301.2
250.575	254.39
251.039	254.39
251.502	291.84
251.965	261.41
252.429	252.05
252.892	275.45
253.355	322.26
253.818	266.09
254.281	305.88
254.744	273.11
255.207	209.92
255.67	252.05
256.133	261.41
256.596	310.56
257.059	256.73
257.522	289.5
257.984	333.97
258.447	240.34
258.909	252.05
259.372	294.18
259.834	287.15
260.297	268.43
260.759	296.52
261.221	216.94
261.684	238
262.146	240.34
262.608	333.97
263.07	263.75
263.532	270.77
263.994	252.05
264.456	259.07
264.918	348.01
265.38	303.54
265.842	216.94
266.303	277.79
266.765	301.2
267.227	289.5
267.688	247.37
268.15	223.96
268.611	259.07
269.072	303.54
269.534	296.52
269.995	266.09
270.456	301.2
270.918	296.52
271.379	317.58
271.84	259.07
272.301	275.45
272.762	252.05
273.223	301.2
273.684	282.47
274.144	291.84
274.605	280.13
275.066	277.79
275.527	261.41
275.987	280.13
276.448	289.5
276.908	282.47
277.369	333.97
277.829	296.52
278.289	212.26
278.75	319.92
279.21	284.81
279.67	338.65
280.13	259.07
280.59	273.11
281.05	322.26
281.51	167.79
281.97	298.86
282.43	324.6
282.89	284.81
283.35	289.5
283.809	254.39
284.269	333.97
284.729	333.97
285.188	233.32
285.648	324.6
286.107	312.9
286.567	348.01
287.026	296.52
287.485	235.66
287.944	301.2
288.404	308.22
288.863	289.5
289.322	333.97
289.781	298.86
290.24	270.77
290.699	301.2
291.158	301.2
291.616	291.84
292.075	296.52
292.534	333.97
292.992	345.67
293.451	275.45
293.91	242.68
294.368	287.15
294.827	254.39
295.285	315.24
295.743	312.9
296.202	287.15
296.66	249.71
297.118	238
297.576	348.01
298.034	312.9
298.492	319.92
298.95	315.24
299.408	298.86
299.866	284.81
300.324	275.45
300.781	326.94
301.239	221.62
301.697	287.15
302.154	289.5
302.612	289.5
303.069	230.98
303.527	249.71
303.984	291.84
304.441	235.66
304.899	273.11
305.356	291.84
305.813	202.9
306.27	280.13
306.727	275.45
307.184	284.81
307.641	289.5
308.098	277.79
308.555	301.2
309.012	308.22
309.468	289.5
309.925	245.02
310.382	333.97
310.838	284.81
311.295	315.24
311.751	202.9
312.208	331.62
312.664	263.75
313.12	312.9
313.577	338.65
314.033	315.24
314.489	308.22
314.945	261.41
315.401	350.35
315.857	289.5
316.313	315.24
316.769	263.75
317.225	277.79
317.681	312.9
318.136	305.88
318.592	329.28
319.048	340.99
319.503	329.28
319.959	340.99
320.414	338.65
320.869	336.31
321.325	289.5
321.78	322.26
322.235	312.9
322.691	252.05
323.146	324.6
323.601	263.75
324.056	308.22
324.511	261.41
324.966	362.05
325.421	287.15
325.875	266.09
326.33	319.92
326.785	310.56
327.24	310.56
327.694	315.24
328.149	326.94
328.603	298.86
329.058	266.09
329.512	233.32
329.966	263.75
330.421	282.47
330.875	259.07
331.329	298.86
331.783	301.2
332.237	326.94
332.691	266.09
333.145	315.24
333.599	291.84
334.053	256.73
334.507	273.11
334.96	317.58
335.414	319.92
335.868	355.03
336.321	345.67
336.775	242.68
337.228	282.47
337.682	298.86
338.135	287.15
338.588	249.71
339.042	333.97
339.495	303.54
339.948	296.52
340.401	291.84
340.854	310.56
341.307	324.6
341.76	340.99
342.213	310.56
342.666	326.94
343.119	252.05
343.571	296.52
344.024	238
344.477	280.13
344.929	315.24
345.382	263.75
345.834	305.88
346.287	331.62
346.739	324.6
347.191	287.15
347.644	266.09
348.096	319.92
348.548	242.68
349	319.92
349.452	371.41
349.904	350.35
350.356	317.58
350.808	310.56
351.26	247.37
351.711	301.2
352.163	303.54
352.615	273.11
353.066	280.13
353.518	317.58
353.969	298.86
354.421	331.62
354.872	322.26
355.324	273.11
355.775	263.75
356.226	268.43
356.677	317.58
357.128	312.9
357.579	303.54
358.03	317.58
358.481	254.39
358.932	282.47
359.383	308.22
359.834	355.03
360.285	277.79
360.735	317.58
361.186	312.9
361.637	240.34
362.087	319.92
362.538	376.09
362.988	362.05
363.438	326.94
363.889	305.88
364.339	326.94
364.789	308.22
365.239	315.24
365.689	245.02
366.139	390.14
366.589	333.97
367.039	282.47
367.489	221.62
367.939	266.09
368.389	273.11
368.839	348.01
369.288	322.26
369.738	305.88
370.187	298.86
370.637	312.9
371.086	270.77
371.536	256.73
371.985	230.98
372.434	282.47
372.884	284.81
373.333	305.88
373.782	298.86
374.231	301.2
374.68	350.35
375.129	266.09
375.578	287.15
376.027	348.01
376.475	312.9
376.924	322.26
377.373	312.9
377.822	333.97
378.27	284.81
378.719	252.05
379.167	303.54
379.616	308.22
380.064	296.52
380.512	359.71
380.961	310.56
381.409	298.86
381.857	287.15
382.305	362.05
382.753	322.26
383.201	247.37
383.649	259.07
384.097	301.2
384.545	259.07
384.992	308.22
385.44	336.31
385.888	263.75
386.335	322.26
386.783	249.71
387.231	348.01
387.678	296.52
388.125	312.9
388.573	308.22
389.02	296.52
389.467	298.86
389.914	207.58
390.362	322.26
390.809	296.52
391.256	273.11
391.703	277.79
392.15	270.77
392.596	298.86
393.043	324.6
393.49	284.81
393.937	301.2
394.383	296.52
394.83	310.56
395.276	333.97
395.723	326.94
396.169	280.13
396.616	348.01
397.062	256.73
397.508	287.15
397.954	324.6
398.401	315.24
398.847	340.99
399.293	308.22
399.739	315.24
400.185	343.33
400.631	291.84
401.076	284.81
401.522	277.79
401.968	338.65
402.414	305.88
402.859	303.54
403.305	289.5
403.75	296.52
404.196	378.44
404.641	319.92
405.086	326.94
405.532	310.56
405.977	296.52
406.422	289.5
406.867	364.39
407.312	301.2
407.757	308.22
408.202	277.79
408.647	259.07
409.092	310.56
409.537	275.45
409.982	305.88
410.426	315.24
410.871	333.97
411.316	359.71
411.76	294.18
412.205	287.15
412.649	268.43
413.093	305.88
413.538	303.54
413.982	312.9
414.426	249.71
414.87	282.47
415.314	319.92
415.758	317.58
416.202	322.26
416.646	249.71
417.09	308.22
417.534	322.26
417.978	263.75
418.421	298.86
418.865	333.97
419.309	315.24
419.752	275.45
420.196	317.58
420.639	343.33
421.083	296.52
421.526	296.52
421.969	340.99
422.412	287.15
422.856	333.97
423.299	343.33
423.742	287.15
424.185	303.54
424.628	291.84
425.071	291.84
425.513	348.01
425.956	254.39
426.399	242.68
426.842	303.54
427.284	284.81
427.727	317.58
428.169	312.9
428.612	305.88
429.054	270.77
429.497	280.13
429.939	338.65
430.381	275.45
430.823	259.07
431.265	254.39
431.707	315.24
432.149	303.54
432.591	331.62
433.033	268.43
433.475	303.54
433.917	352.69
434.359	383.12
434.8	364.39
435.242	273.11
435.684	312.9
436.125	305.88
436.567	319.92
437.008	348.01
437.449	397.16
437.891	322.26
438.332	315.24
438.773	350.35
439.214	355.03
439.656	336.31
440.097	298.86
440.538	310.56
440.978	266.09
441.419	352.69
441.86	324.6
442.301	310.56
442.742	284.81
443.182	303.54
443.623	305.88
444.063	338.65
444.504	270.77
444.944	298.86
445.385	326.94
445.825	254.39
446.265	294.18
446.706	319.92
447.146	305.88
447.586	357.37
448.026	317.58
448.466	331.62
448.906	345.67
449.346	291.84
449.786	317.58
450.225	333.97
450.665	252.05
451.105	273.11
451.544	326.94
451.984	291.84
452.424	315.24
452.863	315.24
453.302	280.13
453.742	319.92
454.181	345.67
454.62	319.92
455.059	296.52
455.499	333.97
455.938	345.67
456.377	315.24
456.816	373.75
457.254	301.2
457.693	343.33
458.132	249.71
458.571	287.15
459.01	315.24
459.448	326.94
459.887	301.2
460.325	296.52
460.764	268.43
461.202	273.11
461.641	296.52
462.079	336.31
462.517	245.02
462.955	296.52
463.393	280.13
463.832	310.56
464.27	324.6
464.708	261.41
465.145	245.02
465.583	315.24
466.021	340.99
466.459	310.56
466.897	296.52
467.334	303.54
467.772	273.11
468.209	280.13
468.647	378.44
469.084	338.65
469.522	308.22
469.959	284.81
470.396	245.02
470.833	275.45
471.271	303.54
471.708	301.2
472.145	340.99
472.582	247.37
473.019	247.37
473.456	369.07
473.892	331.62
474.329	331.62
474.766	284.81
475.202	303.54
475.639	317.58
476.076	312.9
476.512	369.07
476.949	322.26
477.385	331.62
477.821	348.01
478.258	312.9
478.694	322.26
479.13	369.07
479.566	303.54
480.002	359.71
480.438	308.22
480.874	312.9
481.31	312.9
481.746	312.9
482.181	331.62
482.617	319.92
483.053	322.26
483.488	284.81
483.924	284.81
484.36	303.54
484.795	303.54
485.23	336.31
485.666	331.62
486.101	331.62
486.536	308.22
486.971	266.09
487.407	301.2
487.842	312.9
488.277	340.99
488.712	376.09
489.146	303.54
489.581	331.62
490.016	364.39
490.451	284.81
490.885	294.18
491.32	355.03
491.755	340.99
492.189	291.84
492.624	322.26
493.058	312.9
493.492	319.92
493.927	266.09
494.361	312.9
494.795	317.58
495.229	312.9
495.663	284.81
496.097	238
496.531	303.54
496.965	329.28
497.399	317.58
497.833	350.35
498.266	331.62
498.7	275.45
499.134	331.62
499.567	418.22
500.001	350.35
500.434	312.9
500.868	303.54
501.301	350.35
501.734	263.75
502.168	336.31
502.601	340.99
503.034	303.54
503.467	284.81
503.9	303.54
504.333	259.07
504.766	322.26
505.199	303.54
505.632	326.94
506.064	303.54
506.497	273.11
506.93	289.5
507.362	378.44
507.795	282.47
508.227	289.5
508.66	340.99
509.092	268.43
509.524	322.26
509.956	312.9
510.389	333.97
510.821	378.44
511.253	254.39
511.685	336.31
512.117	247.37
512.549	282.47
512.981	298.86
513.412	284.81
513.844	343.33
514.276	322.26
514.707	350.35
515.139	338.65
515.571	256.73
516.002	263.75
516.433	378.44
516.865	312.9
517.296	266.09
517.727	312.9
518.159	331.62
518.59	308.22
519.021	261.41
519.452	284.81
519.883	331.62
520.314	322.26
520.744	319.92
521.175	366.73
521.606	294.18
522.037	294.18
522.467	378.44
522.898	340.99
523.328	308.22
523.759	289.5
524.189	266.09
524.62	308.22
525.05	322.26
525.48	348.01
525.91	291.84
526.341	312.9
526.771	291.84
527.201	266.09
527.631	312.9
528.061	298.86
528.49	355.03
528.92	312.9
529.35	308.22
529.78	345.67
530.209	329.28
530.639	310.56
531.068	275.45
531.498	291.84
531.927	357.37
532.357	256.73
532.786	298.86
533.215	289.5
533.644	350.35
534.074	331.62
534.503	336.31
534.932	329.28
535.361	380.78
535.79	331.62
536.218	294.18
536.647	254.39
537.076	294.18
537.505	324.6
537.933	298.86
538.362	284.81
538.79	322.26
539.219	322.26
539.647	310.56
540.076	296.52
540.504	373.75
540.932	340.99
541.36	303.54
541.788	359.71
542.217	352.69
542.645	277.79
543.073	322.26
543.5	326.94
543.928	340.99
544.356	319.92
544.784	240.34
545.211	270.77
545.639	301.2
546.067	298.86
546.494	294.18
546.922	343.33
547.349	324.6
547.776	294.18
548.204	296.52
548.631	289.5
549.058	310.56
549.485	408.86
549.912	336.31
550.339	235.66
550.766	333.97
551.193	298.86
551.62	305.88
552.047	296.52
552.474	331.62
552.9	301.2
553.327	324.6
553.754	357.37
554.18	282.47
554.607	308.22
555.033	378.44
555.459	282.47
555.886	298.86
556.312	326.94
556.738	291.84
557.164	275.45
557.59	322.26
558.016	282.47
558.442	263.75
558.868	294.18
559.294	359.71
559.72	284.81
560.145	312.9
560.571	312.9
560.997	392.48
561.422	266.09
561.848	214.6
562.273	355.03
562.699	322.26
563.124	301.2
563.549	322.26
563.974	348.01
564.4	348.01
564.825	275.45
565.25	359.71
565.675	345.67
566.1	284.81
566.525	298.86
566.95	270.77
567.374	294.18
567.799	319.92
568.224	312.9
568.648	319.92
569.073	366.73
569.497	303.54
569.922	266.09
570.346	326.94
570.771	340.99
571.195	270.77
571.619	256.73
572.043	350.35
572.467	305.88
572.891	383.12
573.315	310.56
573.739	378.44
574.163	303.54
574.587	282.47
575.011	277.79
575.435	322.26
575.858	298.86
576.282	294.18
576.705	350.35
577.129	324.6
577.552	289.5
577.976	319.92
578.399	312.9
578.822	256.73
579.245	301.2
579.669	315.24
580.092	294.18
580.515	298.86
580.938	326.94
581.361	303.54
581.784	338.65
582.206	326.94
582.629	301.2
583.052	333.97
583.474	261.41
583.897	331.62
584.32	333.97
584.742	303.54
585.165	287.15
585.587	249.71
586.009	256.73
586.431	282.47
586.854	270.77
587.276	254.39
587.698	324.6
588.12	336.31
588.542	312.9
588.964	296.52
589.386	200.55
589.807	352.69
590.229	291.84
590.651	294.18
591.073	371.41
591.494	238
591.916	282.47
592.337	355.03
592.759	256.73
593.18	301.2
593.601	303.54
594.022	233.32
594.444	315.24
594.865	369.07
595.286	284.81
595.707	298.86
596.128	319.92
596.549	366.73
596.97	298.86
597.39	331.62
597.811	319.92
598.232	275.45
598.652	401.84
599.073	343.33
599.494	298.86
599.914	303.54
600.334	303.54
600.755	338.65
601.175	319.92
601.595	291.84
602.015	266.09
602.436	322.26
602.856	420.57
603.276	364.39
603.696	280.13
604.115	331.62
604.535	345.67
604.955	254.39
605.375	310.56
605.794	291.84
606.214	322.26
606.634	310.56
607.053	322.26
607.473	289.5
607.892	326.94
608.311	317.58
608.731	326.94
609.15	270.77
609.569	277.79
609.988	277.79
610.407	338.65
610.826	310.56
611.245	291.84
611.664	357.37
612.083	324.6
612.501	355.03
612.92	345.67
613.339	308.22
613.757	284.81
614.176	343.33
614.594	301.2
615.013	249.71
615.431	357.37
615.85	303.54
616.268	273.11
616.686	298.86
617.104	324.6
617.522	308.22
617.94	378.44
618.358	350.35
618.776	338.65
619.194	310.56
619.612	296.52
620.03	336.31
620.447	373.75
620.865	322.26
621.282	289.5
621.7	212.26
622.117	333.97
622.535	310.56
622.952	252.05
623.369	282.47
623.787	371.41
624.204	268.43
624.621	280.13
625.038	319.92
625.455	298.86
625.872	362.05
626.289	277.79
626.706	296.52
627.123	345.67
627.539	296.52
627.956	352.69
628.373	329.28
628.789	324.6
629.206	343.33
629.622	315.24
630.038	287.15
630.455	340.99
630.871	357.37
631.287	305.88
631.703	333.97
632.12	310.56
632.536	298.86
632.952	270.77
633.368	338.65
633.783	305.88
634.199	336.31
634.615	319.92
635.031	348.01
635.446	373.75
635.862	301.2
636.277	319.92
636.693	359.71
637.108	247.37
637.524	371.41
637.939	294.18
638.354	303.54
638.77	336.31
639.185	331.62
639.6	305.88
640.015	317.58
640.43	303.54
640.845	296.52
641.259	322.26
641.674	254.39
642.089	319.92
642.504	406.52
642.918	282.47
643.333	312.9
643.747	331.62
644.162	336.31
644.576	303.54
644.991	284.81
645.405	303.54
645.819	308.22
646.233	310.56
646.647	308.22
647.061	331.62
647.475	209.92
647.889	338.65
648.303	312.9
648.717	324.6
649.131	294.18
649.545	294.18
649.958	350.35
650.372	289.5
650.785	291.84
651.199	280.13
651.612	369.07
652.026	284.81
652.439	310.56
652.852	331.62
653.266	249.71
653.679	340.99
654.092	322.26
654.505	270.77
654.918	289.5
655.331	329.28
655.744	308.22
656.156	270.77
656.569	310.56
656.982	287.15
657.394	247.37
657.807	333.97
658.22	301.2
658.632	350.35
659.044	296.52
659.457	280.13
659.869	329.28
660.281	336.31
660.693	298.86
661.106	254.39
661.518	371.41
661.93	256.73
662.342	305.88
662.754	291.84
663.165	322.26
663.577	338.65
663.989	336.31
664.401	366.73
664.812	322.26
665.224	303.54
665.635	294.18
666.047	226.3
666.458	326.94
666.869	308.22
667.281	298.86
667.692	331.62
668.103	275.45
668.514	333.97
668.925	263.75
669.336	291.84
669.747	322.26
670.158	331.62
670.569	301.2
670.979	270.77
671.39	308.22
671.801	280.13
672.211	284.81
672.622	289.5
673.032	296.52
673.443	329.28
673.853	310.56
674.263	261.41
674.674	329.28
675.084	282.47
675.494	345.67
675.904	270.77
676.314	324.6
676.724	280.13
677.134	308.22
677.544	301.2
677.953	310.56
678.363	301.2
678.773	315.24
679.182	338.65
679.592	359.71
680.001	298.86
680.411	298.86
680.82	277.79
681.23	289.5
681.639	303.54
682.048	273.11
682.457	263.75
682.866	296.52
683.275	301.2
683.684	303.54
684.093	256.73
684.502	312.9
684.911	277.79
685.32	326.94
685.728	256.73
686.137	350.35
686.546	289.5
686.954	315.24
687.363	333.97
687.771	298.86
688.179	322.26
688.588	291.84
688.996	376.09
689.404	305.88
689.812	352.69
690.22	312.9
690.628	317.58
691.036	355.03
691.444	287.15
691.852	296.52
692.26	284.81
692.667	301.2
693.075	277.79
693.483	357.37
693.89	324.6
694.298	308.22
694.705	303.54
695.112	268.43
695.52	322.26
695.927	362.05
696.334	305.88
696.741	294.18
697.148	305.88
697.555	298.86
697.962	315.24
698.369	324.6
698.776	270.77
699.183	254.39
699.59	329.28
699.996	310.56
700.403	305.88
700.81	310.56
701.216	317.58
701.623	317.58
702.029	266.09
702.435	310.56
702.842	270.77
703.248	254.39
703.654	301.2
704.06	359.71
704.466	298.86
704.872	324.6
705.278	303.54
705.684	247.37
706.09	350.35
706.496	282.47
706.901	305.88
707.307	303.54
707.712	312.9
708.118	326.94
708.523	289.5
708.929	315.24
709.334	364.39
709.74	266.09
710.145	287.15
710.55	348.01
710.955	310.56
711.36	296.52
711.765	191.19
712.17	310.56
712.575	340.99
712.98	795.05
713.385	333.97
713.789	317.58
714.194	256.73
714.599	317.58
715.003	333.97
715.408	329.28
715.812	259.07
716.217	266.09
716.621	301.2
717.025	329.28
717.429	317.58
717.833	333.97
718.238	322.26
718.642	280.13
719.046	350.35
719.449	324.6
719.853	263.75
720.257	303.54
720.661	235.66
721.065	284.81
721.468	287.15
721.872	298.86
722.275	383.12
722.679	289.5
723.082	205.24
723.485	273.11
723.889	301.2
724.292	291.84
724.695	310.56
725.098	305.88
725.501	331.62
725.904	289.5
726.307	261.41
726.71	298.86
727.113	254.39
727.516	359.71
727.918	305.88
728.321	249.71
728.724	333.97
729.126	266.09
729.529	270.77
729.931	348.01
730.333	305.88
730.736	305.88
731.138	326.94
731.54	273.11
731.942	275.45
732.344	287.15
732.746	287.15
733.148	277.79
733.55	275.45
733.952	280.13
734.354	310.56
734.756	305.88
735.157	319.92
735.559	298.86
735.96	249.71
736.362	336.31
736.763	291.84
737.165	317.58
737.566	324.6
737.967	315.24
738.368	319.92
738.77	280.13
739.171	249.71
739.572	291.84
739.973	315.24
740.374	223.96
740.774	259.07
741.175	273.11
741.576	298.86
741.977	296.52
742.377	287.15
742.778	282.47
743.178	280.13
743.579	333.97
743.979	296.52
744.379	249.71
744.78	331.62
745.18	343.33
745.58	277.79
745.98	301.2
746.38	310.56
746.78	270.77
747.18	287.15
747.58	254.39
747.98	247.37
748.38	303.54
748.779	263.75
749.179	263.75
749.578	336.31
749.978	261.41
750.377	303.54
750.777	228.64
751.176	289.5
751.575	390.14
751.975	310.56
752.374	322.26
752.773	308.22
753.172	310.56
753.571	287.15
753.97	294.18
754.369	303.54
754.768	348.01
755.166	308.22
755.565	329.28
755.964	280.13
756.362	312.9
756.761	317.58
757.159	296.52
757.558	294.18
757.956	273.11
758.354	317.58
758.753	352.69
759.151	310.56
759.549	280.13
759.947	322.26
760.345	305.88
760.743	357.37
761.141	270.77
761.539	366.73
761.936	378.44
762.334	259.07
762.732	317.58
763.129	273.11
763.527	308.22
763.924	364.39
764.322	291.84
764.719	268.43
765.117	280.13
765.514	333.97
765.911	273.11
766.308	284.81
766.705	268.43
767.102	291.84
767.499	305.88
767.896	275.45
768.293	322.26
768.69	343.33
769.086	336.31
769.483	315.24
769.88	280.13
770.276	289.5
770.673	319.92
771.069	310.56
771.466	296.52
771.862	310.56
772.258	319.92
772.654	275.45
773.05	275.45
773.447	366.73
773.843	284.81
774.239	326.94
774.634	364.39
775.03	298.86
775.426	303.54
775.822	303.54
776.218	240.34
776.613	268.43
777.009	329.28
777.404	294.18
777.8	308.22
778.195	315.24
778.59	226.3
778.986	312.9
779.381	280.13
779.776	333.97
780.171	245.02
780.566	303.54
780.961	284.81
781.356	259.07
781.751	310.56
782.146	359.71
782.54	275.45
782.935	242.68
783.33	296.52
783.724	308.22
784.119	298.86
784.513	280.13
784.908	301.2
785.302	315.24
785.696	254.39
786.09	296.52
786.485	245.02
786.879	336.31
787.273	357.37
787.667	317.58
788.061	319.92
788.454	326.94
788.848	338.65
789.242	336.31
789.636	277.79
790.029	317.58
790.423	291.84
790.816	322.26
791.21	305.88
791.603	333.97
791.997	324.6
792.39	345.67
792.783	284.81
793.176	282.47
793.569	287.15
793.962	263.75
794.355	277.79
794.748	261.41
795.141	270.77
795.534	371.41
795.927	298.86
796.319	268.43
796.712	333.97
797.105	277.79
797.497	249.71
797.89	324.6
798.282	282.47
798.674	296.52
799.067	287.15
799.459	352.69
799.851	319.92
800.243	242.68
800.635	315.24
801.027	282.47
801.419	259.07
801.811	308.22
802.203	291.84
802.594	319.92
802.986	336.31
803.378	357.37
803.769	277.79
804.161	284.81
804.552	238
804.944	329.28
805.335	294.18
805.726	338.65
806.118	247.37
806.509	303.54
806.9	298.86
807.291	350.35
807.682	340.99
808.073	270.77
808.464	261.41
808.855	348.01
809.245	294.18
809.636	284.81
810.027	310.56
810.417	301.2
810.808	322.26
811.198	270.77
811.589	284.81
811.979	378.44
812.369	261.41
812.759	364.39
813.15	291.84
813.54	326.94
813.93	331.62
814.32	226.3
814.71	338.65
815.1	322.26
815.489	296.52
815.879	303.54
816.269	303.54
816.658	256.73
817.048	355.03
817.438	394.82
817.827	242.68
818.216	308.22
818.606	303.54
818.995	329.28
819.384	256.73
819.773	296.52
820.163	310.56
820.552	312.9
820.941	294.18
821.33	289.5
821.718	376.09
822.107	284.81
822.496	364.39
822.885	331.62
823.273	315.24
823.662	303.54
824.05	336.31
824.439	319.92
824.827	266.09
825.216	296.52
825.604	336.31
825.992	357.37
826.38	308.22
826.768	312.9
827.156	226.3
827.544	249.71
827.932	270.77
828.32	305.88
828.708	322.26
829.096	303.54
829.483	343.33
829.871	296.52
830.259	310.56
830.646	359.71
831.034	312.9
831.421	301.2
831.808	333.97
832.196	298.86
832.583	233.32
832.97	270.77
833.357	284.81
833.744	310.56
834.131	315.24
834.518	310.56
834.905	245.02
835.292	252.05
835.678	331.62
836.065	310.56
836.452	289.5
836.838	270.77
837.225	315.24
837.611	317.58
837.998	284.81
838.384	333.97
838.77	291.84
839.157	305.88
839.543	296.52
839.929	340.99
840.315	277.79
840.701	233.32
841.087	399.5
841.473	310.56
841.858	317.58
842.244	287.15
842.63	245.02
843.015	319.92
843.401	387.8
843.787	319.92
844.172	357.37
844.557	247.37
844.943	275.45
845.328	317.58
845.713	298.86
846.098	266.09
846.483	270.77
846.868	340.99
847.253	259.07
847.638	296.52
848.023	303.54
848.408	319.92
848.793	312.9
849.177	310.56
849.562	268.43
849.947	317.58
850.331	303.54
850.715	303.54
851.1	256.73
851.484	324.6
851.868	268.43
852.253	312.9
852.637	340.99
853.021	284.81
853.405	291.84
853.789	352.69
854.173	289.5
854.557	350.35
854.94	312.9
855.324	261.41
855.708	268.43
856.091	301.2
856.475	340.99
856.858	270.77
857.242	277.79
857.625	329.28
858.009	270.77
858.392	280.13
858.775	301.2
859.158	277.79
859.541	233.32
859.924	296.52
860.307	259.07
860.69	322.26
861.073	324.6
861.456	287.15
861.838	282.47
862.221	343.33
862.604	326.94
862.986	329.28
863.369	268.43
863.751	369.07
864.133	371.41
864.516	338.65
864.898	298.86
865.28	291.84
865.662	364.39
866.044	310.56
866.426	284.81
866.808	282.47
867.19	303.54
867.572	329.28
867.954	284.81
868.336	326.94
868.717	303.54
869.099	270.77
869.48	340.99
869.862	294.18
870.243	282.47
870.625	294.18
871.006	301.2
871.387	369.07
871.768	322.26
872.149	317.58
872.53	280.13
872.911	261.41
873.292	298.86
873.673	317.58
874.054	343.33
874.435	324.6
874.815	301.2
875.196	268.43
875.577	338.65
875.957	235.66
876.338	310.56
876.718	373.75
877.098	310.56
877.479	345.67
877.859	326.94
878.239	294.18
878.619	343.33
878.999	294.18
879.379	329.28
879.759	319.92
880.139	322.26
880.519	315.24
880.898	308.22
881.278	317.58
881.658	294.18
882.037	284.81
882.417	357.37
882.796	319.92
883.176	240.34
883.555	294.18
883.934	326.94
884.313	238
884.693	270.77
885.072	390.14
885.451	359.71
885.83	268.43
886.209	331.62
886.587	273.11
886.966	376.09
887.345	252.05
887.724	301.2
888.102	298.86
888.481	303.54
888.859	261.41
889.238	277.79
889.616	298.86
889.994	296.52
890.373	261.41
890.751	296.52
891.129	282.47
891.507	333.97
891.885	263.75
892.263	305.88
892.641	305.88
893.019	336.31
893.396	282.47
893.774	266.09
894.152	282.47
894.529	287.15
894.907	310.56
895.284	233.32
895.662	364.39
896.039	294.18
896.416	296.52
896.794	280.13
897.171	268.43
897.548	329.28
897.925	289.5
898.302	301.2
898.679	319.92
899.056	310.56
899.433	326.94
899.809	273.11
900.186	280.13
900.563	317.58
900.939	256.73
901.316	352.69
901.692	345.67
902.069	343.33
902.445	362.05
902.821	317.58
903.197	310.56
903.574	268.43
903.95	263.75
904.326	319.92
904.702	366.73
905.078	275.45
905.454	277.79
905.829	298.86
906.205	312.9
906.581	298.86
906.956	266.09
907.332	315.24
907.707	315.24
908.083	275.45
908.458	324.6
908.833	331.62
909.209	301.2
909.584	254.39
909.959	294.18
910.334	296.52
910.709	247.37
911.084	294.18
911.459	298.86
911.834	303.54
912.209	277.79
912.583	294.18
912.958	308.22
913.333	263.75
913.707	298.86
914.082	249.71
914.456	247.37
914.83	216.94
915.205	252.05
915.579	268.43
915.953	263.75
916.327	322.26
916.701	322.26
917.075	333.97
917.449	348.01
917.823	308.22
918.197	303.54
918.571	298.86
918.944	254.39
919.318	340.99
919.692	357.37
920.065	275.45
920.438	324.6
920.812	242.68
921.185	289.5
921.558	317.58
921.932	261.41
922.305	282.47
922.678	319.92
923.051	287.15
923.424	254.39
923.797	324.6
924.17	331.62
924.542	336.31
924.915	305.88
925.288	270.77
925.661	310.56
926.033	326.94
926.406	296.52
926.778	315.24
927.15	277.79
927.523	359.71
927.895	268.43
928.267	291.84
928.639	362.05
929.011	184.17
929.383	289.5
929.755	338.65
930.127	266.09
930.499	305.88
930.871	287.15
931.242	338.65
931.614	303.54
931.986	336.31
932.357	268.43
932.729	268.43
933.1	284.81
933.471	289.5
933.843	305.88
934.214	310.56
934.585	329.28
934.956	252.05
935.327	301.2
935.698	287.15
936.069	247.37
936.44	336.31
936.811	324.6
937.182	275.45
937.552	249.71
937.923	289.5
938.293	268.43
938.664	254.39
939.034	242.68
939.405	301.2
939.775	287.15
940.145	310.56
940.516	326.94
940.886	268.43
941.256	289.5
941.626	301.2
941.996	322.26
942.366	310.56
942.735	324.6
943.105	235.66
943.475	275.45
943.845	298.86
944.214	252.05
944.584	268.43
944.953	350.35
945.323	238
945.692	310.56
946.061	291.84
946.43	296.52
946.8	261.41
947.169	256.73
947.538	280.13
947.907	280.13
948.276	287.15
948.645	287.15
949.013	322.26
949.382	362.05
949.751	315.24
950.119	315.24
950.488	315.24
950.857	317.58
951.225	245.02
951.593	273.11
951.962	273.11
952.33	362.05
952.698	259.07
953.066	233.32
953.434	308.22
953.802	270.77
954.17	301.2
954.538	315.24
954.906	296.52
955.274	291.84
955.642	282.47
956.009	322.26
956.377	240.34
956.744	245.02
957.112	261.41
957.479	312.9
957.847	303.54
958.214	240.34
958.581	331.62
958.948	263.75
959.315	252.05
959.683	317.58
960.05	259.07
960.416	308.22
960.783	261.41
961.15	296.52
961.517	273.11
961.884	273.11
962.25	277.79
962.617	273.11
962.983	282.47
963.35	331.62
963.716	345.67
964.082	324.6
964.449	289.5
964.815	350.35
965.181	280.13
965.547	287.15
965.913	310.56
966.279	282.47
966.645	275.45
967.011	301.2
967.377	263.75
967.742	289.5
968.108	298.86
968.474	322.26
968.839	266.09
969.205	275.45
969.57	343.33
969.935	277.79
970.301	266.09
970.666	303.54
971.031	331.62
971.396	305.88
971.761	268.43
972.126	326.94
972.491	355.03
972.856	280.13
973.221	282.47
973.586	273.11
973.95	310.56
974.315	287.15
974.679	315.24
975.044	284.81
975.408	275.45
975.773	289.5
976.137	296.52
976.501	310.56
976.866	252.05
977.23	317.58
977.594	287.15
977.958	333.97
978.322	331.62
978.686	333.97
979.049	305.88
979.413	324.6
979.777	315.24
980.141	252.05
980.504	366.73
980.868	273.11
981.231	296.52
981.595	324.6
981.958	287.15
982.321	298.86
982.684	270.77
983.048	301.2
983.411	287.15
983.774	319.92
984.137	240.34
984.5	329.28
984.862	294.18
985.225	282.47
985.588	336.31
985.951	207.58
986.313	326.94
986.676	238
987.038	294.18
987.401	296.52
987.763	266.09
988.125	338.65
988.488	270.77
988.85	308.22
989.212	348.01
989.574	270.77
989.936	261.41
990.298	338.65
990.66	338.65
991.022	270.77
991.383	282.47
991.745	287.15
992.107	289.5
992.468	298.86
992.83	273.11
993.191	298.86
993.553	343.33
993.914	394.82
994.275	305.88
994.637	289.5
994.998	273.11
995.359	329.28
995.72	275.45
996.081	263.75
996.442	226.3
996.803	242.68
997.163	275.45
997.524	275.45
997.885	266.09
998.245	256.73
998.606	268.43
998.966	219.28
999.327	340.99
999.687	289.5
1000.047	312.9
1000.408	296.52
1000.768	280.13
1001.128	294.18
1001.488	319.92
1001.848	331.62
1002.208	263.75
1002.568	245.02
1002.927	275.45
1003.287	336.31
1003.647	289.5
1004.007	275.45
1004.366	256.73
1004.726	298.86
1005.085	245.02
1005.444	329.28
1005.804	345.67
1006.163	294.18
1006.522	305.88
1006.881	284.81
1007.24	331.62
1007.599	319.92
1007.958	303.54
1008.317	324.6
1008.676	294.18
1009.035	331.62
1009.393	317.58
1009.752	289.5
1010.111	319.92
1010.469	378.44
1010.828	303.54
1011.186	296.52
1011.544	324.6
1011.903	238
1012.261	336.31
1012.619	303.54
1012.977	273.11
1013.335	348.01
1013.693	303.54
1014.051	301.2
1014.409	298.86
1014.767	261.41
1015.124	209.92
1015.482	289.5
1015.84	331.62
1016.197	249.71
1016.555	319.92
1016.912	303.54
1017.269	329.28
1017.627	317.58
1017.984	319.92
1018.341	336.31
1018.698	261.41
1019.055	252.05
1019.412	287.15
1019.769	284.81
1020.126	291.84
1020.483	343.33
1020.84	263.75
1021.196	324.6
1021.553	303.54
1021.909	294.18
1022.266	259.07
1022.622	345.67
1022.979	282.47
1023.335	322.26
1023.691	298.86
1024.047	305.88
1024.404	277.79
1024.76	331.62
1025.116	289.5
1025.472	333.97
1025.827	348.01
1026.183	362.05
1026.539	191.19
1026.895	287.15
1027.25	301.2
1027.606	308.22
1027.961	305.88
1028.317	340.99
1028.672	301.2
1029.028	289.5
1029.383	305.88
1029.738	319.92
1030.093	340.99
1030.448	345.67
1030.803	282.47
1031.158	343.33
1031.513	247.37
1031.868	308.22
1032.223	305.88
1032.577	373.75
1032.932	273.11
1033.287	322.26
1033.641	282.47
1033.996	291.84
1034.35	296.52
1034.704	308.22
1035.059	317.58
1035.413	289.5
1035.767	289.5
1036.121	289.5
