Data from Al_FLMS009871__563__14-44-55-718.txt Node

Date: Fri Mar 08 14:44:55 CST 2024
User: pe5414po
Spectrometer: FLMS00987
Trigger mode: 0
Integration Time (sec): 1.000000E-1
Scans to average: 1
Electric dark correction enabled: true
Nonlinearity correction enabled: false
Boxcar width: 0
XAxis mode: Wavelengths
Number of Pixels in Spectrum: 2048
>>>>>Begin Spectral Data<<<<<
188.938	-52.52
189.409	-52.52
189.879	-52.52
190.349	-115.71
190.819	-87.62
191.29	-73.58
191.76	-66.56
192.23	-127.41
192.7	-104.01
193.17	-85.28
193.64	6
194.109	-99.33
194.579	-17.41
195.049	64.51
195.519	-5.71
195.988	50.47
196.458	24.72
196.927	52.81
197.397	111.32
197.866	146.43
198.336	123.02
198.805	186.22
199.274	270.48
199.744	153.45
200.213	181.54
200.682	244.73
201.151	158.13
201.62	247.07
202.089	211.96
202.558	254.09
203.027	235.37
203.495	242.39
203.964	310.27
204.433	321.97
204.902	291.54
205.37	249.41
205.839	289.2
206.307	286.86
206.776	305.59
207.244	357.08
207.712	265.8
208.181	336.01
208.649	256.43
209.117	270.48
209.585	333.67
210.053	240.05
210.521	228.35
210.989	300.91
211.457	162.81
211.925	289.2
212.393	265.8
212.861	310.27
213.328	258.78
213.796	333.67
214.264	326.65
214.731	296.22
215.199	235.37
215.666	275.16
216.133	256.43
216.601	340.69
217.068	251.75
217.535	272.82
218.003	310.27
218.47	221.33
218.937	324.31
219.404	218.99
219.871	286.86
220.338	282.18
220.805	321.97
221.271	247.07
221.738	263.46
222.205	256.43
222.671	258.78
223.138	211.96
223.605	333.67
224.071	310.27
224.538	291.54
225.004	270.48
225.47	247.07
225.937	265.8
226.403	272.82
226.869	202.6
227.335	359.42
227.801	277.5
228.267	230.69
228.733	268.14
229.199	265.8
229.665	249.41
230.131	270.48
230.597	256.43
231.062	307.93
231.528	310.27
231.994	279.84
232.459	289.2
232.925	319.63
233.39	312.61
233.856	338.35
234.321	275.16
234.786	228.35
235.252	324.31
235.717	296.22
236.182	258.78
236.647	291.54
237.112	272.82
237.577	270.48
238.042	275.16
238.507	214.31
238.972	300.91
239.436	272.82
239.901	354.74
240.366	333.67
240.83	373.46
241.295	268.14
241.76	226.01
242.224	284.52
242.688	307.93
243.153	270.48
243.617	265.8
244.081	244.73
244.545	286.86
245.01	279.84
245.474	303.25
245.938	310.27
246.402	272.82
246.866	275.16
247.33	303.25
247.793	333.67
248.257	268.14
248.721	310.27
249.185	235.37
249.648	314.95
250.112	336.01
250.575	237.71
251.039	244.73
251.502	333.67
251.965	275.16
252.429	265.8
252.892	286.86
253.355	347.72
253.818	317.29
254.281	319.63
254.744	240.05
255.207	284.52
255.67	277.5
256.133	237.71
256.596	357.08
257.059	261.12
257.522	277.5
257.984	340.69
258.447	263.46
258.909	314.95
259.372	228.35
259.834	270.48
260.297	338.35
260.759	268.14
261.221	284.52
261.684	249.41
262.146	317.29
262.608	305.59
263.07	289.2
263.532	343.03
263.994	312.61
264.456	284.52
264.918	228.35
265.38	247.07
265.842	256.43
266.303	300.91
266.765	343.03
267.227	305.59
267.688	263.46
268.15	333.67
268.611	282.18
269.072	251.75
269.534	261.12
269.995	347.72
270.456	256.43
270.918	319.63
271.379	321.97
271.84	275.16
272.301	286.86
272.762	319.63
273.223	305.59
273.684	343.03
274.144	254.09
274.605	284.52
275.066	263.46
275.527	317.29
275.987	279.84
276.448	361.76
276.908	300.91
277.369	300.91
277.829	289.2
278.289	251.75
278.75	406.23
279.21	263.46
279.67	286.86
280.13	336.01
280.59	284.52
281.05	310.27
281.51	221.33
281.97	279.84
282.43	303.25
282.89	277.5
283.35	300.91
283.809	336.01
284.269	242.39
284.729	366.44
285.188	312.61
285.648	300.91
286.107	321.97
286.567	293.88
287.026	300.91
287.485	254.09
287.944	296.22
288.404	282.18
288.863	324.31
289.322	338.35
289.781	305.59
290.24	265.8
290.699	333.67
291.158	312.61
291.616	277.5
292.075	284.52
292.534	286.86
292.992	289.2
293.451	394.53
293.91	312.61
294.368	277.5
294.827	279.84
295.285	275.16
295.743	347.72
296.202	305.59
296.66	270.48
297.118	317.29
297.576	305.59
298.034	300.91
298.492	298.56
298.95	284.52
299.408	228.35
299.866	228.35
300.324	300.91
300.781	275.16
301.239	328.99
301.697	319.63
302.154	300.91
302.612	282.18
303.069	296.22
303.527	361.76
303.984	319.63
304.441	305.59
304.899	282.18
305.356	326.65
305.813	303.25
306.27	258.78
306.727	265.8
307.184	319.63
307.641	279.84
308.098	319.63
308.555	373.46
309.012	319.63
309.468	268.14
309.925	331.33
310.382	230.69
310.838	326.65
311.295	361.76
311.751	298.56
312.208	258.78
312.664	279.84
313.12	303.25
313.577	256.43
314.033	317.29
314.489	336.01
314.945	284.52
315.401	300.91
315.857	235.37
316.313	284.52
316.769	340.69
317.225	324.31
317.681	286.86
318.136	314.95
318.592	244.73
319.048	357.08
319.503	237.71
319.959	331.33
320.414	293.88
320.869	314.95
321.325	310.27
321.78	305.59
322.235	314.95
322.691	296.22
323.146	293.88
323.601	328.99
324.056	354.74
324.511	331.33
324.966	373.46
325.421	207.28
325.875	394.53
326.33	261.12
326.785	371.12
327.24	303.25
327.694	328.99
328.149	254.09
328.603	331.33
329.058	303.25
329.512	310.27
329.966	296.22
330.421	268.14
330.875	272.82
331.329	333.67
331.783	254.09
332.237	298.56
332.691	256.43
333.145	272.82
333.599	256.43
334.053	352.4
334.507	364.1
334.96	338.35
335.414	338.35
335.868	333.67
336.321	289.2
336.775	312.61
337.228	343.03
337.682	300.91
338.135	275.16
338.588	326.65
339.042	305.59
339.495	251.75
339.948	282.18
340.401	357.08
340.854	270.48
341.307	326.65
341.76	293.88
342.213	319.63
342.666	291.54
343.119	326.65
343.571	368.78
344.024	310.27
344.477	282.18
344.929	258.78
345.382	368.78
345.834	258.78
346.287	347.72
346.739	314.95
347.191	336.01
347.644	328.99
348.096	279.84
348.548	314.95
349	303.25
349.452	275.16
349.904	328.99
350.356	275.16
350.808	336.01
351.26	338.35
351.711	324.31
352.163	319.63
352.615	338.35
353.066	331.33
353.518	314.95
353.969	317.29
354.421	319.63
354.872	338.35
355.324	333.67
355.775	321.97
356.226	303.25
356.677	319.63
357.128	324.31
357.579	279.84
358.03	286.86
358.481	277.5
358.932	314.95
359.383	275.16
359.834	378.14
360.285	336.01
360.735	265.8
361.186	326.65
361.637	319.63
362.087	338.35
362.538	326.65
362.988	328.99
363.438	368.78
363.889	338.35
364.339	305.59
364.789	293.88
365.239	343.03
365.689	277.5
366.139	296.22
366.589	275.16
367.039	328.99
367.489	368.78
367.939	303.25
368.389	364.1
368.839	314.95
369.288	319.63
369.738	310.27
370.187	333.67
370.637	373.46
371.086	340.69
371.536	357.08
371.985	286.86
372.434	270.48
372.884	289.2
373.333	296.22
373.782	375.8
374.231	359.42
374.68	326.65
375.129	396.87
375.578	317.29
376.027	300.91
376.475	375.8
376.924	312.61
377.373	347.72
377.822	279.84
378.27	282.18
378.719	347.72
379.167	296.22
379.616	291.54
380.064	289.2
380.512	272.82
380.961	268.14
381.409	303.25
381.857	258.78
382.305	340.69
382.753	375.8
383.201	251.75
383.649	282.18
384.097	303.25
384.545	314.95
384.992	399.21
385.44	331.33
385.888	328.99
386.335	343.03
386.783	321.97
387.231	317.29
387.678	310.27
388.125	343.03
388.573	289.2
389.02	333.67
389.467	261.12
389.914	385.16
390.362	340.69
390.809	275.16
391.256	331.33
391.703	340.69
392.15	272.82
392.596	305.59
393.043	277.5
393.49	314.95
393.937	296.22
394.383	268.14
394.83	256.43
395.276	354.74
395.723	378.14
396.169	307.93
396.616	289.2
397.062	254.09
397.508	303.25
397.954	328.99
398.401	298.56
398.847	284.52
399.293	343.03
399.739	385.16
400.185	282.18
400.631	293.88
401.076	324.31
401.522	336.01
401.968	361.76
402.414	263.46
402.859	310.27
403.305	284.52
403.75	289.2
404.196	317.29
404.641	272.82
405.086	314.95
405.532	300.91
405.977	359.42
406.422	317.29
406.867	333.67
407.312	415.59
407.757	310.27
408.202	375.8
408.647	345.38
409.092	331.33
409.537	319.63
409.982	286.86
410.426	319.63
410.871	340.69
411.316	310.27
411.76	366.44
412.205	284.52
412.649	338.35
413.093	310.27
413.538	319.63
413.982	319.63
414.426	361.76
414.87	314.95
415.314	357.08
415.758	352.4
416.202	343.03
416.646	368.78
417.09	279.84
417.534	319.63
417.978	303.25
418.421	293.88
418.865	249.41
419.309	373.46
419.752	324.31
420.196	361.76
420.639	258.78
421.083	303.25
421.526	251.75
421.969	251.75
422.412	289.2
422.856	214.31
423.299	286.86
423.742	373.46
424.185	359.42
424.628	396.87
425.071	336.01
425.513	317.29
425.956	373.46
426.399	268.14
426.842	380.48
427.284	312.61
427.727	364.1
428.169	303.25
428.612	275.16
429.054	256.43
429.497	300.91
429.939	326.65
430.381	314.95
430.823	291.54
431.265	277.5
431.707	333.67
432.149	340.69
432.591	317.29
433.033	314.95
433.475	345.38
433.917	340.69
434.359	338.35
434.8	307.93
435.242	321.97
435.684	312.61
436.125	352.4
436.567	286.86
437.008	265.8
437.449	305.59
437.891	338.35
438.332	289.2
438.773	350.06
439.214	343.03
439.656	340.69
440.097	310.27
440.538	364.1
440.978	333.67
441.419	345.38
441.86	352.4
442.301	399.21
442.742	298.56
443.182	312.61
443.623	293.88
444.063	312.61
444.504	373.46
444.944	298.56
445.385	296.22
445.825	258.78
446.265	263.46
446.706	279.84
447.146	317.29
447.586	275.16
448.026	284.52
448.466	347.72
448.906	359.42
449.346	321.97
449.786	296.22
450.225	352.4
450.665	300.91
451.105	226.01
451.544	343.03
451.984	345.38
452.424	223.67
452.863	282.18
453.302	291.54
453.742	378.14
454.181	293.88
454.62	350.06
455.059	310.27
455.499	361.76
455.938	300.91
456.377	343.03
456.816	277.5
457.254	296.22
457.693	331.33
458.132	394.53
458.571	317.29
459.01	270.48
459.448	312.61
459.887	310.27
460.325	333.67
460.764	303.25
461.202	289.2
461.641	394.53
462.079	422.61
462.517	312.61
462.955	310.27
463.393	303.25
463.832	380.48
464.27	314.95
464.708	371.12
465.145	328.99
465.583	361.76
466.021	321.97
466.459	307.93
466.897	350.06
467.334	338.35
467.772	275.16
468.209	361.76
468.647	303.25
469.084	371.12
469.522	366.44
469.959	324.31
470.396	364.1
470.833	282.18
471.271	387.5
471.708	324.31
472.145	368.78
472.582	270.48
473.019	314.95
473.456	366.44
473.892	340.69
474.329	319.63
474.766	331.33
475.202	270.48
475.639	403.89
476.076	328.99
476.512	291.54
476.949	296.22
477.385	378.14
477.821	310.27
478.258	314.95
478.694	328.99
479.13	321.97
479.566	375.8
480.002	333.67
480.438	279.84
480.874	272.82
481.31	314.95
481.746	314.95
482.181	247.07
482.617	373.46
483.053	352.4
483.488	321.97
483.924	275.16
484.36	305.59
484.795	368.78
485.23	289.2
485.666	324.31
486.101	319.63
486.536	340.69
486.971	258.78
487.407	326.65
487.842	317.29
488.277	324.31
488.712	314.95
489.146	331.33
489.581	340.69
490.016	331.33
490.451	364.1
490.885	317.29
491.32	296.22
491.755	305.59
492.189	286.86
492.624	279.84
493.058	307.93
493.492	284.52
493.927	382.82
494.361	326.65
494.795	331.33
495.229	270.48
495.663	305.59
496.097	331.33
496.531	279.84
496.965	282.18
497.399	331.33
497.833	307.93
498.266	305.59
498.7	303.25
499.134	254.09
499.567	300.91
500.001	340.69
500.434	303.25
500.868	319.63
501.301	352.4
501.734	361.76
502.168	352.4
502.601	324.31
503.034	319.63
503.467	307.93
503.9	373.46
504.333	298.56
504.766	298.56
505.199	314.95
505.632	336.01
506.064	289.2
506.497	293.88
506.93	298.56
507.362	364.1
507.795	312.61
508.227	326.65
508.66	375.8
509.092	378.14
509.524	326.65
509.956	296.22
510.389	298.56
510.821	244.73
511.253	310.27
511.685	378.14
512.117	326.65
512.549	247.07
512.981	343.03
513.412	314.95
513.844	300.91
514.276	373.46
514.707	333.67
515.139	317.29
515.571	373.46
516.002	385.16
516.433	307.93
516.865	326.65
517.296	317.29
517.727	270.48
518.159	310.27
518.59	392.19
519.021	326.65
519.452	247.07
519.883	312.61
520.314	357.08
520.744	275.16
521.175	321.97
521.606	319.63
522.037	268.14
522.467	338.35
522.898	343.03
523.328	324.31
523.759	324.31
524.189	382.82
524.62	347.72
525.05	373.46
525.48	378.14
525.91	354.74
526.341	279.84
526.771	282.18
527.201	317.29
527.631	375.8
528.061	307.93
528.49	336.01
528.92	333.67
529.35	321.97
529.78	310.27
530.209	261.12
530.639	298.56
531.068	279.84
531.498	357.08
531.927	296.22
532.357	321.97
532.786	298.56
533.215	293.88
533.644	333.67
534.074	331.33
534.503	305.59
534.932	284.52
535.361	319.63
535.79	373.46
536.218	333.67
536.647	298.56
537.076	347.72
537.505	347.72
537.933	317.29
538.362	284.52
538.79	312.61
539.219	375.8
539.647	343.03
540.076	350.06
540.504	310.27
540.932	328.99
541.36	324.31
541.788	284.52
542.217	394.53
542.645	319.63
543.073	300.91
543.5	340.69
543.928	282.18
544.356	338.35
544.784	333.67
545.211	314.95
545.639	310.27
546.067	300.91
546.494	357.08
546.922	359.42
547.349	298.56
547.776	333.67
548.204	333.67
548.631	347.72
549.058	291.54
549.485	279.84
549.912	307.93
550.339	303.25
550.766	291.54
551.193	352.4
551.62	307.93
552.047	321.97
552.474	324.31
552.9	314.95
553.327	354.74
553.754	326.65
554.18	366.44
554.607	368.78
555.033	307.93
555.459	340.69
555.886	303.25
556.312	361.76
556.738	310.27
557.164	284.52
557.59	300.91
558.016	319.63
558.442	303.25
558.868	258.78
559.294	319.63
559.72	296.22
560.145	347.72
560.571	277.5
560.997	331.33
561.422	277.5
561.848	279.84
562.273	343.03
562.699	350.06
563.124	277.5
563.549	303.25
563.974	368.78
564.4	410.91
564.825	314.95
565.25	317.29
565.675	361.76
566.1	343.03
566.525	317.29
566.95	321.97
567.374	270.48
567.799	298.56
568.224	321.97
568.648	317.29
569.073	328.99
569.497	406.23
569.922	331.33
570.346	310.27
570.771	321.97
571.195	305.59
571.619	319.63
572.043	338.35
572.467	305.59
572.891	310.27
573.315	345.38
573.739	333.67
574.163	338.35
574.587	359.42
575.011	249.41
575.435	307.93
575.858	317.29
576.282	328.99
576.705	417.93
577.129	317.29
577.552	270.48
577.976	354.74
578.399	328.99
578.822	345.38
579.245	321.97
579.669	279.84
580.092	373.46
580.515	282.18
580.938	364.1
581.361	352.4
581.784	307.93
582.206	364.1
582.629	338.35
583.052	326.65
583.474	336.01
583.897	275.16
584.32	373.46
584.742	338.35
585.165	359.42
585.587	256.43
586.009	249.41
586.431	345.38
586.854	357.08
587.276	333.67
587.698	310.27
588.12	392.19
588.542	293.88
588.964	366.44
589.386	261.12
589.807	333.67
590.229	326.65
590.651	380.48
591.073	263.46
591.494	345.38
591.916	265.8
592.337	326.65
592.759	307.93
593.18	286.86
593.601	307.93
594.022	310.27
594.444	317.29
594.865	303.25
595.286	293.88
595.707	359.42
596.128	258.78
596.549	298.56
596.97	357.08
597.39	272.82
597.811	263.46
598.232	307.93
598.652	392.19
599.073	347.72
599.494	366.44
599.914	380.48
600.334	293.88
600.755	317.29
601.175	310.27
601.595	310.27
602.015	317.29
602.436	328.99
602.856	420.27
603.276	300.91
603.696	305.59
604.115	303.25
604.535	268.14
604.955	312.61
605.375	272.82
605.794	331.33
606.214	305.59
606.634	293.88
607.053	319.63
607.473	328.99
607.892	338.35
608.311	336.01
608.731	366.44
609.15	324.31
609.569	314.95
609.988	394.53
610.407	303.25
610.826	343.03
611.245	373.46
611.664	307.93
612.083	338.35
612.501	347.72
612.92	293.88
613.339	275.16
613.757	284.52
614.176	338.35
614.594	343.03
615.013	328.99
615.431	338.35
615.85	305.59
616.268	268.14
616.686	340.69
617.104	277.5
617.522	347.72
617.94	307.93
618.358	303.25
618.776	371.12
619.194	298.56
619.612	300.91
620.03	270.48
620.447	328.99
620.865	331.33
621.282	303.25
621.7	291.54
622.117	340.69
622.535	333.67
622.952	389.85
623.369	361.76
623.787	338.35
624.204	361.76
624.621	317.29
625.038	317.29
625.455	331.33
625.872	277.5
626.289	326.65
626.706	359.42
627.123	378.14
627.539	347.72
627.956	312.61
628.373	317.29
628.789	314.95
629.206	380.48
629.622	282.18
630.038	314.95
630.455	312.61
630.871	345.38
631.287	307.93
631.703	357.08
632.12	275.16
632.536	357.08
632.952	303.25
633.368	298.56
633.783	277.5
634.199	357.08
634.615	272.82
635.031	324.31
635.446	326.65
635.862	336.01
636.277	254.09
636.693	272.82
637.108	326.65
637.524	312.61
637.939	359.42
638.354	328.99
638.77	357.08
639.185	354.74
639.6	357.08
640.015	338.35
640.43	333.67
640.845	277.5
641.259	293.88
641.674	254.09
642.089	305.59
642.504	321.97
642.918	293.88
643.333	277.5
643.747	300.91
644.162	345.38
644.576	347.72
644.991	319.63
645.405	312.61
645.819	328.99
646.233	270.48
646.647	305.59
647.061	249.41
647.475	310.27
647.889	371.12
648.303	293.88
648.717	261.12
649.131	307.93
649.545	324.31
649.958	331.33
650.372	352.4
650.785	293.88
651.199	382.82
651.612	317.29
652.026	333.67
652.439	307.93
652.852	296.22
653.266	321.97
653.679	275.16
654.092	354.74
654.505	331.33
654.918	345.38
655.331	385.16
655.744	310.27
656.156	312.61
656.569	272.82
656.982	373.46
657.394	244.73
657.807	300.91
658.22	343.03
658.632	272.82
659.044	359.42
659.457	277.5
659.869	272.82
660.281	303.25
660.693	361.76
661.106	282.18
661.518	326.65
661.93	352.4
662.342	347.72
662.754	293.88
663.165	361.76
663.577	373.46
663.989	265.8
664.401	347.72
664.812	286.86
665.224	321.97
665.635	336.01
666.047	338.35
666.458	314.95
666.869	289.2
667.281	305.59
667.692	270.48
668.103	314.95
668.514	307.93
668.925	270.48
669.336	326.65
669.747	270.48
670.158	364.1
670.569	321.97
670.979	307.93
671.39	336.01
671.801	331.33
672.211	307.93
672.622	300.91
673.032	289.2
673.443	275.16
673.853	343.03
674.263	364.1
674.674	375.8
675.084	387.5
675.494	310.27
675.904	251.75
676.314	321.97
676.724	305.59
677.134	296.22
677.544	333.67
677.953	373.46
678.363	286.86
678.773	410.91
679.182	364.1
679.592	368.78
680.001	345.38
680.411	336.01
680.82	382.82
681.23	326.65
681.639	328.99
682.048	321.97
682.457	265.8
682.866	284.52
683.275	382.82
683.684	249.41
684.093	319.63
684.502	366.44
684.911	319.63
685.32	270.48
685.728	340.69
686.137	399.21
686.546	375.8
686.954	343.03
687.363	326.65
687.771	314.95
688.179	289.2
688.588	319.63
688.996	373.46
689.404	251.75
689.812	331.33
690.22	298.56
690.628	291.54
691.036	303.25
691.444	331.33
691.852	296.22
692.26	265.8
692.667	347.72
693.075	333.67
693.483	347.72
693.89	359.42
694.298	300.91
694.705	371.12
695.112	312.61
695.52	328.99
695.927	338.35
696.334	286.86
696.741	312.61
697.148	305.59
697.555	272.82
697.962	352.4
698.369	354.74
698.776	361.76
699.183	373.46
699.59	272.82
699.996	242.39
700.403	293.88
700.81	331.33
701.216	354.74
701.623	333.67
702.029	336.01
702.435	286.86
702.842	305.59
703.248	340.69
703.654	378.14
704.06	317.29
704.466	326.65
704.872	321.97
705.278	310.27
705.684	324.31
706.09	350.06
706.496	359.42
706.901	319.63
707.307	361.76
707.712	303.25
708.118	343.03
708.523	328.99
708.929	314.95
709.334	359.42
709.74	305.59
710.145	336.01
710.55	328.99
710.955	331.33
711.36	314.95
711.765	354.74
712.17	321.97
712.575	338.35
712.98	820.5
713.385	350.06
713.789	373.46
714.194	338.35
714.599	314.95
715.003	336.01
715.408	371.12
715.812	303.25
716.217	338.35
716.621	298.56
717.025	359.42
717.429	340.69
717.833	310.27
718.238	282.18
718.642	256.43
719.046	314.95
719.449	249.41
719.853	235.37
720.257	352.4
720.661	328.99
721.065	326.65
721.468	265.8
721.872	249.41
722.275	289.2
722.679	328.99
723.082	247.07
723.485	328.99
723.889	326.65
724.292	368.78
724.695	310.27
725.098	347.72
725.501	305.59
725.904	373.46
726.307	380.48
726.71	300.91
727.113	277.5
727.516	307.93
727.918	321.97
728.321	331.33
728.724	333.67
729.126	354.74
729.529	312.61
729.931	366.44
730.333	338.35
730.736	359.42
731.138	336.01
731.54	371.12
731.942	263.46
732.344	347.72
732.746	263.46
733.148	317.29
733.55	336.01
733.952	328.99
734.354	310.27
734.756	366.44
735.157	303.25
735.559	350.06
735.96	258.78
736.362	305.59
736.763	324.31
737.165	347.72
737.566	277.5
737.967	321.97
738.368	307.93
738.77	350.06
739.171	328.99
739.572	364.1
739.973	357.08
740.374	350.06
740.774	352.4
741.175	347.72
741.576	293.88
741.977	366.44
742.377	263.46
742.778	298.56
743.178	357.08
743.579	366.44
743.979	314.95
744.379	333.67
744.78	340.69
745.18	291.54
745.58	338.35
745.98	303.25
746.38	326.65
746.78	338.35
747.18	338.35
747.58	338.35
747.98	305.59
748.38	326.65
748.779	324.31
749.179	324.31
749.578	296.22
749.978	336.01
750.377	279.84
750.777	303.25
751.176	307.93
751.575	275.16
751.975	354.74
752.374	317.29
752.773	305.59
753.172	331.33
753.571	314.95
753.97	359.42
754.369	350.06
754.768	326.65
755.166	300.91
755.565	307.93
755.964	371.12
756.362	328.99
756.761	284.52
757.159	319.63
757.558	321.97
757.956	326.65
758.354	314.95
758.753	305.59
759.151	296.22
759.549	328.99
759.947	336.01
760.345	265.8
760.743	331.33
761.141	373.46
761.539	375.8
761.936	350.06
762.334	286.86
762.732	319.63
763.129	289.2
763.527	277.5
763.924	286.86
764.322	378.14
764.719	305.59
765.117	336.01
765.514	303.25
765.911	312.61
766.308	314.95
766.705	340.69
767.102	284.52
767.499	282.18
767.896	268.14
768.293	340.69
768.69	333.67
769.086	244.73
769.483	324.31
769.88	326.65
770.276	286.86
770.673	336.01
771.069	314.95
771.466	336.01
771.862	340.69
772.258	364.1
772.654	265.8
773.05	340.69
773.447	336.01
773.843	296.22
774.239	345.38
774.634	310.27
775.03	314.95
775.426	298.56
775.822	373.46
776.218	340.69
776.613	357.08
777.009	345.38
777.404	378.14
777.8	331.33
778.195	291.54
778.59	352.4
778.986	350.06
779.381	305.59
779.776	249.41
780.171	258.78
780.566	293.88
780.961	268.14
781.356	265.8
781.751	270.48
782.146	233.03
782.54	300.91
782.935	321.97
783.33	347.72
783.724	251.75
784.119	326.65
784.513	263.46
784.908	300.91
785.302	319.63
785.696	317.29
786.09	336.01
786.485	343.03
786.879	319.63
787.273	357.08
787.667	326.65
788.061	359.42
788.454	345.38
788.848	319.63
789.242	300.91
789.636	298.56
790.029	254.09
790.423	321.97
790.816	333.67
791.21	380.48
791.603	303.25
791.997	375.8
792.39	244.73
792.783	312.61
793.176	326.65
793.569	263.46
793.962	338.35
794.355	310.27
794.748	310.27
795.141	321.97
795.534	244.73
795.927	338.35
796.319	333.67
796.712	324.31
797.105	300.91
797.497	347.72
797.89	286.86
798.282	326.65
798.674	336.01
799.067	202.6
799.459	333.67
799.851	293.88
800.243	336.01
800.635	387.5
801.027	331.33
801.419	261.12
801.811	282.18
802.203	317.29
802.594	324.31
802.986	282.18
803.378	317.29
803.769	305.59
804.161	307.93
804.552	298.56
804.944	366.44
805.335	321.97
805.726	336.01
806.118	368.78
806.509	364.1
806.9	319.63
807.291	338.35
807.682	289.2
808.073	277.5
808.464	284.52
808.855	296.22
809.245	328.99
809.636	326.65
810.027	317.29
810.417	352.4
810.808	350.06
811.198	249.41
811.589	345.38
811.979	298.56
812.369	242.39
812.759	282.18
813.15	233.03
813.54	275.16
813.93	275.16
814.32	345.38
814.71	277.5
815.1	331.33
815.489	300.91
815.879	258.78
816.269	289.2
816.658	368.78
817.048	296.22
817.438	333.67
817.827	331.33
818.216	284.52
818.606	258.78
818.995	340.69
819.384	359.42
819.773	277.5
820.163	352.4
820.552	293.88
820.941	333.67
821.33	338.35
821.718	336.01
822.107	359.42
822.496	333.67
822.885	289.2
823.273	328.99
823.662	326.65
824.05	300.91
824.439	317.29
824.827	321.97
825.216	380.48
825.604	242.39
825.992	361.76
826.38	354.74
826.768	319.63
827.156	279.84
827.544	298.56
827.932	233.03
828.32	307.93
828.708	310.27
829.096	279.84
829.483	279.84
829.871	284.52
830.259	331.33
830.646	319.63
831.034	293.88
831.421	336.01
831.808	333.67
832.196	361.76
832.583	291.54
832.97	300.91
833.357	387.5
833.744	321.97
834.131	336.01
834.518	319.63
834.905	249.41
835.292	310.27
835.678	333.67
836.065	345.38
836.452	291.54
836.838	298.56
837.225	310.27
837.611	307.93
837.998	289.2
838.384	305.59
838.77	321.97
839.157	319.63
839.543	326.65
839.929	293.88
840.315	275.16
840.701	328.99
841.087	319.63
841.473	331.33
841.858	338.35
842.244	333.67
842.63	291.54
843.015	305.59
843.401	666.03
843.787	300.91
844.172	321.97
844.557	286.86
844.943	382.82
845.328	333.67
845.713	347.72
846.098	300.91
846.483	298.56
846.868	424.95
847.253	359.42
847.638	347.72
848.023	277.5
848.408	270.48
848.793	314.95
849.177	347.72
849.562	268.14
849.947	354.74
850.331	317.29
850.715	265.8
851.1	277.5
851.484	350.06
851.868	275.16
852.253	298.56
852.637	375.8
853.021	340.69
853.405	357.08
853.789	319.63
854.173	284.52
854.557	338.35
854.94	314.95
855.324	333.67
855.708	333.67
856.091	319.63
856.475	282.18
856.858	284.52
857.242	359.42
857.625	331.33
858.009	352.4
858.392	277.5
858.775	291.54
859.158	244.73
859.541	286.86
859.924	331.33
860.307	336.01
860.69	343.03
861.073	361.76
861.456	251.75
861.838	282.18
862.221	251.75
862.604	298.56
862.986	336.01
863.369	340.69
863.751	328.99
864.133	340.69
864.516	312.61
864.898	331.33
865.28	319.63
865.662	343.03
866.044	389.85
866.426	282.18
866.808	272.82
867.19	314.95
867.572	368.78
867.954	345.38
868.336	286.86
868.717	347.72
869.099	326.65
869.48	328.99
869.862	354.74
870.243	293.88
870.625	286.86
871.006	251.75
871.387	282.18
871.768	340.69
872.149	338.35
872.53	284.52
872.911	345.38
873.292	333.67
873.673	314.95
874.054	366.44
874.435	328.99
874.815	336.01
875.196	368.78
875.577	345.38
875.957	314.95
876.338	328.99
876.718	298.56
877.098	277.5
877.479	326.65
877.859	275.16
878.239	357.08
878.619	350.06
878.999	406.23
879.379	382.82
879.759	324.31
880.139	357.08
880.519	366.44
880.898	286.86
881.278	275.16
881.658	303.25
882.037	375.8
882.417	347.72
882.796	340.69
883.176	277.5
883.555	352.4
883.934	300.91
884.313	277.5
884.693	314.95
885.072	326.65
885.451	354.74
885.83	347.72
886.209	284.52
886.587	396.87
886.966	293.88
887.345	336.01
887.724	310.27
888.102	235.37
888.481	286.86
888.859	300.91
889.238	270.48
889.616	314.95
889.994	277.5
890.373	350.06
890.751	296.22
891.129	364.1
891.507	340.69
891.885	247.07
892.263	305.59
892.641	373.46
893.019	317.29
893.396	291.54
893.774	343.03
894.152	284.52
894.529	275.16
894.907	331.33
895.284	305.59
895.662	368.78
896.039	361.76
896.416	324.31
896.794	314.95
897.171	373.46
897.548	300.91
897.925	307.93
898.302	321.97
898.679	303.25
899.056	289.2
899.433	324.31
899.809	307.93
900.186	366.44
900.563	343.03
900.939	303.25
901.316	312.61
901.692	368.78
902.069	343.03
902.445	321.97
902.821	268.14
903.197	338.35
903.574	291.54
903.95	326.65
904.326	291.54
904.702	298.56
905.078	338.35
905.454	230.69
905.829	293.88
906.205	296.22
906.581	321.97
906.956	305.59
907.332	298.56
907.707	347.72
908.083	350.06
908.458	263.46
908.833	354.74
909.209	312.61
909.584	361.76
909.959	282.18
910.334	263.46
910.709	382.82
911.084	282.18
911.459	293.88
911.834	371.12
912.209	296.22
912.583	279.84
912.958	366.44
913.333	291.54
913.707	275.16
914.082	293.88
914.456	387.5
914.83	347.72
915.205	413.25
915.579	343.03
915.953	296.22
916.327	254.09
916.701	328.99
917.075	300.91
917.449	289.2
917.823	368.78
918.197	263.46
918.571	314.95
918.944	333.67
919.318	345.38
919.692	324.31
920.065	277.5
920.438	321.97
920.812	265.8
921.185	359.42
921.558	293.88
921.932	331.33
922.305	305.59
922.678	352.4
923.051	258.78
923.424	314.95
923.797	357.08
924.17	284.52
924.542	289.2
924.915	331.33
925.288	331.33
925.661	357.08
926.033	286.86
926.406	317.29
926.778	305.59
927.15	310.27
927.523	328.99
927.895	326.65
928.267	336.01
928.639	275.16
929.011	263.46
929.383	347.72
929.755	317.29
930.127	317.29
930.499	272.82
930.871	254.09
931.242	338.35
931.614	336.01
931.986	321.97
932.357	272.82
932.729	277.5
933.1	258.78
933.471	307.93
933.843	347.72
934.214	272.82
934.585	284.52
934.956	256.43
935.327	284.52
935.698	300.91
936.069	389.85
936.44	310.27
936.811	343.03
937.182	328.99
937.552	291.54
937.923	293.88
938.293	300.91
938.664	307.93
939.034	375.8
939.405	328.99
939.775	310.27
940.145	286.86
940.516	289.2
940.886	277.5
941.256	366.44
941.626	319.63
941.996	350.06
942.366	303.25
942.735	321.97
943.105	305.59
943.475	258.78
943.845	314.95
944.214	300.91
944.584	324.31
944.953	340.69
945.323	265.8
945.692	261.12
946.061	338.35
946.43	345.38
946.8	319.63
947.169	352.4
947.538	317.29
947.907	291.54
948.276	359.42
948.645	357.08
949.013	247.07
949.382	293.88
949.751	328.99
950.119	357.08
950.488	268.14
950.857	343.03
951.225	357.08
951.593	300.91
951.962	375.8
952.33	265.8
952.698	317.29
953.066	319.63
953.434	249.41
953.802	305.59
954.17	296.22
954.538	331.33
954.906	300.91
955.274	275.16
955.642	270.48
956.009	298.56
956.377	282.18
956.744	291.54
957.112	305.59
957.479	298.56
957.847	289.2
958.214	286.86
958.581	300.91
958.948	265.8
959.315	317.29
959.683	303.25
960.05	275.16
960.416	352.4
960.783	263.46
961.15	336.01
961.517	319.63
961.884	268.14
962.25	275.16
962.617	328.99
962.983	284.52
963.35	319.63
963.716	303.25
964.082	244.73
964.449	305.59
964.815	357.08
965.181	352.4
965.547	338.35
965.913	272.82
966.279	317.29
966.645	300.91
967.011	312.61
967.377	314.95
967.742	324.31
968.108	307.93
968.474	277.5
968.839	305.59
969.205	303.25
969.57	321.97
969.935	293.88
970.301	312.61
970.666	307.93
971.031	319.63
971.396	371.12
971.761	296.22
972.126	305.59
972.491	340.69
972.856	305.59
973.221	293.88
973.586	368.78
973.95	336.01
974.315	296.22
974.679	326.65
975.044	296.22
975.408	305.59
975.773	303.25
976.137	331.33
976.501	336.01
976.866	298.56
977.23	247.07
977.594	300.91
977.958	244.73
978.322	326.65
978.686	247.07
979.049	371.12
979.413	300.91
979.777	324.31
980.141	284.52
980.504	338.35
980.868	298.56
981.231	319.63
981.595	298.56
981.958	258.78
982.321	375.8
982.684	293.88
983.048	296.22
983.411	307.93
983.774	275.16
984.137	300.91
984.5	268.14
984.862	340.69
985.225	326.65
985.588	291.54
985.951	328.99
986.313	256.43
986.676	268.14
987.038	340.69
987.401	291.54
987.763	319.63
988.125	272.82
988.488	307.93
988.85	343.03
989.212	343.03
989.574	300.91
989.936	268.14
990.298	289.2
990.66	350.06
991.022	289.2
991.383	254.09
991.745	317.29
992.107	303.25
992.468	371.12
992.83	289.2
993.191	263.46
993.553	321.97
993.914	296.22
994.275	293.88
994.637	340.69
994.998	296.22
995.359	314.95
995.72	293.88
996.081	352.4
996.442	338.35
996.803	303.25
997.163	321.97
997.524	254.09
997.885	326.65
998.245	352.4
998.606	343.03
998.966	249.41
999.327	347.72
999.687	331.33
1000.047	303.25
1000.408	237.71
1000.768	307.93
1001.128	277.5
1001.488	254.09
1001.848	343.03
1002.208	324.31
1002.568	279.84
1002.927	261.12
1003.287	328.99
1003.647	345.38
1004.007	373.46
1004.366	312.61
1004.726	261.12
1005.085	272.82
1005.444	298.56
1005.804	331.33
1006.163	385.16
1006.522	284.52
1006.881	305.59
1007.24	340.69
1007.599	319.63
1007.958	338.35
1008.317	361.76
1008.676	303.25
1009.035	310.27
1009.393	277.5
1009.752	249.41
1010.111	289.2
1010.469	310.27
1010.828	324.31
1011.186	340.69
1011.544	270.48
1011.903	270.48
1012.261	277.5
1012.619	298.56
1012.977	254.09
1013.335	331.33
1013.693	331.33
1014.051	326.65
1014.409	275.16
1014.767	319.63
1015.124	305.59
1015.482	343.03
1015.84	340.69
1016.197	357.08
1016.555	277.5
1016.912	251.75
1017.269	279.84
1017.627	310.27
1017.984	319.63
1018.341	350.06
1018.698	279.84
1019.055	368.78
1019.412	282.18
1019.769	343.03
1020.126	272.82
1020.483	317.29
1020.84	291.54
1021.196	328.99
1021.553	303.25
1021.909	310.27
1022.266	279.84
1022.622	324.31
1022.979	305.59
1023.335	357.08
1023.691	343.03
1024.047	293.88
1024.404	298.56
1024.76	284.52
1025.116	319.63
1025.472	303.25
1025.827	254.09
1026.183	312.61
1026.539	357.08
1026.895	324.31
1027.25	211.96
1027.606	258.78
1027.961	333.67
1028.317	328.99
1028.672	312.61
1029.028	307.93
1029.383	368.78
1029.738	251.75
1030.093	319.63
1030.448	310.27
1030.803	303.25
1031.158	291.54
1031.513	289.2
1031.868	282.18
1032.223	291.54
1032.577	300.91
1032.932	343.03
1033.287	256.43
1033.641	230.69
1033.996	343.03
1034.35	324.31
1034.704	331.33
1035.059	291.54
1035.413	331.33
1035.767	331.33
1036.121	331.33
