Data from Al_FLMS009871__175__11-58-50-178.txt Node

Date: Fri Mar 08 11:58:50 CST 2024
User: pe5414po
Spectrometer: FLMS00987
Trigger mode: 0
Integration Time (sec): 1.000000E-1
Scans to average: 1
Electric dark correction enabled: true
Nonlinearity correction enabled: false
Boxcar width: 0
XAxis mode: Wavelengths
Number of Pixels in Spectrum: 2048
>>>>>Begin Spectral Data<<<<<
188.938	-29.84
189.409	-29.84
189.879	-29.84
190.349	-146.87
190.819	-64.95
191.29	-81.33
191.76	-90.7
192.23	-116.44
192.7	-163.25
193.17	-83.67
193.64	-50.91
194.109	-64.95
194.579	7.61
195.049	7.61
195.519	28.67
195.988	54.42
196.458	28.67
196.927	143.36
197.397	91.87
197.866	169.1
198.336	119.95
198.805	201.87
199.274	258.04
199.744	176.13
200.213	192.51
200.682	180.81
201.151	255.7
201.62	260.38
202.089	251.02
202.558	265.07
203.027	281.45
203.495	267.41
203.964	251.02
204.433	236.98
204.902	300.17
205.37	314.22
205.839	279.11
206.307	316.56
206.776	281.45
207.244	239.32
207.712	288.47
208.181	335.28
208.649	358.69
209.117	314.22
209.585	302.51
210.053	363.37
210.521	335.28
210.989	244
211.457	274.43
211.925	332.94
212.393	227.62
212.861	316.56
213.328	262.73
213.796	239.32
214.264	255.7
214.731	295.49
215.199	218.25
215.666	332.94
216.133	265.07
216.601	272.09
217.068	283.79
217.535	267.41
218.003	260.38
218.47	309.54
218.937	272.09
219.404	286.13
219.871	330.6
220.338	321.24
220.805	332.94
221.271	304.85
221.738	274.43
222.205	304.85
222.671	267.41
223.138	330.6
223.605	255.7
224.071	346.98
224.538	283.79
225.004	368.05
225.47	253.36
225.937	253.36
226.403	300.17
226.869	248.68
227.335	290.81
227.801	225.28
228.267	234.64
228.733	304.85
229.199	236.98
229.665	304.85
230.131	267.41
230.597	295.49
231.062	354.01
231.528	300.17
231.994	269.75
232.459	279.11
232.925	260.38
233.39	269.75
233.856	281.45
234.321	283.79
234.786	354.01
235.252	307.2
235.717	391.45
236.182	295.49
236.647	332.94
237.112	321.24
237.577	335.28
238.042	316.56
238.507	311.88
238.972	274.43
239.436	276.77
239.901	311.88
240.366	288.47
240.83	262.73
241.295	295.49
241.76	311.88
242.224	276.77
242.688	279.11
243.153	384.43
243.617	325.92
244.081	272.09
244.545	349.32
245.01	288.47
245.474	300.17
245.938	265.07
246.402	258.04
246.866	229.96
247.33	311.88
247.793	314.22
248.257	332.94
248.721	251.02
249.185	302.51
249.648	267.41
250.112	269.75
250.575	321.24
251.039	293.15
251.502	309.54
251.965	255.7
252.429	358.69
252.892	239.32
253.355	295.49
253.818	351.67
254.281	300.17
254.744	332.94
255.207	316.56
255.67	251.02
256.133	297.83
256.596	239.32
257.059	293.15
257.522	316.56
257.984	354.01
258.447	279.11
258.909	339.96
259.372	300.17
259.834	354.01
260.297	316.56
260.759	307.2
261.221	262.73
261.684	337.62
262.146	316.56
262.608	316.56
263.07	330.6
263.532	215.91
263.994	272.09
264.456	311.88
264.918	307.2
265.38	267.41
265.842	346.98
266.303	295.49
266.765	286.13
267.227	321.24
267.688	382.09
268.15	295.49
268.611	293.15
269.072	293.15
269.534	244
269.995	325.92
270.456	330.6
270.918	244
271.379	375.07
271.84	300.17
272.301	325.92
272.762	290.81
273.223	314.22
273.684	290.81
274.144	272.09
274.605	288.47
275.066	262.73
275.527	293.15
275.987	276.77
276.448	258.04
276.908	354.01
277.369	323.58
277.829	342.3
278.289	288.47
278.75	344.64
279.21	255.7
279.67	293.15
280.13	358.69
280.59	354.01
281.05	297.83
281.51	337.62
281.97	267.41
282.43	346.98
282.89	288.47
283.35	302.51
283.809	318.9
284.269	391.45
284.729	229.96
285.188	354.01
285.648	379.75
286.107	342.3
286.567	349.32
287.026	236.98
287.485	344.64
287.944	316.56
288.404	251.02
288.863	332.94
289.322	272.09
289.781	330.6
290.24	321.24
290.699	265.07
291.158	321.24
291.616	323.58
292.075	361.03
292.534	328.26
292.992	318.9
293.451	309.54
293.91	288.47
294.368	391.45
294.827	244
295.285	290.81
295.743	258.04
296.202	297.83
296.66	339.96
297.118	290.81
297.576	295.49
298.034	274.43
298.492	302.51
298.95	295.49
299.408	272.09
299.866	302.51
300.324	300.17
300.781	286.13
301.239	316.56
301.697	318.9
302.154	300.17
302.612	361.03
303.069	377.41
303.527	358.69
303.984	328.26
304.441	272.09
304.899	307.2
305.356	337.62
305.813	342.3
306.27	328.26
306.727	286.13
307.184	339.96
307.641	323.58
308.098	335.28
308.555	351.67
309.012	269.75
309.468	295.49
309.925	307.2
310.382	330.6
310.838	274.43
311.295	293.15
311.751	344.64
312.208	339.96
312.664	304.85
313.12	304.85
313.577	332.94
314.033	283.79
314.489	323.58
314.945	265.07
315.401	316.56
315.857	274.43
316.313	290.81
316.769	311.88
317.225	384.43
317.681	339.96
318.136	332.94
318.592	309.54
319.048	361.03
319.503	276.77
319.959	276.77
320.414	265.07
320.869	309.54
321.325	321.24
321.78	311.88
322.235	297.83
322.691	281.45
323.146	342.3
323.601	328.26
324.056	272.09
324.511	279.11
324.966	262.73
325.421	339.96
325.875	309.54
326.33	295.49
326.785	293.15
327.24	295.49
327.694	332.94
328.149	234.64
328.603	260.38
329.058	337.62
329.512	335.28
329.966	302.51
330.421	318.9
330.875	321.24
331.329	309.54
331.783	325.92
332.237	272.09
332.691	295.49
333.145	337.62
333.599	337.62
334.053	325.92
334.507	332.94
334.96	316.56
335.414	379.75
335.868	318.9
336.321	330.6
336.775	297.83
337.228	358.69
337.682	297.83
338.135	295.49
338.588	267.41
339.042	311.88
339.495	309.54
339.948	396.14
340.401	269.75
340.854	302.51
341.307	276.77
341.76	309.54
342.213	276.77
342.666	330.6
343.119	346.98
343.571	288.47
344.024	286.13
344.477	358.69
344.929	318.9
345.382	342.3
345.834	302.51
346.287	255.7
346.739	323.58
347.191	351.67
347.644	321.24
348.096	314.22
348.548	337.62
349	283.79
349.452	339.96
349.904	318.9
350.356	330.6
350.808	276.77
351.26	253.36
351.711	328.26
352.163	309.54
352.615	272.09
353.066	241.66
353.518	332.94
353.969	309.54
354.421	248.68
354.872	290.81
355.324	325.92
355.775	316.56
356.226	286.13
356.677	325.92
357.128	318.9
357.579	363.37
358.03	288.47
358.481	246.34
358.932	269.75
359.383	337.62
359.834	316.56
360.285	344.64
360.735	337.62
361.186	400.82
361.637	332.94
362.087	265.07
362.538	279.11
362.988	262.73
363.438	339.96
363.889	325.92
364.339	351.67
364.789	330.6
365.239	365.71
365.689	332.94
366.139	265.07
366.589	325.92
367.039	431.24
367.489	258.04
367.939	382.09
368.389	361.03
368.839	297.83
369.288	300.17
369.738	293.15
370.187	316.56
370.637	325.92
371.086	363.37
371.536	295.49
371.985	314.22
372.434	325.92
372.884	330.6
373.333	363.37
373.782	363.37
374.231	302.51
374.68	269.75
375.129	300.17
375.578	316.56
376.027	344.64
376.475	346.98
376.924	293.15
377.373	309.54
377.822	344.64
378.27	255.7
378.719	342.3
379.167	281.45
379.616	365.71
380.064	316.56
380.512	309.54
380.961	368.05
381.409	304.85
381.857	332.94
382.305	251.02
382.753	365.71
383.201	286.13
383.649	307.2
384.097	297.83
384.545	251.02
384.992	337.62
385.44	349.32
385.888	213.57
386.335	325.92
386.783	396.14
387.231	262.73
387.678	337.62
388.125	335.28
388.573	377.41
389.02	300.17
389.467	286.13
389.914	295.49
390.362	344.64
390.809	332.94
391.256	304.85
391.703	349.32
392.15	386.77
392.596	330.6
393.043	316.56
393.49	316.56
393.937	300.17
394.383	342.3
394.83	365.71
395.276	274.43
395.723	354.01
396.169	281.45
396.616	382.09
397.062	318.9
397.508	318.9
397.954	330.6
398.401	304.85
398.847	391.45
399.293	351.67
399.739	356.35
400.185	365.71
400.631	307.2
401.076	325.92
401.522	339.96
401.968	318.9
402.414	318.9
402.859	293.15
403.305	321.24
403.75	351.67
404.196	361.03
404.641	300.17
405.086	361.03
405.532	361.03
405.977	410.18
406.422	274.43
406.867	318.9
407.312	391.45
407.757	368.05
408.202	311.88
408.647	318.9
409.092	328.26
409.537	283.79
409.982	356.35
410.426	314.22
410.871	309.54
411.316	314.22
411.76	272.09
412.205	309.54
412.649	307.2
413.093	295.49
413.538	330.6
413.982	328.26
414.426	323.58
414.87	288.47
415.314	288.47
415.758	346.98
416.202	309.54
416.646	293.15
417.09	400.82
417.534	363.37
417.978	351.67
418.421	309.54
418.865	323.58
419.309	335.28
419.752	344.64
420.196	377.41
420.639	286.13
421.083	358.69
421.526	302.51
421.969	297.83
422.412	323.58
422.856	358.69
423.299	370.39
423.742	346.98
424.185	354.01
424.628	321.24
425.071	365.71
425.513	358.69
425.956	309.54
426.399	349.32
426.842	309.54
427.284	365.71
427.727	365.71
428.169	365.71
428.612	351.67
429.054	304.85
429.497	356.35
429.939	346.98
430.381	351.67
430.823	405.5
431.265	391.45
431.707	389.11
432.149	337.62
432.591	382.09
433.033	314.22
433.475	368.05
433.917	330.6
434.359	403.16
434.8	391.45
435.242	442.95
435.684	464.01
436.125	379.75
436.567	520.18
437.008	391.45
437.449	407.84
437.891	400.82
438.332	433.58
438.773	358.69
439.214	391.45
439.656	368.05
440.097	400.82
440.538	417.2
440.978	365.71
441.419	344.64
441.86	426.56
442.301	363.37
442.742	400.82
443.182	426.56
443.623	489.76
444.063	396.14
444.504	386.77
444.944	316.56
445.385	433.58
445.825	464.01
446.265	412.52
446.706	445.29
447.146	363.37
447.586	417.2
448.026	433.58
448.466	431.24
448.906	400.82
449.346	419.54
449.786	452.31
450.225	398.48
450.665	398.48
451.105	382.09
451.544	428.9
451.984	393.8
452.424	391.45
452.863	438.27
453.302	396.14
453.742	358.69
454.181	356.35
454.62	386.77
455.059	438.27
455.499	375.07
455.938	393.8
456.377	290.81
456.816	332.94
457.254	433.58
457.693	431.24
458.132	384.43
458.571	361.03
459.01	452.31
459.448	407.84
459.887	389.11
460.325	435.92
460.764	349.32
461.202	370.39
461.641	368.05
462.079	438.27
462.517	391.45
462.955	407.84
463.393	405.5
463.832	346.98
464.27	363.37
464.708	414.86
465.145	354.01
465.583	323.58
466.021	384.43
466.459	349.32
466.897	398.48
467.334	428.9
467.772	424.22
468.209	337.62
468.647	295.49
469.084	339.96
469.522	372.73
469.959	375.07
470.396	375.07
470.833	363.37
471.271	328.26
471.708	339.96
472.145	407.84
472.582	318.9
473.019	349.32
473.456	309.54
473.892	361.03
474.329	307.2
474.766	375.07
475.202	389.11
475.639	379.75
476.076	386.77
476.512	382.09
476.949	403.16
477.385	316.56
477.821	321.24
478.258	370.39
478.694	391.45
479.13	365.71
479.566	396.14
480.002	351.67
480.438	372.73
480.874	382.09
481.31	332.94
481.746	351.67
482.181	279.11
482.617	344.64
483.053	358.69
483.488	396.14
483.924	386.77
484.36	382.09
484.795	400.82
485.23	351.67
485.666	435.92
486.101	464.01
486.536	396.14
486.971	424.22
487.407	330.6
487.842	414.86
488.277	363.37
488.712	389.11
489.146	431.24
489.581	417.2
490.016	375.07
490.451	368.05
490.885	428.9
491.32	435.92
491.755	391.45
492.189	389.11
492.624	459.33
493.058	405.5
493.492	368.05
493.927	386.77
494.361	368.05
494.795	375.07
495.229	398.48
495.663	398.48
496.097	346.98
496.531	356.35
496.965	412.52
497.399	410.18
497.833	311.88
498.266	356.35
498.7	389.11
499.134	417.2
499.567	414.86
500.001	314.22
500.434	389.11
500.868	358.69
501.301	377.41
501.734	445.29
502.168	339.96
502.601	349.32
503.034	337.62
503.467	361.03
503.9	354.01
504.333	398.48
504.766	365.71
505.199	356.35
505.632	391.45
506.064	339.96
506.497	386.77
506.93	346.98
507.362	304.85
507.795	325.92
508.227	304.85
508.66	356.35
509.092	398.48
509.524	438.27
509.956	438.27
510.389	363.37
510.821	393.8
511.253	335.28
511.685	372.73
512.117	363.37
512.549	377.41
512.981	412.52
513.412	424.22
513.844	321.24
514.276	396.14
514.707	384.43
515.139	426.56
515.571	445.29
516.002	351.67
516.433	375.07
516.865	431.24
517.296	377.41
517.727	358.69
518.159	358.69
518.59	361.03
519.021	417.2
519.452	393.8
519.883	417.2
520.314	365.71
520.744	447.63
521.175	372.73
521.606	290.81
522.037	349.32
522.467	365.71
522.898	396.14
523.328	410.18
523.759	389.11
524.189	351.67
524.62	412.52
525.05	487.42
525.48	405.5
525.91	386.77
526.341	386.77
526.771	384.43
527.201	426.56
527.631	417.2
528.061	431.24
528.49	365.71
528.92	351.67
529.35	325.92
529.78	414.86
530.209	403.16
530.639	370.39
531.068	410.18
531.498	414.86
531.927	421.88
532.357	426.56
532.786	405.5
533.215	396.14
533.644	393.8
534.074	356.35
534.503	330.6
534.932	375.07
535.361	379.75
535.79	342.3
536.218	389.11
536.647	384.43
537.076	384.43
537.505	391.45
537.933	368.05
538.362	307.2
538.79	449.97
539.219	417.2
539.647	442.95
540.076	435.92
540.504	461.67
540.932	566.99
541.36	583.38
541.788	613.81
542.217	653.59
542.645	632.53
543.073	695.72
543.5	716.79
543.928	625.51
544.356	588.06
544.784	639.55
545.211	684.02
545.639	686.36
546.067	639.55
546.494	592.74
546.922	482.74
547.349	510.82
547.776	515.5
548.204	440.61
548.631	384.43
549.058	424.22
549.485	442.95
549.912	431.24
550.339	468.69
550.766	459.33
551.193	496.78
551.62	417.2
552.047	468.69
552.474	459.33
552.9	398.48
553.327	398.48
553.754	442.95
554.18	478.05
554.607	431.24
555.033	396.14
555.459	316.56
555.886	370.39
556.312	431.24
556.738	384.43
557.164	370.39
557.59	368.05
558.016	368.05
558.442	389.11
558.868	323.58
559.294	391.45
559.72	389.11
560.145	389.11
560.571	428.9
560.997	377.41
561.422	372.73
561.848	391.45
562.273	391.45
562.699	368.05
563.124	379.75
563.549	414.86
563.974	349.32
564.4	428.9
564.825	393.8
565.25	424.22
565.675	351.67
566.1	346.98
566.525	419.54
566.95	370.39
567.374	304.85
567.799	410.18
568.224	421.88
568.648	330.6
569.073	372.73
569.497	382.09
569.922	391.45
570.346	403.16
570.771	361.03
571.195	382.09
571.619	330.6
572.043	330.6
572.467	361.03
572.891	405.5
573.315	438.27
573.739	379.75
574.163	286.13
574.587	354.01
575.011	314.22
575.435	363.37
575.858	396.14
576.282	400.82
576.705	405.5
577.129	466.35
577.552	386.77
577.976	384.43
578.399	438.27
578.822	384.43
579.245	442.95
579.669	459.33
580.092	417.2
580.515	438.27
580.938	398.48
581.361	421.88
581.784	417.2
582.206	438.27
582.629	471.03
583.052	391.45
583.474	449.97
583.897	438.27
584.32	503.8
584.742	435.92
585.165	442.95
585.587	435.92
586.009	358.69
586.431	489.76
586.854	461.67
587.276	482.74
587.698	419.54
588.12	435.92
588.542	464.01
588.964	431.24
589.386	442.95
589.807	461.67
590.229	368.05
590.651	405.5
591.073	361.03
591.494	398.48
591.916	370.39
592.337	407.84
592.759	375.07
593.18	386.77
593.601	456.99
594.022	386.77
594.444	414.86
594.865	389.11
595.286	459.33
595.707	335.28
596.128	365.71
596.549	431.24
596.97	386.77
597.39	375.07
597.811	344.64
598.232	356.35
598.652	403.16
599.073	365.71
599.494	342.3
599.914	410.18
600.334	346.98
600.755	375.07
601.175	365.71
601.595	316.56
602.015	377.41
602.436	356.35
602.856	492.1
603.276	379.75
603.696	410.18
604.115	379.75
604.535	304.85
604.955	396.14
605.375	358.69
605.794	447.63
606.214	377.41
606.634	335.28
607.053	412.52
607.473	370.39
607.892	419.54
608.311	421.88
608.731	442.95
609.15	421.88
609.569	503.8
609.988	667.64
610.407	693.38
610.826	702.75
611.245	763.6
611.664	719.13
612.083	679.34
612.501	618.49
612.92	552.95
613.339	522.52
613.757	494.44
614.176	499.12
614.594	468.69
615.013	417.2
615.431	391.45
615.85	414.86
616.268	403.16
616.686	412.52
617.104	382.09
617.522	438.27
617.94	431.24
618.358	365.71
618.776	356.35
619.194	410.18
619.612	410.18
620.03	403.16
620.447	403.16
620.865	403.16
621.282	405.5
621.7	358.69
622.117	365.71
622.535	379.75
622.952	337.62
623.369	389.11
623.787	403.16
624.204	342.3
624.621	396.14
625.038	370.39
625.455	349.32
625.872	412.52
626.289	349.32
626.706	365.71
627.123	335.28
627.539	318.9
627.956	281.45
628.373	403.16
628.789	421.88
629.206	400.82
629.622	346.98
630.038	384.43
630.455	379.75
630.871	342.3
631.287	382.09
631.703	346.98
632.12	342.3
632.536	339.96
632.952	302.51
633.368	330.6
633.783	393.8
634.199	386.77
634.615	384.43
635.031	361.03
635.446	365.71
635.862	323.58
636.277	384.43
636.693	342.3
637.108	325.92
637.524	403.16
637.939	363.37
638.354	356.35
638.77	316.56
639.185	363.37
639.6	342.3
640.015	349.32
640.43	346.98
640.845	386.77
641.259	241.66
641.674	321.24
642.089	332.94
642.504	300.17
642.918	314.22
643.333	288.47
643.747	332.94
644.162	349.32
644.576	351.67
644.991	339.96
645.405	330.6
645.819	358.69
646.233	426.56
646.647	372.73
647.061	379.75
647.475	337.62
647.889	328.26
648.303	372.73
648.717	330.6
649.131	321.24
649.545	281.45
649.958	318.9
650.372	302.51
650.785	370.39
651.199	290.81
651.612	318.9
652.026	337.62
652.439	342.3
652.852	311.88
653.266	300.17
653.679	351.67
654.092	365.71
654.505	307.2
654.918	309.54
655.331	328.26
655.744	302.51
656.156	393.8
656.569	358.69
656.982	328.26
657.394	314.22
657.807	361.03
658.22	370.39
658.632	356.35
659.044	417.2
659.457	288.47
659.869	358.69
660.281	372.73
660.693	314.22
661.106	311.88
661.518	293.15
661.93	332.94
662.342	325.92
662.754	354.01
663.165	361.03
663.577	290.81
663.989	339.96
664.401	354.01
664.812	358.69
665.224	316.56
665.635	323.58
666.047	286.13
666.458	349.32
666.869	375.07
667.281	311.88
667.692	339.96
668.103	344.64
668.514	286.13
668.925	332.94
669.336	332.94
669.747	314.22
670.158	372.73
670.569	330.6
670.979	344.64
671.39	330.6
671.801	358.69
672.211	344.64
672.622	328.26
673.032	321.24
673.443	314.22
673.853	342.3
674.263	377.41
674.674	351.67
675.084	346.98
675.494	349.32
675.904	339.96
676.314	337.62
676.724	316.56
677.134	318.9
677.544	375.07
677.953	318.9
678.363	323.58
678.773	391.45
679.182	332.94
679.592	375.07
680.001	314.22
680.411	265.07
680.82	288.47
681.23	335.28
681.639	323.58
682.048	325.92
682.457	379.75
682.866	368.05
683.275	335.28
683.684	344.64
684.093	293.15
684.502	335.28
684.911	356.35
685.32	344.64
685.728	396.14
686.137	323.58
686.546	354.01
686.954	346.98
687.363	302.51
687.771	365.71
688.179	339.96
688.588	311.88
688.996	351.67
689.404	318.9
689.812	356.35
690.22	314.22
690.628	328.26
691.036	288.47
691.444	295.49
691.852	318.9
692.26	354.01
692.667	389.11
693.075	372.73
693.483	391.45
693.89	328.26
694.298	358.69
694.705	302.51
695.112	349.32
695.52	363.37
695.927	332.94
696.334	346.98
696.741	337.62
697.148	323.58
697.555	316.56
697.962	265.07
698.369	323.58
698.776	295.49
699.183	325.92
699.59	344.64
699.996	375.07
700.403	325.92
700.81	297.83
701.216	344.64
701.623	316.56
702.029	300.17
702.435	372.73
702.842	377.41
703.248	293.15
703.654	321.24
704.06	286.13
704.466	339.96
704.872	281.45
705.278	304.85
705.684	337.62
706.09	325.92
706.496	384.43
706.901	370.39
707.307	325.92
707.712	351.67
708.118	330.6
708.523	389.11
708.929	358.69
709.334	241.66
709.74	288.47
710.145	356.35
710.55	269.75
710.955	384.43
711.36	344.64
711.765	358.69
712.17	332.94
712.575	349.32
712.98	861.9
713.385	382.09
713.789	286.13
714.194	325.92
714.599	370.39
715.003	318.9
715.408	321.24
715.812	368.05
716.217	325.92
716.621	349.32
717.025	393.8
717.429	332.94
717.833	272.09
718.238	330.6
718.642	398.48
719.046	389.11
719.449	372.73
719.853	328.26
720.257	272.09
720.661	321.24
721.065	349.32
721.468	358.69
721.872	398.48
722.275	304.85
722.679	346.98
723.082	375.07
723.485	332.94
723.889	358.69
724.292	293.15
724.695	309.54
725.098	337.62
725.501	269.75
725.904	323.58
726.307	314.22
726.71	370.39
727.113	314.22
727.516	269.75
727.918	293.15
728.321	321.24
728.724	283.79
729.126	311.88
729.529	302.51
729.931	370.39
730.333	304.85
730.736	290.81
731.138	356.35
731.54	351.67
731.942	321.24
732.344	344.64
732.746	323.58
733.148	314.22
733.55	405.5
733.952	323.58
734.354	321.24
734.756	339.96
735.157	302.51
735.559	351.67
735.96	344.64
736.362	361.03
736.763	337.62
737.165	244
737.566	321.24
737.967	288.47
738.368	354.01
738.77	337.62
739.171	290.81
739.572	276.77
739.973	349.32
740.374	354.01
740.774	332.94
741.175	328.26
741.576	335.28
741.977	449.97
742.377	368.05
742.778	307.2
743.178	356.35
743.579	307.2
743.979	318.9
744.379	346.98
744.78	311.88
745.18	328.26
745.58	368.05
745.98	365.71
746.38	384.43
746.78	300.17
747.18	337.62
747.58	276.77
747.98	337.62
748.38	351.67
748.779	342.3
749.179	318.9
749.578	372.73
749.978	370.39
750.377	335.28
750.777	265.07
751.176	342.3
751.575	316.56
751.975	325.92
752.374	246.34
752.773	300.17
753.172	279.11
753.571	377.41
753.97	372.73
754.369	361.03
754.768	286.13
755.166	288.47
755.565	351.67
755.964	325.92
756.362	424.22
756.761	335.28
757.159	377.41
757.558	325.92
757.956	391.45
758.354	276.77
758.753	288.47
759.151	384.43
759.549	236.98
759.947	251.02
760.345	363.37
760.743	321.24
761.141	337.62
761.539	272.09
761.936	251.02
762.334	344.64
762.732	318.9
763.129	351.67
763.527	384.43
763.924	335.28
764.322	316.56
764.719	267.41
765.117	302.51
765.514	314.22
765.911	358.69
766.308	358.69
766.705	335.28
767.102	375.07
767.499	335.28
767.896	328.26
768.293	290.81
768.69	241.66
769.086	300.17
769.483	316.56
769.88	272.09
770.276	309.54
770.673	349.32
771.069	375.07
771.466	354.01
771.862	323.58
772.258	318.9
772.654	403.16
773.05	276.77
773.447	321.24
773.843	321.24
774.239	323.58
774.634	337.62
775.03	372.73
775.426	286.13
775.822	351.67
776.218	302.51
776.613	272.09
777.009	363.37
777.404	325.92
777.8	354.01
778.195	337.62
778.59	365.71
778.986	354.01
779.381	349.32
779.776	335.28
780.171	281.45
780.566	375.07
780.961	307.2
781.356	346.98
781.751	251.02
782.146	304.85
782.54	323.58
782.935	297.83
783.33	361.03
783.724	283.79
784.119	354.01
784.513	339.96
784.908	358.69
785.302	302.51
785.696	351.67
786.09	339.96
786.485	253.36
786.879	309.54
787.273	346.98
787.667	316.56
788.061	295.49
788.454	328.26
788.848	309.54
789.242	351.67
789.636	316.56
790.029	279.11
790.423	272.09
790.816	276.77
791.21	311.88
791.603	325.92
791.997	344.64
792.39	318.9
792.783	335.28
793.176	262.73
793.569	307.2
793.962	302.51
794.355	290.81
794.748	372.73
795.141	295.49
795.534	293.15
795.927	304.85
796.319	346.98
796.712	358.69
797.105	269.75
797.497	328.26
797.89	288.47
798.282	300.17
798.674	318.9
799.067	321.24
799.459	286.13
799.851	330.6
800.243	318.9
800.635	304.85
801.027	323.58
801.419	335.28
801.811	281.45
802.203	328.26
802.594	293.15
802.986	335.28
803.378	316.56
803.769	290.81
804.161	351.67
804.552	323.58
804.944	274.43
805.335	354.01
805.726	342.3
806.118	325.92
806.509	246.34
806.9	337.62
807.291	325.92
807.682	265.07
808.073	321.24
808.464	351.67
808.855	370.39
809.245	316.56
809.636	328.26
810.027	337.62
810.417	274.43
810.808	368.05
811.198	293.15
811.589	375.07
811.979	309.54
812.369	258.04
812.759	379.75
813.15	389.11
813.54	342.3
813.93	314.22
814.32	251.02
814.71	368.05
815.1	311.88
815.489	358.69
815.879	316.56
816.269	279.11
816.658	342.3
817.048	304.85
817.438	337.62
817.827	274.43
818.216	339.96
818.606	330.6
818.995	302.51
819.384	379.75
819.773	314.22
820.163	258.04
820.552	342.3
820.941	309.54
821.33	311.88
821.718	321.24
822.107	297.83
822.496	335.28
822.885	314.22
823.273	253.36
823.662	384.43
824.05	349.32
824.439	302.51
824.827	339.96
825.216	244
825.604	276.77
825.992	318.9
826.38	253.36
826.768	346.98
827.156	276.77
827.544	325.92
827.932	253.36
828.32	337.62
828.708	300.17
829.096	344.64
829.483	330.6
829.871	328.26
830.259	365.71
830.646	309.54
831.034	358.69
831.421	403.16
831.808	384.43
832.196	356.35
832.583	328.26
832.97	351.67
833.357	295.49
833.744	426.56
834.131	281.45
834.518	332.94
834.905	288.47
835.292	302.51
835.678	311.88
836.065	318.9
836.452	335.28
836.838	302.51
837.225	356.35
837.611	318.9
837.998	258.04
838.384	344.64
838.77	318.9
839.157	361.03
839.543	314.22
839.929	297.83
840.315	307.2
840.701	361.03
841.087	344.64
841.473	283.79
841.858	311.88
842.244	311.88
842.63	330.6
843.015	363.37
843.401	641.89
843.787	332.94
844.172	365.71
844.557	318.9
844.943	396.14
845.328	400.82
845.713	288.47
846.098	328.26
846.483	365.71
846.868	337.62
847.253	400.82
847.638	344.64
848.023	323.58
848.408	300.17
848.793	361.03
849.177	307.2
849.562	316.56
849.947	349.32
850.331	328.26
850.715	283.79
851.1	325.92
851.484	321.24
851.868	356.35
852.253	290.81
852.637	309.54
853.021	330.6
853.405	309.54
853.789	234.64
854.173	337.62
854.557	370.39
854.94	300.17
855.324	290.81
855.708	318.9
856.091	300.17
856.475	330.6
856.858	244
857.242	342.3
857.625	314.22
858.009	262.73
858.392	309.54
858.775	375.07
859.158	358.69
859.541	302.51
859.924	342.3
860.307	295.49
860.69	356.35
861.073	351.67
861.456	332.94
861.838	316.56
862.221	382.09
862.604	379.75
862.986	349.32
863.369	335.28
863.751	288.47
864.133	349.32
864.516	307.2
864.898	314.22
865.28	382.09
865.662	293.15
866.044	290.81
866.426	297.83
866.808	265.07
867.19	368.05
867.572	351.67
867.954	258.04
868.336	293.15
868.717	290.81
869.099	295.49
869.48	316.56
869.862	354.01
870.243	290.81
870.625	314.22
871.006	269.75
871.387	368.05
871.768	325.92
872.149	295.49
872.53	307.2
872.911	288.47
873.292	286.13
873.673	293.15
874.054	265.07
874.435	311.88
874.815	260.38
875.196	297.83
875.577	295.49
875.957	276.77
876.338	309.54
876.718	344.64
877.098	339.96
877.479	185.49
877.859	358.69
878.239	328.26
878.619	358.69
878.999	370.39
879.379	344.64
879.759	351.67
880.139	323.58
880.519	342.3
880.898	339.96
881.278	363.37
881.658	297.83
882.037	349.32
882.417	339.96
882.796	309.54
883.176	330.6
883.555	302.51
883.934	375.07
884.313	332.94
884.693	272.09
885.072	314.22
885.451	346.98
885.83	318.9
886.209	330.6
886.587	351.67
886.966	265.07
887.345	290.81
887.724	337.62
888.102	272.09
888.481	297.83
888.859	323.58
889.238	337.62
889.616	267.41
889.994	323.58
890.373	297.83
890.751	330.6
891.129	290.81
891.507	363.37
891.885	307.2
892.263	410.18
892.641	375.07
893.019	351.67
893.396	302.51
893.774	311.88
894.152	325.92
894.529	328.26
894.907	339.96
895.284	276.77
895.662	286.13
896.039	368.05
896.416	304.85
896.794	309.54
897.171	442.95
897.548	297.83
897.925	332.94
898.302	316.56
898.679	290.81
899.056	290.81
899.433	311.88
899.809	344.64
900.186	274.43
900.563	300.17
900.939	262.73
901.316	332.94
901.692	330.6
902.069	342.3
902.445	314.22
902.821	361.03
903.197	354.01
903.574	351.67
903.95	396.14
904.326	335.28
904.702	288.47
905.078	293.15
905.454	335.28
905.829	323.58
906.205	283.79
906.581	330.6
906.956	290.81
907.332	349.32
907.707	358.69
908.083	346.98
908.458	351.67
908.833	323.58
909.209	375.07
909.584	365.71
909.959	361.03
910.334	321.24
910.709	363.37
911.084	328.26
911.459	379.75
911.834	251.02
912.209	300.17
912.583	344.64
912.958	239.32
913.333	316.56
913.707	335.28
914.082	342.3
914.456	335.28
914.83	396.14
915.205	330.6
915.579	279.11
915.953	288.47
916.327	335.28
916.701	290.81
917.075	346.98
917.449	260.38
917.823	311.88
918.197	297.83
918.571	276.77
918.944	318.9
919.318	293.15
919.692	346.98
920.065	232.3
920.438	335.28
920.812	304.85
921.185	267.41
921.558	290.81
921.932	260.38
922.305	269.75
922.678	325.92
923.051	358.69
923.424	328.26
923.797	325.92
924.17	330.6
924.542	311.88
924.915	337.62
925.288	328.26
925.661	297.83
926.033	314.22
926.406	262.73
926.778	351.67
927.15	332.94
927.523	321.24
927.895	255.7
928.267	309.54
928.639	302.51
929.011	274.43
929.383	304.85
929.755	337.62
930.127	248.68
930.499	314.22
930.871	300.17
931.242	283.79
931.614	262.73
931.986	269.75
932.357	279.11
932.729	276.77
933.1	318.9
933.471	248.68
933.843	311.88
934.214	255.7
934.585	335.28
934.956	323.58
935.327	382.09
935.698	323.58
936.069	337.62
936.44	339.96
936.811	297.83
937.182	354.01
937.552	368.05
937.923	351.67
938.293	281.45
938.664	325.92
939.034	251.02
939.405	281.45
939.775	349.32
940.145	262.73
940.516	321.24
940.886	321.24
941.256	356.35
941.626	295.49
941.996	375.07
942.366	239.32
942.735	342.3
943.105	365.71
943.475	293.15
943.845	286.13
944.214	377.41
944.584	274.43
944.953	332.94
945.323	337.62
945.692	316.56
946.061	314.22
946.43	337.62
946.8	293.15
947.169	417.2
947.538	354.01
947.907	302.51
948.276	337.62
948.645	361.03
949.013	260.38
949.382	325.92
949.751	300.17
950.119	361.03
950.488	274.43
950.857	382.09
951.225	325.92
951.593	300.17
951.962	325.92
952.33	342.3
952.698	325.92
953.066	363.37
953.434	258.04
953.802	330.6
954.17	307.2
954.538	279.11
954.906	330.6
955.274	307.2
955.642	272.09
956.009	297.83
956.377	358.69
956.744	323.58
957.112	321.24
957.479	346.98
957.847	396.14
958.214	286.13
958.581	265.07
958.948	290.81
959.315	370.39
959.683	295.49
960.05	400.82
960.416	258.04
960.783	346.98
961.15	316.56
961.517	297.83
961.884	339.96
962.25	288.47
962.617	276.77
962.983	316.56
963.35	269.75
963.716	356.35
964.082	339.96
964.449	368.05
964.815	283.79
965.181	311.88
965.547	417.2
965.913	375.07
966.279	309.54
966.645	304.85
967.011	295.49
967.377	307.2
967.742	309.54
968.108	300.17
968.474	297.83
968.839	321.24
969.205	335.28
969.57	276.77
969.935	323.58
970.301	307.2
970.666	314.22
971.031	321.24
971.396	297.83
971.761	321.24
972.126	339.96
972.491	236.98
972.856	304.85
973.221	344.64
973.586	281.45
973.95	304.85
974.315	314.22
974.679	297.83
975.044	302.51
975.408	318.9
975.773	386.77
976.137	255.7
976.501	232.3
976.866	351.67
977.23	300.17
977.594	304.85
977.958	356.35
978.322	316.56
978.686	260.38
979.049	300.17
979.413	269.75
979.777	253.36
980.141	260.38
980.504	283.79
980.868	384.43
981.231	330.6
981.595	351.67
981.958	335.28
982.321	407.84
982.684	356.35
983.048	346.98
983.411	293.15
983.774	293.15
984.137	307.2
984.5	365.71
984.862	309.54
985.225	351.67
985.588	304.85
985.951	321.24
986.313	300.17
986.676	332.94
987.038	325.92
987.401	288.47
987.763	346.98
988.125	328.26
988.488	368.05
988.85	279.11
989.212	246.34
989.574	318.9
989.936	290.81
990.298	253.36
990.66	349.32
991.022	309.54
991.383	356.35
991.745	323.58
992.107	328.26
992.468	342.3
992.83	435.92
993.191	304.85
993.553	377.41
993.914	276.77
994.275	368.05
994.637	288.47
994.998	321.24
995.359	272.09
995.72	368.05
996.081	346.98
996.442	339.96
996.803	309.54
997.163	342.3
997.524	379.75
997.885	300.17
998.245	295.49
998.606	295.49
998.966	251.02
999.327	354.01
999.687	300.17
1000.047	279.11
1000.408	339.96
1000.768	307.2
1001.128	339.96
1001.488	281.45
1001.848	363.37
1002.208	290.81
1002.568	302.51
1002.927	328.26
1003.287	332.94
1003.647	349.32
1004.007	370.39
1004.366	304.85
1004.726	351.67
1005.085	349.32
1005.444	318.9
1005.804	297.83
1006.163	316.56
1006.522	279.11
1006.881	328.26
1007.24	342.3
1007.599	358.69
1007.958	279.11
1008.317	321.24
1008.676	318.9
1009.035	302.51
1009.393	323.58
1009.752	279.11
1010.111	342.3
1010.469	267.41
1010.828	328.26
1011.186	293.15
1011.544	279.11
1011.903	339.96
1012.261	335.28
1012.619	309.54
1012.977	346.98
1013.335	311.88
1013.693	407.84
1014.051	293.15
1014.409	356.35
1014.767	272.09
1015.124	398.48
1015.482	349.32
1015.84	300.17
1016.197	365.71
1016.555	314.22
1016.912	274.43
1017.269	384.43
1017.627	272.09
1017.984	300.17
1018.341	279.11
1018.698	300.17
1019.055	318.9
1019.412	276.77
1019.769	248.68
1020.126	302.51
1020.483	300.17
1020.84	323.58
1021.196	368.05
1021.553	330.6
1021.909	342.3
1022.266	361.03
1022.622	283.79
1022.979	365.71
1023.335	351.67
1023.691	251.02
1024.047	414.86
1024.404	318.9
1024.76	314.22
1025.116	260.38
1025.472	293.15
1025.827	248.68
1026.183	328.26
1026.539	354.01
1026.895	363.37
1027.25	323.58
1027.606	302.51
1027.961	276.77
1028.317	255.7
1028.672	325.92
1029.028	279.11
1029.383	276.77
1029.738	325.92
1030.093	300.17
1030.448	307.2
1030.803	349.32
1031.158	251.02
1031.513	349.32
1031.868	304.85
1032.223	302.51
1032.577	286.13
1032.932	311.88
1033.287	267.41
1033.641	307.2
1033.996	281.45
1034.35	321.24
1034.704	342.3
1035.059	302.51
1035.413	377.41
1035.767	377.41
1036.121	377.41
