Data from Al_FLMS009871__162__11-58-48-878.txt Node

Date: Fri Mar 08 11:58:48 CST 2024
User: pe5414po
Spectrometer: FLMS00987
Trigger mode: 0
Integration Time (sec): 1.000000E-1
Scans to average: 1
Electric dark correction enabled: true
Nonlinearity correction enabled: false
Boxcar width: 0
XAxis mode: Wavelengths
Number of Pixels in Spectrum: 2048
>>>>>Begin Spectral Data<<<<<
188.938	-77.24
189.409	-77.24
189.879	-77.24
190.349	-110.01
190.819	-77.24
191.29	-65.54
191.76	-79.58
192.23	-156.82
192.7	-105.32
193.17	-32.77
193.64	-42.13
194.109	-49.15
194.579	16.38
195.049	-65.54
195.519	-39.79
195.988	119.37
196.458	56.17
196.927	121.71
197.397	56.17
197.866	154.48
198.336	112.35
198.805	74.9
199.274	205.97
199.744	182.56
200.213	241.08
200.682	126.39
201.151	112.35
201.62	220.01
202.089	250.44
202.558	238.73
203.027	241.08
203.495	205.97
203.964	297.25
204.433	262.14
204.902	273.84
205.37	294.91
205.839	177.88
206.307	318.31
206.776	290.23
207.244	259.8
207.712	297.25
208.181	276.18
208.649	346.4
209.117	243.42
209.585	313.63
210.053	266.82
210.521	325.33
210.989	266.82
211.457	201.29
211.925	283.2
212.393	301.93
212.861	285.55
213.328	245.76
213.796	297.25
214.264	245.76
214.731	315.97
215.199	301.93
215.666	264.48
216.133	234.05
216.601	245.76
217.068	248.1
217.535	269.16
218.003	287.89
218.47	294.91
218.937	269.16
219.404	259.8
219.871	365.12
220.338	248.1
220.805	222.35
221.271	159.16
221.738	280.86
222.205	238.73
222.671	184.9
223.138	262.14
223.605	243.42
224.071	266.82
224.538	222.35
225.004	248.1
225.47	276.18
225.937	252.78
226.403	250.44
226.869	252.78
227.335	241.08
227.801	297.25
228.267	248.1
228.733	308.95
229.199	271.5
229.665	252.78
230.131	238.73
230.597	283.2
231.062	290.23
231.528	299.59
231.994	257.46
232.459	273.84
232.925	194.26
233.39	290.23
233.856	285.55
234.321	264.48
234.786	259.8
235.252	248.1
235.717	196.6
236.182	250.44
236.647	301.93
237.112	210.65
237.577	241.08
238.042	243.42
238.507	257.46
238.972	269.16
239.436	278.52
239.901	248.1
240.366	220.01
240.83	273.84
241.295	280.86
241.76	285.55
242.224	212.99
242.688	264.48
243.153	344.06
243.617	341.72
244.081	231.71
244.545	248.1
245.01	287.89
245.474	252.78
245.938	264.48
246.402	271.5
246.866	278.52
247.33	238.73
247.793	262.14
248.257	311.29
248.721	243.42
249.185	243.42
249.648	269.16
250.112	271.5
250.575	283.2
251.039	248.1
251.502	248.1
251.965	299.59
252.429	238.73
252.892	236.39
253.355	227.03
253.818	217.67
254.281	304.27
254.744	376.83
255.207	217.67
255.67	203.63
256.133	297.25
256.596	278.52
257.059	259.8
257.522	325.33
257.984	271.5
258.447	266.82
258.909	238.73
259.372	299.59
259.834	294.91
260.297	262.14
260.759	198.95
261.221	236.39
261.684	322.99
262.146	283.2
262.608	224.69
263.07	287.89
263.532	283.2
263.994	259.8
264.456	241.08
264.918	252.78
265.38	337.04
265.842	273.84
266.303	313.63
266.765	313.63
267.227	252.78
267.688	252.78
268.15	231.71
268.611	292.57
269.072	273.84
269.534	262.14
269.995	318.31
270.456	294.91
270.918	320.65
271.379	278.52
271.84	285.55
272.301	243.42
272.762	245.76
273.223	245.76
273.684	308.95
274.144	250.44
274.605	280.86
275.066	320.65
275.527	297.25
275.987	341.72
276.448	332.36
276.908	266.82
277.369	330.02
277.829	332.36
278.289	330.02
278.75	311.29
279.21	301.93
279.67	297.25
280.13	301.93
280.59	278.52
281.05	283.2
281.51	306.61
281.97	290.23
282.43	311.29
282.89	257.46
283.35	297.25
283.809	299.59
284.269	276.18
284.729	301.93
285.188	301.93
285.648	290.23
286.107	294.91
286.567	306.61
287.026	292.57
287.485	241.08
287.944	308.95
288.404	325.33
288.863	290.23
289.322	278.52
289.781	238.73
290.24	234.05
290.699	266.82
291.158	304.27
291.616	248.1
292.075	315.97
292.534	262.14
292.992	311.29
293.451	259.8
293.91	236.39
294.368	308.95
294.827	201.29
295.285	236.39
295.743	257.46
296.202	287.89
296.66	304.27
297.118	330.02
297.576	339.38
298.034	334.7
298.492	220.01
298.95	250.44
299.408	241.08
299.866	339.38
300.324	262.14
300.781	217.67
301.239	355.76
301.697	248.1
302.154	292.57
302.612	294.91
303.069	315.97
303.527	299.59
303.984	311.29
304.441	264.48
304.899	301.93
305.356	271.5
305.813	248.1
306.27	358.1
306.727	334.7
307.184	297.25
307.641	332.36
308.098	292.57
308.555	287.89
309.012	266.82
309.468	299.59
309.925	344.06
310.382	315.97
310.838	229.37
311.295	283.2
311.751	332.36
312.208	299.59
312.664	266.82
313.12	264.48
313.577	339.38
314.033	306.61
314.489	257.46
314.945	376.83
315.401	301.93
315.857	297.25
316.313	308.95
316.769	362.78
317.225	330.02
317.681	353.42
318.136	257.46
318.592	271.5
319.048	280.86
319.503	339.38
319.959	290.23
320.414	283.2
320.869	238.73
321.325	285.55
321.78	320.65
322.235	248.1
322.691	231.71
323.146	250.44
323.601	264.48
324.056	283.2
324.511	278.52
324.966	337.04
325.421	257.46
325.875	348.74
326.33	320.65
326.785	322.99
327.24	266.82
327.694	269.16
328.149	339.38
328.603	301.93
329.058	222.35
329.512	325.33
329.966	346.4
330.421	330.02
330.875	325.33
331.329	322.99
331.783	365.12
332.237	299.59
332.691	320.65
333.145	294.91
333.599	278.52
334.053	276.18
334.507	355.76
334.96	301.93
335.414	287.89
335.868	332.36
336.321	339.38
336.775	327.67
337.228	325.33
337.682	276.18
338.135	269.16
338.588	344.06
339.042	308.95
339.495	294.91
339.948	311.29
340.401	332.36
340.854	337.04
341.307	341.72
341.76	283.2
342.213	287.89
342.666	250.44
343.119	341.72
343.571	315.97
344.024	287.89
344.477	360.44
344.929	285.55
345.382	330.02
345.834	304.27
346.287	252.78
346.739	278.52
347.191	320.65
347.644	259.8
348.096	353.42
348.548	318.31
349	266.82
349.452	311.29
349.904	266.82
350.356	257.46
350.808	276.18
351.26	287.89
351.711	297.25
352.163	306.61
352.615	255.12
353.066	241.08
353.518	262.14
353.969	327.67
354.421	299.59
354.872	273.84
355.324	266.82
355.775	252.78
356.226	313.63
356.677	322.99
357.128	306.61
357.579	344.06
358.03	290.23
358.481	217.67
358.932	292.57
359.383	257.46
359.834	257.46
360.285	290.23
360.735	250.44
361.186	301.93
361.637	330.02
362.087	292.57
362.538	304.27
362.988	346.4
363.438	278.52
363.889	283.2
364.339	409.59
364.789	283.2
365.239	322.99
365.689	308.95
366.139	231.71
366.589	290.23
367.039	287.89
367.489	311.29
367.939	285.55
368.389	294.91
368.839	304.27
369.288	341.72
369.738	334.7
370.187	301.93
370.637	273.84
371.086	297.25
371.536	283.2
371.985	351.08
372.434	259.8
372.884	255.12
373.333	313.63
373.782	250.44
374.231	287.89
374.68	266.82
375.129	325.33
375.578	306.61
376.027	304.27
376.475	294.91
376.924	325.33
377.373	351.08
377.822	341.72
378.27	311.29
378.719	344.06
379.167	318.31
379.616	264.48
380.064	297.25
380.512	269.16
380.961	252.78
381.409	271.5
381.857	315.97
382.305	337.04
382.753	308.95
383.201	299.59
383.649	327.67
384.097	332.36
384.545	318.31
384.992	346.4
385.44	308.95
385.888	327.67
386.335	301.93
386.783	243.42
387.231	271.5
387.678	271.5
388.125	276.18
388.573	273.84
389.02	257.46
389.467	280.86
389.914	290.23
390.362	250.44
390.809	311.29
391.256	325.33
391.703	318.31
392.15	271.5
392.596	299.59
393.043	241.08
393.49	252.78
393.937	276.18
394.383	355.76
394.83	299.59
395.276	313.63
395.723	299.59
396.169	255.12
396.616	318.31
397.062	290.23
397.508	311.29
397.954	276.18
398.401	255.12
398.847	351.08
399.293	238.73
399.739	339.38
400.185	273.84
400.631	339.38
401.076	269.16
401.522	306.61
401.968	292.57
402.414	297.25
402.859	334.7
403.305	337.04
403.75	341.72
404.196	344.06
404.641	355.76
405.086	308.95
405.532	290.23
405.977	348.74
406.422	351.08
406.867	243.42
407.312	243.42
407.757	294.91
408.202	264.48
408.647	278.52
409.092	290.23
409.537	318.31
409.982	325.33
410.426	231.71
410.871	294.91
411.316	276.18
411.76	280.86
412.205	337.04
412.649	318.31
413.093	283.2
413.538	330.02
413.982	327.67
414.426	327.67
414.87	304.27
415.314	325.33
415.758	292.57
416.202	313.63
416.646	327.67
417.09	311.29
417.534	271.5
417.978	236.39
418.421	344.06
418.865	229.37
419.309	386.19
419.752	308.95
420.196	372.15
420.639	313.63
421.083	292.57
421.526	325.33
421.969	313.63
422.412	294.91
422.856	395.55
423.299	311.29
423.742	318.31
424.185	358.1
424.628	297.25
425.071	287.89
425.513	245.76
425.956	374.49
426.399	297.25
426.842	280.86
427.284	285.55
427.727	320.65
428.169	369.8
428.612	360.44
429.054	327.67
429.497	334.7
429.939	358.1
430.381	353.42
430.823	320.65
431.265	365.12
431.707	299.59
432.149	353.42
432.591	351.08
433.033	344.06
433.475	322.99
433.917	365.12
434.359	425.98
434.8	447.04
435.242	543
435.684	465.77
436.125	449.38
436.567	386.19
437.008	388.53
437.449	416.62
437.891	444.7
438.332	383.85
438.773	386.19
439.214	451.72
439.656	315.97
440.097	400.23
440.538	369.8
440.978	404.91
441.419	428.32
441.86	360.44
442.301	454.06
442.742	400.23
443.182	423.64
443.623	407.25
444.063	330.02
444.504	433
444.944	421.3
445.385	386.19
445.825	390.87
446.265	404.91
446.706	442.36
447.146	379.17
447.586	381.51
448.026	435.34
448.466	400.23
448.906	381.51
449.346	400.23
449.786	425.98
450.225	362.78
450.665	435.34
451.105	374.49
451.544	365.12
451.984	353.42
452.424	383.85
452.863	409.59
453.302	365.12
453.742	435.34
454.181	374.49
454.62	416.62
455.059	355.76
455.499	369.8
455.938	376.83
456.377	374.49
456.816	348.74
457.254	332.36
457.693	372.15
458.132	386.19
458.571	355.76
459.01	358.1
459.448	320.65
459.887	318.31
460.325	423.64
460.764	379.17
461.202	353.42
461.641	376.83
462.079	318.31
462.517	353.42
462.955	325.33
463.393	360.44
463.832	400.23
464.27	313.63
464.708	332.36
465.145	379.17
465.583	409.59
466.021	290.23
466.459	334.7
466.897	344.06
467.334	418.96
467.772	327.67
468.209	360.44
468.647	351.08
469.084	318.31
469.522	280.86
469.959	308.95
470.396	372.15
470.833	325.33
471.271	271.5
471.708	313.63
472.145	346.4
472.582	332.36
473.019	435.34
473.456	346.4
473.892	320.65
474.329	308.95
474.766	339.38
475.202	292.57
475.639	407.25
476.076	367.46
476.512	271.5
476.949	353.42
477.385	315.97
477.821	376.83
478.258	320.65
478.694	337.04
479.13	360.44
479.566	369.8
480.002	315.97
480.438	362.78
480.874	337.04
481.31	339.38
481.746	306.61
482.181	388.53
482.617	355.76
483.053	355.76
483.488	353.42
483.924	341.72
484.36	320.65
484.795	299.59
485.23	416.62
485.666	374.49
486.101	376.83
486.536	348.74
486.971	313.63
487.407	376.83
487.842	444.7
488.277	390.87
488.712	381.51
489.146	390.87
489.581	428.32
490.016	367.46
490.451	322.99
490.885	407.25
491.32	346.4
491.755	369.8
492.189	330.02
492.624	390.87
493.058	330.02
493.492	444.7
493.927	414.27
494.361	353.42
494.795	393.21
495.229	358.1
495.663	320.65
496.097	362.78
496.531	341.72
496.965	365.12
497.399	409.59
497.833	367.46
498.266	322.99
498.7	367.46
499.134	393.21
499.567	322.99
500.001	348.74
500.434	461.09
500.868	376.83
501.301	318.31
501.734	325.33
502.168	325.33
502.601	353.42
503.034	315.97
503.467	351.08
503.9	285.55
504.333	341.72
504.766	327.67
505.199	304.27
505.632	400.23
506.064	372.15
506.497	283.2
506.93	365.12
507.362	344.06
507.795	341.72
508.227	388.53
508.66	358.1
509.092	365.12
509.524	374.49
509.956	367.46
510.389	400.23
510.821	414.27
511.253	369.8
511.685	379.17
512.117	325.33
512.549	402.57
512.981	358.1
513.412	320.65
513.844	348.74
514.276	379.17
514.707	411.93
515.139	386.19
515.571	306.61
516.002	362.78
516.433	390.87
516.865	337.04
517.296	362.78
517.727	351.08
518.159	360.44
518.59	313.63
519.021	332.36
519.452	337.04
519.883	428.32
520.314	367.46
520.744	372.15
521.175	376.83
521.606	407.25
522.037	397.89
522.467	400.23
522.898	332.36
523.328	320.65
523.759	400.23
524.189	386.19
524.62	411.93
525.05	433
525.48	372.15
525.91	379.17
526.341	400.23
526.771	374.49
527.201	367.46
527.631	379.17
528.061	358.1
528.49	318.31
528.92	341.72
529.35	330.02
529.78	353.42
530.209	362.78
530.639	388.53
531.068	409.59
531.498	292.57
531.927	322.99
532.357	337.04
532.786	381.51
533.215	365.12
533.644	390.87
534.074	433
534.503	407.25
534.932	332.36
535.361	407.25
535.79	416.62
536.218	344.06
536.647	400.23
537.076	376.83
537.505	311.29
537.933	367.46
538.362	365.12
538.79	365.12
539.219	418.96
539.647	414.27
540.076	409.59
540.504	411.93
540.932	528.96
541.36	524.28
541.788	568.75
542.217	622.58
542.645	641.31
543.073	690.46
543.5	585.13
543.928	603.86
544.356	592.16
544.784	653.01
545.211	683.44
545.639	667.05
546.067	620.24
546.494	521.94
546.922	454.06
547.349	425.98
547.776	554.71
548.204	470.45
548.631	416.62
549.058	404.91
549.485	390.87
549.912	428.32
550.339	447.04
550.766	418.96
551.193	428.32
551.62	402.57
552.047	397.89
552.474	421.3
552.9	421.3
553.327	421.3
553.754	435.34
554.18	404.91
554.607	397.89
555.033	308.95
555.459	407.25
555.886	428.32
556.312	372.15
556.738	390.87
557.164	322.99
557.59	381.51
558.016	374.49
558.442	318.31
558.868	360.44
559.294	414.27
559.72	416.62
560.145	411.93
560.571	308.95
560.997	315.97
561.422	386.19
561.848	362.78
562.273	374.49
562.699	341.72
563.124	379.17
563.549	348.74
563.974	369.8
564.4	425.98
564.825	372.15
565.25	367.46
565.675	325.33
566.1	348.74
566.525	311.29
566.95	327.67
567.374	372.15
567.799	360.44
568.224	358.1
568.648	395.55
569.073	369.8
569.497	313.63
569.922	367.46
570.346	330.02
570.771	348.74
571.195	344.06
571.619	372.15
572.043	362.78
572.467	339.38
572.891	348.74
573.315	374.49
573.739	365.12
574.163	360.44
574.587	344.06
575.011	367.46
575.435	341.72
575.858	365.12
576.282	381.51
576.705	360.44
577.129	381.51
577.552	330.02
577.976	360.44
578.399	402.57
578.822	334.7
579.245	393.21
579.669	447.04
580.092	400.23
580.515	425.98
580.938	425.98
581.361	482.15
581.784	435.34
582.206	397.89
582.629	409.59
583.052	423.64
583.474	437.68
583.897	484.49
584.32	423.64
584.742	346.4
585.165	409.59
585.587	425.98
586.009	393.21
586.431	353.42
586.854	407.25
587.276	402.57
587.698	381.51
588.12	369.8
588.542	416.62
588.964	447.04
589.386	440.02
589.807	435.34
590.229	339.38
590.651	442.36
591.073	421.3
591.494	365.12
591.916	358.1
592.337	390.87
592.759	404.91
593.18	402.57
593.601	430.66
594.022	400.23
594.444	355.76
594.865	325.33
595.286	327.67
595.707	337.04
596.128	383.85
596.549	355.76
596.97	383.85
597.39	402.57
597.811	407.25
598.232	383.85
598.652	379.17
599.073	374.49
599.494	369.8
599.914	358.1
600.334	360.44
600.755	330.02
601.175	346.4
601.595	418.96
602.015	311.29
602.436	348.74
602.856	521.94
603.276	341.72
603.696	355.76
604.115	381.51
604.535	390.87
604.955	346.4
605.375	325.33
605.794	299.59
606.214	365.12
606.634	365.12
607.053	397.89
607.473	346.4
607.892	341.72
608.311	388.53
608.731	379.17
609.15	306.61
609.569	491.51
609.988	596.84
610.407	657.69
610.826	741.95
611.245	674.07
611.664	667.05
612.083	589.81
612.501	559.39
612.92	564.07
613.339	524.28
613.757	479.81
614.176	486.83
614.594	477.47
615.013	493.85
615.431	421.3
615.85	428.32
616.268	425.98
616.686	365.12
617.104	416.62
617.522	468.11
617.94	266.82
618.358	386.19
618.776	355.76
619.194	395.55
619.612	313.63
620.03	409.59
620.447	362.78
620.865	374.49
621.282	442.36
621.7	362.78
622.117	383.85
622.535	374.49
622.952	294.91
623.369	404.91
623.787	393.21
624.204	341.72
624.621	402.57
625.038	409.59
625.455	461.09
625.872	346.4
626.289	404.91
626.706	369.8
627.123	332.36
627.539	372.15
627.956	383.85
628.373	315.97
628.789	372.15
629.206	418.96
629.622	369.8
630.038	379.17
630.455	397.89
630.871	290.23
631.287	383.85
631.703	404.91
632.12	292.57
632.536	339.38
632.952	346.4
633.368	308.95
633.783	301.93
634.199	362.78
634.615	325.33
635.031	374.49
635.446	332.36
635.862	315.97
636.277	341.72
636.693	332.36
637.108	285.55
637.524	320.65
637.939	224.69
638.354	334.7
638.77	386.19
639.185	386.19
639.6	339.38
640.015	341.72
640.43	332.36
640.845	325.33
641.259	292.57
641.674	283.2
642.089	301.93
642.504	358.1
642.918	271.5
643.333	306.61
643.747	297.25
644.162	320.65
644.576	283.2
644.991	337.04
645.405	266.82
645.819	327.67
646.233	301.93
646.647	315.97
647.061	285.55
647.475	301.93
647.889	280.86
648.303	273.84
648.717	304.27
649.131	269.16
649.545	353.42
649.958	294.91
650.372	278.52
650.785	222.35
651.199	294.91
651.612	393.21
652.026	292.57
652.439	313.63
652.852	407.25
653.266	367.46
653.679	276.18
654.092	353.42
654.505	278.52
654.918	273.84
655.331	283.2
655.744	264.48
656.156	322.99
656.569	280.86
656.982	353.42
657.394	315.97
657.807	297.25
658.22	334.7
658.632	341.72
659.044	374.49
659.457	308.95
659.869	355.76
660.281	327.67
660.693	315.97
661.106	341.72
661.518	411.93
661.93	369.8
662.342	290.23
662.754	299.59
663.165	311.29
663.577	332.36
663.989	278.52
664.401	257.46
664.812	351.08
665.224	287.89
665.635	320.65
666.047	257.46
666.458	367.46
666.869	269.16
667.281	280.86
667.692	330.02
668.103	287.89
668.514	325.33
668.925	304.27
669.336	299.59
669.747	353.42
670.158	341.72
670.569	383.85
670.979	301.93
671.39	360.44
671.801	280.86
672.211	325.33
672.622	229.37
673.032	325.33
673.443	287.89
673.853	337.04
674.263	374.49
674.674	250.44
675.084	318.31
675.494	285.55
675.904	276.18
676.314	276.18
676.724	299.59
677.134	271.5
677.544	250.44
677.953	287.89
678.363	287.89
678.773	393.21
679.182	318.31
679.592	271.5
680.001	322.99
680.411	271.5
680.82	252.78
681.23	285.55
681.639	337.04
682.048	334.7
682.457	308.95
682.866	248.1
683.275	287.89
683.684	355.76
684.093	337.04
684.502	304.27
684.911	320.65
685.32	313.63
685.728	276.18
686.137	332.36
686.546	283.2
686.954	306.61
687.363	334.7
687.771	259.8
688.179	259.8
688.588	325.33
688.996	322.99
689.404	346.4
689.812	299.59
690.22	290.23
690.628	318.31
691.036	344.06
691.444	322.99
691.852	332.36
692.26	243.42
692.667	280.86
693.075	351.08
693.483	292.57
693.89	273.84
694.298	304.27
694.705	271.5
695.112	306.61
695.52	269.16
695.927	264.48
696.334	311.29
696.741	276.18
697.148	280.86
697.555	337.04
697.962	358.1
698.369	306.61
698.776	353.42
699.183	360.44
699.59	299.59
699.996	269.16
700.403	360.44
700.81	332.36
701.216	315.97
701.623	332.36
702.029	280.86
702.435	311.29
702.842	311.29
703.248	262.14
703.654	311.29
704.06	257.46
704.466	367.46
704.872	320.65
705.278	341.72
705.684	283.2
706.09	339.38
706.496	273.84
706.901	344.06
707.307	269.16
707.712	297.25
708.118	325.33
708.523	306.61
708.929	318.31
709.334	355.76
709.74	369.8
710.145	327.67
710.55	365.12
710.955	351.08
711.36	332.36
711.765	344.06
712.17	337.04
712.575	280.86
712.98	924.51
713.385	311.29
713.789	327.67
714.194	252.78
714.599	402.57
715.003	355.76
715.408	278.52
715.812	313.63
716.217	369.8
716.621	238.73
717.025	365.12
717.429	243.42
717.833	269.16
718.238	315.97
718.642	311.29
719.046	355.76
719.449	327.67
719.853	337.04
720.257	332.36
720.661	334.7
721.065	322.99
721.468	248.1
721.872	308.95
722.275	236.39
722.679	280.86
723.082	306.61
723.485	301.93
723.889	299.59
724.292	250.44
724.695	285.55
725.098	322.99
725.501	311.29
725.904	257.46
726.307	285.55
726.71	283.2
727.113	315.97
727.516	255.12
727.918	278.52
728.321	334.7
728.724	339.38
729.126	266.82
729.529	222.35
729.931	360.44
730.333	271.5
730.736	372.15
731.138	325.33
731.54	369.8
731.942	334.7
732.344	308.95
732.746	280.86
733.148	299.59
733.55	287.89
733.952	257.46
734.354	294.91
734.756	327.67
735.157	271.5
735.559	290.23
735.96	320.65
736.362	315.97
736.763	332.36
737.165	262.14
737.566	280.86
737.967	339.38
738.368	374.49
738.77	297.25
739.171	266.82
739.572	318.31
739.973	330.02
740.374	294.91
740.774	308.95
741.175	344.06
741.576	285.55
741.977	315.97
742.377	325.33
742.778	294.91
743.178	313.63
743.579	287.89
743.979	313.63
744.379	332.36
744.78	255.12
745.18	325.33
745.58	294.91
745.98	339.38
746.38	306.61
746.78	362.78
747.18	290.23
747.58	231.71
747.98	334.7
748.38	327.67
748.779	332.36
749.179	262.14
749.578	318.31
749.978	276.18
750.377	299.59
750.777	306.61
751.176	271.5
751.575	299.59
751.975	339.38
752.374	299.59
752.773	308.95
753.172	402.57
753.571	220.01
753.97	245.76
754.369	290.23
754.768	290.23
755.166	299.59
755.565	301.93
755.964	301.93
756.362	327.67
756.761	308.95
757.159	299.59
757.558	311.29
757.956	278.52
758.354	374.49
758.753	337.04
759.151	337.04
759.549	269.16
759.947	313.63
760.345	318.31
760.743	322.99
761.141	355.76
761.539	262.14
761.936	330.02
762.334	304.27
762.732	301.93
763.129	318.31
763.527	285.55
763.924	320.65
764.322	311.29
764.719	330.02
765.117	337.04
765.514	273.84
765.911	358.1
766.308	301.93
766.705	334.7
767.102	337.04
767.499	283.2
767.896	315.97
768.293	306.61
768.69	285.55
769.086	374.49
769.483	292.57
769.88	322.99
770.276	280.86
770.673	278.52
771.069	266.82
771.466	330.02
771.862	301.93
772.258	318.31
772.654	224.69
773.05	311.29
773.447	315.97
773.843	301.93
774.239	262.14
774.634	337.04
775.03	339.38
775.426	285.55
775.822	283.2
776.218	327.67
776.613	308.95
777.009	334.7
777.404	334.7
777.8	269.16
778.195	294.91
778.59	327.67
778.986	308.95
779.381	351.08
779.776	299.59
780.171	320.65
780.566	407.25
780.961	304.27
781.356	301.93
781.751	355.76
782.146	315.97
782.54	264.48
782.935	283.2
783.33	372.15
783.724	215.33
784.119	220.01
784.513	301.93
784.908	283.2
785.302	351.08
785.696	313.63
786.09	372.15
786.485	315.97
786.879	301.93
787.273	287.89
787.667	390.87
788.061	290.23
788.454	299.59
788.848	320.65
789.242	318.31
789.636	322.99
790.029	290.23
790.423	294.91
790.816	311.29
791.21	318.31
791.603	320.65
791.997	234.05
792.39	292.57
792.783	334.7
793.176	285.55
793.569	320.65
793.962	308.95
794.355	250.44
794.748	266.82
795.141	311.29
795.534	325.33
795.927	299.59
796.319	280.86
796.712	301.93
797.105	306.61
797.497	294.91
797.89	308.95
798.282	351.08
798.674	245.76
799.067	276.18
799.459	353.42
799.851	346.4
800.243	306.61
800.635	367.46
801.027	339.38
801.419	266.82
801.811	313.63
802.203	299.59
802.594	315.97
802.986	358.1
803.378	241.08
803.769	358.1
804.161	355.76
804.552	294.91
804.944	292.57
805.335	351.08
805.726	278.52
806.118	304.27
806.509	348.74
806.9	330.02
807.291	325.33
807.682	341.72
808.073	330.02
808.464	283.2
808.855	301.93
809.245	294.91
809.636	264.48
810.027	339.38
810.417	372.15
810.808	264.48
811.198	311.29
811.589	353.42
811.979	344.06
812.369	341.72
812.759	283.2
813.15	330.02
813.54	346.4
813.93	276.18
814.32	348.74
814.71	278.52
815.1	269.16
815.489	341.72
815.879	348.74
816.269	250.44
816.658	280.86
817.048	285.55
817.438	287.89
817.827	362.78
818.216	327.67
818.606	308.95
818.995	330.02
819.384	290.23
819.773	280.86
820.163	271.5
820.552	322.99
820.941	269.16
821.33	294.91
821.718	313.63
822.107	351.08
822.496	287.89
822.885	252.78
823.273	287.89
823.662	330.02
824.05	306.61
824.439	285.55
824.827	290.23
825.216	351.08
825.604	297.25
825.992	346.4
826.38	269.16
826.768	257.46
827.156	344.06
827.544	351.08
827.932	318.31
828.32	308.95
828.708	301.93
829.096	322.99
829.483	325.33
829.871	304.27
830.259	252.78
830.646	283.2
831.034	339.38
831.421	285.55
831.808	311.29
832.196	257.46
832.583	306.61
832.97	301.93
833.357	348.74
833.744	273.84
834.131	292.57
834.518	308.95
834.905	217.67
835.292	330.02
835.678	334.7
836.065	320.65
836.452	304.27
836.838	250.44
837.225	372.15
837.611	369.8
837.998	325.33
838.384	259.8
838.77	341.72
839.157	294.91
839.543	241.08
839.929	313.63
840.315	308.95
840.701	278.52
841.087	301.93
841.473	262.14
841.858	287.89
842.244	313.63
842.63	280.86
843.015	273.84
843.401	608.54
843.787	308.95
844.172	315.97
844.557	290.23
844.943	325.33
845.328	299.59
845.713	285.55
846.098	346.4
846.483	243.42
846.868	327.67
847.253	234.05
847.638	376.83
848.023	280.86
848.408	262.14
848.793	266.82
849.177	280.86
849.562	241.08
849.947	271.5
850.331	299.59
850.715	334.7
851.1	327.67
851.484	285.55
851.868	304.27
852.253	337.04
852.637	238.73
853.021	271.5
853.405	250.44
853.789	278.52
854.173	276.18
854.557	334.7
854.94	243.42
855.324	369.8
855.708	327.67
856.091	236.39
856.475	280.86
856.858	318.31
857.242	250.44
857.625	308.95
858.009	334.7
858.392	313.63
858.775	280.86
859.158	327.67
859.541	355.76
859.924	248.1
860.307	358.1
860.69	299.59
861.073	290.23
861.456	285.55
861.838	287.89
862.221	339.38
862.604	322.99
862.986	252.78
863.369	269.16
863.751	327.67
864.133	315.97
864.516	320.65
864.898	276.18
865.28	290.23
865.662	360.44
866.044	252.78
866.426	306.61
866.808	358.1
867.19	308.95
867.572	287.89
867.954	332.36
868.336	229.37
868.717	273.84
869.099	271.5
869.48	238.73
869.862	306.61
870.243	259.8
870.625	236.39
871.006	290.23
871.387	306.61
871.768	322.99
872.149	313.63
872.53	259.8
872.911	276.18
873.292	248.1
873.673	334.7
874.054	297.25
874.435	313.63
874.815	287.89
875.196	325.33
875.577	290.23
875.957	271.5
876.338	306.61
876.718	276.18
877.098	294.91
877.479	294.91
877.859	290.23
878.239	294.91
878.619	325.33
878.999	306.61
879.379	306.61
879.759	290.23
880.139	297.25
880.519	322.99
880.898	280.86
881.278	318.31
881.658	393.21
882.037	318.31
882.417	301.93
882.796	252.78
883.176	280.86
883.555	290.23
883.934	360.44
884.313	297.25
884.693	280.86
885.072	276.18
885.451	369.8
885.83	283.2
886.209	304.27
886.587	299.59
886.966	236.39
887.345	381.51
887.724	273.84
888.102	269.16
888.481	327.67
888.859	273.84
889.238	346.4
889.616	250.44
889.994	294.91
890.373	299.59
890.751	255.12
891.129	318.31
891.507	299.59
891.885	292.57
892.263	276.18
892.641	334.7
893.019	262.14
893.396	308.95
893.774	255.12
894.152	301.93
894.529	365.12
894.907	266.82
895.284	308.95
895.662	301.93
896.039	367.46
896.416	332.36
896.794	315.97
897.171	308.95
897.548	269.16
897.925	325.33
898.302	241.08
898.679	308.95
899.056	285.55
899.433	266.82
899.809	355.76
900.186	383.85
900.563	294.91
900.939	297.25
901.316	348.74
901.692	276.18
902.069	332.36
902.445	348.74
902.821	346.4
903.197	269.16
903.574	273.84
903.95	255.12
904.326	362.78
904.702	332.36
905.078	360.44
905.454	301.93
905.829	339.38
906.205	290.23
906.581	306.61
906.956	362.78
907.332	273.84
907.707	330.02
908.083	308.95
908.458	369.8
908.833	299.59
909.209	287.89
909.584	264.48
909.959	327.67
910.334	292.57
910.709	299.59
911.084	276.18
911.459	264.48
911.834	280.86
912.209	311.29
912.583	299.59
912.958	306.61
913.333	297.25
913.707	304.27
914.082	231.71
914.456	360.44
914.83	285.55
915.205	341.72
915.579	330.02
915.953	304.27
916.327	222.35
916.701	287.89
917.075	320.65
917.449	297.25
917.823	287.89
918.197	262.14
918.571	304.27
918.944	283.2
919.318	294.91
919.692	318.31
920.065	271.5
920.438	344.06
920.812	264.48
921.185	241.08
921.558	294.91
921.932	276.18
922.305	308.95
922.678	348.74
923.051	299.59
923.424	273.84
923.797	344.06
924.17	318.31
924.542	301.93
924.915	276.18
925.288	315.97
925.661	308.95
926.033	327.67
926.406	301.93
926.778	236.39
927.15	294.91
927.523	351.08
927.895	229.37
928.267	320.65
928.639	311.29
929.011	311.29
929.383	287.89
929.755	301.93
930.127	250.44
930.499	269.16
930.871	278.52
931.242	304.27
931.614	283.2
931.986	388.53
932.357	290.23
932.729	365.12
933.1	292.57
933.471	344.06
933.843	320.65
934.214	248.1
934.585	294.91
934.956	245.76
935.327	276.18
935.698	287.89
936.069	278.52
936.44	250.44
936.811	278.52
937.182	287.89
937.552	285.55
937.923	262.14
938.293	248.1
938.664	308.95
939.034	266.82
939.405	236.39
939.775	238.73
940.145	348.74
940.516	285.55
940.886	311.29
941.256	306.61
941.626	287.89
941.996	330.02
942.366	269.16
942.735	255.12
943.105	299.59
943.475	290.23
943.845	264.48
944.214	276.18
944.584	320.65
944.953	224.69
945.323	337.04
945.692	245.76
946.061	325.33
946.43	367.46
946.8	304.27
947.169	341.72
947.538	381.51
947.907	332.36
948.276	250.44
948.645	315.97
949.013	334.7
949.382	313.63
949.751	301.93
950.119	271.5
950.488	327.67
950.857	351.08
951.225	292.57
951.593	325.33
951.962	318.31
952.33	332.36
952.698	311.29
953.066	301.93
953.434	229.37
953.802	271.5
954.17	315.97
954.538	301.93
954.906	315.97
955.274	292.57
955.642	276.18
956.009	299.59
956.377	292.57
956.744	243.42
957.112	227.03
957.479	283.2
957.847	285.55
958.214	278.52
958.581	304.27
958.948	325.33
959.315	320.65
959.683	241.08
960.05	379.17
960.416	278.52
960.783	332.36
961.15	320.65
961.517	327.67
961.884	255.12
962.25	294.91
962.617	325.33
962.983	297.25
963.35	313.63
963.716	325.33
964.082	259.8
964.449	308.95
964.815	304.27
965.181	320.65
965.547	262.14
965.913	332.36
966.279	322.99
966.645	250.44
967.011	273.84
967.377	294.91
967.742	301.93
968.108	301.93
968.474	294.91
968.839	283.2
969.205	250.44
969.57	306.61
969.935	325.33
970.301	250.44
970.666	287.89
971.031	220.01
971.396	318.31
971.761	308.95
972.126	337.04
972.491	276.18
972.856	283.2
973.221	285.55
973.586	299.59
973.95	374.49
974.315	287.89
974.679	297.25
975.044	287.89
975.408	355.76
975.773	266.82
976.137	346.4
976.501	308.95
976.866	318.31
977.23	341.72
977.594	255.12
977.958	276.18
978.322	271.5
978.686	271.5
979.049	348.74
979.413	222.35
979.777	269.16
980.141	248.1
980.504	294.91
980.868	283.2
981.231	341.72
981.595	322.99
981.958	311.29
982.321	227.03
982.684	353.42
983.048	259.8
983.411	325.33
983.774	292.57
984.137	306.61
984.5	234.05
984.862	285.55
985.225	322.99
985.588	311.29
985.951	322.99
986.313	285.55
986.676	273.84
987.038	269.16
987.401	259.8
987.763	241.08
988.125	241.08
988.488	301.93
988.85	276.18
989.212	252.78
989.574	234.05
989.936	280.86
990.298	297.25
990.66	320.65
991.022	257.46
991.383	276.18
991.745	285.55
992.107	355.76
992.468	315.97
992.83	222.35
993.191	264.48
993.553	330.02
993.914	280.86
994.275	318.31
994.637	355.76
994.998	320.65
995.359	311.29
995.72	304.27
996.081	346.4
996.442	313.63
996.803	320.65
997.163	278.52
997.524	301.93
997.885	294.91
998.245	344.06
998.606	348.74
998.966	238.73
999.327	283.2
999.687	306.61
1000.047	266.82
1000.408	311.29
1000.768	292.57
1001.128	292.57
1001.488	285.55
1001.848	325.33
1002.208	311.29
1002.568	273.84
1002.927	292.57
1003.287	330.02
1003.647	313.63
1004.007	330.02
1004.366	315.97
1004.726	278.52
1005.085	325.33
1005.444	297.25
1005.804	325.33
1006.163	271.5
1006.522	271.5
1006.881	215.33
1007.24	304.27
1007.599	285.55
1007.958	355.76
1008.317	308.95
1008.676	304.27
1009.035	315.97
1009.393	287.89
1009.752	313.63
1010.111	327.67
1010.469	250.44
1010.828	304.27
1011.186	290.23
1011.544	278.52
1011.903	224.69
1012.261	285.55
1012.619	273.84
1012.977	266.82
1013.335	346.4
1013.693	234.05
1014.051	334.7
1014.409	241.08
1014.767	269.16
1015.124	285.55
1015.482	304.27
1015.84	346.4
1016.197	332.36
1016.555	271.5
1016.912	344.06
1017.269	269.16
1017.627	337.04
1017.984	297.25
1018.341	308.95
1018.698	290.23
1019.055	318.31
1019.412	262.14
1019.769	304.27
1020.126	332.36
1020.483	322.99
1020.84	341.72
1021.196	322.99
1021.553	330.02
1021.909	283.2
1022.266	325.33
1022.622	287.89
1022.979	376.83
1023.335	264.48
1023.691	222.35
1024.047	299.59
1024.404	266.82
1024.76	287.89
1025.116	236.39
1025.472	262.14
1025.827	290.23
1026.183	297.25
1026.539	224.69
1026.895	278.52
1027.25	290.23
1027.606	257.46
1027.961	257.46
1028.317	257.46
1028.672	290.23
1029.028	299.59
1029.383	269.16
1029.738	203.63
1030.093	311.29
1030.448	276.18
1030.803	299.59
1031.158	248.1
1031.513	262.14
1031.868	320.65
1032.223	269.16
1032.577	280.86
1032.932	320.65
1033.287	276.18
1033.641	315.97
1033.996	210.65
1034.35	290.23
1034.704	287.89
1035.059	259.8
1035.413	294.91
1035.767	294.91
1036.121	294.91
