Data from Al_FLMS009871__261__12-21-16-745.txt Node

Date: Fri Mar 08 12:21:16 CST 2024
User: pe5414po
Spectrometer: FLMS00987
Trigger mode: 0
Integration Time (sec): 1.000000E-1
Scans to average: 1
Electric dark correction enabled: true
Nonlinearity correction enabled: false
Boxcar width: 0
XAxis mode: Wavelengths
Number of Pixels in Spectrum: 2048
>>>>>Begin Spectral Data<<<<<
188.938	-83.09
189.409	-83.09
189.879	-83.09
190.349	-99.47
190.819	-87.77
191.29	-47.98
191.76	-104.15
192.23	-174.37
192.7	-118.2
193.17	-78.41
193.64	-55
194.109	-40.96
194.579	-76.07
195.049	26.92
195.519	-3.51
195.988	97.13
196.458	118.2
196.927	127.56
197.397	85.43
197.866	76.07
198.336	167.35
198.805	122.88
199.274	136.92
199.744	200.12
200.213	129.9
200.682	150.96
201.151	251.61
201.62	183.73
202.089	204.8
202.558	183.73
203.027	232.88
203.495	225.86
203.964	253.95
204.433	202.46
204.902	291.4
205.37	277.35
205.839	218.84
206.307	204.8
206.776	216.5
207.244	256.29
207.712	263.31
208.181	260.97
208.649	216.5
209.117	172.03
209.585	335.87
210.053	289.06
210.521	305.44
210.989	270.33
211.457	251.61
211.925	328.85
212.393	258.63
212.861	197.78
213.328	291.4
213.796	249.27
214.264	242.25
214.731	272.67
215.199	359.27
215.666	204.8
216.133	211.82
216.601	239.9
217.068	251.61
217.535	293.74
218.003	230.54
218.47	314.8
218.937	160.33
219.404	263.31
219.871	228.2
220.338	249.27
220.805	296.08
221.271	209.48
221.738	246.93
222.205	223.52
222.671	291.4
223.138	324.16
223.605	284.38
224.071	228.2
224.538	221.18
225.004	284.38
225.47	230.54
225.937	275.01
226.403	279.69
226.869	286.72
227.335	228.2
227.801	258.63
228.267	200.12
228.733	272.67
229.199	207.14
229.665	204.8
230.131	230.54
230.597	176.71
231.062	167.35
231.528	228.2
231.994	239.9
232.459	235.22
232.925	291.4
233.39	183.73
233.856	270.33
234.321	263.31
234.786	256.29
235.252	218.84
235.717	277.35
236.182	277.35
236.647	279.69
237.112	237.56
237.577	293.74
238.042	319.48
238.507	221.18
238.972	216.5
239.436	186.07
239.901	270.33
240.366	289.06
240.83	230.54
241.295	284.38
241.76	249.27
242.224	235.22
242.688	286.72
243.153	291.4
243.617	228.2
244.081	249.27
244.545	284.38
245.01	230.54
245.474	204.8
245.938	242.25
246.402	193.09
246.866	270.33
247.33	286.72
247.793	277.35
248.257	296.08
248.721	202.46
249.185	253.95
249.648	174.37
250.112	235.22
250.575	221.18
251.039	253.95
251.502	242.25
251.965	300.76
252.429	223.52
252.892	230.54
253.355	270.33
253.818	263.31
254.281	256.29
254.744	263.31
255.207	267.99
255.67	253.95
256.133	279.69
256.596	265.65
257.059	265.65
257.522	282.03
257.984	237.56
258.447	197.78
258.909	284.38
259.372	289.06
259.834	256.29
260.297	223.52
260.759	307.78
261.221	270.33
261.684	267.99
262.146	307.78
262.608	258.63
263.07	328.85
263.532	267.99
263.994	305.44
264.456	286.72
264.918	202.46
265.38	298.42
265.842	244.59
266.303	305.44
266.765	174.37
267.227	291.4
267.688	324.16
268.15	256.29
268.611	235.22
269.072	272.67
269.534	298.42
269.995	291.4
270.456	260.97
270.918	237.56
271.379	307.78
271.84	300.76
272.301	265.65
272.762	328.85
273.223	260.97
273.684	225.86
274.144	237.56
274.605	279.69
275.066	303.1
275.527	244.59
275.987	251.61
276.448	256.29
276.908	216.5
277.369	312.46
277.829	275.01
278.289	249.27
278.75	312.46
279.21	270.33
279.67	298.42
280.13	265.65
280.59	249.27
281.05	232.88
281.51	267.99
281.97	333.53
282.43	359.27
282.89	249.27
283.35	249.27
283.809	253.95
284.269	328.85
284.729	246.93
285.188	291.4
285.648	282.03
286.107	218.84
286.567	246.93
287.026	237.56
287.485	270.33
287.944	275.01
288.404	307.78
288.863	237.56
289.322	242.25
289.781	328.85
290.24	321.82
290.699	263.31
291.158	275.01
291.616	286.72
292.075	293.74
292.534	232.88
292.992	349.91
293.451	284.38
293.91	272.67
294.368	270.33
294.827	277.35
295.285	293.74
295.743	265.65
296.202	275.01
296.66	272.67
297.118	244.59
297.576	204.8
298.034	275.01
298.492	260.97
298.95	279.69
299.408	232.88
299.866	221.18
300.324	312.46
300.781	324.16
301.239	235.22
301.697	267.99
302.154	300.76
302.612	363.95
303.069	267.99
303.527	256.29
303.984	286.72
304.441	335.87
304.899	296.08
305.356	282.03
305.813	289.06
306.27	258.63
306.727	310.12
307.184	272.67
307.641	298.42
308.098	235.22
308.555	277.35
309.012	256.29
309.468	298.42
309.925	272.67
310.382	307.78
310.838	244.59
311.295	270.33
311.751	211.82
312.208	251.61
312.664	267.99
313.12	237.56
313.577	300.76
314.033	291.4
314.489	263.31
314.945	258.63
315.401	242.25
315.857	275.01
316.313	256.29
316.769	293.74
317.225	239.9
317.681	300.76
318.136	284.38
318.592	279.69
319.048	279.69
319.503	277.35
319.959	223.52
320.414	223.52
320.869	314.8
321.325	286.72
321.78	338.21
322.235	361.61
322.691	300.76
323.146	286.72
323.601	314.8
324.056	307.78
324.511	216.5
324.966	270.33
325.421	296.08
325.875	225.86
326.33	296.08
326.785	260.97
327.24	296.08
327.694	282.03
328.149	303.1
328.603	263.31
329.058	239.9
329.512	277.35
329.966	237.56
330.421	246.93
330.875	349.91
331.329	272.67
331.783	314.8
332.237	321.82
332.691	307.78
333.145	289.06
333.599	321.82
334.053	267.99
334.507	279.69
334.96	282.03
335.414	282.03
335.868	293.74
336.321	291.4
336.775	356.93
337.228	232.88
337.682	382.68
338.135	242.25
338.588	317.14
339.042	335.87
339.495	305.44
339.948	310.12
340.401	296.08
340.854	277.35
341.307	291.4
341.76	267.99
342.213	265.65
342.666	333.53
343.119	253.95
343.571	284.38
344.024	366.29
344.477	265.65
344.929	300.76
345.382	326.5
345.834	214.16
346.287	293.74
346.739	265.65
347.191	326.5
347.644	277.35
348.096	296.08
348.548	275.01
349	284.38
349.452	282.03
349.904	277.35
350.356	244.59
350.808	275.01
351.26	275.01
351.711	321.82
352.163	305.44
352.615	279.69
353.066	270.33
353.518	237.56
353.969	260.97
354.421	263.31
354.872	310.12
355.324	221.18
355.775	307.78
356.226	263.31
356.677	270.33
357.128	265.65
357.579	342.89
358.03	286.72
358.481	289.06
358.932	258.63
359.383	289.06
359.834	389.7
360.285	347.57
360.735	328.85
361.186	239.9
361.637	338.21
362.087	296.08
362.538	326.5
362.988	289.06
363.438	249.27
363.889	284.38
364.339	314.8
364.789	282.03
365.239	263.31
365.689	305.44
366.139	293.74
366.589	282.03
367.039	279.69
367.489	317.14
367.939	291.4
368.389	363.95
368.839	218.84
369.288	291.4
369.738	272.67
370.187	223.52
370.637	239.9
371.086	284.38
371.536	284.38
371.985	317.14
372.434	263.31
372.884	286.72
373.333	312.46
373.782	354.59
374.231	263.31
374.68	298.42
375.129	282.03
375.578	340.55
376.027	310.12
376.475	340.55
376.924	347.57
377.373	242.25
377.822	349.91
378.27	284.38
378.719	270.33
379.167	284.38
379.616	314.8
380.064	232.88
380.512	260.97
380.961	291.4
381.409	345.23
381.857	291.4
382.305	328.85
382.753	239.9
383.201	289.06
383.649	305.44
384.097	260.97
384.545	307.78
384.992	296.08
385.44	300.76
385.888	286.72
386.335	263.31
386.783	272.67
387.231	370.97
387.678	293.74
388.125	188.41
388.573	321.82
389.02	275.01
389.467	305.44
389.914	340.55
390.362	307.78
390.809	279.69
391.256	284.38
391.703	296.08
392.15	246.93
392.596	356.93
393.043	286.72
393.49	232.88
393.937	338.21
394.383	331.19
394.83	349.91
395.276	305.44
395.723	235.22
396.169	289.06
396.616	321.82
397.062	265.65
397.508	253.95
397.954	284.38
398.401	258.63
398.847	331.19
399.293	307.78
399.739	331.19
400.185	260.97
400.631	291.4
401.076	312.46
401.522	310.12
401.968	270.33
402.414	328.85
402.859	312.46
403.305	345.23
403.75	284.38
404.196	305.44
404.641	279.69
405.086	363.95
405.532	347.57
405.977	298.42
406.422	370.97
406.867	319.48
407.312	277.35
407.757	321.82
408.202	267.99
408.647	235.22
409.092	260.97
409.537	239.9
409.982	279.69
410.426	230.54
410.871	265.65
411.316	352.25
411.76	277.35
412.205	282.03
412.649	328.85
413.093	275.01
413.538	282.03
413.982	352.25
414.426	284.38
414.87	270.33
415.314	307.78
415.758	331.19
416.202	328.85
416.646	265.65
417.09	282.03
417.534	361.61
417.978	317.14
418.421	289.06
418.865	317.14
419.309	303.1
419.752	267.99
420.196	300.76
420.639	342.89
421.083	272.67
421.526	368.63
421.969	300.76
422.412	260.97
422.856	370.97
423.299	312.46
423.742	335.87
424.185	368.63
424.628	352.25
425.071	310.12
425.513	275.01
425.956	352.25
426.399	401.4
426.842	356.93
427.284	363.95
427.727	317.14
428.169	314.8
428.612	385.02
429.054	363.95
429.497	356.93
429.939	380.34
430.381	342.89
430.823	345.23
431.265	338.21
431.707	354.59
432.149	473.96
432.591	342.89
433.033	375.66
433.475	378
433.917	399.06
434.359	417.79
434.8	455.23
435.242	555.88
435.684	480.98
436.125	417.79
436.567	422.47
437.008	450.55
437.449	452.89
437.891	476.3
438.332	417.79
438.773	424.81
439.214	438.85
439.656	448.21
440.097	506.73
440.538	455.23
440.978	457.57
441.419	497.36
441.86	469.28
442.301	504.39
442.742	464.6
443.182	464.6
443.623	424.81
444.063	513.75
444.504	483.32
444.944	492.68
445.385	548.86
445.825	499.7
446.265	431.83
446.706	478.64
447.146	473.96
447.586	530.13
448.026	504.39
448.466	518.43
448.906	490.34
449.346	497.36
449.786	478.64
450.225	497.36
450.665	490.34
451.105	509.07
451.544	495.02
451.984	480.98
452.424	560.56
452.863	429.49
453.302	466.94
453.742	544.17
454.181	480.98
454.62	445.87
455.059	413.1
455.499	445.87
455.938	373.32
456.377	392.04
456.816	408.42
457.254	354.59
457.693	380.34
458.132	389.7
458.571	389.7
459.01	455.23
459.448	422.47
459.887	403.74
460.325	450.55
460.764	394.38
461.202	352.25
461.641	378
462.079	410.76
462.517	359.27
462.955	373.32
463.393	352.25
463.832	345.23
464.27	394.38
464.708	359.27
465.145	408.42
465.583	394.38
466.021	427.15
466.459	340.55
466.897	359.27
467.334	413.1
467.772	387.36
468.209	385.02
468.647	387.36
469.084	382.68
469.522	382.68
469.959	373.32
470.396	387.36
470.833	345.23
471.271	328.85
471.708	333.53
472.145	370.97
472.582	420.13
473.019	394.38
473.456	420.13
473.892	389.7
474.329	333.53
474.766	366.29
475.202	406.08
475.639	380.34
476.076	221.18
476.512	366.29
476.949	354.59
477.385	462.26
477.821	394.38
478.258	385.02
478.694	307.78
479.13	352.25
479.566	354.59
480.002	345.23
480.438	387.36
480.874	333.53
481.31	389.7
481.746	347.57
482.181	314.8
482.617	335.87
483.053	338.21
483.488	441.19
483.924	363.95
484.36	352.25
484.795	408.42
485.23	434.17
485.666	410.76
486.101	422.47
486.536	413.1
486.971	399.06
487.407	462.26
487.842	417.79
488.277	317.14
488.712	363.95
489.146	427.15
489.581	368.63
490.016	427.15
490.451	366.29
490.885	441.19
491.32	431.83
491.755	349.91
492.189	431.83
492.624	415.45
493.058	363.95
493.492	359.27
493.927	382.68
494.361	345.23
494.795	420.13
495.229	356.93
495.663	392.04
496.097	431.83
496.531	394.38
496.965	366.29
497.399	363.95
497.833	394.38
498.266	317.14
498.7	406.08
499.134	410.76
499.567	385.02
500.001	354.59
500.434	413.1
500.868	363.95
501.301	338.21
501.734	387.36
502.168	450.55
502.601	392.04
503.034	375.66
503.467	354.59
503.9	331.19
504.333	410.76
504.766	314.8
505.199	387.36
505.632	342.89
506.064	406.08
506.497	380.34
506.93	333.53
507.362	378
507.795	342.89
508.227	429.49
508.66	417.79
509.092	408.42
509.524	373.32
509.956	455.23
510.389	380.34
510.821	342.89
511.253	385.02
511.685	417.79
512.117	352.25
512.549	413.1
512.981	333.53
513.412	373.32
513.844	399.06
514.276	319.48
514.707	387.36
515.139	403.74
515.571	399.06
516.002	417.79
516.433	406.08
516.865	434.17
517.296	406.08
517.727	431.83
518.159	427.15
518.59	415.45
519.021	368.63
519.452	424.81
519.883	480.98
520.314	375.66
520.744	382.68
521.175	406.08
521.606	368.63
522.037	378
522.467	434.17
522.898	356.93
523.328	420.13
523.759	363.95
524.189	401.4
524.62	373.32
525.05	392.04
525.48	389.7
525.91	347.57
526.341	483.32
526.771	389.7
527.201	375.66
527.631	455.23
528.061	406.08
528.49	413.1
528.92	455.23
529.35	359.27
529.78	422.47
530.209	392.04
530.639	452.89
531.068	469.28
531.498	438.85
531.927	396.72
532.357	459.92
532.786	410.76
533.215	429.49
533.644	370.97
534.074	443.53
534.503	434.17
534.932	450.55
535.361	399.06
535.79	422.47
536.218	387.36
536.647	424.81
537.076	434.17
537.505	427.15
537.933	443.53
538.362	480.98
538.79	443.53
539.219	471.62
539.647	459.92
540.076	490.34
540.504	555.88
540.932	565.24
541.36	602.69
541.788	649.5
542.217	677.59
542.645	682.27
543.073	691.63
543.5	747.8
543.928	738.44
544.356	794.61
544.784	726.74
545.211	778.23
545.639	656.52
546.067	717.37
546.494	609.71
546.922	539.49
547.349	593.33
547.776	490.34
548.204	464.6
548.631	462.26
549.058	478.64
549.485	499.7
549.912	480.98
550.339	469.28
550.766	480.98
551.193	499.7
551.62	452.89
552.047	410.76
552.474	476.3
552.9	448.21
553.327	462.26
553.754	368.63
554.18	459.92
554.607	455.23
555.033	436.51
555.459	406.08
555.886	480.98
556.312	448.21
556.738	370.97
557.164	422.47
557.59	406.08
558.016	340.55
558.442	403.74
558.868	427.15
559.294	424.81
559.72	396.72
560.145	368.63
560.571	387.36
560.997	394.38
561.422	382.68
561.848	438.85
562.273	438.85
562.699	410.76
563.124	373.32
563.549	380.34
563.974	399.06
564.4	445.87
564.825	441.19
565.25	417.79
565.675	366.29
566.1	436.51
566.525	441.19
566.95	457.57
567.374	464.6
567.799	378
568.224	389.7
568.648	443.53
569.073	431.83
569.497	399.06
569.922	359.27
570.346	366.29
570.771	363.95
571.195	438.85
571.619	399.06
572.043	406.08
572.467	368.63
572.891	394.38
573.315	347.57
573.739	403.74
574.163	345.23
574.587	452.89
575.011	448.21
575.435	504.39
575.858	392.04
576.282	389.7
576.705	415.45
577.129	413.1
577.552	403.74
577.976	408.42
578.399	488
578.822	406.08
579.245	424.81
579.669	462.26
580.092	459.92
580.515	429.49
580.938	448.21
581.361	448.21
581.784	326.5
582.206	485.66
582.629	478.64
583.052	403.74
583.474	455.23
583.897	441.19
584.32	436.51
584.742	434.17
585.165	392.04
585.587	375.66
586.009	495.02
586.431	464.6
586.854	448.21
587.276	483.32
587.698	406.08
588.12	413.1
588.542	389.7
588.964	394.38
589.386	413.1
589.807	429.49
590.229	429.49
590.651	473.96
591.073	406.08
591.494	396.72
591.916	380.34
592.337	436.51
592.759	403.74
593.18	452.89
593.601	420.13
594.022	417.79
594.444	352.25
594.865	317.14
595.286	392.04
595.707	385.02
596.128	436.51
596.549	356.93
596.97	380.34
597.39	352.25
597.811	415.45
598.232	338.21
598.652	368.63
599.073	431.83
599.494	342.89
599.914	382.68
600.334	373.32
600.755	335.87
601.175	331.19
601.595	370.97
602.015	338.21
602.436	352.25
602.856	469.28
603.276	373.32
603.696	399.06
604.115	349.91
604.535	375.66
604.955	373.32
605.375	356.93
605.794	352.25
606.214	354.59
606.634	387.36
607.053	375.66
607.473	345.23
607.892	417.79
608.311	394.38
608.731	410.76
609.15	438.85
609.569	539.49
609.988	693.97
610.407	719.71
610.826	750.14
611.245	839.08
611.664	801.63
612.083	700.99
612.501	595.67
612.92	602.69
613.339	544.17
613.757	576.94
614.176	525.45
614.594	534.81
615.013	485.66
615.431	443.53
615.85	394.38
616.268	354.59
616.686	406.08
617.104	352.25
617.522	321.82
617.94	415.45
618.358	375.66
618.776	401.4
619.194	389.7
619.612	368.63
620.03	448.21
620.447	420.13
620.865	338.21
621.282	417.79
621.7	378
622.117	370.97
622.535	333.53
622.952	378
623.369	347.57
623.787	331.19
624.204	356.93
624.621	375.66
625.038	359.27
625.455	368.63
625.872	321.82
626.289	354.59
626.706	382.68
627.123	331.19
627.539	354.59
627.956	363.95
628.373	370.97
628.789	441.19
629.206	396.72
629.622	347.57
630.038	310.12
630.455	366.29
630.871	429.49
631.287	373.32
631.703	321.82
632.12	340.55
632.536	279.69
632.952	342.89
633.368	375.66
633.783	349.91
634.199	293.74
634.615	253.95
635.031	291.4
635.446	335.87
635.862	307.78
636.277	349.91
636.693	340.55
637.108	340.55
637.524	324.16
637.939	305.44
638.354	335.87
638.77	289.06
639.185	349.91
639.6	300.76
640.015	296.08
640.43	296.08
640.845	300.76
641.259	317.14
641.674	284.38
642.089	305.44
642.504	291.4
642.918	298.42
643.333	277.35
643.747	303.1
644.162	338.21
644.576	326.5
644.991	314.8
645.405	328.85
645.819	335.87
646.233	307.78
646.647	277.35
647.061	314.8
647.475	307.78
647.889	338.21
648.303	370.97
648.717	324.16
649.131	300.76
649.545	277.35
649.958	293.74
650.372	300.76
650.785	333.53
651.199	382.68
651.612	370.97
652.026	373.32
652.439	312.46
652.852	328.85
653.266	296.08
653.679	282.03
654.092	286.72
654.505	265.65
654.918	321.82
655.331	347.57
655.744	298.42
656.156	328.85
656.569	275.01
656.982	335.87
657.394	303.1
657.807	319.48
658.22	312.46
658.632	331.19
659.044	333.53
659.457	340.55
659.869	331.19
660.281	279.69
660.693	382.68
661.106	291.4
661.518	363.95
661.93	335.87
662.342	300.76
662.754	347.57
663.165	317.14
663.577	333.53
663.989	319.48
664.401	345.23
664.812	251.61
665.224	310.12
665.635	291.4
666.047	312.46
666.458	366.29
666.869	300.76
667.281	326.5
667.692	340.55
668.103	307.78
668.514	331.19
668.925	303.1
669.336	356.93
669.747	270.33
670.158	282.03
670.569	378
670.979	265.65
671.39	284.38
671.801	361.61
672.211	312.46
672.622	279.69
673.032	312.46
673.443	349.91
673.853	310.12
674.263	321.82
674.674	314.8
675.084	298.42
675.494	256.29
675.904	275.01
676.314	326.5
676.724	300.76
677.134	249.27
677.544	317.14
677.953	312.46
678.363	305.44
678.773	317.14
679.182	282.03
679.592	338.21
680.001	270.33
680.411	253.95
680.82	296.08
681.23	275.01
681.639	307.78
682.048	277.35
682.457	312.46
682.866	324.16
683.275	312.46
683.684	221.18
684.093	305.44
684.502	312.46
684.911	314.8
685.32	312.46
685.728	310.12
686.137	230.54
686.546	321.82
686.954	328.85
687.363	312.46
687.771	331.19
688.179	310.12
688.588	289.06
688.996	331.19
689.404	321.82
689.812	307.78
690.22	251.61
690.628	296.08
691.036	349.91
691.444	284.38
691.852	300.76
692.26	277.35
692.667	342.89
693.075	349.91
693.483	331.19
693.89	265.65
694.298	314.8
694.705	338.21
695.112	275.01
695.52	293.74
695.927	293.74
696.334	342.89
696.741	303.1
697.148	359.27
697.555	354.59
697.962	246.93
698.369	310.12
698.776	293.74
699.183	326.5
699.59	333.53
699.996	335.87
700.403	326.5
700.81	307.78
701.216	314.8
701.623	296.08
702.029	347.57
702.435	296.08
702.842	361.61
703.248	286.72
703.654	253.95
704.06	246.93
704.466	342.89
704.872	216.5
705.278	352.25
705.684	321.82
706.09	415.45
706.496	310.12
706.901	321.82
707.307	338.21
707.712	335.87
708.118	307.78
708.523	307.78
708.929	335.87
709.334	331.19
709.74	319.48
710.145	300.76
710.55	310.12
710.955	324.16
711.36	359.27
711.765	349.91
712.17	307.78
712.575	363.95
712.98	942.07
713.385	331.19
713.789	303.1
714.194	211.82
714.599	286.72
715.003	347.57
715.408	317.14
715.812	265.65
716.217	244.59
716.621	221.18
717.025	260.97
717.429	314.8
717.833	200.12
718.238	270.33
718.642	333.53
719.046	230.54
719.449	300.76
719.853	373.32
720.257	272.67
720.661	272.67
721.065	225.86
721.468	251.61
721.872	267.99
722.275	307.78
722.679	279.69
723.082	293.74
723.485	305.44
723.889	272.67
724.292	282.03
724.695	296.08
725.098	321.82
725.501	235.22
725.904	326.5
726.307	345.23
726.71	352.25
727.113	293.74
727.516	368.63
727.918	305.44
728.321	286.72
728.724	244.59
729.126	251.61
729.529	275.01
729.931	286.72
730.333	286.72
730.736	279.69
731.138	277.35
731.54	284.38
731.942	249.27
732.344	310.12
732.746	267.99
733.148	328.85
733.55	275.01
733.952	300.76
734.354	312.46
734.756	300.76
735.157	214.16
735.559	317.14
735.96	251.61
736.362	279.69
736.763	303.1
737.165	249.27
737.566	310.12
737.967	253.95
738.368	230.54
738.77	251.61
739.171	282.03
739.572	317.14
739.973	275.01
740.374	183.73
740.774	272.67
741.175	298.42
741.576	342.89
741.977	354.59
742.377	272.67
742.778	223.52
743.178	253.95
743.579	338.21
743.979	342.89
744.379	260.97
744.78	296.08
745.18	284.38
745.58	307.78
745.98	263.31
746.38	267.99
746.78	263.31
747.18	275.01
747.58	249.27
747.98	312.46
748.38	253.95
748.779	270.33
749.179	298.42
749.578	258.63
749.978	270.33
750.377	321.82
750.777	286.72
751.176	333.53
751.575	300.76
751.975	296.08
752.374	256.29
752.773	291.4
753.172	286.72
753.571	345.23
753.97	221.18
754.369	265.65
754.768	307.78
755.166	267.99
755.565	314.8
755.964	282.03
756.362	284.38
756.761	272.67
757.159	347.57
757.558	310.12
757.956	298.42
758.354	317.14
758.753	303.1
759.151	354.59
759.549	265.65
759.947	319.48
760.345	282.03
760.743	284.38
761.141	277.35
761.539	293.74
761.936	293.74
762.334	326.5
762.732	298.42
763.129	333.53
763.527	321.82
763.924	256.29
764.322	324.16
764.719	277.35
765.117	258.63
765.514	260.97
765.911	340.55
766.308	263.31
766.705	286.72
767.102	267.99
767.499	347.57
767.896	368.63
768.293	223.52
768.69	272.67
769.086	249.27
769.483	284.38
769.88	260.97
770.276	263.31
770.673	284.38
771.069	282.03
771.466	363.95
771.862	305.44
772.258	279.69
772.654	270.33
773.05	256.29
773.447	267.99
773.843	267.99
774.239	300.76
774.634	305.44
775.03	279.69
775.426	291.4
775.822	314.8
776.218	237.56
776.613	286.72
777.009	310.12
777.404	303.1
777.8	267.99
778.195	270.33
778.59	296.08
778.986	307.78
779.381	349.91
779.776	258.63
780.171	277.35
780.566	305.44
780.961	258.63
781.356	265.65
781.751	286.72
782.146	263.31
782.54	282.03
782.935	244.59
783.33	256.29
783.724	291.4
784.119	275.01
784.513	321.82
784.908	279.69
785.302	298.42
785.696	242.25
786.09	256.29
786.485	303.1
786.879	333.53
787.273	314.8
787.667	310.12
788.061	270.33
788.454	275.01
788.848	263.31
789.242	296.08
789.636	303.1
790.029	258.63
790.423	303.1
790.816	317.14
791.21	328.85
791.603	270.33
791.997	310.12
792.39	312.46
792.783	282.03
793.176	321.82
793.569	277.35
793.962	289.06
794.355	270.33
794.748	326.5
795.141	279.69
795.534	291.4
795.927	249.27
796.319	310.12
796.712	272.67
797.105	305.44
797.497	246.93
797.89	319.48
798.282	312.46
798.674	298.42
799.067	230.54
799.459	298.42
799.851	326.5
800.243	335.87
800.635	305.44
801.027	291.4
801.419	342.89
801.811	338.21
802.203	249.27
802.594	305.44
802.986	204.8
803.378	310.12
803.769	321.82
804.161	286.72
804.552	263.31
804.944	286.72
805.335	293.74
805.726	321.82
806.118	272.67
806.509	293.74
806.9	333.53
807.291	298.42
807.682	289.06
808.073	289.06
808.464	321.82
808.855	338.21
809.245	235.22
809.636	296.08
810.027	319.48
810.417	326.5
810.808	279.69
811.198	340.55
811.589	305.44
811.979	289.06
812.369	239.9
812.759	300.76
813.15	275.01
813.54	286.72
813.93	258.63
814.32	282.03
814.71	307.78
815.1	284.38
815.489	249.27
815.879	277.35
816.269	260.97
816.658	347.57
817.048	289.06
817.438	305.44
817.827	361.61
818.216	258.63
818.606	284.38
818.995	249.27
819.384	310.12
819.773	244.59
820.163	282.03
820.552	331.19
820.941	221.18
821.33	242.25
821.718	298.42
822.107	293.74
822.496	298.42
822.885	300.76
823.273	244.59
823.662	314.8
824.05	298.42
824.439	291.4
824.827	289.06
825.216	279.69
825.604	310.12
825.992	328.85
826.38	326.5
826.768	328.85
827.156	342.89
827.544	237.56
827.932	260.97
828.32	263.31
828.708	270.33
829.096	253.95
829.483	279.69
829.871	324.16
830.259	298.42
830.646	333.53
831.034	284.38
831.421	314.8
831.808	347.57
832.196	366.29
832.583	296.08
832.97	321.82
833.357	310.12
833.744	331.19
834.131	312.46
834.518	314.8
834.905	284.38
835.292	275.01
835.678	335.87
836.065	242.25
836.452	249.27
836.838	251.61
837.225	298.42
837.611	324.16
837.998	333.53
838.384	347.57
838.77	305.44
839.157	253.95
839.543	324.16
839.929	319.48
840.315	289.06
840.701	282.03
841.087	265.65
841.473	291.4
841.858	200.12
842.244	249.27
842.63	321.82
843.015	298.42
843.401	612.05
843.787	303.1
844.172	263.31
844.557	279.69
844.943	249.27
845.328	256.29
845.713	303.1
846.098	293.74
846.483	272.67
846.868	267.99
847.253	237.56
847.638	279.69
848.023	317.14
848.408	251.61
848.793	286.72
849.177	317.14
849.562	300.76
849.947	305.44
850.331	319.48
850.715	267.99
851.1	300.76
851.484	326.5
851.868	277.35
852.253	312.46
852.637	258.63
853.021	270.33
853.405	296.08
853.789	328.85
854.173	317.14
854.557	333.53
854.94	310.12
855.324	314.8
855.708	312.46
856.091	286.72
856.475	328.85
856.858	298.42
857.242	272.67
857.625	275.01
858.009	258.63
858.392	265.65
858.775	277.35
859.158	270.33
859.541	326.5
859.924	267.99
860.307	265.65
860.69	291.4
861.073	291.4
861.456	310.12
861.838	267.99
862.221	382.68
862.604	284.38
862.986	246.93
863.369	256.29
863.751	347.57
864.133	314.8
864.516	260.97
864.898	242.25
865.28	289.06
865.662	251.61
866.044	263.31
866.426	235.22
866.808	244.59
867.19	277.35
867.572	282.03
867.954	270.33
868.336	237.56
868.717	242.25
869.099	342.89
869.48	270.33
869.862	319.48
870.243	279.69
870.625	267.99
871.006	282.03
871.387	249.27
871.768	345.23
872.149	291.4
872.53	267.99
872.911	289.06
873.292	305.44
873.673	338.21
874.054	340.55
874.435	333.53
874.815	258.63
875.196	258.63
875.577	279.69
875.957	303.1
876.338	333.53
876.718	267.99
877.098	239.9
877.479	310.12
877.859	298.42
878.239	267.99
878.619	272.67
878.999	310.12
879.379	303.1
879.759	310.12
880.139	244.59
880.519	275.01
880.898	331.19
881.278	284.38
881.658	298.42
882.037	260.97
882.417	335.87
882.796	256.29
883.176	326.5
883.555	333.53
883.934	253.95
884.313	314.8
884.693	312.46
885.072	356.93
885.451	324.16
885.83	298.42
886.209	272.67
886.587	293.74
886.966	275.01
887.345	286.72
887.724	296.08
888.102	312.46
888.481	284.38
888.859	293.74
889.238	291.4
889.616	207.14
889.994	270.33
890.373	289.06
890.751	298.42
891.129	279.69
891.507	284.38
891.885	263.31
892.263	291.4
892.641	253.95
893.019	305.44
893.396	275.01
893.774	265.65
894.152	223.52
894.529	228.2
894.907	277.35
895.284	204.8
895.662	251.61
896.039	286.72
896.416	340.55
896.794	277.35
897.171	258.63
897.548	300.76
897.925	319.48
898.302	260.97
898.679	267.99
899.056	267.99
899.433	340.55
899.809	279.69
900.186	277.35
900.563	296.08
900.939	282.03
901.316	317.14
901.692	253.95
902.069	347.57
902.445	310.12
902.821	275.01
903.197	239.9
903.574	293.74
903.95	223.52
904.326	284.38
904.702	232.88
905.078	235.22
905.454	312.46
905.829	300.76
906.205	298.42
906.581	282.03
906.956	335.87
907.332	289.06
907.707	232.88
908.083	300.76
908.458	275.01
908.833	314.8
909.209	286.72
909.584	291.4
909.959	270.33
910.334	218.84
910.709	277.35
911.084	300.76
911.459	307.78
911.834	253.95
912.209	260.97
912.583	361.61
912.958	279.69
913.333	277.35
913.707	275.01
914.082	230.54
914.456	277.35
914.83	244.59
915.205	277.35
915.579	312.46
915.953	277.35
916.327	239.9
916.701	270.33
917.075	310.12
917.449	289.06
917.823	300.76
918.197	179.05
918.571	352.25
918.944	260.97
919.318	249.27
919.692	251.61
920.065	317.14
920.438	258.63
920.812	300.76
921.185	249.27
921.558	253.95
921.932	277.35
922.305	272.67
922.678	284.38
923.051	300.76
923.424	303.1
923.797	267.99
924.17	326.5
924.542	303.1
924.915	242.25
925.288	167.35
925.661	272.67
926.033	333.53
926.406	284.38
926.778	347.57
927.15	258.63
927.523	279.69
927.895	282.03
928.267	303.1
928.639	284.38
929.011	249.27
929.383	282.03
929.755	279.69
930.127	307.78
930.499	242.25
930.871	291.4
931.242	232.88
931.614	216.5
931.986	277.35
932.357	324.16
932.729	396.72
933.1	328.85
933.471	303.1
933.843	272.67
934.214	282.03
934.585	298.42
934.956	284.38
935.327	209.48
935.698	260.97
936.069	237.56
936.44	277.35
936.811	270.33
937.182	270.33
937.552	244.59
937.923	251.61
938.293	272.67
938.664	249.27
939.034	230.54
939.405	284.38
939.775	305.44
940.145	307.78
940.516	282.03
940.886	310.12
941.256	279.69
941.626	314.8
941.996	291.4
942.366	303.1
942.735	298.42
943.105	300.76
943.475	291.4
943.845	265.65
944.214	246.93
944.584	333.53
944.953	312.46
945.323	298.42
945.692	279.69
946.061	331.19
946.43	286.72
946.8	317.14
947.169	338.21
947.538	282.03
947.907	293.74
948.276	291.4
948.645	291.4
949.013	232.88
949.382	265.65
949.751	232.88
950.119	265.65
950.488	307.78
950.857	282.03
951.225	256.29
951.593	225.86
951.962	232.88
952.33	291.4
952.698	298.42
953.066	275.01
953.434	270.33
953.802	263.31
954.17	312.46
954.538	310.12
954.906	293.74
955.274	291.4
955.642	326.5
956.009	298.42
956.377	312.46
956.744	246.93
957.112	214.16
957.479	310.12
957.847	286.72
958.214	223.52
958.581	326.5
958.948	258.63
959.315	237.56
959.683	296.08
960.05	342.89
960.416	272.67
960.783	267.99
961.15	317.14
961.517	286.72
961.884	277.35
962.25	256.29
962.617	277.35
962.983	319.48
963.35	244.59
963.716	202.46
964.082	260.97
964.449	366.29
964.815	298.42
965.181	359.27
965.547	319.48
965.913	333.53
966.279	331.19
966.645	249.27
967.011	284.38
967.377	242.25
967.742	310.12
968.108	284.38
968.474	291.4
968.839	312.46
969.205	366.29
969.57	317.14
969.935	321.82
970.301	289.06
970.666	321.82
971.031	317.14
971.396	244.59
971.761	246.93
972.126	352.25
972.491	331.19
972.856	263.31
973.221	270.33
973.586	293.74
973.95	263.31
974.315	303.1
974.679	260.97
975.044	286.72
975.408	260.97
975.773	335.87
976.137	312.46
976.501	305.44
976.866	272.67
977.23	244.59
977.594	221.18
977.958	275.01
978.322	239.9
978.686	307.78
979.049	270.33
979.413	277.35
979.777	218.84
980.141	328.85
980.504	235.22
980.868	253.95
981.231	282.03
981.595	275.01
981.958	284.38
982.321	298.42
982.684	289.06
983.048	270.33
983.411	251.61
983.774	275.01
984.137	296.08
984.5	263.31
984.862	258.63
985.225	282.03
985.588	265.65
985.951	253.95
986.313	279.69
986.676	244.59
987.038	326.5
987.401	293.74
987.763	279.69
988.125	258.63
988.488	260.97
988.85	263.31
989.212	265.65
989.574	338.21
989.936	291.4
990.298	286.72
990.66	307.78
991.022	307.78
991.383	293.74
991.745	279.69
992.107	235.22
992.468	239.9
992.83	267.99
993.191	232.88
993.553	291.4
993.914	279.69
994.275	258.63
994.637	225.86
994.998	183.73
995.359	251.61
995.72	305.44
996.081	272.67
996.442	345.23
996.803	296.08
997.163	314.8
997.524	286.72
997.885	256.29
998.245	239.9
998.606	305.44
998.966	305.44
999.327	286.72
999.687	331.19
1000.047	333.53
1000.408	296.08
1000.768	253.95
1001.128	342.89
1001.488	270.33
1001.848	263.31
1002.208	300.76
1002.568	284.38
1002.927	263.31
1003.287	207.14
1003.647	289.06
1004.007	326.5
1004.366	256.29
1004.726	312.46
1005.085	289.06
1005.444	263.31
1005.804	267.99
1006.163	237.56
1006.522	284.38
1006.881	277.35
1007.24	265.65
1007.599	267.99
1007.958	275.01
1008.317	359.27
1008.676	263.31
1009.035	293.74
1009.393	328.85
1009.752	303.1
1010.111	345.23
1010.469	289.06
1010.828	284.38
1011.186	246.93
1011.544	232.88
1011.903	305.44
1012.261	347.57
1012.619	242.25
1012.977	293.74
1013.335	263.31
1013.693	267.99
1014.051	242.25
1014.409	310.12
1014.767	265.65
1015.124	275.01
1015.482	296.08
1015.84	296.08
1016.197	359.27
1016.555	326.5
1016.912	190.75
1017.269	272.67
1017.627	356.93
1017.984	326.5
1018.341	258.63
1018.698	321.82
1019.055	251.61
1019.412	237.56
1019.769	258.63
1020.126	272.67
1020.483	312.46
1020.84	239.9
1021.196	284.38
1021.553	338.21
1021.909	279.69
1022.266	275.01
1022.622	239.9
1022.979	298.42
1023.335	223.52
1023.691	286.72
1024.047	293.74
1024.404	319.48
1024.76	267.99
1025.116	253.95
1025.472	230.54
1025.827	317.14
1026.183	251.61
1026.539	235.22
1026.895	284.38
1027.25	305.44
1027.606	286.72
1027.961	239.9
1028.317	265.65
1028.672	256.29
1029.028	291.4
1029.383	310.12
1029.738	300.76
1030.093	331.19
1030.448	279.69
1030.803	284.38
1031.158	223.52
1031.513	256.29
1031.868	279.69
1032.223	324.16
1032.577	246.93
1032.932	319.48
1033.287	289.06
1033.641	347.57
1033.996	277.35
1034.35	270.33
1034.704	289.06
1035.059	263.31
1035.413	363.95
1035.767	363.95
1036.121	363.95
