Data from Al_FLMS009871__275__12-21-18-145.txt Node

Date: Fri Mar 08 12:21:18 CST 2024
User: pe5414po
Spectrometer: FLMS00987
Trigger mode: 0
Integration Time (sec): 1.000000E-1
Scans to average: 1
Electric dark correction enabled: true
Nonlinearity correction enabled: false
Boxcar width: 0
XAxis mode: Wavelengths
Number of Pixels in Spectrum: 2048
>>>>>Begin Spectral Data<<<<<
188.938	-28.96
189.409	-28.96
189.879	-28.96
190.349	-122.59
190.819	-68.75
191.29	-134.29
191.76	-47.69
192.23	-94.5
192.7	-92.16
193.17	-57.05
193.64	-47.69
194.109	20.19
194.579	-73.43
195.049	-26.62
195.519	29.55
195.988	1.46
196.458	85.72
196.927	90.4
197.397	123.17
197.866	81.04
198.336	141.89
198.805	137.21
199.274	153.6
199.744	179.34
200.213	162.96
200.682	179.34
201.151	205.09
201.62	223.81
202.089	216.79
202.558	247.22
203.027	277.65
203.495	198.07
203.964	282.33
204.433	244.88
204.902	233.18
205.37	279.99
205.839	244.88
206.307	282.33
206.776	254.24
207.244	258.92
207.712	263.6
208.181	249.56
208.649	268.28
209.117	305.73
209.585	289.35
210.053	263.6
210.521	205.09
210.989	265.94
211.457	251.9
211.925	230.84
212.393	310.41
212.861	249.56
213.328	237.86
213.796	291.69
214.264	256.58
214.731	296.37
215.199	298.71
215.666	251.9
216.133	263.6
216.601	298.71
217.068	317.44
217.535	277.65
218.003	254.24
218.47	240.2
218.937	282.33
219.404	277.65
219.871	275.31
220.338	212.11
220.805	284.67
221.271	287.01
221.738	205.09
222.205	312.75
222.671	294.03
223.138	247.22
223.605	242.54
224.071	319.78
224.538	251.9
225.004	223.81
225.47	261.26
225.937	258.92
226.403	305.73
226.869	254.24
227.335	263.6
227.801	277.65
228.267	298.71
228.733	322.12
229.199	296.37
229.665	258.92
230.131	308.07
230.597	202.75
231.062	261.26
231.528	289.35
231.994	331.48
232.459	291.69
232.925	336.16
233.39	268.28
233.856	230.84
234.321	275.31
234.786	324.46
235.252	301.05
235.717	308.07
236.182	256.58
236.647	247.22
237.112	261.26
237.577	240.2
238.042	263.6
238.507	270.62
238.972	237.86
239.436	272.96
239.901	294.03
240.366	230.84
240.83	329.14
241.295	303.39
241.76	291.69
242.224	289.35
242.688	279.99
243.153	301.05
243.617	289.35
244.081	249.56
244.545	305.73
245.01	282.33
245.474	268.28
245.938	305.73
246.402	270.62
246.866	237.86
247.33	282.33
247.793	261.26
248.257	331.48
248.721	244.88
249.185	326.8
249.648	244.88
250.112	287.01
250.575	289.35
251.039	272.96
251.502	291.69
251.965	268.28
252.429	308.07
252.892	315.09
253.355	272.96
253.818	310.41
254.281	303.39
254.744	324.46
255.207	242.54
255.67	291.69
256.133	291.69
256.596	279.99
257.059	279.99
257.522	277.65
257.984	319.78
258.447	254.24
258.909	375.95
259.372	291.69
259.834	275.31
260.297	324.46
260.759	216.79
261.221	357.22
261.684	268.28
262.146	303.39
262.608	279.99
263.07	343.18
263.532	277.65
263.994	261.26
264.456	279.99
264.918	315.09
265.38	279.99
265.842	322.12
266.303	249.56
266.765	291.69
267.227	214.45
267.688	258.92
268.15	242.54
268.611	289.35
269.072	258.92
269.534	319.78
269.995	368.93
270.456	287.01
270.918	301.05
271.379	284.67
271.84	263.6
272.301	219.13
272.762	270.62
273.223	291.69
273.684	345.52
274.144	263.6
274.605	359.56
275.066	254.24
275.527	319.78
275.987	324.46
276.448	254.24
276.908	270.62
277.369	240.2
277.829	357.22
278.289	242.54
278.75	272.96
279.21	301.05
279.67	317.44
280.13	324.46
280.59	282.33
281.05	338.5
281.51	235.52
281.97	240.2
282.43	237.86
282.89	258.92
283.35	310.41
283.809	315.09
284.269	289.35
284.729	247.22
285.188	308.07
285.648	357.22
286.107	289.35
286.567	244.88
287.026	308.07
287.485	347.86
287.944	329.14
288.404	301.05
288.863	287.01
289.322	291.69
289.781	347.86
290.24	352.54
290.699	272.96
291.158	279.99
291.616	324.46
292.075	287.01
292.534	294.03
292.992	258.92
293.451	258.92
293.91	308.07
294.368	312.75
294.827	303.39
295.285	312.75
295.743	233.18
296.202	315.09
296.66	317.44
297.118	242.54
297.576	242.54
298.034	310.41
298.492	289.35
298.95	296.37
299.408	347.86
299.866	338.5
300.324	282.33
300.781	272.96
301.239	261.26
301.697	282.33
302.154	343.18
302.612	380.63
303.069	272.96
303.527	338.5
303.984	287.01
304.441	354.88
304.899	261.26
305.356	268.28
305.813	324.46
306.27	289.35
306.727	258.92
307.184	329.14
307.641	284.67
308.098	298.71
308.555	301.05
309.012	340.84
309.468	338.5
309.925	242.54
310.382	240.2
310.838	244.88
311.295	289.35
311.751	301.05
312.208	315.09
312.664	294.03
313.12	291.69
313.577	333.82
314.033	347.86
314.489	336.16
314.945	270.62
315.401	319.78
315.857	331.48
316.313	310.41
316.769	291.69
317.225	287.01
317.681	380.63
318.136	312.75
318.592	366.59
319.048	301.05
319.503	317.44
319.959	308.07
320.414	308.07
320.869	282.33
321.325	347.86
321.78	324.46
322.235	258.92
322.691	371.27
323.146	347.86
323.601	235.52
324.056	312.75
324.511	251.9
324.966	303.39
325.421	338.5
325.875	287.01
326.33	336.16
326.785	263.6
327.24	308.07
327.694	287.01
328.149	265.94
328.603	296.37
329.058	268.28
329.512	324.46
329.966	326.8
330.421	289.35
330.875	289.35
331.329	317.44
331.783	331.48
332.237	287.01
332.691	324.46
333.145	315.09
333.599	249.56
334.053	345.52
334.507	336.16
334.96	294.03
335.414	312.75
335.868	256.58
336.321	333.82
336.775	282.33
337.228	265.94
337.682	322.12
338.135	237.86
338.588	294.03
339.042	357.22
339.495	336.16
339.948	368.93
340.401	322.12
340.854	331.48
341.307	329.14
341.76	249.56
342.213	303.39
342.666	312.75
343.119	345.52
343.571	272.96
344.024	303.39
344.477	322.12
344.929	298.71
345.382	352.54
345.834	315.09
346.287	308.07
346.739	378.29
347.191	338.5
347.644	298.71
348.096	265.94
348.548	301.05
349	284.67
349.452	296.37
349.904	319.78
350.356	312.75
350.808	268.28
351.26	294.03
351.711	289.35
352.163	291.69
352.615	294.03
353.066	256.58
353.518	322.12
353.969	329.14
354.421	230.84
354.872	289.35
355.324	345.52
355.775	308.07
356.226	329.14
356.677	298.71
357.128	240.2
357.579	357.22
358.03	291.69
358.481	310.41
358.932	315.09
359.383	364.25
359.834	357.22
360.285	291.69
360.735	319.78
361.186	275.31
361.637	315.09
362.087	343.18
362.538	291.69
362.988	258.92
363.438	303.39
363.889	294.03
364.339	308.07
364.789	352.54
365.239	326.8
365.689	378.29
366.139	270.62
366.589	291.69
367.039	331.48
367.489	301.05
367.939	308.07
368.389	343.18
368.839	287.01
369.288	298.71
369.738	329.14
370.187	352.54
370.637	354.88
371.086	284.67
371.536	380.63
371.985	333.82
372.434	331.48
372.884	301.05
373.333	326.8
373.782	312.75
374.231	331.48
374.68	317.44
375.129	352.54
375.578	361.91
376.027	340.84
376.475	261.26
376.924	291.69
377.373	373.61
377.822	336.16
378.27	326.8
378.719	333.82
379.167	291.69
379.616	371.27
380.064	282.33
380.512	301.05
380.961	331.48
381.409	319.78
381.857	303.39
382.305	310.41
382.753	305.73
383.201	331.48
383.649	338.5
384.097	368.93
384.545	319.78
384.992	354.88
385.44	270.62
385.888	268.28
386.335	322.12
386.783	305.73
387.231	343.18
387.678	329.14
388.125	326.8
388.573	340.84
389.02	270.62
389.467	303.39
389.914	296.37
390.362	310.41
390.809	242.54
391.256	329.14
391.703	359.56
392.15	322.12
392.596	324.46
393.043	291.69
393.49	310.41
393.937	308.07
394.383	294.03
394.83	336.16
395.276	343.18
395.723	305.73
396.169	315.09
396.616	322.12
397.062	282.33
397.508	340.84
397.954	350.2
398.401	364.25
398.847	354.88
399.293	333.82
399.739	279.99
400.185	317.44
400.631	333.82
401.076	315.09
401.522	256.58
401.968	352.54
402.414	230.84
402.859	265.94
403.305	350.2
403.75	312.75
404.196	322.12
404.641	354.88
405.086	331.48
405.532	279.99
405.977	294.03
406.422	308.07
406.867	305.73
407.312	317.44
407.757	301.05
408.202	279.99
408.647	361.91
409.092	308.07
409.537	347.86
409.982	310.41
410.426	263.6
410.871	331.48
411.316	343.18
411.76	366.59
412.205	319.78
412.649	301.05
413.093	308.07
413.538	298.71
413.982	272.96
414.426	371.27
414.87	319.78
415.314	315.09
415.758	352.54
416.202	333.82
416.646	359.56
417.09	380.63
417.534	373.61
417.978	359.56
418.421	331.48
418.865	345.52
419.309	345.52
419.752	324.46
420.196	373.61
420.639	350.2
421.083	371.27
421.526	338.5
421.969	331.48
422.412	296.37
422.856	345.52
423.299	345.52
423.742	413.4
424.185	368.93
424.628	326.8
425.071	324.46
425.513	366.59
425.956	352.54
426.399	392.33
426.842	357.22
427.284	368.93
427.727	413.4
428.169	373.61
428.612	347.86
429.054	333.82
429.497	354.88
429.939	357.22
430.381	333.82
430.823	422.76
431.265	326.8
431.707	394.67
432.149	329.14
432.591	420.42
433.033	380.63
433.475	427.44
433.917	408.72
434.359	469.57
434.8	502.34
435.242	556.17
435.684	546.81
436.125	462.55
436.567	441.48
437.008	495.32
437.449	420.42
437.891	457.87
438.332	415.74
438.773	530.42
439.214	385.31
439.656	488.29
440.097	460.21
440.538	485.95
440.978	420.42
441.419	464.89
441.86	478.93
442.301	516.38
442.742	492.98
443.182	511.7
443.623	565.53
444.063	502.34
444.504	432.12
444.944	523.4
445.385	556.17
445.825	523.4
446.265	509.36
446.706	521.06
447.146	464.89
447.586	504.68
448.026	474.25
448.466	574.89
448.906	504.68
449.346	500
449.786	446.16
450.225	514.04
450.665	532.76
451.105	464.89
451.544	485.95
451.984	457.87
452.424	460.21
452.863	399.35
453.302	490.63
453.742	516.38
454.181	455.53
454.62	455.53
455.059	551.49
455.499	401.69
455.938	446.16
456.377	439.14
456.816	443.82
457.254	474.25
457.693	469.57
458.132	448.51
458.571	497.66
459.01	439.14
459.448	457.87
459.887	422.76
460.325	427.44
460.764	460.21
461.202	394.67
461.641	450.85
462.079	436.8
462.517	406.38
462.955	446.16
463.393	375.95
463.832	441.48
464.27	420.42
464.708	345.52
465.145	406.38
465.583	394.67
466.021	394.67
466.459	446.16
466.897	413.4
467.334	401.69
467.772	371.27
468.209	427.44
468.647	485.95
469.084	422.76
469.522	347.86
469.959	350.2
470.396	420.42
470.833	366.59
471.271	399.35
471.708	399.35
472.145	387.65
472.582	352.54
473.019	380.63
473.456	387.65
473.892	378.29
474.329	401.69
474.766	387.65
475.202	401.69
475.639	364.25
476.076	439.14
476.512	385.31
476.949	345.52
477.385	366.59
477.821	408.72
478.258	385.31
478.694	380.63
479.13	418.08
479.566	361.91
480.002	429.78
480.438	394.67
480.874	336.16
481.31	359.56
481.746	331.48
482.181	404.03
482.617	422.76
483.053	422.76
483.488	354.88
483.924	415.74
484.36	432.12
484.795	399.35
485.23	432.12
485.666	418.08
486.101	429.78
486.536	413.4
486.971	411.06
487.407	399.35
487.842	457.87
488.277	455.53
488.712	516.38
489.146	455.53
489.581	528.08
490.016	427.44
490.451	443.82
490.885	389.99
491.32	453.19
491.755	448.51
492.189	481.27
492.624	443.82
493.058	448.51
493.492	443.82
493.927	385.31
494.361	425.1
494.795	415.74
495.229	436.8
495.663	443.82
496.097	413.4
496.531	406.38
496.965	443.82
497.399	392.33
497.833	415.74
498.266	399.35
498.7	415.74
499.134	392.33
499.567	408.72
500.001	382.97
500.434	420.42
500.868	401.69
501.301	418.08
501.734	429.78
502.168	319.78
502.601	460.21
503.034	413.4
503.467	368.93
503.9	389.99
504.333	413.4
504.766	380.63
505.199	394.67
505.632	359.56
506.064	476.59
506.497	404.03
506.93	326.8
507.362	413.4
507.795	336.16
508.227	389.99
508.66	427.44
509.092	441.48
509.524	408.72
509.956	432.12
510.389	406.38
510.821	415.74
511.253	394.67
511.685	429.78
512.117	408.72
512.549	429.78
512.981	434.46
513.412	436.8
513.844	404.03
514.276	401.69
514.707	483.61
515.139	443.82
515.571	397.01
516.002	432.12
516.433	464.89
516.865	439.14
517.296	354.88
517.727	425.1
518.159	427.44
518.59	420.42
519.021	478.93
519.452	399.35
519.883	368.93
520.314	467.23
520.744	413.4
521.175	446.16
521.606	457.87
522.037	467.23
522.467	418.08
522.898	441.48
523.328	429.78
523.759	427.44
524.189	432.12
524.62	481.27
525.05	371.27
525.48	455.53
525.91	476.59
526.341	427.44
526.771	392.33
527.201	457.87
527.631	415.74
528.061	413.4
528.49	378.29
528.92	460.21
529.35	446.16
529.78	420.42
530.209	474.25
530.639	401.69
531.068	329.14
531.498	476.59
531.927	450.85
532.357	457.87
532.786	553.83
533.215	478.93
533.644	441.48
534.074	446.16
534.503	497.66
534.932	446.16
535.361	408.72
535.79	413.4
536.218	453.19
536.647	385.31
537.076	485.95
537.505	485.95
537.933	380.63
538.362	500
538.79	521.06
539.219	455.53
539.647	455.53
540.076	490.63
540.504	532.76
540.932	574.89
541.36	645.11
541.788	710.65
542.217	701.28
542.645	684.9
543.073	757.46
543.5	670.86
543.928	731.71
544.356	745.75
544.784	787.88
545.211	741.07
545.639	757.46
546.067	745.75
546.494	673.2
546.922	577.23
547.349	567.87
547.776	530.42
548.204	500
548.631	497.66
549.058	495.32
549.485	551.49
549.912	518.72
550.339	495.32
550.766	455.53
551.193	507.02
551.62	483.61
552.047	504.68
552.474	422.76
552.9	462.55
553.327	544.47
553.754	425.1
554.18	455.53
554.607	469.57
555.033	415.74
555.459	427.44
555.886	392.33
556.312	368.93
556.738	394.67
557.164	415.74
557.59	420.42
558.016	418.08
558.442	425.1
558.868	408.72
559.294	387.65
559.72	432.12
560.145	481.27
560.571	359.56
560.997	350.2
561.422	378.29
561.848	441.48
562.273	364.25
562.699	448.51
563.124	462.55
563.549	514.04
563.974	404.03
564.4	385.31
564.825	432.12
565.25	411.06
565.675	375.95
566.1	427.44
566.525	455.53
566.95	474.25
567.374	446.16
567.799	432.12
568.224	434.46
568.648	429.78
569.073	397.01
569.497	439.14
569.922	441.48
570.346	443.82
570.771	450.85
571.195	387.65
571.619	455.53
572.043	361.91
572.467	397.01
572.891	413.4
573.315	429.78
573.739	425.1
574.163	401.69
574.587	439.14
575.011	357.22
575.435	371.27
575.858	434.46
576.282	408.72
576.705	478.93
577.129	464.89
577.552	392.33
577.976	453.19
578.399	509.36
578.822	436.8
579.245	467.23
579.669	460.21
580.092	467.23
580.515	490.63
580.938	467.23
581.361	436.8
581.784	460.21
582.206	464.89
582.629	490.63
583.052	488.29
583.474	448.51
583.897	488.29
584.32	434.46
584.742	500
585.165	436.8
585.587	502.34
586.009	483.61
586.431	439.14
586.854	556.17
587.276	509.36
587.698	467.23
588.12	443.82
588.542	436.8
588.964	434.46
589.386	387.65
589.807	502.34
590.229	429.78
590.651	434.46
591.073	490.63
591.494	471.91
591.916	420.42
592.337	432.12
592.759	406.38
593.18	397.01
593.601	397.01
594.022	427.44
594.444	418.08
594.865	439.14
595.286	401.69
595.707	434.46
596.128	411.06
596.549	392.33
596.97	413.4
597.39	404.03
597.811	382.97
598.232	446.16
598.652	385.31
599.073	432.12
599.494	474.25
599.914	450.85
600.334	317.44
600.755	380.63
601.175	464.89
601.595	368.93
602.015	375.95
602.436	408.72
602.856	500
603.276	364.25
603.696	392.33
604.115	418.08
604.535	425.1
604.955	317.44
605.375	404.03
605.794	394.67
606.214	368.93
606.634	448.51
607.053	432.12
607.473	333.82
607.892	441.48
608.311	514.04
608.731	432.12
609.15	469.57
609.569	588.94
609.988	610
610.407	811.29
610.826	801.93
611.245	811.29
611.664	778.52
612.083	703.62
612.501	645.11
612.92	621.7
613.339	654.47
613.757	586.6
614.176	544.47
614.594	521.06
615.013	500
615.431	464.89
615.85	457.87
616.268	385.31
616.686	448.51
617.104	373.61
617.522	495.32
617.94	408.72
618.358	347.86
618.776	404.03
619.194	404.03
619.612	418.08
620.03	415.74
620.447	399.35
620.865	418.08
621.282	408.72
621.7	406.38
622.117	406.38
622.535	364.25
622.952	359.56
623.369	397.01
623.787	368.93
624.204	401.69
624.621	315.09
625.038	350.2
625.455	378.29
625.872	443.82
626.289	366.59
626.706	317.44
627.123	350.2
627.539	345.52
627.956	392.33
628.373	389.99
628.789	343.18
629.206	415.74
629.622	408.72
630.038	385.31
630.455	345.52
630.871	392.33
631.287	401.69
631.703	443.82
632.12	422.76
632.536	338.5
632.952	371.27
633.368	389.99
633.783	392.33
634.199	357.22
634.615	352.54
635.031	411.06
635.446	340.84
635.862	343.18
636.277	413.4
636.693	364.25
637.108	366.59
637.524	373.61
637.939	359.56
638.354	352.54
638.77	319.78
639.185	361.91
639.6	389.99
640.015	340.84
640.43	345.52
640.845	333.82
641.259	364.25
641.674	345.52
642.089	326.8
642.504	352.54
642.918	298.71
643.333	305.73
643.747	375.95
644.162	310.41
644.576	294.03
644.991	301.05
645.405	411.06
645.819	324.46
646.233	343.18
646.647	364.25
647.061	380.63
647.475	305.73
647.889	382.97
648.303	382.97
648.717	375.95
649.131	322.12
649.545	331.48
649.958	338.5
650.372	380.63
650.785	319.78
651.199	294.03
651.612	303.39
652.026	338.5
652.439	406.38
652.852	305.73
653.266	354.88
653.679	317.44
654.092	329.14
654.505	354.88
654.918	317.44
655.331	277.65
655.744	347.86
656.156	319.78
656.569	291.69
656.982	357.22
657.394	368.93
657.807	315.09
658.22	315.09
658.632	371.27
659.044	329.14
659.457	251.9
659.869	350.2
660.281	368.93
660.693	308.07
661.106	357.22
661.518	357.22
661.93	336.16
662.342	317.44
662.754	333.82
663.165	333.82
663.577	282.33
663.989	413.4
664.401	296.37
664.812	345.52
665.224	308.07
665.635	315.09
666.047	319.78
666.458	378.29
666.869	361.91
667.281	296.37
667.692	364.25
668.103	287.01
668.514	322.12
668.925	308.07
669.336	368.93
669.747	301.05
670.158	303.39
670.569	368.93
670.979	319.78
671.39	345.52
671.801	352.54
672.211	322.12
672.622	308.07
673.032	333.82
673.443	319.78
673.853	354.88
674.263	401.69
674.674	338.5
675.084	373.61
675.494	361.91
675.904	338.5
676.314	361.91
676.724	305.73
677.134	310.41
677.544	279.99
677.953	319.78
678.363	345.52
678.773	387.65
679.182	380.63
679.592	338.5
680.001	329.14
680.411	333.82
680.82	317.44
681.23	303.39
681.639	329.14
682.048	338.5
682.457	331.48
682.866	319.78
683.275	340.84
683.684	319.78
684.093	319.78
684.502	331.48
684.911	338.5
685.32	350.2
685.728	319.78
686.137	366.59
686.546	331.48
686.954	343.18
687.363	308.07
687.771	352.54
688.179	408.72
688.588	354.88
688.996	322.12
689.404	319.78
689.812	308.07
690.22	312.75
690.628	352.54
691.036	242.54
691.444	329.14
691.852	319.78
692.26	359.56
692.667	312.75
693.075	329.14
693.483	329.14
693.89	310.41
694.298	247.22
694.705	303.39
695.112	310.41
695.52	338.5
695.927	324.46
696.334	345.52
696.741	308.07
697.148	263.6
697.555	347.86
697.962	317.44
698.369	277.65
698.776	282.33
699.183	310.41
699.59	296.37
699.996	291.69
700.403	294.03
700.81	333.82
701.216	352.54
701.623	340.84
702.029	329.14
702.435	294.03
702.842	265.94
703.248	284.67
703.654	368.93
704.06	301.05
704.466	331.48
704.872	279.99
705.278	317.44
705.684	373.61
706.09	352.54
706.496	354.88
706.901	347.86
707.307	324.46
707.712	347.86
708.118	345.52
708.523	366.59
708.929	338.5
709.334	350.2
709.74	301.05
710.145	343.18
710.55	301.05
710.955	352.54
711.36	345.52
711.765	338.5
712.17	378.29
712.575	385.31
712.98	930.66
713.385	366.59
713.789	352.54
714.194	308.07
714.599	324.46
715.003	368.93
715.408	338.5
715.812	308.07
716.217	319.78
716.621	317.44
717.025	261.26
717.429	371.27
717.833	301.05
718.238	333.82
718.642	319.78
719.046	324.46
719.449	359.56
719.853	324.46
720.257	312.75
720.661	366.59
721.065	317.44
721.468	308.07
721.872	322.12
722.275	265.94
722.679	305.73
723.082	287.01
723.485	296.37
723.889	317.44
724.292	298.71
724.695	265.94
725.098	312.75
725.501	373.61
725.904	319.78
726.307	305.73
726.71	317.44
727.113	303.39
727.516	287.01
727.918	258.92
728.321	336.16
728.724	305.73
729.126	251.9
729.529	303.39
729.931	237.86
730.333	277.65
730.736	331.48
731.138	296.37
731.54	359.56
731.942	298.71
732.344	308.07
732.746	350.2
733.148	322.12
733.55	326.8
733.952	333.82
734.354	310.41
734.756	406.38
735.157	354.88
735.559	291.69
735.96	294.03
736.362	329.14
736.763	340.84
737.165	352.54
737.566	319.78
737.967	303.39
738.368	352.54
738.77	317.44
739.171	312.75
739.572	272.96
739.973	270.62
740.374	336.16
740.774	305.73
741.175	284.67
741.576	272.96
741.977	249.56
742.377	272.96
742.778	336.16
743.178	340.84
743.579	287.01
743.979	322.12
744.379	319.78
744.78	329.14
745.18	364.25
745.58	303.39
745.98	326.8
746.38	301.05
746.78	310.41
747.18	310.41
747.58	308.07
747.98	310.41
748.38	361.91
748.779	366.59
749.179	352.54
749.578	324.46
749.978	343.18
750.377	289.35
750.777	394.67
751.176	312.75
751.575	326.8
751.975	298.71
752.374	296.37
752.773	315.09
753.172	397.01
753.571	361.91
753.97	315.09
754.369	312.75
754.768	214.45
755.166	326.8
755.565	322.12
755.964	336.16
756.362	317.44
756.761	263.6
757.159	324.46
757.558	251.9
757.956	333.82
758.354	366.59
758.753	305.73
759.151	312.75
759.549	277.65
759.947	251.9
760.345	347.86
760.743	317.44
761.141	279.99
761.539	331.48
761.936	343.18
762.334	301.05
762.732	329.14
763.129	366.59
763.527	322.12
763.924	368.93
764.322	347.86
764.719	310.41
765.117	235.52
765.514	359.56
765.911	322.12
766.308	366.59
766.705	399.35
767.102	361.91
767.499	275.31
767.896	279.99
768.293	333.82
768.69	340.84
769.086	322.12
769.483	284.67
769.88	291.69
770.276	331.48
770.673	312.75
771.069	298.71
771.466	322.12
771.862	277.65
772.258	228.49
772.654	256.58
773.05	310.41
773.447	284.67
773.843	368.93
774.239	265.94
774.634	331.48
775.03	319.78
775.426	317.44
775.822	298.71
776.218	284.67
776.613	322.12
777.009	310.41
777.404	319.78
777.8	315.09
778.195	317.44
778.59	275.31
778.986	301.05
779.381	319.78
779.776	308.07
780.171	310.41
780.566	364.25
780.961	371.27
781.356	282.33
781.751	361.91
782.146	319.78
782.54	394.67
782.935	378.29
783.33	319.78
783.724	303.39
784.119	287.01
784.513	315.09
784.908	219.13
785.302	343.18
785.696	317.44
786.09	350.2
786.485	364.25
786.879	298.71
787.273	331.48
787.667	343.18
788.061	364.25
788.454	268.28
788.848	329.14
789.242	345.52
789.636	322.12
790.029	338.5
790.423	340.84
790.816	305.73
791.21	366.59
791.603	298.71
791.997	329.14
792.39	303.39
792.783	308.07
793.176	361.91
793.569	282.33
793.962	301.05
794.355	303.39
794.748	338.5
795.141	312.75
795.534	301.05
795.927	301.05
796.319	378.29
796.712	329.14
797.105	354.88
797.497	258.92
797.89	301.05
798.282	326.8
798.674	347.86
799.067	287.01
799.459	317.44
799.851	366.59
800.243	268.28
800.635	287.01
801.027	331.48
801.419	291.69
801.811	352.54
802.203	340.84
802.594	326.8
802.986	270.62
803.378	310.41
803.769	331.48
804.161	312.75
804.552	338.5
804.944	385.31
805.335	310.41
805.726	336.16
806.118	279.99
806.509	301.05
806.9	263.6
807.291	333.82
807.682	315.09
808.073	357.22
808.464	291.69
808.855	291.69
809.245	331.48
809.636	312.75
810.027	305.73
810.417	357.22
810.808	291.69
811.198	242.54
811.589	397.01
811.979	340.84
812.369	315.09
812.759	324.46
813.15	338.5
813.54	312.75
813.93	294.03
814.32	354.88
814.71	326.8
815.1	338.5
815.489	261.26
815.879	350.2
816.269	352.54
816.658	272.96
817.048	343.18
817.438	230.84
817.827	312.75
818.216	322.12
818.606	305.73
818.995	209.77
819.384	294.03
819.773	378.29
820.163	284.67
820.552	294.03
820.941	303.39
821.33	326.8
821.718	359.56
822.107	289.35
822.496	289.35
822.885	345.52
823.273	352.54
823.662	340.84
824.05	254.24
824.439	324.46
824.827	324.46
825.216	317.44
825.604	308.07
825.992	338.5
826.38	294.03
826.768	326.8
827.156	319.78
827.544	310.41
827.932	282.33
828.32	317.44
828.708	357.22
829.096	254.24
829.483	282.33
829.871	240.2
830.259	347.86
830.646	399.35
831.034	319.78
831.421	249.56
831.808	340.84
832.196	352.54
832.583	326.8
832.97	319.78
833.357	345.52
833.744	382.97
834.131	378.29
834.518	333.82
834.905	361.91
835.292	319.78
835.678	319.78
836.065	294.03
836.452	401.69
836.838	373.61
837.225	291.69
837.611	329.14
837.998	345.52
838.384	315.09
838.77	347.86
839.157	333.82
839.543	333.82
839.929	305.73
840.315	373.61
840.701	287.01
841.087	340.84
841.473	322.12
841.858	294.03
842.244	347.86
842.63	284.67
843.015	294.03
843.401	537.45
843.787	256.58
844.172	268.28
844.557	279.99
844.943	326.8
845.328	279.99
845.713	256.58
846.098	326.8
846.483	319.78
846.868	324.46
847.253	272.96
847.638	397.01
848.023	291.69
848.408	258.92
848.793	378.29
849.177	282.33
849.562	345.52
849.947	315.09
850.331	289.35
850.715	312.75
851.1	291.69
851.484	357.22
851.868	322.12
852.253	329.14
852.637	326.8
853.021	268.28
853.405	287.01
853.789	303.39
854.173	324.46
854.557	310.41
854.94	317.44
855.324	326.8
855.708	317.44
856.091	359.56
856.475	296.37
856.858	333.82
857.242	338.5
857.625	272.96
858.009	294.03
858.392	251.9
858.775	326.8
859.158	352.54
859.541	315.09
859.924	298.71
860.307	282.33
860.69	347.86
861.073	308.07
861.456	326.8
861.838	258.92
862.221	287.01
862.604	272.96
862.986	287.01
863.369	277.65
863.751	368.93
864.133	289.35
864.516	240.2
864.898	322.12
865.28	303.39
865.662	284.67
866.044	268.28
866.426	326.8
866.808	317.44
867.19	298.71
867.572	223.81
867.954	294.03
868.336	272.96
868.717	193.39
869.099	361.91
869.48	338.5
869.862	298.71
870.243	399.35
870.625	275.31
871.006	317.44
871.387	347.86
871.768	310.41
872.149	322.12
872.53	247.22
872.911	338.5
873.292	338.5
873.673	296.37
874.054	345.52
874.435	298.71
874.815	221.47
875.196	305.73
875.577	378.29
875.957	272.96
876.338	315.09
876.718	298.71
877.098	312.75
877.479	336.16
877.859	319.78
878.239	331.48
878.619	310.41
878.999	331.48
879.379	375.95
879.759	333.82
880.139	322.12
880.519	343.18
880.898	303.39
881.278	319.78
881.658	322.12
882.037	364.25
882.417	326.8
882.796	317.44
883.176	319.78
883.555	247.22
883.934	296.37
884.313	352.54
884.693	310.41
885.072	399.35
885.451	359.56
885.83	331.48
886.209	261.26
886.587	347.86
886.966	242.54
887.345	303.39
887.724	340.84
888.102	333.82
888.481	385.31
888.859	305.73
889.238	345.52
889.616	284.67
889.994	392.33
890.373	343.18
890.751	308.07
891.129	315.09
891.507	354.88
891.885	258.92
892.263	368.93
892.641	287.01
893.019	359.56
893.396	263.6
893.774	289.35
894.152	303.39
894.529	322.12
894.907	275.31
895.284	287.01
895.662	268.28
896.039	322.12
896.416	340.84
896.794	256.58
897.171	345.52
897.548	284.67
897.925	303.39
898.302	350.2
898.679	294.03
899.056	268.28
899.433	303.39
899.809	275.31
900.186	340.84
900.563	270.62
900.939	312.75
901.316	279.99
901.692	322.12
902.069	294.03
902.445	357.22
902.821	303.39
903.197	324.46
903.574	308.07
903.95	336.16
904.326	291.69
904.702	308.07
905.078	279.99
905.454	296.37
905.829	347.86
906.205	301.05
906.581	296.37
906.956	301.05
907.332	270.62
907.707	329.14
908.083	319.78
908.458	326.8
908.833	343.18
909.209	329.14
909.584	287.01
909.959	324.46
910.334	347.86
910.709	326.8
911.084	272.96
911.459	354.88
911.834	326.8
912.209	315.09
912.583	352.54
912.958	319.78
913.333	310.41
913.707	333.82
914.082	317.44
914.456	317.44
914.83	366.59
915.205	319.78
915.579	298.71
915.953	240.2
916.327	329.14
916.701	207.43
917.075	268.28
917.449	282.33
917.823	284.67
918.197	329.14
918.571	216.79
918.944	303.39
919.318	315.09
919.692	336.16
920.065	301.05
920.438	352.54
920.812	322.12
921.185	279.99
921.558	230.84
921.932	310.41
922.305	317.44
922.678	354.88
923.051	296.37
923.424	392.33
923.797	282.33
924.17	324.46
924.542	347.86
924.915	289.35
925.288	291.69
925.661	347.86
926.033	340.84
926.406	230.84
926.778	291.69
927.15	282.33
927.523	296.37
927.895	270.62
928.267	284.67
928.639	319.78
929.011	333.82
929.383	270.62
929.755	338.5
930.127	340.84
930.499	282.33
930.871	284.67
931.242	305.73
931.614	329.14
931.986	308.07
932.357	301.05
932.729	289.35
933.1	345.52
933.471	287.01
933.843	347.86
934.214	352.54
934.585	296.37
934.956	291.69
935.327	275.31
935.698	272.96
936.069	251.9
936.44	237.86
936.811	315.09
937.182	303.39
937.552	333.82
937.923	319.78
938.293	317.44
938.664	289.35
939.034	368.93
939.405	261.26
939.775	394.67
940.145	315.09
940.516	352.54
940.886	251.9
941.256	282.33
941.626	305.73
941.996	298.71
942.366	294.03
942.735	329.14
943.105	319.78
943.475	364.25
943.845	268.28
944.214	251.9
944.584	347.86
944.953	371.27
945.323	343.18
945.692	289.35
946.061	287.01
946.43	268.28
946.8	294.03
947.169	331.48
947.538	357.22
947.907	298.71
948.276	364.25
948.645	284.67
949.013	326.8
949.382	268.28
949.751	319.78
950.119	310.41
950.488	303.39
950.857	287.01
951.225	345.52
951.593	333.82
951.962	371.27
952.33	308.07
952.698	345.52
953.066	310.41
953.434	359.56
953.802	251.9
954.17	329.14
954.538	282.33
954.906	296.37
955.274	373.61
955.642	361.91
956.009	305.73
956.377	333.82
956.744	228.49
957.112	301.05
957.479	294.03
957.847	209.77
958.214	279.99
958.581	289.35
958.948	315.09
959.315	401.69
959.683	364.25
960.05	366.59
960.416	301.05
960.783	331.48
961.15	343.18
961.517	333.82
961.884	291.69
962.25	366.59
962.617	275.31
962.983	322.12
963.35	336.16
963.716	268.28
964.082	301.05
964.449	312.75
964.815	317.44
965.181	277.65
965.547	270.62
965.913	291.69
966.279	270.62
966.645	296.37
967.011	289.35
967.377	366.59
967.742	301.05
968.108	343.18
968.474	289.35
968.839	258.92
969.205	371.27
969.57	277.65
969.935	265.94
970.301	249.56
970.666	289.35
971.031	368.93
971.396	364.25
971.761	279.99
972.126	275.31
972.491	305.73
972.856	256.58
973.221	343.18
973.586	287.01
973.95	289.35
974.315	350.2
974.679	265.94
975.044	298.71
975.408	298.71
975.773	315.09
976.137	312.75
976.501	326.8
976.866	296.37
977.23	291.69
977.594	359.56
977.958	326.8
978.322	329.14
978.686	294.03
979.049	310.41
979.413	331.48
979.777	319.78
980.141	310.41
980.504	350.2
980.868	324.46
981.231	336.16
981.595	301.05
981.958	324.46
982.321	354.88
982.684	364.25
983.048	357.22
983.411	268.28
983.774	242.54
984.137	315.09
984.5	310.41
984.862	319.78
985.225	340.84
985.588	268.28
985.951	312.75
986.313	375.95
986.676	310.41
987.038	345.52
987.401	359.56
987.763	275.31
988.125	301.05
988.488	338.5
988.85	305.73
989.212	336.16
989.574	312.75
989.936	422.76
990.298	319.78
990.66	345.52
991.022	361.91
991.383	303.39
991.745	235.52
992.107	305.73
992.468	333.82
992.83	317.44
993.191	336.16
993.553	230.84
993.914	256.58
994.275	284.67
994.637	352.54
994.998	287.01
995.359	303.39
995.72	294.03
996.081	336.16
996.442	275.31
996.803	270.62
997.163	270.62
997.524	303.39
997.885	258.92
998.245	289.35
998.606	343.18
998.966	305.73
999.327	350.2
999.687	251.9
1000.047	310.41
1000.408	382.97
1000.768	336.16
1001.128	265.94
1001.488	366.59
1001.848	287.01
1002.208	333.82
1002.568	282.33
1002.927	308.07
1003.287	301.05
1003.647	364.25
1004.007	322.12
1004.366	291.69
1004.726	343.18
1005.085	254.24
1005.444	319.78
1005.804	312.75
1006.163	385.31
1006.522	317.44
1006.881	282.33
1007.24	315.09
1007.599	303.39
1007.958	268.28
1008.317	380.63
1008.676	310.41
1009.035	247.22
1009.393	317.44
1009.752	322.12
1010.111	326.8
1010.469	272.96
1010.828	256.58
1011.186	305.73
1011.544	279.99
1011.903	287.01
1012.261	282.33
1012.619	265.94
1012.977	256.58
1013.335	310.41
1013.693	308.07
1014.051	291.69
1014.409	336.16
1014.767	331.48
1015.124	305.73
1015.482	361.91
1015.84	352.54
1016.197	319.78
1016.555	331.48
1016.912	308.07
1017.269	284.67
1017.627	322.12
1017.984	315.09
1018.341	326.8
1018.698	263.6
1019.055	350.2
1019.412	289.35
1019.769	270.62
1020.126	277.65
1020.483	324.46
1020.84	279.99
1021.196	375.95
1021.553	343.18
1021.909	294.03
1022.266	336.16
1022.622	343.18
1022.979	333.82
1023.335	294.03
1023.691	298.71
1024.047	333.82
1024.404	270.62
1024.76	256.58
1025.116	322.12
1025.472	310.41
1025.827	312.75
1026.183	361.91
1026.539	294.03
1026.895	261.26
1027.25	319.78
1027.606	298.71
1027.961	298.71
1028.317	322.12
1028.672	282.33
1029.028	324.46
1029.383	338.5
1029.738	287.01
1030.093	373.61
1030.448	329.14
1030.803	242.54
1031.158	324.46
1031.513	340.84
1031.868	338.5
1032.223	268.28
1032.577	249.56
1032.932	326.8
1033.287	326.8
1033.641	244.88
1033.996	326.8
1034.35	322.12
1034.704	258.92
1035.059	287.01
1035.413	305.73
1035.767	305.73
1036.121	305.73
