Data from Al_FLMS009871__833__15-30-07-196.txt Node

Date: Fri Mar 08 15:30:07 CST 2024
User: pe5414po
Spectrometer: FLMS00987
Trigger mode: 0
Integration Time (sec): 1.000000E-1
Scans to average: 1
Electric dark correction enabled: true
Nonlinearity correction enabled: false
Boxcar width: 0
XAxis mode: Wavelengths
Number of Pixels in Spectrum: 2048
>>>>>Begin Spectral Data<<<<<
188.938	-58.22
189.409	-58.22
189.879	-58.22
190.349	-105.03
190.819	-72.26
191.29	-140.14
191.76	-76.95
192.23	-69.92
192.7	-88.65
193.17	-48.86
193.64	0.29
194.109	-13.75
194.579	-58.22
195.049	-30.13
195.519	33.06
195.988	65.83
196.458	30.72
196.927	61.15
197.397	84.55
197.866	147.75
198.336	103.28
198.805	133.7
199.274	194.56
199.744	168.81
200.213	239.03
200.682	215.62
201.151	232.01
201.62	234.35
202.089	215.62
202.558	232.01
203.027	229.67
203.495	309.24
203.964	267.11
204.433	253.07
204.902	299.88
205.37	306.9
205.839	318.61
206.307	325.63
206.776	304.56
207.244	346.69
207.712	290.52
208.181	323.29
208.649	304.56
209.117	320.95
209.585	384.14
210.053	281.16
210.521	316.26
210.989	353.71
211.457	344.35
211.925	276.48
212.393	318.61
212.861	356.05
213.328	360.74
213.796	224.98
214.264	255.41
214.731	332.65
215.199	327.97
215.666	274.14
216.133	253.07
216.601	288.18
217.068	339.67
217.535	262.43
218.003	241.37
218.47	309.24
218.937	323.29
219.404	264.77
219.871	267.11
220.338	229.67
220.805	267.11
221.271	334.99
221.738	316.26
222.205	189.88
222.671	288.18
223.138	344.35
223.605	281.16
224.071	281.16
224.538	246.05
225.004	327.97
225.47	299.88
225.937	243.71
226.403	313.92
226.869	297.54
227.335	262.43
227.801	337.33
228.267	346.69
228.733	292.86
229.199	285.84
229.665	239.03
230.131	276.48
230.597	290.52
231.062	288.18
231.528	264.77
231.994	377.12
232.459	288.18
232.925	281.16
233.39	290.52
233.856	320.95
234.321	316.26
234.786	295.2
235.252	299.88
235.717	281.16
236.182	227.32
236.647	276.48
237.112	288.18
237.577	253.07
238.042	342.01
238.507	325.63
238.972	311.58
239.436	257.75
239.901	323.29
240.366	288.18
240.83	342.01
241.295	330.31
241.76	306.9
242.224	264.77
242.688	206.26
243.153	367.76
243.617	264.77
244.081	267.11
244.545	278.82
245.01	201.58
245.474	274.14
245.938	306.9
246.402	241.37
246.866	342.01
247.33	222.64
247.793	292.86
248.257	290.52
248.721	299.88
249.185	274.14
249.648	318.61
250.112	283.5
250.575	276.48
251.039	309.24
251.502	334.99
251.965	271.79
252.429	325.63
252.892	274.14
253.355	332.65
253.818	290.52
254.281	342.01
254.744	313.92
255.207	260.09
255.67	288.18
256.133	337.33
256.596	320.95
257.059	288.18
257.522	346.69
257.984	295.2
258.447	276.48
258.909	278.82
259.372	337.33
259.834	299.88
260.297	320.95
260.759	260.09
261.221	327.97
261.684	332.65
262.146	388.82
262.608	269.45
263.07	285.84
263.532	276.48
263.994	278.82
264.456	278.82
264.918	356.05
265.38	316.26
265.842	339.67
266.303	304.56
266.765	351.37
267.227	309.24
267.688	299.88
268.15	278.82
268.611	339.67
269.072	353.71
269.534	285.84
269.995	332.65
270.456	267.11
270.918	306.9
271.379	234.35
271.84	260.09
272.301	320.95
272.762	316.26
273.223	356.05
273.684	346.69
274.144	356.05
274.605	330.31
275.066	407.55
275.527	318.61
275.987	295.2
276.448	351.37
276.908	358.39
277.369	330.31
277.829	388.82
278.289	283.5
278.75	349.03
279.21	297.54
279.67	302.22
280.13	400.52
280.59	283.5
281.05	311.58
281.51	313.92
281.97	311.58
282.43	295.2
282.89	288.18
283.35	316.26
283.809	320.95
284.269	316.26
284.729	320.95
285.188	351.37
285.648	271.79
286.107	288.18
286.567	346.69
287.026	283.5
287.485	325.63
287.944	281.16
288.404	281.16
288.863	318.61
289.322	339.67
289.781	281.16
290.24	295.2
290.699	388.82
291.158	290.52
291.616	320.95
292.075	299.88
292.534	306.9
292.992	311.58
293.451	388.82
293.91	306.9
294.368	309.24
294.827	304.56
295.285	306.9
295.743	306.9
296.202	351.37
296.66	304.56
297.118	292.86
297.576	318.61
298.034	327.97
298.492	395.84
298.95	353.71
299.408	264.77
299.866	309.24
300.324	351.37
300.781	353.71
301.239	309.24
301.697	316.26
302.154	313.92
302.612	306.9
303.069	309.24
303.527	313.92
303.984	271.79
304.441	246.05
304.899	327.97
305.356	346.69
305.813	297.54
306.27	234.35
306.727	283.5
307.184	323.29
307.641	257.75
308.098	267.11
308.555	290.52
309.012	306.9
309.468	292.86
309.925	339.67
310.382	274.14
310.838	360.74
311.295	318.61
311.751	339.67
312.208	377.12
312.664	325.63
313.12	325.63
313.577	290.52
314.033	297.54
314.489	320.95
314.945	285.84
315.401	253.07
315.857	313.92
316.313	365.42
316.769	330.31
317.225	339.67
317.681	257.75
318.136	381.8
318.592	313.92
319.048	339.67
319.503	316.26
319.959	386.48
320.414	342.01
320.869	334.99
321.325	292.86
321.78	271.79
322.235	353.71
322.691	372.44
323.146	379.46
323.601	367.76
324.056	318.61
324.511	342.01
324.966	323.29
325.421	278.82
325.875	316.26
326.33	332.65
326.785	302.22
327.24	344.35
327.694	388.82
328.149	285.84
328.603	306.9
329.058	334.99
329.512	318.61
329.966	325.63
330.421	334.99
330.875	271.79
331.329	327.97
331.783	342.01
332.237	327.97
332.691	342.01
333.145	257.75
333.599	398.18
334.053	334.99
334.507	346.69
334.96	325.63
335.414	316.26
335.868	302.22
336.321	337.33
336.775	342.01
337.228	337.33
337.682	281.16
338.135	363.08
338.588	327.97
339.042	358.39
339.495	304.56
339.948	309.24
340.401	393.5
340.854	309.24
341.307	334.99
341.76	311.58
342.213	346.69
342.666	332.65
343.119	393.5
343.571	313.92
344.024	320.95
344.477	332.65
344.929	386.48
345.382	309.24
345.834	264.77
346.287	372.44
346.739	358.39
347.191	320.95
347.644	346.69
348.096	330.31
348.548	337.33
349	367.76
349.452	311.58
349.904	374.78
350.356	358.39
350.808	454.36
351.26	316.26
351.711	302.22
352.163	327.97
352.615	405.21
353.066	367.76
353.518	304.56
353.969	344.35
354.421	388.82
354.872	409.89
355.324	358.39
355.775	316.26
356.226	323.29
356.677	349.03
357.128	337.33
357.579	297.54
358.03	309.24
358.481	349.03
358.932	386.48
359.383	374.78
359.834	318.61
360.285	327.97
360.735	306.9
361.186	325.63
361.637	309.24
362.087	304.56
362.538	323.29
362.988	281.16
363.438	313.92
363.889	370.1
364.339	306.9
364.789	339.67
365.239	304.56
365.689	339.67
366.139	377.12
366.589	356.05
367.039	381.8
367.489	367.76
367.939	349.03
368.389	358.39
368.839	379.46
369.288	327.97
369.738	349.03
370.187	349.03
370.637	325.63
371.086	297.54
371.536	327.97
371.985	339.67
372.434	302.22
372.884	337.33
373.333	309.24
373.782	337.33
374.231	325.63
374.68	278.82
375.129	318.61
375.578	285.84
376.027	327.97
376.475	351.37
376.924	342.01
377.373	271.79
377.822	358.39
378.27	342.01
378.719	297.54
379.167	339.67
379.616	346.69
380.064	353.71
380.512	306.9
380.961	323.29
381.409	339.67
381.857	295.2
382.305	304.56
382.753	327.97
383.201	349.03
383.649	302.22
384.097	363.08
384.545	316.26
384.992	309.24
385.44	264.77
385.888	288.18
386.335	342.01
386.783	290.52
387.231	309.24
387.678	344.35
388.125	412.23
388.573	363.08
389.02	318.61
389.467	342.01
389.914	318.61
390.362	332.65
390.809	332.65
391.256	360.74
391.703	283.5
392.15	346.69
392.596	292.86
393.043	325.63
393.49	372.44
393.937	372.44
394.383	323.29
394.83	358.39
395.276	379.46
395.723	318.61
396.169	360.74
396.616	330.31
397.062	325.63
397.508	330.31
397.954	346.69
398.401	306.9
398.847	306.9
399.293	304.56
399.739	288.18
400.185	267.11
400.631	299.88
401.076	379.46
401.522	344.35
401.968	332.65
402.414	288.18
402.859	220.3
403.305	334.99
403.75	323.29
404.196	349.03
404.641	304.56
405.086	330.31
405.532	388.82
405.977	316.26
406.422	400.52
406.867	297.54
407.312	344.35
407.757	377.12
408.202	374.78
408.647	304.56
409.092	267.11
409.537	299.88
409.982	377.12
410.426	342.01
410.871	302.22
411.316	349.03
411.76	332.65
412.205	292.86
412.649	283.5
413.093	311.58
413.538	311.58
413.982	316.26
414.426	367.76
414.87	325.63
415.314	334.99
415.758	349.03
416.202	342.01
416.646	367.76
417.09	337.33
417.534	379.46
417.978	334.99
418.421	320.95
418.865	278.82
419.309	374.78
419.752	306.9
420.196	384.14
420.639	320.95
421.083	374.78
421.526	318.61
421.969	393.5
422.412	374.78
422.856	419.25
423.299	318.61
423.742	351.37
424.185	327.97
424.628	379.46
425.071	299.88
425.513	365.42
425.956	358.39
426.399	295.2
426.842	339.67
427.284	356.05
427.727	360.74
428.169	320.95
428.612	339.67
429.054	306.9
429.497	351.37
429.939	344.35
430.381	349.03
430.823	334.99
431.265	356.05
431.707	320.95
432.149	393.5
432.591	325.63
433.033	318.61
433.475	295.2
433.917	372.44
434.359	313.92
434.8	342.01
435.242	337.33
435.684	363.08
436.125	379.46
436.567	349.03
437.008	283.5
437.449	327.97
437.891	318.61
438.332	358.39
438.773	349.03
439.214	334.99
439.656	285.84
440.097	304.56
440.538	274.14
440.978	278.82
441.419	309.24
441.86	381.8
442.301	363.08
442.742	330.31
443.182	351.37
443.623	327.97
444.063	323.29
444.504	262.43
444.944	334.99
445.385	302.22
445.825	337.33
446.265	358.39
446.706	257.75
447.146	398.18
447.586	311.58
448.026	421.59
448.466	330.31
448.906	381.8
449.346	325.63
449.786	316.26
450.225	304.56
450.665	330.31
451.105	370.1
451.544	323.29
451.984	346.69
452.424	330.31
452.863	349.03
453.302	353.71
453.742	325.63
454.181	285.84
454.62	334.99
455.059	306.9
455.499	365.42
455.938	332.65
456.377	334.99
456.816	313.92
457.254	309.24
457.693	370.1
458.132	363.08
458.571	323.29
459.01	353.71
459.448	332.65
459.887	283.5
460.325	313.92
460.764	349.03
461.202	337.33
461.641	320.95
462.079	288.18
462.517	325.63
462.955	363.08
463.393	332.65
463.832	325.63
464.27	318.61
464.708	393.5
465.145	313.92
465.583	349.03
466.021	356.05
466.459	360.74
466.897	351.37
467.334	311.58
467.772	349.03
468.209	323.29
468.647	302.22
469.084	339.67
469.522	344.35
469.959	330.31
470.396	269.45
470.833	311.58
471.271	269.45
471.708	323.29
472.145	372.44
472.582	351.37
473.019	330.31
473.456	365.42
473.892	278.82
474.329	342.01
474.766	311.58
475.202	414.57
475.639	290.52
476.076	281.16
476.512	353.71
476.949	386.48
477.385	344.35
477.821	290.52
478.258	337.33
478.694	356.05
479.13	339.67
479.566	346.69
480.002	313.92
480.438	323.29
480.874	332.65
481.31	320.95
481.746	342.01
482.181	330.31
482.617	344.35
483.053	297.54
483.488	377.12
483.924	316.26
484.36	320.95
484.795	351.37
485.23	304.56
485.666	320.95
486.101	313.92
486.536	339.67
486.971	316.26
487.407	297.54
487.842	320.95
488.277	381.8
488.712	358.39
489.146	299.88
489.581	332.65
490.016	344.35
490.451	351.37
490.885	363.08
491.32	384.14
491.755	297.54
492.189	342.01
492.624	292.86
493.058	281.16
493.492	290.52
493.927	304.56
494.361	353.71
494.795	320.95
495.229	374.78
495.663	327.97
496.097	288.18
496.531	398.18
496.965	283.5
497.399	346.69
497.833	337.33
498.266	342.01
498.7	255.41
499.134	358.39
499.567	313.92
500.001	267.11
500.434	311.58
500.868	278.82
501.301	311.58
501.734	358.39
502.168	358.39
502.601	344.35
503.034	351.37
503.467	316.26
503.9	353.71
504.333	339.67
504.766	267.11
505.199	334.99
505.632	304.56
506.064	285.84
506.497	358.39
506.93	353.71
507.362	295.2
507.795	325.63
508.227	283.5
508.66	349.03
509.092	365.42
509.524	344.35
509.956	327.97
510.389	377.12
510.821	353.71
511.253	374.78
511.685	295.2
512.117	304.56
512.549	363.08
512.981	342.01
513.412	374.78
513.844	353.71
514.276	339.67
514.707	318.61
515.139	344.35
515.571	299.88
516.002	295.2
516.433	377.12
516.865	346.69
517.296	313.92
517.727	276.48
518.159	344.35
518.59	363.08
519.021	323.29
519.452	358.39
519.883	349.03
520.314	327.97
520.744	356.05
521.175	334.99
521.606	292.86
522.037	344.35
522.467	318.61
522.898	313.92
523.328	384.14
523.759	316.26
524.189	356.05
524.62	271.79
525.05	311.58
525.48	313.92
525.91	276.48
526.341	337.33
526.771	327.97
527.201	353.71
527.631	288.18
528.061	339.67
528.49	337.33
528.92	342.01
529.35	276.48
529.78	332.65
530.209	302.22
530.639	342.01
531.068	349.03
531.498	316.26
531.927	325.63
532.357	363.08
532.786	334.99
533.215	381.8
533.644	370.1
534.074	309.24
534.503	342.01
534.932	332.65
535.361	295.2
535.79	358.39
536.218	323.29
536.647	311.58
537.076	306.9
537.505	302.22
537.933	316.26
538.362	292.86
538.79	344.35
539.219	388.82
539.647	260.09
540.076	327.97
540.504	334.99
540.932	360.74
541.36	377.12
541.788	342.01
542.217	356.05
542.645	337.33
543.073	433.29
543.5	372.44
543.928	246.05
544.356	374.78
544.784	398.18
545.211	381.8
545.639	318.61
546.067	316.26
546.494	332.65
546.922	353.71
547.349	351.37
547.776	323.29
548.204	379.46
548.631	255.41
549.058	304.56
549.485	325.63
549.912	330.31
550.339	311.58
550.766	339.67
551.193	330.31
551.62	370.1
552.047	264.77
552.474	391.16
552.9	372.44
553.327	349.03
553.754	330.31
554.18	349.03
554.607	276.48
555.033	290.52
555.459	367.76
555.886	311.58
556.312	353.71
556.738	395.84
557.164	337.33
557.59	358.39
558.016	306.9
558.442	412.23
558.868	349.03
559.294	356.05
559.72	353.71
560.145	304.56
560.571	318.61
560.997	278.82
561.422	356.05
561.848	351.37
562.273	367.76
562.699	337.33
563.124	313.92
563.549	295.2
563.974	278.82
564.4	292.86
564.825	318.61
565.25	334.99
565.675	353.71
566.1	327.97
566.525	349.03
566.95	360.74
567.374	313.92
567.799	337.33
568.224	337.33
568.648	316.26
569.073	325.63
569.497	278.82
569.922	346.69
570.346	327.97
570.771	285.84
571.195	295.2
571.619	285.84
572.043	365.42
572.467	365.42
572.891	372.44
573.315	363.08
573.739	316.26
574.163	342.01
574.587	309.24
575.011	295.2
575.435	318.61
575.858	342.01
576.282	395.84
576.705	360.74
577.129	423.93
577.552	313.92
577.976	311.58
578.399	306.9
578.822	353.71
579.245	353.71
579.669	353.71
580.092	386.48
580.515	379.46
580.938	332.65
581.361	304.56
581.784	342.01
582.206	386.48
582.629	306.9
583.052	250.73
583.474	386.48
583.897	297.54
584.32	330.31
584.742	313.92
585.165	332.65
585.587	316.26
586.009	370.1
586.431	381.8
586.854	372.44
587.276	381.8
587.698	295.2
588.12	358.39
588.542	379.46
588.964	327.97
589.386	398.18
589.807	349.03
590.229	349.03
590.651	306.9
591.073	337.33
591.494	316.26
591.916	386.48
592.337	339.67
592.759	318.61
593.18	374.78
593.601	407.55
594.022	316.26
594.444	292.86
594.865	342.01
595.286	384.14
595.707	358.39
596.128	346.69
596.549	330.31
596.97	302.22
597.39	313.92
597.811	339.67
598.232	388.82
598.652	297.54
599.073	316.26
599.494	330.31
599.914	302.22
600.334	264.77
600.755	351.37
601.175	342.01
601.595	377.12
602.015	381.8
602.436	274.14
602.856	437.97
603.276	325.63
603.696	349.03
604.115	356.05
604.535	316.26
604.955	327.97
605.375	342.01
605.794	302.22
606.214	384.14
606.634	370.1
607.053	374.78
607.473	363.08
607.892	358.39
608.311	360.74
608.731	372.44
609.15	342.01
609.569	435.63
609.988	400.52
610.407	400.52
610.826	327.97
611.245	339.67
611.664	306.9
612.083	332.65
612.501	281.16
612.92	337.33
613.339	306.9
613.757	393.5
614.176	311.58
614.594	370.1
615.013	304.56
615.431	356.05
615.85	356.05
616.268	358.39
616.686	316.26
617.104	334.99
617.522	332.65
617.94	356.05
618.358	344.35
618.776	337.33
619.194	290.52
619.612	358.39
620.03	323.29
620.447	342.01
620.865	346.69
621.282	313.92
621.7	358.39
622.117	363.08
622.535	302.22
622.952	253.07
623.369	330.31
623.787	320.95
624.204	351.37
624.621	339.67
625.038	295.2
625.455	297.54
625.872	400.52
626.289	334.99
626.706	306.9
627.123	334.99
627.539	374.78
627.956	285.84
628.373	318.61
628.789	332.65
629.206	332.65
629.622	407.55
630.038	283.5
630.455	346.69
630.871	344.35
631.287	334.99
631.703	419.25
632.12	349.03
632.536	285.84
632.952	374.78
633.368	332.65
633.783	346.69
634.199	278.82
634.615	283.5
635.031	351.37
635.446	386.48
635.862	327.97
636.277	346.69
636.693	297.54
637.108	377.12
637.524	391.16
637.939	342.01
638.354	327.97
638.77	351.37
639.185	278.82
639.6	304.56
640.015	320.95
640.43	304.56
640.845	306.9
641.259	332.65
641.674	330.31
642.089	288.18
642.504	353.71
642.918	304.56
643.333	334.99
643.747	372.44
644.162	323.29
644.576	323.29
644.991	320.95
645.405	332.65
645.819	313.92
646.233	377.12
646.647	288.18
647.061	330.31
647.475	302.22
647.889	292.86
648.303	302.22
648.717	248.39
649.131	334.99
649.545	405.21
649.958	311.58
650.372	381.8
650.785	269.45
651.199	299.88
651.612	311.58
652.026	363.08
652.439	337.33
652.852	309.24
653.266	365.42
653.679	320.95
654.092	370.1
654.505	356.05
654.918	365.42
655.331	337.33
655.744	358.39
656.156	316.26
656.569	356.05
656.982	285.84
657.394	318.61
657.807	316.26
658.22	323.29
658.632	346.69
659.044	353.71
659.457	318.61
659.869	351.37
660.281	274.14
660.693	304.56
661.106	384.14
661.518	346.69
661.93	358.39
662.342	372.44
662.754	339.67
663.165	370.1
663.577	318.61
663.989	349.03
664.401	323.29
664.812	311.58
665.224	288.18
665.635	346.69
666.047	316.26
666.458	306.9
666.869	419.25
667.281	356.05
667.692	327.97
668.103	299.88
668.514	342.01
668.925	342.01
669.336	370.1
669.747	360.74
670.158	360.74
670.569	339.67
670.979	372.44
671.39	325.63
671.801	377.12
672.211	269.45
672.622	316.26
673.032	318.61
673.443	309.24
673.853	330.31
674.263	304.56
674.674	267.11
675.084	304.56
675.494	374.78
675.904	363.08
676.314	344.35
676.724	419.25
677.134	353.71
677.544	332.65
677.953	313.92
678.363	351.37
678.773	374.78
679.182	281.16
679.592	306.9
680.001	358.39
680.411	349.03
680.82	346.69
681.23	337.33
681.639	337.33
682.048	395.84
682.457	316.26
682.866	351.37
683.275	313.92
683.684	323.29
684.093	334.99
684.502	295.2
684.911	320.95
685.32	405.21
685.728	409.89
686.137	384.14
686.546	330.31
686.954	349.03
687.363	405.21
687.771	398.18
688.179	276.48
688.588	330.31
688.996	358.39
689.404	274.14
689.812	269.45
690.22	339.67
690.628	330.31
691.036	386.48
691.444	391.16
691.852	323.29
692.26	306.9
692.667	377.12
693.075	302.22
693.483	271.79
693.89	269.45
694.298	416.91
694.705	302.22
695.112	320.95
695.52	384.14
695.927	267.11
696.334	311.58
696.741	334.99
697.148	297.54
697.555	318.61
697.962	316.26
698.369	363.08
698.776	360.74
699.183	318.61
699.59	253.07
699.996	332.65
700.403	342.01
700.81	325.63
701.216	342.01
701.623	313.92
702.029	344.35
702.435	353.71
702.842	295.2
703.248	306.9
703.654	320.95
704.06	370.1
704.466	323.29
704.872	334.99
705.278	393.5
705.684	353.71
706.09	320.95
706.496	339.67
706.901	309.24
707.307	318.61
707.712	342.01
708.118	297.54
708.523	334.99
708.929	337.33
709.334	323.29
709.74	372.44
710.145	299.88
710.55	327.97
710.955	356.05
711.36	330.31
711.765	374.78
712.17	327.97
712.575	313.92
712.98	908.42
713.385	349.03
713.789	370.1
714.194	285.84
714.599	311.58
715.003	426.27
715.408	283.5
715.812	344.35
716.217	349.03
716.621	363.08
717.025	400.52
717.429	316.26
717.833	304.56
718.238	274.14
718.642	327.97
719.046	327.97
719.449	323.29
719.853	344.35
720.257	349.03
720.661	346.69
721.065	346.69
721.468	325.63
721.872	318.61
722.275	395.84
722.679	356.05
723.082	342.01
723.485	337.33
723.889	299.88
724.292	278.82
724.695	351.37
725.098	334.99
725.501	351.37
725.904	393.5
726.307	313.92
726.71	283.5
727.113	304.56
727.516	334.99
727.918	426.27
728.321	278.82
728.724	316.26
729.126	414.57
729.529	323.29
729.931	316.26
730.333	360.74
730.736	374.78
731.138	367.76
731.54	325.63
731.942	304.56
732.344	264.77
732.746	327.97
733.148	358.39
733.55	360.74
733.952	334.99
734.354	311.58
734.756	285.84
735.157	320.95
735.559	288.18
735.96	332.65
736.362	367.76
736.763	306.9
737.165	452.02
737.566	281.16
737.967	316.26
738.368	311.58
738.77	346.69
739.171	363.08
739.572	295.2
739.973	351.37
740.374	358.39
740.774	295.2
741.175	346.69
741.576	250.73
741.977	381.8
742.377	297.54
742.778	334.99
743.178	327.97
743.579	299.88
743.979	313.92
744.379	332.65
744.78	327.97
745.18	365.42
745.58	318.61
745.98	278.82
746.38	283.5
746.78	299.88
747.18	309.24
747.58	356.05
747.98	337.33
748.38	353.71
748.779	285.84
749.179	342.01
749.578	318.61
749.978	342.01
750.377	257.75
750.777	339.67
751.176	325.63
751.575	365.42
751.975	325.63
752.374	297.54
752.773	330.31
753.172	332.65
753.571	346.69
753.97	342.01
754.369	351.37
754.768	325.63
755.166	423.93
755.565	299.88
755.964	363.08
756.362	292.86
756.761	337.33
757.159	381.8
757.558	323.29
757.956	304.56
758.354	353.71
758.753	327.97
759.151	346.69
759.549	358.39
759.947	377.12
760.345	360.74
760.743	351.37
761.141	318.61
761.539	292.86
761.936	292.86
762.334	316.26
762.732	381.8
763.129	346.69
763.527	372.44
763.924	353.71
764.322	332.65
764.719	299.88
765.117	281.16
765.514	337.33
765.911	299.88
766.308	306.9
766.705	342.01
767.102	318.61
767.499	370.1
767.896	295.2
768.293	313.92
768.69	386.48
769.086	370.1
769.483	334.99
769.88	274.14
770.276	344.35
770.673	363.08
771.069	372.44
771.466	313.92
771.862	330.31
772.258	318.61
772.654	309.24
773.05	323.29
773.447	325.63
773.843	306.9
774.239	285.84
774.634	318.61
775.03	353.71
775.426	323.29
775.822	337.33
776.218	264.77
776.613	327.97
777.009	332.65
777.404	288.18
777.8	356.05
778.195	292.86
778.59	318.61
778.986	330.31
779.381	253.07
779.776	276.48
780.171	358.39
780.566	304.56
780.961	381.8
781.356	360.74
781.751	325.63
782.146	325.63
782.54	297.54
782.935	346.69
783.33	334.99
783.724	290.52
784.119	346.69
784.513	318.61
784.908	323.29
785.302	332.65
785.696	342.01
786.09	323.29
786.485	346.69
786.879	372.44
787.273	297.54
787.667	330.31
788.061	423.93
788.454	248.39
788.848	271.79
789.242	388.82
789.636	311.58
790.029	334.99
790.423	302.22
790.816	327.97
791.21	367.76
791.603	325.63
791.997	309.24
792.39	325.63
792.783	346.69
793.176	306.9
793.569	360.74
793.962	304.56
794.355	276.48
794.748	430.95
795.141	313.92
795.534	367.76
795.927	311.58
796.319	311.58
796.712	342.01
797.105	349.03
797.497	302.22
797.89	353.71
798.282	344.35
798.674	325.63
799.067	344.35
799.459	339.67
799.851	332.65
800.243	267.11
800.635	262.43
801.027	323.29
801.419	297.54
801.811	288.18
802.203	311.58
802.594	304.56
802.986	349.03
803.378	323.29
803.769	337.33
804.161	297.54
804.552	339.67
804.944	372.44
805.335	297.54
805.726	337.33
806.118	346.69
806.509	320.95
806.9	342.01
807.291	351.37
807.682	309.24
808.073	360.74
808.464	330.31
808.855	339.67
809.245	330.31
809.636	243.71
810.027	386.48
810.417	297.54
810.808	306.9
811.198	377.12
811.589	360.74
811.979	334.99
812.369	342.01
812.759	370.1
813.15	316.26
813.54	344.35
813.93	356.05
814.32	330.31
814.71	334.99
815.1	323.29
815.489	342.01
815.879	323.29
816.269	320.95
816.658	327.97
817.048	372.44
817.438	339.67
817.827	278.82
818.216	377.12
818.606	271.79
818.995	342.01
819.384	288.18
819.773	318.61
820.163	358.39
820.552	365.42
820.941	316.26
821.33	356.05
821.718	384.14
822.107	349.03
822.496	285.84
822.885	285.84
823.273	346.69
823.662	313.92
824.05	363.08
824.439	386.48
824.827	353.71
825.216	257.75
825.604	311.58
825.992	384.14
826.38	334.99
826.768	332.65
827.156	311.58
827.544	283.5
827.932	304.56
828.32	356.05
828.708	288.18
829.096	419.25
829.483	306.9
829.871	339.67
830.259	299.88
830.646	342.01
831.034	323.29
831.421	313.92
831.808	377.12
832.196	299.88
832.583	283.5
832.97	283.5
833.357	227.32
833.744	320.95
834.131	318.61
834.518	306.9
834.905	367.76
835.292	325.63
835.678	274.14
836.065	304.56
836.452	356.05
836.838	302.22
837.225	379.46
837.611	339.67
837.998	306.9
838.384	351.37
838.77	334.99
839.157	320.95
839.543	344.35
839.929	360.74
840.315	288.18
840.701	239.03
841.087	297.54
841.473	346.69
841.858	330.31
842.244	290.52
842.63	367.76
843.015	398.18
843.401	665
843.787	363.08
844.172	351.37
844.557	278.82
844.943	316.26
845.328	281.16
845.713	253.07
846.098	339.67
846.483	323.29
846.868	318.61
847.253	295.2
847.638	285.84
848.023	311.58
848.408	377.12
848.793	285.84
849.177	330.31
849.562	311.58
849.947	325.63
850.331	372.44
850.715	363.08
851.1	302.22
851.484	325.63
851.868	253.07
852.253	351.37
852.637	271.79
853.021	325.63
853.405	318.61
853.789	332.65
854.173	353.71
854.557	304.56
854.94	285.84
855.324	374.78
855.708	353.71
856.091	290.52
856.475	386.48
856.858	363.08
857.242	327.97
857.625	290.52
858.009	290.52
858.392	358.39
858.775	285.84
859.158	304.56
859.541	360.74
859.924	299.88
860.307	334.99
860.69	334.99
861.073	363.08
861.456	334.99
861.838	332.65
862.221	229.67
862.604	290.52
862.986	285.84
863.369	318.61
863.751	325.63
864.133	274.14
864.516	295.2
864.898	339.67
865.28	356.05
865.662	365.42
866.044	377.12
866.426	306.9
866.808	349.03
867.19	379.46
867.572	351.37
867.954	213.28
868.336	351.37
868.717	339.67
869.099	330.31
869.48	288.18
869.862	318.61
870.243	377.12
870.625	386.48
871.006	325.63
871.387	271.79
871.768	304.56
872.149	363.08
872.53	288.18
872.911	313.92
873.292	257.75
873.673	292.86
874.054	360.74
874.435	327.97
874.815	297.54
875.196	302.22
875.577	344.35
875.957	330.31
876.338	313.92
876.718	318.61
877.098	344.35
877.479	304.56
877.859	330.31
878.239	292.86
878.619	337.33
878.999	332.65
879.379	381.8
879.759	283.5
880.139	353.71
880.519	346.69
880.898	278.82
881.278	299.88
881.658	339.67
882.037	295.2
882.417	384.14
882.796	360.74
883.176	360.74
883.555	363.08
883.934	334.99
884.313	304.56
884.693	297.54
885.072	306.9
885.451	342.01
885.83	327.97
886.209	283.5
886.587	295.2
886.966	332.65
887.345	344.35
887.724	313.92
888.102	302.22
888.481	320.95
888.859	344.35
889.238	313.92
889.616	372.44
889.994	320.95
890.373	330.31
890.751	299.88
891.129	297.54
891.507	402.86
891.885	353.71
892.263	292.86
892.641	318.61
893.019	356.05
893.396	327.97
893.774	318.61
894.152	306.9
894.529	370.1
894.907	356.05
895.284	285.84
895.662	342.01
896.039	346.69
896.416	372.44
896.794	323.29
897.171	264.77
897.548	297.54
897.925	295.2
898.302	323.29
898.679	372.44
899.056	288.18
899.433	332.65
899.809	358.39
900.186	306.9
900.563	295.2
900.939	346.69
901.316	363.08
901.692	377.12
902.069	309.24
902.445	316.26
902.821	379.46
903.197	346.69
903.574	320.95
903.95	384.14
904.326	365.42
904.702	311.58
905.078	253.07
905.454	311.58
905.829	318.61
906.205	309.24
906.581	344.35
906.956	299.88
907.332	330.31
907.707	327.97
908.083	313.92
908.458	327.97
908.833	318.61
909.209	274.14
909.584	327.97
909.959	391.16
910.334	318.61
910.709	309.24
911.084	297.54
911.459	365.42
911.834	379.46
912.209	285.84
912.583	365.42
912.958	299.88
913.333	327.97
913.707	405.21
914.082	377.12
914.456	299.88
914.83	388.82
915.205	346.69
915.579	339.67
915.953	278.82
916.327	342.01
916.701	367.76
917.075	356.05
917.449	260.09
917.823	337.33
918.197	363.08
918.571	302.22
918.944	327.97
919.318	402.86
919.692	327.97
920.065	379.46
920.438	377.12
920.812	337.33
921.185	351.37
921.558	285.84
921.932	386.48
922.305	349.03
922.678	253.07
923.051	325.63
923.424	405.21
923.797	292.86
924.17	339.67
924.542	332.65
924.915	337.33
925.288	334.99
925.661	395.84
926.033	339.67
926.406	306.9
926.778	351.37
927.15	365.42
927.523	372.44
927.895	320.95
928.267	304.56
928.639	311.58
929.011	346.69
929.383	327.97
929.755	372.44
930.127	358.39
930.499	269.45
930.871	248.39
931.242	351.37
931.614	365.42
931.986	311.58
932.357	313.92
932.729	363.08
933.1	330.31
933.471	304.56
933.843	334.99
934.214	302.22
934.585	318.61
934.956	325.63
935.327	349.03
935.698	337.33
936.069	344.35
936.44	295.2
936.811	342.01
937.182	367.76
937.552	370.1
937.923	304.56
938.293	349.03
938.664	334.99
939.034	339.67
939.405	334.99
939.775	325.63
940.145	363.08
940.516	309.24
940.886	325.63
941.256	356.05
941.626	346.69
941.996	309.24
942.366	337.33
942.735	323.29
943.105	309.24
943.475	356.05
943.845	281.16
944.214	290.52
944.584	316.26
944.953	313.92
945.323	276.48
945.692	309.24
946.061	318.61
946.43	318.61
946.8	349.03
947.169	409.89
947.538	360.74
947.907	337.33
948.276	342.01
948.645	363.08
949.013	356.05
949.382	269.45
949.751	346.69
950.119	344.35
950.488	337.33
950.857	332.65
951.225	290.52
951.593	346.69
951.962	295.2
952.33	337.33
952.698	363.08
953.066	295.2
953.434	267.11
953.802	297.54
954.17	313.92
954.538	285.84
954.906	349.03
955.274	241.37
955.642	295.2
956.009	292.86
956.377	311.58
956.744	330.31
957.112	299.88
957.479	320.95
957.847	353.71
958.214	297.54
958.581	344.35
958.948	342.01
959.315	363.08
959.683	346.69
960.05	337.33
960.416	290.52
960.783	344.35
961.15	327.97
961.517	351.37
961.884	356.05
962.25	337.33
962.617	309.24
962.983	332.65
963.35	320.95
963.716	290.52
964.082	374.78
964.449	295.2
964.815	353.71
965.181	349.03
965.547	356.05
965.913	276.48
966.279	353.71
966.645	267.11
967.011	330.31
967.377	337.33
967.742	334.99
968.108	323.29
968.474	297.54
968.839	306.9
969.205	346.69
969.57	407.55
969.935	344.35
970.301	299.88
970.666	304.56
971.031	295.2
971.396	358.39
971.761	309.24
972.126	304.56
972.491	381.8
972.856	372.44
973.221	358.39
973.586	323.29
973.95	302.22
974.315	370.1
974.679	304.56
975.044	363.08
975.408	353.71
975.773	320.95
976.137	325.63
976.501	372.44
976.866	318.61
977.23	323.29
977.594	330.31
977.958	318.61
978.322	309.24
978.686	346.69
979.049	349.03
979.413	227.32
979.777	342.01
980.141	318.61
980.504	351.37
980.868	381.8
981.231	344.35
981.595	283.5
981.958	323.29
982.321	353.71
982.684	365.42
983.048	370.1
983.411	377.12
983.774	306.9
984.137	346.69
984.5	337.33
984.862	264.77
985.225	274.14
985.588	351.37
985.951	346.69
986.313	276.48
986.676	292.86
987.038	367.76
987.401	358.39
987.763	388.82
988.125	339.67
988.488	334.99
988.85	311.58
989.212	306.9
989.574	316.26
989.936	311.58
990.298	290.52
990.66	330.31
991.022	309.24
991.383	370.1
991.745	306.9
992.107	351.37
992.468	358.39
992.83	332.65
993.191	405.21
993.553	276.48
993.914	358.39
994.275	363.08
994.637	325.63
994.998	302.22
995.359	269.45
995.72	316.26
996.081	327.97
996.442	304.56
996.803	353.71
997.163	351.37
997.524	365.42
997.885	374.78
998.245	288.18
998.606	360.74
998.966	377.12
999.327	295.2
999.687	313.92
1000.047	323.29
1000.408	316.26
1000.768	292.86
1001.128	297.54
1001.488	278.82
1001.848	325.63
1002.208	313.92
1002.568	339.67
1002.927	327.97
1003.287	337.33
1003.647	356.05
1004.007	367.76
1004.366	311.58
1004.726	374.78
1005.085	332.65
1005.444	370.1
1005.804	306.9
1006.163	377.12
1006.522	323.29
1006.881	330.31
1007.24	330.31
1007.599	337.33
1007.958	353.71
1008.317	283.5
1008.676	316.26
1009.035	330.31
1009.393	318.61
1009.752	323.29
1010.111	302.22
1010.469	342.01
1010.828	316.26
1011.186	342.01
1011.544	330.31
1011.903	414.57
1012.261	283.5
1012.619	337.33
1012.977	334.99
1013.335	344.35
1013.693	400.52
1014.051	288.18
1014.409	356.05
1014.767	332.65
1015.124	327.97
1015.482	360.74
1015.84	313.92
1016.197	346.69
1016.555	381.8
1016.912	313.92
1017.269	377.12
1017.627	367.76
1017.984	290.52
1018.341	295.2
1018.698	330.31
1019.055	306.9
1019.412	306.9
1019.769	239.03
1020.126	325.63
1020.483	377.12
1020.84	370.1
1021.196	342.01
1021.553	344.35
1021.909	327.97
1022.266	260.09
1022.622	311.58
1022.979	297.54
1023.335	323.29
1023.691	374.78
1024.047	262.43
1024.404	302.22
1024.76	262.43
1025.116	320.95
1025.472	267.11
1025.827	332.65
1026.183	306.9
1026.539	290.52
1026.895	316.26
1027.25	311.58
1027.606	316.26
1027.961	299.88
1028.317	304.56
1028.672	356.05
1029.028	349.03
1029.383	351.37
1029.738	257.75
1030.093	349.03
1030.448	388.82
1030.803	325.63
1031.158	339.67
1031.513	320.95
1031.868	325.63
1032.223	334.99
1032.577	393.5
1032.932	349.03
1033.287	316.26
1033.641	388.82
1033.996	313.92
1034.35	295.2
1034.704	349.03
1035.059	342.01
1035.413	325.63
1035.767	325.63
1036.121	325.63
