Data from Al_FLMS009871__835__15-30-07-396.txt Node

Date: Fri Mar 08 15:30:07 CST 2024
User: pe5414po
Spectrometer: FLMS00987
Trigger mode: 0
Integration Time (sec): 1.000000E-1
Scans to average: 1
Electric dark correction enabled: true
Nonlinearity correction enabled: false
Boxcar width: 0
XAxis mode: Wavelengths
Number of Pixels in Spectrum: 2048
>>>>>Begin Spectral Data<<<<<
188.938	-114.54
189.409	-114.54
189.879	-114.54
190.349	-79.43
190.819	-173.05
191.29	-140.29
191.76	-149.65
192.23	-49
192.7	-84.11
193.17	-88.79
193.64	-30.28
194.109	-6.88
194.579	-13.9
195.049	7.17
195.519	-9.22
195.988	65.68
196.458	35.25
196.927	56.32
197.397	112.49
197.866	128.88
198.336	166.32
198.805	126.54
199.274	142.92
199.744	189.73
200.213	154.62
200.682	196.75
201.151	215.48
201.62	217.82
202.089	185.05
202.558	234.2
203.027	273.99
203.495	222.5
203.964	264.63
204.433	290.37
204.902	236.54
205.37	264.63
205.839	281.01
206.307	278.67
206.776	255.26
207.244	273.99
207.712	311.44
208.181	311.44
208.649	285.69
209.117	288.03
209.585	269.31
210.053	325.48
210.521	245.9
210.989	224.84
211.457	271.65
211.925	238.88
212.393	266.97
212.861	255.26
213.328	320.8
213.796	255.26
214.264	262.29
214.731	252.92
215.199	259.95
215.666	255.26
216.133	236.54
216.601	278.67
217.068	245.9
217.535	252.92
218.003	241.22
218.47	217.82
218.937	295.05
219.404	231.86
219.871	269.31
220.338	252.92
220.805	278.67
221.271	266.97
221.738	220.16
222.205	238.88
222.671	306.76
223.138	196.75
223.605	238.88
224.071	210.79
224.538	252.92
225.004	271.65
225.47	269.31
225.937	262.29
226.403	309.1
226.869	273.99
227.335	227.18
227.801	262.29
228.267	264.63
228.733	255.26
229.199	250.58
229.665	189.73
230.131	213.14
230.597	203.77
231.062	208.45
231.528	271.65
231.994	241.22
232.459	299.73
232.925	262.29
233.39	288.03
233.856	320.8
234.321	271.65
234.786	264.63
235.252	297.39
235.717	309.1
236.182	283.35
236.647	311.44
237.112	278.67
237.577	252.92
238.042	273.99
238.507	236.54
238.972	236.54
239.436	304.42
239.901	227.18
240.366	278.67
240.83	367.61
241.295	320.8
241.76	295.05
242.224	245.9
242.688	252.92
243.153	227.18
243.617	320.8
244.081	206.11
244.545	339.52
245.01	297.39
245.474	316.12
245.938	292.71
246.402	348.89
246.866	297.39
247.33	266.97
247.793	281.01
248.257	273.99
248.721	325.48
249.185	262.29
249.648	295.05
250.112	320.8
250.575	288.03
251.039	248.24
251.502	273.99
251.965	234.2
252.429	273.99
252.892	215.48
253.355	295.05
253.818	283.35
254.281	320.8
254.744	320.8
255.207	278.67
255.67	295.05
256.133	283.35
256.596	297.39
257.059	273.99
257.522	323.14
257.984	318.46
258.447	269.31
258.909	252.92
259.372	283.35
259.834	248.24
260.297	231.86
260.759	285.69
261.221	255.26
261.684	311.44
262.146	313.78
262.608	313.78
263.07	290.37
263.532	372.29
263.994	255.26
264.456	271.65
264.918	304.42
265.38	362.93
265.842	229.52
266.303	199.09
266.765	292.71
267.227	304.42
267.688	257.61
268.15	323.14
268.611	316.12
269.072	306.76
269.534	299.73
269.995	290.37
270.456	266.97
270.918	295.05
271.379	304.42
271.84	344.21
272.301	227.18
272.762	295.05
273.223	337.18
273.684	243.56
274.144	266.97
274.605	283.35
275.066	281.01
275.527	325.48
275.987	231.86
276.448	295.05
276.908	297.39
277.369	283.35
277.829	295.05
278.289	304.42
278.75	299.73
279.21	290.37
279.67	278.67
280.13	295.05
280.59	327.82
281.05	316.12
281.51	241.22
281.97	299.73
282.43	304.42
282.89	236.54
283.35	248.24
283.809	355.91
284.269	255.26
284.729	281.01
285.188	273.99
285.648	215.48
286.107	344.21
286.567	288.03
287.026	283.35
287.485	316.12
287.944	311.44
288.404	290.37
288.863	309.1
289.322	306.76
289.781	327.82
290.24	259.95
290.699	217.82
291.158	302.08
291.616	281.01
292.075	283.35
292.534	299.73
292.992	278.67
293.451	288.03
293.91	278.67
294.368	283.35
294.827	306.76
295.285	243.56
295.743	299.73
296.202	248.24
296.66	316.12
297.118	281.01
297.576	302.08
298.034	288.03
298.492	262.29
298.95	201.43
299.408	316.12
299.866	339.52
300.324	360.59
300.781	362.93
301.239	318.46
301.697	285.69
302.154	320.8
302.612	318.46
303.069	285.69
303.527	213.14
303.984	276.33
304.441	259.95
304.899	273.99
305.356	248.24
305.813	252.92
306.27	290.37
306.727	360.59
307.184	283.35
307.641	229.52
308.098	302.08
308.555	283.35
309.012	285.69
309.468	311.44
309.925	346.55
310.382	264.63
310.838	264.63
311.295	299.73
311.751	358.25
312.208	278.67
312.664	227.18
313.12	255.26
313.577	334.84
314.033	306.76
314.489	281.01
314.945	278.67
315.401	302.08
315.857	266.97
316.313	271.65
316.769	283.35
317.225	234.2
317.681	241.22
318.136	276.33
318.592	217.82
319.048	283.35
319.503	302.08
319.959	337.18
320.414	323.14
320.869	273.99
321.325	283.35
321.78	320.8
322.235	250.58
322.691	355.91
323.146	292.71
323.601	264.63
324.056	334.84
324.511	262.29
324.966	320.8
325.421	288.03
325.875	344.21
326.33	285.69
326.785	292.71
327.24	297.39
327.694	285.69
328.149	379.31
328.603	234.2
329.058	306.76
329.512	323.14
329.966	262.29
330.421	266.97
330.875	339.52
331.329	271.65
331.783	295.05
332.237	316.12
332.691	271.65
333.145	376.97
333.599	269.31
334.053	238.88
334.507	281.01
334.96	302.08
335.414	292.71
335.868	304.42
336.321	266.97
336.775	250.58
337.228	320.8
337.682	339.52
338.135	323.14
338.588	351.23
339.042	383.99
339.495	348.89
339.948	320.8
340.401	365.27
340.854	276.33
341.307	273.99
341.76	283.35
342.213	325.48
342.666	302.08
343.119	276.33
343.571	339.52
344.024	391.02
344.477	243.56
344.929	306.76
345.382	295.05
345.834	353.57
346.287	266.97
346.739	372.29
347.191	323.14
347.644	332.5
348.096	290.37
348.548	323.14
349	318.46
349.452	295.05
349.904	295.05
350.356	330.16
350.808	304.42
351.26	320.8
351.711	309.1
352.163	281.01
352.615	348.89
353.066	323.14
353.518	297.39
353.969	334.84
354.421	381.65
354.872	353.57
355.324	290.37
355.775	285.69
356.226	299.73
356.677	309.1
357.128	327.82
357.579	330.16
358.03	313.78
358.481	320.8
358.932	288.03
359.383	316.12
359.834	283.35
360.285	355.91
360.735	283.35
361.186	238.88
361.637	318.46
362.087	334.84
362.538	348.89
362.988	278.67
363.438	276.33
363.889	344.21
364.339	281.01
364.789	292.71
365.239	323.14
365.689	290.37
366.139	388.68
366.589	245.9
367.039	241.22
367.489	262.29
367.939	372.29
368.389	327.82
368.839	316.12
369.288	281.01
369.738	264.63
370.187	351.23
370.637	334.84
371.086	285.69
371.536	311.44
371.985	269.31
372.434	304.42
372.884	257.61
373.333	337.18
373.782	306.76
374.231	304.42
374.68	313.78
375.129	318.46
375.578	311.44
376.027	295.05
376.475	323.14
376.924	257.61
377.373	334.84
377.822	316.12
378.27	238.88
378.719	276.33
379.167	304.42
379.616	299.73
380.064	281.01
380.512	360.59
380.961	332.5
381.409	332.5
381.857	348.89
382.305	348.89
382.753	285.69
383.201	369.95
383.649	318.46
384.097	283.35
384.545	288.03
384.992	323.14
385.44	323.14
385.888	302.08
386.335	334.84
386.783	323.14
387.231	309.1
387.678	337.18
388.125	264.63
388.573	337.18
389.02	299.73
389.467	278.67
389.914	316.12
390.362	320.8
390.809	306.76
391.256	259.95
391.703	304.42
392.15	285.69
392.596	358.25
393.043	323.14
393.49	309.1
393.937	238.88
394.383	290.37
394.83	278.67
395.276	266.97
395.723	288.03
396.169	281.01
396.616	283.35
397.062	337.18
397.508	332.5
397.954	285.69
398.401	302.08
398.847	311.44
399.293	250.58
399.739	332.5
400.185	309.1
400.631	292.71
401.076	330.16
401.522	266.97
401.968	262.29
402.414	269.31
402.859	283.35
403.305	288.03
403.75	323.14
404.196	316.12
404.641	276.33
405.086	376.97
405.532	323.14
405.977	276.33
406.422	295.05
406.867	332.5
407.312	288.03
407.757	295.05
408.202	355.91
408.647	257.61
409.092	262.29
409.537	351.23
409.982	374.63
410.426	344.21
410.871	257.61
411.316	344.21
411.76	281.01
412.205	362.93
412.649	266.97
413.093	332.5
413.538	309.1
413.982	362.93
414.426	281.01
414.87	398.04
415.314	327.82
415.758	358.25
416.202	285.69
416.646	273.99
417.09	299.73
417.534	348.89
417.978	334.84
418.421	271.65
418.865	269.31
419.309	288.03
419.752	325.48
420.196	304.42
420.639	339.52
421.083	341.86
421.526	248.24
421.969	252.92
422.412	327.82
422.856	288.03
423.299	276.33
423.742	271.65
424.185	344.21
424.628	306.76
425.071	285.69
425.513	271.65
425.956	273.99
426.399	290.37
426.842	327.82
427.284	341.86
427.727	250.58
428.169	283.35
428.612	297.39
429.054	405.06
429.497	295.05
429.939	327.82
430.381	213.14
430.823	346.55
431.265	292.71
431.707	318.46
432.149	297.39
432.591	309.1
433.033	325.48
433.475	348.89
433.917	330.16
434.359	290.37
434.8	316.12
435.242	304.42
435.684	269.31
436.125	297.39
436.567	302.08
437.008	276.33
437.449	313.78
437.891	337.18
438.332	299.73
438.773	325.48
439.214	332.5
439.656	313.78
440.097	325.48
440.538	288.03
440.978	271.65
441.419	295.05
441.86	313.78
442.301	290.37
442.742	323.14
443.182	259.95
443.623	299.73
444.063	313.78
444.504	297.39
444.944	266.97
445.385	323.14
445.825	348.89
446.265	295.05
446.706	318.46
447.146	299.73
447.586	271.65
448.026	269.31
448.466	271.65
448.906	353.57
449.346	306.76
449.786	292.71
450.225	318.46
450.665	316.12
451.105	290.37
451.544	318.46
451.984	320.8
452.424	358.25
452.863	290.37
453.302	330.16
453.742	273.99
454.181	311.44
454.62	344.21
455.059	283.35
455.499	269.31
455.938	292.71
456.377	325.48
456.816	318.46
457.254	372.29
457.693	351.23
458.132	292.71
458.571	323.14
459.01	302.08
459.448	318.46
459.887	295.05
460.325	255.26
460.764	262.29
461.202	367.61
461.641	297.39
462.079	290.37
462.517	292.71
462.955	330.16
463.393	330.16
463.832	337.18
464.27	297.39
464.708	339.52
465.145	269.31
465.583	316.12
466.021	334.84
466.459	313.78
466.897	344.21
467.334	374.63
467.772	281.01
468.209	290.37
468.647	276.33
469.084	327.82
469.522	292.71
469.959	367.61
470.396	302.08
470.833	285.69
471.271	297.39
471.708	348.89
472.145	320.8
472.582	278.67
473.019	355.91
473.456	337.18
473.892	325.48
474.329	320.8
474.766	313.78
475.202	320.8
475.639	325.48
476.076	337.18
476.512	302.08
476.949	285.69
477.385	297.39
477.821	257.61
478.258	259.95
478.694	292.71
479.13	290.37
479.566	276.33
480.002	309.1
480.438	313.78
480.874	269.31
481.31	330.16
481.746	248.24
482.181	311.44
482.617	318.46
483.053	224.84
483.488	255.26
483.924	299.73
484.36	400.38
484.795	325.48
485.23	231.86
485.666	306.76
486.101	367.61
486.536	327.82
486.971	276.33
487.407	351.23
487.842	299.73
488.277	353.57
488.712	334.84
489.146	290.37
489.581	290.37
490.016	278.67
490.451	309.1
490.885	299.73
491.32	283.35
491.755	372.29
492.189	318.46
492.624	325.48
493.058	330.16
493.492	292.71
493.927	323.14
494.361	325.48
494.795	276.33
495.229	236.54
495.663	288.03
496.097	341.86
496.531	318.46
496.965	304.42
497.399	283.35
497.833	281.01
498.266	299.73
498.7	283.35
499.134	295.05
499.567	376.97
500.001	292.71
500.434	302.08
500.868	344.21
501.301	313.78
501.734	367.61
502.168	362.93
502.601	306.76
503.034	299.73
503.467	299.73
503.9	269.31
504.333	285.69
504.766	304.42
505.199	320.8
505.632	292.71
506.064	355.91
506.497	318.46
506.93	360.59
507.362	283.35
507.795	241.22
508.227	311.44
508.66	391.02
509.092	327.82
509.524	330.16
509.956	323.14
510.389	325.48
510.821	351.23
511.253	311.44
511.685	283.35
512.117	383.99
512.549	355.91
512.981	285.69
513.412	348.89
513.844	344.21
514.276	316.12
514.707	297.39
515.139	341.86
515.571	278.67
516.002	309.1
516.433	360.59
516.865	355.91
517.296	369.95
517.727	257.61
518.159	241.22
518.59	369.95
519.021	348.89
519.452	309.1
519.883	304.42
520.314	341.86
520.744	285.69
521.175	372.29
521.606	362.93
522.037	337.18
522.467	313.78
522.898	224.84
523.328	313.78
523.759	290.37
524.189	306.76
524.62	318.46
525.05	302.08
525.48	229.52
525.91	330.16
526.341	295.05
526.771	297.39
527.201	311.44
527.631	313.78
528.061	292.71
528.49	304.42
528.92	313.78
529.35	302.08
529.78	323.14
530.209	250.58
530.639	290.37
531.068	196.75
531.498	316.12
531.927	281.01
532.357	266.97
532.786	278.67
533.215	334.84
533.644	369.95
534.074	325.48
534.503	271.65
534.932	383.99
535.361	281.01
535.79	313.78
536.218	309.1
536.647	339.52
537.076	273.99
537.505	259.95
537.933	295.05
538.362	311.44
538.79	330.16
539.219	320.8
539.647	365.27
540.076	309.1
540.504	316.12
540.932	292.71
541.36	255.26
541.788	316.12
542.217	292.71
542.645	229.52
543.073	292.71
543.5	386.33
543.928	313.78
544.356	269.31
544.784	332.5
545.211	306.76
545.639	339.52
546.067	299.73
546.494	276.33
546.922	285.69
547.349	360.59
547.776	311.44
548.204	288.03
548.631	304.42
549.058	290.37
549.485	299.73
549.912	325.48
550.339	393.36
550.766	318.46
551.193	311.44
551.62	320.8
552.047	341.86
552.474	325.48
552.9	283.35
553.327	311.44
553.754	316.12
554.18	332.5
554.607	327.82
555.033	269.31
555.459	325.48
555.886	299.73
556.312	285.69
556.738	316.12
557.164	295.05
557.59	271.65
558.016	283.35
558.442	318.46
558.868	369.95
559.294	346.55
559.72	320.8
560.145	264.63
560.571	259.95
560.997	355.91
561.422	381.65
561.848	297.39
562.273	367.61
562.699	266.97
563.124	320.8
563.549	313.78
563.974	327.82
564.4	311.44
564.825	290.37
565.25	292.71
565.675	309.1
566.1	311.44
566.525	269.31
566.95	362.93
567.374	325.48
567.799	306.76
568.224	269.31
568.648	271.65
569.073	346.55
569.497	351.23
569.922	276.33
570.346	327.82
570.771	325.48
571.195	339.52
571.619	271.65
572.043	290.37
572.467	362.93
572.891	351.23
573.315	334.84
573.739	292.71
574.163	306.76
574.587	299.73
575.011	281.01
575.435	290.37
575.858	250.58
576.282	304.42
576.705	259.95
577.129	330.16
577.552	330.16
577.976	304.42
578.399	351.23
578.822	243.56
579.245	306.76
579.669	273.99
580.092	327.82
580.515	313.78
580.938	311.44
581.361	351.23
581.784	306.76
582.206	334.84
582.629	285.69
583.052	278.67
583.474	309.1
583.897	295.05
584.32	299.73
584.742	285.69
585.165	304.42
585.587	334.84
586.009	323.14
586.431	362.93
586.854	313.78
587.276	299.73
587.698	285.69
588.12	337.18
588.542	290.37
588.964	323.14
589.386	292.71
589.807	271.65
590.229	292.71
590.651	325.48
591.073	252.92
591.494	316.12
591.916	367.61
592.337	358.25
592.759	257.61
593.18	264.63
593.601	341.86
594.022	325.48
594.444	339.52
594.865	285.69
595.286	386.33
595.707	318.46
596.128	365.27
596.549	344.21
596.97	281.01
597.39	381.65
597.811	367.61
598.232	311.44
598.652	346.55
599.073	311.44
599.494	295.05
599.914	325.48
600.334	330.16
600.755	278.67
601.175	288.03
601.595	365.27
602.015	327.82
602.436	311.44
602.856	388.68
603.276	215.48
603.696	358.25
604.115	311.44
604.535	316.12
604.955	271.65
605.375	288.03
605.794	306.76
606.214	302.08
606.634	276.33
607.053	334.84
607.473	290.37
607.892	304.42
608.311	320.8
608.731	304.42
609.15	323.14
609.569	302.08
609.988	271.65
610.407	348.89
610.826	318.46
611.245	351.23
611.664	278.67
612.083	306.76
612.501	330.16
612.92	264.63
613.339	369.95
613.757	313.78
614.176	393.36
614.594	297.39
615.013	311.44
615.431	318.46
615.85	365.27
616.268	292.71
616.686	243.56
617.104	264.63
617.522	241.22
617.94	334.84
618.358	292.71
618.776	273.99
619.194	306.76
619.612	313.78
620.03	243.56
620.447	316.12
620.865	306.76
621.282	332.5
621.7	276.33
622.117	372.29
622.535	374.63
622.952	323.14
623.369	243.56
623.787	299.73
624.204	248.24
624.621	292.71
625.038	313.78
625.455	273.99
625.872	376.97
626.289	365.27
626.706	297.39
627.123	323.14
627.539	302.08
627.956	316.12
628.373	264.63
628.789	266.97
629.206	299.73
629.622	273.99
630.038	299.73
630.455	288.03
630.871	290.37
631.287	292.71
631.703	316.12
632.12	386.33
632.536	285.69
632.952	311.44
633.368	339.52
633.783	318.46
634.199	297.39
634.615	276.33
635.031	264.63
635.446	278.67
635.862	344.21
636.277	313.78
636.693	290.37
637.108	273.99
637.524	295.05
637.939	332.5
638.354	248.24
638.77	264.63
639.185	353.57
639.6	313.78
640.015	281.01
640.43	262.29
640.845	273.99
641.259	271.65
641.674	276.33
642.089	344.21
642.504	273.99
642.918	288.03
643.333	344.21
643.747	295.05
644.162	318.46
644.576	330.16
644.991	374.63
645.405	304.42
645.819	332.5
646.233	278.67
646.647	386.33
647.061	325.48
647.475	323.14
647.889	313.78
648.303	299.73
648.717	283.35
649.131	337.18
649.545	276.33
649.958	341.86
650.372	339.52
650.785	316.12
651.199	325.48
651.612	327.82
652.026	337.18
652.439	255.26
652.852	285.69
653.266	304.42
653.679	334.84
654.092	241.22
654.505	306.76
654.918	257.61
655.331	323.14
655.744	295.05
656.156	252.92
656.569	337.18
656.982	266.97
657.394	220.16
657.807	276.33
658.22	334.84
658.632	288.03
659.044	295.05
659.457	318.46
659.869	318.46
660.281	318.46
660.693	299.73
661.106	304.42
661.518	297.39
661.93	353.57
662.342	259.95
662.754	288.03
663.165	346.55
663.577	365.27
663.989	327.82
664.401	252.92
664.812	383.99
665.224	372.29
665.635	381.65
666.047	302.08
666.458	278.67
666.869	344.21
667.281	271.65
667.692	327.82
668.103	330.16
668.514	248.24
668.925	332.5
669.336	353.57
669.747	348.89
670.158	353.57
670.569	360.59
670.979	323.14
671.39	337.18
671.801	320.8
672.211	341.86
672.622	295.05
673.032	304.42
673.443	255.26
673.853	302.08
674.263	360.59
674.674	323.14
675.084	262.29
675.494	311.44
675.904	367.61
676.314	318.46
676.724	257.61
677.134	306.76
677.544	241.22
677.953	231.86
678.363	362.93
678.773	341.86
679.182	365.27
679.592	365.27
680.001	323.14
680.411	276.33
680.82	248.24
681.23	264.63
681.639	306.76
682.048	341.86
682.457	266.97
682.866	313.78
683.275	302.08
683.684	295.05
684.093	327.82
684.502	313.78
684.911	313.78
685.32	330.16
685.728	323.14
686.137	325.48
686.546	313.78
686.954	290.37
687.363	245.9
687.771	318.46
688.179	285.69
688.588	266.97
688.996	311.44
689.404	334.84
689.812	316.12
690.22	313.78
690.628	290.37
691.036	264.63
691.444	285.69
691.852	252.92
692.26	379.31
692.667	320.8
693.075	344.21
693.483	304.42
693.89	302.08
694.298	346.55
694.705	245.9
695.112	281.01
695.52	332.5
695.927	306.76
696.334	372.29
696.741	325.48
697.148	306.76
697.555	332.5
697.962	299.73
698.369	365.27
698.776	224.84
699.183	323.14
699.59	295.05
699.996	334.84
700.403	302.08
700.81	283.35
701.216	341.86
701.623	379.31
702.029	276.33
702.435	283.35
702.842	302.08
703.248	313.78
703.654	285.69
704.06	346.55
704.466	316.12
704.872	297.39
705.278	248.24
705.684	309.1
706.09	330.16
706.496	318.46
706.901	332.5
707.307	295.05
707.712	316.12
708.118	297.39
708.523	269.31
708.929	276.33
709.334	266.97
709.74	201.43
710.145	318.46
710.55	323.14
710.955	285.69
711.36	220.16
711.765	285.69
712.17	273.99
712.575	285.69
712.98	824.01
713.385	346.55
713.789	234.2
714.194	259.95
714.599	313.78
715.003	344.21
715.408	306.76
715.812	297.39
716.217	257.61
716.621	276.33
717.025	337.18
717.429	281.01
717.833	309.1
718.238	262.29
718.642	327.82
719.046	316.12
719.449	283.35
719.853	311.44
720.257	353.57
720.661	283.35
721.065	276.33
721.468	264.63
721.872	278.67
722.275	309.1
722.679	306.76
723.082	304.42
723.485	250.58
723.889	285.69
724.292	311.44
724.695	309.1
725.098	337.18
725.501	262.29
725.904	295.05
726.307	353.57
726.71	334.84
727.113	302.08
727.516	339.52
727.918	266.97
728.321	309.1
728.724	290.37
729.126	348.89
729.529	330.16
729.931	323.14
730.333	278.67
730.736	288.03
731.138	288.03
731.54	344.21
731.942	337.18
732.344	295.05
732.746	309.1
733.148	313.78
733.55	295.05
733.952	269.31
734.354	309.1
734.756	278.67
735.157	229.52
735.559	323.14
735.96	266.97
736.362	297.39
736.763	252.92
737.165	318.46
737.566	243.56
737.967	304.42
738.368	318.46
738.77	344.21
739.171	316.12
739.572	297.39
739.973	346.55
740.374	292.71
740.774	285.69
741.175	281.01
741.576	323.14
741.977	278.67
742.377	376.97
742.778	285.69
743.178	306.76
743.579	299.73
743.979	337.18
744.379	297.39
744.78	290.37
745.18	309.1
745.58	372.29
745.98	288.03
746.38	332.5
746.78	278.67
747.18	311.44
747.58	323.14
747.98	318.46
748.38	332.5
748.779	341.86
749.179	297.39
749.578	252.92
749.978	283.35
750.377	304.42
750.777	346.55
751.176	281.01
751.575	255.26
751.975	302.08
752.374	374.63
752.773	344.21
753.172	339.52
753.571	339.52
753.97	292.71
754.369	320.8
754.768	304.42
755.166	259.95
755.565	283.35
755.964	325.48
756.362	255.26
756.761	304.42
757.159	285.69
757.558	311.44
757.956	332.5
758.354	325.48
758.753	295.05
759.151	318.46
759.549	302.08
759.947	309.1
760.345	332.5
760.743	318.46
761.141	339.52
761.539	381.65
761.936	311.44
762.334	262.29
762.732	269.31
763.129	283.35
763.527	304.42
763.924	316.12
764.322	376.97
764.719	309.1
765.117	316.12
765.514	341.86
765.911	262.29
766.308	330.16
766.705	273.99
767.102	281.01
767.499	276.33
767.896	344.21
768.293	325.48
768.69	288.03
769.086	288.03
769.483	281.01
769.88	346.55
770.276	290.37
770.673	337.18
771.069	327.82
771.466	330.16
771.862	292.71
772.258	372.29
772.654	273.99
773.05	292.71
773.447	325.48
773.843	311.44
774.239	369.95
774.634	283.35
775.03	316.12
775.426	332.5
775.822	339.52
776.218	304.42
776.613	344.21
777.009	295.05
777.404	252.92
777.8	273.99
778.195	276.33
778.59	276.33
778.986	285.69
779.381	245.9
779.776	292.71
780.171	299.73
780.566	309.1
780.961	304.42
781.356	339.52
781.751	245.9
782.146	264.63
782.54	330.16
782.935	210.79
783.33	259.95
783.724	297.39
784.119	302.08
784.513	311.44
784.908	290.37
785.302	290.37
785.696	323.14
786.09	316.12
786.485	316.12
786.879	302.08
787.273	278.67
787.667	304.42
788.061	323.14
788.454	285.69
788.848	316.12
789.242	327.82
789.636	323.14
790.029	281.01
790.423	318.46
790.816	323.14
791.21	311.44
791.603	379.31
791.997	316.12
792.39	325.48
792.783	323.14
793.176	334.84
793.569	295.05
793.962	327.82
794.355	313.78
794.748	295.05
795.141	323.14
795.534	229.52
795.927	264.63
796.319	355.91
796.712	332.5
797.105	271.65
797.497	299.73
797.89	278.67
798.282	264.63
798.674	266.97
799.067	302.08
799.459	433.15
799.851	299.73
800.243	297.39
800.635	281.01
801.027	297.39
801.419	302.08
801.811	292.71
802.203	309.1
802.594	278.67
802.986	309.1
803.378	339.52
803.769	288.03
804.161	302.08
804.552	341.86
804.944	353.57
805.335	320.8
805.726	346.55
806.118	330.16
806.509	318.46
806.9	224.84
807.291	297.39
807.682	288.03
808.073	320.8
808.464	325.48
808.855	278.67
809.245	327.82
809.636	332.5
810.027	269.31
810.417	374.63
810.808	323.14
811.198	325.48
811.589	318.46
811.979	355.91
812.369	283.35
812.759	299.73
813.15	304.42
813.54	320.8
813.93	264.63
814.32	278.67
814.71	250.58
815.1	309.1
815.489	302.08
815.879	391.02
816.269	257.61
816.658	309.1
817.048	273.99
817.438	376.97
817.827	309.1
818.216	374.63
818.606	264.63
818.995	358.25
819.384	358.25
819.773	302.08
820.163	302.08
820.552	334.84
820.941	316.12
821.33	292.71
821.718	306.76
822.107	273.99
822.496	271.65
822.885	327.82
823.273	325.48
823.662	281.01
824.05	259.95
824.439	311.44
824.827	344.21
825.216	346.55
825.604	325.48
825.992	332.5
826.38	348.89
826.768	281.01
827.156	245.9
827.544	318.46
827.932	299.73
828.32	367.61
828.708	320.8
829.096	325.48
829.483	306.76
829.871	302.08
830.259	320.8
830.646	288.03
831.034	262.29
831.421	276.33
831.808	306.76
832.196	292.71
832.583	332.5
832.97	306.76
833.357	257.61
833.744	295.05
834.131	288.03
834.518	327.82
834.905	262.29
835.292	295.05
835.678	388.68
836.065	355.91
836.452	302.08
836.838	320.8
837.225	309.1
837.611	276.33
837.998	306.76
838.384	330.16
838.77	288.03
839.157	348.89
839.543	383.99
839.929	248.24
840.315	311.44
840.701	327.82
841.087	320.8
841.473	245.9
841.858	248.24
842.244	339.52
842.63	302.08
843.015	288.03
843.401	540.81
843.787	337.18
844.172	344.21
844.557	264.63
844.943	313.78
845.328	323.14
845.713	245.9
846.098	285.69
846.483	306.76
846.868	299.73
847.253	271.65
847.638	325.48
848.023	271.65
848.408	327.82
848.793	339.52
849.177	302.08
849.562	360.59
849.947	292.71
850.331	334.84
850.715	320.8
851.1	283.35
851.484	309.1
851.868	334.84
852.253	318.46
852.637	283.35
853.021	325.48
853.405	278.67
853.789	346.55
854.173	273.99
854.557	245.9
854.94	281.01
855.324	290.37
855.708	288.03
856.091	283.35
856.475	273.99
856.858	292.71
857.242	325.48
857.625	271.65
858.009	316.12
858.392	292.71
858.775	269.31
859.158	341.86
859.541	367.61
859.924	313.78
860.307	259.95
860.69	318.46
861.073	355.91
861.456	339.52
861.838	313.78
862.221	337.18
862.604	353.57
862.986	316.12
863.369	311.44
863.751	271.65
864.133	334.84
864.516	318.46
864.898	281.01
865.28	288.03
865.662	353.57
866.044	327.82
866.426	306.76
866.808	325.48
867.19	285.69
867.572	281.01
867.954	264.63
868.336	299.73
868.717	309.1
869.099	318.46
869.48	353.57
869.862	288.03
870.243	259.95
870.625	320.8
871.006	353.57
871.387	355.91
871.768	281.01
872.149	266.97
872.53	302.08
872.911	309.1
873.292	311.44
873.673	283.35
874.054	304.42
874.435	339.52
874.815	320.8
875.196	255.26
875.577	316.12
875.957	229.52
876.338	250.58
876.718	288.03
877.098	273.99
877.479	318.46
877.859	238.88
878.239	276.33
878.619	266.97
878.999	344.21
879.379	358.25
879.759	266.97
880.139	281.01
880.519	299.73
880.898	309.1
881.278	339.52
881.658	285.69
882.037	255.26
882.417	344.21
882.796	358.25
883.176	330.16
883.555	341.86
883.934	278.67
884.313	332.5
884.693	334.84
885.072	227.18
885.451	332.5
885.83	332.5
886.209	262.29
886.587	360.59
886.966	362.93
887.345	309.1
887.724	276.33
888.102	292.71
888.481	304.42
888.859	309.1
889.238	316.12
889.616	281.01
889.994	278.67
890.373	299.73
890.751	288.03
891.129	295.05
891.507	339.52
891.885	318.46
892.263	278.67
892.641	266.97
893.019	252.92
893.396	316.12
893.774	311.44
894.152	290.37
894.529	355.91
894.907	292.71
895.284	290.37
895.662	320.8
896.039	292.71
896.416	362.93
896.794	334.84
897.171	316.12
897.548	278.67
897.925	269.31
898.302	266.97
898.679	323.14
899.056	295.05
899.433	327.82
899.809	318.46
900.186	295.05
900.563	281.01
900.939	257.61
901.316	292.71
901.692	348.89
902.069	332.5
902.445	292.71
902.821	323.14
903.197	255.26
903.574	273.99
903.95	327.82
904.326	339.52
904.702	304.42
905.078	288.03
905.454	325.48
905.829	320.8
906.205	283.35
906.581	234.2
906.956	327.82
907.332	290.37
907.707	334.84
908.083	250.58
908.458	320.8
908.833	358.25
909.209	400.38
909.584	304.42
909.959	243.56
910.334	302.08
910.709	311.44
911.084	313.78
911.459	332.5
911.834	339.52
912.209	362.93
912.583	264.63
912.958	341.86
913.333	295.05
913.707	297.39
914.082	276.33
914.456	306.76
914.83	323.14
915.205	299.73
915.579	281.01
915.953	313.78
916.327	257.61
916.701	262.29
917.075	278.67
917.449	245.9
917.823	248.24
918.197	374.63
918.571	362.93
918.944	304.42
919.318	259.95
919.692	285.69
920.065	292.71
920.438	299.73
920.812	332.5
921.185	192.07
921.558	281.01
921.932	231.86
922.305	245.9
922.678	271.65
923.051	327.82
923.424	250.58
923.797	341.86
924.17	302.08
924.542	288.03
924.915	330.16
925.288	318.46
925.661	276.33
926.033	269.31
926.406	248.24
926.778	372.29
927.15	283.35
927.523	351.23
927.895	299.73
928.267	276.33
928.639	304.42
929.011	264.63
929.383	304.42
929.755	273.99
930.127	309.1
930.499	313.78
930.871	283.35
931.242	238.88
931.614	278.67
931.986	306.76
932.357	327.82
932.729	330.16
933.1	332.5
933.471	299.73
933.843	281.01
934.214	306.76
934.585	391.02
934.956	243.56
935.327	306.76
935.698	255.26
936.069	276.33
936.44	238.88
936.811	358.25
937.182	309.1
937.552	367.61
937.923	266.97
938.293	290.37
938.664	339.52
939.034	320.8
939.405	325.48
939.775	262.29
940.145	213.14
940.516	250.58
940.886	269.31
941.256	224.84
941.626	330.16
941.996	299.73
942.366	290.37
942.735	369.95
943.105	358.25
943.475	320.8
943.845	297.39
944.214	316.12
944.584	290.37
944.953	302.08
945.323	288.03
945.692	323.14
946.061	295.05
946.43	302.08
946.8	264.63
947.169	360.59
947.538	285.69
947.907	281.01
948.276	316.12
948.645	273.99
949.013	313.78
949.382	295.05
949.751	297.39
950.119	323.14
950.488	311.44
950.857	313.78
951.225	299.73
951.593	234.2
951.962	234.2
952.33	269.31
952.698	346.55
953.066	344.21
953.434	320.8
953.802	325.48
954.17	332.5
954.538	288.03
954.906	332.5
955.274	255.26
955.642	266.97
956.009	252.92
956.377	299.73
956.744	285.69
957.112	325.48
957.479	252.92
957.847	278.67
958.214	320.8
958.581	332.5
958.948	252.92
959.315	241.22
959.683	318.46
960.05	344.21
960.416	248.24
960.783	302.08
961.15	295.05
961.517	306.76
961.884	248.24
962.25	318.46
962.617	334.84
962.983	290.37
963.35	276.33
963.716	355.91
964.082	250.58
964.449	365.27
964.815	264.63
965.181	276.33
965.547	320.8
965.913	327.82
966.279	269.31
966.645	278.67
967.011	332.5
967.377	344.21
967.742	288.03
968.108	266.97
968.474	327.82
968.839	271.65
969.205	309.1
969.57	346.55
969.935	323.14
970.301	316.12
970.666	320.8
971.031	316.12
971.396	325.48
971.761	341.86
972.126	295.05
972.491	278.67
972.856	327.82
973.221	224.84
973.586	281.01
973.95	252.92
974.315	299.73
974.679	288.03
975.044	269.31
975.408	292.71
975.773	273.99
976.137	311.44
976.501	323.14
976.866	285.69
977.23	241.22
977.594	311.44
977.958	316.12
978.322	313.78
978.686	281.01
979.049	327.82
979.413	292.71
979.777	304.42
980.141	299.73
980.504	348.89
980.868	250.58
981.231	344.21
981.595	313.78
981.958	283.35
982.321	292.71
982.684	304.42
983.048	229.52
983.411	281.01
983.774	288.03
984.137	325.48
984.5	276.33
984.862	323.14
985.225	325.48
985.588	276.33
985.951	318.46
986.313	327.82
986.676	309.1
987.038	295.05
987.401	276.33
987.763	381.65
988.125	311.44
988.488	283.35
988.85	318.46
989.212	313.78
989.574	285.69
989.936	269.31
990.298	250.58
990.66	273.99
991.022	313.78
991.383	299.73
991.745	299.73
992.107	309.1
992.468	269.31
992.83	281.01
993.191	339.52
993.553	330.16
993.914	297.39
994.275	323.14
994.637	344.21
994.998	297.39
995.359	306.76
995.72	285.69
996.081	257.61
996.442	266.97
996.803	276.33
997.163	323.14
997.524	313.78
997.885	295.05
998.245	290.37
998.606	220.16
998.966	290.37
999.327	304.42
999.687	299.73
1000.047	325.48
1000.408	332.5
1000.768	273.99
1001.128	383.99
1001.488	362.93
1001.848	323.14
1002.208	257.61
1002.568	306.76
1002.927	311.44
1003.287	346.55
1003.647	290.37
1004.007	309.1
1004.366	337.18
1004.726	339.52
1005.085	358.25
1005.444	302.08
1005.804	273.99
1006.163	250.58
1006.522	302.08
1006.881	297.39
1007.24	288.03
1007.599	297.39
1007.958	210.79
1008.317	348.89
1008.676	309.1
1009.035	341.86
1009.393	346.55
1009.752	266.97
1010.111	334.84
1010.469	302.08
1010.828	257.61
1011.186	269.31
1011.544	323.14
1011.903	281.01
1012.261	358.25
1012.619	243.56
1012.977	346.55
1013.335	337.18
1013.693	302.08
1014.051	306.76
1014.409	320.8
1014.767	325.48
1015.124	358.25
1015.482	250.58
1015.84	290.37
1016.197	259.95
1016.555	285.69
1016.912	255.26
1017.269	243.56
1017.627	325.48
1017.984	318.46
1018.341	224.84
1018.698	283.35
1019.055	339.52
1019.412	257.61
1019.769	250.58
1020.126	297.39
1020.483	269.31
1020.84	376.97
1021.196	327.82
1021.553	318.46
1021.909	304.42
1022.266	262.29
1022.622	288.03
1022.979	391.02
1023.335	372.29
1023.691	332.5
1024.047	288.03
1024.404	234.2
1024.76	309.1
1025.116	285.69
1025.472	309.1
1025.827	309.1
1026.183	311.44
1026.539	288.03
1026.895	309.1
1027.25	325.48
1027.606	306.76
1027.961	269.31
1028.317	327.82
1028.672	306.76
1029.028	295.05
1029.383	304.42
1029.738	323.14
1030.093	283.35
1030.448	285.69
1030.803	290.37
1031.158	295.05
1031.513	271.65
1031.868	273.99
1032.223	332.5
1032.577	297.39
1032.932	318.46
1033.287	292.71
1033.641	283.35
1033.996	238.88
1034.35	304.42
1034.704	273.99
1035.059	269.31
1035.413	292.71
1035.767	292.71
1036.121	292.71
