Data from Al_FLMS009871__837__15-30-07-596.txt Node

Date: Fri Mar 08 15:30:07 CST 2024
User: pe5414po
Spectrometer: FLMS00987
Trigger mode: 0
Integration Time (sec): 1.000000E-1
Scans to average: 1
Electric dark correction enabled: true
Nonlinearity correction enabled: false
Boxcar width: 0
XAxis mode: Wavelengths
Number of Pixels in Spectrum: 2048
>>>>>Begin Spectral Data<<<<<
188.938	-75.48
189.409	-75.48
189.879	-75.48
190.349	-141.02
190.819	-115.27
191.29	-138.68
191.76	-117.61
192.23	-31.01
192.7	-101.23
193.17	-47.4
193.64	-35.69
194.109	-38.03
194.579	-47.4
195.049	39.2
195.519	71.97
195.988	43.89
196.458	11.12
196.927	20.48
197.397	48.57
197.866	181.98
198.336	139.85
198.805	151.55
199.274	156.23
199.744	170.27
200.213	167.93
200.682	198.36
201.151	235.81
201.62	242.83
202.089	174.96
202.558	263.9
203.027	291.98
203.495	324.75
203.964	296.66
204.433	299
204.902	282.62
205.37	273.26
205.839	275.6
206.307	275.6
206.776	366.88
207.244	259.21
207.712	259.21
208.181	341.13
208.649	280.28
209.117	273.26
209.585	270.92
210.053	308.37
210.521	327.09
210.989	324.75
211.457	357.52
211.925	273.26
212.393	268.58
212.861	310.71
213.328	280.28
213.796	320.07
214.264	352.84
214.731	252.19
215.199	268.58
215.666	249.85
216.133	240.49
216.601	284.96
217.068	282.62
217.535	355.18
218.003	233.47
218.47	284.96
218.937	275.6
219.404	240.49
219.871	259.21
220.338	245.17
220.805	233.47
221.271	228.79
221.738	270.92
222.205	205.38
222.671	291.98
223.138	320.07
223.605	308.37
224.071	324.75
224.538	334.11
225.004	282.62
225.47	324.75
225.937	310.71
226.403	331.77
226.869	280.28
227.335	259.21
227.801	247.51
228.267	277.94
228.733	313.05
229.199	231.13
229.665	247.51
230.131	270.92
230.597	275.6
231.062	247.51
231.528	261.55
231.994	270.92
232.459	226.45
232.925	228.79
233.39	261.55
233.856	263.9
234.321	240.49
234.786	324.75
235.252	261.55
235.717	282.62
236.182	268.58
236.647	256.87
237.112	238.15
237.577	231.13
238.042	348.15
238.507	228.79
238.972	317.73
239.436	317.73
239.901	383.26
240.366	268.58
240.83	355.18
241.295	245.17
241.76	235.81
242.224	287.3
242.688	322.41
243.153	268.58
243.617	282.62
244.081	245.17
244.545	317.73
245.01	275.6
245.474	270.92
245.938	277.94
246.402	235.81
246.866	277.94
247.33	228.79
247.793	217.08
248.257	284.96
248.721	273.26
249.185	303.68
249.648	317.73
250.112	268.58
250.575	247.51
251.039	394.97
251.502	289.64
251.965	268.58
252.429	341.13
252.892	313.05
253.355	306.03
253.818	268.58
254.281	303.68
254.744	275.6
255.207	313.05
255.67	289.64
256.133	294.32
256.596	331.77
257.059	256.87
257.522	345.81
257.984	263.9
258.447	336.45
258.909	247.51
259.372	294.32
259.834	371.56
260.297	343.47
260.759	273.26
261.221	308.37
261.684	275.6
262.146	214.74
262.608	266.24
263.07	371.56
263.532	301.34
263.994	252.19
264.456	338.79
264.918	252.19
265.38	289.64
265.842	306.03
266.303	301.34
266.765	310.71
267.227	306.03
267.688	259.21
268.15	303.68
268.611	287.3
269.072	315.39
269.534	303.68
269.995	350.5
270.456	289.64
270.918	284.96
271.379	275.6
271.84	308.37
272.301	345.81
272.762	306.03
273.223	289.64
273.684	345.81
274.144	287.3
274.605	259.21
275.066	280.28
275.527	291.98
275.987	324.75
276.448	345.81
276.908	224.11
277.369	291.98
277.829	296.66
278.289	256.87
278.75	263.9
279.21	329.43
279.67	348.15
280.13	270.92
280.59	322.41
281.05	263.9
281.51	320.07
281.97	320.07
282.43	231.13
282.89	317.73
283.35	310.71
283.809	310.71
284.269	226.45
284.729	266.24
285.188	310.71
285.648	306.03
286.107	282.62
286.567	301.34
287.026	289.64
287.485	306.03
287.944	247.51
288.404	287.3
288.863	301.34
289.322	249.85
289.781	219.43
290.24	289.64
290.699	303.68
291.158	320.07
291.616	299
292.075	266.24
292.534	343.47
292.992	270.92
293.451	320.07
293.91	306.03
294.368	317.73
294.827	284.96
295.285	254.53
295.743	315.39
296.202	284.96
296.66	338.79
297.118	266.24
297.576	296.66
298.034	284.96
298.492	369.22
298.95	268.58
299.408	308.37
299.866	280.28
300.324	308.37
300.781	355.18
301.239	331.77
301.697	301.34
302.154	338.79
302.612	315.39
303.069	338.79
303.527	406.67
303.984	338.79
304.441	282.62
304.899	303.68
305.356	362.2
305.813	294.32
306.27	329.43
306.727	329.43
307.184	299
307.641	233.47
308.098	303.68
308.555	235.81
309.012	310.71
309.468	315.39
309.925	287.3
310.382	331.77
310.838	348.15
311.295	287.3
311.751	233.47
312.208	289.64
312.664	327.09
313.12	254.53
313.577	303.68
314.033	287.3
314.489	366.88
314.945	291.98
315.401	334.11
315.857	284.96
316.313	200.7
316.769	268.58
317.225	287.3
317.681	308.37
318.136	294.32
318.592	327.09
319.048	308.37
319.503	289.64
319.959	334.11
320.414	294.32
320.869	362.2
321.325	282.62
321.78	315.39
322.235	299
322.691	313.05
323.146	270.92
323.601	259.21
324.056	331.77
324.511	291.98
324.966	331.77
325.421	291.98
325.875	303.68
326.33	294.32
326.785	338.79
327.24	317.73
327.694	296.66
328.149	327.09
328.603	341.13
329.058	291.98
329.512	334.11
329.966	359.86
330.421	362.2
330.875	266.24
331.329	287.3
331.783	299
332.237	387.94
332.691	341.13
333.145	266.24
333.599	247.51
334.053	348.15
334.507	308.37
334.96	317.73
335.414	303.68
335.868	322.41
336.321	320.07
336.775	291.98
337.228	352.84
337.682	336.45
338.135	233.47
338.588	296.66
339.042	324.75
339.495	294.32
339.948	291.98
340.401	296.66
340.854	364.54
341.307	308.37
341.76	266.24
342.213	329.43
342.666	289.64
343.119	324.75
343.571	301.34
344.024	294.32
344.477	306.03
344.929	287.3
345.382	256.87
345.834	352.84
346.287	299
346.739	303.68
347.191	242.83
347.644	336.45
348.096	345.81
348.548	348.15
349	303.68
349.452	343.47
349.904	324.75
350.356	348.15
350.808	352.84
351.26	317.73
351.711	317.73
352.163	261.55
352.615	338.79
353.066	280.28
353.518	348.15
353.969	324.75
354.421	310.71
354.872	259.21
355.324	320.07
355.775	235.81
356.226	284.96
356.677	348.15
357.128	294.32
357.579	329.43
358.03	362.2
358.481	336.45
358.932	324.75
359.383	313.05
359.834	306.03
360.285	350.5
360.735	320.07
361.186	331.77
361.637	327.09
362.087	322.41
362.538	280.28
362.988	348.15
363.438	270.92
363.889	343.47
364.339	364.54
364.789	371.56
365.239	315.39
365.689	301.34
366.139	280.28
366.589	320.07
367.039	275.6
367.489	294.32
367.939	352.84
368.389	277.94
368.839	306.03
369.288	299
369.738	219.43
370.187	270.92
370.637	331.77
371.086	336.45
371.536	306.03
371.985	322.41
372.434	324.75
372.884	345.81
373.333	324.75
373.782	275.6
374.231	299
374.68	331.77
375.129	245.17
375.578	308.37
376.027	331.77
376.475	352.84
376.924	350.5
377.373	334.11
377.822	343.47
378.27	261.55
378.719	289.64
379.167	331.77
379.616	317.73
380.064	359.86
380.512	315.39
380.961	399.65
381.409	322.41
381.857	338.79
382.305	266.24
382.753	313.05
383.201	327.09
383.649	299
384.097	385.6
384.545	364.54
384.992	313.05
385.44	376.24
385.888	329.43
386.335	306.03
386.783	352.84
387.231	317.73
387.678	366.88
388.125	306.03
388.573	294.32
389.02	299
389.467	301.34
389.914	287.3
390.362	317.73
390.809	322.41
391.256	320.07
391.703	334.11
392.15	327.09
392.596	366.88
393.043	280.28
393.49	334.11
393.937	275.6
394.383	320.07
394.83	343.47
395.276	348.15
395.723	280.28
396.169	355.18
396.616	306.03
397.062	299
397.508	334.11
397.954	273.26
398.401	306.03
398.847	270.92
399.293	343.47
399.739	299
400.185	338.79
400.631	284.96
401.076	287.3
401.522	303.68
401.968	249.85
402.414	320.07
402.859	284.96
403.305	341.13
403.75	275.6
404.196	336.45
404.641	338.79
405.086	322.41
405.532	261.55
405.977	294.32
406.422	306.03
406.867	310.71
407.312	294.32
407.757	343.47
408.202	266.24
408.647	303.68
409.092	352.84
409.537	331.77
409.982	270.92
410.426	261.55
410.871	322.41
411.316	397.31
411.76	345.81
412.205	352.84
412.649	310.71
413.093	299
413.538	256.87
413.982	306.03
414.426	378.58
414.87	320.07
415.314	338.79
415.758	266.24
416.202	308.37
416.646	345.81
417.09	338.79
417.534	320.07
417.978	313.05
418.421	310.71
418.865	348.15
419.309	254.53
419.752	296.66
420.196	350.5
420.639	338.79
421.083	352.84
421.526	301.34
421.969	289.64
422.412	313.05
422.856	329.43
423.299	355.18
423.742	362.2
424.185	287.3
424.628	331.77
425.071	306.03
425.513	291.98
425.956	317.73
426.399	401.99
426.842	341.13
427.284	336.45
427.727	306.03
428.169	310.71
428.612	366.88
429.054	359.86
429.497	287.3
429.939	331.77
430.381	366.88
430.823	301.34
431.265	266.24
431.707	327.09
432.149	336.45
432.591	366.88
433.033	320.07
433.475	252.19
433.917	296.66
434.359	315.39
434.8	310.71
435.242	334.11
435.684	306.03
436.125	341.13
436.567	331.77
437.008	254.53
437.449	331.77
437.891	238.15
438.332	345.81
438.773	280.28
439.214	306.03
439.656	284.96
440.097	294.32
440.538	306.03
440.978	348.15
441.419	224.11
441.86	317.73
442.301	359.86
442.742	289.64
443.182	338.79
443.623	306.03
444.063	315.39
444.504	336.45
444.944	301.34
445.385	282.62
445.825	322.41
446.265	327.09
446.706	277.94
447.146	235.81
447.586	329.43
448.026	270.92
448.466	362.2
448.906	364.54
449.346	343.47
449.786	362.2
450.225	329.43
450.665	350.5
451.105	315.39
451.544	322.41
451.984	303.68
452.424	338.79
452.863	355.18
453.302	299
453.742	350.5
454.181	261.55
454.62	315.39
455.059	287.3
455.499	343.47
455.938	280.28
456.377	287.3
456.816	322.41
457.254	317.73
457.693	294.32
458.132	362.2
458.571	327.09
459.01	331.77
459.448	273.26
459.887	355.18
460.325	308.37
460.764	263.9
461.202	313.05
461.641	338.79
462.079	296.66
462.517	287.3
462.955	306.03
463.393	341.13
463.832	348.15
464.27	331.77
464.708	336.45
465.145	284.96
465.583	331.77
466.021	329.43
466.459	289.64
466.897	329.43
467.334	411.35
467.772	355.18
468.209	366.88
468.647	348.15
469.084	306.03
469.522	245.17
469.959	362.2
470.396	310.71
470.833	287.3
471.271	336.45
471.708	343.47
472.145	317.73
472.582	334.11
473.019	327.09
473.456	352.84
473.892	327.09
474.329	390.28
474.766	331.77
475.202	338.79
475.639	308.37
476.076	296.66
476.512	313.05
476.949	308.37
477.385	282.62
477.821	320.07
478.258	261.55
478.694	331.77
479.13	310.71
479.566	362.2
480.002	343.47
480.438	352.84
480.874	256.87
481.31	315.39
481.746	350.5
482.181	331.77
482.617	341.13
483.053	313.05
483.488	331.77
483.924	284.96
484.36	317.73
484.795	308.37
485.23	341.13
485.666	280.28
486.101	331.77
486.536	357.52
486.971	268.58
487.407	331.77
487.842	291.98
488.277	303.68
488.712	291.98
489.146	331.77
489.581	299
490.016	343.47
490.451	345.81
490.885	320.07
491.32	299
491.755	320.07
492.189	355.18
492.624	273.26
493.058	329.43
493.492	282.62
493.927	268.58
494.361	334.11
494.795	282.62
495.229	207.72
495.663	268.58
496.097	313.05
496.531	303.68
496.965	329.43
497.399	310.71
497.833	308.37
498.266	294.32
498.7	294.32
499.134	259.21
499.567	343.47
500.001	296.66
500.434	364.54
500.868	369.22
501.301	345.81
501.734	317.73
502.168	336.45
502.601	329.43
503.034	327.09
503.467	362.2
503.9	287.3
504.333	357.52
504.766	296.66
505.199	263.9
505.632	294.32
506.064	294.32
506.497	343.47
506.93	313.05
507.362	287.3
507.795	275.6
508.227	331.77
508.66	294.32
509.092	317.73
509.524	289.64
509.956	341.13
510.389	299
510.821	322.41
511.253	301.34
511.685	306.03
512.117	289.64
512.549	282.62
512.981	322.41
513.412	334.11
513.844	345.81
514.276	366.88
514.707	352.84
515.139	303.68
515.571	383.26
516.002	306.03
516.433	254.53
516.865	364.54
517.296	280.28
517.727	301.34
518.159	317.73
518.59	409.01
519.021	380.92
519.452	301.34
519.883	357.52
520.314	306.03
520.744	378.58
521.175	256.87
521.606	371.56
522.037	320.07
522.467	336.45
522.898	266.24
523.328	299
523.759	322.41
524.189	282.62
524.62	334.11
525.05	299
525.48	357.52
525.91	359.86
526.341	282.62
526.771	294.32
527.201	291.98
527.631	348.15
528.061	322.41
528.49	343.47
528.92	327.09
529.35	296.66
529.78	282.62
530.209	341.13
530.639	350.5
531.068	348.15
531.498	313.05
531.927	352.84
532.357	327.09
532.786	270.92
533.215	296.66
533.644	341.13
534.074	341.13
534.503	352.84
534.932	320.07
535.361	299
535.79	299
536.218	275.6
536.647	303.68
537.076	310.71
537.505	301.34
537.933	315.39
538.362	345.81
538.79	355.18
539.219	334.11
539.647	315.39
540.076	327.09
540.504	301.34
540.932	245.17
541.36	270.92
541.788	383.26
542.217	231.13
542.645	301.34
543.073	287.3
543.5	324.75
543.928	291.98
544.356	303.68
544.784	362.2
545.211	313.05
545.639	369.22
546.067	352.84
546.494	308.37
546.922	275.6
547.349	289.64
547.776	345.81
548.204	270.92
548.631	338.79
549.058	369.22
549.485	263.9
549.912	324.75
550.339	362.2
550.766	357.52
551.193	289.64
551.62	315.39
552.047	299
552.474	284.96
552.9	263.9
553.327	338.79
553.754	327.09
554.18	301.34
554.607	378.58
555.033	301.34
555.459	291.98
555.886	315.39
556.312	263.9
556.738	378.58
557.164	320.07
557.59	334.11
558.016	327.09
558.442	287.3
558.868	270.92
559.294	362.2
559.72	355.18
560.145	329.43
560.571	350.5
560.997	301.34
561.422	270.92
561.848	343.47
562.273	296.66
562.699	327.09
563.124	334.11
563.549	366.88
563.974	350.5
564.4	345.81
564.825	338.79
565.25	299
565.675	310.71
566.1	341.13
566.525	362.2
566.95	343.47
567.374	259.21
567.799	259.21
568.224	313.05
568.648	331.77
569.073	284.96
569.497	317.73
569.922	345.81
570.346	327.09
570.771	299
571.195	364.54
571.619	334.11
572.043	329.43
572.467	338.79
572.891	334.11
573.315	334.11
573.739	341.13
574.163	291.98
574.587	352.84
575.011	308.37
575.435	313.05
575.858	294.32
576.282	324.75
576.705	327.09
577.129	348.15
577.552	280.28
577.976	308.37
578.399	345.81
578.822	343.47
579.245	334.11
579.669	306.03
580.092	291.98
580.515	320.07
580.938	331.77
581.361	317.73
581.784	317.73
582.206	235.81
582.629	296.66
583.052	341.13
583.474	287.3
583.897	385.6
584.32	334.11
584.742	369.22
585.165	345.81
585.587	294.32
586.009	315.39
586.431	341.13
586.854	313.05
587.276	263.9
587.698	345.81
588.12	322.41
588.542	341.13
588.964	275.6
589.386	343.47
589.807	352.84
590.229	308.37
590.651	308.37
591.073	317.73
591.494	322.41
591.916	303.68
592.337	296.66
592.759	306.03
593.18	287.3
593.601	280.28
594.022	317.73
594.444	252.19
594.865	270.92
595.286	308.37
595.707	277.94
596.128	357.52
596.549	324.75
596.97	315.39
597.39	291.98
597.811	331.77
598.232	334.11
598.652	299
599.073	289.64
599.494	287.3
599.914	266.24
600.334	350.5
600.755	324.75
601.175	315.39
601.595	238.15
602.015	336.45
602.436	280.28
602.856	434.75
603.276	322.41
603.696	350.5
604.115	301.34
604.535	291.98
604.955	313.05
605.375	308.37
605.794	303.68
606.214	301.34
606.634	357.52
607.053	355.18
607.473	282.62
607.892	270.92
608.311	287.3
608.731	273.26
609.15	240.49
609.569	306.03
609.988	273.26
610.407	308.37
610.826	291.98
611.245	284.96
611.664	350.5
612.083	320.07
612.501	306.03
612.92	296.66
613.339	378.58
613.757	341.13
614.176	301.34
614.594	317.73
615.013	341.13
615.431	331.77
615.85	336.45
616.268	324.75
616.686	366.88
617.104	270.92
617.522	313.05
617.94	254.53
618.358	275.6
618.776	376.24
619.194	310.71
619.612	303.68
620.03	343.47
620.447	228.79
620.865	287.3
621.282	282.62
621.7	308.37
622.117	308.37
622.535	275.6
622.952	308.37
623.369	277.94
623.787	287.3
624.204	320.07
624.621	294.32
625.038	301.34
625.455	383.26
625.872	359.86
626.289	310.71
626.706	317.73
627.123	357.52
627.539	324.75
627.956	378.58
628.373	245.17
628.789	301.34
629.206	371.56
629.622	322.41
630.038	289.64
630.455	287.3
630.871	352.84
631.287	303.68
631.703	294.32
632.12	338.79
632.536	266.24
632.952	308.37
633.368	280.28
633.783	336.45
634.199	380.92
634.615	345.81
635.031	385.6
635.446	282.62
635.862	263.9
636.277	313.05
636.693	287.3
637.108	296.66
637.524	366.88
637.939	306.03
638.354	270.92
638.77	341.13
639.185	420.71
639.6	320.07
640.015	345.81
640.43	324.75
640.845	317.73
641.259	306.03
641.674	310.71
642.089	324.75
642.504	336.45
642.918	315.39
643.333	359.86
643.747	310.71
644.162	355.18
644.576	343.47
644.991	308.37
645.405	238.15
645.819	380.92
646.233	315.39
646.647	284.96
647.061	329.43
647.475	294.32
647.889	331.77
648.303	369.22
648.717	289.64
649.131	380.92
649.545	322.41
649.958	299
650.372	359.86
650.785	249.85
651.199	294.32
651.612	331.77
652.026	324.75
652.439	289.64
652.852	345.81
653.266	303.68
653.679	289.64
654.092	270.92
654.505	324.75
654.918	291.98
655.331	341.13
655.744	301.34
656.156	362.2
656.569	317.73
656.982	338.79
657.394	331.77
657.807	287.3
658.22	336.45
658.632	338.79
659.044	320.07
659.457	327.09
659.869	355.18
660.281	306.03
660.693	282.62
661.106	282.62
661.518	324.75
661.93	315.39
662.342	308.37
662.754	291.98
663.165	338.79
663.577	345.81
663.989	355.18
664.401	315.39
664.812	343.47
665.224	277.94
665.635	334.11
666.047	291.98
666.458	308.37
666.869	275.6
667.281	308.37
667.692	284.96
668.103	352.84
668.514	254.53
668.925	308.37
669.336	352.84
669.747	261.55
670.158	317.73
670.569	263.9
670.979	352.84
671.39	299
671.801	315.39
672.211	324.75
672.622	291.98
673.032	299
673.443	343.47
673.853	322.41
674.263	294.32
674.674	310.71
675.084	371.56
675.494	275.6
675.904	280.28
676.314	336.45
676.724	362.2
677.134	317.73
677.544	280.28
677.953	287.3
678.363	301.34
678.773	299
679.182	301.34
679.592	259.21
680.001	341.13
680.411	320.07
680.82	334.11
681.23	357.52
681.639	308.37
682.048	369.22
682.457	376.24
682.866	294.32
683.275	306.03
683.684	277.94
684.093	270.92
684.502	301.34
684.911	317.73
685.32	313.05
685.728	336.45
686.137	291.98
686.546	273.26
686.954	357.52
687.363	345.81
687.771	254.53
688.179	277.94
688.588	343.47
688.996	343.47
689.404	263.9
689.812	301.34
690.22	341.13
690.628	261.55
691.036	280.28
691.444	320.07
691.852	306.03
692.26	336.45
692.667	259.21
693.075	334.11
693.483	362.2
693.89	294.32
694.298	287.3
694.705	289.64
695.112	317.73
695.52	341.13
695.927	270.92
696.334	308.37
696.741	348.15
697.148	343.47
697.555	313.05
697.962	324.75
698.369	287.3
698.776	306.03
699.183	252.19
699.59	355.18
699.996	308.37
700.403	313.05
700.81	322.41
701.216	385.6
701.623	306.03
702.029	329.43
702.435	313.05
702.842	261.55
703.248	348.15
703.654	322.41
704.06	315.39
704.466	299
704.872	385.6
705.278	320.07
705.684	369.22
706.09	341.13
706.496	352.84
706.901	296.66
707.307	320.07
707.712	270.92
708.118	359.86
708.523	303.68
708.929	303.68
709.334	352.84
709.74	324.75
710.145	299
710.55	280.28
710.955	313.05
711.36	303.68
711.765	359.86
712.17	376.24
712.575	329.43
712.98	837.33
713.385	411.35
713.789	331.77
714.194	324.75
714.599	268.58
715.003	387.94
715.408	277.94
715.812	345.81
716.217	322.41
716.621	341.13
717.025	317.73
717.429	303.68
717.833	315.39
718.238	327.09
718.642	345.81
719.046	324.75
719.449	256.87
719.853	299
720.257	334.11
720.661	296.66
721.065	341.13
721.468	303.68
721.872	329.43
722.275	345.81
722.679	294.32
723.082	252.19
723.485	284.96
723.889	338.79
724.292	329.43
724.695	331.77
725.098	291.98
725.501	317.73
725.904	301.34
726.307	245.17
726.71	308.37
727.113	338.79
727.516	306.03
727.918	291.98
728.321	343.47
728.724	282.62
729.126	282.62
729.529	336.45
729.931	343.47
730.333	345.81
730.736	343.47
731.138	296.66
731.54	282.62
731.942	261.55
732.344	296.66
732.746	275.6
733.148	355.18
733.55	245.17
733.952	338.79
734.354	308.37
734.756	350.5
735.157	338.79
735.559	329.43
735.96	320.07
736.362	380.92
736.763	289.64
737.165	352.84
737.566	287.3
737.967	404.33
738.368	369.22
738.77	306.03
739.171	317.73
739.572	341.13
739.973	301.34
740.374	280.28
740.774	341.13
741.175	376.24
741.576	284.96
741.977	320.07
742.377	287.3
742.778	238.15
743.178	301.34
743.579	284.96
743.979	263.9
744.379	299
744.78	359.86
745.18	362.2
745.58	327.09
745.98	306.03
746.38	282.62
746.78	392.62
747.18	299
747.58	291.98
747.98	317.73
748.38	291.98
748.779	240.49
749.179	348.15
749.578	291.98
749.978	329.43
750.377	315.39
750.777	359.86
751.176	249.85
751.575	282.62
751.975	301.34
752.374	345.81
752.773	341.13
753.172	345.81
753.571	338.79
753.97	324.75
754.369	291.98
754.768	355.18
755.166	343.47
755.565	301.34
755.964	350.5
756.362	301.34
756.761	273.26
757.159	261.55
757.558	315.39
757.956	308.37
758.354	357.52
758.753	324.75
759.151	334.11
759.549	256.87
759.947	287.3
760.345	259.21
760.743	303.68
761.141	303.68
761.539	331.77
761.936	355.18
762.334	270.92
762.732	327.09
763.129	308.37
763.527	336.45
763.924	329.43
764.322	348.15
764.719	268.58
765.117	268.58
765.514	320.07
765.911	315.39
766.308	324.75
766.705	373.9
767.102	261.55
767.499	254.53
767.896	266.24
768.293	256.87
768.69	273.26
769.086	301.34
769.483	338.79
769.88	299
770.276	289.64
770.673	334.11
771.069	287.3
771.466	287.3
771.862	329.43
772.258	310.71
772.654	327.09
773.05	280.28
773.447	341.13
773.843	306.03
774.239	310.71
774.634	254.53
775.03	310.71
775.426	308.37
775.822	247.51
776.218	287.3
776.613	343.47
777.009	371.56
777.404	348.15
777.8	331.77
778.195	331.77
778.59	299
778.986	280.28
779.381	343.47
779.776	322.41
780.171	284.96
780.566	315.39
780.961	315.39
781.356	322.41
781.751	299
782.146	256.87
782.54	350.5
782.935	289.64
783.33	294.32
783.724	324.75
784.119	336.45
784.513	266.24
784.908	343.47
785.302	341.13
785.696	364.54
786.09	287.3
786.485	364.54
786.879	270.92
787.273	317.73
787.667	231.13
788.061	327.09
788.454	306.03
788.848	277.94
789.242	329.43
789.636	242.83
790.029	329.43
790.423	294.32
790.816	383.26
791.21	320.07
791.603	291.98
791.997	245.17
792.39	280.28
792.783	357.52
793.176	282.62
793.569	320.07
793.962	334.11
794.355	334.11
794.748	310.71
795.141	380.92
795.534	329.43
795.927	266.24
796.319	341.13
796.712	366.88
797.105	294.32
797.497	394.97
797.89	299
798.282	303.68
798.674	324.75
799.067	331.77
799.459	282.62
799.851	357.52
800.243	303.68
800.635	289.64
801.027	308.37
801.419	338.79
801.811	282.62
802.203	261.55
802.594	380.92
802.986	287.3
803.378	348.15
803.769	310.71
804.161	296.66
804.552	294.32
804.944	308.37
805.335	329.43
805.726	394.97
806.118	331.77
806.509	327.09
806.9	301.34
807.291	277.94
807.682	315.39
808.073	303.68
808.464	306.03
808.855	263.9
809.245	233.47
809.636	261.55
810.027	294.32
810.417	317.73
810.808	338.79
811.198	277.94
811.589	352.84
811.979	336.45
812.369	380.92
812.759	291.98
813.15	266.24
813.54	317.73
813.93	362.2
814.32	275.6
814.71	390.28
815.1	327.09
815.489	291.98
815.879	327.09
816.269	313.05
816.658	341.13
817.048	329.43
817.438	315.39
817.827	343.47
818.216	266.24
818.606	303.68
818.995	320.07
819.384	327.09
819.773	383.26
820.163	256.87
820.552	299
820.941	310.71
821.33	390.28
821.718	315.39
822.107	313.05
822.496	268.58
822.885	385.6
823.273	313.05
823.662	294.32
824.05	275.6
824.439	284.96
824.827	296.66
825.216	350.5
825.604	270.92
825.992	308.37
826.38	299
826.768	275.6
827.156	345.81
827.544	334.11
827.932	324.75
828.32	343.47
828.708	313.05
829.096	291.98
829.483	270.92
829.871	299
830.259	322.41
830.646	313.05
831.034	310.71
831.421	334.11
831.808	263.9
832.196	233.47
832.583	313.05
832.97	320.07
833.357	373.9
833.744	338.79
834.131	268.58
834.518	350.5
834.905	343.47
835.292	334.11
835.678	329.43
836.065	284.96
836.452	261.55
836.838	378.58
837.225	345.81
837.611	249.85
837.998	275.6
838.384	334.11
838.77	303.68
839.157	296.66
839.543	355.18
839.929	327.09
840.315	341.13
840.701	299
841.087	280.28
841.473	226.45
841.858	263.9
842.244	350.5
842.63	315.39
843.015	315.39
843.401	549.44
843.787	329.43
844.172	294.32
844.557	336.45
844.943	275.6
845.328	313.05
845.713	259.21
846.098	275.6
846.483	282.62
846.868	313.05
847.253	317.73
847.638	336.45
848.023	294.32
848.408	334.11
848.793	345.81
849.177	348.15
849.562	273.26
849.947	341.13
850.331	242.83
850.715	352.84
851.1	399.65
851.484	287.3
851.868	308.37
852.253	306.03
852.637	224.11
853.021	331.77
853.405	322.41
853.789	338.79
854.173	322.41
854.557	320.07
854.94	313.05
855.324	299
855.708	334.11
856.091	327.09
856.475	338.79
856.858	322.41
857.242	376.24
857.625	256.87
858.009	315.39
858.392	306.03
858.775	270.92
859.158	287.3
859.541	308.37
859.924	294.32
860.307	284.96
860.69	394.97
861.073	350.5
861.456	334.11
861.838	280.28
862.221	289.64
862.604	310.71
862.986	350.5
863.369	341.13
863.751	352.84
864.133	287.3
864.516	315.39
864.898	261.55
865.28	308.37
865.662	299
866.044	284.96
866.426	345.81
866.808	324.75
867.19	306.03
867.572	338.79
867.954	341.13
868.336	315.39
868.717	317.73
869.099	327.09
869.48	291.98
869.862	270.92
870.243	280.28
870.625	287.3
871.006	296.66
871.387	324.75
871.768	334.11
872.149	306.03
872.53	280.28
872.911	336.45
873.292	256.87
873.673	322.41
874.054	350.5
874.435	324.75
874.815	329.43
875.196	313.05
875.577	327.09
875.957	280.28
876.338	270.92
876.718	376.24
877.098	345.81
877.479	296.66
877.859	324.75
878.239	329.43
878.619	366.88
878.999	268.58
879.379	303.68
879.759	284.96
880.139	301.34
880.519	320.07
880.898	322.41
881.278	341.13
881.658	299
882.037	324.75
882.417	343.47
882.796	308.37
883.176	331.77
883.555	301.34
883.934	331.77
884.313	336.45
884.693	296.66
885.072	308.37
885.451	310.71
885.83	322.41
886.209	287.3
886.587	355.18
886.966	296.66
887.345	329.43
887.724	359.86
888.102	284.96
888.481	352.84
888.859	284.96
889.238	348.15
889.616	313.05
889.994	289.64
890.373	317.73
890.751	270.92
891.129	329.43
891.507	345.81
891.885	343.47
892.263	315.39
892.641	231.13
893.019	324.75
893.396	324.75
893.774	270.92
894.152	317.73
894.529	303.68
894.907	327.09
895.284	336.45
895.662	334.11
896.039	240.49
896.416	345.81
896.794	380.92
897.171	310.71
897.548	331.77
897.925	299
898.302	334.11
898.679	392.62
899.056	287.3
899.433	336.45
899.809	357.52
900.186	350.5
900.563	324.75
900.939	303.68
901.316	291.98
901.692	226.45
902.069	284.96
902.445	313.05
902.821	299
903.197	366.88
903.574	357.52
903.95	289.64
904.326	256.87
904.702	320.07
905.078	282.62
905.454	296.66
905.829	287.3
906.205	303.68
906.581	296.66
906.956	352.84
907.332	247.51
907.707	378.58
908.083	364.54
908.458	308.37
908.833	294.32
909.209	341.13
909.584	303.68
909.959	334.11
910.334	282.62
910.709	313.05
911.084	224.11
911.459	294.32
911.834	350.5
912.209	291.98
912.583	341.13
912.958	376.24
913.333	355.18
913.707	336.45
914.082	390.28
914.456	331.77
914.83	338.79
915.205	282.62
915.579	338.79
915.953	270.92
916.327	247.51
916.701	315.39
917.075	310.71
917.449	324.75
917.823	296.66
918.197	280.28
918.571	294.32
918.944	263.9
919.318	247.51
919.692	303.68
920.065	282.62
920.438	336.45
920.812	310.71
921.185	294.32
921.558	261.55
921.932	287.3
922.305	343.47
922.678	249.85
923.051	327.09
923.424	324.75
923.797	294.32
924.17	317.73
924.542	369.22
924.915	315.39
925.288	317.73
925.661	308.37
926.033	310.71
926.406	327.09
926.778	270.92
927.15	427.73
927.523	287.3
927.895	263.9
928.267	310.71
928.639	315.39
929.011	313.05
929.383	256.87
929.755	301.34
930.127	343.47
930.499	317.73
930.871	294.32
931.242	359.86
931.614	338.79
931.986	317.73
932.357	254.53
932.729	280.28
933.1	308.37
933.471	320.07
933.843	324.75
934.214	287.3
934.585	348.15
934.956	310.71
935.327	324.75
935.698	303.68
936.069	299
936.44	287.3
936.811	291.98
937.182	284.96
937.552	256.87
937.923	362.2
938.293	280.28
938.664	324.75
939.034	275.6
939.405	280.28
939.775	345.81
940.145	334.11
940.516	275.6
940.886	299
941.256	329.43
941.626	273.26
941.996	359.86
942.366	228.79
942.735	310.71
943.105	315.39
943.475	310.71
943.845	303.68
944.214	327.09
944.584	357.52
944.953	284.96
945.323	315.39
945.692	327.09
946.061	277.94
946.43	306.03
946.8	364.54
947.169	289.64
947.538	338.79
947.907	341.13
948.276	327.09
948.645	221.77
949.013	320.07
949.382	315.39
949.751	350.5
950.119	343.47
950.488	313.05
950.857	310.71
951.225	299
951.593	294.32
951.962	256.87
952.33	313.05
952.698	329.43
953.066	282.62
953.434	341.13
953.802	345.81
954.17	383.26
954.538	329.43
954.906	273.26
955.274	294.32
955.642	259.21
956.009	371.56
956.377	301.34
956.744	277.94
957.112	350.5
957.479	266.24
957.847	233.47
958.214	343.47
958.581	280.28
958.948	341.13
959.315	266.24
959.683	291.98
960.05	256.87
960.416	296.66
960.783	387.94
961.15	331.77
961.517	320.07
961.884	270.92
962.25	224.11
962.617	238.15
962.983	373.9
963.35	277.94
963.716	324.75
964.082	334.11
964.449	228.79
964.815	310.71
965.181	299
965.547	313.05
965.913	350.5
966.279	308.37
966.645	390.28
967.011	334.11
967.377	373.9
967.742	336.45
968.108	310.71
968.474	336.45
968.839	397.31
969.205	301.34
969.57	212.4
969.935	352.84
970.301	371.56
970.666	331.77
971.031	394.97
971.396	350.5
971.761	308.37
972.126	313.05
972.491	299
972.856	315.39
973.221	284.96
973.586	301.34
973.95	341.13
974.315	329.43
974.679	336.45
975.044	345.81
975.408	348.15
975.773	294.32
976.137	362.2
976.501	301.34
976.866	277.94
977.23	291.98
977.594	284.96
977.958	317.73
978.322	268.58
978.686	289.64
979.049	296.66
979.413	280.28
979.777	324.75
980.141	284.96
980.504	296.66
980.868	350.5
981.231	376.24
981.595	317.73
981.958	373.9
982.321	266.24
982.684	299
983.048	343.47
983.411	329.43
983.774	334.11
984.137	359.86
984.5	273.26
984.862	327.09
985.225	287.3
985.588	284.96
985.951	284.96
986.313	306.03
986.676	362.2
987.038	284.96
987.401	387.94
987.763	284.96
988.125	252.19
988.488	266.24
988.85	364.54
989.212	266.24
989.574	303.68
989.936	249.85
990.298	406.67
990.66	301.34
991.022	275.6
991.383	313.05
991.745	294.32
992.107	317.73
992.468	273.26
992.83	256.87
993.191	280.28
993.553	406.67
993.914	268.58
994.275	329.43
994.637	317.73
994.998	366.88
995.359	336.45
995.72	308.37
996.081	343.47
996.442	329.43
996.803	334.11
997.163	296.66
997.524	320.07
997.885	350.5
998.245	282.62
998.606	210.06
998.966	317.73
999.327	263.9
999.687	275.6
1000.047	249.85
1000.408	303.68
1000.768	366.88
1001.128	338.79
1001.488	322.41
1001.848	280.28
1002.208	327.09
1002.568	231.13
1002.927	259.21
1003.287	289.64
1003.647	310.71
1004.007	334.11
1004.366	327.09
1004.726	238.15
1005.085	273.26
1005.444	310.71
1005.804	289.64
1006.163	343.47
1006.522	294.32
1006.881	296.66
1007.24	282.62
1007.599	273.26
1007.958	303.68
1008.317	303.68
1008.676	331.77
1009.035	268.58
1009.393	263.9
1009.752	242.83
1010.111	299
1010.469	308.37
1010.828	303.68
1011.186	348.15
1011.544	343.47
1011.903	310.71
1012.261	385.6
1012.619	303.68
1012.977	296.66
1013.335	364.54
1013.693	306.03
1014.051	334.11
1014.409	313.05
1014.767	284.96
1015.124	324.75
1015.482	359.86
1015.84	270.92
1016.197	359.86
1016.555	331.77
1016.912	308.37
1017.269	341.13
1017.627	352.84
1017.984	322.41
1018.341	289.64
1018.698	277.94
1019.055	289.64
1019.412	266.24
1019.769	322.41
1020.126	348.15
1020.483	327.09
1020.84	324.75
1021.196	317.73
1021.553	336.45
1021.909	254.53
1022.266	306.03
1022.622	317.73
1022.979	310.71
1023.335	320.07
1023.691	306.03
1024.047	270.92
1024.404	338.79
1024.76	291.98
1025.116	320.07
1025.472	299
1025.827	296.66
1026.183	296.66
1026.539	301.34
1026.895	259.21
1027.25	277.94
1027.606	336.45
1027.961	261.55
1028.317	343.47
1028.672	299
1029.028	355.18
1029.383	263.9
1029.738	287.3
1030.093	284.96
1030.448	320.07
1030.803	301.34
1031.158	343.47
1031.513	341.13
1031.868	336.45
1032.223	366.88
1032.577	268.58
1032.932	327.09
1033.287	308.37
1033.641	409.01
1033.996	306.03
1034.35	336.45
1034.704	320.07
1035.059	320.07
1035.413	308.37
1035.767	308.37
1036.121	308.37
