Data from Al_FLMS009871__827__15-30-06-596.txt Node

Date: Fri Mar 08 15:30:06 CST 2024
User: pe5414po
Spectrometer: FLMS00987
Trigger mode: 0
Integration Time (sec): 1.000000E-1
Scans to average: 1
Electric dark correction enabled: true
Nonlinearity correction enabled: false
Boxcar width: 0
XAxis mode: Wavelengths
Number of Pixels in Spectrum: 2048
>>>>>Begin Spectral Data<<<<<
188.938	-32.47
189.409	-32.47
189.879	-32.47
190.349	-116.73
190.819	-67.58
191.29	-119.07
191.76	-90.99
192.23	-32.47
192.7	-16.09
193.17	-65.24
193.64	2.63
194.109	-58.22
194.579	2.63
195.049	-53.54
195.519	4.97
195.988	21.36
196.458	19.02
196.927	110.3
197.397	68.17
197.866	68.17
198.336	138.38
198.805	168.81
199.274	187.54
199.744	189.88
200.213	246.05
200.682	243.71
201.151	248.39
201.62	276.48
202.089	288.18
202.558	274.14
203.027	346.69
203.495	358.39
203.964	325.63
204.433	342.01
204.902	349.03
205.37	365.42
205.839	339.67
206.307	412.23
206.776	386.48
207.244	452.02
207.712	356.05
208.181	405.21
208.649	430.95
209.117	489.46
209.585	470.74
210.053	510.53
210.521	564.36
210.989	543.3
211.457	531.59
211.925	512.87
212.393	653.3
212.861	672.03
213.328	669.69
213.796	725.86
214.264	725.86
214.731	810.12
215.199	796.07
215.666	840.54
216.133	990.34
216.601	1004.38
217.068	1191.63
217.535	1376.53
218.003	1442.06
218.47	1488.87
218.937	1378.87
219.404	1406.95
219.871	1488.87
220.338	1549.73
220.805	1676.12
221.271	1659.73
221.738	1743.99
222.205	1774.42
222.671	1795.48
223.138	2050.6
223.605	1968.68
224.071	2024.86
224.538	2034.22
225.004	2022.52
225.47	2176.99
225.937	2090.39
226.403	2034.22
226.869	1921.87
227.335	1933.58
227.801	1795.48
228.267	1790.8
228.733	1809.53
229.199	1893.79
229.665	2193.37
230.131	2387.64
230.597	2432.11
231.062	2418.07
231.528	2296.36
231.994	2095.07
232.459	2017.83
232.925	2027.2
233.39	2165.29
233.856	2460.2
234.321	2738.72
234.786	3279.38
235.252	4243.68
235.717	4903.71
236.182	5083.94
236.647	4693.07
237.112	3611.74
237.577	2806.59
238.042	2457.86
238.507	2153.59
238.972	1917.19
239.436	1877.4
239.901	1910.17
240.366	1884.42
240.83	1783.78
241.295	1891.45
241.76	1931.23
242.224	1854
242.688	1935.92
243.153	1945.28
243.617	1830.59
244.081	1884.42
244.545	2097.41
245.01	1956.98
245.474	2139.54
245.938	2155.93
246.402	2071.67
246.866	1956.98
247.33	2050.6
247.793	1954.64
248.257	1954.64
248.721	1973.36
249.185	1910.17
249.648	1919.53
250.112	1947.62
250.575	1952.3
251.039	2013.15
251.502	2003.79
251.965	1956.98
252.429	2008.47
252.892	2141.88
253.355	2036.56
253.818	2148.9
254.281	2233.16
254.744	2450.83
255.207	2729.36
255.67	3405.77
256.133	3953.46
256.596	4243.68
257.059	4002.61
257.522	3438.54
257.984	2851.07
258.447	2797.23
258.909	2694.25
259.372	2675.52
259.834	2675.52
260.297	2619.35
260.759	2691.91
261.221	2762.12
261.684	3174.06
262.146	3815.37
262.608	3843.45
263.07	3780.26
263.532	3197.46
263.994	3136.61
264.456	3401.09
264.918	3241.93
265.38	3286.4
265.842	2932.98
266.303	2654.46
266.765	2263.59
267.227	2062.3
267.688	1966.34
268.15	2001.45
268.611	1968.68
269.072	1952.3
269.534	1996.77
269.995	2003.79
270.456	2031.88
270.918	1931.23
271.379	1879.74
271.84	1945.28
272.301	1825.91
272.762	1858.68
273.223	1889.1
273.684	1966.34
274.144	1924.21
274.605	1980.39
275.066	1814.21
275.527	2013.15
275.987	2237.84
276.448	2478.92
276.908	2900.22
277.369	3614.08
277.829	5332.03
278.289	8229.62
278.75	11328.49
279.21	12250.66
279.67	10303.33
280.13	7857.47
280.59	6446.13
281.05	5870.36
281.51	4931.8
281.97	3892.6
282.43	2989.16
282.89	2408.7
283.35	2219.12
283.809	2397
284.269	2762.12
284.729	2764.47
285.188	2544.45
285.648	2195.72
286.107	1849.32
286.567	1816.55
287.026	1748.67
287.485	1882.08
287.944	1631.65
288.404	1692.5
288.863	1713.56
289.322	1713.56
289.781	1746.33
290.24	1715.91
290.699	1788.46
291.158	1896.13
291.616	2064.65
292.075	2202.74
292.534	2371.26
292.992	2588.93
293.451	2497.64
293.91	2249.55
294.368	2062.3
294.827	1865.7
295.285	1720.59
295.743	1727.61
296.202	1589.52
296.66	1626.96
297.118	1631.65
297.576	1549.73
298.034	1725.27
298.492	1526.32
298.95	1563.77
299.408	1594.2
299.866	1622.28
300.324	1669.09
300.781	1657.39
301.239	1779.1
301.697	1917.19
302.154	1949.96
302.612	1992.09
303.069	2116.14
303.527	2354.87
303.984	2584.24
304.441	3134.27
304.899	3759.19
305.356	4414.54
305.813	4313.9
306.27	4246.02
306.727	4456.67
307.184	5736.95
307.641	7370.64
308.098	8421.54
308.555	9233.71
309.012	8655.59
309.468	7003.18
309.925	5207.98
310.382	3569.61
310.838	2755.1
311.295	2352.53
311.751	2251.89
312.208	1996.77
312.664	2029.54
313.12	1879.74
313.577	1711.22
314.033	1701.86
314.489	1655.05
314.945	1591.86
315.401	1559.09
315.857	1526.32
316.313	1385.89
316.769	1512.28
317.225	1507.6
317.681	1346.1
318.136	1418.66
318.592	1381.21
319.048	1374.19
319.503	1493.55
319.959	1460.79
320.414	1439.72
320.869	1397.59
321.325	1339.08
321.78	1402.27
322.235	1432.7
322.691	1362.48
323.146	1509.94
323.601	1624.62
324.056	1891.45
324.511	2116.14
324.966	2066.99
325.421	1772.08
325.875	1458.45
326.33	1638.67
326.785	1751.01
327.24	1947.62
327.694	1786.12
328.149	1535.68
328.603	1362.48
329.058	1301.63
329.512	1339.08
329.966	1465.47
330.421	1367.17
330.875	1271.2
331.329	1404.61
331.783	1470.15
332.237	1435.04
332.691	1428.02
333.145	1577.81
333.599	1521.64
334.053	1568.45
334.507	1575.47
334.96	1519.3
335.414	1509.94
335.868	1430.36
336.321	1533.34
336.775	1453.77
337.228	1364.82
337.682	1458.45
338.135	1545.05
338.588	1371.85
339.042	1392.91
339.495	1423.34
339.948	1404.61
340.401	1516.96
340.854	1486.53
341.307	1325.04
341.76	1395.25
342.213	1437.38
342.666	1437.38
343.119	1428.02
343.571	1523.98
344.024	1479.51
344.477	1430.36
344.929	1523.98
345.382	1421
345.834	1484.19
346.287	1428.02
346.739	1516.96
347.191	1507.6
347.644	1563.77
348.096	1528.66
348.548	1491.21
349	1545.05
349.452	1432.7
349.904	1399.93
350.356	1477.17
350.808	1523.98
351.26	1615.26
351.711	1629.31
352.163	1687.82
352.615	1601.22
353.066	1652.71
353.518	1762.72
353.969	1849.32
354.421	1856.34
354.872	1882.08
355.324	2076.35
355.775	2380.62
356.226	2511.69
356.677	2900.22
357.128	3309.81
357.579	3927.71
358.03	4917.76
358.481	5376.5
358.932	5215.01
359.383	4487.1
359.834	3770.9
360.285	3152.99
360.735	2975.11
361.186	2734.04
361.637	2507.01
362.087	2186.35
362.538	2092.73
362.988	1933.58
363.438	1751.01
363.889	1736.97
364.339	1683.14
364.789	1631.65
365.239	1622.28
365.689	1619.94
366.139	1603.56
366.589	1563.77
367.039	1505.26
367.489	1439.72
367.939	1418.66
368.389	1449.08
368.839	1399.93
369.288	1423.34
369.738	1474.83
370.187	1402.27
370.637	1428.02
371.086	1439.72
371.536	1423.34
371.985	1435.04
372.434	1409.3
372.884	1481.85
373.333	1437.38
373.782	1526.32
374.231	1435.04
374.68	1481.85
375.129	1402.27
375.578	1383.55
376.027	1404.61
376.475	1388.23
376.924	1355.46
377.373	1409.3
377.822	1362.48
378.27	1292.27
378.719	1360.14
379.167	1353.12
379.616	1369.51
380.064	1416.32
380.512	1399.93
380.961	1509.94
381.409	1533.34
381.857	1683.14
382.305	1893.79
382.753	2099.75
383.201	2507.01
383.649	2588.93
384.097	2490.62
384.545	1917.19
384.992	1673.78
385.44	1559.09
385.888	1566.11
386.335	1521.64
386.783	1413.98
387.231	1418.66
387.678	1523.98
388.125	1486.53
388.573	1523.98
389.02	1442.06
389.467	1509.94
389.914	1516.96
390.362	1554.41
390.809	1535.68
391.256	1502.92
391.703	1641.01
392.15	1648.03
392.596	1961.66
393.043	2237.84
393.49	2759.78
393.937	4187.51
394.383	6085.69
394.83	7248.93
395.276	6558.47
395.723	6539.75
396.169	7979.18
396.616	8468.35
397.062	6251.86
397.508	4028.35
397.954	2881.49
398.401	2483.6
398.847	2132.52
399.293	2083.37
399.739	1964
400.185	1760.38
400.631	1669.09
401.076	1699.52
401.522	1631.65
401.968	1638.67
402.414	1657.39
402.859	1669.09
403.305	1851.66
403.75	1814.21
404.196	1666.75
404.641	1596.54
405.086	1561.43
405.532	1605.9
405.977	1442.06
406.422	1535.68
406.867	1538.02
407.312	1526.32
407.757	1584.84
408.202	1474.83
408.647	1549.73
409.092	1547.39
409.537	1437.38
409.982	1346.1
410.426	1346.1
410.871	1453.77
411.316	1406.95
411.76	1425.68
412.205	1334.4
412.649	1479.51
413.093	1402.27
413.538	1392.91
413.982	1369.51
414.426	1350.78
414.87	1451.42
415.314	1399.93
415.758	1343.76
416.202	1336.74
416.646	1346.1
417.09	1376.53
417.534	1360.14
417.978	1327.38
418.421	1278.23
418.865	1264.18
419.309	1376.53
419.752	1378.87
420.196	1278.23
420.639	1355.46
421.083	1343.76
421.526	1278.23
421.969	1280.57
422.412	1341.42
422.856	1353.12
423.299	1322.7
423.742	1285.25
424.185	1325.04
424.628	1355.46
425.071	1289.93
425.513	1355.46
425.956	1280.57
426.399	1210.35
426.842	1296.95
427.284	1287.59
427.727	1189.28
428.169	1296.95
428.612	1229.07
429.054	1168.22
429.497	1121.41
429.939	1175.24
430.381	1168.22
430.823	1158.86
431.265	1142.47
431.707	1208.01
432.149	1224.39
432.591	1208.01
433.033	1222.05
433.475	1217.37
433.917	1217.37
434.359	1212.69
434.8	1231.41
435.242	1257.16
435.684	1226.73
436.125	1259.5
436.567	1182.26
437.008	1163.54
437.449	1191.63
437.891	1114.39
438.332	1205.67
438.773	1289.93
439.214	1219.71
439.656	1271.2
440.097	1189.28
440.538	1301.63
440.978	1203.33
441.419	1289.93
441.86	1282.91
442.301	1310.99
442.742	1259.5
443.182	1261.84
443.623	1292.27
444.063	1310.99
444.504	1437.38
444.944	1406.95
445.385	1437.38
445.825	1442.06
446.265	1329.72
446.706	1425.68
447.146	1364.82
447.586	1481.85
448.026	1493.55
448.466	1559.09
448.906	1491.21
449.346	1479.51
449.786	1411.64
450.225	1322.7
450.665	1350.78
451.105	1439.72
451.544	1348.44
451.984	1428.02
452.424	1425.68
452.863	1402.27
453.302	1348.44
453.742	1437.38
454.181	1453.77
454.62	1397.59
455.059	1399.93
455.499	1315.67
455.938	1332.06
456.377	1336.74
456.816	1318.01
457.254	1369.51
457.693	1233.75
458.132	1266.52
458.571	1226.73
459.01	1296.95
459.448	1247.8
459.887	1292.27
460.325	1294.61
460.764	1320.35
461.202	1350.78
461.641	1261.84
462.079	1334.4
462.517	1374.19
462.955	1399.93
463.393	1411.64
463.832	1418.66
464.27	1397.59
464.708	1460.79
465.145	1495.89
465.583	1442.06
466.021	1641.01
466.459	1603.56
466.897	1732.29
467.334	1788.46
467.772	1699.52
468.209	1678.46
468.647	1603.56
469.084	1357.8
469.522	1357.8
469.959	1364.82
470.396	1406.95
470.833	1425.68
471.271	1334.4
471.708	1334.4
472.145	1353.12
472.582	1229.07
473.019	1285.25
473.456	1332.06
473.892	1336.74
474.329	1224.39
474.766	1238.44
475.202	1229.07
475.639	1285.25
476.076	1278.23
476.512	1395.25
476.949	1285.25
477.385	1327.38
477.821	1397.59
478.258	1350.78
478.694	1353.12
479.13	1388.23
479.566	1381.21
480.002	1397.59
480.438	1406.95
480.874	1360.14
481.31	1411.64
481.746	1439.72
482.181	1364.82
482.617	1355.46
483.053	1374.19
483.488	1306.31
483.924	1306.31
484.36	1404.61
484.795	1446.74
485.23	1540.37
485.666	1495.89
486.101	1463.13
486.536	1526.32
486.971	1547.39
487.407	1481.85
487.842	1657.39
488.277	1556.75
488.712	1442.06
489.146	1580.15
489.581	1523.98
490.016	1488.87
490.451	1505.26
490.885	1371.85
491.32	1437.38
491.755	1409.3
492.189	1404.61
492.624	1385.89
493.058	1322.7
493.492	1453.77
493.927	1318.01
494.361	1460.79
494.795	1423.34
495.229	1308.65
495.663	1402.27
496.097	1353.12
496.531	1390.57
496.965	1404.61
497.399	1423.34
497.833	1488.87
498.266	1435.04
498.7	1561.43
499.134	1652.71
499.567	1648.03
500.001	1685.48
500.434	1884.42
500.868	1989.75
501.301	1987.41
501.734	1952.3
502.168	1849.32
502.601	1758.03
503.034	1631.65
503.467	1542.71
503.9	1538.02
504.333	1472.49
504.766	1516.96
505.199	1720.59
505.632	1736.97
506.064	1603.56
506.497	1467.81
506.93	1559.09
507.362	1596.54
507.795	1491.21
508.227	1374.19
508.66	1456.11
509.092	1453.77
509.524	1458.45
509.956	1392.91
510.389	1437.38
510.821	1444.4
511.253	1495.89
511.685	1442.06
512.117	1418.66
512.549	1439.72
512.981	1341.42
513.412	1437.38
513.844	1432.7
514.276	1402.27
514.707	1540.37
515.139	1514.62
515.571	1622.28
516.002	1676.12
516.433	1629.31
516.865	1683.14
517.296	1858.68
517.727	2006.13
518.159	2125.5
518.59	2219.12
519.021	2181.67
519.452	2109.12
519.883	1889.1
520.314	1765.06
520.744	1704.2
521.175	1671.44
521.606	1795.48
522.037	1872.72
522.467	1865.7
522.898	1863.36
523.328	1870.38
523.759	1839.95
524.189	1807.19
524.62	1861.02
525.05	1971.02
525.48	2111.46
525.91	2216.78
526.341	2298.7
526.771	2448.49
527.201	2605.31
527.631	2900.22
528.061	3113.21
528.49	3560.25
528.92	4121.98
529.35	5493.53
529.78	11220.82
530.209	51419.52
530.639	63049.64
531.068	63049.64
531.498	63049.64
531.927	63049.64
532.357	63049.64
532.786	63049.64
533.215	63049.64
533.644	63049.64
534.074	63049.64
534.503	25324.89
534.932	12943.46
535.361	7611.71
535.79	5420.97
536.218	4269.43
536.647	3787.28
537.076	3260.66
537.505	2743.4
537.933	2359.55
538.362	2130.18
538.79	1949.96
539.219	1748.67
539.647	1629.31
540.076	1559.09
540.504	1486.53
540.932	1378.87
541.36	1456.11
541.788	1371.85
542.217	1346.1
542.645	1292.27
543.073	1261.84
543.5	1233.75
543.928	1271.2
544.356	1287.59
544.784	1264.18
545.211	1264.18
545.639	1128.43
546.067	1250.14
546.494	1210.35
546.922	1142.47
547.349	1165.88
547.776	1130.77
548.204	1098
548.631	1186.94
549.058	1147.16
549.485	1149.5
549.912	1170.56
550.339	1116.73
550.766	1114.39
551.193	1116.73
551.62	1147.16
552.047	1175.24
552.474	1172.9
552.9	1133.11
553.327	1233.75
553.754	1088.64
554.18	1243.12
554.607	1130.77
555.033	1161.2
555.459	1203.33
555.886	1079.28
556.312	1128.43
556.738	1189.28
557.164	1184.6
557.59	1088.64
558.016	1041.83
558.442	1182.26
558.868	1147.16
559.294	1083.96
559.72	1130.77
560.145	1205.67
560.571	1163.54
560.997	1149.5
561.422	1128.43
561.848	1030.13
562.273	1062.9
562.699	1116.73
563.124	1198.65
563.549	1130.77
563.974	1114.39
564.4	1032.47
564.825	1126.09
565.25	1090.98
565.675	1147.16
566.1	1156.52
566.525	1243.12
566.95	1243.12
567.374	1266.52
567.799	1374.19
568.224	1421
568.648	1240.78
569.073	1353.12
569.497	1275.88
569.922	1212.69
570.346	1208.01
570.771	1313.33
571.195	1257.16
571.619	1210.35
572.043	1037.15
572.467	1142.47
572.891	1079.28
573.315	1041.83
573.739	1023.11
574.163	1025.45
574.587	988
575.011	952.89
575.435	990.34
575.858	976.3
576.282	929.49
576.705	859.27
577.129	870.97
577.552	899.06
577.976	924.8
578.399	873.31
578.822	894.38
579.245	899.06
579.669	903.74
580.092	899.06
580.515	859.27
580.938	817.14
581.361	856.93
581.784	826.5
582.206	824.16
582.629	847.57
583.052	882.67
583.474	840.54
583.897	887.36
584.32	856.93
584.742	789.05
585.165	765.65
585.587	772.67
586.009	852.25
586.431	742.24
586.854	798.42
587.276	805.44
587.698	760.97
588.12	753.95
588.542	803.1
588.964	803.1
589.386	838.2
589.807	877.99
590.229	859.27
590.651	847.57
591.073	782.03
591.494	770.33
591.916	824.16
592.337	833.52
592.759	831.18
593.18	892.04
593.601	803.1
594.022	828.84
594.444	842.89
594.865	842.89
595.286	751.6
595.707	810.12
596.128	784.37
596.549	814.8
596.97	824.16
597.39	756.29
597.811	709.47
598.232	725.86
598.652	767.99
599.073	777.35
599.494	711.82
599.914	739.9
600.334	714.16
600.755	838.2
601.175	763.31
601.595	782.03
602.015	838.2
602.436	798.42
602.856	849.91
603.276	760.97
603.696	789.05
604.115	756.29
604.535	746.92
604.955	641.6
605.375	718.84
605.794	742.24
606.214	800.76
606.634	767.99
607.053	662.66
607.473	838.2
607.892	681.39
608.311	831.18
608.731	753.95
609.15	749.26
609.569	770.33
609.988	800.76
610.407	772.67
610.826	784.37
611.245	824.16
611.664	821.82
612.083	789.05
612.501	831.18
612.92	767.99
613.339	749.26
613.757	725.86
614.176	775.01
614.594	777.35
615.013	894.38
615.431	796.07
615.85	803.1
616.268	782.03
616.686	767.99
617.104	831.18
617.522	739.9
617.94	758.63
618.358	793.73
618.776	847.57
619.194	786.71
619.612	772.67
620.03	697.77
620.447	828.84
620.865	798.42
621.282	847.57
621.7	765.65
622.117	756.29
622.535	817.14
622.952	863.95
623.369	821.82
623.787	927.14
624.204	945.87
624.621	1055.87
625.038	1083.96
625.455	1011.4
625.872	1039.49
626.289	1048.85
626.706	1025.45
627.123	992.68
627.539	927.14
627.956	950.55
628.373	899.06
628.789	882.67
629.206	842.89
629.622	838.2
630.038	821.82
630.455	758.63
630.871	835.86
631.287	800.76
631.703	709.47
632.12	753.95
632.536	721.18
632.952	667.35
633.368	742.24
633.783	721.18
634.199	690.75
634.615	711.82
635.031	709.47
635.446	672.03
635.862	604.15
636.277	693.09
636.693	636.92
637.108	665
637.524	655.64
637.939	629.9
638.354	641.6
638.77	641.6
639.185	641.6
639.6	627.56
640.015	634.58
640.43	601.81
640.845	634.58
641.259	643.94
641.674	641.6
642.089	604.15
642.504	625.22
642.918	590.11
643.333	594.79
643.747	583.09
644.162	550.32
644.576	618.19
644.991	650.96
645.405	615.85
645.819	597.13
646.233	557.34
646.647	711.82
647.061	611.17
647.475	632.24
647.889	613.51
648.303	587.77
648.717	566.7
649.131	573.72
649.545	531.59
649.958	634.58
650.372	599.47
650.785	606.49
651.199	629.9
651.612	552.66
652.026	585.43
652.439	580.75
652.852	585.43
653.266	672.03
653.679	594.79
654.092	550.32
654.505	571.38
654.918	606.49
655.331	683.73
655.744	587.77
656.156	641.6
656.569	627.56
656.982	707.13
657.394	679.05
657.807	665
658.22	625.22
658.632	646.28
659.044	592.45
659.457	620.53
659.869	599.47
660.281	650.96
660.693	562.02
661.106	657.98
661.518	564.36
661.93	576.06
662.342	573.72
662.754	529.25
663.165	573.72
663.577	522.23
663.989	526.91
664.401	569.04
664.812	559.68
665.224	536.28
665.635	552.66
666.047	555
666.458	543.3
666.869	524.57
667.281	526.91
667.692	576.06
668.103	508.19
668.514	557.34
668.925	533.93
669.336	550.32
669.747	555
670.158	564.36
670.569	578.4
670.979	566.7
671.39	533.93
671.801	540.96
672.211	522.23
672.622	519.89
673.032	587.77
673.443	529.25
673.853	515.21
674.263	524.57
674.674	540.96
675.084	501.17
675.494	517.55
675.904	515.21
676.314	496.49
676.724	529.25
677.134	498.83
677.544	437.97
677.953	510.53
678.363	501.17
678.773	475.42
679.182	545.64
679.592	496.49
680.001	475.42
680.411	555
680.82	459.04
681.23	545.64
681.639	519.89
682.048	477.76
682.457	555
682.866	547.98
683.275	503.51
683.684	498.83
684.093	473.08
684.502	489.46
684.911	475.42
685.32	501.17
685.728	494.15
686.137	517.55
686.546	484.78
686.954	533.93
687.363	531.59
687.771	505.85
688.179	419.25
688.588	482.44
688.996	487.12
689.404	571.38
689.812	505.85
690.22	519.89
690.628	475.42
691.036	496.49
691.444	562.02
691.852	449.68
692.26	447.33
692.667	496.49
693.075	496.49
693.483	510.53
693.89	473.08
694.298	468.4
694.705	491.81
695.112	416.91
695.52	480.1
695.927	456.7
696.334	454.36
696.741	475.42
697.148	466.06
697.555	480.1
697.962	505.85
698.369	475.42
698.776	463.72
699.183	491.81
699.59	447.33
699.996	552.66
700.403	501.17
700.81	484.78
701.216	559.68
701.623	496.49
702.029	412.23
702.435	470.74
702.842	529.25
703.248	562.02
703.654	655.64
704.06	608.83
704.466	723.52
704.872	676.71
705.278	618.19
705.684	641.6
706.09	693.09
706.496	606.49
706.901	503.51
707.307	515.21
707.712	512.87
708.118	426.27
708.523	543.3
708.929	444.99
709.334	477.76
709.74	402.86
710.145	484.78
710.55	444.99
710.955	456.7
711.36	473.08
711.765	482.44
712.17	393.5
712.575	395.84
712.98	978.64
713.385	414.57
713.789	395.84
714.194	459.04
714.599	494.15
715.003	498.83
715.408	428.61
715.812	405.21
716.217	459.04
716.621	412.23
717.025	386.48
717.429	449.68
717.833	489.46
718.238	426.27
718.642	412.23
719.046	395.84
719.449	398.18
719.853	381.8
720.257	452.02
720.661	365.42
721.065	447.33
721.468	391.16
721.872	346.69
722.275	395.84
722.679	374.78
723.082	435.63
723.485	444.99
723.889	384.14
724.292	363.08
724.695	313.92
725.098	433.29
725.501	437.97
725.904	356.05
726.307	365.42
726.71	386.48
727.113	372.44
727.516	374.78
727.918	393.5
728.321	402.86
728.724	372.44
729.126	356.05
729.529	370.1
729.931	440.31
730.333	407.55
730.736	402.86
731.138	342.01
731.54	391.16
731.942	379.46
732.344	372.44
732.746	421.59
733.148	377.12
733.55	421.59
733.952	386.48
734.354	337.33
734.756	370.1
735.157	358.39
735.559	398.18
735.96	353.71
736.362	412.23
736.763	358.39
737.165	381.8
737.566	372.44
737.967	384.14
738.368	370.1
738.77	475.42
739.171	416.91
739.572	416.91
739.973	370.1
740.374	395.84
740.774	435.63
741.175	367.76
741.576	363.08
741.977	381.8
742.377	466.06
742.778	414.57
743.178	423.93
743.579	426.27
743.979	421.59
744.379	435.63
744.78	414.57
745.18	377.12
745.58	437.97
745.98	402.86
746.38	400.52
746.78	433.29
747.18	452.02
747.58	459.04
747.98	426.27
748.38	384.14
748.779	395.84
749.179	400.52
749.578	365.42
749.978	381.8
750.377	370.1
750.777	442.65
751.176	398.18
751.575	351.37
751.975	323.29
752.374	405.21
752.773	433.29
753.172	306.9
753.571	353.71
753.97	423.93
754.369	423.93
754.768	349.03
755.166	398.18
755.565	313.92
755.964	405.21
756.362	381.8
756.761	353.71
757.159	367.76
757.558	349.03
757.956	433.29
758.354	318.61
758.753	379.46
759.151	367.76
759.549	330.31
759.947	302.22
760.345	337.33
760.743	372.44
761.141	297.54
761.539	344.35
761.936	330.31
762.334	323.29
762.732	393.5
763.129	407.55
763.527	379.46
763.924	381.8
764.322	353.71
764.719	365.42
765.117	349.03
765.514	349.03
765.911	309.24
766.308	379.46
766.705	332.65
767.102	349.03
767.499	325.63
767.896	337.33
768.293	339.67
768.69	344.35
769.086	339.67
769.483	304.56
769.88	342.01
770.276	372.44
770.673	351.37
771.069	349.03
771.466	381.8
771.862	363.08
772.258	337.33
772.654	325.63
773.05	330.31
773.447	351.37
773.843	332.65
774.239	426.27
774.634	309.24
775.03	334.99
775.426	316.26
775.822	358.39
776.218	395.84
776.613	416.91
777.009	449.68
777.404	402.86
777.8	414.57
778.195	428.61
778.59	358.39
778.986	295.2
779.381	365.42
779.776	419.25
780.171	412.23
780.566	377.12
780.961	358.39
781.356	337.33
781.751	295.2
782.146	323.29
782.54	405.21
782.935	391.16
783.33	342.01
783.724	330.31
784.119	377.12
784.513	311.58
784.908	342.01
785.302	339.67
785.696	339.67
786.09	311.58
786.485	325.63
786.879	372.44
787.273	311.58
787.667	344.35
788.061	334.99
788.454	304.56
788.848	313.92
789.242	330.31
789.636	295.2
790.029	393.5
790.423	325.63
790.816	391.16
791.21	330.31
791.603	320.95
791.997	365.42
792.39	346.69
792.783	276.48
793.176	363.08
793.569	344.35
793.962	327.97
794.355	374.78
794.748	344.35
795.141	388.82
795.534	407.55
795.927	365.42
796.319	346.69
796.712	337.33
797.105	297.54
797.497	311.58
797.89	360.74
798.282	337.33
798.674	398.18
799.067	323.29
799.459	292.86
799.851	339.67
800.243	370.1
800.635	391.16
801.027	377.12
801.419	344.35
801.811	278.82
802.203	306.9
802.594	342.01
802.986	344.35
803.378	327.97
803.769	313.92
804.161	313.92
804.552	381.8
804.944	332.65
805.335	360.74
805.726	363.08
806.118	339.67
806.509	332.65
806.9	325.63
807.291	316.26
807.682	337.33
808.073	339.67
808.464	363.08
808.855	356.05
809.245	285.84
809.636	365.42
810.027	320.95
810.417	337.33
810.808	379.46
811.198	377.12
811.589	318.61
811.979	325.63
812.369	309.24
812.759	320.95
813.15	334.99
813.54	281.16
813.93	337.33
814.32	337.33
814.71	363.08
815.1	290.52
815.489	318.61
815.879	313.92
816.269	313.92
816.658	398.18
817.048	327.97
817.438	327.97
817.827	344.35
818.216	372.44
818.606	358.39
818.995	295.2
819.384	370.1
819.773	430.95
820.163	337.33
820.552	339.67
820.941	377.12
821.33	349.03
821.718	356.05
822.107	365.42
822.496	349.03
822.885	334.99
823.273	381.8
823.662	318.61
824.05	374.78
824.439	320.95
824.827	332.65
825.216	304.56
825.604	332.65
825.992	360.74
826.38	330.31
826.768	353.71
827.156	339.67
827.544	330.31
827.932	339.67
828.32	302.22
828.708	313.92
829.096	278.82
829.483	302.22
829.871	358.39
830.259	274.14
830.646	330.31
831.034	299.88
831.421	344.35
831.808	278.82
832.196	330.31
832.583	306.9
832.97	323.29
833.357	313.92
833.744	267.11
834.131	306.9
834.518	346.69
834.905	334.99
835.292	283.5
835.678	325.63
836.065	327.97
836.452	295.2
836.838	327.97
837.225	353.71
837.611	398.18
837.998	346.69
838.384	363.08
838.77	398.18
839.157	318.61
839.543	255.41
839.929	332.65
840.315	285.84
840.701	349.03
841.087	393.5
841.473	339.67
841.858	278.82
842.244	330.31
842.63	320.95
843.015	351.37
843.401	742.24
843.787	295.2
844.172	400.52
844.557	278.82
844.943	363.08
845.328	316.26
845.713	353.71
846.098	356.05
846.483	337.33
846.868	327.97
847.253	309.24
847.638	337.33
848.023	285.84
848.408	374.78
848.793	285.84
849.177	281.16
849.562	351.37
849.947	269.45
850.331	313.92
850.715	311.58
851.1	337.33
851.484	302.22
851.868	346.69
852.253	269.45
852.637	349.03
853.021	342.01
853.405	264.77
853.789	318.61
854.173	281.16
854.557	278.82
854.94	325.63
855.324	241.37
855.708	309.24
856.091	290.52
856.475	323.29
856.858	271.79
857.242	295.2
857.625	313.92
858.009	351.37
858.392	302.22
858.775	332.65
859.158	278.82
859.541	288.18
859.924	297.54
860.307	320.95
860.69	316.26
861.073	337.33
861.456	360.74
861.838	342.01
862.221	367.76
862.604	416.91
862.986	332.65
863.369	381.8
863.751	353.71
864.133	316.26
864.516	288.18
864.898	274.14
865.28	327.97
865.662	304.56
866.044	318.61
866.426	313.92
866.808	288.18
867.19	356.05
867.572	330.31
867.954	332.65
868.336	320.95
868.717	323.29
869.099	309.24
869.48	372.44
869.862	363.08
870.243	292.86
870.625	339.67
871.006	290.52
871.387	309.24
871.768	323.29
872.149	377.12
872.53	302.22
872.911	299.88
873.292	285.84
873.673	288.18
874.054	302.22
874.435	302.22
874.815	332.65
875.196	349.03
875.577	234.35
875.957	278.82
876.338	320.95
876.718	311.58
877.098	325.63
877.479	248.39
877.859	351.37
878.239	292.86
878.619	274.14
878.999	360.74
879.379	269.45
879.759	349.03
880.139	316.26
880.519	255.41
880.898	283.5
881.278	267.11
881.658	278.82
882.037	313.92
882.417	311.58
882.796	363.08
883.176	302.22
883.555	374.78
883.934	339.67
884.313	358.39
884.693	281.16
885.072	358.39
885.451	327.97
885.83	288.18
886.209	363.08
886.587	342.01
886.966	269.45
887.345	327.97
887.724	285.84
888.102	299.88
888.481	236.69
888.859	342.01
889.238	281.16
889.616	264.77
889.994	257.75
890.373	288.18
890.751	250.73
891.129	318.61
891.507	344.35
891.885	330.31
892.263	351.37
892.641	299.88
893.019	309.24
893.396	318.61
893.774	274.14
894.152	306.9
894.529	257.75
894.907	304.56
895.284	356.05
895.662	353.71
896.039	299.88
896.416	353.71
896.794	311.58
897.171	327.97
897.548	327.97
897.925	309.24
898.302	299.88
898.679	297.54
899.056	276.48
899.433	323.29
899.809	271.79
900.186	276.48
900.563	332.65
900.939	306.9
901.316	349.03
901.692	323.29
902.069	339.67
902.445	325.63
902.821	295.2
903.197	297.54
903.574	344.35
903.95	311.58
904.326	351.37
904.702	344.35
905.078	285.84
905.454	346.69
905.829	297.54
906.205	349.03
906.581	318.61
906.956	316.26
907.332	332.65
907.707	342.01
908.083	288.18
908.458	318.61
908.833	318.61
909.209	353.71
909.584	306.9
909.959	271.79
910.334	416.91
910.709	351.37
911.084	309.24
911.459	351.37
911.834	309.24
912.209	241.37
912.583	349.03
912.958	374.78
913.333	344.35
913.707	388.82
914.082	346.69
914.456	278.82
914.83	299.88
915.205	281.16
915.579	400.52
915.953	304.56
916.327	281.16
916.701	332.65
917.075	304.56
917.449	365.42
917.823	381.8
918.197	309.24
918.571	302.22
918.944	283.5
919.318	271.79
919.692	346.69
920.065	313.92
920.438	250.73
920.812	297.54
921.185	271.79
921.558	290.52
921.932	353.71
922.305	309.24
922.678	281.16
923.051	313.92
923.424	309.24
923.797	290.52
924.17	295.2
924.542	309.24
924.915	302.22
925.288	374.78
925.661	356.05
926.033	339.67
926.406	313.92
926.778	264.77
927.15	323.29
927.523	318.61
927.895	255.41
928.267	306.9
928.639	372.44
929.011	297.54
929.383	295.2
929.755	316.26
930.127	374.78
930.499	318.61
930.871	337.33
931.242	283.5
931.614	318.61
931.986	337.33
932.357	374.78
932.729	271.79
933.1	386.48
933.471	248.39
933.843	309.24
934.214	318.61
934.585	295.2
934.956	339.67
935.327	297.54
935.698	342.01
936.069	318.61
936.44	330.31
936.811	334.99
937.182	248.39
937.552	330.31
937.923	374.78
938.293	269.45
938.664	332.65
939.034	353.71
939.405	367.76
939.775	224.98
940.145	299.88
940.516	320.95
940.886	327.97
941.256	330.31
941.626	285.84
941.996	356.05
942.366	311.58
942.735	384.14
943.105	311.58
943.475	260.09
943.845	262.43
944.214	339.67
944.584	295.2
944.953	302.22
945.323	342.01
945.692	281.16
946.061	316.26
946.43	264.77
946.8	260.09
947.169	269.45
947.538	313.92
947.907	332.65
948.276	325.63
948.645	262.43
949.013	318.61
949.382	339.67
949.751	260.09
950.119	290.52
950.488	337.33
950.857	332.65
951.225	283.5
951.593	351.37
951.962	346.69
952.33	327.97
952.698	292.86
953.066	339.67
953.434	316.26
953.802	332.65
954.17	323.29
954.538	334.99
954.906	344.35
955.274	309.24
955.642	353.71
956.009	292.86
956.377	318.61
956.744	332.65
957.112	370.1
957.479	257.75
957.847	269.45
958.214	290.52
958.581	311.58
958.948	395.84
959.315	330.31
959.683	267.11
960.05	285.84
960.416	358.39
960.783	269.45
961.15	292.86
961.517	288.18
961.884	344.35
962.25	344.35
962.617	337.33
962.983	311.58
963.35	285.84
963.716	281.16
964.082	351.37
964.449	327.97
964.815	377.12
965.181	316.26
965.547	257.75
965.913	339.67
966.279	295.2
966.645	278.82
967.011	295.2
967.377	320.95
967.742	344.35
968.108	316.26
968.474	271.79
968.839	274.14
969.205	269.45
969.57	267.11
969.935	271.79
970.301	351.37
970.666	316.26
971.031	360.74
971.396	283.5
971.761	281.16
972.126	306.9
972.491	257.75
972.856	292.86
973.221	302.22
973.586	248.39
973.95	327.97
974.315	302.22
974.679	358.39
975.044	316.26
975.408	344.35
975.773	290.52
976.137	302.22
976.501	358.39
976.866	360.74
977.23	281.16
977.594	239.03
977.958	189.88
978.322	264.77
978.686	292.86
979.049	304.56
979.413	278.82
979.777	306.9
980.141	292.86
980.504	334.99
980.868	311.58
981.231	295.2
981.595	346.69
981.958	311.58
982.321	318.61
982.684	297.54
983.048	278.82
983.411	239.03
983.774	358.39
984.137	257.75
984.5	313.92
984.862	379.46
985.225	302.22
985.588	334.99
985.951	278.82
986.313	330.31
986.676	363.08
987.038	269.45
987.401	342.01
987.763	323.29
988.125	250.73
988.488	374.78
988.85	257.75
989.212	344.35
989.574	288.18
989.936	299.88
990.298	304.56
990.66	334.99
991.022	388.82
991.383	276.48
991.745	323.29
992.107	311.58
992.468	262.43
992.83	306.9
993.191	334.99
993.553	283.5
993.914	302.22
994.275	356.05
994.637	299.88
994.998	299.88
995.359	297.54
995.72	274.14
996.081	299.88
996.442	323.29
996.803	374.78
997.163	299.88
997.524	288.18
997.885	295.2
998.245	255.41
998.606	299.88
998.966	276.48
999.327	262.43
999.687	330.31
1000.047	269.45
1000.408	313.92
1000.768	349.03
1001.128	267.11
1001.488	302.22
1001.848	313.92
1002.208	250.73
1002.568	311.58
1002.927	292.86
1003.287	288.18
1003.647	395.84
1004.007	318.61
1004.366	292.86
1004.726	283.5
1005.085	318.61
1005.444	292.86
1005.804	332.65
1006.163	330.31
1006.522	278.82
1006.881	271.79
1007.24	367.76
1007.599	311.58
1007.958	302.22
1008.317	304.56
1008.676	271.79
1009.035	302.22
1009.393	363.08
1009.752	288.18
1010.111	264.77
1010.469	327.97
1010.828	278.82
1011.186	262.43
1011.544	337.33
1011.903	320.95
1012.261	304.56
1012.619	318.61
1012.977	290.52
1013.335	299.88
1013.693	250.73
1014.051	236.69
1014.409	285.84
1014.767	323.29
1015.124	356.05
1015.482	304.56
1015.84	283.5
1016.197	269.45
1016.555	311.58
1016.912	318.61
1017.269	320.95
1017.627	363.08
1017.984	309.24
1018.341	363.08
1018.698	356.05
1019.055	274.14
1019.412	299.88
1019.769	342.01
1020.126	257.75
1020.483	318.61
1020.84	302.22
1021.196	323.29
1021.553	297.54
1021.909	302.22
1022.266	304.56
1022.622	264.77
1022.979	330.31
1023.335	299.88
1023.691	316.26
1024.047	363.08
1024.404	306.9
1024.76	311.58
1025.116	360.74
1025.472	304.56
1025.827	262.43
1026.183	370.1
1026.539	334.99
1026.895	283.5
1027.25	297.54
1027.606	304.56
1027.961	316.26
1028.317	299.88
1028.672	391.16
1029.028	346.69
1029.383	250.73
1029.738	253.07
1030.093	234.35
1030.448	304.56
1030.803	299.88
1031.158	313.92
1031.513	304.56
1031.868	295.2
1032.223	260.09
1032.577	342.01
1032.932	320.95
1033.287	283.5
1033.641	339.67
1033.996	299.88
1034.35	311.58
1034.704	349.03
1035.059	283.5
1035.413	311.58
1035.767	311.58
1036.121	311.58
