Data from Al_FLMS009871__829__15-30-06-796.txt Node

Date: Fri Mar 08 15:30:06 CST 2024
User: pe5414po
Spectrometer: FLMS00987
Trigger mode: 0
Integration Time (sec): 1.000000E-1
Scans to average: 1
Electric dark correction enabled: true
Nonlinearity correction enabled: false
Boxcar width: 0
XAxis mode: Wavelengths
Number of Pixels in Spectrum: 2048
>>>>>Begin Spectral Data<<<<<
188.938	-49.74
189.409	-49.74
189.879	-49.74
190.349	-117.61
190.819	-119.95
191.29	-162.08
191.76	-70.8
192.23	-89.53
192.7	-94.21
193.17	-84.84
193.64	-40.37
194.109	-9.95
194.579	-9.95
195.049	11.12
195.519	15.8
195.988	-7.61
196.458	29.84
196.927	132.83
197.397	93.04
197.866	128.14
198.336	158.57
198.805	158.57
199.274	224.11
199.744	179.64
200.213	174.96
200.682	174.96
201.151	217.08
201.62	240.49
202.089	228.79
202.558	207.72
203.027	207.72
203.495	261.55
203.964	306.03
204.433	256.87
204.902	238.15
205.37	261.55
205.839	329.43
206.307	306.03
206.776	275.6
207.244	299
207.712	277.94
208.181	242.83
208.649	259.21
209.117	228.79
209.585	320.07
210.053	240.49
210.521	254.53
210.989	263.9
211.457	284.96
211.925	294.32
212.393	268.58
212.861	275.6
213.328	270.92
213.796	355.18
214.264	252.19
214.731	301.34
215.199	261.55
215.666	291.98
216.133	282.62
216.601	315.39
217.068	261.55
217.535	306.03
218.003	275.6
218.47	270.92
218.937	245.17
219.404	221.77
219.871	249.85
220.338	247.51
220.805	282.62
221.271	284.96
221.738	240.49
222.205	291.98
222.671	289.64
223.138	275.6
223.605	233.47
224.071	235.81
224.538	280.28
225.004	277.94
225.47	303.68
225.937	240.49
226.403	313.05
226.869	245.17
227.335	296.66
227.801	308.37
228.267	268.58
228.733	294.32
229.199	336.45
229.665	231.13
230.131	282.62
230.597	282.62
231.062	242.83
231.528	259.21
231.994	296.66
232.459	256.87
232.925	308.37
233.39	352.84
233.856	296.66
234.321	221.77
234.786	289.64
235.252	338.79
235.717	291.98
236.182	291.98
236.647	277.94
237.112	263.9
237.577	266.24
238.042	299
238.507	299
238.972	306.03
239.436	303.68
239.901	284.96
240.366	263.9
240.83	221.77
241.295	310.71
241.76	355.18
242.224	299
242.688	299
243.153	263.9
243.617	275.6
244.081	268.58
244.545	198.36
245.01	273.26
245.474	308.37
245.938	355.18
246.402	334.11
246.866	224.11
247.33	341.13
247.793	254.53
248.257	329.43
248.721	296.66
249.185	287.3
249.648	317.73
250.112	280.28
250.575	289.64
251.039	249.85
251.502	320.07
251.965	315.39
252.429	245.17
252.892	296.66
253.355	268.58
253.818	252.19
254.281	273.26
254.744	266.24
255.207	338.79
255.67	291.98
256.133	259.21
256.596	280.28
257.059	266.24
257.522	280.28
257.984	327.09
258.447	296.66
258.909	315.39
259.372	308.37
259.834	315.39
260.297	301.34
260.759	310.71
261.221	245.17
261.684	362.2
262.146	282.62
262.608	308.37
263.07	261.55
263.532	266.24
263.994	324.75
264.456	345.81
264.918	277.94
265.38	287.3
265.842	284.96
266.303	334.11
266.765	287.3
267.227	348.15
267.688	320.07
268.15	266.24
268.611	324.75
269.072	310.71
269.534	313.05
269.995	247.51
270.456	308.37
270.918	315.39
271.379	364.54
271.84	327.09
272.301	303.68
272.762	240.49
273.223	291.98
273.684	329.43
274.144	273.26
274.605	294.32
275.066	371.56
275.527	284.96
275.987	270.92
276.448	331.77
276.908	247.51
277.369	320.07
277.829	289.64
278.289	287.3
278.75	345.81
279.21	313.05
279.67	322.41
280.13	287.3
280.59	306.03
281.05	268.58
281.51	327.09
281.97	256.87
282.43	334.11
282.89	338.79
283.35	352.84
283.809	301.34
284.269	317.73
284.729	366.88
285.188	289.64
285.648	291.98
286.107	308.37
286.567	249.85
287.026	341.13
287.485	343.47
287.944	308.37
288.404	277.94
288.863	352.84
289.322	270.92
289.781	277.94
290.24	263.9
290.699	287.3
291.158	287.3
291.616	320.07
292.075	296.66
292.534	322.41
292.992	296.66
293.451	277.94
293.91	327.09
294.368	306.03
294.827	373.9
295.285	277.94
295.743	306.03
296.202	296.66
296.66	329.43
297.118	291.98
297.576	320.07
298.034	291.98
298.492	296.66
298.95	247.51
299.408	284.96
299.866	284.96
300.324	205.38
300.781	282.62
301.239	266.24
301.697	228.79
302.154	284.96
302.612	315.39
303.069	364.54
303.527	294.32
303.984	364.54
304.441	256.87
304.899	338.79
305.356	263.9
305.813	275.6
306.27	254.53
306.727	261.55
307.184	299
307.641	280.28
308.098	313.05
308.555	252.19
309.012	357.52
309.468	282.62
309.925	296.66
310.382	289.64
310.838	273.26
311.295	247.51
311.751	280.28
312.208	310.71
312.664	287.3
313.12	308.37
313.577	303.68
314.033	291.98
314.489	299
314.945	338.79
315.401	287.3
315.857	331.77
316.313	350.5
316.769	277.94
317.225	280.28
317.681	277.94
318.136	299
318.592	322.41
319.048	296.66
319.503	291.98
319.959	329.43
320.414	306.03
320.869	294.32
321.325	296.66
321.78	275.6
322.235	322.41
322.691	324.75
323.146	294.32
323.601	301.34
324.056	261.55
324.511	313.05
324.966	282.62
325.421	280.28
325.875	327.09
326.33	310.71
326.785	350.5
327.24	308.37
327.694	362.2
328.149	366.88
328.603	299
329.058	238.15
329.512	277.94
329.966	273.26
330.421	313.05
330.875	235.81
331.329	299
331.783	343.47
332.237	350.5
332.691	341.13
333.145	275.6
333.599	301.34
334.053	301.34
334.507	247.51
334.96	266.24
335.414	341.13
335.868	355.18
336.321	313.05
336.775	252.19
337.228	238.15
337.682	308.37
338.135	329.43
338.588	294.32
339.042	315.39
339.495	317.73
339.948	352.84
340.401	387.94
340.854	299
341.307	315.39
341.76	362.2
342.213	310.71
342.666	299
343.119	315.39
343.571	338.79
344.024	338.79
344.477	359.86
344.929	366.88
345.382	348.15
345.834	373.9
346.287	322.41
346.739	289.64
347.191	327.09
347.644	280.28
348.096	306.03
348.548	341.13
349	310.71
349.452	334.11
349.904	306.03
350.356	296.66
350.808	284.96
351.26	303.68
351.711	287.3
352.163	315.39
352.615	357.52
353.066	247.51
353.518	275.6
353.969	277.94
354.421	343.47
354.872	284.96
355.324	350.5
355.775	336.45
356.226	282.62
356.677	306.03
357.128	275.6
357.579	299
358.03	291.98
358.481	327.09
358.932	277.94
359.383	341.13
359.834	334.11
360.285	308.37
360.735	306.03
361.186	268.58
361.637	284.96
362.087	259.21
362.538	329.43
362.988	277.94
363.438	306.03
363.889	308.37
364.339	324.75
364.789	322.41
365.239	334.11
365.689	329.43
366.139	366.88
366.589	287.3
367.039	327.09
367.489	287.3
367.939	308.37
368.389	401.99
368.839	310.71
369.288	338.79
369.738	301.34
370.187	273.26
370.637	324.75
371.086	284.96
371.536	327.09
371.985	284.96
372.434	317.73
372.884	306.03
373.333	397.31
373.782	287.3
374.231	284.96
374.68	362.2
375.129	245.17
375.578	327.09
376.027	338.79
376.475	294.32
376.924	315.39
377.373	327.09
377.822	376.24
378.27	303.68
378.719	252.19
379.167	362.2
379.616	324.75
380.064	266.24
380.512	336.45
380.961	338.79
381.409	306.03
381.857	315.39
382.305	364.54
382.753	282.62
383.201	313.05
383.649	338.79
384.097	334.11
384.545	306.03
384.992	345.81
385.44	336.45
385.888	317.73
386.335	310.71
386.783	310.71
387.231	324.75
387.678	329.43
388.125	315.39
388.573	303.68
389.02	355.18
389.467	268.58
389.914	308.37
390.362	348.15
390.809	299
391.256	315.39
391.703	329.43
392.15	362.2
392.596	392.62
393.043	287.3
393.49	306.03
393.937	299
394.383	306.03
394.83	324.75
395.276	301.34
395.723	320.07
396.169	287.3
396.616	352.84
397.062	385.6
397.508	256.87
397.954	355.18
398.401	343.47
398.847	334.11
399.293	331.77
399.739	280.28
400.185	343.47
400.631	254.53
401.076	254.53
401.522	331.77
401.968	348.15
402.414	320.07
402.859	317.73
403.305	331.77
403.75	341.13
404.196	341.13
404.641	313.05
405.086	334.11
405.532	373.9
405.977	303.68
406.422	345.81
406.867	350.5
407.312	287.3
407.757	282.62
408.202	289.64
408.647	324.75
409.092	299
409.537	310.71
409.982	322.41
410.426	301.34
410.871	343.47
411.316	324.75
411.76	313.05
412.205	341.13
412.649	327.09
413.093	291.98
413.538	310.71
413.982	317.73
414.426	256.87
414.87	334.11
415.314	280.28
415.758	350.5
416.202	235.81
416.646	327.09
417.09	296.66
417.534	296.66
417.978	299
418.421	284.96
418.865	362.2
419.309	240.49
419.752	287.3
420.196	324.75
420.639	355.18
421.083	315.39
421.526	329.43
421.969	352.84
422.412	385.6
422.856	329.43
423.299	301.34
423.742	341.13
424.185	320.07
424.628	299
425.071	294.32
425.513	322.41
425.956	336.45
426.399	359.86
426.842	324.75
427.284	336.45
427.727	331.77
428.169	306.03
428.612	322.41
429.054	273.26
429.497	343.47
429.939	313.05
430.381	357.52
430.823	294.32
431.265	224.11
431.707	301.34
432.149	308.37
432.591	341.13
433.033	345.81
433.475	254.53
433.917	369.22
434.359	343.47
434.8	303.68
435.242	291.98
435.684	256.87
436.125	294.32
436.567	352.84
437.008	303.68
437.449	322.41
437.891	341.13
438.332	345.81
438.773	329.43
439.214	294.32
439.656	322.41
440.097	331.77
440.538	390.28
440.978	355.18
441.419	266.24
441.86	308.37
442.301	289.64
442.742	315.39
443.182	324.75
443.623	359.86
444.063	282.62
444.504	320.07
444.944	310.71
445.385	362.2
445.825	294.32
446.265	299
446.706	331.77
447.146	313.05
447.586	306.03
448.026	383.26
448.466	310.71
448.906	303.68
449.346	317.73
449.786	348.15
450.225	306.03
450.665	299
451.105	303.68
451.544	329.43
451.984	322.41
452.424	343.47
452.863	357.52
453.302	327.09
453.742	420.71
454.181	299
454.62	291.98
455.059	345.81
455.499	301.34
455.938	287.3
456.377	306.03
456.816	378.58
457.254	263.9
457.693	355.18
458.132	320.07
458.571	324.75
459.01	303.68
459.448	275.6
459.887	315.39
460.325	406.67
460.764	320.07
461.202	327.09
461.641	289.64
462.079	315.39
462.517	322.41
462.955	308.37
463.393	282.62
463.832	334.11
464.27	324.75
464.708	313.05
465.145	268.58
465.583	299
466.021	338.79
466.459	329.43
466.897	327.09
467.334	254.53
467.772	320.07
468.209	392.62
468.647	373.9
469.084	301.34
469.522	331.77
469.959	359.86
470.396	254.53
470.833	357.52
471.271	345.81
471.708	233.47
472.145	345.81
472.582	359.86
473.019	364.54
473.456	343.47
473.892	282.62
474.329	310.71
474.766	359.86
475.202	338.79
475.639	320.07
476.076	270.92
476.512	284.96
476.949	341.13
477.385	341.13
477.821	294.32
478.258	306.03
478.694	341.13
479.13	308.37
479.566	317.73
480.002	341.13
480.438	226.45
480.874	355.18
481.31	343.47
481.746	287.3
482.181	345.81
482.617	369.22
483.053	385.6
483.488	329.43
483.924	352.84
484.36	343.47
484.795	341.13
485.23	322.41
485.666	308.37
486.101	329.43
486.536	301.34
486.971	327.09
487.407	284.96
487.842	352.84
488.277	284.96
488.712	327.09
489.146	348.15
489.581	341.13
490.016	334.11
490.451	331.77
490.885	259.21
491.32	308.37
491.755	284.96
492.189	259.21
492.624	327.09
493.058	371.56
493.492	324.75
493.927	355.18
494.361	329.43
494.795	296.66
495.229	320.07
495.663	385.6
496.097	320.07
496.531	256.87
496.965	310.71
497.399	280.28
497.833	336.45
498.266	355.18
498.7	336.45
499.134	303.68
499.567	376.24
500.001	282.62
500.434	334.11
500.868	366.88
501.301	350.5
501.734	294.32
502.168	275.6
502.601	296.66
503.034	313.05
503.467	406.67
503.9	317.73
504.333	331.77
504.766	296.66
505.199	341.13
505.632	345.81
506.064	291.98
506.497	341.13
506.93	352.84
507.362	336.45
507.795	362.2
508.227	331.77
508.66	270.92
509.092	352.84
509.524	240.49
509.956	296.66
510.389	284.96
510.821	348.15
511.253	324.75
511.685	301.34
512.117	277.94
512.549	322.41
512.981	303.68
513.412	301.34
513.844	387.94
514.276	352.84
514.707	364.54
515.139	345.81
515.571	280.28
516.002	303.68
516.433	310.71
516.865	306.03
517.296	324.75
517.727	334.11
518.159	294.32
518.59	294.32
519.021	352.84
519.452	385.6
519.883	296.66
520.314	289.64
520.744	294.32
521.175	357.52
521.606	336.45
522.037	352.84
522.467	291.98
522.898	308.37
523.328	387.94
523.759	343.47
524.189	324.75
524.62	355.18
525.05	329.43
525.48	373.9
525.91	362.2
526.341	338.79
526.771	324.75
527.201	345.81
527.631	390.28
528.061	362.2
528.49	294.32
528.92	329.43
529.35	221.77
529.78	301.34
530.209	320.07
530.639	327.09
531.068	350.5
531.498	259.21
531.927	313.05
532.357	378.58
532.786	352.84
533.215	336.45
533.644	310.71
534.074	345.81
534.503	383.26
534.932	320.07
535.361	348.15
535.79	341.13
536.218	301.34
536.647	273.26
537.076	317.73
537.505	350.5
537.933	289.64
538.362	383.26
538.79	359.86
539.219	413.69
539.647	378.58
540.076	385.6
540.504	301.34
540.932	327.09
541.36	299
541.788	294.32
542.217	275.6
542.645	308.37
543.073	301.34
543.5	366.88
543.928	303.68
544.356	275.6
544.784	306.03
545.211	299
545.639	359.86
546.067	331.77
546.494	289.64
546.922	348.15
547.349	324.75
547.776	303.68
548.204	284.96
548.631	268.58
549.058	289.64
549.485	282.62
549.912	350.5
550.339	261.55
550.766	343.47
551.193	310.71
551.62	355.18
552.047	303.68
552.474	320.07
552.9	310.71
553.327	336.45
553.754	338.79
554.18	317.73
554.607	355.18
555.033	350.5
555.459	315.39
555.886	303.68
556.312	310.71
556.738	380.92
557.164	345.81
557.59	329.43
558.016	313.05
558.442	317.73
558.868	273.26
559.294	352.84
559.72	397.31
560.145	270.92
560.571	291.98
560.997	331.77
561.422	334.11
561.848	331.77
562.273	371.56
562.699	252.19
563.124	350.5
563.549	259.21
563.974	303.68
564.4	338.79
564.825	301.34
565.25	364.54
565.675	273.26
566.1	350.5
566.525	308.37
566.95	303.68
567.374	315.39
567.799	284.96
568.224	359.86
568.648	352.84
569.073	308.37
569.497	268.58
569.922	355.18
570.346	378.58
570.771	301.34
571.195	301.34
571.619	315.39
572.043	310.71
572.467	294.32
572.891	284.96
573.315	308.37
573.739	348.15
574.163	289.64
574.587	373.9
575.011	387.94
575.435	348.15
575.858	331.77
576.282	338.79
576.705	352.84
577.129	345.81
577.552	331.77
577.976	294.32
578.399	252.19
578.822	324.75
579.245	376.24
579.669	317.73
580.092	336.45
580.515	334.11
580.938	324.75
581.361	406.67
581.784	273.26
582.206	362.2
582.629	371.56
583.052	357.52
583.474	289.64
583.897	369.22
584.32	329.43
584.742	287.3
585.165	308.37
585.587	329.43
586.009	280.28
586.431	355.18
586.854	329.43
587.276	352.84
587.698	294.32
588.12	315.39
588.542	329.43
588.964	303.68
589.386	291.98
589.807	299
590.229	320.07
590.651	289.64
591.073	289.64
591.494	341.13
591.916	240.49
592.337	350.5
592.759	310.71
593.18	306.03
593.601	303.68
594.022	329.43
594.444	317.73
594.865	350.5
595.286	282.62
595.707	313.05
596.128	313.05
596.549	320.07
596.97	299
597.39	336.45
597.811	345.81
598.232	313.05
598.652	261.55
599.073	315.39
599.494	291.98
599.914	306.03
600.334	247.51
600.755	320.07
601.175	329.43
601.595	336.45
602.015	273.26
602.436	341.13
602.856	444.12
603.276	313.05
603.696	329.43
604.115	284.96
604.535	266.24
604.955	383.26
605.375	294.32
605.794	387.94
606.214	252.19
606.634	373.9
607.053	306.03
607.473	317.73
607.892	284.96
608.311	301.34
608.731	320.07
609.15	404.33
609.569	352.84
609.988	322.41
610.407	364.54
610.826	280.28
611.245	322.41
611.664	357.52
612.083	392.62
612.501	338.79
612.92	301.34
613.339	294.32
613.757	322.41
614.176	362.2
614.594	416.03
615.013	313.05
615.431	369.22
615.85	317.73
616.268	268.58
616.686	294.32
617.104	401.99
617.522	383.26
617.94	352.84
618.358	254.53
618.776	252.19
619.194	282.62
619.612	352.84
620.03	217.08
620.447	284.96
620.865	259.21
621.282	294.32
621.7	376.24
622.117	350.5
622.535	299
622.952	310.71
623.369	308.37
623.787	350.5
624.204	341.13
624.621	371.56
625.038	373.9
625.455	371.56
625.872	313.05
626.289	313.05
626.706	338.79
627.123	231.13
627.539	324.75
627.956	322.41
628.373	336.45
628.789	373.9
629.206	296.66
629.622	291.98
630.038	331.77
630.455	366.88
630.871	235.81
631.287	306.03
631.703	327.09
632.12	313.05
632.536	299
632.952	327.09
633.368	301.34
633.783	338.79
634.199	336.45
634.615	324.75
635.031	352.84
635.446	270.92
635.862	308.37
636.277	324.75
636.693	343.47
637.108	273.26
637.524	357.52
637.939	282.62
638.354	268.58
638.77	306.03
639.185	336.45
639.6	317.73
640.015	322.41
640.43	259.21
640.845	296.66
641.259	338.79
641.674	310.71
642.089	294.32
642.504	348.15
642.918	287.3
643.333	369.22
643.747	252.19
644.162	280.28
644.576	313.05
644.991	291.98
645.405	387.94
645.819	348.15
646.233	324.75
646.647	317.73
647.061	327.09
647.475	261.55
647.889	373.9
648.303	315.39
648.717	310.71
649.131	287.3
649.545	357.52
649.958	348.15
650.372	310.71
650.785	299
651.199	324.75
651.612	294.32
652.026	299
652.439	303.68
652.852	296.66
653.266	291.98
653.679	350.5
654.092	380.92
654.505	355.18
654.918	320.07
655.331	317.73
655.744	401.99
656.156	352.84
656.569	376.24
656.982	322.41
657.394	376.24
657.807	315.39
658.22	310.71
658.632	289.64
659.044	284.96
659.457	336.45
659.869	362.2
660.281	327.09
660.693	263.9
661.106	387.94
661.518	306.03
661.93	324.75
662.342	324.75
662.754	284.96
663.165	341.13
663.577	334.11
663.989	320.07
664.401	366.88
664.812	313.05
665.224	336.45
665.635	277.94
666.047	345.81
666.458	280.28
666.869	308.37
667.281	329.43
667.692	334.11
668.103	306.03
668.514	296.66
668.925	282.62
669.336	345.81
669.747	277.94
670.158	324.75
670.569	320.07
670.979	289.64
671.39	315.39
671.801	296.66
672.211	343.47
672.622	313.05
673.032	301.34
673.443	338.79
673.853	315.39
674.263	277.94
674.674	336.45
675.084	308.37
675.494	303.68
675.904	273.26
676.314	268.58
676.724	320.07
677.134	310.71
677.544	289.64
677.953	261.55
678.363	291.98
678.773	266.24
679.182	280.28
679.592	324.75
680.001	338.79
680.411	256.87
680.82	327.09
681.23	329.43
681.639	390.28
682.048	327.09
682.457	299
682.866	259.21
683.275	270.92
683.684	380.92
684.093	291.98
684.502	352.84
684.911	324.75
685.32	282.62
685.728	376.24
686.137	341.13
686.546	338.79
686.954	306.03
687.363	322.41
687.771	327.09
688.179	350.5
688.588	345.81
688.996	282.62
689.404	308.37
689.812	329.43
690.22	341.13
690.628	315.39
691.036	275.6
691.444	287.3
691.852	294.32
692.26	313.05
692.667	348.15
693.075	345.81
693.483	273.26
693.89	284.96
694.298	341.13
694.705	345.81
695.112	362.2
695.52	303.68
695.927	355.18
696.334	322.41
696.741	315.39
697.148	306.03
697.555	299
697.962	418.37
698.369	336.45
698.776	334.11
699.183	273.26
699.59	310.71
699.996	310.71
700.403	324.75
700.81	343.47
701.216	266.24
701.623	252.19
702.029	299
702.435	338.79
702.842	329.43
703.248	299
703.654	259.21
704.06	287.3
704.466	313.05
704.872	219.43
705.278	343.47
705.684	343.47
706.09	320.07
706.496	327.09
706.901	275.6
707.307	404.33
707.712	376.24
708.118	308.37
708.523	343.47
708.929	327.09
709.334	317.73
709.74	355.18
710.145	338.79
710.55	385.6
710.955	263.9
711.36	320.07
711.765	324.75
712.17	294.32
712.575	308.37
712.98	813.92
713.385	345.81
713.789	343.47
714.194	247.51
714.599	287.3
715.003	320.07
715.408	348.15
715.812	324.75
716.217	284.96
716.621	362.2
717.025	364.54
717.429	308.37
717.833	287.3
718.238	416.03
718.642	291.98
719.046	315.39
719.449	315.39
719.853	362.2
720.257	294.32
720.661	336.45
721.065	320.07
721.468	306.03
721.872	348.15
722.275	289.64
722.679	273.26
723.082	327.09
723.485	329.43
723.889	308.37
724.292	310.71
724.695	294.32
725.098	301.34
725.501	308.37
725.904	320.07
726.307	270.92
726.71	266.24
727.113	327.09
727.516	277.94
727.918	238.15
728.321	409.01
728.724	345.81
729.126	324.75
729.529	338.79
729.931	411.35
730.333	306.03
730.736	343.47
731.138	296.66
731.54	317.73
731.942	306.03
732.344	380.92
732.746	324.75
733.148	306.03
733.55	301.34
733.952	380.92
734.354	324.75
734.756	320.07
735.157	287.3
735.559	280.28
735.96	409.01
736.362	385.6
736.763	284.96
737.165	273.26
737.566	348.15
737.967	296.66
738.368	345.81
738.77	331.77
739.171	303.68
739.572	261.55
739.973	329.43
740.374	329.43
740.774	313.05
741.175	256.87
741.576	282.62
741.977	303.68
742.377	355.18
742.778	359.86
743.178	284.96
743.579	275.6
743.979	359.86
744.379	320.07
744.78	392.62
745.18	289.64
745.58	308.37
745.98	336.45
746.38	247.51
746.78	277.94
747.18	268.58
747.58	291.98
747.98	306.03
748.38	350.5
748.779	291.98
749.179	348.15
749.578	317.73
749.978	245.17
750.377	331.77
750.777	256.87
751.176	327.09
751.575	282.62
751.975	313.05
752.374	336.45
752.773	350.5
753.172	301.34
753.571	299
753.97	336.45
754.369	306.03
754.768	313.05
755.166	317.73
755.565	338.79
755.964	310.71
756.362	320.07
756.761	359.86
757.159	352.84
757.558	359.86
757.956	299
758.354	355.18
758.753	331.77
759.151	357.52
759.549	336.45
759.947	287.3
760.345	357.52
760.743	228.79
761.141	378.58
761.539	310.71
761.936	348.15
762.334	294.32
762.732	327.09
763.129	280.28
763.527	345.81
763.924	378.58
764.322	280.28
764.719	310.71
765.117	296.66
765.514	329.43
765.911	308.37
766.308	310.71
766.705	317.73
767.102	366.88
767.499	322.41
767.896	362.2
768.293	303.68
768.69	306.03
769.086	322.41
769.483	355.18
769.88	296.66
770.276	350.5
770.673	301.34
771.069	322.41
771.466	277.94
771.862	380.92
772.258	299
772.654	270.92
773.05	322.41
773.447	287.3
773.843	343.47
774.239	343.47
774.634	315.39
775.03	373.9
775.426	343.47
775.822	287.3
776.218	263.9
776.613	282.62
777.009	310.71
777.404	352.84
777.8	324.75
778.195	308.37
778.59	275.6
778.986	266.24
779.381	324.75
779.776	296.66
780.171	259.21
780.566	327.09
780.961	289.64
781.356	366.88
781.751	399.65
782.146	301.34
782.54	282.62
782.935	287.3
783.33	303.68
783.724	310.71
784.119	341.13
784.513	303.68
784.908	277.94
785.302	345.81
785.696	299
786.09	345.81
786.485	270.92
786.879	296.66
787.273	315.39
787.667	324.75
788.061	310.71
788.454	306.03
788.848	334.11
789.242	291.98
789.636	282.62
790.029	345.81
790.423	291.98
790.816	277.94
791.21	303.68
791.603	331.77
791.997	291.98
792.39	313.05
792.783	334.11
793.176	294.32
793.569	224.11
793.962	345.81
794.355	252.19
794.748	320.07
795.141	303.68
795.534	226.45
795.927	245.17
796.319	291.98
796.712	336.45
797.105	294.32
797.497	359.86
797.89	284.96
798.282	299
798.674	329.43
799.067	331.77
799.459	252.19
799.851	308.37
800.243	357.52
800.635	280.28
801.027	331.77
801.419	277.94
801.811	329.43
802.203	327.09
802.594	329.43
802.986	317.73
803.378	315.39
803.769	336.45
804.161	306.03
804.552	294.32
804.944	320.07
805.335	371.56
805.726	329.43
806.118	338.79
806.509	308.37
806.9	317.73
807.291	320.07
807.682	322.41
808.073	284.96
808.464	324.75
808.855	348.15
809.245	331.77
809.636	364.54
810.027	345.81
810.417	324.75
810.808	345.81
811.198	327.09
811.589	324.75
811.979	273.26
812.369	315.39
812.759	329.43
813.15	352.84
813.54	315.39
813.93	341.13
814.32	329.43
814.71	303.68
815.1	301.34
815.489	324.75
815.879	350.5
816.269	345.81
816.658	345.81
817.048	355.18
817.438	282.62
817.827	331.77
818.216	291.98
818.606	334.11
818.995	306.03
819.384	275.6
819.773	322.41
820.163	303.68
820.552	315.39
820.941	385.6
821.33	308.37
821.718	317.73
822.107	238.15
822.496	273.26
822.885	280.28
823.273	315.39
823.662	320.07
824.05	345.81
824.439	247.51
824.827	296.66
825.216	310.71
825.604	317.73
825.992	315.39
826.38	364.54
826.768	352.84
827.156	317.73
827.544	287.3
827.932	301.34
828.32	296.66
828.708	362.2
829.096	352.84
829.483	366.88
829.871	317.73
830.259	310.71
830.646	245.17
831.034	315.39
831.421	303.68
831.808	296.66
832.196	331.77
832.583	294.32
832.97	324.75
833.357	317.73
833.744	418.37
834.131	317.73
834.518	369.22
834.905	352.84
835.292	338.79
835.678	357.52
836.065	282.62
836.452	261.55
836.838	348.15
837.225	350.5
837.611	364.54
837.998	299
838.384	310.71
838.77	336.45
839.157	313.05
839.543	320.07
839.929	291.98
840.315	308.37
840.701	277.94
841.087	331.77
841.473	322.41
841.858	401.99
842.244	343.47
842.63	263.9
843.015	336.45
843.401	603.27
843.787	277.94
844.172	301.34
844.557	355.18
844.943	390.28
845.328	387.94
845.713	329.43
846.098	350.5
846.483	324.75
846.868	348.15
847.253	359.86
847.638	299
848.023	284.96
848.408	287.3
848.793	289.64
849.177	270.92
849.562	329.43
849.947	373.9
850.331	310.71
850.715	324.75
851.1	348.15
851.484	359.86
851.868	296.66
852.253	280.28
852.637	315.39
853.021	317.73
853.405	303.68
853.789	320.07
854.173	334.11
854.557	362.2
854.94	306.03
855.324	313.05
855.708	359.86
856.091	263.9
856.475	320.07
856.858	334.11
857.242	303.68
857.625	317.73
858.009	299
858.392	266.24
858.775	343.47
859.158	327.09
859.541	343.47
859.924	366.88
860.307	350.5
860.69	324.75
861.073	287.3
861.456	348.15
861.838	364.54
862.221	327.09
862.604	263.9
862.986	240.49
863.369	280.28
863.751	324.75
864.133	418.37
864.516	270.92
864.898	338.79
865.28	296.66
865.662	254.53
866.044	334.11
866.426	301.34
866.808	331.77
867.19	348.15
867.572	350.5
867.954	315.39
868.336	270.92
868.717	299
869.099	266.24
869.48	308.37
869.862	245.17
870.243	357.52
870.625	348.15
871.006	284.96
871.387	291.98
871.768	350.5
872.149	299
872.53	322.41
872.911	331.77
873.292	317.73
873.673	350.5
874.054	343.47
874.435	299
874.815	345.81
875.196	366.88
875.577	299
875.957	329.43
876.338	352.84
876.718	277.94
877.098	355.18
877.479	315.39
877.859	294.32
878.239	334.11
878.619	338.79
878.999	324.75
879.379	348.15
879.759	266.24
880.139	348.15
880.519	327.09
880.898	273.26
881.278	275.6
881.658	294.32
882.037	256.87
882.417	324.75
882.796	322.41
883.176	317.73
883.555	373.9
883.934	284.96
884.313	343.47
884.693	280.28
885.072	348.15
885.451	296.66
885.83	275.6
886.209	296.66
886.587	245.17
886.966	289.64
887.345	287.3
887.724	252.19
888.102	348.15
888.481	327.09
888.859	268.58
889.238	320.07
889.616	329.43
889.994	299
890.373	348.15
890.751	240.49
891.129	303.68
891.507	280.28
891.885	385.6
892.263	397.31
892.641	348.15
893.019	313.05
893.396	310.71
893.774	313.05
894.152	261.55
894.529	289.64
894.907	373.9
895.284	327.09
895.662	369.22
896.039	306.03
896.416	259.21
896.794	235.81
897.171	310.71
897.548	256.87
897.925	306.03
898.302	263.9
898.679	275.6
899.056	345.81
899.433	336.45
899.809	306.03
900.186	308.37
900.563	228.79
900.939	296.66
901.316	348.15
901.692	273.26
902.069	357.52
902.445	327.09
902.821	371.56
903.197	355.18
903.574	378.58
903.95	308.37
904.326	338.79
904.702	338.79
905.078	310.71
905.454	308.37
905.829	296.66
906.205	308.37
906.581	266.24
906.956	350.5
907.332	366.88
907.707	306.03
908.083	352.84
908.458	322.41
908.833	336.45
909.209	294.32
909.584	296.66
909.959	282.62
910.334	345.81
910.709	343.47
911.084	242.83
911.459	277.94
911.834	327.09
912.209	245.17
912.583	296.66
912.958	329.43
913.333	306.03
913.707	324.75
914.082	289.64
914.456	306.03
914.83	317.73
915.205	296.66
915.579	296.66
915.953	306.03
916.327	306.03
916.701	273.26
917.075	273.26
917.449	324.75
917.823	343.47
918.197	380.92
918.571	299
918.944	341.13
919.318	315.39
919.692	291.98
920.065	348.15
920.438	287.3
920.812	359.86
921.185	324.75
921.558	383.26
921.932	350.5
922.305	324.75
922.678	294.32
923.051	329.43
923.424	338.79
923.797	331.77
924.17	291.98
924.542	313.05
924.915	336.45
925.288	336.45
925.661	247.51
926.033	317.73
926.406	280.28
926.778	329.43
927.15	334.11
927.523	294.32
927.895	324.75
928.267	301.34
928.639	313.05
929.011	310.71
929.383	317.73
929.755	310.71
930.127	303.68
930.499	275.6
930.871	308.37
931.242	301.34
931.614	289.64
931.986	275.6
932.357	341.13
932.729	348.15
933.1	317.73
933.471	315.39
933.843	303.68
934.214	313.05
934.585	256.87
934.956	338.79
935.327	282.62
935.698	261.55
936.069	317.73
936.44	355.18
936.811	294.32
937.182	299
937.552	306.03
937.923	385.6
938.293	310.71
938.664	317.73
939.034	296.66
939.405	310.71
939.775	289.64
940.145	280.28
940.516	357.52
940.886	343.47
941.256	242.83
941.626	259.21
941.996	301.34
942.366	289.64
942.735	324.75
943.105	301.34
943.475	263.9
943.845	299
944.214	306.03
944.584	315.39
944.953	327.09
945.323	266.24
945.692	273.26
946.061	310.71
946.43	315.39
946.8	301.34
947.169	252.19
947.538	331.77
947.907	313.05
948.276	273.26
948.645	341.13
949.013	348.15
949.382	275.6
949.751	336.45
950.119	299
950.488	294.32
950.857	303.68
951.225	341.13
951.593	352.84
951.962	329.43
952.33	280.28
952.698	280.28
953.066	359.86
953.434	315.39
953.802	233.47
954.17	362.2
954.538	334.11
954.906	313.05
955.274	240.49
955.642	334.11
956.009	301.34
956.377	287.3
956.744	350.5
957.112	366.88
957.479	273.26
957.847	280.28
958.214	324.75
958.581	341.13
958.948	308.37
959.315	345.81
959.683	249.85
960.05	235.81
960.416	327.09
960.783	263.9
961.15	273.26
961.517	301.34
961.884	322.41
962.25	296.66
962.617	322.41
962.983	308.37
963.35	331.77
963.716	266.24
964.082	320.07
964.449	359.86
964.815	306.03
965.181	359.86
965.547	289.64
965.913	327.09
966.279	355.18
966.645	301.34
967.011	378.58
967.377	348.15
967.742	380.92
968.108	343.47
968.474	313.05
968.839	373.9
969.205	303.68
969.57	315.39
969.935	366.88
970.301	270.92
970.666	291.98
971.031	336.45
971.396	324.75
971.761	275.6
972.126	334.11
972.491	294.32
972.856	334.11
973.221	310.71
973.586	317.73
973.95	282.62
974.315	317.73
974.679	334.11
975.044	299
975.408	343.47
975.773	327.09
976.137	315.39
976.501	338.79
976.866	282.62
977.23	315.39
977.594	334.11
977.958	324.75
978.322	317.73
978.686	308.37
979.049	334.11
979.413	291.98
979.777	357.52
980.141	301.34
980.504	249.85
980.868	343.47
981.231	261.55
981.595	289.64
981.958	355.18
982.321	371.56
982.684	245.17
983.048	287.3
983.411	348.15
983.774	263.9
984.137	263.9
984.5	308.37
984.862	277.94
985.225	284.96
985.588	327.09
985.951	336.45
986.313	263.9
986.676	320.07
987.038	416.03
987.401	334.11
987.763	315.39
988.125	270.92
988.488	261.55
988.85	327.09
989.212	334.11
989.574	329.43
989.936	310.71
990.298	338.79
990.66	343.47
991.022	291.98
991.383	308.37
991.745	331.77
992.107	317.73
992.468	268.58
992.83	327.09
993.191	301.34
993.553	341.13
993.914	291.98
994.275	338.79
994.637	352.84
994.998	317.73
995.359	280.28
995.72	289.64
996.081	270.92
996.442	291.98
996.803	301.34
997.163	291.98
997.524	296.66
997.885	306.03
998.245	327.09
998.606	270.92
998.966	284.96
999.327	334.11
999.687	315.39
1000.047	259.21
1000.408	273.26
1000.768	327.09
1001.128	296.66
1001.488	334.11
1001.848	296.66
1002.208	350.5
1002.568	334.11
1002.927	259.21
1003.287	334.11
1003.647	366.88
1004.007	378.58
1004.366	352.84
1004.726	324.75
1005.085	287.3
1005.444	317.73
1005.804	345.81
1006.163	249.85
1006.522	394.97
1006.881	334.11
1007.24	320.07
1007.599	329.43
1007.958	296.66
1008.317	392.62
1008.676	320.07
1009.035	238.15
1009.393	308.37
1009.752	291.98
1010.111	296.66
1010.469	303.68
1010.828	294.32
1011.186	334.11
1011.544	308.37
1011.903	268.58
1012.261	266.24
1012.619	355.18
1012.977	315.39
1013.335	338.79
1013.693	329.43
1014.051	303.68
1014.409	315.39
1014.767	301.34
1015.124	336.45
1015.482	341.13
1015.84	294.32
1016.197	287.3
1016.555	256.87
1016.912	334.11
1017.269	313.05
1017.627	350.5
1017.984	240.49
1018.341	345.81
1018.698	254.53
1019.055	284.96
1019.412	280.28
1019.769	306.03
1020.126	343.47
1020.483	359.86
1020.84	266.24
1021.196	207.72
1021.553	343.47
1021.909	287.3
1022.266	252.19
1022.622	359.86
1022.979	392.62
1023.335	409.01
1023.691	282.62
1024.047	357.52
1024.404	331.77
1024.76	306.03
1025.116	287.3
1025.472	331.77
1025.827	284.96
1026.183	308.37
1026.539	291.98
1026.895	296.66
1027.25	266.24
1027.606	308.37
1027.961	212.4
1028.317	308.37
1028.672	324.75
1029.028	289.64
1029.383	343.47
1029.738	306.03
1030.093	287.3
1030.448	343.47
1030.803	338.79
1031.158	366.88
1031.513	301.34
1031.868	249.85
1032.223	362.2
1032.577	299
1032.932	317.73
1033.287	275.6
1033.641	240.49
1033.996	348.15
1034.35	291.98
1034.704	362.2
1035.059	317.73
1035.413	418.37
1035.767	418.37
1036.121	418.37
