Data from Al_FLMS009871__826__15-30-06-496.txt Node

Date: Fri Mar 08 15:30:06 CST 2024
User: pe5414po
Spectrometer: FLMS00987
Trigger mode: 0
Integration Time (sec): 1.000000E-1
Scans to average: 1
Electric dark correction enabled: true
Nonlinearity correction enabled: false
Boxcar width: 0
XAxis mode: Wavelengths
Number of Pixels in Spectrum: 2048
>>>>>Begin Spectral Data<<<<<
188.938	-95.82
189.409	-95.82
189.879	-95.82
190.349	-149.65
190.819	-60.71
191.29	-154.33
191.76	-79.43
192.23	-91.13
192.7	-56.03
193.17	-44.32
193.64	-2.19
194.109	-44.32
194.579	-100.5
195.049	9.51
195.519	91.43
195.988	4.83
196.458	68.02
196.927	49.3
197.397	70.36
197.866	117.17
198.336	161.64
198.805	152.28
199.274	175.69
199.744	156.96
200.213	189.73
200.682	185.05
201.151	311.44
201.62	196.75
202.089	266.97
202.558	288.03
203.027	238.88
203.495	288.03
203.964	285.69
204.433	302.08
204.902	327.82
205.37	278.67
205.839	295.05
206.307	278.67
206.776	283.35
207.244	304.42
207.712	318.46
208.181	288.03
208.649	281.01
209.117	344.21
209.585	320.8
210.053	351.23
210.521	271.65
210.989	290.37
211.457	304.42
211.925	348.89
212.393	339.52
212.861	266.97
213.328	285.69
213.796	264.63
214.264	245.9
214.731	325.48
215.199	288.03
215.666	320.8
216.133	278.67
216.601	241.22
217.068	266.97
217.535	290.37
218.003	222.5
218.47	238.88
218.937	238.88
219.404	278.67
219.871	248.24
220.338	304.42
220.805	288.03
221.271	320.8
221.738	206.11
222.205	255.26
222.671	348.89
223.138	215.48
223.605	288.03
224.071	290.37
224.538	203.77
225.004	302.08
225.47	285.69
225.937	262.29
226.403	281.01
226.869	309.1
227.335	325.48
227.801	250.58
228.267	262.29
228.733	281.01
229.199	257.61
229.665	262.29
230.131	290.37
230.597	309.1
231.062	215.48
231.528	316.12
231.994	295.05
232.459	304.42
232.925	299.73
233.39	290.37
233.856	304.42
234.321	292.71
234.786	278.67
235.252	257.61
235.717	276.33
236.182	278.67
236.647	273.99
237.112	295.05
237.577	231.86
238.042	250.58
238.507	224.84
238.972	316.12
239.436	264.63
239.901	281.01
240.366	299.73
240.83	332.5
241.295	337.18
241.76	278.67
242.224	266.97
242.688	341.86
243.153	297.39
243.617	276.33
244.081	215.48
244.545	311.44
245.01	278.67
245.474	318.46
245.938	344.21
246.402	271.65
246.866	288.03
247.33	290.37
247.793	318.46
248.257	313.78
248.721	276.33
249.185	299.73
249.648	248.24
250.112	327.82
250.575	278.67
251.039	316.12
251.502	262.29
251.965	334.84
252.429	309.1
252.892	285.69
253.355	271.65
253.818	281.01
254.281	313.78
254.744	304.42
255.207	236.54
255.67	299.73
256.133	248.24
256.596	269.31
257.059	325.48
257.522	278.67
257.984	262.29
258.447	245.9
258.909	285.69
259.372	234.2
259.834	327.82
260.297	295.05
260.759	297.39
261.221	358.25
261.684	318.46
262.146	318.46
262.608	250.58
263.07	332.5
263.532	372.29
263.994	309.1
264.456	337.18
264.918	304.42
265.38	245.9
265.842	285.69
266.303	234.2
266.765	276.33
267.227	278.67
267.688	292.71
268.15	278.67
268.611	266.97
269.072	217.82
269.534	327.82
269.995	320.8
270.456	346.55
270.918	325.48
271.379	376.97
271.84	332.5
272.301	288.03
272.762	210.79
273.223	332.5
273.684	222.5
274.144	278.67
274.605	304.42
275.066	339.52
275.527	283.35
275.987	295.05
276.448	304.42
276.908	316.12
277.369	311.44
277.829	302.08
278.289	339.52
278.75	320.8
279.21	346.55
279.67	231.86
280.13	288.03
280.59	255.26
281.05	334.84
281.51	290.37
281.97	304.42
282.43	327.82
282.89	288.03
283.35	290.37
283.809	224.84
284.269	311.44
284.729	318.46
285.188	323.14
285.648	295.05
286.107	383.99
286.567	306.76
287.026	276.33
287.485	250.58
287.944	278.67
288.404	332.5
288.863	318.46
289.322	386.33
289.781	295.05
290.24	332.5
290.699	358.25
291.158	440.17
291.616	353.57
292.075	259.95
292.534	316.12
292.992	306.76
293.451	248.24
293.91	271.65
294.368	276.33
294.827	355.91
295.285	229.52
295.743	259.95
296.202	290.37
296.66	273.99
297.118	318.46
297.576	306.76
298.034	355.91
298.492	299.73
298.95	306.76
299.408	360.59
299.866	365.27
300.324	313.78
300.781	318.46
301.239	341.86
301.697	348.89
302.154	351.23
302.612	325.48
303.069	281.01
303.527	348.89
303.984	306.76
304.441	283.35
304.899	304.42
305.356	304.42
305.813	330.16
306.27	309.1
306.727	325.48
307.184	353.57
307.641	362.93
308.098	320.8
308.555	309.1
309.012	309.1
309.468	407.4
309.925	299.73
310.382	311.44
310.838	351.23
311.295	332.5
311.751	269.31
312.208	351.23
312.664	311.44
313.12	302.08
313.577	288.03
314.033	346.55
314.489	283.35
314.945	362.93
315.401	339.52
315.857	327.82
316.313	332.5
316.769	339.52
317.225	323.14
317.681	297.39
318.136	360.59
318.592	250.58
319.048	316.12
319.503	306.76
319.959	374.63
320.414	255.26
320.869	337.18
321.325	351.23
321.78	332.5
322.235	281.01
322.691	334.84
323.146	332.5
323.601	302.08
324.056	339.52
324.511	299.73
324.966	337.18
325.421	311.44
325.875	330.16
326.33	339.52
326.785	318.46
327.24	323.14
327.694	255.26
328.149	241.22
328.603	348.89
329.058	355.91
329.512	292.71
329.966	288.03
330.421	266.97
330.875	325.48
331.329	332.5
331.783	269.31
332.237	318.46
332.691	302.08
333.145	327.82
333.599	433.15
334.053	351.23
334.507	313.78
334.96	358.25
335.414	318.46
335.868	320.8
336.321	302.08
336.775	255.26
337.228	306.76
337.682	318.46
338.135	288.03
338.588	316.12
339.042	339.52
339.495	295.05
339.948	304.42
340.401	257.61
340.854	304.42
341.307	376.97
341.76	348.89
342.213	316.12
342.666	213.14
343.119	325.48
343.571	376.97
344.024	353.57
344.477	341.86
344.929	309.1
345.382	351.23
345.834	334.84
346.287	299.73
346.739	320.8
347.191	332.5
347.644	405.06
348.096	435.49
348.548	318.46
349	255.26
349.452	330.16
349.904	264.63
350.356	297.39
350.808	318.46
351.26	344.21
351.711	259.95
352.163	330.16
352.615	351.23
353.066	323.14
353.518	323.14
353.969	309.1
354.421	302.08
354.872	358.25
355.324	264.63
355.775	367.61
356.226	327.82
356.677	241.22
357.128	358.25
357.579	302.08
358.03	362.93
358.481	266.97
358.932	299.73
359.383	334.84
359.834	348.89
360.285	351.23
360.735	311.44
361.186	304.42
361.637	355.91
362.087	320.8
362.538	367.61
362.988	311.44
363.438	306.76
363.889	295.05
364.339	306.76
364.789	297.39
365.239	358.25
365.689	365.27
366.139	358.25
366.589	332.5
367.039	318.46
367.489	330.16
367.939	262.29
368.389	362.93
368.839	283.35
369.288	393.36
369.738	334.84
370.187	295.05
370.637	313.78
371.086	288.03
371.536	332.5
371.985	309.1
372.434	344.21
372.884	330.16
373.333	341.86
373.782	278.67
374.231	360.59
374.68	327.82
375.129	306.76
375.578	362.93
376.027	341.86
376.475	297.39
376.924	346.55
377.373	365.27
377.822	313.78
378.27	259.95
378.719	309.1
379.167	365.27
379.616	346.55
380.064	316.12
380.512	351.23
380.961	309.1
381.409	346.55
381.857	285.69
382.305	337.18
382.753	316.12
383.201	313.78
383.649	346.55
384.097	353.57
384.545	323.14
384.992	318.46
385.44	292.71
385.888	248.24
386.335	346.55
386.783	334.84
387.231	229.52
387.678	339.52
388.125	344.21
388.573	327.82
389.02	295.05
389.467	353.57
389.914	325.48
390.362	276.33
390.809	327.82
391.256	288.03
391.703	309.1
392.15	346.55
392.596	325.48
393.043	299.73
393.49	299.73
393.937	309.1
394.383	281.01
394.83	281.01
395.276	313.78
395.723	299.73
396.169	299.73
396.616	341.86
397.062	383.99
397.508	283.35
397.954	299.73
398.401	323.14
398.847	400.38
399.293	271.65
399.739	372.29
400.185	318.46
400.631	372.29
401.076	346.55
401.522	407.4
401.968	346.55
402.414	346.55
402.859	309.1
403.305	309.1
403.75	306.76
404.196	374.63
404.641	355.91
405.086	304.42
405.532	309.1
405.977	281.01
406.422	252.92
406.867	252.92
407.312	376.97
407.757	313.78
408.202	341.86
408.647	285.69
409.092	299.73
409.537	320.8
409.982	334.84
410.426	381.65
410.871	334.84
411.316	360.59
411.76	362.93
412.205	290.37
412.649	341.86
413.093	337.18
413.538	325.48
413.982	337.18
414.426	365.27
414.87	320.8
415.314	327.82
415.758	234.2
416.202	285.69
416.646	299.73
417.09	330.16
417.534	323.14
417.978	238.88
418.421	316.12
418.865	360.59
419.309	297.39
419.752	311.44
420.196	278.67
420.639	369.95
421.083	302.08
421.526	281.01
421.969	353.57
422.412	346.55
422.856	334.84
423.299	353.57
423.742	351.23
424.185	299.73
424.628	341.86
425.071	346.55
425.513	402.72
425.956	297.39
426.399	299.73
426.842	339.52
427.284	309.1
427.727	304.42
428.169	341.86
428.612	365.27
429.054	311.44
429.497	313.78
429.939	302.08
430.381	283.35
430.823	299.73
431.265	297.39
431.707	302.08
432.149	358.25
432.591	362.93
433.033	318.46
433.475	360.59
433.917	409.74
434.359	367.61
434.8	379.31
435.242	430.8
435.684	348.89
436.125	318.46
436.567	311.44
437.008	297.39
437.449	295.05
437.891	362.93
438.332	365.27
438.773	325.48
439.214	309.1
439.656	320.8
440.097	346.55
440.538	332.5
440.978	388.68
441.419	309.1
441.86	330.16
442.301	337.18
442.742	302.08
443.182	325.48
443.623	337.18
444.063	283.35
444.504	290.37
444.944	325.48
445.385	290.37
445.825	369.95
446.265	339.52
446.706	304.42
447.146	360.59
447.586	295.05
448.026	334.84
448.466	339.52
448.906	288.03
449.346	367.61
449.786	372.29
450.225	304.42
450.665	334.84
451.105	346.55
451.544	372.29
451.984	323.14
452.424	311.44
452.863	266.97
453.302	327.82
453.742	365.27
454.181	297.39
454.62	381.65
455.059	339.52
455.499	369.95
455.938	379.31
456.377	369.95
456.816	393.36
457.254	334.84
457.693	367.61
458.132	316.12
458.571	330.16
459.01	351.23
459.448	360.59
459.887	367.61
460.325	360.59
460.764	297.39
461.202	264.63
461.641	376.97
462.079	376.97
462.517	311.44
462.955	323.14
463.393	273.99
463.832	376.97
464.27	306.76
464.708	292.71
465.145	264.63
465.583	302.08
466.021	362.93
466.459	332.5
466.897	386.33
467.334	325.48
467.772	306.76
468.209	313.78
468.647	306.76
469.084	311.44
469.522	393.36
469.959	318.46
470.396	302.08
470.833	299.73
471.271	297.39
471.708	295.05
472.145	327.82
472.582	297.39
473.019	327.82
473.456	346.55
473.892	386.33
474.329	327.82
474.766	402.72
475.202	295.05
475.639	313.78
476.076	353.57
476.512	337.18
476.949	299.73
477.385	264.63
477.821	344.21
478.258	355.91
478.694	323.14
479.13	360.59
479.566	344.21
480.002	309.1
480.438	365.27
480.874	297.39
481.31	325.48
481.746	402.72
482.181	271.65
482.617	295.05
483.053	337.18
483.488	238.88
483.924	346.55
484.36	318.46
484.795	288.03
485.23	323.14
485.666	278.67
486.101	295.05
486.536	313.78
486.971	369.95
487.407	325.48
487.842	355.91
488.277	288.03
488.712	292.71
489.146	316.12
489.581	360.59
490.016	295.05
490.451	281.01
490.885	344.21
491.32	346.55
491.755	288.03
492.189	330.16
492.624	327.82
493.058	304.42
493.492	360.59
493.927	309.1
494.361	423.78
494.795	323.14
495.229	316.12
495.663	330.16
496.097	337.18
496.531	330.16
496.965	395.7
497.399	332.5
497.833	292.71
498.266	369.95
498.7	269.31
499.134	348.89
499.567	316.12
500.001	344.21
500.434	386.33
500.868	323.14
501.301	344.21
501.734	360.59
502.168	365.27
502.601	395.7
503.034	344.21
503.467	365.27
503.9	362.93
504.333	365.27
504.766	325.48
505.199	299.73
505.632	360.59
506.064	323.14
506.497	412.08
506.93	407.4
507.362	327.82
507.795	306.76
508.227	339.52
508.66	281.01
509.092	302.08
509.524	309.1
509.956	346.55
510.389	330.16
510.821	337.18
511.253	344.21
511.685	332.5
512.117	304.42
512.549	311.44
512.981	318.46
513.412	351.23
513.844	353.57
514.276	362.93
514.707	325.48
515.139	332.5
515.571	283.35
516.002	337.18
516.433	337.18
516.865	323.14
517.296	353.57
517.727	334.84
518.159	365.27
518.59	369.95
519.021	311.44
519.452	337.18
519.883	299.73
520.314	299.73
520.744	344.21
521.175	325.48
521.606	398.04
522.037	313.78
522.467	332.5
522.898	262.29
523.328	313.78
523.759	391.02
524.189	339.52
524.62	320.8
525.05	229.52
525.48	344.21
525.91	248.24
526.341	288.03
526.771	344.21
527.201	316.12
527.631	276.33
528.061	320.8
528.49	304.42
528.92	309.1
529.35	398.04
529.78	367.61
530.209	344.21
530.639	241.22
531.068	238.88
531.498	292.71
531.927	376.97
532.357	388.68
532.786	299.73
533.215	348.89
533.644	320.8
534.074	344.21
534.503	255.26
534.932	276.33
535.361	362.93
535.79	264.63
536.218	346.55
536.647	311.44
537.076	339.52
537.505	313.78
537.933	330.16
538.362	332.5
538.79	381.65
539.219	297.39
539.647	259.95
540.076	302.08
540.504	288.03
540.932	323.14
541.36	313.78
541.788	299.73
542.217	320.8
542.645	327.82
543.073	334.84
543.5	372.29
543.928	337.18
544.356	325.48
544.784	383.99
545.211	290.37
545.639	332.5
546.067	351.23
546.494	374.63
546.922	323.14
547.349	299.73
547.776	334.84
548.204	330.16
548.631	304.42
549.058	320.8
549.485	341.86
549.912	290.37
550.339	302.08
550.766	306.76
551.193	306.76
551.62	325.48
552.047	332.5
552.474	372.29
552.9	341.86
553.327	337.18
553.754	290.37
554.18	288.03
554.607	355.91
555.033	302.08
555.459	332.5
555.886	355.91
556.312	299.73
556.738	304.42
557.164	344.21
557.59	306.76
558.016	379.31
558.442	323.14
558.868	362.93
559.294	323.14
559.72	318.46
560.145	283.35
560.571	353.57
560.997	304.42
561.422	302.08
561.848	299.73
562.273	311.44
562.699	285.69
563.124	372.29
563.549	348.89
563.974	337.18
564.4	348.89
564.825	302.08
565.25	234.2
565.675	339.52
566.1	346.55
566.525	325.48
566.95	325.48
567.374	318.46
567.799	311.44
568.224	365.27
568.648	346.55
569.073	332.5
569.497	444.85
569.922	339.52
570.346	398.04
570.771	318.46
571.195	241.22
571.619	325.48
572.043	306.76
572.467	259.95
572.891	309.1
573.315	285.69
573.739	323.14
574.163	318.46
574.587	327.82
575.011	299.73
575.435	348.89
575.858	353.57
576.282	304.42
576.705	327.82
577.129	304.42
577.552	409.74
577.976	243.56
578.399	344.21
578.822	257.61
579.245	292.71
579.669	374.63
580.092	304.42
580.515	285.69
580.938	283.35
581.361	316.12
581.784	327.82
582.206	372.29
582.629	320.8
583.052	283.35
583.474	309.1
583.897	341.86
584.32	369.95
584.742	311.44
585.165	231.86
585.587	323.14
586.009	330.16
586.431	245.9
586.854	339.52
587.276	299.73
587.698	367.61
588.12	302.08
588.542	311.44
588.964	278.67
589.386	402.72
589.807	269.31
590.229	339.52
590.651	292.71
591.073	323.14
591.494	295.05
591.916	285.69
592.337	339.52
592.759	353.57
593.18	381.65
593.601	316.12
594.022	320.8
594.444	330.16
594.865	299.73
595.286	365.27
595.707	295.05
596.128	316.12
596.549	311.44
596.97	383.99
597.39	327.82
597.811	292.71
598.232	388.68
598.652	339.52
599.073	304.42
599.494	323.14
599.914	311.44
600.334	283.35
600.755	325.48
601.175	297.39
601.595	316.12
602.015	395.7
602.436	302.08
602.856	482.3
603.276	323.14
603.696	295.05
604.115	325.48
604.535	395.7
604.955	344.21
605.375	306.76
605.794	339.52
606.214	379.31
606.634	353.57
607.053	290.37
607.473	276.33
607.892	302.08
608.311	297.39
608.731	281.01
609.15	355.91
609.569	259.95
609.988	320.8
610.407	276.33
610.826	360.59
611.245	323.14
611.664	295.05
612.083	348.89
612.501	344.21
612.92	362.93
613.339	302.08
613.757	316.12
614.176	283.35
614.594	271.65
615.013	309.1
615.431	339.52
615.85	290.37
616.268	348.89
616.686	365.27
617.104	313.78
617.522	381.65
617.94	257.61
618.358	348.89
618.776	290.37
619.194	358.25
619.612	341.86
620.03	348.89
620.447	297.39
620.865	365.27
621.282	269.31
621.7	320.8
622.117	348.89
622.535	318.46
622.952	281.01
623.369	332.5
623.787	367.61
624.204	334.84
624.621	262.29
625.038	346.55
625.455	330.16
625.872	386.33
626.289	304.42
626.706	304.42
627.123	351.23
627.539	316.12
627.956	316.12
628.373	334.84
628.789	372.29
629.206	367.61
629.622	332.5
630.038	313.78
630.455	295.05
630.871	341.86
631.287	376.97
631.703	316.12
632.12	330.16
632.536	297.39
632.952	339.52
633.368	278.67
633.783	379.31
634.199	358.25
634.615	360.59
635.031	302.08
635.446	304.42
635.862	269.31
636.277	334.84
636.693	302.08
637.108	273.99
637.524	358.25
637.939	262.29
638.354	295.05
638.77	311.44
639.185	367.61
639.6	325.48
640.015	290.37
640.43	419.1
640.845	348.89
641.259	344.21
641.674	295.05
642.089	379.31
642.504	351.23
642.918	330.16
643.333	299.73
643.747	348.89
644.162	278.67
644.576	297.39
644.991	311.44
645.405	295.05
645.819	353.57
646.233	351.23
646.647	388.68
647.061	311.44
647.475	325.48
647.889	290.37
648.303	320.8
648.717	320.8
649.131	348.89
649.545	285.69
649.958	341.86
650.372	344.21
650.785	255.26
651.199	372.29
651.612	320.8
652.026	362.93
652.439	379.31
652.852	297.39
653.266	285.69
653.679	316.12
654.092	327.82
654.505	302.08
654.918	281.01
655.331	391.02
655.744	346.55
656.156	360.59
656.569	302.08
656.982	332.5
657.394	281.01
657.807	323.14
658.22	255.26
658.632	278.67
659.044	325.48
659.457	323.14
659.869	334.84
660.281	320.8
660.693	323.14
661.106	360.59
661.518	339.52
661.93	295.05
662.342	414.42
662.754	339.52
663.165	362.93
663.577	306.76
663.989	372.29
664.401	325.48
664.812	339.52
665.224	351.23
665.635	341.86
666.047	304.42
666.458	295.05
666.869	344.21
667.281	344.21
667.692	278.67
668.103	302.08
668.514	316.12
668.925	383.99
669.336	313.78
669.747	271.65
670.158	348.89
670.569	383.99
670.979	290.37
671.39	325.48
671.801	365.27
672.211	320.8
672.622	360.59
673.032	285.69
673.443	365.27
673.853	341.86
674.263	320.8
674.674	292.71
675.084	306.76
675.494	365.27
675.904	311.44
676.314	311.44
676.724	311.44
677.134	313.78
677.544	281.01
677.953	362.93
678.363	325.48
678.773	353.57
679.182	320.8
679.592	266.97
680.001	346.55
680.411	285.69
680.82	327.82
681.23	273.99
681.639	330.16
682.048	323.14
682.457	330.16
682.866	262.29
683.275	316.12
683.684	273.99
684.093	330.16
684.502	283.35
684.911	243.56
685.32	304.42
685.728	348.89
686.137	344.21
686.546	330.16
686.954	369.95
687.363	330.16
687.771	381.65
688.179	360.59
688.588	358.25
688.996	381.65
689.404	334.84
689.812	360.59
690.22	339.52
690.628	353.57
691.036	323.14
691.444	309.1
691.852	273.99
692.26	376.97
692.667	318.46
693.075	283.35
693.483	323.14
693.89	292.71
694.298	278.67
694.705	281.01
695.112	306.76
695.52	362.93
695.927	362.93
696.334	379.31
696.741	341.86
697.148	224.84
697.555	327.82
697.962	281.01
698.369	358.25
698.776	344.21
699.183	323.14
699.59	346.55
699.996	346.55
700.403	367.61
700.81	323.14
701.216	241.22
701.623	309.1
702.029	374.63
702.435	269.31
702.842	283.35
703.248	341.86
703.654	313.78
704.06	304.42
704.466	412.08
704.872	325.48
705.278	320.8
705.684	358.25
706.09	259.95
706.496	313.78
706.901	379.31
707.307	311.44
707.712	353.57
708.118	369.95
708.523	358.25
708.929	297.39
709.334	269.31
709.74	313.78
710.145	288.03
710.55	348.89
710.955	295.05
711.36	327.82
711.765	292.71
712.17	313.78
712.575	283.35
712.98	793.59
713.385	360.59
713.789	245.9
714.194	306.76
714.599	320.8
715.003	309.1
715.408	362.93
715.812	353.57
716.217	341.86
716.621	302.08
717.025	337.18
717.429	299.73
717.833	318.46
718.238	330.16
718.642	278.67
719.046	290.37
719.449	398.04
719.853	365.27
720.257	316.12
720.661	346.55
721.065	337.18
721.468	273.99
721.872	323.14
722.275	337.18
722.679	309.1
723.082	346.55
723.485	250.58
723.889	395.7
724.292	281.01
724.695	332.5
725.098	341.86
725.501	379.31
725.904	278.67
726.307	313.78
726.71	320.8
727.113	292.71
727.516	353.57
727.918	299.73
728.321	353.57
728.724	325.48
729.126	288.03
729.529	341.86
729.931	299.73
730.333	388.68
730.736	360.59
731.138	355.91
731.54	348.89
731.942	295.05
732.344	381.65
732.746	358.25
733.148	365.27
733.55	330.16
733.952	288.03
734.354	295.05
734.756	311.44
735.157	327.82
735.559	344.21
735.96	248.24
736.362	358.25
736.763	405.06
737.165	369.95
737.566	346.55
737.967	325.48
738.368	339.52
738.77	372.29
739.171	292.71
739.572	327.82
739.973	374.63
740.374	334.84
740.774	337.18
741.175	306.76
741.576	299.73
741.977	341.86
742.377	369.95
742.778	323.14
743.178	304.42
743.579	337.18
743.979	362.93
744.379	358.25
744.78	372.29
745.18	367.61
745.58	341.86
745.98	346.55
746.38	339.52
746.78	351.23
747.18	325.48
747.58	278.67
747.98	276.33
748.38	311.44
748.779	344.21
749.179	313.78
749.578	281.01
749.978	316.12
750.377	381.65
750.777	323.14
751.176	330.16
751.575	332.5
751.975	327.82
752.374	285.69
752.773	302.08
753.172	353.57
753.571	344.21
753.97	285.69
754.369	372.29
754.768	372.29
755.166	290.37
755.565	346.55
755.964	353.57
756.362	313.78
756.761	337.18
757.159	341.86
757.558	318.46
757.956	309.1
758.354	348.89
758.753	337.18
759.151	302.08
759.549	379.31
759.947	295.05
760.345	376.97
760.743	351.23
761.141	419.1
761.539	391.02
761.936	353.57
762.334	320.8
762.732	353.57
763.129	346.55
763.527	309.1
763.924	313.78
764.322	306.76
764.719	337.18
765.117	313.78
765.514	337.18
765.911	339.52
766.308	295.05
766.705	309.1
767.102	362.93
767.499	346.55
767.896	330.16
768.293	372.29
768.69	332.5
769.086	252.92
769.483	337.18
769.88	320.8
770.276	332.5
770.673	330.16
771.069	304.42
771.466	346.55
771.862	391.02
772.258	367.61
772.654	273.99
773.05	306.76
773.447	309.1
773.843	337.18
774.239	362.93
774.634	311.44
775.03	355.91
775.426	374.63
775.822	360.59
776.218	285.69
776.613	339.52
777.009	318.46
777.404	388.68
777.8	292.71
778.195	344.21
778.59	297.39
778.986	360.59
779.381	283.35
779.776	231.86
780.171	295.05
780.566	360.59
780.961	288.03
781.356	339.52
781.751	337.18
782.146	330.16
782.54	348.89
782.935	281.01
783.33	367.61
783.724	262.29
784.119	278.67
784.513	316.12
784.908	295.05
785.302	330.16
785.696	285.69
786.09	309.1
786.485	355.91
786.879	325.48
787.273	330.16
787.667	316.12
788.061	313.78
788.454	299.73
788.848	355.91
789.242	344.21
789.636	337.18
790.029	353.57
790.423	388.68
790.816	313.78
791.21	365.27
791.603	327.82
791.997	355.91
792.39	348.89
792.783	353.57
793.176	257.61
793.569	351.23
793.962	276.33
794.355	358.25
794.748	295.05
795.141	283.35
795.534	255.26
795.927	311.44
796.319	297.39
796.712	320.8
797.105	339.52
797.497	259.95
797.89	302.08
798.282	337.18
798.674	344.21
799.067	330.16
799.459	323.14
799.851	334.84
800.243	295.05
800.635	332.5
801.027	330.16
801.419	334.84
801.811	285.69
802.203	269.31
802.594	292.71
802.986	344.21
803.378	309.1
803.769	259.95
804.161	318.46
804.552	362.93
804.944	360.59
805.335	365.27
805.726	355.91
806.118	346.55
806.509	412.08
806.9	367.61
807.291	318.46
807.682	383.99
808.073	285.69
808.464	299.73
808.855	316.12
809.245	299.73
809.636	341.86
810.027	292.71
810.417	374.63
810.808	341.86
811.198	313.78
811.589	367.61
811.979	316.12
812.369	341.86
812.759	297.39
813.15	391.02
813.54	330.16
813.93	318.46
814.32	288.03
814.71	341.86
815.1	281.01
815.489	330.16
815.879	290.37
816.269	309.1
816.658	334.84
817.048	318.46
817.438	362.93
817.827	332.5
818.216	285.69
818.606	295.05
818.995	346.55
819.384	271.65
819.773	278.67
820.163	320.8
820.552	311.44
820.941	252.92
821.33	369.95
821.718	243.56
822.107	278.67
822.496	325.48
822.885	281.01
823.273	316.12
823.662	243.56
824.05	313.78
824.439	304.42
824.827	402.72
825.216	341.86
825.604	337.18
825.992	222.5
826.38	339.52
826.768	341.86
827.156	311.44
827.544	332.5
827.932	304.42
828.32	330.16
828.708	302.08
829.096	245.9
829.483	325.48
829.871	278.67
830.259	292.71
830.646	362.93
831.034	292.71
831.421	318.46
831.808	309.1
832.196	391.02
832.583	304.42
832.97	311.44
833.357	337.18
833.744	281.01
834.131	257.61
834.518	278.67
834.905	316.12
835.292	398.04
835.678	313.78
836.065	316.12
836.452	271.65
836.838	281.01
837.225	259.95
837.611	362.93
837.998	360.59
838.384	304.42
838.77	393.36
839.157	346.55
839.543	369.95
839.929	292.71
840.315	325.48
840.701	257.61
841.087	360.59
841.473	302.08
841.858	306.76
842.244	323.14
842.63	288.03
843.015	362.93
843.401	709.33
843.787	346.55
844.172	330.16
844.557	327.82
844.943	323.14
845.328	332.5
845.713	393.36
846.098	372.29
846.483	323.14
846.868	358.25
847.253	297.39
847.638	388.68
848.023	365.27
848.408	283.35
848.793	306.76
849.177	271.65
849.562	344.21
849.947	257.61
850.331	358.25
850.715	365.27
851.1	313.78
851.484	318.46
851.868	395.7
852.253	297.39
852.637	351.23
853.021	316.12
853.405	369.95
853.789	278.67
854.173	337.18
854.557	414.42
854.94	346.55
855.324	367.61
855.708	393.36
856.091	318.46
856.475	386.33
856.858	351.23
857.242	330.16
857.625	337.18
858.009	360.59
858.392	311.44
858.775	330.16
859.158	316.12
859.541	262.29
859.924	302.08
860.307	320.8
860.69	273.99
861.073	323.14
861.456	313.78
861.838	302.08
862.221	348.89
862.604	306.76
862.986	325.48
863.369	259.95
863.751	320.8
864.133	311.44
864.516	346.55
864.898	299.73
865.28	369.95
865.662	311.44
866.044	292.71
866.426	281.01
866.808	290.37
867.19	386.33
867.572	311.44
867.954	273.99
868.336	309.1
868.717	304.42
869.099	320.8
869.48	344.21
869.862	288.03
870.243	346.55
870.625	297.39
871.006	311.44
871.387	229.52
871.768	313.78
872.149	313.78
872.53	285.69
872.911	344.21
873.292	376.97
873.673	325.48
874.054	330.16
874.435	330.16
874.815	295.05
875.196	292.71
875.577	337.18
875.957	386.33
876.338	311.44
876.718	339.52
877.098	391.02
877.479	327.82
877.859	362.93
878.239	283.35
878.619	320.8
878.999	290.37
879.379	351.23
879.759	313.78
880.139	367.61
880.519	372.29
880.898	309.1
881.278	339.52
881.658	288.03
882.037	264.63
882.417	313.78
882.796	337.18
883.176	273.99
883.555	299.73
883.934	311.44
884.313	325.48
884.693	337.18
885.072	302.08
885.451	276.33
885.83	245.9
886.209	388.68
886.587	304.42
886.966	414.42
887.345	306.76
887.724	334.84
888.102	316.12
888.481	395.7
888.859	302.08
889.238	332.5
889.616	299.73
889.994	337.18
890.373	292.71
890.751	325.48
891.129	362.93
891.507	318.46
891.885	304.42
892.263	367.61
892.641	295.05
893.019	281.01
893.396	327.82
893.774	339.52
894.152	339.52
894.529	362.93
894.907	412.08
895.284	281.01
895.662	330.16
896.039	283.35
896.416	341.86
896.794	360.59
897.171	304.42
897.548	339.52
897.925	311.44
898.302	330.16
898.679	353.57
899.056	297.39
899.433	297.39
899.809	320.8
900.186	348.89
900.563	304.42
900.939	323.14
901.316	323.14
901.692	292.71
902.069	325.48
902.445	273.99
902.821	334.84
903.197	273.99
903.574	330.16
903.95	332.5
904.326	320.8
904.702	351.23
905.078	288.03
905.454	325.48
905.829	269.31
906.205	344.21
906.581	362.93
906.956	351.23
907.332	388.68
907.707	285.69
908.083	351.23
908.458	313.78
908.833	376.97
909.209	381.65
909.584	278.67
909.959	362.93
910.334	358.25
910.709	325.48
911.084	341.86
911.459	351.23
911.834	346.55
912.209	330.16
912.583	337.18
912.958	325.48
913.333	348.89
913.707	369.95
914.082	311.44
914.456	318.46
914.83	327.82
915.205	264.63
915.579	330.16
915.953	283.35
916.327	281.01
916.701	271.65
917.075	297.39
917.449	376.97
917.823	311.44
918.197	285.69
918.571	332.5
918.944	383.99
919.318	320.8
919.692	278.67
920.065	334.84
920.438	306.76
920.812	266.97
921.185	297.39
921.558	346.55
921.932	360.59
922.305	313.78
922.678	320.8
923.051	276.33
923.424	299.73
923.797	358.25
924.17	330.16
924.542	255.26
924.915	292.71
925.288	285.69
925.661	273.99
926.033	395.7
926.406	283.35
926.778	278.67
927.15	339.52
927.523	334.84
927.895	302.08
928.267	306.76
928.639	313.78
929.011	339.52
929.383	290.37
929.755	269.31
930.127	383.99
930.499	320.8
930.871	348.89
931.242	327.82
931.614	248.24
931.986	271.65
932.357	353.57
932.729	320.8
933.1	327.82
933.471	316.12
933.843	365.27
934.214	271.65
934.585	372.29
934.956	304.42
935.327	290.37
935.698	276.33
936.069	276.33
936.44	332.5
936.811	330.16
937.182	299.73
937.552	316.12
937.923	358.25
938.293	302.08
938.664	302.08
939.034	332.5
939.405	327.82
939.775	334.84
940.145	376.97
940.516	353.57
940.886	353.57
941.256	327.82
941.626	299.73
941.996	358.25
942.366	309.1
942.735	299.73
943.105	238.88
943.475	318.46
943.845	358.25
944.214	374.63
944.584	351.23
944.953	297.39
945.323	369.95
945.692	311.44
946.061	262.29
946.43	320.8
946.8	332.5
947.169	288.03
947.538	292.71
947.907	341.86
948.276	316.12
948.645	297.39
949.013	281.01
949.382	348.89
949.751	297.39
950.119	285.69
950.488	327.82
950.857	327.82
951.225	269.31
951.593	346.55
951.962	339.52
952.33	313.78
952.698	276.33
953.066	341.86
953.434	257.61
953.802	297.39
954.17	362.93
954.538	391.02
954.906	334.84
955.274	306.76
955.642	309.1
956.009	337.18
956.377	327.82
956.744	285.69
957.112	332.5
957.479	313.78
957.847	318.46
958.214	332.5
958.581	320.8
958.948	278.67
959.315	348.89
959.683	299.73
960.05	302.08
960.416	320.8
960.783	304.42
961.15	306.76
961.517	318.46
961.884	330.16
962.25	302.08
962.617	273.99
962.983	346.55
963.35	346.55
963.716	288.03
964.082	325.48
964.449	325.48
964.815	295.05
965.181	295.05
965.547	341.86
965.913	285.69
966.279	252.92
966.645	250.58
967.011	316.12
967.377	334.84
967.742	311.44
968.108	323.14
968.474	309.1
968.839	351.23
969.205	388.68
969.57	302.08
969.935	297.39
970.301	360.59
970.666	283.35
971.031	320.8
971.396	320.8
971.761	323.14
972.126	353.57
972.491	316.12
972.856	302.08
973.221	367.61
973.586	330.16
973.95	299.73
974.315	323.14
974.679	311.44
975.044	330.16
975.408	288.03
975.773	351.23
976.137	283.35
976.501	344.21
976.866	344.21
977.23	309.1
977.594	283.35
977.958	292.71
978.322	327.82
978.686	299.73
979.049	323.14
979.413	362.93
979.777	306.76
980.141	332.5
980.504	304.42
980.868	334.84
981.231	323.14
981.595	332.5
981.958	339.52
982.321	306.76
982.684	262.29
983.048	255.26
983.411	311.44
983.774	372.29
984.137	337.18
984.5	327.82
984.862	311.44
985.225	320.8
985.588	238.88
985.951	341.86
986.313	299.73
986.676	339.52
987.038	334.84
987.401	259.95
987.763	325.48
988.125	337.18
988.488	283.35
988.85	290.37
989.212	337.18
989.574	290.37
989.936	304.42
990.298	320.8
990.66	313.78
991.022	346.55
991.383	295.05
991.745	344.21
992.107	311.44
992.468	302.08
992.83	323.14
993.191	330.16
993.553	276.33
993.914	316.12
994.275	320.8
994.637	269.31
994.998	264.63
995.359	297.39
995.72	248.24
996.081	325.48
996.442	304.42
996.803	316.12
997.163	299.73
997.524	311.44
997.885	304.42
998.245	283.35
998.606	285.69
998.966	313.78
999.327	306.76
999.687	311.44
1000.047	292.71
1000.408	372.29
1000.768	330.16
1001.128	346.55
1001.488	391.02
1001.848	311.44
1002.208	309.1
1002.568	273.99
1002.927	304.42
1003.287	332.5
1003.647	395.7
1004.007	276.33
1004.366	367.61
1004.726	339.52
1005.085	297.39
1005.444	344.21
1005.804	292.71
1006.163	339.52
1006.522	344.21
1006.881	309.1
1007.24	341.86
1007.599	316.12
1007.958	250.58
1008.317	374.63
1008.676	327.82
1009.035	283.35
1009.393	374.63
1009.752	327.82
1010.111	271.65
1010.469	341.86
1010.828	325.48
1011.186	323.14
1011.544	290.37
1011.903	299.73
1012.261	259.95
1012.619	337.18
1012.977	311.44
1013.335	323.14
1013.693	281.01
1014.051	257.61
1014.409	290.37
1014.767	311.44
1015.124	306.76
1015.482	327.82
1015.84	297.39
1016.197	332.5
1016.555	325.48
1016.912	313.78
1017.269	318.46
1017.627	365.27
1017.984	311.44
1018.341	369.95
1018.698	353.57
1019.055	332.5
1019.412	323.14
1019.769	306.76
1020.126	339.52
1020.483	337.18
1020.84	302.08
1021.196	358.25
1021.553	327.82
1021.909	372.29
1022.266	276.33
1022.622	320.8
1022.979	320.8
1023.335	299.73
1023.691	304.42
1024.047	283.35
1024.404	278.67
1024.76	320.8
1025.116	332.5
1025.472	334.84
1025.827	306.76
1026.183	304.42
1026.539	353.57
1026.895	334.84
1027.25	252.92
1027.606	309.1
1027.961	306.76
1028.317	295.05
1028.672	295.05
1029.028	271.65
1029.383	327.82
1029.738	369.95
1030.093	269.31
1030.448	264.63
1030.803	285.69
1031.158	369.95
1031.513	391.02
1031.868	290.37
1032.223	325.48
1032.577	297.39
1032.932	288.03
1033.287	299.73
1033.641	313.78
1033.996	318.46
1034.35	299.73
1034.704	327.82
1035.059	323.14
1035.413	306.76
1035.767	306.76
1036.121	306.76
