Data from Al_FLMS009871__822__15-30-06-096.txt Node

Date: Fri Mar 08 15:30:06 CST 2024
User: pe5414po
Spectrometer: FLMS00987
Trigger mode: 0
Integration Time (sec): 1.000000E-1
Scans to average: 1
Electric dark correction enabled: true
Nonlinearity correction enabled: false
Boxcar width: 0
XAxis mode: Wavelengths
Number of Pixels in Spectrum: 2048
>>>>>Begin Spectral Data<<<<<
188.938	-66.85
189.409	-66.85
189.879	-66.85
190.349	-101.96
190.819	-97.28
191.29	-59.83
191.76	-92.6
192.23	-83.24
192.7	-125.36
193.17	-76.21
193.64	-108.98
194.109	-69.19
194.579	1.02
195.049	3.36
195.519	29.11
195.988	12.73
196.458	96.99
196.927	89.96
197.397	120.39
197.866	108.69
198.336	153.16
198.805	106.35
199.274	190.61
199.744	122.73
200.213	157.84
200.682	204.65
201.151	162.52
201.62	237.42
202.089	225.72
202.558	295.93
203.027	206.99
203.495	279.55
203.964	293.59
204.433	272.53
204.902	288.91
205.37	281.89
205.839	305.29
206.307	284.23
206.776	281.89
207.244	305.29
207.712	333.38
208.181	307.63
208.649	335.72
209.117	286.57
209.585	335.72
210.053	312.32
210.521	239.76
210.989	267.85
211.457	246.78
211.925	258.48
212.393	270.19
212.861	242.1
213.328	302.95
213.796	242.1
214.264	223.37
214.731	253.8
215.199	347.42
215.666	284.23
216.133	249.12
216.601	305.29
217.068	253.8
217.535	281.89
218.003	260.82
218.47	270.19
218.937	274.87
219.404	300.61
219.871	244.44
220.338	286.57
220.805	206.99
221.271	274.87
221.738	197.63
222.205	235.08
222.671	209.33
223.138	230.4
223.605	260.82
224.071	244.44
224.538	244.44
225.004	246.78
225.47	242.1
225.937	295.93
226.403	230.4
226.869	277.21
227.335	265.5
227.801	295.93
228.267	246.78
228.733	251.46
229.199	218.69
229.665	232.74
230.131	279.55
230.597	251.46
231.062	235.08
231.528	265.5
231.994	249.12
232.459	244.44
232.925	328.7
233.39	267.85
233.856	260.82
234.321	293.59
234.786	286.57
235.252	267.85
235.717	288.91
236.182	230.4
236.647	185.93
237.112	162.52
237.577	223.37
238.042	319.34
238.507	279.55
238.972	174.22
239.436	279.55
239.901	267.85
240.366	309.97
240.83	258.48
241.295	214.01
241.76	267.85
242.224	321.68
242.688	263.16
243.153	293.59
243.617	300.61
244.081	270.19
244.545	312.32
245.01	291.25
245.474	293.59
245.938	267.85
246.402	309.97
246.866	302.95
247.33	324.02
247.793	293.59
248.257	232.74
248.721	258.48
249.185	265.5
249.648	298.27
250.112	274.87
250.575	230.4
251.039	293.59
251.502	274.87
251.965	258.48
252.429	317
252.892	204.65
253.355	317
253.818	302.95
254.281	288.91
254.744	225.72
255.207	309.97
255.67	277.21
256.133	298.27
256.596	319.34
257.059	244.44
257.522	244.44
257.984	274.87
258.447	258.48
258.909	309.97
259.372	291.25
259.834	263.16
260.297	288.91
260.759	288.91
261.221	324.02
261.684	291.25
262.146	263.16
262.608	295.93
263.07	305.29
263.532	284.23
263.994	267.85
264.456	338.06
264.918	298.27
265.38	265.5
265.842	256.14
266.303	270.19
266.765	272.53
267.227	361.47
267.688	326.36
268.15	274.87
268.611	305.29
269.072	225.72
269.534	293.59
269.995	239.76
270.456	251.46
270.918	270.19
271.379	192.95
271.84	317
272.301	232.74
272.762	263.16
273.223	286.57
273.684	274.87
274.144	272.53
274.605	305.29
275.066	267.85
275.527	288.91
275.987	312.32
276.448	291.25
276.908	293.59
277.369	298.27
277.829	291.25
278.289	321.68
278.75	291.25
279.21	288.91
279.67	244.44
280.13	356.79
280.59	260.82
281.05	258.48
281.51	281.89
281.97	272.53
282.43	281.89
282.89	277.21
283.35	265.5
283.809	324.02
284.269	300.61
284.729	263.16
285.188	251.46
285.648	251.46
286.107	270.19
286.567	267.85
287.026	286.57
287.485	342.74
287.944	216.35
288.404	309.97
288.863	279.55
289.322	288.91
289.781	265.5
290.24	309.97
290.699	291.25
291.158	398.92
291.616	291.25
292.075	335.72
292.534	258.48
292.992	314.66
293.451	312.32
293.91	286.57
294.368	305.29
294.827	293.59
295.285	246.78
295.743	363.81
296.202	279.55
296.66	265.5
297.118	312.32
297.576	293.59
298.034	277.21
298.492	267.85
298.95	312.32
299.408	288.91
299.866	331.04
300.324	307.63
300.781	307.63
301.239	363.81
301.697	328.7
302.154	288.91
302.612	235.08
303.069	249.12
303.527	352.1
303.984	338.06
304.441	300.61
304.899	272.53
305.356	307.63
305.813	284.23
306.27	314.66
306.727	300.61
307.184	295.93
307.641	258.48
308.098	335.72
308.555	317
309.012	291.25
309.468	321.68
309.925	307.63
310.382	267.85
310.838	253.8
311.295	277.21
311.751	345.08
312.208	319.34
312.664	373.17
313.12	258.48
313.577	256.14
314.033	291.25
314.489	286.57
314.945	277.21
315.401	279.55
315.857	293.59
316.313	314.66
316.769	298.27
317.225	288.91
317.681	356.79
318.136	260.82
318.592	293.59
319.048	258.48
319.503	333.38
319.959	300.61
320.414	333.38
320.869	293.59
321.325	237.42
321.78	349.76
322.235	244.44
322.691	302.95
323.146	293.59
323.601	237.42
324.056	317
324.511	300.61
324.966	345.08
325.421	270.19
325.875	270.19
326.33	197.63
326.785	356.79
327.24	314.66
327.694	249.12
328.149	328.7
328.603	295.93
329.058	267.85
329.512	331.04
329.966	293.59
330.421	300.61
330.875	270.19
331.329	274.87
331.783	260.82
332.237	312.32
332.691	412.96
333.145	347.42
333.599	293.59
334.053	267.85
334.507	321.68
334.96	277.21
335.414	319.34
335.868	251.46
336.321	251.46
336.775	260.82
337.228	265.5
337.682	295.93
338.135	338.06
338.588	319.34
339.042	309.97
339.495	284.23
339.948	317
340.401	305.29
340.854	286.57
341.307	281.89
341.76	279.55
342.213	305.29
342.666	265.5
343.119	279.55
343.571	338.06
344.024	342.74
344.477	321.68
344.929	251.46
345.382	324.02
345.834	258.48
346.287	321.68
346.739	242.1
347.191	249.12
347.644	228.06
348.096	279.55
348.548	284.23
349	370.83
349.452	302.95
349.904	335.72
350.356	295.93
350.808	279.55
351.26	251.46
351.711	284.23
352.163	281.89
352.615	302.95
353.066	309.97
353.518	324.02
353.969	317
354.421	267.85
354.872	317
355.324	225.72
355.775	345.08
356.226	305.29
356.677	368.49
357.128	272.53
357.579	244.44
358.03	394.23
358.481	307.63
358.932	326.36
359.383	305.29
359.834	370.83
360.285	281.89
360.735	286.57
361.186	291.25
361.637	298.27
362.087	335.72
362.538	286.57
362.988	256.14
363.438	277.21
363.889	267.85
364.339	324.02
364.789	331.04
365.239	307.63
365.689	377.85
366.139	349.76
366.589	340.4
367.039	270.19
367.489	249.12
367.939	274.87
368.389	260.82
368.839	298.27
369.288	314.66
369.738	284.23
370.187	326.36
370.637	319.34
371.086	295.93
371.536	251.46
371.985	331.04
372.434	380.19
372.884	305.29
373.333	321.68
373.782	309.97
374.231	260.82
374.68	354.44
375.129	321.68
375.578	326.36
376.027	253.8
376.475	258.48
376.924	277.21
377.373	214.01
377.822	347.42
378.27	281.89
378.719	246.78
379.167	373.17
379.616	267.85
380.064	272.53
380.512	314.66
380.961	279.55
381.409	272.53
381.857	265.5
382.305	263.16
382.753	302.95
383.201	291.25
383.649	295.93
384.097	312.32
384.545	286.57
384.992	312.32
385.44	291.25
385.888	288.91
386.335	391.89
386.783	284.23
387.231	317
387.678	324.02
388.125	277.21
388.573	314.66
389.02	288.91
389.467	286.57
389.914	312.32
390.362	256.14
390.809	377.85
391.256	309.97
391.703	288.91
392.15	279.55
392.596	293.59
393.043	321.68
393.49	333.38
393.937	272.53
394.383	258.48
394.83	251.46
395.276	274.87
395.723	321.68
396.169	239.76
396.616	331.04
397.062	263.16
397.508	256.14
397.954	260.82
398.401	284.23
398.847	293.59
399.293	253.8
399.739	373.17
400.185	314.66
400.631	317
401.076	302.95
401.522	258.48
401.968	352.1
402.414	312.32
402.859	277.21
403.305	265.5
403.75	331.04
404.196	354.44
404.641	265.5
405.086	321.68
405.532	298.27
405.977	256.14
406.422	300.61
406.867	312.32
407.312	326.36
407.757	305.29
408.202	284.23
408.647	291.25
409.092	373.17
409.537	314.66
409.982	298.27
410.426	335.72
410.871	286.57
411.316	394.23
411.76	312.32
412.205	263.16
412.649	291.25
413.093	288.91
413.538	291.25
413.982	284.23
414.426	272.53
414.87	291.25
415.314	319.34
415.758	338.06
416.202	340.4
416.646	324.02
417.09	286.57
417.534	352.1
417.978	347.42
418.421	288.91
418.865	331.04
419.309	335.72
419.752	391.89
420.196	281.89
420.639	356.79
421.083	317
421.526	267.85
421.969	258.48
422.412	319.34
422.856	324.02
423.299	319.34
423.742	340.4
424.185	317
424.628	338.06
425.071	312.32
425.513	291.25
425.956	312.32
426.399	314.66
426.842	295.93
427.284	317
427.727	370.83
428.169	284.23
428.612	279.55
429.054	232.74
429.497	235.08
429.939	284.23
430.381	279.55
430.823	216.35
431.265	267.85
431.707	324.02
432.149	326.36
432.591	328.7
433.033	342.74
433.475	331.04
433.917	256.14
434.359	309.97
434.8	347.42
435.242	345.08
435.684	340.4
436.125	335.72
436.567	342.74
437.008	295.93
437.449	309.97
437.891	317
438.332	291.25
438.773	284.23
439.214	256.14
439.656	370.83
440.097	300.61
440.538	319.34
440.978	345.08
441.419	274.87
441.86	260.82
442.301	324.02
442.742	319.34
443.182	324.02
443.623	302.95
444.063	286.57
444.504	302.95
444.944	314.66
445.385	284.23
445.825	335.72
446.265	284.23
446.706	242.1
447.146	354.44
447.586	293.59
448.026	342.74
448.466	321.68
448.906	277.21
449.346	295.93
449.786	312.32
450.225	302.95
450.665	340.4
451.105	293.59
451.544	326.36
451.984	302.95
452.424	274.87
452.863	302.95
453.302	317
453.742	295.93
454.181	298.27
454.62	317
455.059	288.91
455.499	258.48
455.938	279.55
456.377	333.38
456.816	338.06
457.254	309.97
457.693	331.04
458.132	333.38
458.571	279.55
459.01	309.97
459.448	263.16
459.887	326.36
460.325	260.82
460.764	253.8
461.202	249.12
461.641	309.97
462.079	347.42
462.517	352.1
462.955	305.29
463.393	382.53
463.832	305.29
464.27	319.34
464.708	331.04
465.145	321.68
465.583	272.53
466.021	302.95
466.459	333.38
466.897	307.63
467.334	167.2
467.772	352.1
468.209	317
468.647	284.23
469.084	305.29
469.522	300.61
469.959	298.27
470.396	375.51
470.833	331.04
471.271	251.46
471.708	291.25
472.145	300.61
472.582	277.21
473.019	307.63
473.456	281.89
473.892	258.48
474.329	277.21
474.766	298.27
475.202	338.06
475.639	347.42
476.076	382.53
476.512	298.27
476.949	324.02
477.385	253.8
477.821	263.16
478.258	305.29
478.694	338.06
479.13	298.27
479.566	230.4
480.002	314.66
480.438	293.59
480.874	309.97
481.31	309.97
481.746	284.23
482.181	331.04
482.617	317
483.053	291.25
483.488	244.44
483.924	293.59
484.36	298.27
484.795	295.93
485.23	333.38
485.666	356.79
486.101	317
486.536	333.38
486.971	345.08
487.407	279.55
487.842	328.7
488.277	328.7
488.712	326.36
489.146	272.53
489.581	295.93
490.016	295.93
490.451	295.93
490.885	295.93
491.32	291.25
491.755	405.94
492.189	307.63
492.624	331.04
493.058	349.76
493.492	267.85
493.927	288.91
494.361	342.74
494.795	298.27
495.229	307.63
495.663	274.87
496.097	281.89
496.531	279.55
496.965	253.8
497.399	305.29
497.833	242.1
498.266	263.16
498.7	356.79
499.134	305.29
499.567	312.32
500.001	277.21
500.434	235.08
500.868	342.74
501.301	317
501.734	312.32
502.168	274.87
502.601	309.97
503.034	321.68
503.467	258.48
503.9	307.63
504.333	331.04
504.766	319.34
505.199	298.27
505.632	288.91
506.064	319.34
506.497	265.5
506.93	370.83
507.362	309.97
507.795	328.7
508.227	352.1
508.66	312.32
509.092	284.23
509.524	314.66
509.956	267.85
510.389	317
510.821	312.32
511.253	209.33
511.685	354.44
512.117	307.63
512.549	319.34
512.981	288.91
513.412	288.91
513.844	328.7
514.276	333.38
514.707	338.06
515.139	277.21
515.571	338.06
516.002	342.74
516.433	302.95
516.865	319.34
517.296	312.32
517.727	291.25
518.159	368.49
518.59	368.49
519.021	384.87
519.452	317
519.883	342.74
520.314	298.27
520.744	335.72
521.175	300.61
521.606	370.83
522.037	321.68
522.467	300.61
522.898	347.42
523.328	319.34
523.759	256.14
524.189	260.82
524.62	333.38
525.05	295.93
525.48	267.85
525.91	279.55
526.341	272.53
526.771	326.36
527.201	321.68
527.631	265.5
528.061	356.79
528.49	366.15
528.92	333.38
529.35	317
529.78	260.82
530.209	319.34
530.639	305.29
531.068	293.59
531.498	342.74
531.927	300.61
532.357	286.57
532.786	302.95
533.215	331.04
533.644	345.08
534.074	314.66
534.503	317
534.932	274.87
535.361	359.13
535.79	314.66
536.218	312.32
536.647	324.02
537.076	274.87
537.505	363.81
537.933	293.59
538.362	354.44
538.79	298.27
539.219	260.82
539.647	295.93
540.076	293.59
540.504	342.74
540.932	314.66
541.36	398.92
541.788	251.46
542.217	335.72
542.645	293.59
543.073	340.4
543.5	307.63
543.928	286.57
544.356	361.47
544.784	335.72
545.211	312.32
545.639	319.34
546.067	317
546.494	288.91
546.922	277.21
547.349	279.55
547.776	295.93
548.204	347.42
548.631	258.48
549.058	274.87
549.485	277.21
549.912	312.32
550.339	375.51
550.766	326.36
551.193	331.04
551.62	321.68
552.047	326.36
552.474	333.38
552.9	328.7
553.327	298.27
553.754	260.82
554.18	300.61
554.607	317
555.033	342.74
555.459	309.97
555.886	277.21
556.312	286.57
556.738	253.8
557.164	359.13
557.59	258.48
558.016	302.95
558.442	298.27
558.868	352.1
559.294	335.72
559.72	312.32
560.145	284.23
560.571	291.25
560.997	284.23
561.422	263.16
561.848	307.63
562.273	331.04
562.699	338.06
563.124	331.04
563.549	356.79
563.974	300.61
564.4	302.95
564.825	281.89
565.25	302.95
565.675	281.89
566.1	347.42
566.525	317
566.95	366.15
567.374	284.23
567.799	267.85
568.224	309.97
568.648	305.29
569.073	305.29
569.497	288.91
569.922	298.27
570.346	338.06
570.771	312.32
571.195	382.53
571.619	328.7
572.043	309.97
572.467	305.29
572.891	246.78
573.315	319.34
573.739	338.06
574.163	309.97
574.587	349.76
575.011	265.5
575.435	338.06
575.858	314.66
576.282	309.97
576.705	312.32
577.129	302.95
577.552	281.89
577.976	354.44
578.399	338.06
578.822	260.82
579.245	228.06
579.669	314.66
580.092	398.92
580.515	328.7
580.938	328.7
581.361	340.4
581.784	274.87
582.206	265.5
582.629	328.7
583.052	258.48
583.474	293.59
583.897	321.68
584.32	349.76
584.742	319.34
585.165	326.36
585.587	302.95
586.009	293.59
586.431	270.19
586.854	309.97
587.276	295.93
587.698	274.87
588.12	326.36
588.542	333.38
588.964	267.85
589.386	368.49
589.807	302.95
590.229	352.1
590.651	345.08
591.073	331.04
591.494	302.95
591.916	284.23
592.337	298.27
592.759	319.34
593.18	321.68
593.601	354.44
594.022	218.69
594.444	277.21
594.865	300.61
595.286	331.04
595.707	300.61
596.128	293.59
596.549	382.53
596.97	305.29
597.39	270.19
597.811	281.89
598.232	298.27
598.652	324.02
599.073	335.72
599.494	300.61
599.914	258.48
600.334	309.97
600.755	326.36
601.175	314.66
601.595	380.19
602.015	340.4
602.436	300.61
602.856	384.87
603.276	340.4
603.696	270.19
604.115	335.72
604.535	328.7
604.955	211.67
605.375	246.78
605.794	352.1
606.214	230.4
606.634	352.1
607.053	307.63
607.473	302.95
607.892	340.4
608.311	260.82
608.731	270.19
609.15	291.25
609.569	288.91
609.988	326.36
610.407	319.34
610.826	267.85
611.245	370.83
611.664	286.57
612.083	239.76
612.501	263.16
612.92	382.53
613.339	317
613.757	321.68
614.176	368.49
614.594	333.38
615.013	314.66
615.431	356.79
615.85	288.91
616.268	284.23
616.686	345.08
617.104	307.63
617.522	309.97
617.94	342.74
618.358	284.23
618.776	347.42
619.194	338.06
619.612	291.25
620.03	256.14
620.447	340.4
620.865	305.29
621.282	319.34
621.7	295.93
622.117	293.59
622.535	340.4
622.952	359.13
623.369	342.74
623.787	265.5
624.204	298.27
624.621	293.59
625.038	321.68
625.455	326.36
625.872	298.27
626.289	347.42
626.706	237.42
627.123	274.87
627.539	295.93
627.956	328.7
628.373	314.66
628.789	284.23
629.206	359.13
629.622	312.32
630.038	305.29
630.455	321.68
630.871	279.55
631.287	307.63
631.703	387.21
632.12	345.08
632.536	363.81
632.952	291.25
633.368	295.93
633.783	307.63
634.199	328.7
634.615	300.61
635.031	333.38
635.446	368.49
635.862	305.29
636.277	342.74
636.693	295.93
637.108	377.85
637.524	288.91
637.939	335.72
638.354	331.04
638.77	270.19
639.185	270.19
639.6	328.7
640.015	286.57
640.43	321.68
640.845	291.25
641.259	309.97
641.674	309.97
642.089	321.68
642.504	228.06
642.918	338.06
643.333	272.53
643.747	305.29
644.162	321.68
644.576	377.85
644.991	324.02
645.405	272.53
645.819	307.63
646.233	298.27
646.647	331.04
647.061	312.32
647.475	356.79
647.889	319.34
648.303	272.53
648.717	331.04
649.131	349.76
649.545	314.66
649.958	347.42
650.372	342.74
650.785	312.32
651.199	312.32
651.612	340.4
652.026	253.8
652.439	312.32
652.852	251.46
653.266	246.78
653.679	293.59
654.092	347.42
654.505	340.4
654.918	267.85
655.331	293.59
655.744	293.59
656.156	267.85
656.569	279.55
656.982	265.5
657.394	321.68
657.807	293.59
658.22	359.13
658.632	314.66
659.044	340.4
659.457	317
659.869	335.72
660.281	209.33
660.693	363.81
661.106	293.59
661.518	319.34
661.93	352.1
662.342	349.76
662.754	263.16
663.165	260.82
663.577	300.61
663.989	223.37
664.401	256.14
664.812	300.61
665.224	338.06
665.635	286.57
666.047	291.25
666.458	288.91
666.869	333.38
667.281	319.34
667.692	335.72
668.103	309.97
668.514	286.57
668.925	265.5
669.336	263.16
669.747	300.61
670.158	314.66
670.569	321.68
670.979	293.59
671.39	356.79
671.801	338.06
672.211	302.95
672.622	340.4
673.032	307.63
673.443	324.02
673.853	347.42
674.263	345.08
674.674	363.81
675.084	309.97
675.494	279.55
675.904	291.25
676.314	272.53
676.724	309.97
677.134	333.38
677.544	361.47
677.953	314.66
678.363	366.15
678.773	370.83
679.182	298.27
679.592	302.95
680.001	359.13
680.411	305.29
680.82	284.23
681.23	300.61
681.639	312.32
682.048	317
682.457	345.08
682.866	274.87
683.275	253.8
683.684	265.5
684.093	338.06
684.502	328.7
684.911	242.1
685.32	347.42
685.728	288.91
686.137	267.85
686.546	305.29
686.954	267.85
687.363	314.66
687.771	384.87
688.179	387.21
688.588	284.23
688.996	279.55
689.404	274.87
689.812	328.7
690.22	246.78
690.628	317
691.036	295.93
691.444	298.27
691.852	319.34
692.26	270.19
692.667	258.48
693.075	265.5
693.483	319.34
693.89	305.29
694.298	319.34
694.705	288.91
695.112	349.76
695.52	295.93
695.927	349.76
696.334	253.8
696.741	267.85
697.148	298.27
697.555	317
697.962	391.89
698.369	300.61
698.776	302.95
699.183	352.1
699.59	324.02
699.996	305.29
700.403	286.57
700.81	279.55
701.216	340.4
701.623	340.4
702.029	302.95
702.435	354.44
702.842	347.42
703.248	331.04
703.654	223.37
704.06	307.63
704.466	333.38
704.872	305.29
705.278	321.68
705.684	328.7
706.09	314.66
706.496	298.27
706.901	321.68
707.307	345.08
707.712	286.57
708.118	302.95
708.523	230.4
708.929	298.27
709.334	300.61
709.74	312.32
710.145	326.36
710.55	373.17
710.955	286.57
711.36	277.21
711.765	331.04
712.17	300.61
712.575	300.61
712.98	831.91
713.385	307.63
713.789	284.23
714.194	295.93
714.599	286.57
715.003	309.97
715.408	267.85
715.812	312.32
716.217	321.68
716.621	340.4
717.025	300.61
717.429	312.32
717.833	377.85
718.238	293.59
718.642	298.27
719.046	347.42
719.449	260.82
719.853	288.91
720.257	293.59
720.661	398.92
721.065	361.47
721.468	370.83
721.872	324.02
722.275	298.27
722.679	256.14
723.082	321.68
723.485	312.32
723.889	293.59
724.292	319.34
724.695	279.55
725.098	312.32
725.501	307.63
725.904	256.14
726.307	281.89
726.71	338.06
727.113	302.95
727.516	258.48
727.918	274.87
728.321	286.57
728.724	281.89
729.126	321.68
729.529	293.59
729.931	237.42
730.333	288.91
730.736	253.8
731.138	349.76
731.54	298.27
731.942	354.44
732.344	314.66
732.746	291.25
733.148	331.04
733.55	295.93
733.952	309.97
734.354	317
734.756	267.85
735.157	284.23
735.559	307.63
735.96	272.53
736.362	314.66
736.763	340.4
737.165	260.82
737.566	258.48
737.967	309.97
738.368	345.08
738.77	293.59
739.171	286.57
739.572	302.95
739.973	300.61
740.374	281.89
740.774	260.82
741.175	307.63
741.576	298.27
741.977	333.38
742.377	300.61
742.778	281.89
743.178	230.4
743.579	291.25
743.979	274.87
744.379	328.7
744.78	295.93
745.18	298.27
745.58	295.93
745.98	317
746.38	309.97
746.78	293.59
747.18	366.15
747.58	288.91
747.98	249.12
748.38	286.57
748.779	340.4
749.179	333.38
749.578	295.93
749.978	335.72
750.377	335.72
750.777	228.06
751.176	270.19
751.575	288.91
751.975	281.89
752.374	328.7
752.773	302.95
753.172	324.02
753.571	249.12
753.97	305.29
754.369	380.19
754.768	256.14
755.166	373.17
755.565	270.19
755.964	345.08
756.362	242.1
756.761	307.63
757.159	230.4
757.558	295.93
757.956	347.42
758.354	347.42
758.753	277.21
759.151	265.5
759.549	307.63
759.947	309.97
760.345	244.44
760.743	302.95
761.141	270.19
761.539	314.66
761.936	352.1
762.334	342.74
762.732	317
763.129	291.25
763.527	401.26
763.924	349.76
764.322	265.5
764.719	314.66
765.117	347.42
765.514	216.35
765.911	340.4
766.308	302.95
766.705	288.91
767.102	295.93
767.499	319.34
767.896	312.32
768.293	298.27
768.69	295.93
769.086	331.04
769.483	249.12
769.88	279.55
770.276	239.76
770.673	288.91
771.069	359.13
771.466	359.13
771.862	305.29
772.258	312.32
772.654	249.12
773.05	331.04
773.447	331.04
773.843	340.4
774.239	256.14
774.634	298.27
775.03	302.95
775.426	307.63
775.822	363.81
776.218	321.68
776.613	342.74
777.009	359.13
777.404	352.1
777.8	309.97
778.195	293.59
778.59	293.59
778.986	307.63
779.381	256.14
779.776	352.1
780.171	270.19
780.566	331.04
780.961	394.23
781.356	317
781.751	345.08
782.146	319.34
782.54	260.82
782.935	356.79
783.33	267.85
783.724	272.53
784.119	370.83
784.513	328.7
784.908	253.8
785.302	331.04
785.696	267.85
786.09	373.17
786.485	305.29
786.879	281.89
787.273	279.55
787.667	317
788.061	328.7
788.454	279.55
788.848	235.08
789.242	291.25
789.636	239.76
790.029	319.34
790.423	286.57
790.816	309.97
791.21	309.97
791.603	270.19
791.997	295.93
792.39	317
792.783	389.55
793.176	314.66
793.569	263.16
793.962	270.19
794.355	295.93
794.748	288.91
795.141	279.55
795.534	267.85
795.927	281.89
796.319	349.76
796.712	309.97
797.105	319.34
797.497	288.91
797.89	291.25
798.282	321.68
798.674	309.97
799.067	277.21
799.459	286.57
799.851	356.79
800.243	340.4
800.635	286.57
801.027	251.46
801.419	312.32
801.811	338.06
802.203	298.27
802.594	284.23
802.986	338.06
803.378	260.82
803.769	328.7
804.161	319.34
804.552	288.91
804.944	324.02
805.335	324.02
805.726	225.72
806.118	295.93
806.509	328.7
806.9	312.32
807.291	298.27
807.682	267.85
808.073	288.91
808.464	253.8
808.855	317
809.245	291.25
809.636	326.36
810.027	272.53
810.417	324.02
810.808	272.53
811.198	338.06
811.589	319.34
811.979	272.53
812.369	256.14
812.759	319.34
813.15	253.8
813.54	295.93
813.93	314.66
814.32	260.82
814.71	253.8
815.1	295.93
815.489	256.14
815.879	312.32
816.269	239.76
816.658	436.36
817.048	317
817.438	312.32
817.827	317
818.216	317
818.606	270.19
818.995	305.29
819.384	345.08
819.773	309.97
820.163	324.02
820.552	309.97
820.941	302.95
821.33	338.06
821.718	309.97
822.107	298.27
822.496	314.66
822.885	326.36
823.273	342.74
823.662	263.16
824.05	295.93
824.439	274.87
824.827	225.72
825.216	298.27
825.604	324.02
825.992	298.27
826.38	293.59
826.768	300.61
827.156	277.21
827.544	331.04
827.932	319.34
828.32	260.82
828.708	272.53
829.096	260.82
829.483	321.68
829.871	352.1
830.259	356.79
830.646	277.21
831.034	277.21
831.421	326.36
831.808	331.04
832.196	342.74
832.583	312.32
832.97	326.36
833.357	309.97
833.744	293.59
834.131	345.08
834.518	317
834.905	258.48
835.292	295.93
835.678	293.59
836.065	263.16
836.452	338.06
836.838	321.68
837.225	284.23
837.611	363.81
837.998	324.02
838.384	305.29
838.77	260.82
839.157	335.72
839.543	235.08
839.929	307.63
840.315	251.46
840.701	253.8
841.087	295.93
841.473	305.29
841.858	295.93
842.244	319.34
842.63	375.51
843.015	317
843.401	635.31
843.787	274.87
844.172	314.66
844.557	286.57
844.943	249.12
845.328	291.25
845.713	274.87
846.098	363.81
846.483	232.74
846.868	288.91
847.253	328.7
847.638	331.04
848.023	352.1
848.408	300.61
848.793	281.89
849.177	309.97
849.562	312.32
849.947	265.5
850.331	295.93
850.715	342.74
851.1	314.66
851.484	312.32
851.868	279.55
852.253	312.32
852.637	312.32
853.021	274.87
853.405	307.63
853.789	258.48
854.173	298.27
854.557	302.95
854.94	317
855.324	305.29
855.708	288.91
856.091	277.21
856.475	265.5
856.858	281.89
857.242	302.95
857.625	333.38
858.009	321.68
858.392	340.4
858.775	258.48
859.158	307.63
859.541	260.82
859.924	251.46
860.307	368.49
860.69	288.91
861.073	291.25
861.456	305.29
861.838	352.1
862.221	354.44
862.604	314.66
862.986	267.85
863.369	377.85
863.751	274.87
864.133	267.85
864.516	302.95
864.898	335.72
865.28	251.46
865.662	354.44
866.044	307.63
866.426	274.87
866.808	319.34
867.19	263.16
867.572	258.48
867.954	361.47
868.336	359.13
868.717	277.21
869.099	281.89
869.48	307.63
869.862	298.27
870.243	274.87
870.625	242.1
871.006	328.7
871.387	328.7
871.768	267.85
872.149	317
872.53	347.42
872.911	319.34
873.292	314.66
873.673	331.04
874.054	314.66
874.435	244.44
874.815	286.57
875.196	260.82
875.577	419.98
875.957	317
876.338	239.76
876.718	274.87
877.098	300.61
877.479	324.02
877.859	324.02
878.239	293.59
878.619	331.04
878.999	263.16
879.379	335.72
879.759	302.95
880.139	246.78
880.519	260.82
880.898	328.7
881.278	370.83
881.658	218.69
882.037	312.32
882.417	239.76
882.796	286.57
883.176	288.91
883.555	321.68
883.934	354.44
884.313	218.69
884.693	237.42
885.072	324.02
885.451	298.27
885.83	244.44
886.209	317
886.587	359.13
886.966	279.55
887.345	277.21
887.724	258.48
888.102	253.8
888.481	302.95
888.859	394.23
889.238	331.04
889.616	270.19
889.994	333.38
890.373	312.32
890.751	300.61
891.129	326.36
891.507	333.38
891.885	270.19
892.263	265.5
892.641	305.29
893.019	253.8
893.396	331.04
893.774	277.21
894.152	312.32
894.529	368.49
894.907	324.02
895.284	251.46
895.662	359.13
896.039	279.55
896.416	307.63
896.794	335.72
897.171	249.12
897.548	331.04
897.925	305.29
898.302	277.21
898.679	291.25
899.056	345.08
899.433	321.68
899.809	260.82
900.186	242.1
900.563	342.74
900.939	272.53
901.316	307.63
901.692	309.97
902.069	253.8
902.445	293.59
902.821	338.06
903.197	291.25
903.574	277.21
903.95	300.61
904.326	256.14
904.702	272.53
905.078	342.74
905.454	246.78
905.829	380.19
906.205	199.97
906.581	300.61
906.956	284.23
907.332	302.95
907.707	317
908.083	279.55
908.458	244.44
908.833	260.82
909.209	251.46
909.584	300.61
909.959	295.93
910.334	356.79
910.709	267.85
911.084	272.53
911.459	356.79
911.834	326.36
912.209	384.87
912.583	274.87
912.958	333.38
913.333	295.93
913.707	356.79
914.082	267.85
914.456	260.82
914.83	368.49
915.205	354.44
915.579	300.61
915.953	298.27
916.327	324.02
916.701	377.85
917.075	300.61
917.449	338.06
917.823	300.61
918.197	284.23
918.571	279.55
918.944	295.93
919.318	277.21
919.692	281.89
920.065	331.04
920.438	281.89
920.812	284.23
921.185	340.4
921.558	267.85
921.932	284.23
922.305	328.7
922.678	321.68
923.051	349.76
923.424	302.95
923.797	270.19
924.17	370.83
924.542	349.76
924.915	349.76
925.288	298.27
925.661	267.85
926.033	265.5
926.406	340.4
926.778	279.55
927.15	230.4
927.523	242.1
927.895	345.08
928.267	298.27
928.639	249.12
929.011	228.06
929.383	328.7
929.755	324.02
930.127	244.44
930.499	321.68
930.871	317
931.242	281.89
931.614	274.87
931.986	295.93
932.357	307.63
932.729	309.97
933.1	258.48
933.471	349.76
933.843	279.55
934.214	272.53
934.585	295.93
934.956	331.04
935.327	288.91
935.698	267.85
936.069	319.34
936.44	237.42
936.811	237.42
937.182	314.66
937.552	326.36
937.923	347.42
938.293	293.59
938.664	293.59
939.034	331.04
939.405	291.25
939.775	309.97
940.145	209.33
940.516	288.91
940.886	302.95
941.256	319.34
941.626	389.55
941.996	345.08
942.366	352.1
942.735	317
943.105	230.4
943.475	242.1
943.845	281.89
944.214	265.5
944.584	295.93
944.953	382.53
945.323	286.57
945.692	249.12
946.061	321.68
946.43	242.1
946.8	295.93
947.169	368.49
947.538	321.68
947.907	321.68
948.276	291.25
948.645	335.72
949.013	302.95
949.382	246.78
949.751	293.59
950.119	314.66
950.488	286.57
950.857	331.04
951.225	293.59
951.593	331.04
951.962	354.44
952.33	326.36
952.698	265.5
953.066	232.74
953.434	270.19
953.802	300.61
954.17	277.21
954.538	256.14
954.906	300.61
955.274	291.25
955.642	324.02
956.009	298.27
956.377	284.23
956.744	305.29
957.112	281.89
957.479	312.32
957.847	314.66
958.214	214.01
958.581	335.72
958.948	328.7
959.315	326.36
959.683	317
960.05	314.66
960.416	295.93
960.783	272.53
961.15	309.97
961.517	291.25
961.884	293.59
962.25	274.87
962.617	295.93
962.983	309.97
963.35	286.57
963.716	326.36
964.082	270.19
964.449	302.95
964.815	328.7
965.181	298.27
965.547	235.08
965.913	309.97
966.279	363.81
966.645	305.29
967.011	314.66
967.377	309.97
967.742	328.7
968.108	305.29
968.474	321.68
968.839	242.1
969.205	342.74
969.57	305.29
969.935	387.21
970.301	349.76
970.666	361.47
971.031	321.68
971.396	317
971.761	321.68
972.126	242.1
972.491	307.63
972.856	260.82
973.221	263.16
973.586	265.5
973.95	263.16
974.315	338.06
974.679	295.93
975.044	267.85
975.408	279.55
975.773	277.21
976.137	291.25
976.501	228.06
976.866	326.36
977.23	291.25
977.594	307.63
977.958	342.74
978.322	298.27
978.686	272.53
979.049	291.25
979.413	305.29
979.777	326.36
980.141	305.29
980.504	338.06
980.868	277.21
981.231	307.63
981.595	277.21
981.958	270.19
982.321	281.89
982.684	317
983.048	333.38
983.411	335.72
983.774	281.89
984.137	295.93
984.5	295.93
984.862	256.14
985.225	319.34
985.588	324.02
985.951	331.04
986.313	270.19
986.676	307.63
987.038	305.29
987.401	246.78
987.763	298.27
988.125	324.02
988.488	295.93
988.85	284.23
989.212	293.59
989.574	305.29
989.936	377.85
990.298	317
990.66	302.95
991.022	274.87
991.383	345.08
991.745	307.63
992.107	253.8
992.468	302.95
992.83	312.32
993.191	333.38
993.553	319.34
993.914	291.25
994.275	298.27
994.637	293.59
994.998	317
995.359	342.74
995.72	272.53
996.081	309.97
996.442	251.46
996.803	324.02
997.163	354.44
997.524	309.97
997.885	347.42
998.245	286.57
998.606	298.27
998.966	347.42
999.327	235.08
999.687	295.93
1000.047	228.06
1000.408	277.21
1000.768	370.83
1001.128	295.93
1001.488	312.32
1001.848	246.78
1002.208	256.14
1002.568	302.95
1002.927	307.63
1003.287	312.32
1003.647	349.76
1004.007	251.46
1004.366	293.59
1004.726	314.66
1005.085	260.82
1005.444	317
1005.804	352.1
1006.163	246.78
1006.522	270.19
1006.881	347.42
1007.24	267.85
1007.599	321.68
1007.958	377.85
1008.317	239.76
1008.676	291.25
1009.035	317
1009.393	317
1009.752	335.72
1010.111	317
1010.469	309.97
1010.828	277.21
1011.186	291.25
1011.544	291.25
1011.903	263.16
1012.261	281.89
1012.619	345.08
1012.977	281.89
1013.335	277.21
1013.693	375.51
1014.051	305.29
1014.409	206.99
1014.767	286.57
1015.124	317
1015.482	333.38
1015.84	321.68
1016.197	328.7
1016.555	256.14
1016.912	295.93
1017.269	293.59
1017.627	317
1017.984	281.89
1018.341	326.36
1018.698	274.87
1019.055	251.46
1019.412	216.35
1019.769	239.76
1020.126	300.61
1020.483	298.27
1020.84	206.99
1021.196	324.02
1021.553	242.1
1021.909	295.93
1022.266	230.4
1022.622	277.21
1022.979	302.95
1023.335	389.55
1023.691	317
1024.047	317
1024.404	307.63
1024.76	270.19
1025.116	284.23
1025.472	314.66
1025.827	333.38
1026.183	333.38
1026.539	286.57
1026.895	317
1027.25	279.55
1027.606	345.08
1027.961	307.63
1028.317	307.63
1028.672	258.48
1029.028	258.48
1029.383	328.7
1029.738	370.83
1030.093	253.8
1030.448	321.68
1030.803	373.17
1031.158	291.25
1031.513	331.04
1031.868	295.93
1032.223	246.78
1032.577	263.16
1032.932	258.48
1033.287	293.59
1033.641	302.95
1033.996	270.19
1034.35	328.7
1034.704	293.59
1035.059	293.59
1035.413	218.69
1035.767	218.69
1036.121	218.69
