Data from Al_FLMS009871__828__15-30-06-697.txt Node

Date: Fri Mar 08 15:30:06 CST 2024
User: pe5414po
Spectrometer: FLMS00987
Trigger mode: 0
Integration Time (sec): 1.000000E-1
Scans to average: 1
Electric dark correction enabled: true
Nonlinearity correction enabled: false
Boxcar width: 0
XAxis mode: Wavelengths
Number of Pixels in Spectrum: 2048
>>>>>Begin Spectral Data<<<<<
188.938	-21.36
189.409	-21.36
189.879	-21.36
190.349	-51.78
190.819	-147.75
191.29	-110.3
191.76	-124.34
192.23	-79.87
192.7	-122
193.17	-93.91
193.64	-33.06
194.109	20.77
194.579	4.39
195.049	-30.72
195.519	53.54
195.988	-0.29
196.458	69.92
196.927	51.2
197.397	95.67
197.866	179.93
198.336	119.07
198.805	126.1
199.274	116.73
199.744	224.4
200.213	196.31
200.682	175.25
201.151	233.76
201.62	275.89
202.089	268.87
202.558	301.64
203.027	184.61
203.495	189.29
203.964	313.34
204.433	250.14
204.902	271.21
205.37	231.42
205.839	224.4
206.307	271.21
206.776	231.42
207.244	306.32
207.712	353.13
208.181	311
208.649	334.4
209.117	264.19
209.585	254.83
210.053	292.27
210.521	271.21
210.989	240.78
211.457	303.98
211.925	280.57
212.393	275.89
212.861	287.59
213.328	315.68
213.796	261.85
214.264	320.36
214.731	275.89
215.199	334.4
215.666	315.68
216.133	236.1
216.601	294.61
217.068	247.8
217.535	226.74
218.003	292.27
218.47	289.93
218.937	200.99
219.404	224.4
219.871	322.7
220.338	271.21
220.805	222.06
221.271	233.76
221.738	245.46
222.205	238.44
222.671	259.51
223.138	278.23
223.605	273.55
224.071	280.57
224.538	271.21
225.004	259.51
225.47	264.19
225.937	224.4
226.403	329.72
226.869	268.87
227.335	296.96
227.801	266.53
228.267	273.55
228.733	308.66
229.199	226.74
229.665	278.23
230.131	233.76
230.597	289.93
231.062	282.91
231.528	233.76
231.994	296.96
232.459	278.23
232.925	273.55
233.39	252.49
233.856	245.46
234.321	236.1
234.786	301.64
235.252	280.57
235.717	306.32
236.182	247.8
236.647	261.85
237.112	308.66
237.577	217.38
238.042	301.64
238.507	308.66
238.972	301.64
239.436	320.36
239.901	252.49
240.366	257.17
240.83	278.23
241.295	233.76
241.76	172.91
242.224	264.19
242.688	308.66
243.153	231.42
243.617	311
244.081	289.93
244.545	257.17
245.01	278.23
245.474	240.78
245.938	252.49
246.402	320.36
246.866	247.8
247.33	254.83
247.793	254.83
248.257	306.32
248.721	238.44
249.185	247.8
249.648	210.36
250.112	332.06
250.575	273.55
251.039	308.66
251.502	219.72
251.965	285.25
252.429	224.4
252.892	303.98
253.355	259.51
253.818	266.53
254.281	350.79
254.744	268.87
255.207	289.93
255.67	208.02
256.133	271.21
256.596	289.93
257.059	278.23
257.522	343.77
257.984	275.89
258.447	250.14
258.909	339.09
259.372	254.83
259.834	287.59
260.297	247.8
260.759	292.27
261.221	261.85
261.684	257.17
262.146	273.55
262.608	313.34
263.07	285.25
263.532	268.87
263.994	271.21
264.456	294.61
264.918	313.34
265.38	261.85
265.842	301.64
266.303	339.09
266.765	247.8
267.227	318.02
267.688	320.36
268.15	308.66
268.611	322.7
269.072	336.74
269.534	292.27
269.995	285.25
270.456	254.83
270.918	332.06
271.379	301.64
271.84	275.89
272.301	313.34
272.762	289.93
273.223	313.34
273.684	289.93
274.144	271.21
274.605	219.72
275.066	334.4
275.527	294.61
275.987	264.19
276.448	254.83
276.908	271.21
277.369	287.59
277.829	378.87
278.289	243.12
278.75	215.04
279.21	315.68
279.67	259.51
280.13	275.89
280.59	250.14
281.05	339.09
281.51	292.27
281.97	264.19
282.43	275.89
282.89	334.4
283.35	247.8
283.809	280.57
284.269	350.79
284.729	313.34
285.188	208.02
285.648	224.4
286.107	311
286.567	318.02
287.026	318.02
287.485	308.66
287.944	282.91
288.404	350.79
288.863	273.55
289.322	325.04
289.781	282.91
290.24	289.93
290.699	257.17
291.158	289.93
291.616	301.64
292.075	224.4
292.534	329.72
292.992	271.21
293.451	320.36
293.91	289.93
294.368	268.87
294.827	247.8
295.285	268.87
295.743	308.66
296.202	254.83
296.66	296.96
297.118	285.25
297.576	325.04
298.034	296.96
298.492	261.85
298.95	306.32
299.408	318.02
299.866	301.64
300.324	259.51
300.781	325.04
301.239	334.4
301.697	315.68
302.154	308.66
302.612	268.87
303.069	259.51
303.527	306.32
303.984	278.23
304.441	273.55
304.899	254.83
305.356	301.64
305.813	254.83
306.27	254.83
306.727	294.61
307.184	318.02
307.641	280.57
308.098	303.98
308.555	318.02
309.012	332.06
309.468	245.46
309.925	296.96
310.382	341.43
310.838	292.27
311.295	327.38
311.751	285.25
312.208	348.45
312.664	247.8
313.12	322.7
313.577	320.36
314.033	294.61
314.489	299.3
314.945	271.21
315.401	318.02
315.857	360.15
316.313	294.61
316.769	273.55
317.225	306.32
317.681	296.96
318.136	350.79
318.592	285.25
319.048	261.85
319.503	245.46
319.959	292.27
320.414	219.72
320.869	303.98
321.325	320.36
321.78	303.98
322.235	350.79
322.691	271.21
323.146	303.98
323.601	257.17
324.056	247.8
324.511	355.47
324.966	315.68
325.421	299.3
325.875	327.38
326.33	243.12
326.785	278.23
327.24	278.23
327.694	250.14
328.149	339.09
328.603	362.49
329.058	320.36
329.512	301.64
329.966	367.17
330.421	289.93
330.875	311
331.329	294.61
331.783	257.17
332.237	303.98
332.691	343.77
333.145	303.98
333.599	350.79
334.053	308.66
334.507	383.56
334.96	287.59
335.414	336.74
335.868	285.25
336.321	301.64
336.775	245.46
337.228	320.36
337.682	367.17
338.135	308.66
338.588	313.34
339.042	318.02
339.495	332.06
339.948	318.02
340.401	315.68
340.854	303.98
341.307	301.64
341.76	233.76
342.213	320.36
342.666	296.96
343.119	294.61
343.571	210.36
344.024	264.19
344.477	299.3
344.929	325.04
345.382	294.61
345.834	280.57
346.287	327.38
346.739	296.96
347.191	376.53
347.644	322.7
348.096	296.96
348.548	264.19
349	325.04
349.452	336.74
349.904	299.3
350.356	348.45
350.808	332.06
351.26	306.32
351.711	292.27
352.163	348.45
352.615	336.74
353.066	327.38
353.518	329.72
353.969	374.19
354.421	327.38
354.872	259.51
355.324	339.09
355.775	285.25
356.226	329.72
356.677	296.96
357.128	250.14
357.579	280.57
358.03	285.25
358.481	341.43
358.932	278.23
359.383	292.27
359.834	325.04
360.285	346.11
360.735	280.57
361.186	301.64
361.637	285.25
362.087	320.36
362.538	292.27
362.988	306.32
363.438	313.34
363.889	332.06
364.339	294.61
364.789	308.66
365.239	343.77
365.689	355.47
366.139	336.74
366.589	280.57
367.039	259.51
367.489	278.23
367.939	334.4
368.389	268.87
368.839	273.55
369.288	320.36
369.738	306.32
370.187	282.91
370.637	334.4
371.086	289.93
371.536	261.85
371.985	287.59
372.434	341.43
372.884	278.23
373.333	339.09
373.782	311
374.231	250.14
374.68	318.02
375.129	353.13
375.578	308.66
376.027	332.06
376.475	282.91
376.924	264.19
377.373	292.27
377.822	320.36
378.27	257.17
378.719	233.76
379.167	346.11
379.616	350.79
380.064	350.79
380.512	261.85
380.961	320.36
381.409	315.68
381.857	322.7
382.305	392.92
382.753	376.53
383.201	261.85
383.649	292.27
384.097	350.79
384.545	334.4
384.992	289.93
385.44	339.09
385.888	318.02
386.335	318.02
386.783	362.49
387.231	329.72
387.678	341.43
388.125	311
388.573	325.04
389.02	315.68
389.467	313.34
389.914	261.85
390.362	285.25
390.809	367.17
391.256	362.49
391.703	346.11
392.15	268.87
392.596	308.66
393.043	308.66
393.49	353.13
393.937	348.45
394.383	282.91
394.83	334.4
395.276	273.55
395.723	311
396.169	303.98
396.616	261.85
397.062	353.13
397.508	327.38
397.954	299.3
398.401	318.02
398.847	306.32
399.293	311
399.739	339.09
400.185	268.87
400.631	311
401.076	320.36
401.522	355.47
401.968	355.47
402.414	357.81
402.859	332.06
403.305	397.6
403.75	278.23
404.196	287.59
404.641	341.43
405.086	341.43
405.532	341.43
405.977	390.58
406.422	381.21
406.867	252.49
407.312	327.38
407.757	285.25
408.202	329.72
408.647	282.91
409.092	287.59
409.537	371.85
409.982	341.43
410.426	332.06
410.871	332.06
411.316	320.36
411.76	353.13
412.205	322.7
412.649	346.11
413.093	336.74
413.538	336.74
413.982	334.4
414.426	350.79
414.87	306.32
415.314	306.32
415.758	343.77
416.202	325.04
416.646	308.66
417.09	301.64
417.534	296.96
417.978	268.87
418.421	306.32
418.865	325.04
419.309	327.38
419.752	339.09
420.196	287.59
420.639	306.32
421.083	301.64
421.526	296.96
421.969	275.89
422.412	278.23
422.856	245.46
423.299	318.02
423.742	339.09
424.185	271.21
424.628	320.36
425.071	313.34
425.513	287.59
425.956	341.43
426.399	348.45
426.842	346.11
427.284	369.51
427.727	320.36
428.169	355.47
428.612	322.7
429.054	282.91
429.497	271.21
429.939	350.79
430.381	217.38
430.823	332.06
431.265	322.7
431.707	325.04
432.149	289.93
432.591	271.21
433.033	336.74
433.475	289.93
433.917	315.68
434.359	343.77
434.8	320.36
435.242	254.83
435.684	329.72
436.125	320.36
436.567	301.64
437.008	341.43
437.449	313.34
437.891	266.53
438.332	332.06
438.773	332.06
439.214	285.25
439.656	350.79
440.097	313.34
440.538	336.74
440.978	275.89
441.419	318.02
441.86	327.38
442.301	308.66
442.742	282.91
443.182	378.87
443.623	311
444.063	311
444.504	315.68
444.944	318.02
445.385	280.57
445.825	350.79
446.265	341.43
446.706	282.91
447.146	273.55
447.586	348.45
448.026	294.61
448.466	322.7
448.906	360.15
449.346	313.34
449.786	332.06
450.225	299.3
450.665	266.53
451.105	392.92
451.544	313.34
451.984	299.3
452.424	325.04
452.863	280.57
453.302	315.68
453.742	322.7
454.181	287.59
454.62	315.68
455.059	268.87
455.499	296.96
455.938	327.38
456.377	306.32
456.816	273.55
457.254	292.27
457.693	329.72
458.132	264.19
458.571	329.72
459.01	360.15
459.448	360.15
459.887	411.64
460.325	322.7
460.764	336.74
461.202	374.19
461.641	355.47
462.079	329.72
462.517	355.47
462.955	339.09
463.393	278.23
463.832	329.72
464.27	275.89
464.708	296.96
465.145	285.25
465.583	273.55
466.021	341.43
466.459	252.49
466.897	306.32
467.334	261.85
467.772	266.53
468.209	266.53
468.647	311
469.084	311
469.522	268.87
469.959	229.08
470.396	299.3
470.833	294.61
471.271	289.93
471.708	399.94
472.145	369.51
472.582	296.96
473.019	336.74
473.456	390.58
473.892	320.36
474.329	285.25
474.766	329.72
475.202	311
475.639	268.87
476.076	289.93
476.512	280.57
476.949	271.21
477.385	346.11
477.821	315.68
478.258	325.04
478.694	367.17
479.13	325.04
479.566	329.72
480.002	306.32
480.438	306.32
480.874	336.74
481.31	301.64
481.746	303.98
482.181	311
482.617	348.45
483.053	325.04
483.488	299.3
483.924	271.21
484.36	327.38
484.795	341.43
485.23	250.14
485.666	306.32
486.101	278.23
486.536	339.09
486.971	275.89
487.407	329.72
487.842	301.64
488.277	306.32
488.712	322.7
489.146	308.66
489.581	346.11
490.016	397.6
490.451	315.68
490.885	289.93
491.32	362.49
491.755	353.13
492.189	313.34
492.624	343.77
493.058	315.68
493.492	296.96
493.927	301.64
494.361	289.93
494.795	348.45
495.229	282.91
495.663	306.32
496.097	261.85
496.531	325.04
496.965	233.76
497.399	369.51
497.833	325.04
498.266	339.09
498.7	259.51
499.134	339.09
499.567	266.53
500.001	301.64
500.434	332.06
500.868	306.32
501.301	294.61
501.734	355.47
502.168	360.15
502.601	219.72
503.034	306.32
503.467	271.21
503.9	264.19
504.333	308.66
504.766	341.43
505.199	357.81
505.632	325.04
506.064	318.02
506.497	292.27
506.93	355.47
507.362	275.89
507.795	296.96
508.227	306.32
508.66	336.74
509.092	348.45
509.524	327.38
509.956	282.91
510.389	306.32
510.821	329.72
511.253	346.11
511.685	296.96
512.117	313.34
512.549	329.72
512.981	346.11
513.412	273.55
513.844	292.27
514.276	299.3
514.707	322.7
515.139	385.9
515.571	289.93
516.002	313.34
516.433	385.9
516.865	318.02
517.296	346.11
517.727	273.55
518.159	299.3
518.59	327.38
519.021	301.64
519.452	334.4
519.883	280.57
520.314	418.66
520.744	362.49
521.175	341.43
521.606	367.17
522.037	343.77
522.467	348.45
522.898	329.72
523.328	257.17
523.759	332.06
524.189	320.36
524.62	322.7
525.05	303.98
525.48	285.25
525.91	285.25
526.341	332.06
526.771	308.66
527.201	257.17
527.631	360.15
528.061	294.61
528.49	285.25
528.92	329.72
529.35	313.34
529.78	374.19
530.209	332.06
530.639	280.57
531.068	346.11
531.498	303.98
531.927	301.64
532.357	397.6
532.786	315.68
533.215	282.91
533.644	360.15
534.074	313.34
534.503	322.7
534.932	357.81
535.361	275.89
535.79	285.25
536.218	318.02
536.647	360.15
537.076	294.61
537.505	271.21
537.933	247.8
538.362	329.72
538.79	303.98
539.219	308.66
539.647	301.64
540.076	336.74
540.504	341.43
540.932	332.06
541.36	343.77
541.788	318.02
542.217	325.04
542.645	313.34
543.073	322.7
543.5	306.32
543.928	367.17
544.356	348.45
544.784	303.98
545.211	341.43
545.639	231.42
546.067	332.06
546.494	285.25
546.922	322.7
547.349	294.61
547.776	357.81
548.204	327.38
548.631	327.38
549.058	257.17
549.485	336.74
549.912	318.02
550.339	301.64
550.766	348.45
551.193	289.93
551.62	325.04
552.047	259.51
552.474	271.21
552.9	275.89
553.327	301.64
553.754	329.72
554.18	287.59
554.607	357.81
555.033	327.38
555.459	294.61
555.886	322.7
556.312	296.96
556.738	294.61
557.164	395.26
557.59	280.57
558.016	318.02
558.442	348.45
558.868	285.25
559.294	313.34
559.72	254.83
560.145	325.04
560.571	294.61
560.997	392.92
561.422	318.02
561.848	275.89
562.273	315.68
562.699	336.74
563.124	315.68
563.549	287.59
563.974	313.34
564.4	306.32
564.825	287.59
565.25	367.17
565.675	273.55
566.1	350.79
566.525	292.27
566.95	282.91
567.374	243.12
567.799	229.08
568.224	233.76
568.648	289.93
569.073	303.98
569.497	259.51
569.922	322.7
570.346	371.85
570.771	292.27
571.195	313.34
571.619	301.64
572.043	350.79
572.467	315.68
572.891	266.53
573.315	308.66
573.739	303.98
574.163	322.7
574.587	236.1
575.011	318.02
575.435	334.4
575.858	266.53
576.282	285.25
576.705	299.3
577.129	320.36
577.552	296.96
577.976	322.7
578.399	341.43
578.822	292.27
579.245	299.3
579.669	268.87
580.092	299.3
580.515	360.15
580.938	355.47
581.361	339.09
581.784	343.77
582.206	245.46
582.629	374.19
583.052	306.32
583.474	285.25
583.897	306.32
584.32	327.38
584.742	296.96
585.165	376.53
585.587	336.74
586.009	348.45
586.431	264.19
586.854	268.87
587.276	280.57
587.698	329.72
588.12	327.38
588.542	289.93
588.964	315.68
589.386	315.68
589.807	327.38
590.229	320.36
590.651	287.59
591.073	353.13
591.494	259.51
591.916	343.77
592.337	303.98
592.759	301.64
593.18	273.55
593.601	339.09
594.022	390.58
594.444	308.66
594.865	322.7
595.286	271.21
595.707	360.15
596.128	376.53
596.549	343.77
596.97	313.34
597.39	329.72
597.811	341.43
598.232	318.02
598.652	292.27
599.073	360.15
599.494	280.57
599.914	313.34
600.334	320.36
600.755	299.3
601.175	313.34
601.595	325.04
602.015	364.83
602.436	318.02
602.856	423.34
603.276	318.02
603.696	268.87
604.115	292.27
604.535	329.72
604.955	299.3
605.375	329.72
605.794	339.09
606.214	360.15
606.634	313.34
607.053	287.59
607.473	327.38
607.892	313.34
608.311	303.98
608.731	294.61
609.15	339.09
609.569	311
609.988	275.89
610.407	332.06
610.826	364.83
611.245	350.79
611.664	299.3
612.083	355.47
612.501	341.43
612.92	301.64
613.339	257.17
613.757	306.32
614.176	292.27
614.594	360.15
615.013	332.06
615.431	289.93
615.85	301.64
616.268	308.66
616.686	364.83
617.104	285.25
617.522	296.96
617.94	289.93
618.358	311
618.776	301.64
619.194	332.06
619.612	264.19
620.03	259.51
620.447	294.61
620.865	327.38
621.282	313.34
621.7	341.43
622.117	334.4
622.535	299.3
622.952	306.32
623.369	332.06
623.787	322.7
624.204	325.04
624.621	315.68
625.038	395.26
625.455	308.66
625.872	322.7
626.289	311
626.706	348.45
627.123	313.34
627.539	273.55
627.956	289.93
628.373	280.57
628.789	303.98
629.206	271.21
629.622	303.98
630.038	278.23
630.455	296.96
630.871	369.51
631.287	273.55
631.703	327.38
632.12	325.04
632.536	268.87
632.952	336.74
633.368	303.98
633.783	362.49
634.199	348.45
634.615	311
635.031	325.04
635.446	294.61
635.862	315.68
636.277	247.8
636.693	322.7
637.108	287.59
637.524	327.38
637.939	357.81
638.354	266.53
638.77	336.74
639.185	278.23
639.6	273.55
640.015	350.79
640.43	299.3
640.845	245.46
641.259	325.04
641.674	280.57
642.089	313.34
642.504	325.04
642.918	341.43
643.333	306.32
643.747	236.1
644.162	360.15
644.576	273.55
644.991	280.57
645.405	325.04
645.819	360.15
646.233	313.34
646.647	308.66
647.061	329.72
647.475	343.77
647.889	313.34
648.303	299.3
648.717	357.81
649.131	271.21
649.545	292.27
649.958	266.53
650.372	353.13
650.785	341.43
651.199	329.72
651.612	332.06
652.026	336.74
652.439	362.49
652.852	346.11
653.266	294.61
653.679	299.3
654.092	325.04
654.505	296.96
654.918	254.83
655.331	280.57
655.744	301.64
656.156	311
656.569	343.77
656.982	383.56
657.394	390.58
657.807	364.83
658.22	355.47
658.632	296.96
659.044	339.09
659.457	339.09
659.869	217.38
660.281	282.91
660.693	287.59
661.106	355.47
661.518	318.02
661.93	280.57
662.342	364.83
662.754	264.19
663.165	320.36
663.577	259.51
663.989	306.32
664.401	254.83
664.812	261.85
665.224	313.34
665.635	320.36
666.047	371.85
666.458	383.56
666.869	348.45
667.281	322.7
667.692	341.43
668.103	325.04
668.514	325.04
668.925	280.57
669.336	303.98
669.747	299.3
670.158	353.13
670.569	296.96
670.979	292.27
671.39	322.7
671.801	268.87
672.211	287.59
672.622	339.09
673.032	318.02
673.443	397.6
673.853	282.91
674.263	287.59
674.674	303.98
675.084	357.81
675.494	336.74
675.904	247.8
676.314	306.32
676.724	308.66
677.134	346.11
677.544	343.77
677.953	280.57
678.363	250.14
678.773	329.72
679.182	273.55
679.592	371.85
680.001	315.68
680.411	315.68
680.82	229.08
681.23	289.93
681.639	329.72
682.048	301.64
682.457	325.04
682.866	294.61
683.275	357.81
683.684	332.06
684.093	294.61
684.502	357.81
684.911	313.34
685.32	355.47
685.728	332.06
686.137	289.93
686.546	303.98
686.954	322.7
687.363	301.64
687.771	252.49
688.179	334.4
688.588	350.79
688.996	243.12
689.404	299.3
689.812	315.68
690.22	282.91
690.628	336.74
691.036	292.27
691.444	367.17
691.852	245.46
692.26	332.06
692.667	343.77
693.075	332.06
693.483	303.98
693.89	360.15
694.298	336.74
694.705	311
695.112	336.74
695.52	327.38
695.927	332.06
696.334	259.51
696.741	271.21
697.148	278.23
697.555	292.27
697.962	369.51
698.369	329.72
698.776	268.87
699.183	278.23
699.59	322.7
699.996	308.66
700.403	303.98
700.81	353.13
701.216	292.27
701.623	336.74
702.029	367.17
702.435	303.98
702.842	296.96
703.248	346.11
703.654	311
704.06	327.38
704.466	332.06
704.872	311
705.278	273.55
705.684	285.25
706.09	343.77
706.496	289.93
706.901	374.19
707.307	327.38
707.712	318.02
708.118	287.59
708.523	311
708.929	311
709.334	325.04
709.74	315.68
710.145	325.04
710.55	299.3
710.955	346.11
711.36	301.64
711.765	311
712.17	250.14
712.575	357.81
712.98	769.74
713.385	318.02
713.789	350.79
714.194	325.04
714.599	369.51
715.003	374.19
715.408	287.59
715.812	383.56
716.217	273.55
716.621	313.34
717.025	413.98
717.429	381.21
717.833	362.49
718.238	294.61
718.642	346.11
719.046	318.02
719.449	320.36
719.853	311
720.257	308.66
720.661	306.32
721.065	301.64
721.468	294.61
721.872	332.06
722.275	320.36
722.679	226.74
723.082	346.11
723.485	327.38
723.889	308.66
724.292	294.61
724.695	383.56
725.098	287.59
725.501	334.4
725.904	334.4
726.307	243.12
726.71	343.77
727.113	339.09
727.516	301.64
727.918	245.46
728.321	320.36
728.724	296.96
729.126	275.89
729.529	355.47
729.931	369.51
730.333	299.3
730.736	240.78
731.138	313.34
731.54	254.83
731.942	271.21
732.344	268.87
732.746	315.68
733.148	318.02
733.55	303.98
733.952	273.55
734.354	287.59
734.756	339.09
735.157	245.46
735.559	303.98
735.96	318.02
736.362	371.85
736.763	327.38
737.165	332.06
737.566	280.57
737.967	329.72
738.368	278.23
738.77	268.87
739.171	318.02
739.572	357.81
739.973	322.7
740.374	343.77
740.774	348.45
741.175	315.68
741.576	318.02
741.977	406.96
742.377	362.49
742.778	355.47
743.178	264.19
743.579	264.19
743.979	285.25
744.379	315.68
744.78	362.49
745.18	280.57
745.58	308.66
745.98	289.93
746.38	329.72
746.78	278.23
747.18	353.13
747.58	320.36
747.98	315.68
748.38	289.93
748.779	287.59
749.179	254.83
749.578	313.34
749.978	296.96
750.377	282.91
750.777	301.64
751.176	303.98
751.575	303.98
751.975	339.09
752.374	261.85
752.773	346.11
753.172	346.11
753.571	308.66
753.97	280.57
754.369	329.72
754.768	282.91
755.166	306.32
755.565	273.55
755.964	273.55
756.362	303.98
756.761	322.7
757.159	292.27
757.558	308.66
757.956	289.93
758.354	336.74
758.753	322.7
759.151	341.43
759.549	367.17
759.947	296.96
760.345	282.91
760.743	322.7
761.141	299.3
761.539	289.93
761.936	306.32
762.334	303.98
762.732	313.34
763.129	296.96
763.527	250.14
763.924	339.09
764.322	341.43
764.719	275.89
765.117	334.4
765.514	292.27
765.911	303.98
766.308	318.02
766.705	383.56
767.102	287.59
767.499	336.74
767.896	318.02
768.293	315.68
768.69	287.59
769.086	357.81
769.483	339.09
769.88	292.27
770.276	334.4
770.673	278.23
771.069	318.02
771.466	224.4
771.862	322.7
772.258	343.77
772.654	273.55
773.05	259.51
773.447	325.04
773.843	383.56
774.239	320.36
774.634	294.61
775.03	311
775.426	250.14
775.822	343.77
776.218	332.06
776.613	378.87
777.009	388.24
777.404	292.27
777.8	315.68
778.195	299.3
778.59	308.66
778.986	346.11
779.381	252.49
779.776	353.13
780.171	264.19
780.566	306.32
780.961	404.62
781.356	287.59
781.751	315.68
782.146	303.98
782.54	315.68
782.935	327.38
783.33	268.87
783.724	287.59
784.119	318.02
784.513	278.23
784.908	329.72
785.302	343.77
785.696	296.96
786.09	329.72
786.485	353.13
786.879	271.21
787.273	278.23
787.667	320.36
788.061	303.98
788.454	329.72
788.848	287.59
789.242	311
789.636	346.11
790.029	364.83
790.423	303.98
790.816	264.19
791.21	313.34
791.603	367.17
791.997	268.87
792.39	303.98
792.783	303.98
793.176	294.61
793.569	318.02
793.962	320.36
794.355	303.98
794.748	332.06
795.141	369.51
795.534	348.45
795.927	289.93
796.319	280.57
796.712	327.38
797.105	280.57
797.497	327.38
797.89	282.91
798.282	306.32
798.674	320.36
799.067	264.19
799.459	343.77
799.851	383.56
800.243	311
800.635	299.3
801.027	313.34
801.419	339.09
801.811	306.32
802.203	355.47
802.594	282.91
802.986	266.53
803.378	289.93
803.769	292.27
804.161	245.46
804.552	280.57
804.944	289.93
805.335	343.77
805.726	350.79
806.118	275.89
806.509	250.14
806.9	367.17
807.291	296.96
807.682	303.98
808.073	294.61
808.464	334.4
808.855	322.7
809.245	301.64
809.636	346.11
810.027	294.61
810.417	264.19
810.808	299.3
811.198	275.89
811.589	353.13
811.979	285.25
812.369	332.06
812.759	320.36
813.15	294.61
813.54	306.32
813.93	280.57
814.32	289.93
814.71	280.57
815.1	313.34
815.489	292.27
815.879	296.96
816.269	325.04
816.658	357.81
817.048	341.43
817.438	322.7
817.827	311
818.216	292.27
818.606	294.61
818.995	275.89
819.384	294.61
819.773	294.61
820.163	336.74
820.552	336.74
820.941	191.63
821.33	289.93
821.718	322.7
822.107	315.68
822.496	240.78
822.885	261.85
823.273	301.64
823.662	355.47
824.05	343.77
824.439	301.64
824.827	343.77
825.216	294.61
825.604	250.14
825.992	278.23
826.38	275.89
826.768	282.91
827.156	341.43
827.544	348.45
827.932	245.46
828.32	332.06
828.708	346.11
829.096	299.3
829.483	313.34
829.871	275.89
830.259	289.93
830.646	259.51
831.034	376.53
831.421	336.74
831.808	355.47
832.196	357.81
832.583	292.27
832.97	294.61
833.357	339.09
833.744	296.96
834.131	308.66
834.518	313.34
834.905	266.53
835.292	383.56
835.678	306.32
836.065	273.55
836.452	360.15
836.838	322.7
837.225	325.04
837.611	362.49
837.998	341.43
838.384	308.66
838.77	257.17
839.157	278.23
839.543	273.55
839.929	257.17
840.315	292.27
840.701	313.34
841.087	287.59
841.473	318.02
841.858	360.15
842.244	299.3
842.63	392.92
843.015	348.45
843.401	633.99
843.787	322.7
844.172	343.77
844.557	311
844.943	318.02
845.328	315.68
845.713	308.66
846.098	343.77
846.483	313.34
846.868	292.27
847.253	334.4
847.638	278.23
848.023	371.85
848.408	322.7
848.793	224.4
849.177	292.27
849.562	287.59
849.947	306.32
850.331	322.7
850.715	301.64
851.1	341.43
851.484	320.36
851.868	301.64
852.253	289.93
852.637	280.57
853.021	318.02
853.405	318.02
853.789	266.53
854.173	296.96
854.557	376.53
854.94	325.04
855.324	315.68
855.708	313.34
856.091	268.87
856.475	289.93
856.858	268.87
857.242	311
857.625	355.47
858.009	296.96
858.392	301.64
858.775	292.27
859.158	299.3
859.541	315.68
859.924	301.64
860.307	322.7
860.69	215.04
861.073	268.87
861.456	296.96
861.838	341.43
862.221	318.02
862.604	236.1
862.986	259.51
863.369	259.51
863.751	313.34
864.133	254.83
864.516	266.53
864.898	339.09
865.28	334.4
865.662	318.02
866.044	388.24
866.426	285.25
866.808	294.61
867.19	287.59
867.572	301.64
867.954	289.93
868.336	294.61
868.717	299.3
869.099	292.27
869.48	289.93
869.862	353.13
870.243	364.83
870.625	339.09
871.006	346.11
871.387	325.04
871.768	348.45
872.149	273.55
872.53	318.02
872.911	306.32
873.292	339.09
873.673	289.93
874.054	318.02
874.435	329.72
874.815	259.51
875.196	243.12
875.577	390.58
875.957	273.55
876.338	308.66
876.718	278.23
877.098	334.4
877.479	278.23
877.859	327.38
878.239	385.9
878.619	296.96
878.999	287.59
879.379	301.64
879.759	329.72
880.139	332.06
880.519	287.59
880.898	292.27
881.278	252.49
881.658	229.08
882.037	406.96
882.417	348.45
882.796	303.98
883.176	339.09
883.555	285.25
883.934	233.76
884.313	346.11
884.693	378.87
885.072	247.8
885.451	308.66
885.83	282.91
886.209	236.1
886.587	280.57
886.966	294.61
887.345	357.81
887.724	332.06
888.102	299.3
888.481	278.23
888.859	289.93
889.238	257.17
889.616	280.57
889.994	343.77
890.373	292.27
890.751	353.13
891.129	257.17
891.507	311
891.885	301.64
892.263	261.85
892.641	315.68
893.019	332.06
893.396	271.21
893.774	341.43
894.152	254.83
894.529	339.09
894.907	303.98
895.284	339.09
895.662	303.98
896.039	261.85
896.416	318.02
896.794	261.85
897.171	327.38
897.548	280.57
897.925	292.27
898.302	329.72
898.679	311
899.056	329.72
899.433	315.68
899.809	313.34
900.186	271.21
900.563	336.74
900.939	289.93
901.316	301.64
901.692	285.25
902.069	343.77
902.445	320.36
902.821	268.87
903.197	285.25
903.574	247.8
903.95	245.46
904.326	364.83
904.702	343.77
905.078	318.02
905.454	322.7
905.829	332.06
906.205	306.32
906.581	315.68
906.956	306.32
907.332	257.17
907.707	318.02
908.083	339.09
908.458	362.49
908.833	301.64
909.209	261.85
909.584	306.32
909.959	233.76
910.334	329.72
910.709	266.53
911.084	325.04
911.459	315.68
911.834	339.09
912.209	280.57
912.583	299.3
912.958	259.51
913.333	315.68
913.707	383.56
914.082	278.23
914.456	264.19
914.83	212.7
915.205	306.32
915.579	315.68
915.953	301.64
916.327	308.66
916.701	399.94
917.075	287.59
917.449	278.23
917.823	322.7
918.197	268.87
918.571	315.68
918.944	287.59
919.318	292.27
919.692	271.21
920.065	339.09
920.438	320.36
920.812	311
921.185	346.11
921.558	311
921.932	285.25
922.305	219.72
922.678	308.66
923.051	301.64
923.424	322.7
923.797	336.74
924.17	308.66
924.542	348.45
924.915	341.43
925.288	318.02
925.661	320.36
926.033	315.68
926.406	285.25
926.778	303.98
927.15	296.96
927.523	299.3
927.895	282.91
928.267	364.83
928.639	303.98
929.011	334.4
929.383	306.32
929.755	322.7
930.127	376.53
930.499	308.66
930.871	268.87
931.242	367.17
931.614	285.25
931.986	285.25
932.357	353.13
932.729	311
933.1	374.19
933.471	303.98
933.843	322.7
934.214	325.04
934.585	299.3
934.956	254.83
935.327	294.61
935.698	261.85
936.069	311
936.44	301.64
936.811	289.93
937.182	233.76
937.552	301.64
937.923	285.25
938.293	336.74
938.664	292.27
939.034	325.04
939.405	294.61
939.775	299.3
940.145	306.32
940.516	327.38
940.886	273.55
941.256	308.66
941.626	287.59
941.996	292.27
942.366	339.09
942.735	308.66
943.105	301.64
943.475	306.32
943.845	341.43
944.214	303.98
944.584	264.19
944.953	294.61
945.323	315.68
945.692	332.06
946.061	308.66
946.43	285.25
946.8	332.06
947.169	334.4
947.538	289.93
947.907	222.06
948.276	322.7
948.645	308.66
949.013	362.49
949.382	301.64
949.751	339.09
950.119	303.98
950.488	334.4
950.857	245.46
951.225	378.87
951.593	271.21
951.962	289.93
952.33	348.45
952.698	252.49
953.066	313.34
953.434	268.87
953.802	339.09
954.17	224.4
954.538	306.32
954.906	350.79
955.274	329.72
955.642	308.66
956.009	296.96
956.377	353.13
956.744	275.89
957.112	322.7
957.479	282.91
957.847	296.96
958.214	259.51
958.581	327.38
958.948	350.79
959.315	332.06
959.683	292.27
960.05	325.04
960.416	367.17
960.783	332.06
961.15	280.57
961.517	308.66
961.884	306.32
962.25	327.38
962.617	322.7
962.983	367.17
963.35	306.32
963.716	282.91
964.082	334.4
964.449	308.66
964.815	289.93
965.181	268.87
965.547	289.93
965.913	353.13
966.279	240.78
966.645	240.78
967.011	287.59
967.377	287.59
967.742	278.23
968.108	343.77
968.474	320.36
968.839	292.27
969.205	273.55
969.57	287.59
969.935	315.68
970.301	238.44
970.666	289.93
971.031	308.66
971.396	292.27
971.761	236.1
972.126	243.12
972.491	339.09
972.856	371.85
973.221	238.44
973.586	332.06
973.95	311
974.315	294.61
974.679	264.19
975.044	369.51
975.408	332.06
975.773	247.8
976.137	322.7
976.501	336.74
976.866	355.47
977.23	280.57
977.594	280.57
977.958	252.49
978.322	311
978.686	301.64
979.049	348.45
979.413	264.19
979.777	315.68
980.141	322.7
980.504	303.98
980.868	318.02
981.231	318.02
981.595	273.55
981.958	252.49
982.321	303.98
982.684	339.09
983.048	376.53
983.411	229.08
983.774	254.83
984.137	322.7
984.5	289.93
984.862	327.38
985.225	261.85
985.588	322.7
985.951	313.34
986.313	250.14
986.676	259.51
987.038	315.68
987.401	332.06
987.763	318.02
988.125	292.27
988.488	254.83
988.85	357.81
989.212	280.57
989.574	357.81
989.936	266.53
990.298	318.02
990.66	332.06
991.022	259.51
991.383	313.34
991.745	294.61
992.107	311
992.468	346.11
992.83	250.14
993.191	318.02
993.553	280.57
993.914	308.66
994.275	301.64
994.637	334.4
994.998	250.14
995.359	306.32
995.72	301.64
996.081	299.3
996.442	226.74
996.803	353.13
997.163	278.23
997.524	303.98
997.885	329.72
998.245	313.34
998.606	273.55
998.966	287.59
999.327	261.85
999.687	294.61
1000.047	261.85
1000.408	299.3
1000.768	250.14
1001.128	268.87
1001.488	275.89
1001.848	301.64
1002.208	325.04
1002.568	292.27
1002.927	320.36
1003.287	383.56
1003.647	318.02
1004.007	311
1004.366	346.11
1004.726	308.66
1005.085	301.64
1005.444	292.27
1005.804	252.49
1006.163	296.96
1006.522	282.91
1006.881	289.93
1007.24	355.47
1007.599	311
1007.958	254.83
1008.317	322.7
1008.676	296.96
1009.035	329.72
1009.393	318.02
1009.752	271.21
1010.111	285.25
1010.469	320.36
1010.828	322.7
1011.186	301.64
1011.544	325.04
1011.903	275.89
1012.261	285.25
1012.619	369.51
1012.977	322.7
1013.335	343.77
1013.693	266.53
1014.051	280.57
1014.409	350.79
1014.767	238.44
1015.124	311
1015.482	303.98
1015.84	296.96
1016.197	299.3
1016.555	289.93
1016.912	341.43
1017.269	280.57
1017.627	292.27
1017.984	301.64
1018.341	287.59
1018.698	261.85
1019.055	301.64
1019.412	261.85
1019.769	285.25
1020.126	292.27
1020.483	325.04
1020.84	285.25
1021.196	268.87
1021.553	378.87
1021.909	308.66
1022.266	334.4
1022.622	285.25
1022.979	343.77
1023.335	322.7
1023.691	287.59
1024.047	259.51
1024.404	261.85
1024.76	278.23
1025.116	285.25
1025.472	287.59
1025.827	282.91
1026.183	264.19
1026.539	278.23
1026.895	266.53
1027.25	264.19
1027.606	299.3
1027.961	303.98
1028.317	301.64
1028.672	285.25
1029.028	308.66
1029.383	306.32
1029.738	261.85
1030.093	294.61
1030.448	303.98
1030.803	329.72
1031.158	334.4
1031.513	278.23
1031.868	285.25
1032.223	327.38
1032.577	360.15
1032.932	306.32
1033.287	301.64
1033.641	318.02
1033.996	311
1034.35	341.43
1034.704	329.72
1035.059	313.34
1035.413	320.36
1035.767	320.36
1036.121	320.36
