Data from Al_FLMS009871__793__15-21-48-214.txt Node

Date: Fri Mar 08 15:21:48 CST 2024
User: pe5414po
Spectrometer: FLMS00987
Trigger mode: 0
Integration Time (sec): 1.000000E-1
Scans to average: 1
Electric dark correction enabled: true
Nonlinearity correction enabled: false
Boxcar width: 0
XAxis mode: Wavelengths
Number of Pixels in Spectrum: 2048
>>>>>Begin Spectral Data<<<<<
188.938	-62.76
189.409	-62.76
189.879	-62.76
190.349	-74.46
190.819	-34.67
191.29	-196.17
191.76	-114.25
192.23	-69.78
192.7	-83.82
193.17	-97.86
193.64	-37.01
194.109	16.82
194.579	-39.35
195.049	-4.24
195.519	7.46
195.988	61.29
196.458	30.87
196.927	77.68
197.397	147.89
197.866	166.62
198.336	133.85
198.805	108.1
199.274	206.41
199.744	227.47
200.213	208.75
200.682	164.28
201.151	208.75
201.62	229.81
202.089	243.85
202.558	271.94
203.027	297.69
203.495	248.54
203.964	302.37
204.433	281.3
204.902	257.9
205.37	255.56
205.839	297.69
206.307	239.17
206.776	337.48
207.244	377.27
207.712	323.43
208.181	302.37
208.649	307.05
209.117	323.43
209.585	346.84
210.053	297.69
210.521	328.11
210.989	274.28
211.457	278.96
211.925	300.03
212.393	321.09
212.861	267.26
213.328	342.16
213.796	274.28
214.264	370.24
214.731	271.94
215.199	288.32
215.666	269.6
216.133	374.92
216.601	241.51
217.068	267.26
217.535	274.28
218.003	297.69
218.47	295.35
218.937	293.01
219.404	316.41
219.871	267.26
220.338	278.96
220.805	274.28
221.271	239.17
221.738	269.6
222.205	288.32
222.671	325.77
223.138	276.62
223.605	339.82
224.071	232.15
224.538	325.77
225.004	274.28
225.47	264.92
225.937	304.71
226.403	269.6
226.869	241.51
227.335	276.62
227.801	276.62
228.267	269.6
228.733	307.05
229.199	278.96
229.665	269.6
230.131	297.69
230.597	321.09
231.062	377.27
231.528	288.32
231.994	232.15
232.459	293.01
232.925	257.9
233.39	323.43
233.856	321.09
234.321	175.98
234.786	323.43
235.252	335.14
235.717	293.01
236.182	285.98
236.647	227.47
237.112	283.64
237.577	381.95
238.042	323.43
238.507	288.32
238.972	314.07
239.436	239.17
239.901	288.32
240.366	260.24
240.83	311.73
241.295	311.73
241.76	335.14
242.224	293.01
242.688	335.14
243.153	304.71
243.617	304.71
244.081	381.95
244.545	229.81
245.01	307.05
245.474	321.09
245.938	274.28
246.402	269.6
246.866	302.37
247.33	316.41
247.793	314.07
248.257	356.2
248.721	264.92
249.185	323.43
249.648	288.32
250.112	325.77
250.575	220.45
251.039	281.3
251.502	293.01
251.965	297.69
252.429	307.05
252.892	302.37
253.355	304.71
253.818	346.84
254.281	325.77
254.744	278.96
255.207	285.98
255.67	321.09
256.133	262.58
256.596	278.96
257.059	335.14
257.522	293.01
257.984	351.52
258.447	304.71
258.909	283.64
259.372	241.51
259.834	309.39
260.297	349.18
260.759	363.22
261.221	281.3
261.684	330.45
262.146	332.79
262.608	318.75
263.07	316.41
263.532	257.9
263.994	290.67
264.456	293.01
264.918	295.35
265.38	358.54
265.842	246.2
266.303	337.48
266.765	267.26
267.227	246.2
267.688	332.79
268.15	314.07
268.611	323.43
269.072	307.05
269.534	323.43
269.995	302.37
270.456	353.86
270.918	344.5
271.379	297.69
271.84	344.5
272.301	332.79
272.762	307.05
273.223	377.27
273.684	269.6
274.144	288.32
274.605	311.73
275.066	344.5
275.527	360.88
275.987	316.41
276.448	302.37
276.908	337.48
277.369	297.69
277.829	358.54
278.289	297.69
278.75	346.84
279.21	304.71
279.67	260.24
280.13	215.77
280.59	269.6
281.05	342.16
281.51	302.37
281.97	307.05
282.43	295.35
282.89	344.5
283.35	349.18
283.809	267.26
284.269	363.22
284.729	344.5
285.188	344.5
285.648	276.62
286.107	321.09
286.567	349.18
287.026	330.45
287.485	297.69
287.944	344.5
288.404	318.75
288.863	271.94
289.322	346.84
289.781	288.32
290.24	260.24
290.699	332.79
291.158	257.9
291.616	323.43
292.075	241.51
292.534	232.15
292.992	349.18
293.451	302.37
293.91	316.41
294.368	307.05
294.827	349.18
295.285	267.26
295.743	285.98
296.202	311.73
296.66	321.09
297.118	337.48
297.576	274.28
298.034	255.56
298.492	351.52
298.95	253.22
299.408	271.94
299.866	356.2
300.324	328.11
300.781	321.09
301.239	295.35
301.697	314.07
302.154	323.43
302.612	351.52
303.069	384.29
303.527	358.54
303.984	269.6
304.441	311.73
304.899	335.14
305.356	351.52
305.813	351.52
306.27	363.22
306.727	290.67
307.184	339.82
307.641	297.69
308.098	307.05
308.555	339.82
309.012	323.43
309.468	267.26
309.925	321.09
310.382	363.22
310.838	323.43
311.295	255.56
311.751	367.9
312.208	309.39
312.664	363.22
313.12	293.01
313.577	346.84
314.033	295.35
314.489	342.16
314.945	293.01
315.401	351.52
315.857	318.75
316.313	269.6
316.769	321.09
317.225	309.39
317.681	316.41
318.136	318.75
318.592	288.32
319.048	257.9
319.503	351.52
319.959	307.05
320.414	360.88
320.869	316.41
321.325	307.05
321.78	274.28
322.235	283.64
322.691	377.27
323.146	344.5
323.601	297.69
324.056	304.71
324.511	356.2
324.966	314.07
325.421	344.5
325.875	395.99
326.33	386.63
326.785	300.03
327.24	250.88
327.694	269.6
328.149	257.9
328.603	290.67
329.058	323.43
329.512	330.45
329.966	297.69
330.421	344.5
330.875	257.9
331.329	316.41
331.783	356.2
332.237	330.45
332.691	349.18
333.145	321.09
333.599	293.01
334.053	346.84
334.507	412.37
334.96	342.16
335.414	407.69
335.868	257.9
336.321	309.39
336.775	328.11
337.228	330.45
337.682	274.28
338.135	358.54
338.588	346.84
339.042	304.71
339.495	318.75
339.948	356.2
340.401	342.16
340.854	253.22
341.307	278.96
341.76	281.3
342.213	346.84
342.666	358.54
343.119	342.16
343.571	316.41
344.024	304.71
344.477	351.52
344.929	374.92
345.382	339.82
345.834	311.73
346.287	283.64
346.739	311.73
347.191	346.84
347.644	323.43
348.096	370.24
348.548	342.16
349	374.92
349.452	342.16
349.904	353.86
350.356	297.69
350.808	363.22
351.26	328.11
351.711	339.82
352.163	335.14
352.615	395.99
353.066	311.73
353.518	328.11
353.969	393.65
354.421	288.32
354.872	374.92
355.324	365.56
355.775	403.01
356.226	370.24
356.677	335.14
357.128	295.35
357.579	309.39
358.03	262.58
358.481	349.18
358.932	339.82
359.383	316.41
359.834	332.79
360.285	356.2
360.735	379.61
361.186	328.11
361.637	321.09
362.087	363.22
362.538	323.43
362.988	344.5
363.438	374.92
363.889	351.52
364.339	321.09
364.789	344.5
365.239	316.41
365.689	346.84
366.139	321.09
366.589	365.56
367.039	358.54
367.489	349.18
367.939	412.37
368.389	393.65
368.839	332.79
369.288	356.2
369.738	384.29
370.187	304.71
370.637	398.33
371.086	274.28
371.536	332.79
371.985	342.16
372.434	321.09
372.884	293.01
373.333	309.39
373.782	325.77
374.231	302.37
374.68	290.67
375.129	295.35
375.578	304.71
376.027	367.9
376.475	271.94
376.924	332.79
377.373	344.5
377.822	325.77
378.27	323.43
378.719	300.03
379.167	316.41
379.616	316.41
380.064	316.41
380.512	274.28
380.961	314.07
381.409	325.77
381.857	353.86
382.305	344.5
382.753	384.29
383.201	311.73
383.649	311.73
384.097	307.05
384.545	344.5
384.992	342.16
385.44	281.3
385.888	304.71
386.335	311.73
386.783	344.5
387.231	358.54
387.678	374.92
388.125	391.31
388.573	328.11
389.02	344.5
389.467	388.97
389.914	300.03
390.362	302.37
390.809	314.07
391.256	344.5
391.703	386.63
392.15	332.79
392.596	318.75
393.043	330.45
393.49	321.09
393.937	346.84
394.383	330.45
394.83	309.39
395.276	365.56
395.723	360.88
396.169	300.03
396.616	309.39
397.062	318.75
397.508	323.43
397.954	363.22
398.401	332.79
398.847	328.11
399.293	323.43
399.739	353.86
400.185	283.64
400.631	363.22
401.076	253.22
401.522	372.58
401.968	353.86
402.414	393.65
402.859	316.41
403.305	356.2
403.75	410.03
404.196	307.05
404.641	426.42
405.086	325.77
405.532	290.67
405.977	316.41
406.422	316.41
406.867	274.28
407.312	339.82
407.757	309.39
408.202	358.54
408.647	274.28
409.092	304.71
409.537	304.71
409.982	332.79
410.426	360.88
410.871	337.48
411.316	293.01
411.76	278.96
412.205	325.77
412.649	297.69
413.093	328.11
413.538	374.92
413.982	372.58
414.426	321.09
414.87	353.86
415.314	384.29
415.758	370.24
416.202	400.67
416.646	360.88
417.09	349.18
417.534	318.75
417.978	372.58
418.421	297.69
418.865	293.01
419.309	337.48
419.752	290.67
420.196	372.58
420.639	349.18
421.083	337.48
421.526	351.52
421.969	384.29
422.412	330.45
422.856	318.75
423.299	281.3
423.742	278.96
424.185	285.98
424.628	365.56
425.071	253.22
425.513	290.67
425.956	353.86
426.399	302.37
426.842	318.75
427.284	365.56
427.727	351.52
428.169	358.54
428.612	342.16
429.054	346.84
429.497	337.48
429.939	358.54
430.381	332.79
430.823	353.86
431.265	314.07
431.707	295.35
432.149	304.71
432.591	377.27
433.033	269.6
433.475	358.54
433.917	330.45
434.359	344.5
434.8	318.75
435.242	274.28
435.684	271.94
436.125	314.07
436.567	335.14
437.008	346.84
437.449	328.11
437.891	323.43
438.332	302.37
438.773	339.82
439.214	323.43
439.656	300.03
440.097	349.18
440.538	271.94
440.978	300.03
441.419	269.6
441.86	248.54
442.301	309.39
442.742	267.26
443.182	346.84
443.623	419.39
444.063	307.05
444.504	332.79
444.944	363.22
445.385	290.67
445.825	321.09
446.265	311.73
446.706	335.14
447.146	358.54
447.586	304.71
448.026	304.71
448.466	276.62
448.906	353.86
449.346	342.16
449.786	363.22
450.225	349.18
450.665	297.69
451.105	293.01
451.544	321.09
451.984	307.05
452.424	304.71
452.863	302.37
453.302	337.48
453.742	295.35
454.181	246.2
454.62	344.5
455.059	356.2
455.499	346.84
455.938	293.01
456.377	356.2
456.816	391.31
457.254	328.11
457.693	285.98
458.132	374.92
458.571	314.07
459.01	307.05
459.448	342.16
459.887	330.45
460.325	360.88
460.764	321.09
461.202	391.31
461.641	307.05
462.079	318.75
462.517	353.86
462.955	337.48
463.393	353.86
463.832	316.41
464.27	337.48
464.708	311.73
465.145	314.07
465.583	274.28
466.021	344.5
466.459	356.2
466.897	398.33
467.334	255.56
467.772	356.2
468.209	311.73
468.647	314.07
469.084	311.73
469.522	337.48
469.959	342.16
470.396	337.48
470.833	339.82
471.271	351.52
471.708	332.79
472.145	335.14
472.582	309.39
473.019	300.03
473.456	363.22
473.892	325.77
474.329	386.63
474.766	370.24
475.202	267.26
475.639	358.54
476.076	330.45
476.512	318.75
476.949	330.45
477.385	325.77
477.821	318.75
478.258	346.84
478.694	360.88
479.13	351.52
479.566	344.5
480.002	351.52
480.438	304.71
480.874	353.86
481.31	293.01
481.746	349.18
482.181	339.82
482.617	321.09
483.053	400.67
483.488	281.3
483.924	342.16
484.36	342.16
484.795	295.35
485.23	335.14
485.666	346.84
486.101	367.9
486.536	325.77
486.971	349.18
487.407	307.05
487.842	276.62
488.277	342.16
488.712	339.82
489.146	365.56
489.581	353.86
490.016	353.86
490.451	325.77
490.885	384.29
491.32	412.37
491.755	358.54
492.189	372.58
492.624	339.82
493.058	285.98
493.492	328.11
493.927	285.98
494.361	302.37
494.795	370.24
495.229	274.28
495.663	337.48
496.097	297.69
496.531	332.79
496.965	293.01
497.399	267.26
497.833	346.84
498.266	330.45
498.7	321.09
499.134	379.61
499.567	367.9
500.001	337.48
500.434	300.03
500.868	374.92
501.301	330.45
501.734	346.84
502.168	388.97
502.601	300.03
503.034	328.11
503.467	290.67
503.9	309.39
504.333	358.54
504.766	300.03
505.199	323.43
505.632	323.43
506.064	290.67
506.497	360.88
506.93	342.16
507.362	358.54
507.795	325.77
508.227	337.48
508.66	358.54
509.092	372.58
509.524	360.88
509.956	339.82
510.389	398.33
510.821	398.33
511.253	400.67
511.685	302.37
512.117	342.16
512.549	344.5
512.981	321.09
513.412	316.41
513.844	314.07
514.276	297.69
514.707	405.35
515.139	365.56
515.571	372.58
516.002	381.95
516.433	297.69
516.865	323.43
517.296	351.52
517.727	405.35
518.159	344.5
518.59	353.86
519.021	386.63
519.452	278.96
519.883	314.07
520.314	344.5
520.744	274.28
521.175	356.2
521.606	316.41
522.037	325.77
522.467	344.5
522.898	332.79
523.328	351.52
523.759	386.63
524.189	321.09
524.62	339.82
525.05	288.32
525.48	321.09
525.91	356.2
526.341	332.79
526.771	295.35
527.201	358.54
527.631	332.79
528.061	370.24
528.49	297.69
528.92	316.41
529.35	304.71
529.78	311.73
530.209	395.99
530.639	321.09
531.068	288.32
531.498	302.37
531.927	337.48
532.357	239.17
532.786	332.79
533.215	339.82
533.644	346.84
534.074	337.48
534.503	377.27
534.932	307.05
535.361	332.79
535.79	314.07
536.218	337.48
536.647	351.52
537.076	269.6
537.505	381.95
537.933	330.45
538.362	323.43
538.79	344.5
539.219	339.82
539.647	339.82
540.076	365.56
540.504	311.73
540.932	325.77
541.36	342.16
541.788	360.88
542.217	318.75
542.645	370.24
543.073	349.18
543.5	330.45
543.928	344.5
544.356	290.67
544.784	349.18
545.211	271.94
545.639	262.58
546.067	344.5
546.494	360.88
546.922	346.84
547.349	328.11
547.776	314.07
548.204	316.41
548.631	344.5
549.058	318.75
549.485	318.75
549.912	335.14
550.339	311.73
550.766	311.73
551.193	281.3
551.62	346.84
552.047	335.14
552.474	356.2
552.9	351.52
553.327	332.79
553.754	351.52
554.18	363.22
554.607	337.48
555.033	325.77
555.459	377.27
555.886	367.9
556.312	325.77
556.738	356.2
557.164	307.05
557.59	309.39
558.016	356.2
558.442	339.82
558.868	365.56
559.294	232.15
559.72	295.35
560.145	351.52
560.571	328.11
560.997	407.69
561.422	302.37
561.848	344.5
562.273	302.37
562.699	360.88
563.124	302.37
563.549	332.79
563.974	330.45
564.4	295.35
564.825	339.82
565.25	351.52
565.675	316.41
566.1	267.26
566.525	377.27
566.95	356.2
567.374	344.5
567.799	330.45
568.224	400.67
568.648	337.48
569.073	365.56
569.497	330.45
569.922	337.48
570.346	307.05
570.771	356.2
571.195	318.75
571.619	346.84
572.043	346.84
572.467	367.9
572.891	318.75
573.315	318.75
573.739	328.11
574.163	290.67
574.587	309.39
575.011	360.88
575.435	346.84
575.858	271.94
576.282	281.3
576.705	370.24
577.129	325.77
577.552	328.11
577.976	346.84
578.399	342.16
578.822	311.73
579.245	325.77
579.669	281.3
580.092	304.71
580.515	335.14
580.938	328.11
581.361	353.86
581.784	304.71
582.206	316.41
582.629	335.14
583.052	323.43
583.474	372.58
583.897	344.5
584.32	358.54
584.742	344.5
585.165	260.24
585.587	321.09
586.009	274.28
586.431	346.84
586.854	325.77
587.276	311.73
587.698	370.24
588.12	332.79
588.542	346.84
588.964	236.83
589.386	281.3
589.807	353.86
590.229	372.58
590.651	267.26
591.073	351.52
591.494	346.84
591.916	325.77
592.337	391.31
592.759	372.58
593.18	335.14
593.601	374.92
594.022	316.41
594.444	316.41
594.865	325.77
595.286	358.54
595.707	290.67
596.128	349.18
596.549	335.14
596.97	386.63
597.39	379.61
597.811	295.35
598.232	328.11
598.652	414.71
599.073	346.84
599.494	321.09
599.914	339.82
600.334	323.43
600.755	346.84
601.175	332.79
601.595	360.88
602.015	328.11
602.436	297.69
602.856	477.91
603.276	335.14
603.696	316.41
604.115	309.39
604.535	311.73
604.955	328.11
605.375	386.63
605.794	274.28
606.214	351.52
606.634	290.67
607.053	379.61
607.473	285.98
607.892	318.75
608.311	293.01
608.731	342.16
609.15	391.31
609.569	358.54
609.988	379.61
610.407	365.56
610.826	344.5
611.245	316.41
611.664	332.79
612.083	293.01
612.501	300.03
612.92	353.86
613.339	353.86
613.757	405.35
614.176	309.39
614.594	388.97
615.013	353.86
615.431	358.54
615.85	332.79
616.268	328.11
616.686	316.41
617.104	325.77
617.522	356.2
617.94	278.96
618.358	300.03
618.776	288.32
619.194	325.77
619.612	309.39
620.03	293.01
620.447	332.79
620.865	395.99
621.282	339.82
621.7	356.2
622.117	295.35
622.535	321.09
622.952	388.97
623.369	365.56
623.787	370.24
624.204	349.18
624.621	360.88
625.038	419.39
625.455	328.11
625.872	283.64
626.289	295.35
626.706	335.14
627.123	344.5
627.539	290.67
627.956	290.67
628.373	297.69
628.789	391.31
629.206	274.28
629.622	360.88
630.038	314.07
630.455	372.58
630.871	246.2
631.287	318.75
631.703	353.86
632.12	349.18
632.536	302.37
632.952	403.01
633.368	374.92
633.783	339.82
634.199	370.24
634.615	342.16
635.031	318.75
635.446	435.78
635.862	337.48
636.277	339.82
636.693	386.63
637.108	300.03
637.524	335.14
637.939	300.03
638.354	342.16
638.77	304.71
639.185	379.61
639.6	349.18
640.015	271.94
640.43	321.09
640.845	391.31
641.259	297.69
641.674	248.54
642.089	309.39
642.504	351.52
642.918	335.14
643.333	377.27
643.747	386.63
644.162	323.43
644.576	307.05
644.991	377.27
645.405	332.79
645.819	300.03
646.233	297.69
646.647	321.09
647.061	360.88
647.475	395.99
647.889	285.98
648.303	358.54
648.717	356.2
649.131	321.09
649.545	309.39
649.958	321.09
650.372	262.58
650.785	346.84
651.199	365.56
651.612	360.88
652.026	351.52
652.439	314.07
652.852	365.56
653.266	342.16
653.679	339.82
654.092	269.6
654.505	325.77
654.918	346.84
655.331	386.63
655.744	337.48
656.156	349.18
656.569	311.73
656.982	374.92
657.394	384.29
657.807	323.43
658.22	346.84
658.632	332.79
659.044	351.52
659.457	314.07
659.869	335.14
660.281	267.26
660.693	349.18
661.106	321.09
661.518	358.54
661.93	302.37
662.342	363.22
662.754	346.84
663.165	328.11
663.577	323.43
663.989	351.52
664.401	339.82
664.812	271.94
665.224	360.88
665.635	410.03
666.047	391.31
666.458	388.97
666.869	328.11
667.281	278.96
667.692	339.82
668.103	372.58
668.514	321.09
668.925	332.79
669.336	335.14
669.747	262.58
670.158	302.37
670.569	384.29
670.979	381.95
671.39	302.37
671.801	407.69
672.211	285.98
672.622	351.52
673.032	339.82
673.443	332.79
673.853	302.37
674.263	297.69
674.674	321.09
675.084	300.03
675.494	325.77
675.904	300.03
676.314	353.86
676.724	356.2
677.134	281.3
677.544	293.01
677.953	384.29
678.363	363.22
678.773	379.61
679.182	374.92
679.592	300.03
680.001	300.03
680.411	278.96
680.82	302.37
681.23	379.61
681.639	337.48
682.048	300.03
682.457	363.22
682.866	374.92
683.275	321.09
683.684	300.03
684.093	379.61
684.502	391.31
684.911	360.88
685.32	346.84
685.728	365.56
686.137	363.22
686.546	367.9
686.954	363.22
687.363	309.39
687.771	346.84
688.179	297.69
688.588	337.48
688.996	311.73
689.404	318.75
689.812	285.98
690.22	395.99
690.628	346.84
691.036	276.62
691.444	342.16
691.852	307.05
692.26	342.16
692.667	337.48
693.075	339.82
693.483	330.45
693.89	339.82
694.298	321.09
694.705	318.75
695.112	323.43
695.52	323.43
695.927	290.67
696.334	374.92
696.741	267.26
697.148	325.77
697.555	344.5
697.962	314.07
698.369	356.2
698.776	367.9
699.183	297.69
699.59	363.22
699.996	260.24
700.403	328.11
700.81	356.2
701.216	400.67
701.623	293.01
702.029	349.18
702.435	393.65
702.842	342.16
703.248	353.86
703.654	304.71
704.06	328.11
704.466	346.84
704.872	344.5
705.278	349.18
705.684	391.31
706.09	309.39
706.496	290.67
706.901	316.41
707.307	309.39
707.712	283.64
708.118	342.16
708.523	318.75
708.929	339.82
709.334	328.11
709.74	337.48
710.145	344.5
710.55	342.16
710.955	323.43
711.36	318.75
711.765	337.48
712.17	358.54
712.575	330.45
712.98	826.65
713.385	328.11
713.789	342.16
714.194	332.79
714.599	271.94
715.003	337.48
715.408	314.07
715.812	307.05
716.217	260.24
716.621	323.43
717.025	332.79
717.429	353.86
717.833	269.6
718.238	302.37
718.642	325.77
719.046	395.99
719.449	367.9
719.853	349.18
720.257	356.2
720.661	302.37
721.065	281.3
721.468	342.16
721.872	257.9
722.275	295.35
722.679	346.84
723.082	374.92
723.485	288.32
723.889	367.9
724.292	316.41
724.695	393.65
725.098	328.11
725.501	316.41
725.904	351.52
726.307	381.95
726.71	332.79
727.113	374.92
727.516	344.5
727.918	264.92
728.321	260.24
728.724	311.73
729.126	379.61
729.529	335.14
729.931	314.07
730.333	367.9
730.736	346.84
731.138	321.09
731.54	349.18
731.942	321.09
732.344	342.16
732.746	295.35
733.148	356.2
733.55	356.2
733.952	332.79
734.354	297.69
734.756	321.09
735.157	337.48
735.559	379.61
735.96	302.37
736.362	381.95
736.763	328.11
737.165	262.58
737.566	367.9
737.967	281.3
738.368	325.77
738.77	374.92
739.171	328.11
739.572	318.75
739.973	300.03
740.374	344.5
740.774	276.62
741.175	300.03
741.576	356.2
741.977	295.35
742.377	339.82
742.778	372.58
743.178	384.29
743.579	407.69
743.979	321.09
744.379	314.07
744.78	316.41
745.18	318.75
745.58	349.18
745.98	323.43
746.38	386.63
746.78	391.31
747.18	365.56
747.58	314.07
747.98	335.14
748.38	337.48
748.779	325.77
749.179	356.2
749.578	349.18
749.978	316.41
750.377	290.67
750.777	344.5
751.176	351.52
751.575	318.75
751.975	339.82
752.374	393.65
752.773	330.45
753.172	293.01
753.571	295.35
753.97	332.79
754.369	337.48
754.768	342.16
755.166	398.33
755.565	321.09
755.964	283.64
756.362	281.3
756.761	288.32
757.159	288.32
757.558	360.88
757.956	393.65
758.354	332.79
758.753	307.05
759.151	344.5
759.549	339.82
759.947	360.88
760.345	344.5
760.743	386.63
761.141	339.82
761.539	360.88
761.936	269.6
762.334	330.45
762.732	337.48
763.129	304.71
763.527	297.69
763.924	363.22
764.322	267.26
764.719	337.48
765.117	302.37
765.514	302.37
765.911	302.37
766.308	339.82
766.705	328.11
767.102	314.07
767.499	314.07
767.896	346.84
768.293	300.03
768.69	314.07
769.086	325.77
769.483	297.69
769.88	346.84
770.276	332.79
770.673	377.27
771.069	278.96
771.466	377.27
771.862	295.35
772.258	377.27
772.654	393.65
773.05	297.69
773.447	346.84
773.843	339.82
774.239	318.75
774.634	285.98
775.03	307.05
775.426	314.07
775.822	403.01
776.218	356.2
776.613	297.69
777.009	377.27
777.404	335.14
777.8	356.2
778.195	318.75
778.59	302.37
778.986	314.07
779.381	293.01
779.776	337.48
780.171	290.67
780.566	262.58
780.961	386.63
781.356	342.16
781.751	351.52
782.146	351.52
782.54	295.35
782.935	337.48
783.33	349.18
783.724	339.82
784.119	330.45
784.513	358.54
784.908	346.84
785.302	323.43
785.696	323.43
786.09	356.2
786.485	309.39
786.879	314.07
787.273	321.09
787.667	302.37
788.061	314.07
788.454	323.43
788.848	330.45
789.242	342.16
789.636	342.16
790.029	358.54
790.423	321.09
790.816	346.84
791.21	391.31
791.603	302.37
791.997	290.67
792.39	318.75
792.783	323.43
793.176	288.32
793.569	285.98
793.962	281.3
794.355	346.84
794.748	297.69
795.141	330.45
795.534	307.05
795.927	342.16
796.319	342.16
796.712	344.5
797.105	271.94
797.497	335.14
797.89	297.69
798.282	316.41
798.674	344.5
799.067	346.84
799.459	293.01
799.851	339.82
800.243	278.96
800.635	316.41
801.027	384.29
801.419	337.48
801.811	337.48
802.203	321.09
802.594	283.64
802.986	309.39
803.378	360.88
803.769	276.62
804.161	337.48
804.552	267.26
804.944	271.94
805.335	278.96
805.726	339.82
806.118	351.52
806.509	363.22
806.9	318.75
807.291	363.22
807.682	290.67
808.073	321.09
808.464	283.64
808.855	309.39
809.245	330.45
809.636	295.35
810.027	309.39
810.417	290.67
810.808	370.24
811.198	370.24
811.589	307.05
811.979	290.67
812.369	309.39
812.759	400.67
813.15	241.51
813.54	302.37
813.93	271.94
814.32	337.48
814.71	283.64
815.1	269.6
815.489	332.79
815.879	351.52
816.269	300.03
816.658	360.88
817.048	311.73
817.438	363.22
817.827	391.31
818.216	365.56
818.606	325.77
818.995	332.79
819.384	288.32
819.773	349.18
820.163	337.48
820.552	339.82
820.941	302.37
821.33	297.69
821.718	262.58
822.107	332.79
822.496	300.03
822.885	384.29
823.273	325.77
823.662	356.2
824.05	349.18
824.439	309.39
824.827	253.22
825.216	353.86
825.604	271.94
825.992	318.75
826.38	360.88
826.768	332.79
827.156	325.77
827.544	323.43
827.932	318.75
828.32	283.64
828.708	377.27
829.096	339.82
829.483	325.77
829.871	300.03
830.259	314.07
830.646	374.92
831.034	318.75
831.421	297.69
831.808	267.26
832.196	353.86
832.583	332.79
832.97	290.67
833.357	325.77
833.744	283.64
834.131	381.95
834.518	278.96
834.905	323.43
835.292	321.09
835.678	328.11
836.065	325.77
836.452	339.82
836.838	358.54
837.225	328.11
837.611	332.79
837.998	358.54
838.384	370.24
838.77	300.03
839.157	318.75
839.543	344.5
839.929	332.79
840.315	302.37
840.701	253.22
841.087	267.26
841.473	293.01
841.858	363.22
842.244	374.92
842.63	374.92
843.015	400.67
843.401	627.7
843.787	358.54
844.172	271.94
844.557	332.79
844.943	307.05
845.328	379.61
845.713	300.03
846.098	328.11
846.483	344.5
846.868	358.54
847.253	302.37
847.638	332.79
848.023	267.26
848.408	330.45
848.793	351.52
849.177	374.92
849.562	288.32
849.947	381.95
850.331	337.48
850.715	311.73
851.1	314.07
851.484	363.22
851.868	316.41
852.253	332.79
852.637	271.94
853.021	358.54
853.405	311.73
853.789	283.64
854.173	264.92
854.557	356.2
854.94	314.07
855.324	295.35
855.708	323.43
856.091	360.88
856.475	281.3
856.858	325.77
857.242	278.96
857.625	358.54
858.009	367.9
858.392	379.61
858.775	278.96
859.158	330.45
859.541	304.71
859.924	365.56
860.307	330.45
860.69	278.96
861.073	346.84
861.456	349.18
861.838	300.03
862.221	295.35
862.604	325.77
862.986	323.43
863.369	346.84
863.751	290.67
864.133	311.73
864.516	278.96
864.898	311.73
865.28	295.35
865.662	342.16
866.044	304.71
866.426	293.01
866.808	342.16
867.19	321.09
867.572	307.05
867.954	316.41
868.336	374.92
868.717	307.05
869.099	351.52
869.48	307.05
869.862	297.69
870.243	281.3
870.625	264.92
871.006	330.45
871.387	330.45
871.768	264.92
872.149	318.75
872.53	318.75
872.911	337.48
873.292	267.26
873.673	356.2
874.054	276.62
874.435	281.3
874.815	290.67
875.196	316.41
875.577	253.22
875.957	367.9
876.338	332.79
876.718	257.9
877.098	400.67
877.479	276.62
877.859	318.75
878.239	297.69
878.619	321.09
878.999	367.9
879.379	293.01
879.759	323.43
880.139	325.77
880.519	276.62
880.898	379.61
881.278	351.52
881.658	302.37
882.037	325.77
882.417	358.54
882.796	377.27
883.176	335.14
883.555	304.71
883.934	335.14
884.313	295.35
884.693	342.16
885.072	330.45
885.451	349.18
885.83	353.86
886.209	283.64
886.587	381.95
886.966	309.39
887.345	323.43
887.724	302.37
888.102	374.92
888.481	302.37
888.859	328.11
889.238	278.96
889.616	276.62
889.994	328.11
890.373	295.35
890.751	337.48
891.129	325.77
891.507	363.22
891.885	356.2
892.263	321.09
892.641	295.35
893.019	316.41
893.396	264.92
893.774	356.2
894.152	295.35
894.529	400.67
894.907	339.82
895.284	365.56
895.662	337.48
896.039	358.54
896.416	344.5
896.794	243.85
897.171	304.71
897.548	215.77
897.925	356.2
898.302	307.05
898.679	379.61
899.056	339.82
899.433	318.75
899.809	332.79
900.186	344.5
900.563	339.82
900.939	257.9
901.316	300.03
901.692	316.41
902.069	321.09
902.445	332.79
902.821	339.82
903.197	295.35
903.574	395.99
903.95	281.3
904.326	260.24
904.702	281.3
905.078	353.86
905.454	271.94
905.829	356.2
906.205	307.05
906.581	351.52
906.956	339.82
907.332	314.07
907.707	328.11
908.083	297.69
908.458	339.82
908.833	295.35
909.209	325.77
909.584	262.58
909.959	358.54
910.334	262.58
910.709	339.82
911.084	377.27
911.459	290.67
911.834	309.39
912.209	370.24
912.583	314.07
912.958	370.24
913.333	309.39
913.707	300.03
914.082	297.69
914.456	307.05
914.83	302.37
915.205	351.52
915.579	342.16
915.953	386.63
916.327	311.73
916.701	374.92
917.075	395.99
917.449	269.6
917.823	239.17
918.197	318.75
918.571	337.48
918.944	285.98
919.318	288.32
919.692	344.5
920.065	351.52
920.438	309.39
920.812	293.01
921.185	339.82
921.558	302.37
921.932	339.82
922.305	314.07
922.678	281.3
923.051	407.69
923.424	257.9
923.797	332.79
924.17	335.14
924.542	328.11
924.915	293.01
925.288	288.32
925.661	330.45
926.033	405.35
926.406	342.16
926.778	356.2
927.15	250.88
927.523	271.94
927.895	365.56
928.267	297.69
928.639	318.75
929.011	377.27
929.383	300.03
929.755	332.79
930.127	335.14
930.499	309.39
930.871	379.61
931.242	300.03
931.614	363.22
931.986	349.18
932.357	323.43
932.729	377.27
933.1	365.56
933.471	260.24
933.843	332.79
934.214	297.69
934.585	257.9
934.956	351.52
935.327	293.01
935.698	283.64
936.069	307.05
936.44	363.22
936.811	363.22
937.182	332.79
937.552	346.84
937.923	283.64
938.293	283.64
938.664	288.32
939.034	260.24
939.405	318.75
939.775	328.11
940.145	290.67
940.516	321.09
940.886	293.01
941.256	304.71
941.626	342.16
941.996	337.48
942.366	328.11
942.735	342.16
943.105	288.32
943.475	264.92
943.845	262.58
944.214	323.43
944.584	321.09
944.953	358.54
945.323	351.52
945.692	356.2
946.061	311.73
946.43	384.29
946.8	290.67
947.169	302.37
947.538	276.62
947.907	309.39
948.276	318.75
948.645	360.88
949.013	360.88
949.382	330.45
949.751	365.56
950.119	342.16
950.488	395.99
950.857	344.5
951.225	328.11
951.593	314.07
951.962	349.18
952.33	257.9
952.698	372.58
953.066	360.88
953.434	316.41
953.802	360.88
954.17	353.86
954.538	377.27
954.906	297.69
955.274	288.32
955.642	321.09
956.009	335.14
956.377	323.43
956.744	307.05
957.112	311.73
957.479	323.43
957.847	349.18
958.214	316.41
958.581	335.14
958.948	290.67
959.315	358.54
959.683	290.67
960.05	339.82
960.416	330.45
960.783	332.79
961.15	356.2
961.517	295.35
961.884	342.16
962.25	276.62
962.617	386.63
962.983	351.52
963.35	381.95
963.716	344.5
964.082	297.69
964.449	370.24
964.815	339.82
965.181	293.01
965.547	307.05
965.913	367.9
966.279	302.37
966.645	276.62
967.011	295.35
967.377	349.18
967.742	328.11
968.108	323.43
968.474	297.69
968.839	311.73
969.205	342.16
969.57	300.03
969.935	241.51
970.301	339.82
970.666	393.65
971.031	335.14
971.396	332.79
971.761	311.73
972.126	220.45
972.491	332.79
972.856	255.56
973.221	302.37
973.586	332.79
973.95	344.5
974.315	297.69
974.679	342.16
975.044	346.84
975.408	344.5
975.773	302.37
976.137	363.22
976.501	339.82
976.866	295.35
977.23	353.86
977.594	328.11
977.958	339.82
978.322	318.75
978.686	307.05
979.049	335.14
979.413	337.48
979.777	276.62
980.141	304.71
980.504	250.88
980.868	278.96
981.231	300.03
981.595	278.96
981.958	321.09
982.321	349.18
982.684	335.14
983.048	337.48
983.411	335.14
983.774	374.92
984.137	365.56
984.5	321.09
984.862	318.75
985.225	288.32
985.588	295.35
985.951	365.56
986.313	281.3
986.676	346.84
987.038	311.73
987.401	381.95
987.763	323.43
988.125	220.45
988.488	328.11
988.85	323.43
989.212	339.82
989.574	335.14
989.936	330.45
990.298	379.61
990.66	344.5
991.022	370.24
991.383	293.01
991.745	356.2
992.107	307.05
992.468	302.37
992.83	325.77
993.191	337.48
993.553	318.75
993.914	363.22
994.275	365.56
994.637	377.27
994.998	323.43
995.359	318.75
995.72	321.09
996.081	290.67
996.442	346.84
996.803	307.05
997.163	318.75
997.524	328.11
997.885	328.11
998.245	374.92
998.606	381.95
998.966	243.85
999.327	318.75
999.687	318.75
1000.047	314.07
1000.408	278.96
1000.768	300.03
1001.128	262.58
1001.488	323.43
1001.848	316.41
1002.208	307.05
1002.568	285.98
1002.927	314.07
1003.287	335.14
1003.647	372.58
1004.007	293.01
1004.366	297.69
1004.726	358.54
1005.085	325.77
1005.444	307.05
1005.804	309.39
1006.163	278.96
1006.522	225.13
1006.881	297.69
1007.24	297.69
1007.599	393.65
1007.958	330.45
1008.317	290.67
1008.676	278.96
1009.035	358.54
1009.393	379.61
1009.752	262.58
1010.111	253.22
1010.469	278.96
1010.828	342.16
1011.186	260.24
1011.544	304.71
1011.903	346.84
1012.261	400.67
1012.619	330.45
1012.977	302.37
1013.335	344.5
1013.693	323.43
1014.051	241.51
1014.409	374.92
1014.767	328.11
1015.124	307.05
1015.482	344.5
1015.84	358.54
1016.197	337.48
1016.555	309.39
1016.912	278.96
1017.269	339.82
1017.627	309.39
1017.984	379.61
1018.341	370.24
1018.698	386.63
1019.055	290.67
1019.412	267.26
1019.769	358.54
1020.126	307.05
1020.483	309.39
1020.84	360.88
1021.196	307.05
1021.553	346.84
1021.909	311.73
1022.266	300.03
1022.622	311.73
1022.979	410.03
1023.335	356.2
1023.691	267.26
1024.047	328.11
1024.404	281.3
1024.76	395.99
1025.116	276.62
1025.472	344.5
1025.827	295.35
1026.183	225.13
1026.539	332.79
1026.895	367.9
1027.25	297.69
1027.606	316.41
1027.961	309.39
1028.317	330.45
1028.672	271.94
1029.028	297.69
1029.383	316.41
1029.738	318.75
1030.093	337.48
1030.448	304.71
1030.803	264.92
1031.158	325.77
1031.513	271.94
1031.868	309.39
1032.223	344.5
1032.577	328.11
1032.932	330.45
1033.287	300.03
1033.641	346.84
1033.996	339.82
1034.35	360.88
1034.704	346.84
1035.059	300.03
1035.413	295.35
1035.767	295.35
1036.121	295.35
