Data from Al_FLMS009871__782__15-21-47-114.txt Node

Date: Fri Mar 08 15:21:47 CST 2024
User: pe5414po
Spectrometer: FLMS00987
Trigger mode: 0
Integration Time (sec): 1.000000E-1
Scans to average: 1
Electric dark correction enabled: true
Nonlinearity correction enabled: false
Boxcar width: 0
XAxis mode: Wavelengths
Number of Pixels in Spectrum: 2048
>>>>>Begin Spectral Data<<<<<
188.938	-82.21
189.409	-82.21
189.879	-82.21
190.349	-84.55
190.819	-96.25
191.29	-119.66
191.76	-126.68
192.23	-114.98
192.7	-58.81
193.17	-19.02
193.64	-40.08
194.109	-42.42
194.579	-28.38
195.049	-4.97
195.519	53.54
195.988	13.75
196.458	41.84
196.927	142.48
197.397	46.52
197.866	83.97
198.336	172.91
198.805	140.14
199.274	184.61
199.744	189.29
200.213	189.29
200.682	196.31
201.151	264.19
201.62	280.57
202.089	203.33
202.558	189.29
203.027	287.59
203.495	353.13
203.964	198.65
204.433	252.49
204.902	301.64
205.37	271.21
205.839	252.49
206.307	268.87
206.776	282.91
207.244	334.4
207.712	315.68
208.181	240.78
208.649	257.17
209.117	339.09
209.585	332.06
210.053	313.34
210.521	289.93
210.989	294.61
211.457	301.64
211.925	318.02
212.393	322.7
212.861	292.27
213.328	341.43
213.796	254.83
214.264	254.83
214.731	294.61
215.199	278.23
215.666	327.38
216.133	320.36
216.601	287.59
217.068	233.76
217.535	229.08
218.003	329.72
218.47	287.59
218.937	233.76
219.404	268.87
219.871	233.76
220.338	245.46
220.805	252.49
221.271	254.83
221.738	294.61
222.205	273.55
222.671	273.55
223.138	264.19
223.605	287.59
224.071	172.91
224.538	320.36
225.004	236.1
225.47	296.96
225.937	252.49
226.403	219.72
226.869	273.55
227.335	282.91
227.801	285.25
228.267	203.33
228.733	266.53
229.199	240.78
229.665	306.32
230.131	257.17
230.597	271.21
231.062	322.7
231.528	271.21
231.994	238.44
232.459	299.3
232.925	282.91
233.39	341.43
233.856	250.14
234.321	247.8
234.786	208.02
235.252	343.77
235.717	280.57
236.182	280.57
236.647	275.89
237.112	306.32
237.577	336.74
238.042	282.91
238.507	240.78
238.972	210.36
239.436	289.93
239.901	311
240.366	320.36
240.83	247.8
241.295	346.11
241.76	278.23
242.224	296.96
242.688	231.42
243.153	252.49
243.617	264.19
244.081	257.17
244.545	313.34
245.01	257.17
245.474	301.64
245.938	287.59
246.402	289.93
246.866	280.57
247.33	294.61
247.793	292.27
248.257	247.8
248.721	301.64
249.185	240.78
249.648	252.49
250.112	268.87
250.575	294.61
251.039	315.68
251.502	252.49
251.965	259.51
252.429	252.49
252.892	275.89
253.355	275.89
253.818	287.59
254.281	318.02
254.744	268.87
255.207	247.8
255.67	285.25
256.133	261.85
256.596	259.51
257.059	346.11
257.522	252.49
257.984	308.66
258.447	381.21
258.909	294.61
259.372	278.23
259.834	296.96
260.297	268.87
260.759	289.93
261.221	285.25
261.684	266.53
262.146	252.49
262.608	313.34
263.07	287.59
263.532	280.57
263.994	294.61
264.456	296.96
264.918	308.66
265.38	224.4
265.842	231.42
266.303	360.15
266.765	336.74
267.227	259.51
267.688	301.64
268.15	322.7
268.611	303.98
269.072	278.23
269.534	238.44
269.995	292.27
270.456	318.02
270.918	257.17
271.379	289.93
271.84	308.66
272.301	367.17
272.762	311
273.223	299.3
273.684	236.1
274.144	273.55
274.605	357.81
275.066	254.83
275.527	325.04
275.987	320.36
276.448	306.32
276.908	348.45
277.369	320.36
277.829	313.34
278.289	259.51
278.75	355.47
279.21	296.96
279.67	320.36
280.13	257.17
280.59	266.53
281.05	301.64
281.51	336.74
281.97	329.72
282.43	350.79
282.89	224.4
283.35	348.45
283.809	311
284.269	292.27
284.729	271.21
285.188	273.55
285.648	250.14
286.107	292.27
286.567	296.96
287.026	268.87
287.485	292.27
287.944	308.66
288.404	334.4
288.863	261.85
289.322	308.66
289.781	287.59
290.24	325.04
290.699	299.3
291.158	339.09
291.616	259.51
292.075	322.7
292.534	322.7
292.992	245.46
293.451	320.36
293.91	350.79
294.368	308.66
294.827	252.49
295.285	282.91
295.743	353.13
296.202	318.02
296.66	240.78
297.118	329.72
297.576	282.91
298.034	285.25
298.492	329.72
298.95	289.93
299.408	292.27
299.866	311
300.324	341.43
300.781	292.27
301.239	315.68
301.697	273.55
302.154	325.04
302.612	275.89
303.069	278.23
303.527	322.7
303.984	292.27
304.441	289.93
304.899	327.38
305.356	303.98
305.813	332.06
306.27	282.91
306.727	278.23
307.184	278.23
307.641	318.02
308.098	355.47
308.555	292.27
309.012	299.3
309.468	313.34
309.925	282.91
310.382	231.42
310.838	367.17
311.295	315.68
311.751	332.06
312.208	315.68
312.664	299.3
313.12	343.77
313.577	392.92
314.033	247.8
314.489	266.53
314.945	240.78
315.401	238.44
315.857	353.13
316.313	299.3
316.769	243.12
317.225	327.38
317.681	308.66
318.136	285.25
318.592	325.04
319.048	301.64
319.503	325.04
319.959	301.64
320.414	303.98
320.869	238.44
321.325	306.32
321.78	346.11
322.235	343.77
322.691	332.06
323.146	346.11
323.601	322.7
324.056	287.59
324.511	346.11
324.966	341.43
325.421	329.72
325.875	280.57
326.33	294.61
326.785	334.4
327.24	313.34
327.694	329.72
328.149	343.77
328.603	303.98
329.058	318.02
329.512	318.02
329.966	325.04
330.421	238.44
330.875	327.38
331.329	278.23
331.783	353.13
332.237	261.85
332.691	289.93
333.145	311
333.599	318.02
334.053	289.93
334.507	236.1
334.96	320.36
335.414	240.78
335.868	311
336.321	311
336.775	287.59
337.228	353.13
337.682	313.34
338.135	320.36
338.588	301.64
339.042	336.74
339.495	332.06
339.948	271.21
340.401	259.51
340.854	320.36
341.307	301.64
341.76	243.12
342.213	282.91
342.666	341.43
343.119	353.13
343.571	311
344.024	320.36
344.477	264.19
344.929	355.47
345.382	341.43
345.834	273.55
346.287	376.53
346.739	226.74
347.191	334.4
347.644	257.17
348.096	296.96
348.548	353.13
349	362.49
349.452	341.43
349.904	299.3
350.356	275.89
350.808	322.7
351.26	346.11
351.711	332.06
352.163	292.27
352.615	322.7
353.066	285.25
353.518	339.09
353.969	257.17
354.421	353.13
354.872	346.11
355.324	332.06
355.775	245.46
356.226	327.38
356.677	313.34
357.128	343.77
357.579	275.89
358.03	278.23
358.481	357.81
358.932	280.57
359.383	261.85
359.834	369.51
360.285	318.02
360.735	357.81
361.186	254.83
361.637	301.64
362.087	294.61
362.538	325.04
362.988	292.27
363.438	292.27
363.889	301.64
364.339	271.21
364.789	271.21
365.239	226.74
365.689	306.32
366.139	339.09
366.589	376.53
367.039	343.77
367.489	306.32
367.939	271.21
368.389	325.04
368.839	325.04
369.288	275.89
369.738	275.89
370.187	329.72
370.637	308.66
371.086	322.7
371.536	364.83
371.985	266.53
372.434	325.04
372.884	301.64
373.333	313.34
373.782	259.51
374.231	327.38
374.68	252.49
375.129	329.72
375.578	350.79
376.027	355.47
376.475	320.36
376.924	329.72
377.373	325.04
377.822	318.02
378.27	329.72
378.719	311
379.167	381.21
379.616	308.66
380.064	343.77
380.512	306.32
380.961	254.83
381.409	280.57
381.857	296.96
382.305	346.11
382.753	271.21
383.201	320.36
383.649	311
384.097	271.21
384.545	315.68
384.992	296.96
385.44	325.04
385.888	301.64
386.335	292.27
386.783	275.89
387.231	322.7
387.678	289.93
388.125	339.09
388.573	296.96
389.02	313.34
389.467	289.93
389.914	268.87
390.362	348.45
390.809	289.93
391.256	369.51
391.703	264.19
392.15	336.74
392.596	301.64
393.043	259.51
393.49	355.47
393.937	329.72
394.383	353.13
394.83	268.87
395.276	313.34
395.723	315.68
396.169	259.51
396.616	327.38
397.062	238.44
397.508	327.38
397.954	341.43
398.401	308.66
398.847	306.32
399.293	308.66
399.739	273.55
400.185	294.61
400.631	282.91
401.076	336.74
401.522	301.64
401.968	329.72
402.414	378.87
402.859	325.04
403.305	301.64
403.75	367.17
404.196	357.81
404.641	322.7
405.086	322.7
405.532	357.81
405.977	311
406.422	325.04
406.867	336.74
407.312	294.61
407.757	325.04
408.202	399.94
408.647	332.06
409.092	343.77
409.537	346.11
409.982	327.38
410.426	336.74
410.871	327.38
411.316	313.34
411.76	282.91
412.205	296.96
412.649	381.21
413.093	348.45
413.538	341.43
413.982	381.21
414.426	266.53
414.87	322.7
415.314	357.81
415.758	341.43
416.202	336.74
416.646	308.66
417.09	303.98
417.534	329.72
417.978	341.43
418.421	311
418.865	292.27
419.309	303.98
419.752	315.68
420.196	313.34
420.639	357.81
421.083	315.68
421.526	327.38
421.969	332.06
422.412	280.57
422.856	376.53
423.299	346.11
423.742	292.27
424.185	285.25
424.628	329.72
425.071	287.59
425.513	264.19
425.956	296.96
426.399	299.3
426.842	301.64
427.284	336.74
427.727	381.21
428.169	275.89
428.612	329.72
429.054	282.91
429.497	325.04
429.939	294.61
430.381	219.72
430.823	282.91
431.265	306.32
431.707	332.06
432.149	341.43
432.591	289.93
433.033	325.04
433.475	280.57
433.917	313.34
434.359	289.93
434.8	268.87
435.242	350.79
435.684	381.21
436.125	275.89
436.567	339.09
437.008	313.34
437.449	294.61
437.891	360.15
438.332	374.19
438.773	268.87
439.214	336.74
439.656	275.89
440.097	378.87
440.538	259.51
440.978	327.38
441.419	329.72
441.86	350.79
442.301	303.98
442.742	336.74
443.182	315.68
443.623	362.49
444.063	285.25
444.504	313.34
444.944	329.72
445.385	322.7
445.825	308.66
446.265	378.87
446.706	327.38
447.146	320.36
447.586	294.61
448.026	325.04
448.466	327.38
448.906	278.23
449.346	315.68
449.786	346.11
450.225	322.7
450.665	306.32
451.105	303.98
451.544	308.66
451.984	353.13
452.424	299.3
452.863	327.38
453.302	374.19
453.742	325.04
454.181	346.11
454.62	306.32
455.059	292.27
455.499	334.4
455.938	350.79
456.377	315.68
456.816	289.93
457.254	376.53
457.693	332.06
458.132	346.11
458.571	355.47
459.01	320.36
459.448	282.91
459.887	355.47
460.325	339.09
460.764	306.32
461.202	353.13
461.641	423.34
462.079	278.23
462.517	292.27
462.955	313.34
463.393	341.43
463.832	311
464.27	285.25
464.708	353.13
465.145	285.25
465.583	327.38
466.021	334.4
466.459	294.61
466.897	322.7
467.334	289.93
467.772	301.64
468.209	364.83
468.647	303.98
469.084	364.83
469.522	320.36
469.959	320.36
470.396	315.68
470.833	369.51
471.271	348.45
471.708	329.72
472.145	325.04
472.582	313.34
473.019	280.57
473.456	348.45
473.892	245.46
474.329	318.02
474.766	285.25
475.202	296.96
475.639	301.64
476.076	329.72
476.512	296.96
476.949	332.06
477.385	285.25
477.821	296.96
478.258	334.4
478.694	336.74
479.13	318.02
479.566	313.34
480.002	360.15
480.438	360.15
480.874	282.91
481.31	353.13
481.746	336.74
482.181	406.96
482.617	374.19
483.053	268.87
483.488	294.61
483.924	273.55
484.36	294.61
484.795	315.68
485.23	280.57
485.666	332.06
486.101	413.98
486.536	322.7
486.971	257.17
487.407	301.64
487.842	364.83
488.277	296.96
488.712	294.61
489.146	280.57
489.581	306.32
490.016	381.21
490.451	360.15
490.885	346.11
491.32	315.68
491.755	294.61
492.189	313.34
492.624	332.06
493.058	311
493.492	308.66
493.927	280.57
494.361	355.47
494.795	233.76
495.229	329.72
495.663	334.4
496.097	353.13
496.531	301.64
496.965	320.36
497.399	325.04
497.833	289.93
498.266	350.79
498.7	273.55
499.134	339.09
499.567	308.66
500.001	296.96
500.434	360.15
500.868	320.36
501.301	301.64
501.734	296.96
502.168	299.3
502.601	322.7
503.034	334.4
503.467	343.77
503.9	318.02
504.333	320.36
504.766	355.47
505.199	303.98
505.632	275.89
506.064	329.72
506.497	315.68
506.93	311
507.362	215.04
507.795	294.61
508.227	259.51
508.66	280.57
509.092	306.32
509.524	334.4
509.956	350.79
510.389	336.74
510.821	371.85
511.253	318.02
511.685	355.47
512.117	322.7
512.549	339.09
512.981	294.61
513.412	325.04
513.844	240.78
514.276	322.7
514.707	325.04
515.139	210.36
515.571	289.93
516.002	280.57
516.433	360.15
516.865	336.74
517.296	374.19
517.727	343.77
518.159	395.26
518.59	336.74
519.021	329.72
519.452	362.49
519.883	257.17
520.314	348.45
520.744	315.68
521.175	376.53
521.606	299.3
522.037	327.38
522.467	315.68
522.898	336.74
523.328	315.68
523.759	339.09
524.189	311
524.62	289.93
525.05	287.59
525.48	247.8
525.91	348.45
526.341	273.55
526.771	376.53
527.201	318.02
527.631	318.02
528.061	339.09
528.49	315.68
528.92	315.68
529.35	315.68
529.78	292.27
530.209	301.64
530.639	360.15
531.068	336.74
531.498	238.44
531.927	315.68
532.357	348.45
532.786	350.79
533.215	287.59
533.644	308.66
534.074	285.25
534.503	428.03
534.932	266.53
535.361	271.21
535.79	353.13
536.218	313.34
536.647	299.3
537.076	327.38
537.505	273.55
537.933	313.34
538.362	303.98
538.79	325.04
539.219	343.77
539.647	287.59
540.076	327.38
540.504	280.57
540.932	322.7
541.36	280.57
541.788	318.02
542.217	273.55
542.645	329.72
543.073	336.74
543.5	339.09
543.928	357.81
544.356	287.59
544.784	296.96
545.211	376.53
545.639	367.17
546.067	273.55
546.494	332.06
546.922	322.7
547.349	334.4
547.776	250.14
548.204	334.4
548.631	346.11
549.058	336.74
549.485	313.34
549.912	313.34
550.339	327.38
550.766	254.83
551.193	348.45
551.62	341.43
552.047	346.11
552.474	311
552.9	367.17
553.327	357.81
553.754	332.06
554.18	296.96
554.607	320.36
555.033	278.23
555.459	240.78
555.886	275.89
556.312	322.7
556.738	353.13
557.164	289.93
557.59	308.66
558.016	257.17
558.442	350.79
558.868	346.11
559.294	315.68
559.72	339.09
560.145	285.25
560.571	266.53
560.997	306.32
561.422	271.21
561.848	348.45
562.273	285.25
562.699	318.02
563.124	322.7
563.549	381.21
563.974	329.72
564.4	327.38
564.825	311
565.25	360.15
565.675	355.47
566.1	320.36
566.525	296.96
566.95	315.68
567.374	289.93
567.799	325.04
568.224	264.19
568.648	374.19
569.073	313.34
569.497	325.04
569.922	392.92
570.346	296.96
570.771	353.13
571.195	341.43
571.619	299.3
572.043	292.27
572.467	275.89
572.891	308.66
573.315	261.85
573.739	268.87
574.163	315.68
574.587	313.34
575.011	311
575.435	357.81
575.858	318.02
576.282	313.34
576.705	318.02
577.129	301.64
577.552	371.85
577.976	273.55
578.399	299.3
578.822	315.68
579.245	311
579.669	346.11
580.092	301.64
580.515	325.04
580.938	322.7
581.361	334.4
581.784	329.72
582.206	282.91
582.629	327.38
583.052	355.47
583.474	332.06
583.897	315.68
584.32	296.96
584.742	268.87
585.165	325.04
585.587	322.7
586.009	336.74
586.431	402.28
586.854	346.11
587.276	346.11
587.698	327.38
588.12	367.17
588.542	311
588.964	348.45
589.386	296.96
589.807	287.59
590.229	287.59
590.651	353.13
591.073	325.04
591.494	332.06
591.916	322.7
592.337	289.93
592.759	322.7
593.18	303.98
593.601	322.7
594.022	383.56
594.444	320.36
594.865	233.76
595.286	303.98
595.707	266.53
596.128	334.4
596.549	311
596.97	339.09
597.39	336.74
597.811	355.47
598.232	280.57
598.652	296.96
599.073	287.59
599.494	259.51
599.914	301.64
600.334	329.72
600.755	336.74
601.175	205.67
601.595	294.61
602.015	339.09
602.436	348.45
602.856	474.84
603.276	259.51
603.696	406.96
604.115	268.87
604.535	343.77
604.955	294.61
605.375	341.43
605.794	313.34
606.214	266.53
606.634	294.61
607.053	271.21
607.473	374.19
607.892	332.06
608.311	313.34
608.731	332.06
609.15	353.13
609.569	343.77
609.988	341.43
610.407	355.47
610.826	322.7
611.245	374.19
611.664	289.93
612.083	374.19
612.501	381.21
612.92	388.24
613.339	273.55
613.757	329.72
614.176	339.09
614.594	346.11
615.013	327.38
615.431	301.64
615.85	320.36
616.268	268.87
616.686	268.87
617.104	282.91
617.522	240.78
617.94	296.96
618.358	233.76
618.776	364.83
619.194	404.62
619.612	350.79
620.03	308.66
620.447	325.04
620.865	385.9
621.282	390.58
621.7	257.17
622.117	287.59
622.535	299.3
622.952	343.77
623.369	257.17
623.787	355.47
624.204	346.11
624.621	311
625.038	318.02
625.455	369.51
625.872	343.77
626.289	320.36
626.706	339.09
627.123	339.09
627.539	280.57
627.956	350.79
628.373	343.77
628.789	296.96
629.206	311
629.622	334.4
630.038	332.06
630.455	285.25
630.871	374.19
631.287	250.14
631.703	247.8
632.12	318.02
632.536	280.57
632.952	367.17
633.368	313.34
633.783	322.7
634.199	273.55
634.615	296.96
635.031	231.42
635.446	299.3
635.862	247.8
636.277	287.59
636.693	261.85
637.108	303.98
637.524	418.66
637.939	266.53
638.354	322.7
638.77	311
639.185	327.38
639.6	238.44
640.015	313.34
640.43	318.02
640.845	320.36
641.259	292.27
641.674	303.98
642.089	322.7
642.504	296.96
642.918	278.23
643.333	348.45
643.747	271.21
644.162	336.74
644.576	289.93
644.991	308.66
645.405	348.45
645.819	282.91
646.233	329.72
646.647	301.64
647.061	259.51
647.475	329.72
647.889	343.77
648.303	268.87
648.717	339.09
649.131	350.79
649.545	292.27
649.958	322.7
650.372	369.51
650.785	296.96
651.199	397.6
651.612	315.68
652.026	308.66
652.439	332.06
652.852	397.6
653.266	322.7
653.679	308.66
654.092	329.72
654.505	308.66
654.918	355.47
655.331	355.47
655.744	320.36
656.156	278.23
656.569	311
656.982	343.77
657.394	339.09
657.807	329.72
658.22	374.19
658.632	343.77
659.044	285.25
659.457	264.19
659.869	287.59
660.281	357.81
660.693	261.85
661.106	322.7
661.518	311
661.93	336.74
662.342	381.21
662.754	353.13
663.165	313.34
663.577	362.49
663.989	292.27
664.401	261.85
664.812	289.93
665.224	303.98
665.635	299.3
666.047	343.77
666.458	315.68
666.869	301.64
667.281	378.87
667.692	259.51
668.103	360.15
668.514	383.56
668.925	339.09
669.336	341.43
669.747	327.38
670.158	355.47
670.569	339.09
670.979	329.72
671.39	318.02
671.801	334.4
672.211	268.87
672.622	367.17
673.032	334.4
673.443	325.04
673.853	322.7
674.263	369.51
674.674	339.09
675.084	341.43
675.494	355.47
675.904	289.93
676.314	318.02
676.724	311
677.134	303.98
677.544	362.49
677.953	287.59
678.363	264.19
678.773	357.81
679.182	327.38
679.592	322.7
680.001	318.02
680.411	339.09
680.82	343.77
681.23	287.59
681.639	336.74
682.048	311
682.457	273.55
682.866	294.61
683.275	308.66
683.684	334.4
684.093	264.19
684.502	240.78
684.911	280.57
685.32	287.59
685.728	299.3
686.137	306.32
686.546	303.98
686.954	315.68
687.363	294.61
687.771	343.77
688.179	332.06
688.588	341.43
688.996	327.38
689.404	299.3
689.812	355.47
690.22	294.61
690.628	252.49
691.036	315.68
691.444	296.96
691.852	259.51
692.26	364.83
692.667	325.04
693.075	285.25
693.483	294.61
693.89	275.89
694.298	315.68
694.705	350.79
695.112	378.87
695.52	308.66
695.927	332.06
696.334	271.21
696.741	327.38
697.148	355.47
697.555	339.09
697.962	303.98
698.369	296.96
698.776	231.42
699.183	287.59
699.59	282.91
699.996	313.34
700.403	308.66
700.81	360.15
701.216	313.34
701.623	311
702.029	252.49
702.435	315.68
702.842	318.02
703.248	346.11
703.654	273.55
704.06	320.36
704.466	313.34
704.872	329.72
705.278	362.49
705.684	367.17
706.09	306.32
706.496	233.76
706.901	343.77
707.307	397.6
707.712	334.4
708.118	280.57
708.523	259.51
708.929	280.57
709.334	303.98
709.74	369.51
710.145	301.64
710.55	327.38
710.955	296.96
711.36	318.02
711.765	289.93
712.17	292.27
712.575	278.23
712.98	842.3
713.385	381.21
713.789	273.55
714.194	268.87
714.599	322.7
715.003	287.59
715.408	294.61
715.812	278.23
716.217	280.57
716.621	257.17
717.025	257.17
717.429	233.76
717.833	285.25
718.238	315.68
718.642	243.12
719.046	346.11
719.449	287.59
719.853	308.66
720.257	299.3
720.661	282.91
721.065	268.87
721.468	275.89
721.872	348.45
722.275	287.59
722.679	353.13
723.082	285.25
723.485	280.57
723.889	315.68
724.292	308.66
724.695	318.02
725.098	322.7
725.501	339.09
725.904	280.57
726.307	320.36
726.71	282.91
727.113	289.93
727.516	282.91
727.918	334.4
728.321	376.53
728.724	320.36
729.126	311
729.529	371.85
729.931	322.7
730.333	362.49
730.736	367.17
731.138	264.19
731.54	289.93
731.942	369.51
732.344	360.15
732.746	320.36
733.148	315.68
733.55	320.36
733.952	327.38
734.354	327.38
734.756	292.27
735.157	341.43
735.559	273.55
735.96	273.55
736.362	301.64
736.763	325.04
737.165	299.3
737.566	301.64
737.967	250.14
738.368	268.87
738.77	341.43
739.171	353.13
739.572	353.13
739.973	303.98
740.374	303.98
740.774	322.7
741.175	313.34
741.576	327.38
741.977	327.38
742.377	388.24
742.778	364.83
743.178	360.15
743.579	339.09
743.979	315.68
744.379	355.47
744.78	385.9
745.18	341.43
745.58	287.59
745.98	355.47
746.38	273.55
746.78	301.64
747.18	332.06
747.58	322.7
747.98	320.36
748.38	282.91
748.779	292.27
749.179	383.56
749.578	346.11
749.978	329.72
750.377	334.4
750.777	306.32
751.176	311
751.575	329.72
751.975	381.21
752.374	313.34
752.773	322.7
753.172	315.68
753.571	329.72
753.97	355.47
754.369	341.43
754.768	243.12
755.166	266.53
755.565	353.13
755.964	315.68
756.362	341.43
756.761	339.09
757.159	322.7
757.558	332.06
757.956	346.11
758.354	261.85
758.753	311
759.151	313.34
759.549	341.43
759.947	292.27
760.345	334.4
760.743	348.45
761.141	369.51
761.539	303.98
761.936	395.26
762.334	238.44
762.732	306.32
763.129	327.38
763.527	355.47
763.924	334.4
764.322	299.3
764.719	360.15
765.117	339.09
765.514	306.32
765.911	327.38
766.308	320.36
766.705	280.57
767.102	287.59
767.499	322.7
767.896	371.85
768.293	278.23
768.69	348.45
769.086	289.93
769.483	350.79
769.88	332.06
770.276	289.93
770.673	301.64
771.069	385.9
771.466	318.02
771.862	280.57
772.258	334.4
772.654	311
773.05	367.17
773.447	362.49
773.843	353.13
774.239	369.51
774.634	315.68
775.03	329.72
775.426	303.98
775.822	294.61
776.218	313.34
776.613	360.15
777.009	320.36
777.404	332.06
777.8	332.06
778.195	299.3
778.59	350.79
778.986	301.64
779.381	275.89
779.776	313.34
780.171	320.36
780.566	336.74
780.961	278.23
781.356	327.38
781.751	318.02
782.146	348.45
782.54	278.23
782.935	294.61
783.33	254.83
783.724	287.59
784.119	320.36
784.513	327.38
784.908	294.61
785.302	254.83
785.696	332.06
786.09	329.72
786.485	329.72
786.879	355.47
787.273	282.91
787.667	294.61
788.061	287.59
788.454	311
788.848	320.36
789.242	334.4
789.636	299.3
790.029	327.38
790.423	367.17
790.816	381.21
791.21	257.17
791.603	325.04
791.997	292.27
792.39	320.36
792.783	266.53
793.176	233.76
793.569	364.83
793.962	292.27
794.355	390.58
794.748	322.7
795.141	329.72
795.534	296.96
795.927	292.27
796.319	294.61
796.712	257.17
797.105	292.27
797.497	322.7
797.89	282.91
798.282	327.38
798.674	289.93
799.067	278.23
799.459	294.61
799.851	390.58
800.243	296.96
800.635	334.4
801.027	360.15
801.419	280.57
801.811	346.11
802.203	318.02
802.594	313.34
802.986	341.43
803.378	343.77
803.769	282.91
804.161	273.55
804.552	332.06
804.944	303.98
805.335	346.11
805.726	292.27
806.118	404.62
806.509	266.53
806.9	280.57
807.291	362.49
807.682	315.68
808.073	362.49
808.464	285.25
808.855	282.91
809.245	308.66
809.636	289.93
810.027	275.89
810.417	369.51
810.808	315.68
811.198	353.13
811.589	371.85
811.979	266.53
812.369	266.53
812.759	397.6
813.15	243.12
813.54	322.7
813.93	327.38
814.32	313.34
814.71	332.06
815.1	306.32
815.489	271.21
815.879	343.77
816.269	336.74
816.658	369.51
817.048	383.56
817.438	296.96
817.827	303.98
818.216	296.96
818.606	257.17
818.995	287.59
819.384	322.7
819.773	280.57
820.163	327.38
820.552	346.11
820.941	318.02
821.33	280.57
821.718	325.04
822.107	348.45
822.496	315.68
822.885	381.21
823.273	311
823.662	388.24
824.05	353.13
824.439	346.11
824.827	313.34
825.216	315.68
825.604	322.7
825.992	313.34
826.38	301.64
826.768	322.7
827.156	299.3
827.544	336.74
827.932	289.93
828.32	325.04
828.708	285.25
829.096	334.4
829.483	292.27
829.871	311
830.259	313.34
830.646	336.74
831.034	285.25
831.421	273.55
831.808	339.09
832.196	355.47
832.583	292.27
832.97	233.76
833.357	311
833.744	273.55
834.131	268.87
834.518	273.55
834.905	353.13
835.292	311
835.678	287.59
836.065	327.38
836.452	315.68
836.838	294.61
837.225	278.23
837.611	322.7
837.998	315.68
838.384	275.89
838.77	336.74
839.157	364.83
839.543	341.43
839.929	313.34
840.315	243.12
840.701	306.32
841.087	329.72
841.473	299.3
841.858	364.83
842.244	329.72
842.63	285.25
843.015	320.36
843.401	605.91
843.787	381.21
844.172	268.87
844.557	257.17
844.943	325.04
845.328	308.66
845.713	257.17
846.098	308.66
846.483	308.66
846.868	318.02
847.253	296.96
847.638	360.15
848.023	273.55
848.408	306.32
848.793	311
849.177	327.38
849.562	341.43
849.947	320.36
850.331	275.89
850.715	348.45
851.1	306.32
851.484	318.02
851.868	315.68
852.253	308.66
852.637	306.32
853.021	299.3
853.405	339.09
853.789	285.25
854.173	311
854.557	294.61
854.94	395.26
855.324	381.21
855.708	303.98
856.091	325.04
856.475	336.74
856.858	311
857.242	266.53
857.625	327.38
858.009	318.02
858.392	320.36
858.775	287.59
859.158	219.72
859.541	325.04
859.924	287.59
860.307	306.32
860.69	275.89
861.073	285.25
861.456	332.06
861.838	327.38
862.221	346.11
862.604	346.11
862.986	303.98
863.369	313.34
863.751	325.04
864.133	320.36
864.516	325.04
864.898	285.25
865.28	294.61
865.662	383.56
866.044	357.81
866.426	327.38
866.808	332.06
867.19	341.43
867.572	362.49
867.954	278.23
868.336	282.91
868.717	280.57
869.099	289.93
869.48	289.93
869.862	327.38
870.243	315.68
870.625	315.68
871.006	306.32
871.387	343.77
871.768	334.4
872.149	360.15
872.53	313.34
872.911	336.74
873.292	336.74
873.673	360.15
874.054	332.06
874.435	313.34
874.815	343.77
875.196	278.23
875.577	257.17
875.957	369.51
876.338	289.93
876.718	313.34
877.098	322.7
877.479	341.43
877.859	327.38
878.239	320.36
878.619	303.98
878.999	294.61
879.379	332.06
879.759	320.36
880.139	320.36
880.519	318.02
880.898	346.11
881.278	332.06
881.658	278.23
882.037	339.09
882.417	353.13
882.796	296.96
883.176	261.85
883.555	271.21
883.934	311
884.313	299.3
884.693	303.98
885.072	376.53
885.451	348.45
885.83	306.32
886.209	325.04
886.587	303.98
886.966	311
887.345	381.21
887.724	313.34
888.102	303.98
888.481	275.89
888.859	325.04
889.238	299.3
889.616	341.43
889.994	266.53
890.373	280.57
890.751	421
891.129	357.81
891.507	318.02
891.885	313.34
892.263	371.85
892.641	301.64
893.019	371.85
893.396	320.36
893.774	327.38
894.152	308.66
894.529	362.49
894.907	313.34
895.284	343.77
895.662	320.36
896.039	320.36
896.416	294.61
896.794	336.74
897.171	318.02
897.548	334.4
897.925	292.27
898.302	261.85
898.679	301.64
899.056	315.68
899.433	247.8
899.809	264.19
900.186	315.68
900.563	278.23
900.939	327.38
901.316	336.74
901.692	306.32
902.069	299.3
902.445	332.06
902.821	325.04
903.197	325.04
903.574	275.89
903.95	399.94
904.326	378.87
904.702	327.38
905.078	346.11
905.454	346.11
905.829	318.02
906.205	299.3
906.581	236.1
906.956	334.4
907.332	325.04
907.707	362.49
908.083	301.64
908.458	226.74
908.833	318.02
909.209	318.02
909.584	360.15
909.959	198.65
910.334	282.91
910.709	343.77
911.084	301.64
911.459	360.15
911.834	301.64
912.209	311
912.583	289.93
912.958	381.21
913.333	350.79
913.707	306.32
914.082	320.36
914.456	329.72
914.83	271.21
915.205	360.15
915.579	238.44
915.953	334.4
916.327	259.51
916.701	325.04
917.075	322.7
917.449	327.38
917.823	294.61
918.197	327.38
918.571	336.74
918.944	299.3
919.318	320.36
919.692	294.61
920.065	353.13
920.438	311
920.812	325.04
921.185	315.68
921.558	313.34
921.932	294.61
922.305	306.32
922.678	294.61
923.051	388.24
923.424	285.25
923.797	322.7
924.17	313.34
924.542	318.02
924.915	299.3
925.288	299.3
925.661	303.98
926.033	346.11
926.406	315.68
926.778	301.64
927.15	287.59
927.523	252.49
927.895	306.32
928.267	322.7
928.639	311
929.011	299.3
929.383	348.45
929.755	341.43
930.127	336.74
930.499	273.55
930.871	264.19
931.242	254.83
931.614	318.02
931.986	311
932.357	357.81
932.729	296.96
933.1	250.14
933.471	353.13
933.843	296.96
934.214	348.45
934.585	360.15
934.956	294.61
935.327	219.72
935.698	303.98
936.069	325.04
936.44	299.3
936.811	346.11
937.182	322.7
937.552	303.98
937.923	341.43
938.293	320.36
938.664	264.19
939.034	294.61
939.405	261.85
939.775	346.11
940.145	311
940.516	292.27
940.886	303.98
941.256	334.4
941.626	353.13
941.996	357.81
942.366	203.33
942.735	346.11
943.105	299.3
943.475	285.25
943.845	254.83
944.214	383.56
944.584	325.04
944.953	343.77
945.323	252.49
945.692	268.87
946.061	353.13
946.43	275.89
946.8	341.43
947.169	329.72
947.538	346.11
947.907	336.74
948.276	275.89
948.645	327.38
949.013	353.13
949.382	287.59
949.751	296.96
950.119	341.43
950.488	273.55
950.857	257.17
951.225	280.57
951.593	261.85
951.962	261.85
952.33	273.55
952.698	346.11
953.066	315.68
953.434	292.27
953.802	329.72
954.17	311
954.538	259.51
954.906	299.3
955.274	278.23
955.642	306.32
956.009	362.49
956.377	257.17
956.744	264.19
957.112	313.34
957.479	383.56
957.847	303.98
958.214	327.38
958.581	399.94
958.948	271.21
959.315	371.85
959.683	346.11
960.05	296.96
960.416	327.38
960.783	301.64
961.15	322.7
961.517	301.64
961.884	336.74
962.25	296.96
962.617	287.59
962.983	336.74
963.35	334.4
963.716	282.91
964.082	313.34
964.449	280.57
964.815	296.96
965.181	308.66
965.547	371.85
965.913	350.79
966.279	306.32
966.645	266.53
967.011	343.77
967.377	294.61
967.742	313.34
968.108	266.53
968.474	332.06
968.839	308.66
969.205	308.66
969.57	261.85
969.935	336.74
970.301	346.11
970.666	278.23
971.031	311
971.396	329.72
971.761	287.59
972.126	315.68
972.491	332.06
972.856	334.4
973.221	287.59
973.586	247.8
973.95	252.49
974.315	322.7
974.679	308.66
975.044	318.02
975.408	243.12
975.773	264.19
976.137	327.38
976.501	301.64
976.866	268.87
977.23	296.96
977.594	315.68
977.958	282.91
978.322	254.83
978.686	397.6
979.049	364.83
979.413	318.02
979.777	339.09
980.141	353.13
980.504	294.61
980.868	301.64
981.231	367.17
981.595	357.81
981.958	294.61
982.321	318.02
982.684	296.96
983.048	329.72
983.411	278.23
983.774	252.49
984.137	311
984.5	355.47
984.862	306.32
985.225	294.61
985.588	296.96
985.951	306.32
986.313	315.68
986.676	346.11
987.038	252.49
987.401	318.02
987.763	229.08
988.125	285.25
988.488	268.87
988.85	339.09
989.212	353.13
989.574	238.44
989.936	341.43
990.298	374.19
990.66	315.68
991.022	341.43
991.383	313.34
991.745	247.8
992.107	367.17
992.468	303.98
992.83	294.61
993.191	369.51
993.553	341.43
993.914	301.64
994.275	299.3
994.637	303.98
994.998	303.98
995.359	266.53
995.72	259.51
996.081	334.4
996.442	313.34
996.803	332.06
997.163	327.38
997.524	336.74
997.885	275.89
998.245	275.89
998.606	308.66
998.966	301.64
999.327	306.32
999.687	308.66
1000.047	313.34
1000.408	292.27
1000.768	311
1001.128	247.8
1001.488	282.91
1001.848	303.98
1002.208	343.77
1002.568	339.09
1002.927	285.25
1003.287	296.96
1003.647	346.11
1004.007	271.21
1004.366	367.17
1004.726	318.02
1005.085	341.43
1005.444	325.04
1005.804	282.91
1006.163	287.59
1006.522	236.1
1006.881	303.98
1007.24	318.02
1007.599	282.91
1007.958	266.53
1008.317	306.32
1008.676	308.66
1009.035	301.64
1009.393	301.64
1009.752	266.53
1010.111	318.02
1010.469	367.17
1010.828	339.09
1011.186	301.64
1011.544	243.12
1011.903	325.04
1012.261	353.13
1012.619	311
1012.977	315.68
1013.335	334.4
1013.693	299.3
1014.051	271.21
1014.409	315.68
1014.767	294.61
1015.124	303.98
1015.482	357.81
1015.84	311
1016.197	275.89
1016.555	346.11
1016.912	313.34
1017.269	278.23
1017.627	306.32
1017.984	336.74
1018.341	311
1018.698	350.79
1019.055	308.66
1019.412	271.21
1019.769	343.77
1020.126	278.23
1020.483	280.57
1020.84	292.27
1021.196	329.72
1021.553	318.02
1021.909	332.06
1022.266	301.64
1022.622	287.59
1022.979	250.14
1023.335	334.4
1023.691	257.17
1024.047	329.72
1024.404	299.3
1024.76	313.34
1025.116	299.3
1025.472	285.25
1025.827	278.23
1026.183	343.77
1026.539	299.3
1026.895	376.53
1027.25	299.3
1027.606	261.85
1027.961	313.34
1028.317	273.55
1028.672	343.77
1029.028	296.96
1029.383	339.09
1029.738	266.53
1030.093	339.09
1030.448	285.25
1030.803	327.38
1031.158	278.23
1031.513	346.11
1031.868	296.96
1032.223	275.89
1032.577	273.55
1032.932	261.85
1033.287	325.04
1033.641	346.11
1033.996	397.6
1034.35	325.04
1034.704	325.04
1035.059	294.61
1035.413	357.81
1035.767	357.81
1036.121	357.81
