Data from Al_FLMS009871__790__15-21-47-914.txt Node

Date: Fri Mar 08 15:21:47 CST 2024
User: pe5414po
Spectrometer: FLMS00987
Trigger mode: 0
Integration Time (sec): 1.000000E-1
Scans to average: 1
Electric dark correction enabled: true
Nonlinearity correction enabled: false
Boxcar width: 0
XAxis mode: Wavelengths
Number of Pixels in Spectrum: 2048
>>>>>Begin Spectral Data<<<<<
188.938	-66.71
189.409	-66.71
189.879	-66.71
190.349	-50.32
190.819	-90.11
191.29	-122.88
191.76	-92.45
192.23	-80.75
192.7	-66.71
193.17	-78.41
193.64	-38.62
194.109	-64.36
194.579	-3.51
195.049	3.51
195.519	17.55
195.988	36.28
196.458	127.56
196.927	64.36
197.397	71.39
197.866	139.26
198.336	87.77
198.805	143.94
199.274	218.84
199.744	195.43
200.213	167.35
200.682	165.01
201.151	165.01
201.62	193.09
202.089	228.2
202.558	204.8
203.027	204.8
203.495	237.56
203.964	256.29
204.433	244.59
204.902	289.06
205.37	218.84
205.839	310.12
206.307	352.25
206.776	272.67
207.244	317.14
207.712	230.54
208.181	314.8
208.649	284.38
209.117	291.4
209.585	303.1
210.053	256.29
210.521	340.55
210.989	394.38
211.457	230.54
211.925	258.63
212.393	291.4
212.861	258.63
213.328	258.63
213.796	251.61
214.264	303.1
214.731	272.67
215.199	265.65
215.666	279.69
216.133	195.43
216.601	333.53
217.068	258.63
217.535	253.95
218.003	232.88
218.47	218.84
218.937	209.48
219.404	275.01
219.871	328.85
220.338	298.42
220.805	230.54
221.271	286.72
221.738	244.59
222.205	225.86
222.671	279.69
223.138	204.8
223.605	335.87
224.071	197.78
224.538	338.21
225.004	228.2
225.47	218.84
225.937	246.93
226.403	300.76
226.869	272.67
227.335	286.72
227.801	282.03
228.267	305.44
228.733	263.31
229.199	267.99
229.665	340.55
230.131	286.72
230.597	265.65
231.062	244.59
231.528	284.38
231.994	291.4
232.459	218.84
232.925	286.72
233.39	282.03
233.856	282.03
234.321	310.12
234.786	282.03
235.252	321.82
235.717	296.08
236.182	296.08
236.647	286.72
237.112	296.08
237.577	310.12
238.042	307.78
238.507	256.29
238.972	265.65
239.436	265.65
239.901	272.67
240.366	275.01
240.83	244.59
241.295	286.72
241.76	328.85
242.224	239.9
242.688	342.89
243.153	263.31
243.617	307.78
244.081	277.35
244.545	331.19
245.01	335.87
245.474	314.8
245.938	331.19
246.402	293.74
246.866	338.21
247.33	260.97
247.793	303.1
248.257	258.63
248.721	291.4
249.185	296.08
249.648	246.93
250.112	249.27
250.575	326.5
251.039	296.08
251.502	293.74
251.965	286.72
252.429	237.56
252.892	251.61
253.355	270.33
253.818	296.08
254.281	317.14
254.744	277.35
255.207	289.06
255.67	279.69
256.133	279.69
256.596	293.74
257.059	265.65
257.522	321.82
257.984	260.97
258.447	209.48
258.909	272.67
259.372	319.48
259.834	282.03
260.297	246.93
260.759	267.99
261.221	263.31
261.684	319.48
262.146	249.27
262.608	244.59
263.07	246.93
263.532	314.8
263.994	253.95
264.456	317.14
264.918	296.08
265.38	239.9
265.842	317.14
266.303	249.27
266.765	303.1
267.227	256.29
267.688	303.1
268.15	293.74
268.611	317.14
269.072	277.35
269.534	253.95
269.995	296.08
270.456	370.97
270.918	340.55
271.379	317.14
271.84	342.89
272.301	214.16
272.762	289.06
273.223	230.54
273.684	335.87
274.144	279.69
274.605	312.46
275.066	270.33
275.527	284.38
275.987	307.78
276.448	260.97
276.908	300.76
277.369	312.46
277.829	300.76
278.289	345.23
278.75	321.82
279.21	310.12
279.67	258.63
280.13	267.99
280.59	307.78
281.05	296.08
281.51	296.08
281.97	317.14
282.43	396.72
282.89	307.78
283.35	223.52
283.809	307.78
284.269	298.42
284.729	291.4
285.188	279.69
285.648	284.38
286.107	312.46
286.567	251.61
287.026	352.25
287.485	284.38
287.944	291.4
288.404	300.76
288.863	307.78
289.322	223.52
289.781	286.72
290.24	310.12
290.699	300.76
291.158	326.5
291.616	289.06
292.075	279.69
292.534	291.4
292.992	211.82
293.451	345.23
293.91	312.46
294.368	298.42
294.827	253.95
295.285	260.97
295.743	284.38
296.202	305.44
296.66	317.14
297.118	263.31
297.576	335.87
298.034	328.85
298.492	293.74
298.95	246.93
299.408	300.76
299.866	275.01
300.324	319.48
300.781	310.12
301.239	333.53
301.697	272.67
302.154	235.22
302.612	300.76
303.069	267.99
303.527	279.69
303.984	258.63
304.441	249.27
304.899	347.57
305.356	284.38
305.813	246.93
306.27	246.93
306.727	298.42
307.184	296.08
307.641	314.8
308.098	272.67
308.555	286.72
309.012	321.82
309.468	354.59
309.925	260.97
310.382	258.63
310.838	298.42
311.295	310.12
311.751	279.69
312.208	279.69
312.664	265.65
313.12	303.1
313.577	282.03
314.033	303.1
314.489	326.5
314.945	291.4
315.401	356.93
315.857	253.95
316.313	352.25
316.769	303.1
317.225	338.21
317.681	328.85
318.136	338.21
318.592	326.5
319.048	310.12
319.503	328.85
319.959	277.35
320.414	291.4
320.869	307.78
321.325	291.4
321.78	361.61
322.235	307.78
322.691	267.99
323.146	312.46
323.601	356.93
324.056	289.06
324.511	312.46
324.966	289.06
325.421	286.72
325.875	347.57
326.33	275.01
326.785	314.8
327.24	298.42
327.694	321.82
328.149	324.16
328.603	347.57
329.058	298.42
329.512	345.23
329.966	305.44
330.421	354.59
330.875	300.76
331.329	284.38
331.783	359.27
332.237	298.42
332.691	284.38
333.145	263.31
333.599	300.76
334.053	314.8
334.507	317.14
334.96	319.48
335.414	314.8
335.868	296.08
336.321	293.74
336.775	354.59
337.228	282.03
337.682	307.78
338.135	270.33
338.588	338.21
339.042	368.63
339.495	324.16
339.948	312.46
340.401	317.14
340.854	282.03
341.307	413.1
341.76	340.55
342.213	282.03
342.666	289.06
343.119	249.27
343.571	300.76
344.024	300.76
344.477	310.12
344.929	270.33
345.382	279.69
345.834	296.08
346.287	305.44
346.739	333.53
347.191	312.46
347.644	331.19
348.096	354.59
348.548	392.04
349	321.82
349.452	267.99
349.904	314.8
350.356	303.1
350.808	284.38
351.26	239.9
351.711	256.29
352.163	307.78
352.615	338.21
353.066	291.4
353.518	298.42
353.969	310.12
354.421	312.46
354.872	347.57
355.324	347.57
355.775	293.74
356.226	333.53
356.677	286.72
357.128	356.93
357.579	300.76
358.03	370.97
358.481	331.19
358.932	317.14
359.383	305.44
359.834	333.53
360.285	326.5
360.735	272.67
361.186	317.14
361.637	382.68
362.087	275.01
362.538	321.82
362.988	333.53
363.438	326.5
363.889	242.25
364.339	305.44
364.789	310.12
365.239	307.78
365.689	289.06
366.139	387.36
366.589	312.46
367.039	305.44
367.489	321.82
367.939	298.42
368.389	342.89
368.839	338.21
369.288	392.04
369.738	319.48
370.187	363.95
370.637	368.63
371.086	249.27
371.536	345.23
371.985	286.72
372.434	406.08
372.884	352.25
373.333	331.19
373.782	349.91
374.231	317.14
374.68	356.93
375.129	354.59
375.578	305.44
376.027	305.44
376.475	303.1
376.924	352.25
377.373	335.87
377.822	303.1
378.27	298.42
378.719	324.16
379.167	279.69
379.616	340.55
380.064	319.48
380.512	331.19
380.961	331.19
381.409	317.14
381.857	253.95
382.305	282.03
382.753	342.89
383.201	328.85
383.649	289.06
384.097	305.44
384.545	342.89
384.992	340.55
385.44	352.25
385.888	331.19
386.335	321.82
386.783	345.23
387.231	286.72
387.678	392.04
388.125	305.44
388.573	324.16
389.02	312.46
389.467	340.55
389.914	284.38
390.362	303.1
390.809	335.87
391.256	319.48
391.703	361.61
392.15	258.63
392.596	277.35
393.043	345.23
393.49	310.12
393.937	251.61
394.383	321.82
394.83	293.74
395.276	354.59
395.723	347.57
396.169	354.59
396.616	277.35
397.062	338.21
397.508	349.91
397.954	277.35
398.401	345.23
398.847	312.46
399.293	291.4
399.739	310.12
400.185	354.59
400.631	293.74
401.076	296.08
401.522	300.76
401.968	370.97
402.414	359.27
402.859	296.08
403.305	349.91
403.75	324.16
404.196	321.82
404.641	361.61
405.086	270.33
405.532	333.53
405.977	321.82
406.422	286.72
406.867	307.78
407.312	256.29
407.757	317.14
408.202	394.38
408.647	232.88
409.092	293.74
409.537	328.85
409.982	321.82
410.426	342.89
410.871	340.55
411.316	328.85
411.76	385.02
412.205	413.1
412.649	312.46
413.093	347.57
413.538	366.29
413.982	375.66
414.426	338.21
414.87	314.8
415.314	291.4
415.758	319.48
416.202	258.63
416.646	305.44
417.09	373.32
417.534	333.53
417.978	282.03
418.421	340.55
418.865	256.29
419.309	354.59
419.752	321.82
420.196	310.12
420.639	314.8
421.083	267.99
421.526	303.1
421.969	352.25
422.412	361.61
422.856	363.95
423.299	392.04
423.742	352.25
424.185	354.59
424.628	349.91
425.071	270.33
425.513	317.14
425.956	298.42
426.399	331.19
426.842	291.4
427.284	317.14
427.727	303.1
428.169	321.82
428.612	319.48
429.054	366.29
429.497	363.95
429.939	305.44
430.381	305.44
430.823	338.21
431.265	380.34
431.707	354.59
432.149	307.78
432.591	321.82
433.033	361.61
433.475	307.78
433.917	307.78
434.359	331.19
434.8	324.16
435.242	326.5
435.684	340.55
436.125	303.1
436.567	319.48
437.008	317.14
437.449	289.06
437.891	296.08
438.332	310.12
438.773	296.08
439.214	340.55
439.656	331.19
440.097	284.38
440.538	328.85
440.978	298.42
441.419	286.72
441.86	263.31
442.301	300.76
442.742	305.44
443.182	326.5
443.623	359.27
444.063	328.85
444.504	211.82
444.944	307.78
445.385	410.76
445.825	347.57
446.265	291.4
446.706	321.82
447.146	321.82
447.586	237.56
448.026	282.03
448.466	324.16
448.906	394.38
449.346	342.89
449.786	300.76
450.225	352.25
450.665	349.91
451.105	338.21
451.544	363.95
451.984	347.57
452.424	317.14
452.863	328.85
453.302	277.35
453.742	321.82
454.181	314.8
454.62	312.46
455.059	319.48
455.499	378
455.938	338.21
456.377	228.2
456.816	342.89
457.254	296.08
457.693	352.25
458.132	338.21
458.571	314.8
459.01	340.55
459.448	387.36
459.887	293.74
460.325	366.29
460.764	335.87
461.202	342.89
461.641	370.97
462.079	291.4
462.517	338.21
462.955	368.63
463.393	321.82
463.832	331.19
464.27	385.02
464.708	305.44
465.145	328.85
465.583	352.25
466.021	333.53
466.459	328.85
466.897	265.65
467.334	282.03
467.772	312.46
468.209	317.14
468.647	300.76
469.084	370.97
469.522	394.38
469.959	333.53
470.396	331.19
470.833	319.48
471.271	321.82
471.708	300.76
472.145	293.74
472.582	291.4
473.019	286.72
473.456	267.99
473.892	305.44
474.329	253.95
474.766	342.89
475.202	359.27
475.639	317.14
476.076	298.42
476.512	338.21
476.949	340.55
477.385	324.16
477.821	293.74
478.258	326.5
478.694	366.29
479.13	356.93
479.566	331.19
480.002	328.85
480.438	289.06
480.874	375.66
481.31	333.53
481.746	296.08
482.181	324.16
482.617	368.63
483.053	338.21
483.488	237.56
483.924	293.74
484.36	326.5
484.795	328.85
485.23	366.29
485.666	314.8
486.101	333.53
486.536	303.1
486.971	314.8
487.407	314.8
487.842	312.46
488.277	387.36
488.712	314.8
489.146	378
489.581	298.42
490.016	300.76
490.451	314.8
490.885	349.91
491.32	361.61
491.755	321.82
492.189	328.85
492.624	349.91
493.058	356.93
493.492	373.32
493.927	282.03
494.361	314.8
494.795	389.7
495.229	342.89
495.663	349.91
496.097	305.44
496.531	326.5
496.965	363.95
497.399	335.87
497.833	319.48
498.266	382.68
498.7	279.69
499.134	312.46
499.567	331.19
500.001	338.21
500.434	303.1
500.868	368.63
501.301	291.4
501.734	361.61
502.168	356.93
502.601	370.97
503.034	319.48
503.467	342.89
503.9	340.55
504.333	258.63
504.766	303.1
505.199	244.59
505.632	298.42
506.064	314.8
506.497	293.74
506.93	324.16
507.362	300.76
507.795	335.87
508.227	298.42
508.66	342.89
509.092	378
509.524	300.76
509.956	345.23
510.389	317.14
510.821	392.04
511.253	282.03
511.685	370.97
512.117	303.1
512.549	284.38
512.981	321.82
513.412	310.12
513.844	359.27
514.276	310.12
514.707	296.08
515.139	361.61
515.571	328.85
516.002	389.7
516.433	352.25
516.865	284.38
517.296	293.74
517.727	333.53
518.159	378
518.59	256.29
519.021	300.76
519.452	324.16
519.883	321.82
520.314	244.59
520.744	282.03
521.175	361.61
521.606	321.82
522.037	305.44
522.467	356.93
522.898	324.16
523.328	420.13
523.759	370.97
524.189	303.1
524.62	347.57
525.05	335.87
525.48	363.95
525.91	307.78
526.341	296.08
526.771	310.12
527.201	373.32
527.631	401.4
528.061	335.87
528.49	293.74
528.92	272.67
529.35	345.23
529.78	354.59
530.209	321.82
530.639	328.85
531.068	305.44
531.498	331.19
531.927	349.91
532.357	291.4
532.786	324.16
533.215	256.29
533.644	282.03
534.074	291.4
534.503	314.8
534.932	340.55
535.361	347.57
535.79	324.16
536.218	282.03
536.647	335.87
537.076	333.53
537.505	366.29
537.933	349.91
538.362	310.12
538.79	289.06
539.219	303.1
539.647	305.44
540.076	347.57
540.504	370.97
540.932	279.69
541.36	314.8
541.788	303.1
542.217	328.85
542.645	298.42
543.073	298.42
543.5	321.82
543.928	235.22
544.356	342.89
544.784	392.04
545.211	289.06
545.639	296.08
546.067	338.21
546.494	345.23
546.922	298.42
547.349	340.55
547.776	359.27
548.204	347.57
548.631	317.14
549.058	340.55
549.485	300.76
549.912	328.85
550.339	296.08
550.766	312.46
551.193	319.48
551.62	282.03
552.047	277.35
552.474	349.91
552.9	389.7
553.327	319.48
553.754	333.53
554.18	284.38
554.607	366.29
555.033	289.06
555.459	300.76
555.886	363.95
556.312	342.89
556.738	277.35
557.164	368.63
557.59	291.4
558.016	331.19
558.442	298.42
558.868	260.97
559.294	356.93
559.72	291.4
560.145	286.72
560.571	270.33
560.997	349.91
561.422	319.48
561.848	333.53
562.273	359.27
562.699	349.91
563.124	310.12
563.549	282.03
563.974	335.87
564.4	324.16
564.825	324.16
565.25	366.29
565.675	314.8
566.1	349.91
566.525	331.19
566.95	368.63
567.374	338.21
567.799	275.01
568.224	310.12
568.648	314.8
569.073	263.31
569.497	211.82
569.922	347.57
570.346	314.8
570.771	340.55
571.195	277.35
571.619	382.68
572.043	314.8
572.467	293.74
572.891	286.72
573.315	340.55
573.739	284.38
574.163	303.1
574.587	422.47
575.011	326.5
575.435	310.12
575.858	361.61
576.282	338.21
576.705	324.16
577.129	260.97
577.552	324.16
577.976	275.01
578.399	286.72
578.822	284.38
579.245	368.63
579.669	275.01
580.092	300.76
580.515	368.63
580.938	333.53
581.361	319.48
581.784	347.57
582.206	314.8
582.629	328.85
583.052	317.14
583.474	347.57
583.897	333.53
584.32	284.38
584.742	361.61
585.165	321.82
585.587	338.21
586.009	303.1
586.431	267.99
586.854	378
587.276	291.4
587.698	305.44
588.12	403.74
588.542	363.95
588.964	328.85
589.386	314.8
589.807	279.69
590.229	347.57
590.651	354.59
591.073	342.89
591.494	326.5
591.916	307.78
592.337	375.66
592.759	303.1
593.18	331.19
593.601	368.63
594.022	340.55
594.444	253.95
594.865	333.53
595.286	356.93
595.707	328.85
596.128	314.8
596.549	361.61
596.97	363.95
597.39	370.97
597.811	319.48
598.232	303.1
598.652	293.74
599.073	335.87
599.494	335.87
599.914	342.89
600.334	314.8
600.755	310.12
601.175	345.23
601.595	303.1
602.015	359.27
602.436	293.74
602.856	502.04
603.276	335.87
603.696	342.89
604.115	263.31
604.535	267.99
604.955	335.87
605.375	289.06
605.794	349.91
606.214	319.48
606.634	363.95
607.053	303.1
607.473	349.91
607.892	356.93
608.311	319.48
608.731	359.27
609.15	347.57
609.569	324.16
609.988	282.03
610.407	324.16
610.826	272.67
611.245	277.35
611.664	293.74
612.083	347.57
612.501	331.19
612.92	310.12
613.339	340.55
613.757	333.53
614.176	296.08
614.594	263.31
615.013	394.38
615.431	328.85
615.85	326.5
616.268	326.5
616.686	370.97
617.104	310.12
617.522	258.63
617.94	345.23
618.358	260.97
618.776	293.74
619.194	314.8
619.612	331.19
620.03	331.19
620.447	321.82
620.865	291.4
621.282	279.69
621.7	403.74
622.117	333.53
622.535	305.44
622.952	385.02
623.369	349.91
623.787	296.08
624.204	359.27
624.621	340.55
625.038	375.66
625.455	347.57
625.872	424.81
626.289	282.03
626.706	324.16
627.123	267.99
627.539	338.21
627.956	347.57
628.373	333.53
628.789	293.74
629.206	335.87
629.622	291.4
630.038	333.53
630.455	331.19
630.871	296.08
631.287	349.91
631.703	305.44
632.12	279.69
632.536	282.03
632.952	326.5
633.368	333.53
633.783	335.87
634.199	321.82
634.615	361.61
635.031	326.5
635.446	363.95
635.862	312.46
636.277	338.21
636.693	363.95
637.108	331.19
637.524	363.95
637.939	342.89
638.354	328.85
638.77	340.55
639.185	225.86
639.6	321.82
640.015	284.38
640.43	328.85
640.845	310.12
641.259	333.53
641.674	277.35
642.089	352.25
642.504	305.44
642.918	347.57
643.333	396.72
643.747	289.06
644.162	289.06
644.576	340.55
644.991	319.48
645.405	300.76
645.819	335.87
646.233	363.95
646.647	300.76
647.061	370.97
647.475	352.25
647.889	303.1
648.303	284.38
648.717	305.44
649.131	401.4
649.545	354.59
649.958	305.44
650.372	338.21
650.785	368.63
651.199	275.01
651.612	382.68
652.026	256.29
652.439	375.66
652.852	370.97
653.266	403.74
653.679	373.32
654.092	347.57
654.505	347.57
654.918	293.74
655.331	291.4
655.744	298.42
656.156	286.72
656.569	296.08
656.982	305.44
657.394	347.57
657.807	345.23
658.22	368.63
658.632	378
659.044	317.14
659.457	282.03
659.869	321.82
660.281	310.12
660.693	310.12
661.106	298.42
661.518	324.16
661.93	314.8
662.342	314.8
662.754	356.93
663.165	349.91
663.577	289.06
663.989	275.01
664.401	289.06
664.812	282.03
665.224	291.4
665.635	415.45
666.047	352.25
666.458	303.1
666.869	324.16
667.281	310.12
667.692	305.44
668.103	317.14
668.514	314.8
668.925	373.32
669.336	338.21
669.747	326.5
670.158	228.2
670.569	312.46
670.979	265.65
671.39	352.25
671.801	312.46
672.211	366.29
672.622	296.08
673.032	305.44
673.443	265.65
673.853	319.48
674.263	380.34
674.674	349.91
675.084	340.55
675.494	333.53
675.904	328.85
676.314	275.01
676.724	328.85
677.134	342.89
677.544	303.1
677.953	305.44
678.363	282.03
678.773	399.06
679.182	293.74
679.592	296.08
680.001	349.91
680.411	328.85
680.82	317.14
681.23	277.35
681.639	354.59
682.048	300.76
682.457	305.44
682.866	368.63
683.275	260.97
683.684	298.42
684.093	267.99
684.502	326.5
684.911	296.08
685.32	298.42
685.728	349.91
686.137	368.63
686.546	298.42
686.954	340.55
687.363	321.82
687.771	338.21
688.179	300.76
688.588	340.55
688.996	291.4
689.404	305.44
689.812	333.53
690.22	328.85
690.628	385.02
691.036	356.93
691.444	354.59
691.852	340.55
692.26	338.21
692.667	296.08
693.075	338.21
693.483	279.69
693.89	305.44
694.298	333.53
694.705	293.74
695.112	347.57
695.52	307.78
695.927	345.23
696.334	382.68
696.741	300.76
697.148	352.25
697.555	270.33
697.962	373.32
698.369	340.55
698.776	385.02
699.183	326.5
699.59	331.19
699.996	359.27
700.403	356.93
700.81	342.89
701.216	401.4
701.623	314.8
702.029	361.61
702.435	291.4
702.842	326.5
703.248	340.55
703.654	340.55
704.06	331.19
704.466	370.97
704.872	321.82
705.278	310.12
705.684	272.67
706.09	342.89
706.496	326.5
706.901	291.4
707.307	291.4
707.712	319.48
708.118	279.69
708.523	345.23
708.929	314.8
709.334	347.57
709.74	403.74
710.145	312.46
710.55	331.19
710.955	317.14
711.36	347.57
711.765	361.61
712.17	300.76
712.575	314.8
712.98	836.74
713.385	375.66
713.789	279.69
714.194	333.53
714.599	359.27
715.003	291.4
715.408	328.85
715.812	326.5
716.217	378
716.621	328.85
717.025	319.48
717.429	253.95
717.833	340.55
718.238	310.12
718.642	356.93
719.046	300.76
719.449	380.34
719.853	338.21
720.257	324.16
720.661	300.76
721.065	282.03
721.468	321.82
721.872	338.21
722.275	317.14
722.679	286.72
723.082	263.31
723.485	352.25
723.889	328.85
724.292	340.55
724.695	275.01
725.098	324.16
725.501	392.04
725.904	282.03
726.307	314.8
726.71	314.8
727.113	289.06
727.516	354.59
727.918	352.25
728.321	349.91
728.724	270.33
729.126	293.74
729.529	312.46
729.931	335.87
730.333	300.76
730.736	345.23
731.138	253.95
731.54	310.12
731.942	326.5
732.344	286.72
732.746	340.55
733.148	305.44
733.55	328.85
733.952	312.46
734.354	321.82
734.756	314.8
735.157	317.14
735.559	324.16
735.96	338.21
736.362	286.72
736.763	317.14
737.165	312.46
737.566	345.23
737.967	319.48
738.368	354.59
738.77	307.78
739.171	352.25
739.572	303.1
739.973	366.29
740.374	260.97
740.774	307.78
741.175	312.46
741.576	389.7
741.977	352.25
742.377	321.82
742.778	354.59
743.178	338.21
743.579	340.55
743.979	321.82
744.379	347.57
744.78	331.19
745.18	370.97
745.58	389.7
745.98	305.44
746.38	342.89
746.78	385.02
747.18	368.63
747.58	345.23
747.98	293.74
748.38	331.19
748.779	385.02
749.179	342.89
749.578	293.74
749.978	314.8
750.377	352.25
750.777	324.16
751.176	307.78
751.575	324.16
751.975	396.72
752.374	307.78
752.773	340.55
753.172	354.59
753.571	345.23
753.97	385.02
754.369	331.19
754.768	328.85
755.166	289.06
755.565	293.74
755.964	319.48
756.362	267.99
756.761	314.8
757.159	373.32
757.558	291.4
757.956	338.21
758.354	317.14
758.753	293.74
759.151	298.42
759.549	375.66
759.947	324.16
760.345	289.06
760.743	300.76
761.141	307.78
761.539	282.03
761.936	265.65
762.334	363.95
762.732	342.89
763.129	265.65
763.527	253.95
763.924	300.76
764.322	345.23
764.719	345.23
765.117	314.8
765.514	300.76
765.911	347.57
766.308	321.82
766.705	284.38
767.102	317.14
767.499	314.8
767.896	282.03
768.293	347.57
768.69	300.76
769.086	298.42
769.483	317.14
769.88	314.8
770.276	244.59
770.673	333.53
771.069	307.78
771.466	340.55
771.862	326.5
772.258	328.85
772.654	293.74
773.05	303.1
773.447	356.93
773.843	331.19
774.239	347.57
774.634	282.03
775.03	328.85
775.426	361.61
775.822	356.93
776.218	310.12
776.613	314.8
777.009	319.48
777.404	312.46
777.8	282.03
778.195	310.12
778.59	312.46
778.986	394.38
779.381	305.44
779.776	389.7
780.171	277.35
780.566	333.53
780.961	291.4
781.356	307.78
781.751	321.82
782.146	298.42
782.54	317.14
782.935	324.16
783.33	363.95
783.724	324.16
784.119	237.56
784.513	335.87
784.908	335.87
785.302	363.95
785.696	298.42
786.09	277.35
786.485	312.46
786.879	326.5
787.273	279.69
787.667	354.59
788.061	293.74
788.454	282.03
788.848	340.55
789.242	289.06
789.636	368.63
790.029	324.16
790.423	300.76
790.816	310.12
791.21	382.68
791.603	338.21
791.997	251.61
792.39	314.8
792.783	338.21
793.176	307.78
793.569	399.06
793.962	387.36
794.355	298.42
794.748	296.08
795.141	368.63
795.534	298.42
795.927	267.99
796.319	312.46
796.712	293.74
797.105	282.03
797.497	321.82
797.89	303.1
798.282	314.8
798.674	282.03
799.067	347.57
799.459	324.16
799.851	305.44
800.243	317.14
800.635	300.76
801.027	342.89
801.419	270.33
801.811	260.97
802.203	307.78
802.594	296.08
802.986	326.5
803.378	279.69
803.769	307.78
804.161	363.95
804.552	373.32
804.944	326.5
805.335	303.1
805.726	293.74
806.118	326.5
806.509	345.23
806.9	303.1
807.291	314.8
807.682	286.72
808.073	326.5
808.464	303.1
808.855	375.66
809.245	303.1
809.636	354.59
810.027	298.42
810.417	310.12
810.808	324.16
811.198	333.53
811.589	279.69
811.979	307.78
812.369	333.53
812.759	251.61
813.15	345.23
813.54	326.5
813.93	349.91
814.32	368.63
814.71	279.69
815.1	359.27
815.489	373.32
815.879	305.44
816.269	296.08
816.658	368.63
817.048	291.4
817.438	368.63
817.827	321.82
818.216	312.46
818.606	282.03
818.995	324.16
819.384	324.16
819.773	277.35
820.163	366.29
820.552	277.35
820.941	382.68
821.33	335.87
821.718	289.06
822.107	314.8
822.496	359.27
822.885	321.82
823.273	326.5
823.662	354.59
824.05	340.55
824.439	314.8
824.827	319.48
825.216	284.38
825.604	303.1
825.992	272.67
826.38	317.14
826.768	352.25
827.156	277.35
827.544	356.93
827.932	263.31
828.32	275.01
828.708	284.38
829.096	279.69
829.483	267.99
829.871	347.57
830.259	286.72
830.646	267.99
831.034	284.38
831.421	331.19
831.808	314.8
832.196	321.82
832.583	307.78
832.97	258.63
833.357	272.67
833.744	326.5
834.131	310.12
834.518	326.5
834.905	218.84
835.292	291.4
835.678	331.19
836.065	272.67
836.452	321.82
836.838	300.76
837.225	314.8
837.611	356.93
837.998	347.57
838.384	314.8
838.77	324.16
839.157	298.42
839.543	324.16
839.929	366.29
840.315	289.06
840.701	335.87
841.087	331.19
841.473	326.5
841.858	389.7
842.244	307.78
842.63	303.1
843.015	328.85
843.401	527.79
843.787	251.61
844.172	340.55
844.557	324.16
844.943	361.61
845.328	305.44
845.713	331.19
846.098	249.27
846.483	317.14
846.868	326.5
847.253	293.74
847.638	394.38
848.023	279.69
848.408	331.19
848.793	363.95
849.177	342.89
849.562	342.89
849.947	260.97
850.331	380.34
850.715	293.74
851.1	331.19
851.484	331.19
851.868	265.65
852.253	368.63
852.637	296.08
853.021	319.48
853.405	342.89
853.789	338.21
854.173	338.21
854.557	307.78
854.94	277.35
855.324	321.82
855.708	328.85
856.091	328.85
856.475	326.5
856.858	326.5
857.242	338.21
857.625	305.44
858.009	300.76
858.392	307.78
858.775	251.61
859.158	272.67
859.541	312.46
859.924	385.02
860.307	326.5
860.69	307.78
861.073	310.12
861.456	296.08
861.838	272.67
862.221	265.65
862.604	335.87
862.986	277.35
863.369	303.1
863.751	370.97
864.133	338.21
864.516	349.91
864.898	349.91
865.28	328.85
865.662	363.95
866.044	314.8
866.426	375.66
866.808	291.4
867.19	324.16
867.572	260.97
867.954	331.19
868.336	375.66
868.717	291.4
869.099	275.01
869.48	373.32
869.862	296.08
870.243	319.48
870.625	324.16
871.006	333.53
871.387	312.46
871.768	326.5
872.149	333.53
872.53	293.74
872.911	289.06
873.292	291.4
873.673	317.14
874.054	312.46
874.435	179.05
874.815	279.69
875.196	328.85
875.577	363.95
875.957	272.67
876.338	342.89
876.718	237.56
877.098	319.48
877.479	289.06
877.859	338.21
878.239	331.19
878.619	314.8
878.999	342.89
879.379	326.5
879.759	314.8
880.139	324.16
880.519	354.59
880.898	251.61
881.278	345.23
881.658	359.27
882.037	321.82
882.417	321.82
882.796	326.5
883.176	270.33
883.555	352.25
883.934	319.48
884.313	338.21
884.693	284.38
885.072	321.82
885.451	307.78
885.83	286.72
886.209	361.61
886.587	352.25
886.966	352.25
887.345	368.63
887.724	406.08
888.102	335.87
888.481	326.5
888.859	345.23
889.238	333.53
889.616	277.35
889.994	331.19
890.373	321.82
890.751	246.93
891.129	321.82
891.507	237.56
891.885	310.12
892.263	347.57
892.641	338.21
893.019	310.12
893.396	352.25
893.774	310.12
894.152	394.38
894.529	300.76
894.907	324.16
895.284	307.78
895.662	291.4
896.039	319.48
896.416	352.25
896.794	312.46
897.171	293.74
897.548	361.61
897.925	324.16
898.302	293.74
898.679	347.57
899.056	338.21
899.433	345.23
899.809	354.59
900.186	296.08
900.563	286.72
900.939	314.8
901.316	260.97
901.692	303.1
902.069	326.5
902.445	345.23
902.821	349.91
903.197	321.82
903.574	310.12
903.95	307.78
904.326	424.81
904.702	267.99
905.078	314.8
905.454	352.25
905.829	354.59
906.205	328.85
906.581	317.14
906.956	331.19
907.332	265.65
907.707	359.27
908.083	338.21
908.458	265.65
908.833	314.8
909.209	361.61
909.584	333.53
909.959	319.48
910.334	361.61
910.709	354.59
911.084	354.59
911.459	312.46
911.834	282.03
912.209	331.19
912.583	354.59
912.958	312.46
913.333	333.53
913.707	319.48
914.082	361.61
914.456	378
914.83	352.25
915.205	331.19
915.579	296.08
915.953	303.1
916.327	296.08
916.701	345.23
917.075	347.57
917.449	265.65
917.823	282.03
918.197	312.46
918.571	289.06
918.944	324.16
919.318	347.57
919.692	310.12
920.065	272.67
920.438	303.1
920.812	340.55
921.185	277.35
921.558	282.03
921.932	347.57
922.305	282.03
922.678	291.4
923.051	284.38
923.424	403.74
923.797	366.29
924.17	291.4
924.542	319.48
924.915	305.44
925.288	286.72
925.661	272.67
926.033	375.66
926.406	342.89
926.778	284.38
927.15	312.46
927.523	286.72
927.895	291.4
928.267	293.74
928.639	342.89
929.011	305.44
929.383	312.46
929.755	333.53
930.127	370.97
930.499	275.01
930.871	270.33
931.242	314.8
931.614	335.87
931.986	326.5
932.357	296.08
932.729	326.5
933.1	331.19
933.471	284.38
933.843	270.33
934.214	246.93
934.585	270.33
934.956	380.34
935.327	333.53
935.698	335.87
936.069	324.16
936.44	242.25
936.811	317.14
937.182	293.74
937.552	289.06
937.923	317.14
938.293	373.32
938.664	326.5
939.034	296.08
939.405	260.97
939.775	275.01
940.145	260.97
940.516	298.42
940.886	345.23
941.256	321.82
941.626	300.76
941.996	354.59
942.366	242.25
942.735	321.82
943.105	333.53
943.475	328.85
943.845	317.14
944.214	317.14
944.584	277.35
944.953	298.42
945.323	310.12
945.692	279.69
946.061	363.95
946.43	275.01
946.8	363.95
947.169	267.99
947.538	317.14
947.907	349.91
948.276	314.8
948.645	298.42
949.013	256.29
949.382	275.01
949.751	282.03
950.119	335.87
950.488	265.65
950.857	305.44
951.225	333.53
951.593	366.29
951.962	321.82
952.33	342.89
952.698	312.46
953.066	298.42
953.434	328.85
953.802	277.35
954.17	326.5
954.538	333.53
954.906	279.69
955.274	333.53
955.642	284.38
956.009	303.1
956.377	345.23
956.744	326.5
957.112	307.78
957.479	310.12
957.847	338.21
958.214	368.63
958.581	392.04
958.948	200.12
959.315	286.72
959.683	296.08
960.05	216.5
960.416	345.23
960.783	286.72
961.15	312.46
961.517	265.65
961.884	338.21
962.25	354.59
962.617	368.63
962.983	277.35
963.35	324.16
963.716	375.66
964.082	349.91
964.449	380.34
964.815	340.55
965.181	340.55
965.547	282.03
965.913	310.12
966.279	321.82
966.645	291.4
967.011	258.63
967.377	253.95
967.742	267.99
968.108	296.08
968.474	361.61
968.839	373.32
969.205	314.8
969.57	321.82
969.935	218.84
970.301	303.1
970.666	345.23
971.031	303.1
971.396	333.53
971.761	314.8
972.126	338.21
972.491	363.95
972.856	333.53
973.221	317.14
973.586	321.82
973.95	389.7
974.315	260.97
974.679	363.95
975.044	293.74
975.408	305.44
975.773	340.55
976.137	289.06
976.501	349.91
976.866	361.61
977.23	335.87
977.594	310.12
977.958	284.38
978.322	310.12
978.686	378
979.049	289.06
979.413	347.57
979.777	305.44
980.141	314.8
980.504	352.25
980.868	298.42
981.231	328.85
981.595	312.46
981.958	326.5
982.321	326.5
982.684	284.38
983.048	328.85
983.411	333.53
983.774	321.82
984.137	387.36
984.5	272.67
984.862	291.4
985.225	335.87
985.588	352.25
985.951	347.57
986.313	263.31
986.676	342.89
987.038	303.1
987.401	363.95
987.763	385.02
988.125	296.08
988.488	312.46
988.85	324.16
989.212	359.27
989.574	291.4
989.936	298.42
990.298	366.29
990.66	335.87
991.022	235.22
991.383	267.99
991.745	382.68
992.107	370.97
992.468	303.1
992.83	267.99
993.191	265.65
993.553	312.46
993.914	317.14
994.275	347.57
994.637	382.68
994.998	314.8
995.359	291.4
995.72	265.65
996.081	328.85
996.442	275.01
996.803	321.82
997.163	225.86
997.524	258.63
997.885	333.53
998.245	305.44
998.606	356.93
998.966	375.66
999.327	284.38
999.687	298.42
1000.047	331.19
1000.408	310.12
1000.768	342.89
1001.128	385.02
1001.488	307.78
1001.848	277.35
1002.208	305.44
1002.568	321.82
1002.927	314.8
1003.287	242.25
1003.647	396.72
1004.007	349.91
1004.366	333.53
1004.726	298.42
1005.085	335.87
1005.444	291.4
1005.804	300.76
1006.163	312.46
1006.522	340.55
1006.881	378
1007.24	366.29
1007.599	300.76
1007.958	296.08
1008.317	305.44
1008.676	342.89
1009.035	324.16
1009.393	347.57
1009.752	223.52
1010.111	368.63
1010.469	275.01
1010.828	298.42
1011.186	305.44
1011.544	260.97
1011.903	338.21
1012.261	286.72
1012.619	378
1012.977	312.46
1013.335	321.82
1013.693	282.03
1014.051	303.1
1014.409	370.97
1014.767	324.16
1015.124	314.8
1015.482	342.89
1015.84	282.03
1016.197	303.1
1016.555	228.2
1016.912	279.69
1017.269	275.01
1017.627	286.72
1017.984	291.4
1018.341	370.97
1018.698	260.97
1019.055	328.85
1019.412	331.19
1019.769	347.57
1020.126	307.78
1020.483	378
1020.84	314.8
1021.196	328.85
1021.553	296.08
1021.909	382.68
1022.266	385.02
1022.622	349.91
1022.979	375.66
1023.335	326.5
1023.691	312.46
1024.047	319.48
1024.404	272.67
1024.76	300.76
1025.116	279.69
1025.472	319.48
1025.827	235.22
1026.183	272.67
1026.539	314.8
1026.895	279.69
1027.25	347.57
1027.606	319.48
1027.961	319.48
1028.317	279.69
1028.672	349.91
1029.028	375.66
1029.383	282.03
1029.738	333.53
1030.093	326.5
1030.448	300.76
1030.803	319.48
1031.158	366.29
1031.513	307.78
1031.868	354.59
1032.223	328.85
1032.577	277.35
1032.932	319.48
1033.287	251.61
1033.641	317.14
1033.996	291.4
1034.35	349.91
1034.704	328.85
1035.059	307.78
1035.413	340.55
1035.767	340.55
1036.121	340.55
