Data from Al_FLMS009871__784__15-21-47-314.txt Node

Date: Fri Mar 08 15:21:47 CST 2024
User: pe5414po
Spectrometer: FLMS00987
Trigger mode: 0
Integration Time (sec): 1.000000E-1
Scans to average: 1
Electric dark correction enabled: true
Nonlinearity correction enabled: false
Boxcar width: 0
XAxis mode: Wavelengths
Number of Pixels in Spectrum: 2048
>>>>>Begin Spectral Data<<<<<
188.938	8.92
189.409	8.92
189.879	8.92
190.349	-108.1
190.819	-54.27
191.29	-101.08
191.76	-56.61
192.23	-89.38
192.7	-84.7
193.17	-68.31
193.64	-2.78
194.109	-82.36
194.579	41.69
195.049	1.9
195.519	51.05
195.988	-23.84
196.458	67.44
196.927	51.05
197.397	104.89
197.866	60.42
198.336	130.63
198.805	118.93
199.274	177.44
199.744	189.14
200.213	247.66
200.682	203.19
201.151	219.57
201.62	278.08
202.089	306.17
202.558	200.85
203.027	261.7
203.495	228.93
203.964	252.34
204.433	242.98
204.902	233.61
205.37	306.17
205.839	294.47
206.307	273.4
206.776	301.49
207.244	282.77
207.712	294.47
208.181	285.11
208.649	287.45
209.117	221.91
209.585	287.45
210.053	299.15
210.521	261.7
210.989	285.11
211.457	219.57
211.925	261.7
212.393	292.13
212.861	320.21
213.328	303.83
213.796	261.7
214.264	287.45
214.731	245.32
215.199	306.17
215.666	219.57
216.133	212.55
216.601	271.06
217.068	250
217.535	257.02
218.003	210.21
218.47	294.47
218.937	250
219.404	242.98
219.871	149.36
220.338	275.74
220.805	294.47
221.271	233.61
221.738	221.91
222.205	264.04
222.671	210.21
223.138	191.49
223.605	221.91
224.071	233.61
224.538	231.27
225.004	350.64
225.47	238.3
225.937	252.34
226.403	221.91
226.869	228.93
227.335	289.79
227.801	271.06
228.267	240.64
228.733	242.98
229.199	242.98
229.665	278.08
230.131	250
230.597	261.7
231.062	268.72
231.528	292.13
231.994	327.24
232.459	313.19
232.925	259.36
233.39	261.7
233.856	315.53
234.321	278.08
234.786	299.15
235.252	308.51
235.717	268.72
236.182	257.02
236.647	252.34
237.112	226.59
237.577	217.23
238.042	210.21
238.507	261.7
238.972	292.13
239.436	254.68
239.901	292.13
240.366	266.38
240.83	254.68
241.295	254.68
241.76	278.08
242.224	282.77
242.688	345.96
243.153	287.45
243.617	273.4
244.081	233.61
244.545	264.04
245.01	273.4
245.474	322.56
245.938	301.49
246.402	287.45
246.866	207.87
247.33	240.64
247.793	275.74
248.257	184.46
248.721	261.7
249.185	254.68
249.648	257.02
250.112	280.43
250.575	238.3
251.039	273.4
251.502	273.4
251.965	280.43
252.429	254.68
252.892	196.17
253.355	301.49
253.818	320.21
254.281	348.3
254.744	259.36
255.207	254.68
255.67	221.91
256.133	235.96
256.596	287.45
257.059	247.66
257.522	250
257.984	317.87
258.447	240.64
258.909	294.47
259.372	275.74
259.834	271.06
260.297	245.32
260.759	210.21
261.221	238.3
261.684	252.34
262.146	259.36
262.608	282.77
263.07	299.15
263.532	327.24
263.994	320.21
264.456	280.43
264.918	324.9
265.38	264.04
265.842	259.36
266.303	231.27
266.765	287.45
267.227	271.06
267.688	268.72
268.15	313.19
268.611	289.79
269.072	233.61
269.534	221.91
269.995	275.74
270.456	303.83
270.918	338.94
271.379	296.81
271.84	317.87
272.301	364.68
272.762	285.11
273.223	320.21
273.684	219.57
274.144	301.49
274.605	282.77
275.066	257.02
275.527	245.32
275.987	257.02
276.448	301.49
276.908	250
277.369	266.38
277.829	273.4
278.289	289.79
278.75	245.32
279.21	257.02
279.67	317.87
280.13	306.17
280.59	259.36
281.05	259.36
281.51	242.98
281.97	268.72
282.43	280.43
282.89	308.51
283.35	308.51
283.809	240.64
284.269	247.66
284.729	282.77
285.188	282.77
285.648	310.85
286.107	341.28
286.567	266.38
287.026	221.91
287.485	338.94
287.944	282.77
288.404	266.38
288.863	247.66
289.322	303.83
289.781	282.77
290.24	324.9
290.699	271.06
291.158	350.64
291.616	341.28
292.075	282.77
292.534	266.38
292.992	292.13
293.451	285.11
293.91	238.3
294.368	287.45
294.827	299.15
295.285	287.45
295.743	247.66
296.202	294.47
296.66	275.74
297.118	250
297.576	303.83
298.034	331.92
298.492	242.98
298.95	275.74
299.408	285.11
299.866	247.66
300.324	280.43
300.781	250
301.239	257.02
301.697	308.51
302.154	280.43
302.612	273.4
303.069	266.38
303.527	285.11
303.984	310.85
304.441	315.53
304.899	268.72
305.356	280.43
305.813	242.98
306.27	278.08
306.727	289.79
307.184	299.15
307.641	264.04
308.098	329.58
308.555	228.93
309.012	264.04
309.468	301.49
309.925	315.53
310.382	352.98
310.838	242.98
311.295	320.21
311.751	310.85
312.208	313.19
312.664	275.74
313.12	296.81
313.577	343.62
314.033	282.77
314.489	336.6
314.945	327.24
315.401	271.06
315.857	275.74
316.313	264.04
316.769	282.77
317.225	301.49
317.681	306.17
318.136	271.06
318.592	268.72
319.048	320.21
319.503	348.3
319.959	280.43
320.414	352.98
320.869	308.51
321.325	259.36
321.78	343.62
322.235	296.81
322.691	313.19
323.146	306.17
323.601	299.15
324.056	238.3
324.511	303.83
324.966	257.02
325.421	317.87
325.875	268.72
326.33	252.34
326.785	299.15
327.24	238.3
327.694	315.53
328.149	271.06
328.603	296.81
329.058	343.62
329.512	280.43
329.966	331.92
330.421	306.17
330.875	289.79
331.329	257.02
331.783	320.21
332.237	303.83
332.691	317.87
333.145	310.85
333.599	285.11
334.053	254.68
334.507	252.34
334.96	259.36
335.414	278.08
335.868	336.6
336.321	324.9
336.775	292.13
337.228	280.43
337.682	275.74
338.135	273.4
338.588	289.79
339.042	329.58
339.495	329.58
339.948	336.6
340.401	226.59
340.854	404.47
341.307	329.58
341.76	278.08
342.213	268.72
342.666	221.91
343.119	292.13
343.571	301.49
344.024	308.51
344.477	336.6
344.929	271.06
345.382	371.71
345.834	357.66
346.287	264.04
346.739	343.62
347.191	338.94
347.644	299.15
348.096	376.39
348.548	301.49
349	275.74
349.452	320.21
349.904	292.13
350.356	273.4
350.808	301.49
351.26	327.24
351.711	268.72
352.163	278.08
352.615	315.53
353.066	324.9
353.518	324.9
353.969	275.74
354.421	289.79
354.872	308.51
355.324	266.38
355.775	336.6
356.226	345.96
356.677	292.13
357.128	292.13
357.579	317.87
358.03	250
358.481	273.4
358.932	334.26
359.383	273.4
359.834	301.49
360.285	313.19
360.735	292.13
361.186	336.6
361.637	287.45
362.087	268.72
362.538	275.74
362.988	348.3
363.438	310.85
363.889	317.87
364.339	369.37
364.789	341.28
365.239	320.21
365.689	273.4
366.139	273.4
366.589	331.92
367.039	336.6
367.489	282.77
367.939	334.26
368.389	329.58
368.839	303.83
369.288	268.72
369.738	348.3
370.187	355.32
370.637	357.66
371.086	336.6
371.536	299.15
371.985	324.9
372.434	324.9
372.884	259.36
373.333	287.45
373.782	240.64
374.231	369.37
374.68	266.38
375.129	261.7
375.578	313.19
376.027	331.92
376.475	303.83
376.924	355.32
377.373	329.58
377.822	289.79
378.27	308.51
378.719	294.47
379.167	310.85
379.616	264.04
380.064	296.81
380.512	287.45
380.961	299.15
381.409	301.49
381.857	268.72
382.305	285.11
382.753	350.64
383.201	217.23
383.649	320.21
384.097	355.32
384.545	280.43
384.992	266.38
385.44	320.21
385.888	292.13
386.335	250
386.783	240.64
387.231	285.11
387.678	324.9
388.125	254.68
388.573	350.64
389.02	280.43
389.467	280.43
389.914	205.53
390.362	362.34
390.809	327.24
391.256	352.98
391.703	348.3
392.15	240.64
392.596	303.83
393.043	334.26
393.49	303.83
393.937	315.53
394.383	289.79
394.83	257.02
395.276	299.15
395.723	345.96
396.169	392.77
396.616	240.64
397.062	285.11
397.508	301.49
397.954	315.53
398.401	282.77
398.847	266.38
399.293	317.87
399.739	278.08
400.185	303.83
400.631	338.94
401.076	341.28
401.522	324.9
401.968	285.11
402.414	336.6
402.859	221.91
403.305	317.87
403.75	299.15
404.196	285.11
404.641	301.49
405.086	247.66
405.532	292.13
405.977	334.26
406.422	341.28
406.867	324.9
407.312	327.24
407.757	320.21
408.202	275.74
408.647	275.74
409.092	303.83
409.537	296.81
409.982	301.49
410.426	289.79
410.871	289.79
411.316	336.6
411.76	294.47
412.205	296.81
412.649	282.77
413.093	287.45
413.538	338.94
413.982	242.98
414.426	299.15
414.87	324.9
415.314	331.92
415.758	296.81
416.202	254.68
416.646	268.72
417.09	294.47
417.534	303.83
417.978	289.79
418.421	259.36
418.865	341.28
419.309	345.96
419.752	303.83
420.196	306.17
420.639	322.56
421.083	271.06
421.526	287.45
421.969	303.83
422.412	299.15
422.856	271.06
423.299	352.98
423.742	317.87
424.185	275.74
424.628	315.53
425.071	268.72
425.513	285.11
425.956	306.17
426.399	345.96
426.842	252.34
427.284	369.37
427.727	257.02
428.169	233.61
428.612	329.58
429.054	320.21
429.497	196.17
429.939	317.87
430.381	287.45
430.823	334.26
431.265	282.77
431.707	338.94
432.149	348.3
432.591	322.56
433.033	280.43
433.475	310.85
433.917	250
434.359	292.13
434.8	303.83
435.242	273.4
435.684	245.32
436.125	266.38
436.567	334.26
437.008	299.15
437.449	352.98
437.891	329.58
438.332	257.02
438.773	294.47
439.214	207.87
439.656	355.32
440.097	334.26
440.538	341.28
440.978	271.06
441.419	240.64
441.86	287.45
442.301	285.11
442.742	261.7
443.182	292.13
443.623	280.43
444.063	252.34
444.504	360
444.944	306.17
445.385	320.21
445.825	282.77
446.265	287.45
446.706	280.43
447.146	336.6
447.586	352.98
448.026	306.17
448.466	402.13
448.906	320.21
449.346	306.17
449.786	299.15
450.225	303.83
450.665	348.3
451.105	348.3
451.544	289.79
451.984	278.08
452.424	303.83
452.863	352.98
453.302	296.81
453.742	273.4
454.181	285.11
454.62	285.11
455.059	271.06
455.499	285.11
455.938	376.39
456.377	299.15
456.816	299.15
457.254	348.3
457.693	294.47
458.132	320.21
458.571	343.62
459.01	301.49
459.448	264.04
459.887	322.56
460.325	278.08
460.764	308.51
461.202	287.45
461.641	306.17
462.079	341.28
462.517	303.83
462.955	357.66
463.393	388.09
463.832	271.06
464.27	252.34
464.708	299.15
465.145	301.49
465.583	303.83
466.021	301.49
466.459	334.26
466.897	320.21
467.334	296.81
467.772	355.32
468.209	343.62
468.647	257.02
469.084	292.13
469.522	355.32
469.959	296.81
470.396	327.24
470.833	308.51
471.271	273.4
471.708	259.36
472.145	327.24
472.582	324.9
473.019	320.21
473.456	259.36
473.892	392.77
474.329	287.45
474.766	289.79
475.202	324.9
475.639	308.51
476.076	287.45
476.512	294.47
476.949	334.26
477.385	275.74
477.821	352.98
478.258	261.7
478.694	242.98
479.13	285.11
479.566	336.6
480.002	317.87
480.438	301.49
480.874	278.08
481.31	266.38
481.746	273.4
482.181	240.64
482.617	315.53
483.053	275.74
483.488	313.19
483.924	343.62
484.36	360
484.795	331.92
485.23	369.37
485.666	247.66
486.101	261.7
486.536	257.02
486.971	271.06
487.407	280.43
487.842	350.64
488.277	306.17
488.712	280.43
489.146	282.77
489.581	264.04
490.016	257.02
490.451	303.83
490.885	296.81
491.32	282.77
491.755	320.21
492.189	299.15
492.624	322.56
493.058	327.24
493.492	357.66
493.927	329.58
494.361	235.96
494.795	252.34
495.229	292.13
495.663	343.62
496.097	338.94
496.531	334.26
496.965	320.21
497.399	301.49
497.833	294.47
498.266	226.59
498.7	350.64
499.134	362.34
499.567	334.26
500.001	294.47
500.434	240.64
500.868	257.02
501.301	266.38
501.734	294.47
502.168	303.83
502.601	317.87
503.034	271.06
503.467	303.83
503.9	299.15
504.333	336.6
504.766	338.94
505.199	334.26
505.632	299.15
506.064	334.26
506.497	278.08
506.93	338.94
507.362	289.79
507.795	310.85
508.227	294.47
508.66	280.43
509.092	334.26
509.524	273.4
509.956	357.66
510.389	317.87
510.821	282.77
511.253	374.05
511.685	413.84
512.117	334.26
512.549	334.26
512.981	264.04
513.412	301.49
513.844	282.77
514.276	266.38
514.707	285.11
515.139	367.03
515.571	334.26
516.002	273.4
516.433	336.6
516.865	341.28
517.296	352.98
517.727	266.38
518.159	320.21
518.59	296.81
519.021	341.28
519.452	345.96
519.883	275.74
520.314	292.13
520.744	327.24
521.175	345.96
521.606	278.08
522.037	294.47
522.467	264.04
522.898	278.08
523.328	306.17
523.759	313.19
524.189	285.11
524.62	282.77
525.05	308.51
525.48	285.11
525.91	327.24
526.341	336.6
526.771	306.17
527.201	259.36
527.631	247.66
528.061	367.03
528.49	273.4
528.92	308.51
529.35	308.51
529.78	303.83
530.209	357.66
530.639	362.34
531.068	259.36
531.498	296.81
531.927	345.96
532.357	348.3
532.786	271.06
533.215	275.74
533.644	289.79
534.074	324.9
534.503	296.81
534.932	329.58
535.361	280.43
535.79	264.04
536.218	233.61
536.647	369.37
537.076	399.79
537.505	315.53
537.933	324.9
538.362	315.53
538.79	299.15
539.219	322.56
539.647	355.32
540.076	313.19
540.504	336.6
540.932	306.17
541.36	360
541.788	296.81
542.217	275.74
542.645	296.81
543.073	271.06
543.5	322.56
543.928	345.96
544.356	289.79
544.784	303.83
545.211	296.81
545.639	336.6
546.067	343.62
546.494	343.62
546.922	303.83
547.349	364.68
547.776	395.11
548.204	322.56
548.631	299.15
549.058	238.3
549.485	306.17
549.912	315.53
550.339	228.93
550.766	367.03
551.193	350.64
551.62	289.79
552.047	317.87
552.474	228.93
552.9	292.13
553.327	313.19
553.754	254.68
554.18	338.94
554.607	303.83
555.033	310.85
555.459	299.15
555.886	329.58
556.312	334.26
556.738	322.56
557.164	306.17
557.59	320.21
558.016	292.13
558.442	303.83
558.868	261.7
559.294	257.02
559.72	282.77
560.145	287.45
560.571	317.87
560.997	306.17
561.422	289.79
561.848	338.94
562.273	327.24
562.699	324.9
563.124	294.47
563.549	264.04
563.974	301.49
564.4	292.13
564.825	345.96
565.25	350.64
565.675	324.9
566.1	352.98
566.525	259.36
566.95	306.17
567.374	294.47
567.799	261.7
568.224	355.32
568.648	322.56
569.073	341.28
569.497	303.83
569.922	259.36
570.346	343.62
570.771	360
571.195	308.51
571.619	257.02
572.043	247.66
572.467	257.02
572.891	289.79
573.315	278.08
573.739	275.74
574.163	280.43
574.587	322.56
575.011	343.62
575.435	294.47
575.858	261.7
576.282	357.66
576.705	299.15
577.129	322.56
577.552	257.02
577.976	320.21
578.399	259.36
578.822	315.53
579.245	289.79
579.669	289.79
580.092	282.77
580.515	294.47
580.938	280.43
581.361	282.77
581.784	324.9
582.206	306.17
582.629	308.51
583.052	320.21
583.474	310.85
583.897	299.15
584.32	289.79
584.742	287.45
585.165	287.45
585.587	287.45
586.009	250
586.431	315.53
586.854	303.83
587.276	271.06
587.698	299.15
588.12	299.15
588.542	271.06
588.964	331.92
589.386	334.26
589.807	278.08
590.229	282.77
590.651	329.58
591.073	289.79
591.494	313.19
591.916	289.79
592.337	278.08
592.759	315.53
593.18	292.13
593.601	289.79
594.022	381.07
594.444	294.47
594.865	341.28
595.286	217.23
595.707	301.49
596.128	261.7
596.549	360
596.97	369.37
597.39	352.98
597.811	292.13
598.232	352.98
598.652	331.92
599.073	360
599.494	228.93
599.914	306.17
600.334	360
600.755	294.47
601.175	280.43
601.595	247.66
602.015	327.24
602.436	336.6
602.856	434.9
603.276	320.21
603.696	303.83
604.115	334.26
604.535	306.17
604.955	313.19
605.375	287.45
605.794	275.74
606.214	266.38
606.634	275.74
607.053	341.28
607.473	327.24
607.892	261.7
608.311	275.74
608.731	299.15
609.15	299.15
609.569	348.3
609.988	329.58
610.407	303.83
610.826	282.77
611.245	306.17
611.664	292.13
612.083	282.77
612.501	280.43
612.92	259.36
613.339	336.6
613.757	334.26
614.176	329.58
614.594	282.77
615.013	336.6
615.431	310.85
615.85	299.15
616.268	310.85
616.686	306.17
617.104	324.9
617.522	292.13
617.94	395.11
618.358	264.04
618.776	322.56
619.194	355.32
619.612	250
620.03	292.13
620.447	278.08
620.865	378.73
621.282	301.49
621.7	378.73
622.117	334.26
622.535	336.6
622.952	285.11
623.369	296.81
623.787	317.87
624.204	191.49
624.621	338.94
625.038	308.51
625.455	308.51
625.872	296.81
626.289	294.47
626.706	320.21
627.123	334.26
627.539	306.17
627.956	257.02
628.373	271.06
628.789	259.36
629.206	369.37
629.622	294.47
630.038	308.51
630.455	348.3
630.871	242.98
631.287	289.79
631.703	261.7
632.12	338.94
632.536	245.32
632.952	292.13
633.368	338.94
633.783	334.26
634.199	226.59
634.615	250
635.031	315.53
635.446	306.17
635.862	242.98
636.277	254.68
636.693	299.15
637.108	313.19
637.524	285.11
637.939	329.58
638.354	292.13
638.77	296.81
639.185	378.73
639.6	285.11
640.015	278.08
640.43	292.13
640.845	280.43
641.259	317.87
641.674	280.43
642.089	317.87
642.504	310.85
642.918	296.81
643.333	310.85
643.747	324.9
644.162	292.13
644.576	287.45
644.991	331.92
645.405	352.98
645.819	294.47
646.233	418.52
646.647	397.45
647.061	317.87
647.475	369.37
647.889	308.51
648.303	313.19
648.717	313.19
649.131	254.68
649.545	303.83
649.958	278.08
650.372	275.74
650.785	271.06
651.199	329.58
651.612	327.24
652.026	341.28
652.439	252.34
652.852	231.27
653.266	306.17
653.679	278.08
654.092	345.96
654.505	278.08
654.918	289.79
655.331	289.79
655.744	336.6
656.156	296.81
656.569	289.79
656.982	343.62
657.394	352.98
657.807	282.77
658.22	280.43
658.632	264.04
659.044	271.06
659.457	285.11
659.869	315.53
660.281	315.53
660.693	296.81
661.106	315.53
661.518	280.43
661.93	369.37
662.342	308.51
662.754	238.3
663.165	275.74
663.577	320.21
663.989	294.47
664.401	320.21
664.812	266.38
665.224	303.83
665.635	367.03
666.047	285.11
666.458	254.68
666.869	289.79
667.281	369.37
667.692	315.53
668.103	327.24
668.514	306.17
668.925	306.17
669.336	322.56
669.747	317.87
670.158	320.21
670.569	313.19
670.979	280.43
671.39	313.19
671.801	259.36
672.211	329.58
672.622	317.87
673.032	264.04
673.443	313.19
673.853	388.09
674.263	301.49
674.674	273.4
675.084	329.58
675.494	350.64
675.904	289.79
676.314	310.85
676.724	268.72
677.134	292.13
677.544	299.15
677.953	217.23
678.363	324.9
678.773	294.47
679.182	306.17
679.592	292.13
680.001	292.13
680.411	303.83
680.82	299.15
681.23	317.87
681.639	334.26
682.048	352.98
682.457	322.56
682.866	343.62
683.275	273.4
683.684	341.28
684.093	331.92
684.502	294.47
684.911	299.15
685.32	282.77
685.728	242.98
686.137	355.32
686.546	327.24
686.954	278.08
687.363	399.79
687.771	268.72
688.179	324.9
688.588	362.34
688.996	294.47
689.404	317.87
689.812	308.51
690.22	327.24
690.628	327.24
691.036	322.56
691.444	315.53
691.852	254.68
692.26	324.9
692.667	404.47
693.075	280.43
693.483	331.92
693.89	315.53
694.298	313.19
694.705	287.45
695.112	348.3
695.52	345.96
695.927	331.92
696.334	360
696.741	294.47
697.148	338.94
697.555	273.4
697.962	327.24
698.369	313.19
698.776	257.02
699.183	306.17
699.59	292.13
699.996	381.07
700.403	313.19
700.81	261.7
701.216	252.34
701.623	324.9
702.029	317.87
702.435	299.15
702.842	324.9
703.248	334.26
703.654	327.24
704.06	324.9
704.466	315.53
704.872	327.24
705.278	266.38
705.684	259.36
706.09	313.19
706.496	294.47
706.901	306.17
707.307	303.83
707.712	266.38
708.118	294.47
708.523	294.47
708.929	271.06
709.334	336.6
709.74	308.51
710.145	313.19
710.55	317.87
710.955	329.58
711.36	310.85
711.765	292.13
712.17	257.02
712.575	348.3
712.98	722.79
713.385	385.75
713.789	273.4
714.194	317.87
714.599	217.23
715.003	306.17
715.408	348.3
715.812	310.85
716.217	310.85
716.621	329.58
717.025	280.43
717.429	329.58
717.833	268.72
718.238	352.98
718.642	371.71
719.046	334.26
719.449	301.49
719.853	261.7
720.257	303.83
720.661	271.06
721.065	331.92
721.468	273.4
721.872	320.21
722.275	285.11
722.679	320.21
723.082	299.15
723.485	310.85
723.889	268.72
724.292	308.51
724.695	282.77
725.098	315.53
725.501	320.21
725.904	317.87
726.307	273.4
726.71	334.26
727.113	350.64
727.516	250
727.918	292.13
728.321	324.9
728.724	341.28
729.126	336.6
729.529	355.32
729.931	315.53
730.333	285.11
730.736	242.98
731.138	264.04
731.54	348.3
731.942	345.96
732.344	322.56
732.746	296.81
733.148	310.85
733.55	264.04
733.952	301.49
734.354	317.87
734.756	308.51
735.157	296.81
735.559	324.9
735.96	278.08
736.362	343.62
736.763	231.27
737.165	364.68
737.566	242.98
737.967	327.24
738.368	266.38
738.77	336.6
739.171	371.71
739.572	301.49
739.973	296.81
740.374	313.19
740.774	226.59
741.175	303.83
741.576	231.27
741.977	289.79
742.377	341.28
742.778	287.45
743.178	336.6
743.579	289.79
743.979	334.26
744.379	303.83
744.78	238.3
745.18	282.77
745.58	367.03
745.98	313.19
746.38	238.3
746.78	322.56
747.18	306.17
747.58	357.66
747.98	303.83
748.38	294.47
748.779	360
749.179	308.51
749.578	282.77
749.978	242.98
750.377	299.15
750.777	317.87
751.176	264.04
751.575	301.49
751.975	292.13
752.374	306.17
752.773	301.49
753.172	306.17
753.571	334.26
753.97	278.08
754.369	275.74
754.768	226.59
755.166	313.19
755.565	313.19
755.964	280.43
756.362	313.19
756.761	254.68
757.159	252.34
757.558	266.38
757.956	315.53
758.354	331.92
758.753	259.36
759.151	282.77
759.549	308.51
759.947	252.34
760.345	317.87
760.743	317.87
761.141	287.45
761.539	367.03
761.936	362.34
762.334	310.85
762.732	287.45
763.129	280.43
763.527	287.45
763.924	317.87
764.322	338.94
764.719	271.06
765.117	282.77
765.514	257.02
765.911	310.85
766.308	301.49
766.705	278.08
767.102	278.08
767.499	308.51
767.896	278.08
768.293	334.26
768.69	313.19
769.086	299.15
769.483	254.68
769.88	350.64
770.276	308.51
770.673	294.47
771.069	315.53
771.466	324.9
771.862	341.28
772.258	306.17
772.654	294.47
773.05	271.06
773.447	369.37
773.843	271.06
774.239	313.19
774.634	327.24
775.03	282.77
775.426	289.79
775.822	362.34
776.218	299.15
776.613	376.39
777.009	301.49
777.404	315.53
777.8	210.21
778.195	324.9
778.59	357.66
778.986	329.58
779.381	257.02
779.776	261.7
780.171	313.19
780.566	329.58
780.961	338.94
781.356	233.61
781.751	212.55
782.146	327.24
782.54	343.62
782.935	324.9
783.33	315.53
783.724	299.15
784.119	287.45
784.513	294.47
784.908	327.24
785.302	242.98
785.696	315.53
786.09	285.11
786.485	360
786.879	296.81
787.273	250
787.667	294.47
788.061	271.06
788.454	271.06
788.848	313.19
789.242	313.19
789.636	299.15
790.029	221.91
790.423	287.45
790.816	308.51
791.21	285.11
791.603	338.94
791.997	313.19
792.39	331.92
792.783	226.59
793.176	336.6
793.569	282.77
793.962	350.64
794.355	289.79
794.748	231.27
795.141	259.36
795.534	301.49
795.927	308.51
796.319	264.04
796.712	303.83
797.105	303.83
797.497	292.13
797.89	296.81
798.282	273.4
798.674	364.68
799.067	317.87
799.459	264.04
799.851	280.43
800.243	324.9
800.635	287.45
801.027	301.49
801.419	292.13
801.811	287.45
802.203	322.56
802.594	275.74
802.986	264.04
803.378	296.81
803.769	261.7
804.161	317.87
804.552	313.19
804.944	306.17
805.335	313.19
805.726	352.98
806.118	301.49
806.509	299.15
806.9	313.19
807.291	289.79
807.682	238.3
808.073	310.85
808.464	320.21
808.855	322.56
809.245	240.64
809.636	299.15
810.027	381.07
810.417	282.77
810.808	247.66
811.198	238.3
811.589	306.17
811.979	299.15
812.369	315.53
812.759	317.87
813.15	317.87
813.54	285.11
813.93	259.36
814.32	317.87
814.71	296.81
815.1	250
815.489	327.24
815.879	299.15
816.269	343.62
816.658	331.92
817.048	336.6
817.438	301.49
817.827	306.17
818.216	336.6
818.606	355.32
818.995	315.53
819.384	296.81
819.773	355.32
820.163	278.08
820.552	287.45
820.941	336.6
821.33	266.38
821.718	310.85
822.107	271.06
822.496	294.47
822.885	348.3
823.273	261.7
823.662	320.21
824.05	329.58
824.439	331.92
824.827	301.49
825.216	306.17
825.604	292.13
825.992	296.81
826.38	308.51
826.768	338.94
827.156	299.15
827.544	357.66
827.932	322.56
828.32	282.77
828.708	282.77
829.096	329.58
829.483	254.68
829.871	196.17
830.259	259.36
830.646	301.49
831.034	245.32
831.421	301.49
831.808	245.32
832.196	247.66
832.583	292.13
832.97	231.27
833.357	273.4
833.744	278.08
834.131	285.11
834.518	287.45
834.905	360
835.292	264.04
835.678	331.92
836.065	364.68
836.452	350.64
836.838	261.7
837.225	320.21
837.611	285.11
837.998	264.04
838.384	299.15
838.77	362.34
839.157	367.03
839.543	345.96
839.929	315.53
840.315	320.21
840.701	285.11
841.087	310.85
841.473	296.81
841.858	350.64
842.244	296.81
842.63	252.34
843.015	306.17
843.401	570.65
843.787	313.19
844.172	299.15
844.557	296.81
844.943	331.92
845.328	296.81
845.713	327.24
846.098	376.39
846.483	252.34
846.868	308.51
847.253	317.87
847.638	310.85
848.023	292.13
848.408	301.49
848.793	338.94
849.177	259.36
849.562	212.55
849.947	315.53
850.331	310.85
850.715	259.36
851.1	294.47
851.484	308.51
851.868	275.74
852.253	296.81
852.637	313.19
853.021	303.83
853.405	329.58
853.789	341.28
854.173	331.92
854.557	275.74
854.94	266.38
855.324	273.4
855.708	345.96
856.091	327.24
856.475	289.79
856.858	233.61
857.242	282.77
857.625	324.9
858.009	259.36
858.392	287.45
858.775	259.36
859.158	329.58
859.541	355.32
859.924	280.43
860.307	336.6
860.69	252.34
861.073	306.17
861.456	367.03
861.838	324.9
862.221	310.85
862.604	226.59
862.986	341.28
863.369	310.85
863.751	322.56
864.133	343.62
864.516	334.26
864.898	280.43
865.28	376.39
865.662	308.51
866.044	350.64
866.426	313.19
866.808	324.9
867.19	292.13
867.572	278.08
867.954	331.92
868.336	350.64
868.717	242.98
869.099	338.94
869.48	294.47
869.862	336.6
870.243	313.19
870.625	334.26
871.006	329.58
871.387	252.34
871.768	282.77
872.149	341.28
872.53	280.43
872.911	278.08
873.292	324.9
873.673	268.72
874.054	313.19
874.435	287.45
874.815	238.3
875.196	285.11
875.577	238.3
875.957	364.68
876.338	252.34
876.718	331.92
877.098	360
877.479	247.66
877.859	292.13
878.239	329.58
878.619	303.83
878.999	252.34
879.379	271.06
879.759	231.27
880.139	306.17
880.519	313.19
880.898	357.66
881.278	296.81
881.658	327.24
882.037	294.47
882.417	233.61
882.796	320.21
883.176	327.24
883.555	292.13
883.934	289.79
884.313	352.98
884.693	278.08
885.072	245.32
885.451	259.36
885.83	278.08
886.209	294.47
886.587	350.64
886.966	235.96
887.345	355.32
887.724	261.7
888.102	299.15
888.481	294.47
888.859	296.81
889.238	287.45
889.616	273.4
889.994	278.08
890.373	294.47
890.751	266.38
891.129	308.51
891.507	259.36
891.885	280.43
892.263	280.43
892.641	228.93
893.019	334.26
893.396	374.05
893.774	310.85
894.152	357.66
894.529	266.38
894.907	299.15
895.284	259.36
895.662	278.08
896.039	259.36
896.416	327.24
896.794	287.45
897.171	341.28
897.548	331.92
897.925	266.38
898.302	264.04
898.679	336.6
899.056	303.83
899.433	266.38
899.809	308.51
900.186	324.9
900.563	292.13
900.939	336.6
901.316	238.3
901.692	367.03
902.069	285.11
902.445	334.26
902.821	306.17
903.197	308.51
903.574	296.81
903.95	336.6
904.326	285.11
904.702	322.56
905.078	329.58
905.454	364.68
905.829	268.72
906.205	317.87
906.581	303.83
906.956	296.81
907.332	310.85
907.707	331.92
908.083	357.66
908.458	168.08
908.833	322.56
909.209	273.4
909.584	289.79
909.959	254.68
910.334	259.36
910.709	308.51
911.084	287.45
911.459	278.08
911.834	320.21
912.209	294.47
912.583	268.72
912.958	252.34
913.333	317.87
913.707	278.08
914.082	280.43
914.456	345.96
914.83	268.72
915.205	301.49
915.579	327.24
915.953	292.13
916.327	306.17
916.701	317.87
917.075	301.49
917.449	282.77
917.823	273.4
918.197	285.11
918.571	324.9
918.944	310.85
919.318	287.45
919.692	329.58
920.065	280.43
920.438	308.51
920.812	282.77
921.185	289.79
921.558	296.81
921.932	273.4
922.305	348.3
922.678	292.13
923.051	245.32
923.424	345.96
923.797	292.13
924.17	296.81
924.542	334.26
924.915	310.85
925.288	301.49
925.661	268.72
926.033	355.32
926.406	294.47
926.778	296.81
927.15	329.58
927.523	336.6
927.895	278.08
928.267	280.43
928.639	331.92
929.011	235.96
929.383	273.4
929.755	257.02
930.127	320.21
930.499	383.41
930.871	315.53
931.242	273.4
931.614	308.51
931.986	292.13
932.357	343.62
932.729	294.47
933.1	310.85
933.471	306.17
933.843	320.21
934.214	327.24
934.585	313.19
934.956	301.49
935.327	345.96
935.698	324.9
936.069	235.96
936.44	214.89
936.811	306.17
937.182	268.72
937.552	308.51
937.923	338.94
938.293	329.58
938.664	336.6
939.034	374.05
939.405	329.58
939.775	320.21
940.145	315.53
940.516	334.26
940.886	287.45
941.256	282.77
941.626	292.13
941.996	322.56
942.366	308.51
942.735	327.24
943.105	301.49
943.475	264.04
943.845	299.15
944.214	357.66
944.584	282.77
944.953	310.85
945.323	287.45
945.692	254.68
946.061	306.17
946.43	306.17
946.8	292.13
947.169	308.51
947.538	273.4
947.907	299.15
948.276	266.38
948.645	296.81
949.013	324.9
949.382	315.53
949.751	352.98
950.119	289.79
950.488	261.7
950.857	242.98
951.225	322.56
951.593	252.34
951.962	264.04
952.33	292.13
952.698	273.4
953.066	308.51
953.434	278.08
953.802	254.68
954.17	324.9
954.538	301.49
954.906	273.4
955.274	294.47
955.642	352.98
956.009	336.6
956.377	315.53
956.744	259.36
957.112	219.57
957.479	252.34
957.847	301.49
958.214	341.28
958.581	303.83
958.948	369.37
959.315	315.53
959.683	338.94
960.05	327.24
960.416	228.93
960.783	345.96
961.15	364.68
961.517	250
961.884	301.49
962.25	341.28
962.617	315.53
962.983	338.94
963.35	345.96
963.716	352.98
964.082	289.79
964.449	308.51
964.815	254.68
965.181	287.45
965.547	219.57
965.913	278.08
966.279	273.4
966.645	268.72
967.011	350.64
967.377	336.6
967.742	397.45
968.108	268.72
968.474	336.6
968.839	280.43
969.205	301.49
969.57	289.79
969.935	299.15
970.301	287.45
970.666	310.85
971.031	348.3
971.396	343.62
971.761	310.85
972.126	336.6
972.491	329.58
972.856	259.36
973.221	294.47
973.586	306.17
973.95	268.72
974.315	334.26
974.679	233.61
975.044	308.51
975.408	280.43
975.773	289.79
976.137	336.6
976.501	282.77
976.866	296.81
977.23	324.9
977.594	273.4
977.958	235.96
978.322	203.19
978.686	308.51
979.049	374.05
979.413	320.21
979.777	292.13
980.141	355.32
980.504	268.72
980.868	343.62
981.231	315.53
981.595	268.72
981.958	292.13
982.321	280.43
982.684	294.47
983.048	341.28
983.411	257.02
983.774	273.4
984.137	320.21
984.5	280.43
984.862	369.37
985.225	294.47
985.588	245.32
985.951	296.81
986.313	282.77
986.676	289.79
987.038	308.51
987.401	324.9
987.763	355.32
988.125	282.77
988.488	315.53
988.85	306.17
989.212	313.19
989.574	338.94
989.936	231.27
990.298	266.38
990.66	345.96
991.022	303.83
991.383	334.26
991.745	303.83
992.107	294.47
992.468	287.45
992.83	303.83
993.191	266.38
993.553	289.79
993.914	271.06
994.275	341.28
994.637	317.87
994.998	247.66
995.359	250
995.72	254.68
996.081	289.79
996.442	273.4
996.803	247.66
997.163	331.92
997.524	315.53
997.885	245.32
998.245	367.03
998.606	308.51
998.966	242.98
999.327	233.61
999.687	362.34
1000.047	310.85
1000.408	310.85
1000.768	329.58
1001.128	310.85
1001.488	257.02
1001.848	315.53
1002.208	329.58
1002.568	310.85
1002.927	268.72
1003.287	345.96
1003.647	345.96
1004.007	334.26
1004.366	240.64
1004.726	322.56
1005.085	287.45
1005.444	296.81
1005.804	331.92
1006.163	275.74
1006.522	341.28
1006.881	317.87
1007.24	336.6
1007.599	360
1007.958	420.86
1008.317	280.43
1008.676	381.07
1009.035	245.32
1009.393	406.81
1009.752	296.81
1010.111	348.3
1010.469	247.66
1010.828	310.85
1011.186	327.24
1011.544	242.98
1011.903	217.23
1012.261	294.47
1012.619	287.45
1012.977	264.04
1013.335	338.94
1013.693	282.77
1014.051	289.79
1014.409	242.98
1014.767	306.17
1015.124	296.81
1015.482	273.4
1015.84	301.49
1016.197	301.49
1016.555	289.79
1016.912	327.24
1017.269	287.45
1017.627	282.77
1017.984	245.32
1018.341	264.04
1018.698	306.17
1019.055	289.79
1019.412	259.36
1019.769	301.49
1020.126	352.98
1020.483	294.47
1020.84	338.94
1021.196	275.74
1021.553	278.08
1021.909	261.7
1022.266	308.51
1022.622	352.98
1022.979	257.02
1023.335	336.6
1023.691	306.17
1024.047	306.17
1024.404	233.61
1024.76	327.24
1025.116	259.36
1025.472	364.68
1025.827	336.6
1026.183	362.34
1026.539	287.45
1026.895	299.15
1027.25	343.62
1027.606	203.19
1027.961	303.83
1028.317	252.34
1028.672	273.4
1029.028	308.51
1029.383	308.51
1029.738	252.34
1030.093	259.36
1030.448	385.75
1030.803	324.9
1031.158	235.96
1031.513	189.14
1031.868	327.24
1032.223	273.4
1032.577	285.11
1032.932	357.66
1033.287	338.94
1033.641	273.4
1033.996	292.13
1034.35	313.19
1034.704	264.04
1035.059	282.77
1035.413	264.04
1035.767	264.04
1036.121	264.04
