Data from Al_FLMS009871__781__15-21-47-014.txt Node

Date: Fri Mar 08 15:21:47 CST 2024
User: pe5414po
Spectrometer: FLMS00987
Trigger mode: 0
Integration Time (sec): 1.000000E-1
Scans to average: 1
Electric dark correction enabled: true
Nonlinearity correction enabled: false
Boxcar width: 0
XAxis mode: Wavelengths
Number of Pixels in Spectrum: 2048
>>>>>Begin Spectral Data<<<<<
188.938	-58.66
189.409	-58.66
189.879	-58.66
190.349	-96.11
190.819	-163.98
191.29	-93.77
191.76	-39.94
192.23	-89.09
192.7	-93.77
193.17	-119.51
193.64	-14.19
194.109	-23.55
194.579	-16.53
195.049	9.22
195.519	16.24
195.988	63.05
196.458	67.73
196.927	20.92
197.397	65.39
197.866	98.16
198.336	149.65
198.805	161.35
199.274	109.86
199.744	130.92
200.213	194.12
200.682	168.37
201.151	222.2
201.62	327.53
202.089	271.36
202.558	261.99
203.027	261.99
203.495	182.42
203.964	205.82
204.433	201.14
204.902	243.27
205.37	266.67
205.839	311.14
206.307	247.95
206.776	264.33
207.244	304.12
207.712	343.91
208.181	269.02
208.649	292.42
209.117	245.61
209.585	273.7
210.053	280.72
210.521	266.67
210.989	240.93
211.457	306.46
211.925	306.46
212.393	261.99
212.861	297.1
213.328	280.72
213.796	210.5
214.264	233.91
214.731	285.4
215.199	294.76
215.666	229.23
216.133	259.65
216.601	219.86
217.068	287.74
217.535	269.02
218.003	264.33
218.47	360.3
218.937	278.38
219.404	210.5
219.871	266.67
220.338	264.33
220.805	250.29
221.271	238.59
221.738	203.48
222.205	236.25
222.671	250.29
223.138	290.08
223.605	231.57
224.071	257.31
224.538	259.65
225.004	219.86
225.47	233.91
225.937	276.04
226.403	254.97
226.869	196.46
227.335	245.61
227.801	252.63
228.267	212.84
228.733	301.78
229.199	252.63
229.665	278.38
230.131	224.55
230.597	238.59
231.062	273.7
231.528	280.72
231.994	276.04
232.459	238.59
232.925	208.16
233.39	269.02
233.856	294.76
234.321	348.59
234.786	269.02
235.252	208.16
235.717	285.4
236.182	226.89
236.647	212.84
237.112	233.91
237.577	315.83
238.042	301.78
238.507	184.76
238.972	252.63
239.436	299.44
239.901	271.36
240.366	226.89
240.83	257.31
241.295	257.31
241.76	308.8
242.224	243.27
242.688	259.65
243.153	264.33
243.617	208.16
244.081	243.27
244.545	280.72
245.01	299.44
245.474	278.38
245.938	231.57
246.402	294.76
246.866	285.4
247.33	219.86
247.793	285.4
248.257	238.59
248.721	259.65
249.185	259.65
249.648	245.61
250.112	287.74
250.575	245.61
251.039	360.3
251.502	313.49
251.965	339.23
252.429	304.12
252.892	273.7
253.355	273.7
253.818	264.33
254.281	278.38
254.744	245.61
255.207	283.06
255.67	259.65
256.133	240.93
256.596	238.59
257.059	254.97
257.522	217.52
257.984	243.27
258.447	271.36
258.909	283.06
259.372	151.99
259.834	222.2
260.297	346.25
260.759	285.4
261.221	240.93
261.684	301.78
262.146	271.36
262.608	280.72
263.07	325.19
263.532	243.27
263.994	250.29
264.456	285.4
264.918	346.25
265.38	252.63
265.842	318.17
266.303	304.12
266.765	259.65
267.227	276.04
267.688	257.31
268.15	285.4
268.611	236.25
269.072	280.72
269.534	236.25
269.995	315.83
270.456	329.87
270.918	240.93
271.379	280.72
271.84	245.61
272.301	304.12
272.762	222.2
273.223	285.4
273.684	261.99
274.144	315.83
274.605	301.78
275.066	299.44
275.527	259.65
275.987	173.05
276.448	229.23
276.908	306.46
277.369	257.31
277.829	271.36
278.289	264.33
278.75	287.74
279.21	257.31
279.67	306.46
280.13	285.4
280.59	311.14
281.05	210.5
281.51	259.65
281.97	243.27
282.43	292.42
282.89	362.64
283.35	250.29
283.809	266.67
284.269	252.63
284.729	297.1
285.188	346.25
285.648	261.99
286.107	315.83
286.567	229.23
287.026	233.91
287.485	290.08
287.944	238.59
288.404	285.4
288.863	320.51
289.322	294.76
289.781	219.86
290.24	292.42
290.699	259.65
291.158	254.97
291.616	301.78
292.075	339.23
292.534	334.55
292.992	308.8
293.451	343.91
293.91	269.02
294.368	325.19
294.827	290.08
295.285	238.59
295.743	318.17
296.202	243.27
296.66	247.95
297.118	327.53
297.576	287.74
298.034	252.63
298.492	313.49
298.95	283.06
299.408	327.53
299.866	327.53
300.324	318.17
300.781	339.23
301.239	269.02
301.697	280.72
302.154	247.95
302.612	332.21
303.069	264.33
303.527	276.04
303.984	215.18
304.441	306.46
304.899	269.02
305.356	348.59
305.813	287.74
306.27	374.34
306.727	299.44
307.184	318.17
307.641	297.1
308.098	294.76
308.555	294.76
309.012	294.76
309.468	327.53
309.925	285.4
310.382	254.97
310.838	311.14
311.295	287.74
311.751	299.44
312.208	306.46
312.664	283.06
313.12	367.32
313.577	215.18
314.033	266.67
314.489	276.04
314.945	264.33
315.401	320.51
315.857	336.89
316.313	250.29
316.769	329.87
317.225	278.38
317.681	306.46
318.136	276.04
318.592	304.12
319.048	311.14
319.503	276.04
319.959	299.44
320.414	259.65
320.869	283.06
321.325	283.06
321.78	264.33
322.235	369.66
322.691	360.3
323.146	217.52
323.601	269.02
324.056	269.02
324.511	353.27
324.966	320.51
325.421	297.1
325.875	304.12
326.33	313.49
326.785	308.8
327.24	287.74
327.694	252.63
328.149	184.76
328.603	292.42
329.058	210.5
329.512	280.72
329.966	341.57
330.421	257.31
330.875	269.02
331.329	264.33
331.783	304.12
332.237	315.83
332.691	278.38
333.145	290.08
333.599	301.78
334.053	283.06
334.507	294.76
334.96	276.04
335.414	280.72
335.868	320.51
336.321	315.83
336.775	325.19
337.228	245.61
337.682	304.12
338.135	306.46
338.588	313.49
339.042	304.12
339.495	269.02
339.948	278.38
340.401	346.25
340.854	259.65
341.307	334.55
341.76	299.44
342.213	243.27
342.666	285.4
343.119	257.31
343.571	350.93
344.024	276.04
344.477	313.49
344.929	259.65
345.382	311.14
345.834	315.83
346.287	311.14
346.739	287.74
347.191	299.44
347.644	292.42
348.096	346.25
348.548	315.83
349	290.08
349.452	336.89
349.904	254.97
350.356	322.85
350.808	355.62
351.26	261.99
351.711	402.43
352.163	325.19
352.615	320.51
353.066	276.04
353.518	304.12
353.969	318.17
354.421	261.99
354.872	264.33
355.324	381.36
355.775	311.14
356.226	294.76
356.677	360.3
357.128	343.91
357.579	290.08
358.03	231.57
358.481	315.83
358.932	301.78
359.383	271.36
359.834	285.4
360.285	257.31
360.735	308.8
361.186	329.87
361.637	341.57
362.087	306.46
362.538	283.06
362.988	341.57
363.438	339.23
363.889	273.7
364.339	294.76
364.789	297.1
365.239	334.55
365.689	357.96
366.139	325.19
366.589	292.42
367.039	276.04
367.489	276.04
367.939	348.59
368.389	280.72
368.839	283.06
369.288	269.02
369.738	367.32
370.187	297.1
370.637	299.44
371.086	334.55
371.536	318.17
371.985	287.74
372.434	308.8
372.884	308.8
373.333	313.49
373.782	327.53
374.231	290.08
374.68	304.12
375.129	332.21
375.578	269.02
376.027	290.08
376.475	247.95
376.924	343.91
377.373	320.51
377.822	346.25
378.27	332.21
378.719	259.65
379.167	285.4
379.616	348.59
380.064	322.85
380.512	353.27
380.961	276.04
381.409	287.74
381.857	306.46
382.305	325.19
382.753	280.72
383.201	320.51
383.649	308.8
384.097	290.08
384.545	318.17
384.992	304.12
385.44	315.83
385.888	388.38
386.335	336.89
386.783	336.89
387.231	292.42
387.678	276.04
388.125	339.23
388.573	341.57
389.02	294.76
389.467	250.29
389.914	273.7
390.362	283.06
390.809	269.02
391.256	329.87
391.703	355.62
392.15	236.25
392.596	278.38
393.043	285.4
393.49	315.83
393.937	299.44
394.383	367.32
394.83	322.85
395.276	315.83
395.723	313.49
396.169	219.86
396.616	334.55
397.062	297.1
397.508	322.85
397.954	283.06
398.401	334.55
398.847	252.63
399.293	304.12
399.739	306.46
400.185	306.46
400.631	252.63
401.076	280.72
401.522	264.33
401.968	341.57
402.414	294.76
402.859	322.85
403.305	322.85
403.75	325.19
404.196	306.46
404.641	301.78
405.086	372
405.532	259.65
405.977	233.91
406.422	290.08
406.867	329.87
407.312	308.8
407.757	313.49
408.202	280.72
408.647	304.12
409.092	325.19
409.537	299.44
409.982	381.36
410.426	360.3
410.871	315.83
411.316	322.85
411.76	294.76
412.205	322.85
412.649	297.1
413.093	374.34
413.538	329.87
413.982	264.33
414.426	269.02
414.87	299.44
415.314	355.62
415.758	283.06
416.202	315.83
416.646	304.12
417.09	308.8
417.534	229.23
417.978	329.87
418.421	304.12
418.865	236.25
419.309	308.8
419.752	273.7
420.196	292.42
420.639	297.1
421.083	273.7
421.526	299.44
421.969	339.23
422.412	273.7
422.856	294.76
423.299	315.83
423.742	276.04
424.185	278.38
424.628	292.42
425.071	339.23
425.513	379.02
425.956	287.74
426.399	332.21
426.842	245.61
427.284	292.42
427.727	287.74
428.169	379.02
428.612	306.46
429.054	320.51
429.497	287.74
429.939	346.25
430.381	297.1
430.823	336.89
431.265	329.87
431.707	294.76
432.149	252.63
432.591	313.49
433.033	294.76
433.475	306.46
433.917	273.7
434.359	322.85
434.8	278.38
435.242	273.7
435.684	294.76
436.125	278.38
436.567	353.27
437.008	304.12
437.449	236.25
437.891	381.36
438.332	341.57
438.773	313.49
439.214	320.51
439.656	278.38
440.097	266.67
440.538	297.1
440.978	311.14
441.419	292.42
441.86	224.55
442.301	287.74
442.742	346.25
443.182	343.91
443.623	362.64
444.063	308.8
444.504	327.53
444.944	318.17
445.385	318.17
445.825	290.08
446.265	322.85
446.706	243.27
447.146	238.59
447.586	308.8
448.026	346.25
448.466	278.38
448.906	341.57
449.346	283.06
449.786	280.72
450.225	304.12
450.665	285.4
451.105	334.55
451.544	325.19
451.984	294.76
452.424	283.06
452.863	306.46
453.302	308.8
453.742	308.8
454.181	315.83
454.62	325.19
455.059	290.08
455.499	290.08
455.938	294.76
456.377	364.98
456.816	360.3
457.254	294.76
457.693	280.72
458.132	329.87
458.571	238.59
459.01	320.51
459.448	287.74
459.887	336.89
460.325	353.27
460.764	306.46
461.202	367.32
461.641	346.25
462.079	332.21
462.517	364.98
462.955	350.93
463.393	320.51
463.832	355.62
464.27	297.1
464.708	308.8
465.145	315.83
465.583	339.23
466.021	290.08
466.459	313.49
466.897	243.27
467.334	308.8
467.772	306.46
468.209	271.36
468.647	329.87
469.084	285.4
469.522	257.31
469.959	313.49
470.396	308.8
470.833	283.06
471.271	353.27
471.708	311.14
472.145	357.96
472.582	238.59
473.019	306.46
473.456	336.89
473.892	311.14
474.329	311.14
474.766	334.55
475.202	322.85
475.639	355.62
476.076	357.96
476.512	329.87
476.949	299.44
477.385	311.14
477.821	280.72
478.258	254.97
478.694	254.97
479.13	341.57
479.566	372
480.002	360.3
480.438	325.19
480.874	292.42
481.31	292.42
481.746	308.8
482.181	311.14
482.617	294.76
483.053	329.87
483.488	343.91
483.924	313.49
484.36	315.83
484.795	287.74
485.23	311.14
485.666	294.76
486.101	325.19
486.536	308.8
486.971	290.08
487.407	254.97
487.842	283.06
488.277	318.17
488.712	304.12
489.146	313.49
489.581	269.02
490.016	320.51
490.451	332.21
490.885	315.83
491.32	334.55
491.755	374.34
492.189	287.74
492.624	320.51
493.058	285.4
493.492	355.62
493.927	238.59
494.361	261.99
494.795	306.46
495.229	329.87
495.663	290.08
496.097	339.23
496.531	266.67
496.965	360.3
497.399	236.25
497.833	318.17
498.266	269.02
498.7	297.1
499.134	287.74
499.567	287.74
500.001	299.44
500.434	327.53
500.868	341.57
501.301	238.59
501.734	308.8
502.168	369.66
502.601	332.21
503.034	315.83
503.467	287.74
503.9	369.66
504.333	334.55
504.766	250.29
505.199	318.17
505.632	313.49
506.064	297.1
506.497	257.31
506.93	261.99
507.362	294.76
507.795	329.87
508.227	294.76
508.66	306.46
509.092	233.91
509.524	297.1
509.956	315.83
510.389	292.42
510.821	332.21
511.253	318.17
511.685	271.36
512.117	290.08
512.549	306.46
512.981	273.7
513.412	383.7
513.844	252.63
514.276	252.63
514.707	304.12
515.139	245.61
515.571	327.53
516.002	294.76
516.433	341.57
516.865	320.51
517.296	250.29
517.727	266.67
518.159	320.51
518.59	357.96
519.021	292.42
519.452	336.89
519.883	339.23
520.314	311.14
520.744	372
521.175	357.96
521.606	304.12
522.037	297.1
522.467	329.87
522.898	308.8
523.328	315.83
523.759	320.51
524.189	313.49
524.62	273.7
525.05	280.72
525.48	308.8
525.91	334.55
526.341	273.7
526.771	264.33
527.201	290.08
527.631	290.08
528.061	360.3
528.49	372
528.92	329.87
529.35	271.36
529.78	364.98
530.209	287.74
530.639	336.89
531.068	315.83
531.498	308.8
531.927	243.27
532.357	294.76
532.786	299.44
533.215	261.99
533.644	285.4
534.074	313.49
534.503	273.7
534.932	266.67
535.361	313.49
535.79	301.78
536.218	254.97
536.647	297.1
537.076	348.59
537.505	343.91
537.933	297.1
538.362	254.97
538.79	332.21
539.219	297.1
539.647	350.93
540.076	318.17
540.504	269.02
540.932	306.46
541.36	318.17
541.788	339.23
542.217	271.36
542.645	336.89
543.073	271.36
543.5	350.93
543.928	245.61
544.356	299.44
544.784	355.62
545.211	318.17
545.639	287.74
546.067	273.7
546.494	299.44
546.922	304.12
547.349	364.98
547.776	290.08
548.204	283.06
548.631	308.8
549.058	325.19
549.485	229.23
549.912	308.8
550.339	320.51
550.766	290.08
551.193	294.76
551.62	343.91
552.047	327.53
552.474	292.42
552.9	219.86
553.327	301.78
553.754	308.8
554.18	304.12
554.607	264.33
555.033	372
555.459	264.33
555.886	336.89
556.312	311.14
556.738	292.42
557.164	290.08
557.59	362.64
558.016	290.08
558.442	259.65
558.868	362.64
559.294	308.8
559.72	369.66
560.145	304.12
560.571	332.21
560.997	285.4
561.422	280.72
561.848	334.55
562.273	329.87
562.699	339.23
563.124	264.33
563.549	308.8
563.974	336.89
564.4	362.64
564.825	343.91
565.25	339.23
565.675	360.3
566.1	327.53
566.525	299.44
566.95	341.57
567.374	329.87
567.799	315.83
568.224	308.8
568.648	355.62
569.073	311.14
569.497	264.33
569.922	322.85
570.346	346.25
570.771	294.76
571.195	264.33
571.619	240.93
572.043	301.78
572.467	285.4
572.891	320.51
573.315	376.68
573.739	276.04
574.163	240.93
574.587	301.78
575.011	329.87
575.435	269.02
575.858	301.78
576.282	336.89
576.705	339.23
577.129	325.19
577.552	294.76
577.976	301.78
578.399	219.86
578.822	311.14
579.245	276.04
579.669	283.06
580.092	315.83
580.515	315.83
580.938	334.55
581.361	287.74
581.784	306.46
582.206	322.85
582.629	261.99
583.052	261.99
583.474	322.85
583.897	327.53
584.32	325.19
584.742	327.53
585.165	308.8
585.587	301.78
586.009	313.49
586.431	332.21
586.854	313.49
587.276	280.72
587.698	273.7
588.12	409.45
588.542	278.38
588.964	334.55
589.386	285.4
589.807	245.61
590.229	257.31
590.651	280.72
591.073	299.44
591.494	329.87
591.916	315.83
592.337	287.74
592.759	261.99
593.18	308.8
593.601	287.74
594.022	332.21
594.444	308.8
594.865	332.21
595.286	285.4
595.707	322.85
596.128	297.1
596.549	294.76
596.97	306.46
597.39	311.14
597.811	297.1
598.232	350.93
598.652	311.14
599.073	350.93
599.494	254.97
599.914	350.93
600.334	264.33
600.755	278.38
601.175	250.29
601.595	287.74
602.015	339.23
602.436	287.74
602.856	421.15
603.276	304.12
603.696	271.36
604.115	283.06
604.535	308.8
604.955	294.76
605.375	283.06
605.794	374.34
606.214	264.33
606.634	388.38
607.053	320.51
607.473	283.06
607.892	280.72
608.311	292.42
608.731	297.1
609.15	287.74
609.569	353.27
609.988	341.57
610.407	357.96
610.826	313.49
611.245	322.85
611.664	271.36
612.083	325.19
612.501	231.57
612.92	297.1
613.339	320.51
613.757	322.85
614.176	285.4
614.594	402.43
615.013	308.8
615.431	287.74
615.85	325.19
616.268	301.78
616.686	364.98
617.104	304.12
617.522	393.06
617.94	322.85
618.358	287.74
618.776	350.93
619.194	236.25
619.612	341.57
620.03	283.06
620.447	243.27
620.865	273.7
621.282	301.78
621.7	301.78
622.117	325.19
622.535	266.67
622.952	329.87
623.369	329.87
623.787	292.42
624.204	294.76
624.621	348.59
625.038	297.1
625.455	320.51
625.872	297.1
626.289	254.97
626.706	339.23
627.123	294.76
627.539	348.59
627.956	313.49
628.373	297.1
628.789	283.06
629.206	372
629.622	273.7
630.038	287.74
630.455	308.8
630.871	292.42
631.287	276.04
631.703	297.1
632.12	318.17
632.536	285.4
632.952	278.38
633.368	269.02
633.783	327.53
634.199	294.76
634.615	269.02
635.031	313.49
635.446	257.31
635.862	308.8
636.277	348.59
636.693	261.99
637.108	306.46
637.524	264.33
637.939	271.36
638.354	301.78
638.77	266.67
639.185	257.31
639.6	315.83
640.015	318.17
640.43	367.32
640.845	278.38
641.259	273.7
641.674	299.44
642.089	290.08
642.504	269.02
642.918	247.95
643.333	217.52
643.747	383.7
644.162	247.95
644.576	252.63
644.991	259.65
645.405	334.55
645.819	276.04
646.233	306.46
646.647	346.25
647.061	318.17
647.475	350.93
647.889	343.91
648.303	285.4
648.717	332.21
649.131	276.04
649.545	306.46
649.958	290.08
650.372	283.06
650.785	264.33
651.199	334.55
651.612	294.76
652.026	341.57
652.439	301.78
652.852	297.1
653.266	308.8
653.679	292.42
654.092	297.1
654.505	339.23
654.918	322.85
655.331	374.34
655.744	297.1
656.156	276.04
656.569	320.51
656.982	325.19
657.394	313.49
657.807	374.34
658.22	264.33
658.632	311.14
659.044	322.85
659.457	278.38
659.869	266.67
660.281	306.46
660.693	278.38
661.106	259.65
661.518	285.4
661.93	264.33
662.342	276.04
662.754	336.89
663.165	346.25
663.577	283.06
663.989	278.38
664.401	269.02
664.812	276.04
665.224	290.08
665.635	283.06
666.047	346.25
666.458	336.89
666.869	208.16
667.281	294.76
667.692	259.65
668.103	266.67
668.514	276.04
668.925	334.55
669.336	357.96
669.747	271.36
670.158	301.78
670.569	329.87
670.979	285.4
671.39	386.04
671.801	313.49
672.211	329.87
672.622	297.1
673.032	353.27
673.443	315.83
673.853	306.46
674.263	297.1
674.674	238.59
675.084	266.67
675.494	327.53
675.904	233.91
676.314	322.85
676.724	278.38
677.134	250.29
677.544	346.25
677.953	374.34
678.363	325.19
678.773	397.74
679.182	294.76
679.592	299.44
680.001	304.12
680.411	290.08
680.82	353.27
681.23	269.02
681.639	304.12
682.048	357.96
682.457	360.3
682.866	336.89
683.275	290.08
683.684	264.33
684.093	301.78
684.502	315.83
684.911	332.21
685.32	364.98
685.728	250.29
686.137	259.65
686.546	294.76
686.954	306.46
687.363	318.17
687.771	322.85
688.179	276.04
688.588	343.91
688.996	318.17
689.404	313.49
689.812	362.64
690.22	273.7
690.628	332.21
691.036	313.49
691.444	301.78
691.852	313.49
692.26	376.68
692.667	306.46
693.075	311.14
693.483	306.46
693.89	325.19
694.298	320.51
694.705	290.08
695.112	273.7
695.52	285.4
695.927	261.99
696.334	315.83
696.741	290.08
697.148	245.61
697.555	315.83
697.962	247.95
698.369	346.25
698.776	327.53
699.183	339.23
699.59	308.8
699.996	226.89
700.403	308.8
700.81	280.72
701.216	334.55
701.623	341.57
702.029	297.1
702.435	276.04
702.842	318.17
703.248	364.98
703.654	372
704.06	313.49
704.466	259.65
704.872	318.17
705.278	285.4
705.684	304.12
706.09	245.61
706.496	308.8
706.901	322.85
707.307	320.51
707.712	269.02
708.118	325.19
708.523	243.27
708.929	329.87
709.334	301.78
709.74	280.72
710.145	360.3
710.55	276.04
710.955	315.83
711.36	301.78
711.765	313.49
712.17	343.91
712.575	339.23
712.98	819.04
713.385	325.19
713.789	315.83
714.194	280.72
714.599	329.87
715.003	245.61
715.408	257.31
715.812	243.27
716.217	336.89
716.621	315.83
717.025	311.14
717.429	254.97
717.833	294.76
718.238	276.04
718.642	261.99
719.046	325.19
719.449	372
719.853	353.27
720.257	325.19
720.661	290.08
721.065	280.72
721.468	308.8
721.872	318.17
722.275	336.89
722.679	294.76
723.082	313.49
723.485	313.49
723.889	276.04
724.292	266.67
724.695	357.96
725.098	301.78
725.501	264.33
725.904	329.87
726.307	348.59
726.71	292.42
727.113	372
727.516	292.42
727.918	311.14
728.321	273.7
728.724	315.83
729.126	252.63
729.529	287.74
729.931	343.91
730.333	287.74
730.736	271.36
731.138	280.72
731.54	313.49
731.942	350.93
732.344	294.76
732.746	252.63
733.148	346.25
733.55	334.55
733.952	343.91
734.354	287.74
734.756	261.99
735.157	233.91
735.559	261.99
735.96	266.67
736.362	252.63
736.763	261.99
737.165	304.12
737.566	350.93
737.967	301.78
738.368	388.38
738.77	318.17
739.171	259.65
739.572	334.55
739.973	306.46
740.374	264.33
740.774	219.86
741.175	304.12
741.576	294.76
741.977	332.21
742.377	301.78
742.778	269.02
743.178	297.1
743.579	334.55
743.979	297.1
744.379	287.74
744.78	388.38
745.18	308.8
745.58	308.8
745.98	271.36
746.38	322.85
746.78	329.87
747.18	252.63
747.58	313.49
747.98	322.85
748.38	395.4
748.779	240.93
749.179	229.23
749.578	348.59
749.978	254.97
750.377	362.64
750.777	280.72
751.176	334.55
751.575	264.33
751.975	311.14
752.374	332.21
752.773	346.25
753.172	308.8
753.571	245.61
753.97	269.02
754.369	306.46
754.768	304.12
755.166	332.21
755.565	339.23
755.964	261.99
756.362	290.08
756.761	259.65
757.159	292.42
757.558	320.51
757.956	364.98
758.354	308.8
758.753	266.67
759.151	264.33
759.549	254.97
759.947	276.04
760.345	322.85
760.743	273.7
761.141	283.06
761.539	311.14
761.936	264.33
762.334	297.1
762.732	287.74
763.129	334.55
763.527	250.29
763.924	264.33
764.322	238.59
764.719	294.76
765.117	276.04
765.514	313.49
765.911	180.07
766.308	301.78
766.705	212.84
767.102	264.33
767.499	250.29
767.896	339.23
768.293	320.51
768.69	271.36
769.086	372
769.483	336.89
769.88	297.1
770.276	203.48
770.673	336.89
771.069	276.04
771.466	304.12
771.862	304.12
772.258	336.89
772.654	360.3
773.05	348.59
773.447	264.33
773.843	306.46
774.239	308.8
774.634	297.1
775.03	325.19
775.426	320.51
775.822	346.25
776.218	379.02
776.613	360.3
777.009	318.17
777.404	325.19
777.8	341.57
778.195	357.96
778.59	325.19
778.986	243.27
779.381	243.27
779.776	292.42
780.171	264.33
780.566	285.4
780.961	276.04
781.356	364.98
781.751	278.38
782.146	254.97
782.54	264.33
782.935	301.78
783.33	332.21
783.724	318.17
784.119	329.87
784.513	297.1
784.908	348.59
785.302	315.83
785.696	271.36
786.09	292.42
786.485	308.8
786.879	320.51
787.273	327.53
787.667	350.93
788.061	367.32
788.454	294.76
788.848	311.14
789.242	360.3
789.636	315.83
790.029	264.33
790.423	273.7
790.816	231.57
791.21	292.42
791.603	257.31
791.997	259.65
792.39	320.51
792.783	299.44
793.176	264.33
793.569	320.51
793.962	247.95
794.355	287.74
794.748	346.25
795.141	353.27
795.534	292.42
795.927	320.51
796.319	313.49
796.712	261.99
797.105	369.66
797.497	278.38
797.89	325.19
798.282	283.06
798.674	383.7
799.067	325.19
799.459	271.36
799.851	327.53
800.243	306.46
800.635	271.36
801.027	336.89
801.419	332.21
801.811	294.76
802.203	318.17
802.594	322.85
802.986	276.04
803.378	301.78
803.769	245.61
804.161	276.04
804.552	273.7
804.944	311.14
805.335	367.32
805.726	306.46
806.118	264.33
806.509	240.93
806.9	381.36
807.291	325.19
807.682	336.89
808.073	357.96
808.464	271.36
808.855	299.44
809.245	308.8
809.636	299.44
810.027	292.42
810.417	332.21
810.808	383.7
811.198	308.8
811.589	364.98
811.979	320.51
812.369	278.38
812.759	290.08
813.15	299.44
813.54	243.27
813.93	334.55
814.32	332.21
814.71	346.25
815.1	369.66
815.489	327.53
815.879	294.76
816.269	306.46
816.658	341.57
817.048	297.1
817.438	280.72
817.827	348.59
818.216	271.36
818.606	292.42
818.995	285.4
819.384	327.53
819.773	320.51
820.163	285.4
820.552	311.14
820.941	297.1
821.33	308.8
821.718	292.42
822.107	325.19
822.496	343.91
822.885	341.57
823.273	290.08
823.662	273.7
824.05	266.67
824.439	350.93
824.827	311.14
825.216	247.95
825.604	301.78
825.992	259.65
826.38	325.19
826.768	343.91
827.156	301.78
827.544	297.1
827.932	327.53
828.32	327.53
828.708	290.08
829.096	273.7
829.483	285.4
829.871	247.95
830.259	280.72
830.646	261.99
831.034	334.55
831.421	297.1
831.808	287.74
832.196	313.49
832.583	327.53
832.97	276.04
833.357	290.08
833.744	318.17
834.131	297.1
834.518	276.04
834.905	339.23
835.292	332.21
835.678	332.21
836.065	205.82
836.452	278.38
836.838	254.97
837.225	212.84
837.611	301.78
837.998	294.76
838.384	341.57
838.77	329.87
839.157	322.85
839.543	311.14
839.929	297.1
840.315	306.46
840.701	226.89
841.087	287.74
841.473	320.51
841.858	341.57
842.244	299.44
842.63	301.78
843.015	294.76
843.401	620.1
843.787	292.42
844.172	327.53
844.557	311.14
844.943	339.23
845.328	334.55
845.713	287.74
846.098	313.49
846.483	297.1
846.868	264.33
847.253	336.89
847.638	290.08
848.023	297.1
848.408	304.12
848.793	320.51
849.177	290.08
849.562	215.18
849.947	360.3
850.331	240.93
850.715	297.1
851.1	252.63
851.484	336.89
851.868	254.97
852.253	280.72
852.637	341.57
853.021	308.8
853.405	280.72
853.789	231.57
854.173	294.76
854.557	278.38
854.94	271.36
855.324	285.4
855.708	360.3
856.091	315.83
856.475	341.57
856.858	285.4
857.242	245.61
857.625	287.74
858.009	294.76
858.392	259.65
858.775	259.65
859.158	269.02
859.541	294.76
859.924	325.19
860.307	313.49
860.69	290.08
861.073	313.49
861.456	320.51
861.838	280.72
862.221	320.51
862.604	304.12
862.986	297.1
863.369	287.74
863.751	308.8
864.133	283.06
864.516	353.27
864.898	290.08
865.28	271.36
865.662	322.85
866.044	283.06
866.426	318.17
866.808	322.85
867.19	308.8
867.572	311.14
867.954	283.06
868.336	336.89
868.717	301.78
869.099	350.93
869.48	339.23
869.862	343.91
870.243	271.36
870.625	278.38
871.006	287.74
871.387	315.83
871.768	285.4
872.149	276.04
872.53	360.3
872.911	318.17
873.292	271.36
873.673	339.23
874.054	348.59
874.435	357.96
874.815	308.8
875.196	280.72
875.577	311.14
875.957	311.14
876.338	297.1
876.718	364.98
877.098	271.36
877.479	325.19
877.859	301.78
878.239	341.57
878.619	266.67
878.999	285.4
879.379	355.62
879.759	362.64
880.139	311.14
880.519	329.87
880.898	311.14
881.278	304.12
881.658	294.76
882.037	259.65
882.417	245.61
882.796	273.7
883.176	254.97
883.555	245.61
883.934	364.98
884.313	339.23
884.693	297.1
885.072	283.06
885.451	367.32
885.83	280.72
886.209	329.87
886.587	294.76
886.966	245.61
887.345	297.1
887.724	360.3
888.102	283.06
888.481	278.38
888.859	292.42
889.238	304.12
889.616	287.74
889.994	269.02
890.373	304.12
890.751	315.83
891.129	278.38
891.507	294.76
891.885	327.53
892.263	292.42
892.641	336.89
893.019	341.57
893.396	292.42
893.774	336.89
894.152	334.55
894.529	355.62
894.907	269.02
895.284	311.14
895.662	257.31
896.039	299.44
896.416	318.17
896.794	271.36
897.171	278.38
897.548	212.84
897.925	243.27
898.302	322.85
898.679	299.44
899.056	308.8
899.433	308.8
899.809	280.72
900.186	306.46
900.563	313.49
900.939	294.76
901.316	276.04
901.692	336.89
902.069	261.99
902.445	311.14
902.821	311.14
903.197	343.91
903.574	369.66
903.95	332.21
904.326	306.46
904.702	311.14
905.078	322.85
905.454	287.74
905.829	231.57
906.205	271.36
906.581	301.78
906.956	343.91
907.332	308.8
907.707	276.04
908.083	308.8
908.458	278.38
908.833	294.76
909.209	322.85
909.584	292.42
909.959	313.49
910.334	266.67
910.709	353.27
911.084	236.25
911.459	259.65
911.834	334.55
912.209	306.46
912.583	224.55
912.958	343.91
913.333	280.72
913.707	299.44
914.082	276.04
914.456	266.67
914.83	304.12
915.205	280.72
915.579	308.8
915.953	315.83
916.327	353.27
916.701	297.1
917.075	290.08
917.449	285.4
917.823	304.12
918.197	252.63
918.571	290.08
918.944	266.67
919.318	334.55
919.692	339.23
920.065	290.08
920.438	257.31
920.812	362.64
921.185	336.89
921.558	240.93
921.932	252.63
922.305	329.87
922.678	257.31
923.051	341.57
923.424	313.49
923.797	313.49
924.17	254.97
924.542	269.02
924.915	240.93
925.288	306.46
925.661	273.7
926.033	301.78
926.406	243.27
926.778	257.31
927.15	252.63
927.523	287.74
927.895	264.33
928.267	332.21
928.639	292.42
929.011	294.76
929.383	327.53
929.755	273.7
930.127	240.93
930.499	264.33
930.871	264.33
931.242	379.02
931.614	269.02
931.986	299.44
932.357	287.74
932.729	301.78
933.1	311.14
933.471	313.49
933.843	247.95
934.214	313.49
934.585	372
934.956	306.46
935.327	283.06
935.698	334.55
936.069	306.46
936.44	379.02
936.811	332.21
937.182	362.64
937.552	294.76
937.923	261.99
938.293	301.78
938.664	311.14
939.034	252.63
939.405	292.42
939.775	341.57
940.145	311.14
940.516	245.61
940.886	304.12
941.256	292.42
941.626	357.96
941.996	306.46
942.366	222.2
942.735	292.42
943.105	311.14
943.475	287.74
943.845	299.44
944.214	271.36
944.584	259.65
944.953	301.78
945.323	271.36
945.692	290.08
946.061	304.12
946.43	304.12
946.8	343.91
947.169	336.89
947.538	346.25
947.907	297.1
948.276	311.14
948.645	336.89
949.013	318.17
949.382	243.27
949.751	299.44
950.119	283.06
950.488	294.76
950.857	261.99
951.225	304.12
951.593	299.44
951.962	301.78
952.33	189.44
952.698	308.8
953.066	292.42
953.434	308.8
953.802	306.46
954.17	250.29
954.538	257.31
954.906	353.27
955.274	238.59
955.642	257.31
956.009	299.44
956.377	329.87
956.744	318.17
957.112	315.83
957.479	357.96
957.847	299.44
958.214	264.33
958.581	341.57
958.948	308.8
959.315	297.1
959.683	304.12
960.05	329.87
960.416	353.27
960.783	271.36
961.15	355.62
961.517	329.87
961.884	343.91
962.25	266.67
962.617	201.14
962.983	299.44
963.35	339.23
963.716	374.34
964.082	306.46
964.449	334.55
964.815	257.31
965.181	250.29
965.547	280.72
965.913	233.91
966.279	294.76
966.645	306.46
967.011	318.17
967.377	341.57
967.742	280.72
968.108	273.7
968.474	336.89
968.839	332.21
969.205	320.51
969.57	276.04
969.935	306.46
970.301	322.85
970.666	297.1
971.031	222.2
971.396	259.65
971.761	276.04
972.126	287.74
972.491	238.59
972.856	332.21
973.221	327.53
973.586	287.74
973.95	285.4
974.315	320.51
974.679	325.19
975.044	252.63
975.408	243.27
975.773	278.38
976.137	273.7
976.501	341.57
976.866	247.95
977.23	271.36
977.594	257.31
977.958	254.97
978.322	315.83
978.686	320.51
979.049	318.17
979.413	348.59
979.777	311.14
980.141	336.89
980.504	273.7
980.868	261.99
981.231	362.64
981.595	254.97
981.958	290.08
982.321	301.78
982.684	271.36
983.048	294.76
983.411	283.06
983.774	243.27
984.137	339.23
984.5	313.49
984.862	329.87
985.225	329.87
985.588	271.36
985.951	287.74
986.313	297.1
986.676	278.38
987.038	311.14
987.401	247.95
987.763	336.89
988.125	261.99
988.488	233.91
988.85	264.33
989.212	334.55
989.574	336.89
989.936	299.44
990.298	266.67
990.66	367.32
991.022	294.76
991.383	299.44
991.745	290.08
992.107	343.91
992.468	334.55
992.83	329.87
993.191	318.17
993.553	285.4
993.914	322.85
994.275	266.67
994.637	287.74
994.998	313.49
995.359	292.42
995.72	306.46
996.081	348.59
996.442	285.4
996.803	329.87
997.163	269.02
997.524	271.36
997.885	339.23
998.245	367.32
998.606	273.7
998.966	304.12
999.327	304.12
999.687	311.14
1000.047	311.14
1000.408	315.83
1000.768	311.14
1001.128	325.19
1001.488	376.68
1001.848	259.65
1002.208	313.49
1002.568	283.06
1002.927	290.08
1003.287	297.1
1003.647	318.17
1004.007	287.74
1004.366	259.65
1004.726	238.59
1005.085	304.12
1005.444	332.21
1005.804	327.53
1006.163	294.76
1006.522	311.14
1006.881	325.19
1007.24	269.02
1007.599	308.8
1007.958	297.1
1008.317	329.87
1008.676	308.8
1009.035	257.31
1009.393	350.93
1009.752	360.3
1010.111	311.14
1010.469	271.36
1010.828	259.65
1011.186	292.42
1011.544	292.42
1011.903	315.83
1012.261	308.8
1012.619	322.85
1012.977	264.33
1013.335	301.78
1013.693	257.31
1014.051	280.72
1014.409	325.19
1014.767	362.64
1015.124	339.23
1015.482	404.77
1015.84	177.73
1016.197	304.12
1016.555	290.08
1016.912	357.96
1017.269	259.65
1017.627	341.57
1017.984	297.1
1018.341	229.23
1018.698	301.78
1019.055	364.98
1019.412	301.78
1019.769	364.98
1020.126	311.14
1020.483	278.38
1020.84	407.11
1021.196	301.78
1021.553	336.89
1021.909	217.52
1022.266	247.95
1022.622	283.06
1022.979	301.78
1023.335	332.21
1023.691	278.38
1024.047	306.46
1024.404	348.59
1024.76	292.42
1025.116	217.52
1025.472	313.49
1025.827	313.49
1026.183	226.89
1026.539	240.93
1026.895	269.02
1027.25	297.1
1027.606	292.42
1027.961	301.78
1028.317	304.12
1028.672	313.49
1029.028	318.17
1029.383	240.93
1029.738	250.29
1030.093	306.46
1030.448	329.87
1030.803	308.8
1031.158	308.8
1031.513	276.04
1031.868	285.4
1032.223	278.38
1032.577	294.76
1032.932	304.12
1033.287	306.46
1033.641	306.46
1033.996	336.89
1034.35	339.23
1034.704	329.87
1035.059	294.76
1035.413	322.85
1035.767	322.85
1036.121	322.85
