Data from Al_FLMS009871__787__15-21-47-614.txt Node

Date: Fri Mar 08 15:21:47 CST 2024
User: pe5414po
Spectrometer: FLMS00987
Trigger mode: 0
Integration Time (sec): 1.000000E-1
Scans to average: 1
Electric dark correction enabled: true
Nonlinearity correction enabled: false
Boxcar width: 0
XAxis mode: Wavelengths
Number of Pixels in Spectrum: 2048
>>>>>Begin Spectral Data<<<<<
188.938	-94.79
189.409	-94.79
189.879	-94.79
190.349	-132.24
190.819	-115.86
191.29	-87.77
191.76	-132.24
192.23	-76.07
192.7	-78.41
193.17	-50.32
193.64	-73.73
194.109	-55
194.579	-45.64
195.049	57.34
195.519	108.83
195.988	-10.53
196.458	50.32
196.927	31.6
197.397	97.13
197.866	132.24
198.336	132.24
198.805	148.62
199.274	157.99
199.744	172.03
200.213	279.69
200.682	162.67
201.151	286.72
201.62	296.08
202.089	265.65
202.558	319.48
203.027	321.82
203.495	319.48
203.964	324.16
204.433	382.68
204.902	326.5
205.37	396.72
205.839	317.14
206.307	324.16
206.776	385.02
207.244	399.06
207.712	382.68
208.181	441.19
208.649	422.47
209.117	410.76
209.585	389.7
210.053	525.45
210.521	546.52
210.989	485.66
211.457	605.03
211.925	600.35
212.393	593.33
212.861	663.54
213.328	661.2
213.796	628.43
214.264	738.44
214.731	757.16
215.199	801.63
215.666	904.62
216.133	958.45
216.601	1040.37
217.068	1133.99
217.535	1311.87
218.003	1442.94
218.47	1426.56
218.937	1459.32
219.404	1445.28
219.871	1515.5
220.338	1529.54
220.805	1646.57
221.271	1714.44
221.738	1824.45
222.205	1751.89
222.671	1908.71
223.138	2023.39
223.605	1992.97
224.071	1901.69
224.538	1885.3
225.004	2098.29
225.47	2095.95
225.937	2117.01
226.403	2002.33
226.869	1833.81
227.335	1833.81
227.801	1798.7
228.267	1857.22
228.733	1808.06
229.199	1925.09
229.665	2145.1
230.131	2236.38
230.597	2320.64
231.062	2358.09
231.528	2168.51
231.994	2077.23
232.459	1971.9
232.925	2037.44
233.39	2084.25
233.856	2262.13
234.321	2599.16
234.786	3221.75
235.252	4143.92
235.717	5033.32
236.182	5328.23
236.647	4602.66
237.112	3598.57
237.577	2767.68
238.042	2411.92
238.507	2124.04
238.972	2009.35
239.436	1889.98
239.901	1892.32
240.366	1887.64
240.83	1761.25
241.295	1887.64
241.76	1826.79
242.224	1904.03
242.688	2032.76
243.153	1857.22
243.617	1845.51
244.081	1913.39
244.545	2044.46
245.01	2021.05
245.474	2138.08
245.938	2212.98
246.402	2035.1
246.866	1988.29
247.33	1999.99
247.793	1852.53
248.257	1829.13
248.721	1899.34
249.185	1941.47
249.648	1882.96
250.112	1915.73
250.575	1922.75
251.039	1906.37
251.502	1983.6
251.965	2049.14
252.429	1985.94
252.892	2058.5
253.355	1976.58
253.818	2042.12
254.281	2276.17
254.744	2390.86
255.207	2748.96
255.67	3364.52
256.133	3982.42
256.596	4483.3
257.059	4076.04
257.522	3694.54
257.984	2854.28
258.447	2784.07
258.909	2725.55
259.372	2695.13
259.834	2641.29
260.297	2603.85
260.759	2615.55
261.221	2816.83
261.684	3240.47
262.146	3940.29
262.608	4033.91
263.07	3888.8
263.532	3198.34
263.994	3261.54
264.456	3273.24
264.918	3240.47
265.38	3153.87
265.842	2903.43
266.303	2643.64
266.765	2154.46
267.227	2025.73
267.688	2037.44
268.15	1988.29
268.611	1960.2
269.072	2021.05
269.534	2053.82
269.995	1985.94
270.456	1997.65
270.918	1889.98
271.379	1822.11
271.84	1875.94
272.301	1927.43
272.762	1894.66
273.223	1845.51
273.684	1929.77
274.144	1974.24
274.605	1962.54
275.066	1964.88
275.527	1927.43
275.987	2180.21
276.448	2585.12
276.908	3039.19
277.369	3680.49
277.829	5623.14
278.289	9082.45
278.75	12164.93
279.21	13566.92
279.67	11088.29
280.13	8389.65
280.59	6496.16
281.05	5831.44
281.51	5101.2
281.97	3813.9
282.43	2887.05
282.89	2496.18
283.35	2304.26
283.809	2477.46
284.269	2770.02
284.729	2882.37
285.188	2542.99
285.648	2044.46
286.107	1808.06
286.567	1868.92
287.026	1864.24
287.485	1794.02
287.944	1852.53
288.404	1749.55
288.863	1733.17
289.322	1796.36
289.781	1714.44
290.24	1742.53
290.699	1822.11
291.158	1936.79
291.616	2009.35
292.075	2311.28
292.534	2479.8
292.992	2809.81
293.451	2547.67
293.91	2224.68
294.368	1985.94
294.827	1887.64
295.285	1716.78
295.743	1702.74
296.202	1634.86
296.66	1651.25
297.118	1555.29
297.576	1590.39
298.034	1536.56
298.492	1625.5
298.95	1571.67
299.408	1576.35
299.866	1644.23
300.324	1613.8
300.781	1686.36
301.239	1709.76
301.697	1740.19
302.154	1789.34
302.612	1875.94
303.069	2058.5
303.527	2271.49
303.984	2463.41
304.441	3055.57
304.899	3687.51
305.356	4237.54
305.813	4143.92
306.27	4019.87
306.727	4413.08
307.184	5510.79
307.641	7369.18
308.098	8867.12
308.555	9735.46
309.012	9047.34
309.468	7275.56
309.925	4946.72
310.382	3378.56
310.838	2753.64
311.295	2306.6
311.751	2095.95
312.208	2025.73
312.664	1934.45
313.12	1791.68
313.577	1721.46
314.033	1705.08
314.489	1712.1
314.945	1630.18
315.401	1515.5
315.857	1588.05
316.313	1581.03
316.769	1494.43
317.225	1370.38
317.681	1471.03
318.136	1386.77
318.592	1386.77
319.048	1433.58
319.503	1464.01
319.959	1421.88
320.414	1403.15
320.869	1276.76
321.325	1342.3
321.78	1454.64
322.235	1424.22
322.691	1419.53
323.146	1562.31
323.601	1618.48
324.056	1861.9
324.511	2002.33
324.966	2074.88
325.421	1775.3
325.875	1527.2
326.33	1531.88
326.785	1864.24
327.24	1971.9
327.694	1784.66
328.149	1431.24
328.603	1377.41
329.058	1389.11
329.512	1424.22
329.966	1456.98
330.421	1354
330.875	1361.02
331.329	1412.51
331.783	1393.79
332.237	1536.56
332.691	1531.88
333.145	1599.76
333.599	1541.24
334.053	1564.65
334.507	1566.99
334.96	1611.46
335.414	1564.65
335.868	1419.53
336.321	1548.26
336.775	1506.13
337.228	1421.88
337.682	1510.82
338.135	1428.9
338.588	1515.5
339.042	1428.9
339.495	1354
339.948	1440.6
340.401	1354
340.854	1368.04
341.307	1452.3
341.76	1405.49
342.213	1424.22
342.666	1527.2
343.119	1538.9
343.571	1534.22
344.024	1609.12
344.477	1543.58
344.929	1496.77
345.382	1332.94
345.834	1485.07
346.287	1508.48
346.739	1475.71
347.191	1499.11
347.644	1473.37
348.096	1499.11
348.548	1520.18
349	1503.79
349.452	1445.28
349.904	1501.45
350.356	1557.63
350.808	1543.58
351.26	1559.97
351.711	1618.48
352.163	1576.35
352.615	1604.44
353.066	1733.17
353.518	1625.5
353.969	1840.83
354.421	1777.64
354.872	1894.66
355.324	2105.31
355.775	2257.45
356.226	2477.46
356.677	2954.93
357.128	3481.55
357.579	4251.58
358.03	5250.99
358.481	5758.89
358.932	5726.12
359.383	4672.88
359.834	3870.08
360.285	3451.12
360.735	3107.06
361.186	2823.86
361.637	2638.95
362.087	2339.37
362.538	2149.78
362.988	2074.88
363.438	1897
363.889	1691.04
364.339	1709.76
364.789	1644.23
365.239	1620.82
365.689	1625.5
366.139	1522.52
366.589	1499.11
367.039	1503.79
367.489	1496.77
367.939	1536.56
368.389	1428.9
368.839	1393.79
369.288	1410.17
369.738	1396.13
370.187	1426.56
370.637	1400.81
371.086	1438.26
371.536	1452.3
371.985	1510.82
372.434	1529.54
372.884	1508.48
373.333	1517.84
373.782	1464.01
374.231	1379.75
374.68	1520.18
375.129	1412.51
375.578	1389.11
376.027	1389.11
376.475	1351.66
376.924	1417.19
377.373	1349.32
377.822	1342.3
378.27	1314.21
378.719	1417.19
379.167	1403.15
379.616	1403.15
380.064	1403.15
380.512	1435.92
380.961	1487.41
381.409	1499.11
381.857	1606.78
382.305	1840.83
382.753	2100.63
383.201	2425.97
383.649	2559.38
384.097	2322.98
384.545	1929.77
384.992	1712.1
385.44	1632.52
385.888	1538.9
386.335	1496.77
386.783	1482.73
387.231	1461.66
387.678	1435.92
388.125	1501.45
388.573	1527.2
389.02	1459.32
389.467	1440.6
389.914	1524.86
390.362	1487.41
390.809	1548.26
391.256	1494.43
391.703	1597.42
392.15	1751.89
392.596	1864.24
393.043	2030.41
393.49	2674.06
393.937	4214.13
394.383	6248.06
394.83	7310.66
395.276	6442.32
395.723	6329.98
396.169	8036.23
396.616	8523.06
397.062	6133.37
397.508	3753.05
397.954	2755.98
398.401	2297.24
398.847	2049.14
399.293	1992.97
399.739	1953.18
400.185	1810.4
400.631	1758.91
401.076	1620.82
401.522	1611.46
401.968	1630.18
402.414	1590.39
402.859	1602.1
403.305	1768.27
403.75	1857.22
404.196	1655.93
404.641	1620.82
405.086	1566.99
405.532	1489.75
405.977	1552.95
406.422	1442.94
406.867	1604.44
407.312	1515.5
407.757	1595.08
408.202	1583.37
408.647	1538.9
409.092	1534.22
409.537	1466.35
409.982	1552.95
410.426	1389.11
410.871	1421.88
411.316	1386.77
411.76	1400.81
412.205	1335.28
412.649	1426.56
413.093	1297.83
413.538	1309.53
413.982	1325.91
414.426	1400.81
414.87	1435.92
415.314	1419.53
415.758	1325.91
416.202	1265.06
416.646	1330.59
417.09	1426.56
417.534	1349.32
417.978	1302.51
418.421	1365.7
418.865	1337.62
419.309	1356.34
419.752	1431.24
420.196	1375.06
420.639	1368.04
421.083	1354
421.526	1269.74
421.969	1330.59
422.412	1368.04
422.856	1417.19
423.299	1358.68
423.742	1372.72
424.185	1426.56
424.628	1337.62
425.071	1332.94
425.513	1304.85
425.956	1311.87
426.399	1215.91
426.842	1297.83
427.284	1276.76
427.727	1314.21
428.169	1243.99
428.612	1260.38
429.054	1185.48
429.497	1220.59
429.939	1192.5
430.381	1213.57
430.823	1246.34
431.265	1199.52
431.707	1220.59
432.149	1243.99
432.591	1251.02
433.033	1211.23
433.475	1225.27
433.917	1183.14
434.359	1241.65
434.8	1260.38
435.242	1164.42
435.684	1204.21
436.125	1262.72
436.567	1222.93
437.008	1255.7
437.449	1215.91
437.891	1152.71
438.332	1213.57
438.773	1241.65
439.214	1206.55
439.656	1316.55
440.097	1211.23
440.538	1199.52
440.978	1283.78
441.419	1232.29
441.86	1260.38
442.301	1272.08
442.742	1332.94
443.182	1361.02
443.623	1297.83
444.063	1316.55
444.504	1471.03
444.944	1454.64
445.385	1389.11
445.825	1414.85
446.265	1419.53
446.706	1440.6
447.146	1435.92
447.586	1581.03
448.026	1581.03
448.466	1611.46
448.906	1531.88
449.346	1407.83
449.786	1466.35
450.225	1456.98
450.665	1571.67
451.105	1513.16
451.544	1478.05
451.984	1494.43
452.424	1485.07
452.863	1522.52
453.302	1471.03
453.742	1531.88
454.181	1499.11
454.62	1410.17
455.059	1475.71
455.499	1389.11
455.938	1279.1
456.377	1375.06
456.816	1405.49
457.254	1349.32
457.693	1220.59
458.132	1311.87
458.571	1293.15
459.01	1253.36
459.448	1309.53
459.887	1370.38
460.325	1272.08
460.764	1267.4
461.202	1339.96
461.641	1283.78
462.079	1389.11
462.517	1414.85
462.955	1403.15
463.393	1473.37
463.832	1449.96
464.27	1524.86
464.708	1435.92
465.145	1452.3
465.583	1557.63
466.021	1630.18
466.459	1639.55
466.897	1627.84
467.334	1861.9
467.772	1707.42
468.209	1604.44
468.647	1524.86
469.084	1456.98
469.522	1433.58
469.959	1379.75
470.396	1375.06
470.833	1452.3
471.271	1297.83
471.708	1304.85
472.145	1379.75
472.582	1325.91
473.019	1258.04
473.456	1410.17
473.892	1342.3
474.329	1201.87
474.766	1344.64
475.202	1253.36
475.639	1274.42
476.076	1314.21
476.512	1318.89
476.949	1344.64
477.385	1349.32
477.821	1384.43
478.258	1379.75
478.694	1391.45
479.13	1508.48
479.566	1459.32
480.002	1368.04
480.438	1361.02
480.874	1400.81
481.31	1375.06
481.746	1405.49
482.181	1454.64
482.617	1407.83
483.053	1410.17
483.488	1335.28
483.924	1464.01
484.36	1417.19
484.795	1506.13
485.23	1564.65
485.666	1522.52
486.101	1473.37
486.536	1487.41
486.971	1489.75
487.407	1585.71
487.842	1550.6
488.277	1496.77
488.712	1503.79
489.146	1506.13
489.581	1459.32
490.016	1471.03
490.451	1433.58
490.885	1522.52
491.32	1499.11
491.755	1410.17
492.189	1459.32
492.624	1421.88
493.058	1447.62
493.492	1520.18
493.927	1363.36
494.361	1377.41
494.795	1461.66
495.229	1419.53
495.663	1478.05
496.097	1372.72
496.531	1440.6
496.965	1379.75
497.399	1471.03
497.833	1494.43
498.266	1597.42
498.7	1545.92
499.134	1566.99
499.567	1702.74
500.001	1831.47
500.434	1967.22
500.868	2100.63
501.301	2002.33
501.734	1948.5
502.168	1878.28
502.601	1763.59
503.034	1646.57
503.467	1574.01
503.9	1506.13
504.333	1536.56
504.766	1651.25
505.199	1784.66
505.632	1749.55
506.064	1630.18
506.497	1487.41
506.93	1496.77
507.362	1667.63
507.795	1541.24
508.227	1435.92
508.66	1475.71
509.092	1424.22
509.524	1459.32
509.956	1424.22
510.389	1468.69
510.821	1442.94
511.253	1529.54
511.685	1494.43
512.117	1421.88
512.549	1419.53
512.981	1375.06
513.412	1449.96
513.844	1513.16
514.276	1555.29
514.707	1452.3
515.139	1541.24
515.571	1574.01
516.002	1667.63
516.433	1623.16
516.865	1707.42
517.296	1826.79
517.727	2067.86
518.159	2114.67
518.59	2095.95
519.021	2067.86
519.452	2105.31
519.883	1822.11
520.314	1709.76
520.744	1723.8
521.175	1695.72
521.606	1691.04
522.037	1756.57
522.467	1939.13
522.898	1801.04
523.328	1904.03
523.759	1897
524.189	1794.02
524.62	1978.92
525.05	1941.47
525.48	2063.18
525.91	2243.4
526.341	2276.17
526.771	2372.13
527.201	2704.49
527.631	2863.65
528.061	3170.26
528.49	3664.11
528.92	4338.18
529.35	5693.35
529.78	11282.55
530.209	51918.93
530.639	63043.5
531.068	63043.5
531.498	63043.5
531.927	63043.5
532.357	63043.5
532.786	63043.5
533.215	63043.5
533.644	63043.5
534.074	63043.5
534.503	28916.15
534.932	13712.03
535.361	8122.83
535.79	5786.97
536.218	4506.7
536.647	3923.91
537.076	3338.77
537.505	2861.3
537.933	2479.8
538.362	2208.3
538.79	2077.23
539.219	1817.43
539.647	1597.42
540.076	1559.97
540.504	1517.84
540.932	1396.13
541.36	1506.13
541.788	1410.17
542.217	1358.68
542.645	1300.17
543.073	1361.02
543.5	1241.65
543.928	1246.34
544.356	1323.57
544.784	1260.38
545.211	1243.99
545.639	1307.19
546.067	1215.91
546.494	1281.44
546.922	1222.93
547.349	1157.39
547.776	1218.25
548.204	1190.16
548.631	1166.76
549.058	1199.52
549.485	1190.16
549.912	1183.14
550.339	1159.74
550.766	1162.08
551.193	1187.82
551.62	1155.05
552.047	1136.33
552.474	1054.41
552.9	1112.92
553.327	1110.58
553.754	1126.97
554.18	1211.23
554.607	1251.02
555.033	1194.84
555.459	1105.9
555.886	1126.97
556.312	1080.16
556.738	1124.63
557.164	1148.03
557.59	1094.2
558.016	1201.87
558.442	1108.24
558.868	1033.35
559.294	1138.67
559.72	1213.57
560.145	1211.23
560.571	1169.1
560.997	1131.65
561.422	1208.89
561.848	1115.27
562.273	1094.2
562.699	1073.14
563.124	1194.84
563.549	1056.75
563.974	1070.8
564.4	1073.14
564.825	1162.08
565.25	1148.03
565.675	1194.84
566.1	1192.5
566.525	1269.74
566.95	1225.27
567.374	1321.23
567.799	1316.55
568.224	1459.32
568.648	1419.53
569.073	1288.46
569.497	1258.04
569.922	1293.15
570.346	1302.51
570.771	1283.78
571.195	1157.39
571.619	1201.87
572.043	1150.37
572.467	1103.56
572.891	1080.16
573.315	1054.41
573.739	1126.97
574.163	979.51
574.587	988.88
575.011	1033.35
575.435	993.56
575.858	949.09
576.282	956.11
576.705	937.38
577.129	930.36
577.552	939.73
577.976	953.77
578.399	883.55
578.822	897.6
579.245	944.41
579.669	869.51
580.092	881.21
580.515	841.42
580.938	899.94
581.361	942.07
581.784	881.21
582.206	771.21
582.629	843.76
583.052	869.51
583.474	801.63
583.897	827.38
584.32	789.93
584.742	841.42
585.165	829.72
585.587	825.04
586.009	818.02
586.431	799.29
586.854	712.69
587.276	792.27
587.698	789.93
588.12	775.89
588.542	818.02
588.964	775.89
589.386	829.72
589.807	743.12
590.229	801.63
590.651	832.06
591.073	857.81
591.494	796.95
591.916	766.53
592.337	792.27
592.759	820.36
593.18	825.04
593.601	803.97
594.022	834.4
594.444	764.18
594.865	815.68
595.286	841.42
595.707	764.18
596.128	827.38
596.549	792.27
596.97	808.66
597.39	782.91
597.811	782.91
598.232	775.89
598.652	778.23
599.073	743.12
599.494	600.35
599.914	768.87
600.334	782.91
600.755	794.61
601.175	818.02
601.595	780.57
602.015	803.97
602.436	708.01
602.856	946.75
603.276	803.97
603.696	813.34
604.115	754.82
604.535	820.36
604.955	827.38
605.375	731.42
605.794	675.24
606.214	726.74
606.634	764.18
607.053	743.12
607.473	747.8
607.892	869.51
608.311	811
608.731	764.18
609.15	771.21
609.569	839.08
609.988	820.36
610.407	796.95
610.826	839.08
611.245	771.21
611.664	736.1
612.083	834.4
612.501	733.76
612.92	787.59
613.339	832.06
613.757	815.68
614.176	757.16
614.594	832.06
615.013	747.8
615.431	811
615.85	775.89
616.268	722.06
616.686	825.04
617.104	731.42
617.522	726.74
617.94	740.78
618.358	766.53
618.776	780.57
619.194	771.21
619.612	796.95
620.03	752.48
620.447	820.36
620.865	860.15
621.282	860.15
621.7	799.29
622.117	719.71
622.535	857.81
622.952	918.66
623.369	904.62
623.787	1052.07
624.204	1035.69
624.621	1021.64
625.038	1052.07
625.455	1073.14
625.872	1131.65
626.289	1054.41
626.706	981.85
627.123	1033.35
627.539	988.88
627.956	960.79
628.373	974.83
628.789	867.17
629.206	892.91
629.622	876.53
630.038	839.08
630.455	757.16
630.871	820.36
631.287	799.29
631.703	768.87
632.12	768.87
632.536	796.95
632.952	642.48
633.368	682.27
633.783	663.54
634.199	696.31
634.615	715.03
635.031	726.74
635.446	708.01
635.862	693.97
636.277	719.71
636.693	658.86
637.108	712.69
637.524	693.97
637.939	630.77
638.354	642.48
638.77	672.9
639.185	649.5
639.6	700.99
640.015	640.14
640.43	623.75
640.845	595.67
641.259	588.64
641.674	619.07
642.089	691.63
642.504	642.48
642.918	558.22
643.333	623.75
643.747	607.37
644.162	581.62
644.576	614.39
644.991	619.07
645.405	665.88
645.819	642.48
646.233	621.41
646.647	689.29
647.061	658.86
647.475	607.37
647.889	586.3
648.303	565.24
648.717	637.8
649.131	616.73
649.545	530.13
649.958	590.99
650.372	579.28
650.785	569.92
651.199	619.07
651.612	619.07
652.026	644.82
652.439	619.07
652.852	590.99
653.266	607.37
653.679	574.6
654.092	605.03
654.505	621.41
654.918	630.77
655.331	665.88
655.744	607.37
656.156	567.58
656.569	710.35
656.982	658.86
657.394	686.95
657.807	670.56
658.22	684.61
658.632	586.3
659.044	583.96
659.457	640.14
659.869	488
660.281	640.14
660.693	576.94
661.106	574.6
661.518	527.79
661.93	649.5
662.342	537.15
662.754	562.9
663.165	560.56
663.577	569.92
663.989	546.52
664.401	588.64
664.812	551.2
665.224	530.13
665.635	567.58
666.047	532.47
666.458	576.94
666.869	544.17
667.281	469.28
667.692	492.68
668.103	539.49
668.514	506.73
668.925	513.75
669.336	630.77
669.747	520.77
670.158	544.17
670.569	490.34
670.979	520.77
671.39	480.98
671.801	619.07
672.211	495.02
672.622	495.02
673.032	506.73
673.443	537.15
673.853	490.34
674.263	483.32
674.674	478.64
675.084	471.62
675.494	480.98
675.904	476.3
676.314	436.51
676.724	518.43
677.134	523.11
677.544	546.52
677.953	488
678.363	473.96
678.773	607.37
679.182	464.6
679.592	434.17
680.001	518.43
680.411	506.73
680.82	459.92
681.23	506.73
681.639	457.57
682.048	443.53
682.457	513.75
682.866	457.57
683.275	541.83
683.684	497.36
684.093	480.98
684.502	492.68
684.911	502.04
685.32	511.41
685.728	509.07
686.137	462.26
686.546	530.13
686.954	506.73
687.363	450.55
687.771	532.47
688.179	523.11
688.588	530.13
688.996	495.02
689.404	495.02
689.812	431.83
690.22	516.09
690.628	483.32
691.036	506.73
691.444	502.04
691.852	452.89
692.26	410.76
692.667	483.32
693.075	466.94
693.483	459.92
693.89	457.57
694.298	492.68
694.705	455.23
695.112	530.13
695.52	415.45
695.927	488
696.334	516.09
696.741	516.09
697.148	483.32
697.555	457.57
697.962	462.26
698.369	509.07
698.776	485.66
699.183	427.15
699.59	478.64
699.996	499.7
700.403	466.94
700.81	502.04
701.216	530.13
701.623	509.07
702.029	513.75
702.435	492.68
702.842	628.43
703.248	553.54
703.654	635.46
704.06	675.24
704.466	736.1
704.872	729.08
705.278	700.99
705.684	684.61
706.09	700.99
706.496	651.84
706.901	609.71
707.307	483.32
707.712	583.96
708.118	520.77
708.523	375.66
708.929	457.57
709.334	422.47
709.74	448.21
710.145	436.51
710.55	410.76
710.955	450.55
711.36	480.98
711.765	441.19
712.17	436.51
712.575	356.93
712.98	808.66
713.385	466.94
713.789	452.89
714.194	464.6
714.599	448.21
715.003	387.36
715.408	394.38
715.812	387.36
716.217	394.38
716.621	445.87
717.025	420.13
717.429	326.5
717.833	335.87
718.238	392.04
718.642	380.34
719.046	356.93
719.449	370.97
719.853	427.15
720.257	380.34
720.661	445.87
721.065	373.32
721.468	375.66
721.872	356.93
722.275	375.66
722.679	413.1
723.082	408.42
723.485	434.17
723.889	415.45
724.292	317.14
724.695	373.32
725.098	347.57
725.501	373.32
725.904	345.23
726.307	445.87
726.71	375.66
727.113	396.72
727.516	385.02
727.918	342.89
728.321	347.57
728.724	378
729.126	382.68
729.529	368.63
729.931	385.02
730.333	392.04
730.736	298.42
731.138	408.42
731.54	424.81
731.942	382.68
732.344	338.21
732.746	431.83
733.148	375.66
733.55	429.49
733.952	375.66
734.354	321.82
734.756	349.91
735.157	382.68
735.559	380.34
735.96	335.87
736.362	363.95
736.763	335.87
737.165	413.1
737.566	347.57
737.967	385.02
738.368	450.55
738.77	394.38
739.171	415.45
739.572	345.23
739.973	345.23
740.374	429.49
740.774	359.27
741.175	354.59
741.576	375.66
741.977	370.97
742.377	370.97
742.778	471.62
743.178	347.57
743.579	392.04
743.979	417.79
744.379	370.97
744.78	373.32
745.18	378
745.58	366.29
745.98	389.7
746.38	342.89
746.78	427.15
747.18	490.34
747.58	424.81
747.98	366.29
748.38	417.79
748.779	399.06
749.179	345.23
749.578	420.13
749.978	424.81
750.377	399.06
750.777	305.44
751.176	375.66
751.575	375.66
751.975	317.14
752.374	413.1
752.773	399.06
753.172	345.23
753.571	415.45
753.97	333.53
754.369	354.59
754.768	328.85
755.166	408.42
755.565	382.68
755.964	314.8
756.362	380.34
756.761	373.32
757.159	370.97
757.558	296.08
757.956	370.97
758.354	356.93
758.753	342.89
759.151	356.93
759.549	375.66
759.947	338.21
760.345	401.4
760.743	347.57
761.141	359.27
761.539	410.76
761.936	368.63
762.334	319.48
762.732	331.19
763.129	415.45
763.527	441.19
763.924	359.27
764.322	349.91
764.719	326.5
765.117	331.19
765.514	359.27
765.911	359.27
766.308	340.55
766.705	347.57
767.102	307.78
767.499	331.19
767.896	363.95
768.293	387.36
768.69	363.95
769.086	342.89
769.483	331.19
769.88	319.48
770.276	331.19
770.673	347.57
771.069	366.29
771.466	354.59
771.862	340.55
772.258	331.19
772.654	312.46
773.05	303.1
773.447	286.72
773.843	387.36
774.239	406.08
774.634	363.95
775.03	331.19
775.426	319.48
775.822	392.04
776.218	378
776.613	408.42
777.009	401.4
777.404	410.76
777.8	441.19
778.195	340.55
778.59	427.15
778.986	380.34
779.381	347.57
779.776	303.1
780.171	335.87
780.566	366.29
780.961	338.21
781.356	410.76
781.751	293.74
782.146	370.97
782.54	349.91
782.935	378
783.33	319.48
783.724	321.82
784.119	291.4
784.513	293.74
784.908	321.82
785.302	354.59
785.696	303.1
786.09	335.87
786.485	317.14
786.879	354.59
787.273	319.48
787.667	326.5
788.061	272.67
788.454	370.97
788.848	328.85
789.242	321.82
789.636	310.12
790.029	396.72
790.423	328.85
790.816	289.06
791.21	307.78
791.603	340.55
791.997	279.69
792.39	340.55
792.783	282.03
793.176	310.12
793.569	359.27
793.962	286.72
794.355	321.82
794.748	354.59
795.141	246.93
795.534	382.68
795.927	286.72
796.319	303.1
796.712	342.89
797.105	307.78
797.497	333.53
797.89	394.38
798.282	345.23
798.674	272.67
799.067	338.21
799.459	258.63
799.851	307.78
800.243	385.02
800.635	312.46
801.027	307.78
801.419	291.4
801.811	333.53
802.203	321.82
802.594	335.87
802.986	338.21
803.378	354.59
803.769	286.72
804.161	354.59
804.552	310.12
804.944	284.38
805.335	263.31
805.726	338.21
806.118	380.34
806.509	298.42
806.9	321.82
807.291	326.5
807.682	340.55
808.073	300.76
808.464	305.44
808.855	349.91
809.245	370.97
809.636	331.19
810.027	331.19
810.417	333.53
810.808	326.5
811.198	305.44
811.589	345.23
811.979	326.5
812.369	319.48
812.759	258.63
813.15	361.61
813.54	286.72
813.93	305.44
814.32	256.29
814.71	296.08
815.1	267.99
815.489	366.29
815.879	366.29
816.269	326.5
816.658	310.12
817.048	338.21
817.438	349.91
817.827	242.25
818.216	361.61
818.606	293.74
818.995	321.82
819.384	307.78
819.773	333.53
820.163	319.48
820.552	340.55
820.941	373.32
821.33	375.66
821.718	310.12
822.107	363.95
822.496	312.46
822.885	342.89
823.273	340.55
823.662	415.45
824.05	347.57
824.439	410.76
824.827	338.21
825.216	312.46
825.604	312.46
825.992	289.06
826.38	305.44
826.768	307.78
827.156	275.01
827.544	298.42
827.932	375.66
828.32	314.8
828.708	282.03
829.096	317.14
829.483	328.85
829.871	331.19
830.259	300.76
830.646	256.29
831.034	319.48
831.421	335.87
831.808	270.33
832.196	331.19
832.583	345.23
832.97	317.14
833.357	300.76
833.744	282.03
834.131	354.59
834.518	361.61
834.905	324.16
835.292	317.14
835.678	279.69
836.065	253.95
836.452	314.8
836.838	249.27
837.225	314.8
837.611	305.44
837.998	317.14
838.384	272.67
838.77	305.44
839.157	310.12
839.543	338.21
839.929	296.08
840.315	317.14
840.701	356.93
841.087	321.82
841.473	275.01
841.858	300.76
842.244	333.53
842.63	275.01
843.015	279.69
843.401	560.56
843.787	303.1
844.172	300.76
844.557	345.23
844.943	356.93
845.328	385.02
845.713	307.78
846.098	293.74
846.483	347.57
846.868	326.5
847.253	321.82
847.638	361.61
848.023	256.29
848.408	284.38
848.793	277.35
849.177	312.46
849.562	296.08
849.947	326.5
850.331	359.27
850.715	370.97
851.1	349.91
851.484	342.89
851.868	338.21
852.253	293.74
852.637	333.53
853.021	359.27
853.405	300.76
853.789	312.46
854.173	340.55
854.557	310.12
854.94	312.46
855.324	303.1
855.708	331.19
856.091	326.5
856.475	326.5
856.858	321.82
857.242	349.91
857.625	396.72
858.009	342.89
858.392	272.67
858.775	265.65
859.158	256.29
859.541	363.95
859.924	314.8
860.307	317.14
860.69	293.74
861.073	331.19
861.456	338.21
861.838	328.85
862.221	296.08
862.604	275.01
862.986	303.1
863.369	284.38
863.751	293.74
864.133	282.03
864.516	317.14
864.898	242.25
865.28	368.63
865.662	307.78
866.044	317.14
866.426	324.16
866.808	347.57
867.19	293.74
867.572	267.99
867.954	258.63
868.336	352.25
868.717	307.78
869.099	251.61
869.48	342.89
869.862	352.25
870.243	291.4
870.625	286.72
871.006	347.57
871.387	291.4
871.768	342.89
872.149	378
872.53	356.93
872.911	335.87
873.292	326.5
873.673	356.93
874.054	331.19
874.435	303.1
874.815	333.53
875.196	267.99
875.577	317.14
875.957	349.91
876.338	251.61
876.718	314.8
877.098	356.93
877.479	375.66
877.859	349.91
878.239	282.03
878.619	277.35
878.999	284.38
879.379	317.14
879.759	265.65
880.139	284.38
880.519	300.76
880.898	340.55
881.278	338.21
881.658	326.5
882.037	368.63
882.417	382.68
882.796	345.23
883.176	298.42
883.555	314.8
883.934	326.5
884.313	286.72
884.693	291.4
885.072	328.85
885.451	328.85
885.83	267.99
886.209	324.16
886.587	331.19
886.966	345.23
887.345	349.91
887.724	230.54
888.102	333.53
888.481	256.29
888.859	239.9
889.238	284.38
889.616	310.12
889.994	286.72
890.373	312.46
890.751	286.72
891.129	293.74
891.507	317.14
891.885	338.21
892.263	293.74
892.641	338.21
893.019	298.42
893.396	333.53
893.774	317.14
894.152	345.23
894.529	298.42
894.907	300.76
895.284	310.12
895.662	296.08
896.039	314.8
896.416	319.48
896.794	331.19
897.171	284.38
897.548	324.16
897.925	282.03
898.302	275.01
898.679	265.65
899.056	298.42
899.433	333.53
899.809	279.69
900.186	326.5
900.563	321.82
900.939	286.72
901.316	277.35
901.692	333.53
902.069	305.44
902.445	293.74
902.821	263.31
903.197	305.44
903.574	333.53
903.95	319.48
904.326	317.14
904.702	293.74
905.078	333.53
905.454	342.89
905.829	270.33
906.205	356.93
906.581	275.01
906.956	342.89
907.332	296.08
907.707	324.16
908.083	345.23
908.458	331.19
908.833	333.53
909.209	300.76
909.584	328.85
909.959	230.54
910.334	321.82
910.709	352.25
911.084	335.87
911.459	321.82
911.834	258.63
912.209	321.82
912.583	291.4
912.958	342.89
913.333	335.87
913.707	272.67
914.082	298.42
914.456	307.78
914.83	305.44
915.205	366.29
915.579	270.33
915.953	324.16
916.327	356.93
916.701	221.18
917.075	246.93
917.449	249.27
917.823	310.12
918.197	275.01
918.571	347.57
918.944	298.42
919.318	300.76
919.692	321.82
920.065	293.74
920.438	298.42
920.812	272.67
921.185	321.82
921.558	326.5
921.932	293.74
922.305	300.76
922.678	293.74
923.051	326.5
923.424	286.72
923.797	340.55
924.17	293.74
924.542	312.46
924.915	291.4
925.288	370.97
925.661	307.78
926.033	289.06
926.406	256.29
926.778	335.87
927.15	267.99
927.523	300.76
927.895	300.76
928.267	307.78
928.639	286.72
929.011	291.4
929.383	284.38
929.755	349.91
930.127	263.31
930.499	291.4
930.871	298.42
931.242	317.14
931.614	354.59
931.986	284.38
932.357	289.06
932.729	314.8
933.1	366.29
933.471	277.35
933.843	317.14
934.214	296.08
934.585	361.61
934.956	312.46
935.327	375.66
935.698	310.12
936.069	286.72
936.44	338.21
936.811	289.06
937.182	312.46
937.552	317.14
937.923	286.72
938.293	331.19
938.664	291.4
939.034	317.14
939.405	286.72
939.775	324.16
940.145	326.5
940.516	293.74
940.886	328.85
941.256	300.76
941.626	282.03
941.996	291.4
942.366	260.97
942.735	246.93
943.105	251.61
943.475	298.42
943.845	289.06
944.214	352.25
944.584	331.19
944.953	296.08
945.323	267.99
945.692	342.89
946.061	356.93
946.43	284.38
946.8	314.8
947.169	291.4
947.538	249.27
947.907	307.78
948.276	293.74
948.645	221.18
949.013	260.97
949.382	221.18
949.751	291.4
950.119	246.93
950.488	286.72
950.857	291.4
951.225	305.44
951.593	284.38
951.962	251.61
952.33	319.48
952.698	345.23
953.066	291.4
953.434	321.82
953.802	352.25
954.17	232.88
954.538	352.25
954.906	275.01
955.274	256.29
955.642	324.16
956.009	300.76
956.377	338.21
956.744	331.19
957.112	293.74
957.479	324.16
957.847	298.42
958.214	307.78
958.581	200.12
958.948	293.74
959.315	361.61
959.683	296.08
960.05	277.35
960.416	279.69
960.783	354.59
961.15	314.8
961.517	244.59
961.884	291.4
962.25	305.44
962.617	342.89
962.983	286.72
963.35	289.06
963.716	275.01
964.082	291.4
964.449	291.4
964.815	296.08
965.181	300.76
965.547	279.69
965.913	335.87
966.279	298.42
966.645	286.72
967.011	251.61
967.377	310.12
967.742	324.16
968.108	296.08
968.474	300.76
968.839	366.29
969.205	312.46
969.57	324.16
969.935	324.16
970.301	303.1
970.666	354.59
971.031	298.42
971.396	300.76
971.761	333.53
972.126	242.25
972.491	267.99
972.856	305.44
973.221	312.46
973.586	296.08
973.95	338.21
974.315	324.16
974.679	300.76
975.044	359.27
975.408	286.72
975.773	275.01
976.137	282.03
976.501	256.29
976.866	242.25
977.23	342.89
977.594	363.95
977.958	251.61
978.322	293.74
978.686	319.48
979.049	272.67
979.413	263.31
979.777	347.57
980.141	275.01
980.504	345.23
980.868	256.29
981.231	326.5
981.595	265.65
981.958	345.23
982.321	239.9
982.684	298.42
983.048	366.29
983.411	265.65
983.774	338.21
984.137	300.76
984.5	258.63
984.862	289.06
985.225	270.33
985.588	317.14
985.951	312.46
986.313	286.72
986.676	296.08
987.038	258.63
987.401	328.85
987.763	293.74
988.125	291.4
988.488	314.8
988.85	310.12
989.212	260.97
989.574	242.25
989.936	345.23
990.298	291.4
990.66	317.14
991.022	305.44
991.383	249.27
991.745	305.44
992.107	331.19
992.468	286.72
992.83	249.27
993.191	296.08
993.553	291.4
993.914	326.5
994.275	291.4
994.637	338.21
994.998	286.72
995.359	363.95
995.72	286.72
996.081	307.78
996.442	279.69
996.803	319.48
997.163	324.16
997.524	338.21
997.885	352.25
998.245	267.99
998.606	200.12
998.966	319.48
999.327	335.87
999.687	319.48
1000.047	286.72
1000.408	275.01
1000.768	275.01
1001.128	277.35
1001.488	326.5
1001.848	282.03
1002.208	260.97
1002.568	275.01
1002.927	216.5
1003.287	305.44
1003.647	317.14
1004.007	328.85
1004.366	237.56
1004.726	307.78
1005.085	282.03
1005.444	258.63
1005.804	260.97
1006.163	246.93
1006.522	282.03
1006.881	298.42
1007.24	272.67
1007.599	300.76
1007.958	298.42
1008.317	345.23
1008.676	319.48
1009.035	340.55
1009.393	326.5
1009.752	263.31
1010.111	328.85
1010.469	232.88
1010.828	228.2
1011.186	282.03
1011.544	289.06
1011.903	349.91
1012.261	333.53
1012.619	293.74
1012.977	349.91
1013.335	333.53
1013.693	321.82
1014.051	300.76
1014.409	289.06
1014.767	331.19
1015.124	282.03
1015.482	321.82
1015.84	256.29
1016.197	296.08
1016.555	256.29
1016.912	335.87
1017.269	312.46
1017.627	284.38
1017.984	253.95
1018.341	321.82
1018.698	282.03
1019.055	312.46
1019.412	312.46
1019.769	275.01
1020.126	326.5
1020.483	260.97
1020.84	284.38
1021.196	265.65
1021.553	246.93
1021.909	253.95
1022.266	300.76
1022.622	265.65
1022.979	387.36
1023.335	317.14
1023.691	359.27
1024.047	251.61
1024.404	265.65
1024.76	270.33
1025.116	277.35
1025.472	275.01
1025.827	296.08
1026.183	265.65
1026.539	272.67
1026.895	291.4
1027.25	312.46
1027.606	272.67
1027.961	307.78
1028.317	270.33
1028.672	303.1
1029.028	335.87
1029.383	307.78
1029.738	291.4
1030.093	291.4
1030.448	303.1
1030.803	300.76
1031.158	286.72
1031.513	349.91
1031.868	326.5
1032.223	317.14
1032.577	298.42
1032.932	263.31
1033.287	331.19
1033.641	310.12
1033.996	286.72
1034.35	225.86
1034.704	279.69
1035.059	312.46
1035.413	284.38
1035.767	284.38
1036.121	284.38
