Data from Al_FLMS009871__799__15-21-48-814.txt Node

Date: Fri Mar 08 15:21:48 CST 2024
User: pe5414po
Spectrometer: FLMS00987
Trigger mode: 0
Integration Time (sec): 1.000000E-1
Scans to average: 1
Electric dark correction enabled: true
Nonlinearity correction enabled: false
Boxcar width: 0
XAxis mode: Wavelengths
Number of Pixels in Spectrum: 2048
>>>>>Begin Spectral Data<<<<<
188.938	-70.65
189.409	-70.65
189.879	-70.65
190.349	-84.7
190.819	-96.4
191.29	-131.51
191.76	-61.29
192.23	-89.38
192.7	-110.44
193.17	-14.48
193.64	-54.27
194.109	13.6
194.579	-9.8
195.049	-63.63
195.519	13.6
195.988	48.71
196.458	27.65
196.927	123.61
197.397	67.44
197.866	125.95
198.336	114.25
198.805	142.33
199.274	151.7
199.744	179.78
200.213	191.49
200.682	193.83
201.151	217.23
201.62	268.72
202.089	193.83
202.558	261.7
203.027	233.61
203.495	310.85
203.964	285.11
204.433	275.74
204.902	240.64
205.37	301.49
205.839	273.4
206.307	355.32
206.776	308.51
207.244	294.47
207.712	320.21
208.181	259.36
208.649	310.85
209.117	329.58
209.585	275.74
210.053	264.04
210.521	285.11
210.989	296.81
211.457	367.03
211.925	252.34
212.393	282.77
212.861	280.43
213.328	266.38
213.796	315.53
214.264	334.26
214.731	259.36
215.199	259.36
215.666	285.11
216.133	266.38
216.601	285.11
217.068	271.06
217.535	219.57
218.003	280.43
218.47	322.56
218.937	247.66
219.404	264.04
219.871	233.61
220.338	217.23
220.805	266.38
221.271	308.51
221.738	264.04
222.205	240.64
222.671	240.64
223.138	233.61
223.605	212.55
224.071	296.81
224.538	294.47
225.004	289.79
225.47	310.85
225.937	271.06
226.403	271.06
226.869	224.25
227.335	324.9
227.801	217.23
228.267	278.08
228.733	240.64
229.199	348.3
229.665	327.24
230.131	268.72
230.597	285.11
231.062	303.83
231.528	245.32
231.994	338.94
232.459	308.51
232.925	322.56
233.39	280.43
233.856	292.13
234.321	292.13
234.786	278.08
235.252	275.74
235.717	324.9
236.182	296.81
236.647	310.85
237.112	308.51
237.577	257.02
238.042	261.7
238.507	219.57
238.972	273.4
239.436	226.59
239.901	247.66
240.366	273.4
240.83	341.28
241.295	306.17
241.76	250
242.224	228.93
242.688	278.08
243.153	247.66
243.617	317.87
244.081	317.87
244.545	331.92
245.01	285.11
245.474	294.47
245.938	324.9
246.402	292.13
246.866	219.57
247.33	303.83
247.793	280.43
248.257	289.79
248.721	287.45
249.185	294.47
249.648	308.51
250.112	301.49
250.575	264.04
251.039	322.56
251.502	289.79
251.965	343.62
252.429	357.66
252.892	348.3
253.355	252.34
253.818	296.81
254.281	257.02
254.744	338.94
255.207	324.9
255.67	287.45
256.133	271.06
256.596	238.3
257.059	245.32
257.522	280.43
257.984	242.98
258.447	240.64
258.909	242.98
259.372	296.81
259.834	310.85
260.297	287.45
260.759	247.66
261.221	306.17
261.684	299.15
262.146	296.81
262.608	322.56
263.07	336.6
263.532	313.19
263.994	221.91
264.456	210.21
264.918	317.87
265.38	282.77
265.842	261.7
266.303	327.24
266.765	280.43
267.227	296.81
267.688	235.96
268.15	324.9
268.611	399.79
269.072	301.49
269.534	313.19
269.995	315.53
270.456	322.56
270.918	308.51
271.379	306.17
271.84	266.38
272.301	289.79
272.762	317.87
273.223	301.49
273.684	289.79
274.144	299.15
274.605	259.36
275.066	315.53
275.527	278.08
275.987	371.71
276.448	348.3
276.908	214.89
277.369	285.11
277.829	280.43
278.289	313.19
278.75	301.49
279.21	338.94
279.67	242.98
280.13	329.58
280.59	257.02
281.05	278.08
281.51	217.23
281.97	320.21
282.43	301.49
282.89	303.83
283.35	303.83
283.809	320.21
284.269	329.58
284.729	231.27
285.188	294.47
285.648	331.92
286.107	273.4
286.567	296.81
287.026	257.02
287.485	299.15
287.944	224.25
288.404	296.81
288.863	331.92
289.322	261.7
289.781	231.27
290.24	245.32
290.699	322.56
291.158	341.28
291.616	376.39
292.075	350.64
292.534	259.36
292.992	294.47
293.451	369.37
293.91	310.85
294.368	275.74
294.827	271.06
295.285	331.92
295.743	322.56
296.202	334.26
296.66	327.24
297.118	310.85
297.576	308.51
298.034	247.66
298.492	261.7
298.95	250
299.408	292.13
299.866	254.68
300.324	285.11
300.781	268.72
301.239	345.96
301.697	292.13
302.154	301.49
302.612	308.51
303.069	266.38
303.527	367.03
303.984	324.9
304.441	310.85
304.899	240.64
305.356	294.47
305.813	217.23
306.27	228.93
306.727	250
307.184	341.28
307.641	275.74
308.098	259.36
308.555	289.79
309.012	285.11
309.468	285.11
309.925	355.32
310.382	280.43
310.838	362.34
311.295	242.98
311.751	294.47
312.208	231.27
312.664	301.49
313.12	294.47
313.577	329.58
314.033	303.83
314.489	294.47
314.945	296.81
315.401	336.6
315.857	348.3
316.313	317.87
316.769	280.43
317.225	257.02
317.681	273.4
318.136	273.4
318.592	221.91
319.048	338.94
319.503	345.96
319.959	264.04
320.414	324.9
320.869	317.87
321.325	264.04
321.78	296.81
322.235	301.49
322.691	317.87
323.146	273.4
323.601	362.34
324.056	266.38
324.511	282.77
324.966	240.64
325.421	306.17
325.875	257.02
326.33	369.37
326.785	264.04
327.24	313.19
327.694	289.79
328.149	308.51
328.603	299.15
329.058	338.94
329.512	308.51
329.966	287.45
330.421	343.62
330.875	292.13
331.329	338.94
331.783	282.77
332.237	317.87
332.691	374.05
333.145	334.26
333.599	315.53
334.053	352.98
334.507	310.85
334.96	301.49
335.414	271.06
335.868	341.28
336.321	289.79
336.775	315.53
337.228	301.49
337.682	334.26
338.135	355.32
338.588	334.26
339.042	327.24
339.495	292.13
339.948	341.28
340.401	306.17
340.854	308.51
341.307	352.98
341.76	296.81
342.213	299.15
342.666	336.6
343.119	259.36
343.571	341.28
344.024	285.11
344.477	296.81
344.929	343.62
345.382	350.64
345.834	285.11
346.287	336.6
346.739	322.56
347.191	294.47
347.644	322.56
348.096	219.57
348.548	334.26
349	322.56
349.452	299.15
349.904	299.15
350.356	257.02
350.808	317.87
351.26	280.43
351.711	310.85
352.163	310.85
352.615	350.64
353.066	310.85
353.518	250
353.969	306.17
354.421	301.49
354.872	242.98
355.324	301.49
355.775	308.51
356.226	341.28
356.677	245.32
357.128	357.66
357.579	296.81
358.03	292.13
358.481	289.79
358.932	273.4
359.383	352.98
359.834	322.56
360.285	376.39
360.735	273.4
361.186	310.85
361.637	303.83
362.087	317.87
362.538	287.45
362.988	292.13
363.438	306.17
363.889	345.96
364.339	338.94
364.789	341.28
365.239	362.34
365.689	355.32
366.139	315.53
366.589	329.58
367.039	299.15
367.489	383.41
367.939	292.13
368.389	289.79
368.839	287.45
369.288	381.07
369.738	390.43
370.187	338.94
370.637	343.62
371.086	350.64
371.536	303.83
371.985	317.87
372.434	306.17
372.884	341.28
373.333	360
373.782	388.09
374.231	320.21
374.68	299.15
375.129	350.64
375.578	327.24
376.027	355.32
376.475	371.71
376.924	301.49
377.373	322.56
377.822	329.58
378.27	273.4
378.719	322.56
379.167	343.62
379.616	303.83
380.064	278.08
380.512	310.85
380.961	345.96
381.409	294.47
381.857	378.73
382.305	364.68
382.753	310.85
383.201	287.45
383.649	261.7
384.097	341.28
384.545	334.26
384.992	292.13
385.44	317.87
385.888	320.21
386.335	336.6
386.783	261.7
387.231	268.72
387.678	259.36
388.125	320.21
388.573	348.3
389.02	306.17
389.467	369.37
389.914	299.15
390.362	362.34
390.809	362.34
391.256	336.6
391.703	360
392.15	310.85
392.596	378.73
393.043	252.34
393.49	385.75
393.937	257.02
394.383	282.77
394.83	299.15
395.276	315.53
395.723	352.98
396.169	280.43
396.616	320.21
397.062	315.53
397.508	257.02
397.954	355.32
398.401	306.17
398.847	292.13
399.293	257.02
399.739	327.24
400.185	254.68
400.631	299.15
401.076	404.47
401.522	336.6
401.968	278.08
402.414	324.9
402.859	287.45
403.305	292.13
403.75	310.85
404.196	271.06
404.641	336.6
405.086	327.24
405.532	334.26
405.977	320.21
406.422	334.26
406.867	348.3
407.312	324.9
407.757	336.6
408.202	282.77
408.647	322.56
409.092	306.17
409.537	275.74
409.982	320.21
410.426	287.45
410.871	327.24
411.316	345.96
411.76	350.64
412.205	306.17
412.649	369.37
413.093	352.98
413.538	343.62
413.982	275.74
414.426	280.43
414.87	336.6
415.314	378.73
415.758	280.43
416.202	378.73
416.646	334.26
417.09	371.71
417.534	322.56
417.978	320.21
418.421	280.43
418.865	331.92
419.309	275.74
419.752	378.73
420.196	348.3
420.639	390.43
421.083	336.6
421.526	299.15
421.969	313.19
422.412	334.26
422.856	345.96
423.299	338.94
423.742	357.66
424.185	285.11
424.628	350.64
425.071	357.66
425.513	301.49
425.956	324.9
426.399	345.96
426.842	331.92
427.284	310.85
427.727	315.53
428.169	303.83
428.612	245.32
429.054	331.92
429.497	268.72
429.939	313.19
430.381	317.87
430.823	315.53
431.265	271.06
431.707	299.15
432.149	341.28
432.591	273.4
433.033	341.28
433.475	352.98
433.917	306.17
434.359	294.47
434.8	264.04
435.242	285.11
435.684	345.96
436.125	355.32
436.567	294.47
437.008	296.81
437.449	350.64
437.891	273.4
438.332	329.58
438.773	327.24
439.214	392.77
439.656	294.47
440.097	343.62
440.538	320.21
440.978	334.26
441.419	292.13
441.86	280.43
442.301	289.79
442.742	315.53
443.182	345.96
443.623	315.53
444.063	320.21
444.504	334.26
444.944	289.79
445.385	324.9
445.825	271.06
446.265	301.49
446.706	322.56
447.146	287.45
447.586	303.83
448.026	315.53
448.466	259.36
448.906	280.43
449.346	313.19
449.786	294.47
450.225	271.06
450.665	289.79
451.105	343.62
451.544	345.96
451.984	313.19
452.424	315.53
452.863	320.21
453.302	313.19
453.742	352.98
454.181	341.28
454.62	266.38
455.059	296.81
455.499	322.56
455.938	364.68
456.377	364.68
456.816	360
457.254	369.37
457.693	355.32
458.132	282.77
458.571	296.81
459.01	336.6
459.448	364.68
459.887	292.13
460.325	268.72
460.764	308.51
461.202	338.94
461.641	334.26
462.079	385.75
462.517	308.51
462.955	320.21
463.393	301.49
463.832	341.28
464.27	310.85
464.708	357.66
465.145	348.3
465.583	306.17
466.021	350.64
466.459	376.39
466.897	315.53
467.334	226.59
467.772	341.28
468.209	345.96
468.647	376.39
469.084	280.43
469.522	334.26
469.959	313.19
470.396	338.94
470.833	254.68
471.271	329.58
471.708	374.05
472.145	364.68
472.582	371.71
473.019	320.21
473.456	259.36
473.892	301.49
474.329	338.94
474.766	331.92
475.202	287.45
475.639	350.64
476.076	376.39
476.512	329.58
476.949	331.92
477.385	360
477.821	313.19
478.258	348.3
478.694	306.17
479.13	341.28
479.566	341.28
480.002	374.05
480.438	315.53
480.874	313.19
481.31	261.7
481.746	261.7
482.181	296.81
482.617	280.43
483.053	322.56
483.488	259.36
483.924	348.3
484.36	336.6
484.795	343.62
485.23	331.92
485.666	341.28
486.101	296.81
486.536	338.94
486.971	266.38
487.407	303.83
487.842	360
488.277	355.32
488.712	329.58
489.146	303.83
489.581	350.64
490.016	327.24
490.451	338.94
490.885	310.85
491.32	303.83
491.755	345.96
492.189	282.77
492.624	324.9
493.058	348.3
493.492	280.43
493.927	343.62
494.361	338.94
494.795	331.92
495.229	315.53
495.663	357.66
496.097	331.92
496.531	357.66
496.965	280.43
497.399	285.11
497.833	278.08
498.266	322.56
498.7	282.77
499.134	315.53
499.567	280.43
500.001	331.92
500.434	266.38
500.868	352.98
501.301	308.51
501.734	254.68
502.168	299.15
502.601	289.79
503.034	280.43
503.467	292.13
503.9	329.58
504.333	324.9
504.766	348.3
505.199	338.94
505.632	357.66
506.064	352.98
506.497	280.43
506.93	254.68
507.362	352.98
507.795	343.62
508.227	341.28
508.66	292.13
509.092	306.17
509.524	331.92
509.956	299.15
510.389	341.28
510.821	306.17
511.253	322.56
511.685	303.83
512.117	320.21
512.549	308.51
512.981	299.15
513.412	233.61
513.844	238.3
514.276	301.49
514.707	292.13
515.139	296.81
515.571	324.9
516.002	345.96
516.433	357.66
516.865	338.94
517.296	341.28
517.727	285.11
518.159	343.62
518.59	329.58
519.021	338.94
519.452	308.51
519.883	336.6
520.314	345.96
520.744	250
521.175	395.11
521.606	278.08
522.037	287.45
522.467	315.53
522.898	355.32
523.328	324.9
523.759	317.87
524.189	299.15
524.62	299.15
525.05	306.17
525.48	289.79
525.91	315.53
526.341	352.98
526.771	315.53
527.201	303.83
527.631	334.26
528.061	275.74
528.49	341.28
528.92	294.47
529.35	336.6
529.78	242.98
530.209	285.11
530.639	374.05
531.068	294.47
531.498	376.39
531.927	343.62
532.357	285.11
532.786	273.4
533.215	341.28
533.644	320.21
534.074	331.92
534.503	331.92
534.932	301.49
535.361	350.64
535.79	329.58
536.218	285.11
536.647	317.87
537.076	329.58
537.505	336.6
537.933	292.13
538.362	317.87
538.79	212.55
539.219	324.9
539.647	273.4
540.076	338.94
540.504	296.81
540.932	350.64
541.36	303.83
541.788	292.13
542.217	348.3
542.645	374.05
543.073	322.56
543.5	397.45
543.928	348.3
544.356	310.85
544.784	357.66
545.211	294.47
545.639	341.28
546.067	287.45
546.494	320.21
546.922	324.9
547.349	299.15
547.776	261.7
548.204	341.28
548.631	334.26
549.058	327.24
549.485	324.9
549.912	329.58
550.339	360
550.766	322.56
551.193	343.62
551.62	350.64
552.047	278.08
552.474	322.56
552.9	322.56
553.327	327.24
553.754	378.73
554.18	360
554.607	294.47
555.033	360
555.459	343.62
555.886	360
556.312	308.51
556.738	322.56
557.164	327.24
557.59	336.6
558.016	313.19
558.442	338.94
558.868	317.87
559.294	381.07
559.72	306.17
560.145	252.34
560.571	334.26
560.997	338.94
561.422	336.6
561.848	317.87
562.273	357.66
562.699	313.19
563.124	301.49
563.549	329.58
563.974	352.98
564.4	357.66
564.825	280.43
565.25	367.03
565.675	315.53
566.1	308.51
566.525	315.53
566.95	264.04
567.374	348.3
567.799	327.24
568.224	301.49
568.648	336.6
569.073	343.62
569.497	310.85
569.922	310.85
570.346	268.72
570.771	301.49
571.195	341.28
571.619	338.94
572.043	268.72
572.467	355.32
572.891	254.68
573.315	317.87
573.739	292.13
574.163	261.7
574.587	324.9
575.011	250
575.435	348.3
575.858	296.81
576.282	287.45
576.705	280.43
577.129	247.66
577.552	273.4
577.976	280.43
578.399	350.64
578.822	395.11
579.245	327.24
579.669	338.94
580.092	301.49
580.515	275.74
580.938	324.9
581.361	381.07
581.784	259.36
582.206	329.58
582.629	360
583.052	327.24
583.474	271.06
583.897	350.64
584.32	324.9
584.742	317.87
585.165	264.04
585.587	310.85
586.009	336.6
586.431	271.06
586.854	306.17
587.276	301.49
587.698	348.3
588.12	348.3
588.542	292.13
588.964	313.19
589.386	357.66
589.807	352.98
590.229	296.81
590.651	306.17
591.073	327.24
591.494	334.26
591.916	271.06
592.337	275.74
592.759	289.79
593.18	348.3
593.601	303.83
594.022	348.3
594.444	341.28
594.865	287.45
595.286	367.03
595.707	317.87
596.128	334.26
596.549	374.05
596.97	345.96
597.39	334.26
597.811	376.39
598.232	378.73
598.652	338.94
599.073	306.17
599.494	364.68
599.914	334.26
600.334	303.83
600.755	329.58
601.175	303.83
601.595	268.72
602.015	313.19
602.436	308.51
602.856	385.75
603.276	345.96
603.696	350.64
604.115	280.43
604.535	301.49
604.955	362.34
605.375	320.21
605.794	308.51
606.214	320.21
606.634	329.58
607.053	242.98
607.473	250
607.892	278.08
608.311	352.98
608.731	362.34
609.15	315.53
609.569	374.05
609.988	317.87
610.407	289.79
610.826	336.6
611.245	322.56
611.664	296.81
612.083	259.36
612.501	324.9
612.92	362.34
613.339	280.43
613.757	317.87
614.176	336.6
614.594	327.24
615.013	289.79
615.431	352.98
615.85	254.68
616.268	310.85
616.686	324.9
617.104	324.9
617.522	331.92
617.94	301.49
618.358	310.85
618.776	294.47
619.194	247.66
619.612	303.83
620.03	320.21
620.447	287.45
620.865	350.64
621.282	303.83
621.7	327.24
622.117	235.96
622.535	350.64
622.952	303.83
623.369	322.56
623.787	338.94
624.204	273.4
624.621	331.92
625.038	308.51
625.455	355.32
625.872	301.49
626.289	315.53
626.706	378.73
627.123	306.17
627.539	296.81
627.956	301.49
628.373	341.28
628.789	313.19
629.206	331.92
629.622	345.96
630.038	301.49
630.455	313.19
630.871	331.92
631.287	350.64
631.703	357.66
632.12	334.26
632.536	350.64
632.952	360
633.368	294.47
633.783	367.03
634.199	327.24
634.615	327.24
635.031	331.92
635.446	331.92
635.862	371.71
636.277	371.71
636.693	282.77
637.108	341.28
637.524	402.13
637.939	392.77
638.354	313.19
638.77	371.71
639.185	285.11
639.6	320.21
640.015	315.53
640.43	313.19
640.845	322.56
641.259	355.32
641.674	282.77
642.089	303.83
642.504	345.96
642.918	350.64
643.333	315.53
643.747	296.81
644.162	360
644.576	278.08
644.991	313.19
645.405	308.51
645.819	303.83
646.233	336.6
646.647	275.74
647.061	299.15
647.475	301.49
647.889	331.92
648.303	315.53
648.717	285.11
649.131	338.94
649.545	320.21
649.958	331.92
650.372	322.56
650.785	275.74
651.199	235.96
651.612	348.3
652.026	360
652.439	374.05
652.852	313.19
653.266	329.58
653.679	264.04
654.092	308.51
654.505	343.62
654.918	336.6
655.331	306.17
655.744	343.62
656.156	296.81
656.569	327.24
656.982	329.58
657.394	331.92
657.807	294.47
658.22	285.11
658.632	362.34
659.044	292.13
659.457	322.56
659.869	341.28
660.281	360
660.693	275.74
661.106	320.21
661.518	317.87
661.93	285.11
662.342	313.19
662.754	299.15
663.165	334.26
663.577	315.53
663.989	299.15
664.401	313.19
664.812	310.85
665.224	388.09
665.635	331.92
666.047	287.45
666.458	289.79
666.869	296.81
667.281	210.21
667.692	271.06
668.103	313.19
668.514	357.66
668.925	327.24
669.336	303.83
669.747	301.49
670.158	285.11
670.569	334.26
670.979	310.85
671.39	341.28
671.801	301.49
672.211	261.7
672.622	336.6
673.032	282.77
673.443	336.6
673.853	371.71
674.263	352.98
674.674	320.21
675.084	296.81
675.494	250
675.904	308.51
676.314	383.41
676.724	338.94
677.134	280.43
677.544	219.57
677.953	310.85
678.363	329.58
678.773	292.13
679.182	324.9
679.592	317.87
680.001	404.47
680.411	357.66
680.82	343.62
681.23	355.32
681.639	324.9
682.048	348.3
682.457	292.13
682.866	341.28
683.275	343.62
683.684	364.68
684.093	320.21
684.502	320.21
684.911	327.24
685.32	322.56
685.728	324.9
686.137	348.3
686.546	278.08
686.954	338.94
687.363	280.43
687.771	303.83
688.179	352.98
688.588	299.15
688.996	357.66
689.404	268.72
689.812	341.28
690.22	364.68
690.628	315.53
691.036	268.72
691.444	327.24
691.852	317.87
692.26	371.71
692.667	336.6
693.075	303.83
693.483	334.26
693.89	329.58
694.298	275.74
694.705	352.98
695.112	374.05
695.52	364.68
695.927	296.81
696.334	355.32
696.741	299.15
697.148	343.62
697.555	329.58
697.962	294.47
698.369	310.85
698.776	315.53
699.183	299.15
699.59	310.85
699.996	261.7
700.403	320.21
700.81	331.92
701.216	282.77
701.623	338.94
702.029	296.81
702.435	310.85
702.842	383.41
703.248	310.85
703.654	264.04
704.06	280.43
704.466	334.26
704.872	320.21
705.278	264.04
705.684	338.94
706.09	301.49
706.496	364.68
706.901	287.45
707.307	296.81
707.712	315.53
708.118	315.53
708.523	264.04
708.929	313.19
709.334	317.87
709.74	341.28
710.145	289.79
710.55	348.3
710.955	374.05
711.36	320.21
711.765	317.87
712.17	324.9
712.575	329.58
712.98	807.05
713.385	315.53
713.789	348.3
714.194	345.96
714.599	334.26
715.003	292.13
715.408	289.79
715.812	259.36
716.217	306.17
716.621	322.56
717.025	273.4
717.429	259.36
717.833	280.43
718.238	341.28
718.642	238.3
719.046	306.17
719.449	271.06
719.853	306.17
720.257	317.87
720.661	392.77
721.065	313.19
721.468	338.94
721.872	280.43
722.275	264.04
722.679	273.4
723.082	345.96
723.485	376.39
723.889	310.85
724.292	376.39
724.695	273.4
725.098	371.71
725.501	362.34
725.904	268.72
726.307	254.68
726.71	334.26
727.113	350.64
727.516	299.15
727.918	331.92
728.321	334.26
728.724	299.15
729.126	294.47
729.529	310.85
729.931	308.51
730.333	336.6
730.736	273.4
731.138	341.28
731.54	310.85
731.942	301.49
732.344	338.94
732.746	310.85
733.148	308.51
733.55	338.94
733.952	390.43
734.354	268.72
734.756	287.45
735.157	334.26
735.559	282.77
735.96	364.68
736.362	355.32
736.763	299.15
737.165	336.6
737.566	348.3
737.967	301.49
738.368	268.72
738.77	329.58
739.171	324.9
739.572	310.85
739.973	324.9
740.374	252.34
740.774	235.96
741.175	285.11
741.576	320.21
741.977	317.87
742.377	329.58
742.778	324.9
743.178	360
743.579	278.08
743.979	273.4
744.379	306.17
744.78	294.47
745.18	322.56
745.58	271.06
745.98	292.13
746.38	317.87
746.78	336.6
747.18	331.92
747.58	320.21
747.98	296.81
748.38	306.17
748.779	306.17
749.179	406.81
749.578	301.49
749.978	289.79
750.377	355.32
750.777	317.87
751.176	285.11
751.575	334.26
751.975	306.17
752.374	315.53
752.773	296.81
753.172	261.7
753.571	355.32
753.97	285.11
754.369	228.93
754.768	294.47
755.166	240.64
755.565	282.77
755.964	360
756.362	364.68
756.761	322.56
757.159	327.24
757.558	315.53
757.956	317.87
758.354	268.72
758.753	294.47
759.151	315.53
759.549	317.87
759.947	315.53
760.345	322.56
760.743	322.56
761.141	299.15
761.539	367.03
761.936	350.64
762.334	369.37
762.732	252.34
763.129	306.17
763.527	278.08
763.924	317.87
764.322	360
764.719	320.21
765.117	285.11
765.514	247.66
765.911	268.72
766.308	322.56
766.705	306.17
767.102	360
767.499	308.51
767.896	388.09
768.293	313.19
768.69	317.87
769.086	289.79
769.483	381.07
769.88	313.19
770.276	341.28
770.673	376.39
771.069	334.26
771.466	336.6
771.862	327.24
772.258	345.96
772.654	282.77
773.05	261.7
773.447	287.45
773.843	259.36
774.239	273.4
774.634	259.36
775.03	282.77
775.426	374.05
775.822	299.15
776.218	334.26
776.613	317.87
777.009	301.49
777.404	310.85
777.8	334.26
778.195	308.51
778.59	268.72
778.986	315.53
779.381	278.08
779.776	289.79
780.171	296.81
780.566	327.24
780.961	313.19
781.356	374.05
781.751	301.49
782.146	294.47
782.54	334.26
782.935	280.43
783.33	320.21
783.724	324.9
784.119	271.06
784.513	313.19
784.908	334.26
785.302	338.94
785.696	345.96
786.09	296.81
786.485	275.74
786.879	308.51
787.273	287.45
787.667	320.21
788.061	303.83
788.454	266.38
788.848	301.49
789.242	322.56
789.636	334.26
790.029	303.83
790.423	280.43
790.816	310.85
791.21	331.92
791.603	289.79
791.997	275.74
792.39	301.49
792.783	348.3
793.176	322.56
793.569	310.85
793.962	336.6
794.355	324.9
794.748	367.03
795.141	275.74
795.534	310.85
795.927	338.94
796.319	331.92
796.712	287.45
797.105	327.24
797.497	348.3
797.89	301.49
798.282	355.32
798.674	322.56
799.067	287.45
799.459	278.08
799.851	310.85
800.243	320.21
800.635	322.56
801.027	313.19
801.419	280.43
801.811	329.58
802.203	320.21
802.594	336.6
802.986	252.34
803.378	320.21
803.769	352.98
804.161	324.9
804.552	348.3
804.944	264.04
805.335	306.17
805.726	364.68
806.118	294.47
806.509	315.53
806.9	301.49
807.291	350.64
807.682	306.17
808.073	341.28
808.464	285.11
808.855	315.53
809.245	299.15
809.636	313.19
810.027	271.06
810.417	313.19
810.808	350.64
811.198	329.58
811.589	308.51
811.979	338.94
812.369	247.66
812.759	294.47
813.15	310.85
813.54	268.72
813.93	273.4
814.32	355.32
814.71	322.56
815.1	320.21
815.489	364.68
815.879	385.75
816.269	282.77
816.658	331.92
817.048	329.58
817.438	320.21
817.827	381.07
818.216	282.77
818.606	331.92
818.995	334.26
819.384	310.85
819.773	308.51
820.163	352.98
820.552	313.19
820.941	378.73
821.33	315.53
821.718	207.87
822.107	271.06
822.496	341.28
822.885	289.79
823.273	345.96
823.662	329.58
824.05	348.3
824.439	369.37
824.827	329.58
825.216	259.36
825.604	254.68
825.992	282.77
826.38	271.06
826.768	301.49
827.156	322.56
827.544	329.58
827.932	338.94
828.32	250
828.708	292.13
829.096	275.74
829.483	296.81
829.871	254.68
830.259	266.38
830.646	268.72
831.034	308.51
831.421	271.06
831.808	282.77
832.196	303.83
832.583	345.96
832.97	334.26
833.357	357.66
833.744	287.45
834.131	275.74
834.518	310.85
834.905	322.56
835.292	292.13
835.678	331.92
836.065	364.68
836.452	273.4
836.838	289.79
837.225	310.85
837.611	266.38
837.998	348.3
838.384	301.49
838.77	282.77
839.157	301.49
839.543	327.24
839.929	352.98
840.315	343.62
840.701	250
841.087	348.3
841.473	278.08
841.858	275.74
842.244	303.83
842.63	280.43
843.015	292.13
843.401	617.46
843.787	350.64
844.172	303.83
844.557	296.81
844.943	329.58
845.328	268.72
845.713	317.87
846.098	322.56
846.483	308.51
846.868	376.39
847.253	369.37
847.638	357.66
848.023	280.43
848.408	296.81
848.793	268.72
849.177	350.64
849.562	324.9
849.947	292.13
850.331	308.51
850.715	388.09
851.1	285.11
851.484	331.92
851.868	334.26
852.253	268.72
852.637	313.19
853.021	350.64
853.405	285.11
853.789	327.24
854.173	313.19
854.557	257.02
854.94	331.92
855.324	299.15
855.708	338.94
856.091	271.06
856.475	299.15
856.858	317.87
857.242	268.72
857.625	343.62
858.009	367.03
858.392	306.17
858.775	268.72
859.158	289.79
859.541	331.92
859.924	296.81
860.307	299.15
860.69	345.96
861.073	367.03
861.456	355.32
861.838	308.51
862.221	315.53
862.604	310.85
862.986	264.04
863.369	334.26
863.751	306.17
864.133	266.38
864.516	381.07
864.898	310.85
865.28	280.43
865.662	313.19
866.044	303.83
866.426	345.96
866.808	301.49
867.19	301.49
867.572	317.87
867.954	327.24
868.336	357.66
868.717	282.77
869.099	352.98
869.48	362.34
869.862	301.49
870.243	282.77
870.625	324.9
871.006	392.77
871.387	317.87
871.768	310.85
872.149	296.81
872.53	247.66
872.911	348.3
873.292	315.53
873.673	381.07
874.054	327.24
874.435	238.3
874.815	357.66
875.196	341.28
875.577	341.28
875.957	292.13
876.338	280.43
876.718	357.66
877.098	271.06
877.479	294.47
877.859	324.9
878.239	310.85
878.619	296.81
878.999	367.03
879.379	345.96
879.759	289.79
880.139	362.34
880.519	285.11
880.898	268.72
881.278	329.58
881.658	338.94
882.037	308.51
882.417	252.34
882.796	299.15
883.176	352.98
883.555	287.45
883.934	329.58
884.313	301.49
884.693	287.45
885.072	341.28
885.451	327.24
885.83	343.62
886.209	240.64
886.587	345.96
886.966	327.24
887.345	324.9
887.724	327.24
888.102	350.64
888.481	306.17
888.859	268.72
889.238	369.37
889.616	287.45
889.994	331.92
890.373	266.38
890.751	233.61
891.129	280.43
891.507	322.56
891.885	266.38
892.263	345.96
892.641	324.9
893.019	320.21
893.396	341.28
893.774	299.15
894.152	310.85
894.529	327.24
894.907	310.85
895.284	350.64
895.662	320.21
896.039	310.85
896.416	268.72
896.794	329.58
897.171	313.19
897.548	338.94
897.925	338.94
898.302	336.6
898.679	329.58
899.056	303.83
899.433	287.45
899.809	320.21
900.186	306.17
900.563	292.13
900.939	345.96
901.316	360
901.692	362.34
902.069	322.56
902.445	357.66
902.821	259.36
903.197	299.15
903.574	275.74
903.95	345.96
904.326	264.04
904.702	289.79
905.078	338.94
905.454	360
905.829	324.9
906.205	329.58
906.581	315.53
906.956	348.3
907.332	360
907.707	275.74
908.083	273.4
908.458	289.79
908.833	315.53
909.209	271.06
909.584	242.98
909.959	278.08
910.334	296.81
910.709	285.11
911.084	282.77
911.459	343.62
911.834	294.47
912.209	350.64
912.583	317.87
912.958	250
913.333	289.79
913.707	322.56
914.082	331.92
914.456	254.68
914.83	299.15
915.205	362.34
915.579	303.83
915.953	271.06
916.327	254.68
916.701	371.71
917.075	308.51
917.449	289.79
917.823	292.13
918.197	264.04
918.571	350.64
918.944	306.17
919.318	334.26
919.692	310.85
920.065	273.4
920.438	322.56
920.812	219.57
921.185	261.7
921.558	240.64
921.932	287.45
922.305	242.98
922.678	336.6
923.051	334.26
923.424	289.79
923.797	360
924.17	292.13
924.542	324.9
924.915	327.24
925.288	264.04
925.661	364.68
926.033	343.62
926.406	289.79
926.778	296.81
927.15	334.26
927.523	334.26
927.895	294.47
928.267	306.17
928.639	280.43
929.011	322.56
929.383	299.15
929.755	336.6
930.127	336.6
930.499	292.13
930.871	322.56
931.242	273.4
931.614	310.85
931.986	278.08
932.357	296.81
932.729	322.56
933.1	315.53
933.471	338.94
933.843	228.93
934.214	266.38
934.585	289.79
934.956	331.92
935.327	254.68
935.698	313.19
936.069	299.15
936.44	292.13
936.811	322.56
937.182	320.21
937.552	294.47
937.923	273.4
938.293	334.26
938.664	299.15
939.034	371.71
939.405	299.15
939.775	357.66
940.145	327.24
940.516	278.08
940.886	341.28
941.256	292.13
941.626	259.36
941.996	292.13
942.366	271.06
942.735	280.43
943.105	282.77
943.475	257.02
943.845	296.81
944.214	352.98
944.584	338.94
944.953	320.21
945.323	308.51
945.692	294.47
946.061	331.92
946.43	334.26
946.8	352.98
947.169	231.27
947.538	303.83
947.907	271.06
948.276	275.74
948.645	388.09
949.013	294.47
949.382	271.06
949.751	357.66
950.119	294.47
950.488	327.24
950.857	228.93
951.225	310.85
951.593	362.34
951.962	303.83
952.33	278.08
952.698	275.74
953.066	287.45
953.434	322.56
953.802	294.47
954.17	275.74
954.538	341.28
954.906	308.51
955.274	308.51
955.642	289.79
956.009	285.11
956.377	252.34
956.744	310.85
957.112	390.43
957.479	343.62
957.847	275.74
958.214	310.85
958.581	320.21
958.948	350.64
959.315	341.28
959.683	275.74
960.05	320.21
960.416	296.81
960.783	364.68
961.15	345.96
961.517	336.6
961.884	301.49
962.25	317.87
962.617	292.13
962.983	352.98
963.35	287.45
963.716	315.53
964.082	296.81
964.449	301.49
964.815	289.79
965.181	336.6
965.547	303.83
965.913	257.02
966.279	324.9
966.645	324.9
967.011	235.96
967.377	313.19
967.742	369.37
968.108	378.73
968.474	299.15
968.839	324.9
969.205	299.15
969.57	331.92
969.935	261.7
970.301	292.13
970.666	308.51
971.031	268.72
971.396	275.74
971.761	315.53
972.126	348.3
972.491	287.45
972.856	331.92
973.221	294.47
973.586	322.56
973.95	315.53
974.315	350.64
974.679	299.15
975.044	275.74
975.408	299.15
975.773	308.51
976.137	285.11
976.501	324.9
976.866	345.96
977.23	231.27
977.594	296.81
977.958	313.19
978.322	355.32
978.686	278.08
979.049	285.11
979.413	303.83
979.777	294.47
980.141	352.98
980.504	317.87
980.868	289.79
981.231	360
981.595	308.51
981.958	271.06
982.321	310.85
982.684	315.53
983.048	327.24
983.411	306.17
983.774	292.13
984.137	301.49
984.5	350.64
984.862	329.58
985.225	233.61
985.588	338.94
985.951	334.26
986.313	275.74
986.676	385.75
987.038	329.58
987.401	334.26
987.763	345.96
988.125	289.79
988.488	278.08
988.85	287.45
989.212	308.51
989.574	329.58
989.936	310.85
990.298	303.83
990.66	257.02
991.022	282.77
991.383	231.27
991.745	287.45
992.107	336.6
992.468	327.24
992.83	320.21
993.191	280.43
993.553	369.37
993.914	343.62
994.275	287.45
994.637	254.68
994.998	287.45
995.359	261.7
995.72	280.43
996.081	336.6
996.442	357.66
996.803	257.02
997.163	338.94
997.524	362.34
997.885	334.26
998.245	343.62
998.606	285.11
998.966	329.58
999.327	299.15
999.687	317.87
1000.047	280.43
1000.408	285.11
1000.768	315.53
1001.128	320.21
1001.488	315.53
1001.848	259.36
1002.208	247.66
1002.568	247.66
1002.927	301.49
1003.287	341.28
1003.647	271.06
1004.007	275.74
1004.366	355.32
1004.726	296.81
1005.085	242.98
1005.444	250
1005.804	308.51
1006.163	343.62
1006.522	289.79
1006.881	259.36
1007.24	322.56
1007.599	221.91
1007.958	289.79
1008.317	287.45
1008.676	350.64
1009.035	289.79
1009.393	308.51
1009.752	273.4
1010.111	275.74
1010.469	308.51
1010.828	343.62
1011.186	310.85
1011.544	306.17
1011.903	285.11
1012.261	306.17
1012.619	341.28
1012.977	231.27
1013.335	285.11
1013.693	350.64
1014.051	285.11
1014.409	313.19
1014.767	360
1015.124	299.15
1015.482	341.28
1015.84	416.18
1016.197	383.41
1016.555	280.43
1016.912	320.21
1017.269	285.11
1017.627	360
1017.984	324.9
1018.341	320.21
1018.698	250
1019.055	275.74
1019.412	228.93
1019.769	317.87
1020.126	259.36
1020.483	317.87
1020.84	299.15
1021.196	299.15
1021.553	357.66
1021.909	317.87
1022.266	301.49
1022.622	376.39
1022.979	324.9
1023.335	357.66
1023.691	329.58
1024.047	235.96
1024.404	334.26
1024.76	313.19
1025.116	278.08
1025.472	287.45
1025.827	306.17
1026.183	331.92
1026.539	299.15
1026.895	345.96
1027.25	275.74
1027.606	313.19
1027.961	261.7
1028.317	278.08
1028.672	320.21
1029.028	247.66
1029.383	252.34
1029.738	310.85
1030.093	299.15
1030.448	235.96
1030.803	285.11
1031.158	329.58
1031.513	292.13
1031.868	334.26
1032.223	296.81
1032.577	266.38
1032.932	268.72
1033.287	329.58
1033.641	327.24
1033.996	336.6
1034.35	303.83
1034.704	247.66
1035.059	282.77
1035.413	334.26
1035.767	334.26
1036.121	334.26
