Data from Al_FLMS009871__786__15-21-47-514.txt Node

Date: Fri Mar 08 15:21:47 CST 2024
User: pe5414po
Spectrometer: FLMS00987
Trigger mode: 0
Integration Time (sec): 1.000000E-1
Scans to average: 1
Electric dark correction enabled: true
Nonlinearity correction enabled: false
Boxcar width: 0
XAxis mode: Wavelengths
Number of Pixels in Spectrum: 2048
>>>>>Begin Spectral Data<<<<<
188.938	-69.78
189.409	-69.78
189.879	-69.78
190.349	-130.63
190.819	-90.84
191.29	-76.8
191.76	-128.29
192.23	-58.07
192.7	-83.82
193.17	-125.95
193.64	-11.26
194.109	-32.33
194.579	2.78
195.049	33.21
195.519	-29.99
195.988	63.63
196.458	16.82
196.927	117.47
197.397	96.4
197.866	124.49
198.336	91.72
198.805	101.08
199.274	166.62
199.744	206.41
200.213	211.09
200.682	161.94
201.151	227.47
201.62	288.32
202.089	201.72
202.558	236.83
203.027	290.67
203.495	234.49
203.964	288.32
204.433	246.2
204.902	243.85
205.37	285.98
205.839	323.43
206.307	283.64
206.776	314.07
207.244	276.62
207.712	236.83
208.181	227.47
208.649	276.62
209.117	293.01
209.585	302.37
210.053	253.22
210.521	220.45
210.989	264.92
211.457	276.62
211.925	276.62
212.393	300.03
212.861	213.43
213.328	262.58
213.796	236.83
214.264	302.37
214.731	248.54
215.199	260.24
215.666	285.98
216.133	243.85
216.601	285.98
217.068	335.14
217.535	278.96
218.003	307.05
218.47	337.48
218.937	241.51
219.404	232.15
219.871	260.24
220.338	236.83
220.805	262.58
221.271	260.24
221.738	227.47
222.205	241.51
222.671	248.54
223.138	229.81
223.605	218.11
224.071	239.17
224.538	246.2
225.004	199.38
225.47	227.47
225.937	271.94
226.403	199.38
226.869	248.54
227.335	257.9
227.801	309.39
228.267	248.54
228.733	365.56
229.199	222.79
229.665	269.6
230.131	300.03
230.597	283.64
231.062	281.3
231.528	222.79
231.994	278.96
232.459	328.11
232.925	183
233.39	253.22
233.856	255.56
234.321	278.96
234.786	271.94
235.252	250.88
235.717	271.94
236.182	220.45
236.647	241.51
237.112	271.94
237.577	274.28
238.042	314.07
238.507	325.77
238.972	274.28
239.436	290.67
239.901	211.09
240.366	241.51
240.83	264.92
241.295	262.58
241.76	234.49
242.224	293.01
242.688	278.96
243.153	267.26
243.617	271.94
244.081	257.9
244.545	257.9
245.01	372.58
245.474	283.64
245.938	309.39
246.402	255.56
246.866	278.96
247.33	288.32
247.793	243.85
248.257	220.45
248.721	309.39
249.185	222.79
249.648	255.56
250.112	314.07
250.575	321.09
251.039	295.35
251.502	386.63
251.965	346.84
252.429	288.32
252.892	243.85
253.355	255.56
253.818	239.17
254.281	257.9
254.744	260.24
255.207	243.85
255.67	262.58
256.133	274.28
256.596	339.82
257.059	283.64
257.522	234.49
257.984	285.98
258.447	295.35
258.909	271.94
259.372	346.84
259.834	253.22
260.297	255.56
260.759	293.01
261.221	300.03
261.684	243.85
262.146	304.71
262.608	295.35
263.07	323.43
263.532	332.79
263.994	295.35
264.456	330.45
264.918	274.28
265.38	311.73
265.842	293.01
266.303	349.18
266.765	351.52
267.227	285.98
267.688	342.16
268.15	281.3
268.611	253.22
269.072	278.96
269.534	255.56
269.995	311.73
270.456	267.26
270.918	295.35
271.379	325.77
271.84	267.26
272.301	225.13
272.762	302.37
273.223	293.01
273.684	307.05
274.144	307.05
274.605	281.3
275.066	262.58
275.527	328.11
275.987	288.32
276.448	344.5
276.908	337.48
277.369	262.58
277.829	290.67
278.289	339.82
278.75	349.18
279.21	267.26
279.67	285.98
280.13	257.9
280.59	267.26
281.05	318.75
281.51	330.45
281.97	344.5
282.43	236.83
282.89	311.73
283.35	281.3
283.809	253.22
284.269	283.64
284.729	323.43
285.188	271.94
285.648	262.58
286.107	234.49
286.567	337.48
287.026	353.86
287.485	271.94
287.944	328.11
288.404	295.35
288.863	257.9
289.322	283.64
289.781	243.85
290.24	337.48
290.699	278.96
291.158	274.28
291.616	253.22
292.075	314.07
292.534	314.07
292.992	288.32
293.451	262.58
293.91	323.43
294.368	381.95
294.827	274.28
295.285	269.6
295.743	351.52
296.202	302.37
296.66	335.14
297.118	365.56
297.576	297.69
298.034	325.77
298.492	295.35
298.95	311.73
299.408	285.98
299.866	349.18
300.324	311.73
300.781	311.73
301.239	304.71
301.697	250.88
302.154	248.54
302.612	328.11
303.069	337.48
303.527	264.92
303.984	232.15
304.441	344.5
304.899	276.62
305.356	295.35
305.813	342.16
306.27	241.51
306.727	344.5
307.184	311.73
307.641	236.83
308.098	316.41
308.555	349.18
309.012	246.2
309.468	248.54
309.925	318.75
310.382	297.69
310.838	300.03
311.295	412.37
311.751	293.01
312.208	281.3
312.664	293.01
313.12	318.75
313.577	290.67
314.033	328.11
314.489	271.94
314.945	234.49
315.401	314.07
315.857	257.9
316.313	248.54
316.769	267.26
317.225	318.75
317.681	349.18
318.136	344.5
318.592	288.32
319.048	307.05
319.503	323.43
319.959	314.07
320.414	255.56
320.869	377.27
321.325	269.6
321.78	339.82
322.235	316.41
322.691	342.16
323.146	285.98
323.601	297.69
324.056	332.79
324.511	316.41
324.966	363.22
325.421	293.01
325.875	302.37
326.33	358.54
326.785	278.96
327.24	321.09
327.694	346.84
328.149	257.9
328.603	253.22
329.058	311.73
329.512	342.16
329.966	267.26
330.421	321.09
330.875	206.41
331.329	304.71
331.783	297.69
332.237	321.09
332.691	360.88
333.145	328.11
333.599	278.96
334.053	288.32
334.507	304.71
334.96	297.69
335.414	318.75
335.868	311.73
336.321	283.64
336.775	321.09
337.228	269.6
337.682	295.35
338.135	295.35
338.588	295.35
339.042	267.26
339.495	391.31
339.948	255.56
340.401	344.5
340.854	330.45
341.307	316.41
341.76	321.09
342.213	257.9
342.666	353.86
343.119	365.56
343.571	293.01
344.024	229.81
344.477	311.73
344.929	335.14
345.382	281.3
345.834	281.3
346.287	339.82
346.739	323.43
347.191	274.28
347.644	346.84
348.096	337.48
348.548	323.43
349	307.05
349.452	304.71
349.904	374.92
350.356	304.71
350.808	339.82
351.26	246.2
351.711	321.09
352.163	281.3
352.615	316.41
353.066	295.35
353.518	328.11
353.969	332.79
354.421	323.43
354.872	283.64
355.324	321.09
355.775	379.61
356.226	358.54
356.677	302.37
357.128	342.16
357.579	314.07
358.03	283.64
358.481	290.67
358.932	309.39
359.383	255.56
359.834	283.64
360.285	332.79
360.735	318.75
361.186	314.07
361.637	290.67
362.087	276.62
362.538	321.09
362.988	337.48
363.438	260.24
363.889	342.16
364.339	297.69
364.789	304.71
365.239	318.75
365.689	344.5
366.139	353.86
366.589	278.96
367.039	325.77
367.489	290.67
367.939	297.69
368.389	311.73
368.839	302.37
369.288	325.77
369.738	379.61
370.187	367.9
370.637	285.98
371.086	281.3
371.536	302.37
371.985	321.09
372.434	262.58
372.884	250.88
373.333	220.45
373.782	281.3
374.231	374.92
374.68	304.71
375.129	283.64
375.578	335.14
376.027	323.43
376.475	271.94
376.924	344.5
377.373	281.3
377.822	297.69
378.27	349.18
378.719	323.43
379.167	363.22
379.616	337.48
380.064	335.14
380.512	332.79
380.961	330.45
381.409	288.32
381.857	328.11
382.305	278.96
382.753	274.28
383.201	225.13
383.649	316.41
384.097	337.48
384.545	391.31
384.992	342.16
385.44	365.56
385.888	297.69
386.335	332.79
386.783	353.86
387.231	358.54
387.678	309.39
388.125	255.56
388.573	302.37
389.02	335.14
389.467	295.35
389.914	323.43
390.362	257.9
390.809	370.24
391.256	297.69
391.703	330.45
392.15	283.64
392.596	330.45
393.043	325.77
393.49	325.77
393.937	304.71
394.383	300.03
394.83	295.35
395.276	335.14
395.723	297.69
396.169	260.24
396.616	337.48
397.062	293.01
397.508	321.09
397.954	218.11
398.401	288.32
398.847	281.3
399.293	300.03
399.739	318.75
400.185	267.26
400.631	288.32
401.076	314.07
401.522	328.11
401.968	243.85
402.414	255.56
402.859	274.28
403.305	321.09
403.75	337.48
404.196	337.48
404.641	314.07
405.086	314.07
405.532	309.39
405.977	295.35
406.422	271.94
406.867	339.82
407.312	349.18
407.757	342.16
408.202	311.73
408.647	276.62
409.092	332.79
409.537	262.58
409.982	311.73
410.426	290.67
410.871	274.28
411.316	236.83
411.76	346.84
412.205	356.2
412.649	360.88
413.093	314.07
413.538	370.24
413.982	314.07
414.426	290.67
414.87	293.01
415.314	307.05
415.758	325.77
416.202	358.54
416.646	285.98
417.09	300.03
417.534	246.2
417.978	353.86
418.421	328.11
418.865	307.05
419.309	314.07
419.752	281.3
420.196	349.18
420.639	276.62
421.083	307.05
421.526	307.05
421.969	304.71
422.412	356.2
422.856	452.16
423.299	311.73
423.742	363.22
424.185	330.45
424.628	281.3
425.071	332.79
425.513	346.84
425.956	316.41
426.399	342.16
426.842	234.49
427.284	363.22
427.727	314.07
428.169	363.22
428.612	274.28
429.054	360.88
429.497	344.5
429.939	274.28
430.381	325.77
430.823	300.03
431.265	349.18
431.707	335.14
432.149	281.3
432.591	246.2
433.033	403.01
433.475	337.48
433.917	353.86
434.359	285.98
434.8	304.71
435.242	332.79
435.684	290.67
436.125	316.41
436.567	363.22
437.008	297.69
437.449	344.5
437.891	309.39
438.332	302.37
438.773	353.86
439.214	307.05
439.656	325.77
440.097	295.35
440.538	346.84
440.978	335.14
441.419	325.77
441.86	288.32
442.301	316.41
442.742	281.3
443.182	335.14
443.623	339.82
444.063	367.9
444.504	311.73
444.944	295.35
445.385	386.63
445.825	342.16
446.265	257.9
446.706	271.94
447.146	278.96
447.586	281.3
448.026	321.09
448.466	307.05
448.906	262.58
449.346	321.09
449.786	304.71
450.225	215.77
450.665	316.41
451.105	295.35
451.544	309.39
451.984	288.32
452.424	300.03
452.863	325.77
453.302	321.09
453.742	323.43
454.181	330.45
454.62	262.58
455.059	241.51
455.499	365.56
455.938	353.86
456.377	360.88
456.816	248.54
457.254	311.73
457.693	257.9
458.132	297.69
458.571	288.32
459.01	344.5
459.448	323.43
459.887	344.5
460.325	358.54
460.764	288.32
461.202	335.14
461.641	372.58
462.079	395.99
462.517	337.48
462.955	321.09
463.393	274.28
463.832	367.9
464.27	267.26
464.708	276.62
465.145	332.79
465.583	290.67
466.021	351.52
466.459	358.54
466.897	321.09
467.334	297.69
467.772	257.9
468.209	321.09
468.647	285.98
469.084	267.26
469.522	307.05
469.959	293.01
470.396	332.79
470.833	316.41
471.271	311.73
471.708	311.73
472.145	346.84
472.582	321.09
473.019	250.88
473.456	304.71
473.892	337.48
474.329	243.85
474.766	309.39
475.202	302.37
475.639	307.05
476.076	346.84
476.512	285.98
476.949	295.35
477.385	290.67
477.821	260.24
478.258	323.43
478.694	307.05
479.13	264.92
479.566	328.11
480.002	307.05
480.438	278.96
480.874	307.05
481.31	262.58
481.746	290.67
482.181	260.24
482.617	349.18
483.053	321.09
483.488	295.35
483.924	300.03
484.36	311.73
484.795	323.43
485.23	318.75
485.666	391.31
486.101	328.11
486.536	360.88
486.971	335.14
487.407	304.71
487.842	335.14
488.277	309.39
488.712	311.73
489.146	321.09
489.581	391.31
490.016	311.73
490.451	290.67
490.885	328.11
491.32	318.75
491.755	232.15
492.189	323.43
492.624	257.9
493.058	332.79
493.492	248.54
493.927	307.05
494.361	363.22
494.795	372.58
495.229	367.9
495.663	293.01
496.097	349.18
496.531	278.96
496.965	227.47
497.399	304.71
497.833	290.67
498.266	281.3
498.7	339.82
499.134	281.3
499.567	316.41
500.001	276.62
500.434	290.67
500.868	304.71
501.301	328.11
501.734	293.01
502.168	311.73
502.601	360.88
503.034	297.69
503.467	285.98
503.9	314.07
504.333	304.71
504.766	302.37
505.199	367.9
505.632	311.73
506.064	283.64
506.497	391.31
506.93	309.39
507.362	365.56
507.795	257.9
508.227	346.84
508.66	335.14
509.092	356.2
509.524	318.75
509.956	325.77
510.389	276.62
510.821	330.45
511.253	342.16
511.685	309.39
512.117	302.37
512.549	293.01
512.981	374.92
513.412	288.32
513.844	267.26
514.276	337.48
514.707	365.56
515.139	337.48
515.571	297.69
516.002	349.18
516.433	267.26
516.865	248.54
517.296	342.16
517.727	391.31
518.159	271.94
518.59	330.45
519.021	335.14
519.452	232.15
519.883	246.2
520.314	267.26
520.744	370.24
521.175	330.45
521.606	316.41
522.037	290.67
522.467	269.6
522.898	339.82
523.328	300.03
523.759	297.69
524.189	271.94
524.62	311.73
525.05	300.03
525.48	267.26
525.91	264.92
526.341	370.24
526.771	328.11
527.201	295.35
527.631	349.18
528.061	421.74
528.49	260.24
528.92	309.39
529.35	316.41
529.78	379.61
530.209	276.62
530.639	344.5
531.068	276.62
531.498	311.73
531.927	330.45
532.357	330.45
532.786	278.96
533.215	316.41
533.644	295.35
534.074	285.98
534.503	290.67
534.932	349.18
535.361	278.96
535.79	358.54
536.218	264.92
536.647	337.48
537.076	318.75
537.505	288.32
537.933	276.62
538.362	342.16
538.79	356.2
539.219	295.35
539.647	274.28
540.076	335.14
540.504	307.05
540.932	271.94
541.36	293.01
541.788	253.22
542.217	339.82
542.645	367.9
543.073	346.84
543.5	323.43
543.928	309.39
544.356	318.75
544.784	295.35
545.211	304.71
545.639	260.24
546.067	318.75
546.494	323.43
546.922	255.56
547.349	283.64
547.776	321.09
548.204	281.3
548.631	335.14
549.058	318.75
549.485	318.75
549.912	267.26
550.339	285.98
550.766	339.82
551.193	271.94
551.62	295.35
552.047	288.32
552.474	307.05
552.9	365.56
553.327	360.88
553.754	344.5
554.18	241.51
554.607	321.09
555.033	253.22
555.459	321.09
555.886	335.14
556.312	339.82
556.738	295.35
557.164	281.3
557.59	314.07
558.016	293.01
558.442	360.88
558.868	344.5
559.294	342.16
559.72	321.09
560.145	276.62
560.571	311.73
560.997	260.24
561.422	321.09
561.848	328.11
562.273	377.27
562.699	276.62
563.124	316.41
563.549	290.67
563.974	300.03
564.4	365.56
564.825	274.28
565.25	293.01
565.675	342.16
566.1	262.58
566.525	290.67
566.95	318.75
567.374	309.39
567.799	302.37
568.224	295.35
568.648	318.75
569.073	253.22
569.497	323.43
569.922	253.22
570.346	339.82
570.771	328.11
571.195	323.43
571.619	321.09
572.043	337.48
572.467	356.2
572.891	314.07
573.315	349.18
573.739	328.11
574.163	267.26
574.587	323.43
575.011	293.01
575.435	304.71
575.858	332.79
576.282	264.92
576.705	344.5
577.129	314.07
577.552	255.56
577.976	288.32
578.399	323.43
578.822	288.32
579.245	288.32
579.669	285.98
580.092	274.28
580.515	321.09
580.938	363.22
581.361	381.95
581.784	283.64
582.206	309.39
582.629	285.98
583.052	250.88
583.474	363.22
583.897	328.11
584.32	323.43
584.742	269.6
585.165	344.5
585.587	297.69
586.009	332.79
586.431	325.77
586.854	344.5
587.276	335.14
587.698	269.6
588.12	302.37
588.542	307.05
588.964	260.24
589.386	246.2
589.807	283.64
590.229	304.71
590.651	321.09
591.073	307.05
591.494	318.75
591.916	323.43
592.337	311.73
592.759	271.94
593.18	321.09
593.601	314.07
594.022	297.69
594.444	290.67
594.865	314.07
595.286	342.16
595.707	325.77
596.128	269.6
596.549	360.88
596.97	325.77
597.39	339.82
597.811	278.96
598.232	250.88
598.652	307.05
599.073	349.18
599.494	267.26
599.914	269.6
600.334	264.92
600.755	311.73
601.175	318.75
601.595	302.37
602.015	335.14
602.436	365.56
602.856	412.37
603.276	290.67
603.696	285.98
604.115	325.77
604.535	332.79
604.955	318.75
605.375	276.62
605.794	353.86
606.214	325.77
606.634	321.09
607.053	304.71
607.473	335.14
607.892	349.18
608.311	274.28
608.731	267.26
609.15	288.32
609.569	381.95
609.988	290.67
610.407	318.75
610.826	278.96
611.245	321.09
611.664	325.77
612.083	276.62
612.501	346.84
612.92	339.82
613.339	337.48
613.757	330.45
614.176	311.73
614.594	276.62
615.013	295.35
615.431	271.94
615.85	328.11
616.268	304.71
616.686	325.77
617.104	297.69
617.522	356.2
617.94	379.61
618.358	302.37
618.776	293.01
619.194	311.73
619.612	271.94
620.03	316.41
620.447	360.88
620.865	328.11
621.282	314.07
621.7	332.79
622.117	321.09
622.535	349.18
622.952	295.35
623.369	344.5
623.787	274.28
624.204	290.67
624.621	342.16
625.038	311.73
625.455	325.77
625.872	206.41
626.289	309.39
626.706	293.01
627.123	257.9
627.539	330.45
627.956	314.07
628.373	290.67
628.789	351.52
629.206	367.9
629.622	318.75
630.038	307.05
630.455	332.79
630.871	232.15
631.287	332.79
631.703	225.13
632.12	288.32
632.536	283.64
632.952	316.41
633.368	246.2
633.783	360.88
634.199	278.96
634.615	262.58
635.031	264.92
635.446	276.62
635.862	283.64
636.277	293.01
636.693	323.43
637.108	337.48
637.524	321.09
637.939	300.03
638.354	365.56
638.77	363.22
639.185	323.43
639.6	328.11
640.015	281.3
640.43	276.62
640.845	227.47
641.259	307.05
641.674	309.39
642.089	290.67
642.504	339.82
642.918	328.11
643.333	316.41
643.747	370.24
644.162	290.67
644.576	332.79
644.991	323.43
645.405	297.69
645.819	250.88
646.233	332.79
646.647	325.77
647.061	339.82
647.475	316.41
647.889	339.82
648.303	367.9
648.717	353.86
649.131	356.2
649.545	325.77
649.958	360.88
650.372	346.84
650.785	302.37
651.199	304.71
651.612	321.09
652.026	288.32
652.439	234.49
652.852	290.67
653.266	241.51
653.679	295.35
654.092	316.41
654.505	290.67
654.918	314.07
655.331	344.5
655.744	297.69
656.156	293.01
656.569	304.71
656.982	377.27
657.394	288.32
657.807	335.14
658.22	257.9
658.632	339.82
659.044	332.79
659.457	260.24
659.869	283.64
660.281	232.15
660.693	295.35
661.106	321.09
661.518	311.73
661.93	295.35
662.342	316.41
662.754	330.45
663.165	309.39
663.577	290.67
663.989	363.22
664.401	335.14
664.812	253.22
665.224	290.67
665.635	323.43
666.047	330.45
666.458	330.45
666.869	342.16
667.281	318.75
667.692	311.73
668.103	323.43
668.514	304.71
668.925	316.41
669.336	332.79
669.747	314.07
670.158	278.96
670.569	358.54
670.979	316.41
671.39	358.54
671.801	269.6
672.211	255.56
672.622	318.75
673.032	349.18
673.443	318.75
673.853	344.5
674.263	281.3
674.674	314.07
675.084	257.9
675.494	267.26
675.904	344.5
676.314	323.43
676.724	288.32
677.134	363.22
677.544	302.37
677.953	293.01
678.363	297.69
678.773	363.22
679.182	335.14
679.592	271.94
680.001	257.9
680.411	321.09
680.82	311.73
681.23	227.47
681.639	257.9
682.048	311.73
682.457	314.07
682.866	318.75
683.275	239.17
683.684	330.45
684.093	388.97
684.502	264.92
684.911	295.35
685.32	288.32
685.728	257.9
686.137	260.24
686.546	290.67
686.954	321.09
687.363	288.32
687.771	377.27
688.179	321.09
688.588	309.39
688.996	257.9
689.404	283.64
689.812	267.26
690.22	346.84
690.628	281.3
691.036	316.41
691.444	309.39
691.852	386.63
692.26	337.48
692.667	346.84
693.075	255.56
693.483	262.58
693.89	300.03
694.298	257.9
694.705	290.67
695.112	342.16
695.52	356.2
695.927	281.3
696.334	250.88
696.741	332.79
697.148	325.77
697.555	337.48
697.962	215.77
698.369	325.77
698.776	264.92
699.183	311.73
699.59	342.16
699.996	332.79
700.403	316.41
700.81	314.07
701.216	328.11
701.623	307.05
702.029	278.96
702.435	269.6
702.842	335.14
703.248	290.67
703.654	335.14
704.06	330.45
704.466	386.63
704.872	316.41
705.278	257.9
705.684	274.28
706.09	309.39
706.496	290.67
706.901	386.63
707.307	269.6
707.712	323.43
708.118	332.79
708.523	276.62
708.929	262.58
709.334	274.28
709.74	307.05
710.145	302.37
710.55	335.14
710.955	267.26
711.36	328.11
711.765	316.41
712.17	346.84
712.575	278.96
712.98	779.84
713.385	314.07
713.789	363.22
714.194	365.56
714.599	335.14
715.003	318.75
715.408	386.63
715.812	344.5
716.217	328.11
716.621	255.56
717.025	346.84
717.429	332.79
717.833	311.73
718.238	300.03
718.642	360.88
719.046	220.45
719.449	293.01
719.853	342.16
720.257	360.88
720.661	278.96
721.065	377.27
721.468	262.58
721.872	283.64
722.275	367.9
722.679	316.41
723.082	257.9
723.485	332.79
723.889	328.11
724.292	276.62
724.695	297.69
725.098	335.14
725.501	353.86
725.904	328.11
726.307	283.64
726.71	307.05
727.113	307.05
727.516	307.05
727.918	271.94
728.321	295.35
728.724	316.41
729.126	307.05
729.529	330.45
729.931	318.75
730.333	377.27
730.736	311.73
731.138	325.77
731.54	262.58
731.942	300.03
732.344	281.3
732.746	337.48
733.148	307.05
733.55	314.07
733.952	300.03
734.354	342.16
734.756	290.67
735.157	358.54
735.559	363.22
735.96	281.3
736.362	283.64
736.763	300.03
737.165	295.35
737.566	288.32
737.967	318.75
738.368	300.03
738.77	328.11
739.171	358.54
739.572	278.96
739.973	328.11
740.374	285.98
740.774	285.98
741.175	300.03
741.576	353.86
741.977	346.84
742.377	255.56
742.778	307.05
743.178	285.98
743.579	349.18
743.979	229.81
744.379	276.62
744.78	307.05
745.18	278.96
745.58	262.58
745.98	395.99
746.38	311.73
746.78	278.96
747.18	321.09
747.58	337.48
747.98	332.79
748.38	300.03
748.779	288.32
749.179	290.67
749.578	257.9
749.978	260.24
750.377	323.43
750.777	283.64
751.176	295.35
751.575	363.22
751.975	321.09
752.374	307.05
752.773	276.62
753.172	316.41
753.571	293.01
753.97	295.35
754.369	302.37
754.768	349.18
755.166	339.82
755.565	318.75
755.964	307.05
756.362	285.98
756.761	314.07
757.159	323.43
757.558	318.75
757.956	349.18
758.354	274.28
758.753	269.6
759.151	311.73
759.549	271.94
759.947	257.9
760.345	332.79
760.743	372.58
761.141	295.35
761.539	285.98
761.936	302.37
762.334	302.37
762.732	307.05
763.129	386.63
763.527	316.41
763.924	346.84
764.322	360.88
764.719	264.92
765.117	356.2
765.514	339.82
765.911	342.16
766.308	302.37
766.705	337.48
767.102	309.39
767.499	290.67
767.896	307.05
768.293	285.98
768.69	342.16
769.086	290.67
769.483	384.29
769.88	372.58
770.276	325.77
770.673	330.45
771.069	225.13
771.466	332.79
771.862	307.05
772.258	293.01
772.654	300.03
773.05	318.75
773.447	339.82
773.843	307.05
774.239	300.03
774.634	262.58
775.03	314.07
775.426	342.16
775.822	358.54
776.218	295.35
776.613	309.39
777.009	358.54
777.404	283.64
777.8	300.03
778.195	339.82
778.59	388.97
778.986	337.48
779.381	314.07
779.776	337.48
780.171	295.35
780.566	293.01
780.961	257.9
781.356	302.37
781.751	300.03
782.146	288.32
782.54	290.67
782.935	400.67
783.33	351.52
783.724	332.79
784.119	339.82
784.513	285.98
784.908	335.14
785.302	293.01
785.696	325.77
786.09	346.84
786.485	316.41
786.879	325.77
787.273	300.03
787.667	363.22
788.061	290.67
788.454	302.37
788.848	367.9
789.242	243.85
789.636	311.73
790.029	271.94
790.423	276.62
790.816	332.79
791.21	267.26
791.603	328.11
791.997	314.07
792.39	330.45
792.783	321.09
793.176	278.96
793.569	267.26
793.962	316.41
794.355	229.81
794.748	300.03
795.141	311.73
795.534	335.14
795.927	363.22
796.319	241.51
796.712	328.11
797.105	314.07
797.497	349.18
797.89	325.77
798.282	288.32
798.674	304.71
799.067	330.45
799.459	309.39
799.851	283.64
800.243	339.82
800.635	297.69
801.027	290.67
801.419	379.61
801.811	276.62
802.203	365.56
802.594	358.54
802.986	295.35
803.378	311.73
803.769	246.2
804.161	304.71
804.552	365.56
804.944	264.92
805.335	337.48
805.726	323.43
806.118	358.54
806.509	300.03
806.9	342.16
807.291	318.75
807.682	349.18
808.073	290.67
808.464	262.58
808.855	297.69
809.245	318.75
809.636	276.62
810.027	318.75
810.417	285.98
810.808	278.96
811.198	271.94
811.589	278.96
811.979	314.07
812.369	344.5
812.759	344.5
813.15	314.07
813.54	269.6
813.93	302.37
814.32	283.64
814.71	344.5
815.1	363.22
815.489	288.32
815.879	276.62
816.269	332.79
816.658	321.09
817.048	288.32
817.438	293.01
817.827	344.5
818.216	339.82
818.606	328.11
818.995	321.09
819.384	370.24
819.773	307.05
820.163	295.35
820.552	314.07
820.941	290.67
821.33	335.14
821.718	307.05
822.107	297.69
822.496	339.82
822.885	337.48
823.273	363.22
823.662	293.01
824.05	274.28
824.439	332.79
824.827	342.16
825.216	264.92
825.604	239.17
825.992	309.39
826.38	302.37
826.768	283.64
827.156	304.71
827.544	330.45
827.932	346.84
828.32	356.2
828.708	300.03
829.096	353.86
829.483	290.67
829.871	360.88
830.259	332.79
830.646	309.39
831.034	302.37
831.421	346.84
831.808	307.05
832.196	241.51
832.583	342.16
832.97	314.07
833.357	337.48
833.744	232.15
834.131	344.5
834.518	339.82
834.905	316.41
835.292	262.58
835.678	311.73
836.065	325.77
836.452	267.26
836.838	311.73
837.225	323.43
837.611	337.48
837.998	335.14
838.384	302.37
838.77	360.88
839.157	335.14
839.543	262.58
839.929	321.09
840.315	309.39
840.701	311.73
841.087	274.28
841.473	360.88
841.858	318.75
842.244	314.07
842.63	360.88
843.015	360.88
843.401	550.46
843.787	300.03
844.172	307.05
844.557	241.51
844.943	283.64
845.328	307.05
845.713	285.98
846.098	293.01
846.483	246.2
846.868	281.3
847.253	293.01
847.638	288.32
848.023	295.35
848.408	309.39
848.793	290.67
849.177	285.98
849.562	335.14
849.947	283.64
850.331	351.52
850.715	328.11
851.1	297.69
851.484	302.37
851.868	351.52
852.253	283.64
852.637	323.43
853.021	363.22
853.405	276.62
853.789	250.88
854.173	304.71
854.557	307.05
854.94	330.45
855.324	311.73
855.708	353.86
856.091	283.64
856.475	274.28
856.858	304.71
857.242	309.39
857.625	335.14
858.009	356.2
858.392	304.71
858.775	297.69
859.158	346.84
859.541	330.45
859.924	281.3
860.307	264.92
860.69	358.54
861.073	374.92
861.456	314.07
861.838	328.11
862.221	323.43
862.604	229.81
862.986	314.07
863.369	274.28
863.751	337.48
864.133	288.32
864.516	325.77
864.898	325.77
865.28	220.45
865.662	323.43
866.044	358.54
866.426	358.54
866.808	349.18
867.19	278.96
867.572	410.03
867.954	225.13
868.336	356.2
868.717	295.35
869.099	344.5
869.48	325.77
869.862	337.48
870.243	248.54
870.625	302.37
871.006	288.32
871.387	311.73
871.768	234.49
872.149	339.82
872.53	304.71
872.911	236.83
873.292	253.22
873.673	276.62
874.054	229.81
874.435	339.82
874.815	206.41
875.196	253.22
875.577	339.82
875.957	349.18
876.338	360.88
876.718	337.48
877.098	304.71
877.479	300.03
877.859	318.75
878.239	358.54
878.619	295.35
878.999	321.09
879.379	300.03
879.759	328.11
880.139	295.35
880.519	255.56
880.898	356.2
881.278	267.26
881.658	370.24
882.037	325.77
882.417	309.39
882.796	304.71
883.176	339.82
883.555	321.09
883.934	372.58
884.313	304.71
884.693	283.64
885.072	360.88
885.451	318.75
885.83	255.56
886.209	269.6
886.587	318.75
886.966	283.64
887.345	267.26
887.724	314.07
888.102	255.56
888.481	346.84
888.859	323.43
889.238	353.86
889.616	353.86
889.994	318.75
890.373	281.3
890.751	321.09
891.129	325.77
891.507	302.37
891.885	276.62
892.263	267.26
892.641	318.75
893.019	232.15
893.396	257.9
893.774	377.27
894.152	307.05
894.529	295.35
894.907	344.5
895.284	307.05
895.662	239.17
896.039	349.18
896.416	269.6
896.794	330.45
897.171	278.96
897.548	264.92
897.925	290.67
898.302	302.37
898.679	337.48
899.056	293.01
899.433	300.03
899.809	314.07
900.186	271.94
900.563	332.79
900.939	370.24
901.316	388.97
901.692	260.24
902.069	342.16
902.445	288.32
902.821	260.24
903.197	339.82
903.574	288.32
903.95	325.77
904.326	321.09
904.702	297.69
905.078	328.11
905.454	255.56
905.829	349.18
906.205	304.71
906.581	311.73
906.956	332.79
907.332	314.07
907.707	314.07
908.083	339.82
908.458	351.52
908.833	293.01
909.209	316.41
909.584	283.64
909.959	304.71
910.334	316.41
910.709	314.07
911.084	316.41
911.459	309.39
911.834	241.51
912.209	288.32
912.583	372.58
912.958	213.43
913.333	318.75
913.707	325.77
914.082	302.37
914.456	358.54
914.83	307.05
915.205	328.11
915.579	316.41
915.953	384.29
916.327	328.11
916.701	297.69
917.075	281.3
917.449	283.64
917.823	328.11
918.197	328.11
918.571	353.86
918.944	300.03
919.318	342.16
919.692	337.48
920.065	314.07
920.438	316.41
920.812	318.75
921.185	325.77
921.558	328.11
921.932	260.24
922.305	293.01
922.678	351.52
923.051	250.88
923.424	285.98
923.797	377.27
924.17	328.11
924.542	316.41
924.915	325.77
925.288	288.32
925.661	332.79
926.033	300.03
926.406	260.24
926.778	321.09
927.15	288.32
927.523	208.75
927.895	318.75
928.267	293.01
928.639	332.79
929.011	325.77
929.383	323.43
929.755	300.03
930.127	346.84
930.499	339.82
930.871	293.01
931.242	316.41
931.614	346.84
931.986	309.39
932.357	281.3
932.729	323.43
933.1	330.45
933.471	271.94
933.843	285.98
934.214	300.03
934.585	278.96
934.956	253.22
935.327	300.03
935.698	349.18
936.069	314.07
936.44	311.73
936.811	328.11
937.182	300.03
937.552	393.65
937.923	311.73
938.293	346.84
938.664	309.39
939.034	323.43
939.405	337.48
939.775	257.9
940.145	285.98
940.516	262.58
940.886	246.2
941.256	332.79
941.626	344.5
941.996	307.05
942.366	276.62
942.735	346.84
943.105	349.18
943.475	325.77
943.845	274.28
944.214	349.18
944.584	285.98
944.953	304.71
945.323	339.82
945.692	304.71
946.061	332.79
946.43	278.96
946.8	307.05
947.169	281.3
947.538	297.69
947.907	302.37
948.276	288.32
948.645	297.69
949.013	328.11
949.382	260.24
949.751	300.03
950.119	377.27
950.488	250.88
950.857	300.03
951.225	330.45
951.593	332.79
951.962	314.07
952.33	269.6
952.698	248.54
953.066	234.49
953.434	288.32
953.802	222.79
954.17	316.41
954.538	264.92
954.906	304.71
955.274	283.64
955.642	335.14
956.009	246.2
956.377	290.67
956.744	325.77
957.112	304.71
957.479	325.77
957.847	281.3
958.214	323.43
958.581	288.32
958.948	353.86
959.315	372.58
959.683	314.07
960.05	302.37
960.416	367.9
960.783	288.32
961.15	321.09
961.517	278.96
961.884	295.35
962.25	328.11
962.617	302.37
962.983	332.79
963.35	377.27
963.716	367.9
964.082	337.48
964.449	304.71
964.815	325.77
965.181	328.11
965.547	346.84
965.913	281.3
966.279	307.05
966.645	316.41
967.011	318.75
967.377	304.71
967.742	276.62
968.108	274.28
968.474	321.09
968.839	295.35
969.205	250.88
969.57	283.64
969.935	295.35
970.301	267.26
970.666	283.64
971.031	363.22
971.396	285.98
971.761	335.14
972.126	255.56
972.491	262.58
972.856	321.09
973.221	363.22
973.586	349.18
973.95	318.75
974.315	243.85
974.679	337.48
975.044	335.14
975.408	285.98
975.773	295.35
976.137	314.07
976.501	337.48
976.866	278.96
977.23	264.92
977.594	307.05
977.958	316.41
978.322	323.43
978.686	316.41
979.049	276.62
979.413	325.77
979.777	311.73
980.141	302.37
980.504	311.73
980.868	255.56
981.231	274.28
981.595	360.88
981.958	295.35
982.321	309.39
982.684	314.07
983.048	318.75
983.411	264.92
983.774	264.92
984.137	257.9
984.5	321.09
984.862	332.79
985.225	328.11
985.588	281.3
985.951	372.58
986.313	271.94
986.676	278.96
987.038	314.07
987.401	304.71
987.763	330.45
988.125	271.94
988.488	339.82
988.85	344.5
989.212	250.88
989.574	328.11
989.936	300.03
990.298	332.79
990.66	288.32
991.022	330.45
991.383	323.43
991.745	356.2
992.107	283.64
992.468	325.77
992.83	356.2
993.191	293.01
993.553	332.79
993.914	257.9
994.275	353.86
994.637	290.67
994.998	276.62
995.359	311.73
995.72	274.28
996.081	274.28
996.442	281.3
996.803	227.47
997.163	318.75
997.524	267.26
997.885	328.11
998.245	248.54
998.606	262.58
998.966	276.62
999.327	400.67
999.687	290.67
1000.047	344.5
1000.408	276.62
1000.768	381.95
1001.128	316.41
1001.488	248.54
1001.848	377.27
1002.208	321.09
1002.568	311.73
1002.927	288.32
1003.287	227.47
1003.647	285.98
1004.007	300.03
1004.366	295.35
1004.726	316.41
1005.085	351.52
1005.444	274.28
1005.804	304.71
1006.163	293.01
1006.522	302.37
1006.881	302.37
1007.24	276.62
1007.599	335.14
1007.958	267.26
1008.317	323.43
1008.676	281.3
1009.035	297.69
1009.393	269.6
1009.752	339.82
1010.111	311.73
1010.469	271.94
1010.828	358.54
1011.186	232.15
1011.544	337.48
1011.903	346.84
1012.261	328.11
1012.619	285.98
1012.977	293.01
1013.335	300.03
1013.693	342.16
1014.051	281.3
1014.409	288.32
1014.767	271.94
1015.124	309.39
1015.482	311.73
1015.84	271.94
1016.197	260.24
1016.555	328.11
1016.912	239.17
1017.269	314.07
1017.627	351.52
1017.984	246.2
1018.341	253.22
1018.698	353.86
1019.055	283.64
1019.412	241.51
1019.769	323.43
1020.126	318.75
1020.483	274.28
1020.84	304.71
1021.196	269.6
1021.553	297.69
1021.909	314.07
1022.266	346.84
1022.622	283.64
1022.979	241.51
1023.335	311.73
1023.691	381.95
1024.047	318.75
1024.404	332.79
1024.76	236.83
1025.116	370.24
1025.472	339.82
1025.827	271.94
1026.183	339.82
1026.539	323.43
1026.895	316.41
1027.25	318.75
1027.606	351.52
1027.961	332.79
1028.317	293.01
1028.672	307.05
1029.028	346.84
1029.383	367.9
1029.738	278.96
1030.093	365.56
1030.448	367.9
1030.803	332.79
1031.158	314.07
1031.513	293.01
1031.868	225.13
1032.223	271.94
1032.577	311.73
1032.932	283.64
1033.287	328.11
1033.641	332.79
1033.996	309.39
1034.35	281.3
1034.704	309.39
1035.059	229.81
1035.413	353.86
1035.767	353.86
1036.121	353.86
