Data from Al_FLMS009871__788__15-21-47-714.txt Node

Date: Fri Mar 08 15:21:47 CST 2024
User: pe5414po
Spectrometer: FLMS00987
Trigger mode: 0
Integration Time (sec): 1.000000E-1
Scans to average: 1
Electric dark correction enabled: true
Nonlinearity correction enabled: false
Boxcar width: 0
XAxis mode: Wavelengths
Number of Pixels in Spectrum: 2048
>>>>>Begin Spectral Data<<<<<
188.938	-68.31
189.409	-68.31
189.879	-68.31
190.349	-166.62
190.819	-117.47
191.29	-112.78
191.76	-54.27
192.23	-131.51
192.7	-63.63
193.17	-98.74
193.64	-58.95
194.109	-16.82
194.579	-7.46
195.049	20.63
195.519	18.29
195.988	-9.8
196.458	72.12
196.927	39.35
197.397	142.33
197.866	156.38
198.336	104.89
198.805	116.59
199.274	142.33
199.744	132.97
200.213	168.08
200.682	184.46
201.151	135.31
201.62	184.46
202.089	264.04
202.558	231.27
203.027	261.7
203.495	257.02
203.964	182.12
204.433	254.68
204.902	228.93
205.37	231.27
205.839	336.6
206.307	299.15
206.776	296.81
207.244	289.79
207.712	261.7
208.181	207.87
208.649	264.04
209.117	313.19
209.585	306.17
210.053	254.68
210.521	259.36
210.989	324.9
211.457	294.47
211.925	247.66
212.393	231.27
212.861	252.34
213.328	341.28
213.796	275.74
214.264	224.25
214.731	261.7
215.199	273.4
215.666	261.7
216.133	280.43
216.601	212.55
217.068	292.13
217.535	264.04
218.003	338.94
218.47	203.19
218.937	205.53
219.404	287.45
219.871	343.62
220.338	226.59
220.805	280.43
221.271	273.4
221.738	266.38
222.205	233.61
222.671	235.96
223.138	221.91
223.605	264.04
224.071	205.53
224.538	235.96
225.004	259.36
225.47	257.02
225.937	273.4
226.403	357.66
226.869	287.45
227.335	196.17
227.801	233.61
228.267	221.91
228.733	268.72
229.199	308.51
229.665	278.08
230.131	264.04
230.597	233.61
231.062	257.02
231.528	212.55
231.994	219.57
232.459	292.13
232.925	189.14
233.39	233.61
233.856	261.7
234.321	242.98
234.786	175.1
235.252	231.27
235.717	296.81
236.182	217.23
236.647	287.45
237.112	299.15
237.577	261.7
238.042	224.25
238.507	226.59
238.972	238.3
239.436	320.21
239.901	179.78
240.366	240.64
240.83	264.04
241.295	233.61
241.76	278.08
242.224	259.36
242.688	238.3
243.153	250
243.617	315.53
244.081	289.79
244.545	280.43
245.01	275.74
245.474	275.74
245.938	303.83
246.402	259.36
246.866	273.4
247.33	294.47
247.793	214.89
248.257	294.47
248.721	280.43
249.185	278.08
249.648	317.87
250.112	245.32
250.575	271.06
251.039	245.32
251.502	308.51
251.965	254.68
252.429	287.45
252.892	250
253.355	282.77
253.818	254.68
254.281	287.45
254.744	285.11
255.207	280.43
255.67	175.1
256.133	287.45
256.596	280.43
257.059	322.56
257.522	235.96
257.984	303.83
258.447	303.83
258.909	296.81
259.372	238.3
259.834	268.72
260.297	196.17
260.759	285.11
261.221	261.7
261.684	308.51
262.146	242.98
262.608	278.08
263.07	294.47
263.532	254.68
263.994	296.81
264.456	320.21
264.918	257.02
265.38	271.06
265.842	217.23
266.303	271.06
266.765	338.94
267.227	308.51
267.688	203.19
268.15	231.27
268.611	235.96
269.072	306.17
269.534	292.13
269.995	252.34
270.456	238.3
270.918	264.04
271.379	247.66
271.84	264.04
272.301	240.64
272.762	322.56
273.223	259.36
273.684	261.7
274.144	273.4
274.605	294.47
275.066	369.37
275.527	285.11
275.987	338.94
276.448	296.81
276.908	271.06
277.369	299.15
277.829	285.11
278.289	287.45
278.75	224.25
279.21	310.85
279.67	259.36
280.13	271.06
280.59	317.87
281.05	254.68
281.51	287.45
281.97	228.93
282.43	306.17
282.89	338.94
283.35	250
283.809	313.19
284.269	266.38
284.729	317.87
285.188	278.08
285.648	285.11
286.107	322.56
286.567	299.15
287.026	250
287.485	261.7
287.944	242.98
288.404	313.19
288.863	254.68
289.322	313.19
289.781	310.85
290.24	245.32
290.699	299.15
291.158	324.9
291.616	275.74
292.075	306.17
292.534	296.81
292.992	334.26
293.451	299.15
293.91	308.51
294.368	313.19
294.827	275.74
295.285	336.6
295.743	264.04
296.202	278.08
296.66	303.83
297.118	355.32
297.576	278.08
298.034	264.04
298.492	252.34
298.95	308.51
299.408	212.55
299.866	238.3
300.324	329.58
300.781	287.45
301.239	296.81
301.697	285.11
302.154	275.74
302.612	254.68
303.069	308.51
303.527	285.11
303.984	247.66
304.441	224.25
304.899	334.26
305.356	310.85
305.813	247.66
306.27	317.87
306.727	278.08
307.184	280.43
307.641	264.04
308.098	313.19
308.555	207.87
309.012	350.64
309.468	324.9
309.925	240.64
310.382	242.98
310.838	245.32
311.295	280.43
311.751	322.56
312.208	336.6
312.664	315.53
313.12	324.9
313.577	292.13
314.033	228.93
314.489	273.4
314.945	233.61
315.401	275.74
315.857	343.62
316.313	285.11
316.769	324.9
317.225	296.81
317.681	280.43
318.136	336.6
318.592	271.06
319.048	303.83
319.503	280.43
319.959	250
320.414	306.17
320.869	287.45
321.325	275.74
321.78	287.45
322.235	308.51
322.691	294.47
323.146	317.87
323.601	242.98
324.056	327.24
324.511	296.81
324.966	271.06
325.421	292.13
325.875	231.27
326.33	343.62
326.785	317.87
327.24	254.68
327.694	306.17
328.149	247.66
328.603	247.66
329.058	259.36
329.512	292.13
329.966	294.47
330.421	308.51
330.875	275.74
331.329	271.06
331.783	310.85
332.237	303.83
332.691	338.94
333.145	294.47
333.599	273.4
334.053	324.9
334.507	322.56
334.96	301.49
335.414	289.79
335.868	292.13
336.321	303.83
336.775	289.79
337.228	278.08
337.682	320.21
338.135	306.17
338.588	303.83
339.042	273.4
339.495	313.19
339.948	320.21
340.401	275.74
340.854	257.02
341.307	296.81
341.76	271.06
342.213	292.13
342.666	336.6
343.119	285.11
343.571	350.64
344.024	296.81
344.477	273.4
344.929	329.58
345.382	275.74
345.834	275.74
346.287	257.02
346.739	254.68
347.191	268.72
347.644	294.47
348.096	275.74
348.548	289.79
349	245.32
349.452	345.96
349.904	257.02
350.356	285.11
350.808	292.13
351.26	278.08
351.711	240.64
352.163	285.11
352.615	341.28
353.066	268.72
353.518	331.92
353.969	285.11
354.421	341.28
354.872	322.56
355.324	308.51
355.775	303.83
356.226	247.66
356.677	322.56
357.128	271.06
357.579	329.58
358.03	313.19
358.481	303.83
358.932	313.19
359.383	296.81
359.834	324.9
360.285	266.38
360.735	317.87
361.186	392.77
361.637	345.96
362.087	313.19
362.538	271.06
362.988	301.49
363.438	282.77
363.889	310.85
364.339	317.87
364.789	320.21
365.239	278.08
365.689	264.04
366.139	348.3
366.589	287.45
367.039	315.53
367.489	303.83
367.939	338.94
368.389	212.55
368.839	294.47
369.288	317.87
369.738	252.34
370.187	320.21
370.637	303.83
371.086	228.93
371.536	268.72
371.985	306.17
372.434	254.68
372.884	308.51
373.333	313.19
373.782	289.79
374.231	280.43
374.68	338.94
375.129	278.08
375.578	345.96
376.027	282.77
376.475	376.39
376.924	352.98
377.373	294.47
377.822	296.81
378.27	329.58
378.719	292.13
379.167	261.7
379.616	294.47
380.064	285.11
380.512	390.43
380.961	334.26
381.409	306.17
381.857	289.79
382.305	313.19
382.753	350.64
383.201	383.41
383.649	308.51
384.097	292.13
384.545	303.83
384.992	331.92
385.44	310.85
385.888	348.3
386.335	268.72
386.783	275.74
387.231	331.92
387.678	287.45
388.125	343.62
388.573	313.19
389.02	388.09
389.467	313.19
389.914	257.02
390.362	294.47
390.809	364.68
391.256	355.32
391.703	303.83
392.15	280.43
392.596	271.06
393.043	235.96
393.49	287.45
393.937	285.11
394.383	315.53
394.83	287.45
395.276	329.58
395.723	275.74
396.169	261.7
396.616	294.47
397.062	322.56
397.508	320.21
397.954	280.43
398.401	273.4
398.847	252.34
399.293	327.24
399.739	329.58
400.185	310.85
400.631	324.9
401.076	381.07
401.522	273.4
401.968	301.49
402.414	320.21
402.859	247.66
403.305	285.11
403.75	268.72
404.196	296.81
404.641	273.4
405.086	378.73
405.532	327.24
405.977	303.83
406.422	285.11
406.867	310.85
407.312	364.68
407.757	287.45
408.202	266.38
408.647	289.79
409.092	282.77
409.537	320.21
409.982	308.51
410.426	313.19
410.871	334.26
411.316	348.3
411.76	250
412.205	296.81
412.649	303.83
413.093	275.74
413.538	352.98
413.982	308.51
414.426	294.47
414.87	317.87
415.314	303.83
415.758	331.92
416.202	395.11
416.646	327.24
417.09	343.62
417.534	317.87
417.978	322.56
418.421	264.04
418.865	315.53
419.309	322.56
419.752	367.03
420.196	266.38
420.639	343.62
421.083	308.51
421.526	345.96
421.969	301.49
422.412	331.92
422.856	308.51
423.299	301.49
423.742	362.34
424.185	292.13
424.628	257.02
425.071	287.45
425.513	282.77
425.956	317.87
426.399	306.17
426.842	271.06
427.284	327.24
427.727	362.34
428.169	352.98
428.612	322.56
429.054	357.66
429.497	292.13
429.939	317.87
430.381	289.79
430.823	336.6
431.265	278.08
431.707	259.36
432.149	315.53
432.591	310.85
433.033	320.21
433.475	355.32
433.917	327.24
434.359	322.56
434.8	310.85
435.242	282.77
435.684	268.72
436.125	367.03
436.567	308.51
437.008	292.13
437.449	367.03
437.891	313.19
438.332	296.81
438.773	306.17
439.214	306.17
439.656	362.34
440.097	317.87
440.538	336.6
440.978	378.73
441.419	303.83
441.86	322.56
442.301	287.45
442.742	315.53
443.182	350.64
443.623	392.77
444.063	313.19
444.504	336.6
444.944	364.68
445.385	261.7
445.825	320.21
446.265	308.51
446.706	315.53
447.146	385.75
447.586	334.26
448.026	343.62
448.466	315.53
448.906	345.96
449.346	264.04
449.786	275.74
450.225	341.28
450.665	289.79
451.105	371.71
451.544	343.62
451.984	327.24
452.424	336.6
452.863	264.04
453.302	322.56
453.742	289.79
454.181	324.9
454.62	282.77
455.059	268.72
455.499	271.06
455.938	254.68
456.377	322.56
456.816	310.85
457.254	322.56
457.693	292.13
458.132	334.26
458.571	322.56
459.01	324.9
459.448	327.24
459.887	296.81
460.325	317.87
460.764	345.96
461.202	317.87
461.641	413.84
462.079	294.47
462.517	343.62
462.955	334.26
463.393	282.77
463.832	278.08
464.27	341.28
464.708	275.74
465.145	294.47
465.583	357.66
466.021	336.6
466.459	336.6
466.897	294.47
467.334	322.56
467.772	306.17
468.209	357.66
468.647	371.71
469.084	266.38
469.522	345.96
469.959	322.56
470.396	338.94
470.833	257.02
471.271	271.06
471.708	324.9
472.145	341.28
472.582	324.9
473.019	275.74
473.456	329.58
473.892	308.51
474.329	322.56
474.766	336.6
475.202	313.19
475.639	390.43
476.076	287.45
476.512	331.92
476.949	306.17
477.385	275.74
477.821	313.19
478.258	252.34
478.694	327.24
479.13	280.43
479.566	336.6
480.002	275.74
480.438	296.81
480.874	296.81
481.31	278.08
481.746	254.68
482.181	285.11
482.617	308.51
483.053	285.11
483.488	303.83
483.924	357.66
484.36	327.24
484.795	296.81
485.23	280.43
485.666	303.83
486.101	329.58
486.536	357.66
486.971	317.87
487.407	264.04
487.842	313.19
488.277	352.98
488.712	315.53
489.146	348.3
489.581	334.26
490.016	285.11
490.451	313.19
490.885	327.24
491.32	287.45
491.755	280.43
492.189	331.92
492.624	257.02
493.058	329.58
493.492	336.6
493.927	278.08
494.361	261.7
494.795	364.68
495.229	278.08
495.663	324.9
496.097	327.24
496.531	334.26
496.965	282.77
497.399	313.19
497.833	303.83
498.266	352.98
498.7	350.64
499.134	292.13
499.567	261.7
500.001	360
500.434	360
500.868	317.87
501.301	306.17
501.734	296.81
502.168	336.6
502.601	271.06
503.034	352.98
503.467	289.79
503.9	308.51
504.333	320.21
504.766	292.13
505.199	331.92
505.632	338.94
506.064	273.4
506.497	315.53
506.93	268.72
507.362	317.87
507.795	296.81
508.227	301.49
508.66	350.64
509.092	219.57
509.524	329.58
509.956	331.92
510.389	329.58
510.821	280.43
511.253	355.32
511.685	301.49
512.117	294.47
512.549	310.85
512.981	292.13
513.412	292.13
513.844	306.17
514.276	336.6
514.707	381.07
515.139	338.94
515.571	254.68
516.002	327.24
516.433	352.98
516.865	261.7
517.296	320.21
517.727	287.45
518.159	362.34
518.59	345.96
519.021	385.75
519.452	329.58
519.883	322.56
520.314	345.96
520.744	343.62
521.175	357.66
521.606	296.81
522.037	345.96
522.467	264.04
522.898	275.74
523.328	287.45
523.759	374.05
524.189	306.17
524.62	324.9
525.05	299.15
525.48	350.64
525.91	306.17
526.341	355.32
526.771	317.87
527.201	254.68
527.631	313.19
528.061	336.6
528.49	268.72
528.92	240.64
529.35	231.27
529.78	308.51
530.209	296.81
530.639	341.28
531.068	313.19
531.498	303.83
531.927	310.85
532.357	289.79
532.786	257.02
533.215	299.15
533.644	308.51
534.074	310.85
534.503	338.94
534.932	308.51
535.361	338.94
535.79	348.3
536.218	240.64
536.647	306.17
537.076	324.9
537.505	254.68
537.933	306.17
538.362	327.24
538.79	369.37
539.219	331.92
539.647	254.68
540.076	280.43
540.504	334.26
540.932	299.15
541.36	322.56
541.788	324.9
542.217	273.4
542.645	327.24
543.073	282.77
543.5	331.92
543.928	308.51
544.356	264.04
544.784	348.3
545.211	310.85
545.639	341.28
546.067	315.53
546.494	334.26
546.922	296.81
547.349	320.21
547.776	331.92
548.204	313.19
548.631	355.32
549.058	336.6
549.485	371.71
549.912	280.43
550.339	280.43
550.766	352.98
551.193	320.21
551.62	308.51
552.047	352.98
552.474	268.72
552.9	322.56
553.327	338.94
553.754	282.77
554.18	313.19
554.607	327.24
555.033	275.74
555.459	250
555.886	352.98
556.312	345.96
556.738	296.81
557.164	280.43
557.59	308.51
558.016	327.24
558.442	296.81
558.868	317.87
559.294	273.4
559.72	338.94
560.145	320.21
560.571	327.24
560.997	310.85
561.422	310.85
561.848	268.72
562.273	381.07
562.699	324.9
563.124	278.08
563.549	329.58
563.974	345.96
564.4	331.92
564.825	327.24
565.25	285.11
565.675	306.17
566.1	301.49
566.525	294.47
566.95	320.21
567.374	266.38
567.799	313.19
568.224	189.14
568.648	308.51
569.073	352.98
569.497	374.05
569.922	289.79
570.346	338.94
570.771	348.3
571.195	313.19
571.619	306.17
572.043	334.26
572.467	282.77
572.891	296.81
573.315	341.28
573.739	317.87
574.163	271.06
574.587	315.53
575.011	345.96
575.435	317.87
575.858	357.66
576.282	296.81
576.705	303.83
577.129	254.68
577.552	320.21
577.976	334.26
578.399	271.06
578.822	374.05
579.245	301.49
579.669	296.81
580.092	289.79
580.515	334.26
580.938	306.17
581.361	259.36
581.784	275.74
582.206	292.13
582.629	355.32
583.052	261.7
583.474	266.38
583.897	364.68
584.32	273.4
584.742	301.49
585.165	315.53
585.587	275.74
586.009	352.98
586.431	310.85
586.854	287.45
587.276	289.79
587.698	317.87
588.12	308.51
588.542	268.72
588.964	341.28
589.386	273.4
589.807	268.72
590.229	273.4
590.651	257.02
591.073	327.24
591.494	352.98
591.916	294.47
592.337	296.81
592.759	331.92
593.18	273.4
593.601	308.51
594.022	238.3
594.444	285.11
594.865	294.47
595.286	409.15
595.707	315.53
596.128	280.43
596.549	275.74
596.97	317.87
597.39	266.38
597.811	294.47
598.232	324.9
598.652	374.05
599.073	282.77
599.494	247.66
599.914	275.74
600.334	369.37
600.755	334.26
601.175	310.85
601.595	313.19
602.015	402.13
602.436	303.83
602.856	434.9
603.276	301.49
603.696	322.56
604.115	306.17
604.535	299.15
604.955	317.87
605.375	278.08
605.794	317.87
606.214	341.28
606.634	334.26
607.053	357.66
607.473	294.47
607.892	287.45
608.311	322.56
608.731	299.15
609.15	324.9
609.569	294.47
609.988	317.87
610.407	378.73
610.826	338.94
611.245	313.19
611.664	294.47
612.083	282.77
612.501	261.7
612.92	301.49
613.339	261.7
613.757	308.51
614.176	381.07
614.594	338.94
615.013	320.21
615.431	287.45
615.85	282.77
616.268	280.43
616.686	329.58
617.104	348.3
617.522	294.47
617.94	268.72
618.358	320.21
618.776	301.49
619.194	310.85
619.612	271.06
620.03	275.74
620.447	334.26
620.865	292.13
621.282	254.68
621.7	306.17
622.117	341.28
622.535	374.05
622.952	264.04
623.369	352.98
623.787	261.7
624.204	317.87
624.621	338.94
625.038	357.66
625.455	299.15
625.872	362.34
626.289	329.58
626.706	250
627.123	259.36
627.539	329.58
627.956	303.83
628.373	315.53
628.789	252.34
629.206	303.83
629.622	296.81
630.038	280.43
630.455	294.47
630.871	367.03
631.287	341.28
631.703	242.98
632.12	240.64
632.536	252.34
632.952	310.85
633.368	271.06
633.783	296.81
634.199	299.15
634.615	282.77
635.031	362.34
635.446	320.21
635.862	303.83
636.277	320.21
636.693	338.94
637.108	271.06
637.524	329.58
637.939	345.96
638.354	245.32
638.77	292.13
639.185	264.04
639.6	282.77
640.015	268.72
640.43	268.72
640.845	296.81
641.259	240.64
641.674	259.36
642.089	317.87
642.504	238.3
642.918	285.11
643.333	308.51
643.747	289.79
644.162	273.4
644.576	261.7
644.991	331.92
645.405	334.26
645.819	329.58
646.233	315.53
646.647	367.03
647.061	327.24
647.475	271.06
647.889	320.21
648.303	317.87
648.717	292.13
649.131	315.53
649.545	381.07
649.958	259.36
650.372	329.58
650.785	395.11
651.199	360
651.612	327.24
652.026	336.6
652.439	282.77
652.852	315.53
653.266	303.83
653.679	338.94
654.092	306.17
654.505	296.81
654.918	271.06
655.331	336.6
655.744	343.62
656.156	252.34
656.569	275.74
656.982	310.85
657.394	264.04
657.807	336.6
658.22	315.53
658.632	275.74
659.044	278.08
659.457	306.17
659.869	381.07
660.281	280.43
660.693	317.87
661.106	271.06
661.518	350.64
661.93	303.83
662.342	306.17
662.754	282.77
663.165	338.94
663.577	355.32
663.989	289.79
664.401	303.83
664.812	282.77
665.224	310.85
665.635	343.62
666.047	296.81
666.458	280.43
666.869	315.53
667.281	306.17
667.692	303.83
668.103	303.83
668.514	395.11
668.925	336.6
669.336	369.37
669.747	303.83
670.158	313.19
670.569	324.9
670.979	362.34
671.39	228.93
671.801	285.11
672.211	303.83
672.622	350.64
673.032	308.51
673.443	294.47
673.853	336.6
674.263	355.32
674.674	299.15
675.084	334.26
675.494	336.6
675.904	310.85
676.314	404.47
676.724	315.53
677.134	364.68
677.544	362.34
677.953	315.53
678.363	282.77
678.773	378.73
679.182	287.45
679.592	336.6
680.001	252.34
680.411	264.04
680.82	317.87
681.23	345.96
681.639	301.49
682.048	296.81
682.457	282.77
682.866	306.17
683.275	320.21
683.684	352.98
684.093	313.19
684.502	301.49
684.911	327.24
685.32	334.26
685.728	275.74
686.137	308.51
686.546	306.17
686.954	348.3
687.363	327.24
687.771	336.6
688.179	357.66
688.588	317.87
688.996	306.17
689.404	287.45
689.812	301.49
690.22	310.85
690.628	245.32
691.036	322.56
691.444	299.15
691.852	287.45
692.26	324.9
692.667	334.26
693.075	374.05
693.483	348.3
693.89	303.83
694.298	336.6
694.705	313.19
695.112	367.03
695.52	376.39
695.927	313.19
696.334	329.58
696.741	322.56
697.148	329.58
697.555	310.85
697.962	322.56
698.369	324.9
698.776	289.79
699.183	296.81
699.59	334.26
699.996	303.83
700.403	345.96
700.81	306.17
701.216	299.15
701.623	303.83
702.029	331.92
702.435	296.81
702.842	308.51
703.248	348.3
703.654	313.19
704.06	257.02
704.466	271.06
704.872	320.21
705.278	329.58
705.684	285.11
706.09	285.11
706.496	376.39
706.901	310.85
707.307	315.53
707.712	214.89
708.118	336.6
708.523	292.13
708.929	296.81
709.334	369.37
709.74	292.13
710.145	259.36
710.55	315.53
710.955	271.06
711.36	313.19
711.765	381.07
712.17	313.19
712.575	308.51
712.98	783.64
713.385	392.77
713.789	341.28
714.194	275.74
714.599	296.81
715.003	350.64
715.408	217.23
715.812	313.19
716.217	299.15
716.621	289.79
717.025	374.05
717.429	306.17
717.833	331.92
718.238	268.72
718.642	310.85
719.046	292.13
719.449	374.05
719.853	345.96
720.257	317.87
720.661	357.66
721.065	352.98
721.468	296.81
721.872	273.4
722.275	315.53
722.679	296.81
723.082	327.24
723.485	275.74
723.889	273.4
724.292	397.45
724.695	280.43
725.098	278.08
725.501	271.06
725.904	306.17
726.307	303.83
726.71	399.79
727.113	322.56
727.516	240.64
727.918	331.92
728.321	360
728.724	317.87
729.126	280.43
729.529	327.24
729.931	294.47
730.333	331.92
730.736	292.13
731.138	320.21
731.54	329.58
731.942	308.51
732.344	289.79
732.746	324.9
733.148	381.07
733.55	306.17
733.952	268.72
734.354	352.98
734.756	275.74
735.157	364.68
735.559	285.11
735.96	317.87
736.362	299.15
736.763	280.43
737.165	310.85
737.566	285.11
737.967	315.53
738.368	352.98
738.77	362.34
739.171	296.81
739.572	280.43
739.973	313.19
740.374	360
740.774	317.87
741.175	336.6
741.576	315.53
741.977	285.11
742.377	266.38
742.778	329.58
743.178	273.4
743.579	308.51
743.979	303.83
744.379	336.6
744.78	296.81
745.18	348.3
745.58	296.81
745.98	336.6
746.38	334.26
746.78	360
747.18	287.45
747.58	327.24
747.98	338.94
748.38	285.11
748.779	271.06
749.179	317.87
749.578	357.66
749.978	306.17
750.377	355.32
750.777	315.53
751.176	315.53
751.575	352.98
751.975	322.56
752.374	334.26
752.773	313.19
753.172	317.87
753.571	275.74
753.97	322.56
754.369	294.47
754.768	275.74
755.166	278.08
755.565	205.53
755.964	313.19
756.362	322.56
756.761	313.19
757.159	289.79
757.558	348.3
757.956	280.43
758.354	341.28
758.753	360
759.151	264.04
759.549	343.62
759.947	292.13
760.345	322.56
760.743	355.32
761.141	245.32
761.539	299.15
761.936	287.45
762.334	280.43
762.732	273.4
763.129	324.9
763.527	338.94
763.924	355.32
764.322	250
764.719	245.32
765.117	308.51
765.514	240.64
765.911	278.08
766.308	331.92
766.705	259.36
767.102	315.53
767.499	247.66
767.896	289.79
768.293	289.79
768.69	257.02
769.086	294.47
769.483	313.19
769.88	292.13
770.276	268.72
770.673	360
771.069	271.06
771.466	299.15
771.862	292.13
772.258	289.79
772.654	308.51
773.05	282.77
773.447	320.21
773.843	385.75
774.239	338.94
774.634	352.98
775.03	315.53
775.426	329.58
775.822	329.58
776.218	292.13
776.613	294.47
777.009	341.28
777.404	282.77
777.8	315.53
778.195	296.81
778.59	285.11
778.986	327.24
779.381	282.77
779.776	327.24
780.171	275.74
780.566	341.28
780.961	338.94
781.356	301.49
781.751	282.77
782.146	242.98
782.54	327.24
782.935	282.77
783.33	352.98
783.724	371.71
784.119	264.04
784.513	306.17
784.908	278.08
785.302	275.74
785.696	275.74
786.09	264.04
786.485	308.51
786.879	289.79
787.273	257.02
787.667	313.19
788.061	268.72
788.454	324.9
788.848	324.9
789.242	285.11
789.636	242.98
790.029	388.09
790.423	331.92
790.816	299.15
791.21	364.68
791.603	301.49
791.997	294.47
792.39	285.11
792.783	320.21
793.176	329.58
793.569	320.21
793.962	331.92
794.355	289.79
794.748	334.26
795.141	259.36
795.534	259.36
795.927	294.47
796.319	315.53
796.712	341.28
797.105	336.6
797.497	317.87
797.89	336.6
798.282	360
798.674	336.6
799.067	338.94
799.459	301.49
799.851	324.9
800.243	313.19
800.635	324.9
801.027	278.08
801.419	320.21
801.811	294.47
802.203	350.64
802.594	331.92
802.986	214.89
803.378	287.45
803.769	280.43
804.161	285.11
804.552	280.43
804.944	282.77
805.335	289.79
805.726	296.81
806.118	360
806.509	306.17
806.9	306.17
807.291	338.94
807.682	271.06
808.073	294.47
808.464	313.19
808.855	360
809.245	306.17
809.636	329.58
810.027	350.64
810.417	299.15
810.808	289.79
811.198	313.19
811.589	324.9
811.979	299.15
812.369	296.81
812.759	250
813.15	313.19
813.54	242.98
813.93	343.62
814.32	416.18
814.71	294.47
815.1	257.02
815.489	320.21
815.879	331.92
816.269	238.3
816.658	327.24
817.048	303.83
817.438	287.45
817.827	280.43
818.216	285.11
818.606	292.13
818.995	331.92
819.384	327.24
819.773	254.68
820.163	303.83
820.552	320.21
820.941	280.43
821.33	292.13
821.718	296.81
822.107	313.19
822.496	338.94
822.885	357.66
823.273	250
823.662	289.79
824.05	303.83
824.439	301.49
824.827	235.96
825.216	299.15
825.604	264.04
825.992	308.51
826.38	338.94
826.768	348.3
827.156	259.36
827.544	334.26
827.932	343.62
828.32	235.96
828.708	338.94
829.096	280.43
829.483	299.15
829.871	228.93
830.259	278.08
830.646	315.53
831.034	292.13
831.421	268.72
831.808	336.6
832.196	299.15
832.583	331.92
832.97	287.45
833.357	299.15
833.744	287.45
834.131	282.77
834.518	242.98
834.905	271.06
835.292	282.77
835.678	266.38
836.065	315.53
836.452	306.17
836.838	287.45
837.225	259.36
837.611	294.47
837.998	308.51
838.384	285.11
838.77	350.64
839.157	313.19
839.543	266.38
839.929	329.58
840.315	285.11
840.701	327.24
841.087	317.87
841.473	303.83
841.858	273.4
842.244	308.51
842.63	287.45
843.015	235.96
843.401	556.61
843.787	282.77
844.172	306.17
844.557	322.56
844.943	306.17
845.328	336.6
845.713	301.49
846.098	308.51
846.483	322.56
846.868	252.34
847.253	301.49
847.638	287.45
848.023	329.58
848.408	350.64
848.793	292.13
849.177	278.08
849.562	317.87
849.947	282.77
850.331	289.79
850.715	273.4
851.1	271.06
851.484	245.32
851.868	324.9
852.253	250
852.637	315.53
853.021	329.58
853.405	343.62
853.789	266.38
854.173	369.37
854.557	341.28
854.94	250
855.324	345.96
855.708	299.15
856.091	345.96
856.475	271.06
856.858	285.11
857.242	296.81
857.625	324.9
858.009	343.62
858.392	254.68
858.775	313.19
859.158	289.79
859.541	308.51
859.924	289.79
860.307	278.08
860.69	313.19
861.073	315.53
861.456	362.34
861.838	264.04
862.221	280.43
862.604	294.47
862.986	242.98
863.369	280.43
863.751	315.53
864.133	334.26
864.516	285.11
864.898	282.77
865.28	259.36
865.662	322.56
866.044	313.19
866.426	336.6
866.808	287.45
867.19	308.51
867.572	238.3
867.954	280.43
868.336	315.53
868.717	294.47
869.099	203.19
869.48	294.47
869.862	329.58
870.243	275.74
870.625	247.66
871.006	280.43
871.387	327.24
871.768	245.32
872.149	261.7
872.53	313.19
872.911	278.08
873.292	371.71
873.673	357.66
874.054	264.04
874.435	331.92
874.815	266.38
875.196	317.87
875.577	371.71
875.957	343.62
876.338	331.92
876.718	257.02
877.098	282.77
877.479	360
877.859	280.43
878.239	341.28
878.619	327.24
878.999	329.58
879.379	299.15
879.759	240.64
880.139	257.02
880.519	320.21
880.898	296.81
881.278	296.81
881.658	285.11
882.037	322.56
882.417	306.17
882.796	271.06
883.176	322.56
883.555	317.87
883.934	327.24
884.313	317.87
884.693	324.9
885.072	252.34
885.451	315.53
885.83	310.85
886.209	296.81
886.587	331.92
886.966	334.26
887.345	336.6
887.724	287.45
888.102	360
888.481	331.92
888.859	355.32
889.238	329.58
889.616	345.96
889.994	303.83
890.373	317.87
890.751	301.49
891.129	278.08
891.507	292.13
891.885	313.19
892.263	329.58
892.641	278.08
893.019	322.56
893.396	320.21
893.774	285.11
894.152	259.36
894.529	313.19
894.907	271.06
895.284	343.62
895.662	266.38
896.039	261.7
896.416	261.7
896.794	287.45
897.171	303.83
897.548	322.56
897.925	352.98
898.302	352.98
898.679	355.32
899.056	280.43
899.433	242.98
899.809	252.34
900.186	285.11
900.563	268.72
900.939	296.81
901.316	301.49
901.692	310.85
902.069	233.61
902.445	336.6
902.821	275.74
903.197	390.43
903.574	385.75
903.95	273.4
904.326	273.4
904.702	313.19
905.078	308.51
905.454	287.45
905.829	315.53
906.205	329.58
906.581	289.79
906.956	268.72
907.332	397.45
907.707	247.66
908.083	329.58
908.458	315.53
908.833	210.21
909.209	238.3
909.584	360
909.959	315.53
910.334	285.11
910.709	233.61
911.084	294.47
911.459	331.92
911.834	271.06
912.209	275.74
912.583	334.26
912.958	303.83
913.333	289.79
913.707	306.17
914.082	261.7
914.456	280.43
914.83	275.74
915.205	376.39
915.579	285.11
915.953	343.62
916.327	296.81
916.701	317.87
917.075	301.49
917.449	322.56
917.823	327.24
918.197	299.15
918.571	282.77
918.944	287.45
919.318	345.96
919.692	310.85
920.065	301.49
920.438	282.77
920.812	308.51
921.185	334.26
921.558	268.72
921.932	254.68
922.305	250
922.678	273.4
923.051	336.6
923.424	289.79
923.797	343.62
924.17	317.87
924.542	334.26
924.915	231.27
925.288	315.53
925.661	336.6
926.033	292.13
926.406	242.98
926.778	303.83
927.15	285.11
927.523	292.13
927.895	282.77
928.267	315.53
928.639	374.05
929.011	271.06
929.383	324.9
929.755	334.26
930.127	271.06
930.499	235.96
930.871	324.9
931.242	336.6
931.614	266.38
931.986	315.53
932.357	301.49
932.729	266.38
933.1	338.94
933.471	341.28
933.843	303.83
934.214	278.08
934.585	266.38
934.956	268.72
935.327	275.74
935.698	271.06
936.069	322.56
936.44	336.6
936.811	299.15
937.182	308.51
937.552	254.68
937.923	294.47
938.293	320.21
938.664	250
939.034	320.21
939.405	310.85
939.775	238.3
940.145	273.4
940.516	327.24
940.886	301.49
941.256	296.81
941.626	341.28
941.996	329.58
942.366	278.08
942.735	273.4
943.105	261.7
943.475	317.87
943.845	343.62
944.214	280.43
944.584	278.08
944.953	292.13
945.323	296.81
945.692	242.98
946.061	278.08
946.43	317.87
946.8	315.53
947.169	303.83
947.538	245.32
947.907	308.51
948.276	273.4
948.645	261.7
949.013	360
949.382	315.53
949.751	278.08
950.119	310.85
950.488	320.21
950.857	313.19
951.225	308.51
951.593	303.83
951.962	240.64
952.33	264.04
952.698	247.66
953.066	240.64
953.434	350.64
953.802	285.11
954.17	324.9
954.538	313.19
954.906	341.28
955.274	271.06
955.642	336.6
956.009	228.93
956.377	275.74
956.744	299.15
957.112	352.98
957.479	315.53
957.847	388.09
958.214	369.37
958.581	324.9
958.948	271.06
959.315	261.7
959.683	266.38
960.05	261.7
960.416	261.7
960.783	301.49
961.15	292.13
961.517	303.83
961.884	301.49
962.25	301.49
962.617	329.58
962.983	357.66
963.35	360
963.716	334.26
964.082	301.49
964.449	259.36
964.815	292.13
965.181	289.79
965.547	308.51
965.913	296.81
966.279	299.15
966.645	292.13
967.011	334.26
967.377	296.81
967.742	252.34
968.108	320.21
968.474	301.49
968.839	294.47
969.205	261.7
969.57	306.17
969.935	254.68
970.301	310.85
970.666	303.83
971.031	348.3
971.396	257.02
971.761	315.53
972.126	310.85
972.491	308.51
972.856	259.36
973.221	280.43
973.586	257.02
973.95	259.36
974.315	226.59
974.679	299.15
975.044	273.4
975.408	360
975.773	317.87
976.137	306.17
976.501	343.62
976.866	278.08
977.23	261.7
977.594	278.08
977.958	350.64
978.322	364.68
978.686	345.96
979.049	310.85
979.413	313.19
979.777	289.79
980.141	338.94
980.504	306.17
980.868	301.49
981.231	299.15
981.595	315.53
981.958	338.94
982.321	289.79
982.684	287.45
983.048	287.45
983.411	294.47
983.774	348.3
984.137	315.53
984.5	261.7
984.862	294.47
985.225	238.3
985.588	310.85
985.951	242.98
986.313	320.21
986.676	238.3
987.038	285.11
987.401	334.26
987.763	301.49
988.125	320.21
988.488	261.7
988.85	345.96
989.212	345.96
989.574	367.03
989.936	245.32
990.298	301.49
990.66	310.85
991.022	315.53
991.383	306.17
991.745	315.53
992.107	310.85
992.468	259.36
992.83	275.74
993.191	336.6
993.553	317.87
993.914	278.08
994.275	331.92
994.637	313.19
994.998	268.72
995.359	343.62
995.72	322.56
996.081	266.38
996.442	303.83
996.803	355.32
997.163	299.15
997.524	299.15
997.885	383.41
998.245	261.7
998.606	310.85
998.966	287.45
999.327	259.36
999.687	306.17
1000.047	296.81
1000.408	320.21
1000.768	289.79
1001.128	242.98
1001.488	331.92
1001.848	327.24
1002.208	362.34
1002.568	334.26
1002.927	235.96
1003.287	271.06
1003.647	329.58
1004.007	374.05
1004.366	308.51
1004.726	315.53
1005.085	306.17
1005.444	343.62
1005.804	282.77
1006.163	273.4
1006.522	233.61
1006.881	285.11
1007.24	294.47
1007.599	315.53
1007.958	292.13
1008.317	296.81
1008.676	303.83
1009.035	257.02
1009.393	285.11
1009.752	273.4
1010.111	238.3
1010.469	355.32
1010.828	271.06
1011.186	294.47
1011.544	306.17
1011.903	299.15
1012.261	282.77
1012.619	296.81
1012.977	303.83
1013.335	350.64
1013.693	315.53
1014.051	259.36
1014.409	303.83
1014.767	294.47
1015.124	266.38
1015.482	275.74
1015.84	313.19
1016.197	289.79
1016.555	271.06
1016.912	341.28
1017.269	280.43
1017.627	322.56
1017.984	301.49
1018.341	334.26
1018.698	289.79
1019.055	273.4
1019.412	257.02
1019.769	264.04
1020.126	322.56
1020.483	292.13
1020.84	278.08
1021.196	331.92
1021.553	329.58
1021.909	308.51
1022.266	264.04
1022.622	280.43
1022.979	289.79
1023.335	357.66
1023.691	282.77
1024.047	334.26
1024.404	334.26
1024.76	367.03
1025.116	245.32
1025.472	287.45
1025.827	322.56
1026.183	275.74
1026.539	315.53
1026.895	282.77
1027.25	308.51
1027.606	299.15
1027.961	266.38
1028.317	313.19
1028.672	287.45
1029.028	301.49
1029.383	357.66
1029.738	228.93
1030.093	313.19
1030.448	261.7
1030.803	310.85
1031.158	338.94
1031.513	299.15
1031.868	313.19
1032.223	306.17
1032.577	310.85
1032.932	306.17
1033.287	329.58
1033.641	285.11
1033.996	303.83
1034.35	301.49
1034.704	247.66
1035.059	296.81
1035.413	313.19
1035.767	313.19
1036.121	313.19
