Data from Al_FLMS009871__153__11-57-13-083.txt Node

Date: Fri Mar 08 11:57:13 CST 2024
User: pe5414po
Spectrometer: FLMS00987
Trigger mode: 0
Integration Time (sec): 1.000000E-1
Scans to average: 1
Electric dark correction enabled: true
Nonlinearity correction enabled: false
Boxcar width: 0
XAxis mode: Wavelengths
Number of Pixels in Spectrum: 2048
>>>>>Begin Spectral Data<<<<<
188.938	-138.09
189.409	-138.09
189.879	-138.09
190.349	-100.64
190.819	-166.18
191.29	-88.94
191.76	-98.3
192.23	-119.37
192.7	-70.22
193.17	-79.58
193.64	-77.24
194.109	2.34
194.579	-32.77
195.049	11.7
195.519	21.06
195.988	53.83
196.458	9.36
196.927	16.38
197.397	145.11
197.866	168.52
198.336	138.09
198.805	102.98
199.274	133.41
199.744	142.77
200.213	201.29
200.682	231.71
201.151	210.65
201.62	248.1
202.089	215.33
202.558	259.8
203.027	259.8
203.495	259.8
203.964	217.67
204.433	271.5
204.902	259.8
205.37	330.02
205.839	259.8
206.307	276.18
206.776	304.27
207.244	311.29
207.712	294.91
208.181	297.25
208.649	297.25
209.117	320.65
209.585	351.08
210.053	236.39
210.521	255.12
210.989	292.57
211.457	271.5
211.925	250.44
212.393	243.42
212.861	220.01
213.328	266.82
213.796	318.31
214.264	320.65
214.731	299.59
215.199	259.8
215.666	250.44
216.133	280.86
216.601	220.01
217.068	308.95
217.535	255.12
218.003	278.52
218.47	257.46
218.937	245.76
219.404	234.05
219.871	285.55
220.338	264.48
220.805	297.25
221.271	187.24
221.738	276.18
222.205	217.67
222.671	154.48
223.138	208.31
223.605	294.91
224.071	241.08
224.538	308.95
225.004	273.84
225.47	168.52
225.937	255.12
226.403	241.08
226.869	238.73
227.335	224.69
227.801	191.92
228.267	248.1
228.733	292.57
229.199	212.99
229.665	318.31
230.131	250.44
230.597	241.08
231.062	243.42
231.528	255.12
231.994	271.5
232.459	358.1
232.925	189.58
233.39	262.14
233.856	205.97
234.321	191.92
234.786	322.99
235.252	280.86
235.717	224.69
236.182	220.01
236.647	292.57
237.112	208.31
237.577	266.82
238.042	229.37
238.507	222.35
238.972	266.82
239.436	182.56
239.901	301.93
240.366	264.48
240.83	203.63
241.295	184.9
241.76	264.48
242.224	308.95
242.688	163.84
243.153	231.71
243.617	278.52
244.081	248.1
244.545	215.33
245.01	330.02
245.474	297.25
245.938	264.48
246.402	194.26
246.866	210.65
247.33	276.18
247.793	278.52
248.257	196.61
248.721	227.03
249.185	259.8
249.648	222.35
250.112	217.67
250.575	243.42
251.039	201.29
251.502	273.84
251.965	297.25
252.429	308.95
252.892	257.46
253.355	236.39
253.818	280.86
254.281	325.33
254.744	205.97
255.207	236.39
255.67	257.46
256.133	304.27
256.596	273.84
257.059	257.46
257.522	299.59
257.984	287.89
258.447	255.12
258.909	280.86
259.372	269.16
259.834	262.14
260.297	203.63
260.759	262.14
261.221	229.37
261.684	269.16
262.146	299.59
262.608	198.95
263.07	290.23
263.532	264.48
263.994	325.33
264.456	257.46
264.918	266.82
265.38	248.1
265.842	220.01
266.303	255.12
266.765	166.18
267.227	287.89
267.688	283.2
268.15	273.84
268.611	299.59
269.072	250.44
269.534	269.16
269.995	266.82
270.456	271.5
270.918	262.14
271.379	264.48
271.84	269.16
272.301	231.71
272.762	252.78
273.223	262.14
273.684	257.46
274.144	217.67
274.605	320.65
275.066	271.5
275.527	248.1
275.987	194.26
276.448	308.95
276.908	351.08
277.369	257.46
277.829	222.35
278.289	236.39
278.75	280.86
279.21	189.58
279.67	283.2
280.13	273.84
280.59	252.78
281.05	327.68
281.51	290.23
281.97	262.14
282.43	355.76
282.89	285.55
283.35	290.23
283.809	294.91
284.269	229.37
284.729	220.01
285.188	330.02
285.648	252.78
286.107	292.57
286.567	306.61
287.026	241.08
287.485	257.46
287.944	280.86
288.404	262.14
288.863	264.48
289.322	301.93
289.781	297.25
290.24	248.1
290.699	285.55
291.158	294.91
291.616	238.73
292.075	259.8
292.534	287.89
292.992	320.65
293.451	287.89
293.91	292.57
294.368	325.33
294.827	311.29
295.285	308.95
295.743	217.67
296.202	337.04
296.66	301.93
297.118	318.31
297.576	271.5
298.034	280.86
298.492	177.88
298.95	252.78
299.408	285.55
299.866	271.5
300.324	252.78
300.781	243.42
301.239	257.46
301.697	306.61
302.154	276.18
302.612	266.82
303.069	224.69
303.527	250.44
303.984	264.48
304.441	283.2
304.899	283.2
305.356	294.91
305.813	273.84
306.27	220.01
306.727	276.18
307.184	285.55
307.641	269.16
308.098	294.91
308.555	278.52
309.012	306.61
309.468	339.38
309.925	306.61
310.382	222.35
310.838	273.84
311.295	320.65
311.751	318.31
312.208	330.02
312.664	315.97
313.12	327.68
313.577	285.55
314.033	327.68
314.489	313.63
314.945	217.67
315.401	271.5
315.857	344.06
316.313	280.86
316.769	287.89
317.225	252.78
317.681	257.46
318.136	306.61
318.592	238.73
319.048	315.97
319.503	243.42
319.959	259.8
320.414	259.8
320.869	212.99
321.325	255.12
321.78	252.78
322.235	334.7
322.691	255.12
323.146	231.71
323.601	318.31
324.056	271.5
324.511	311.29
324.966	262.14
325.421	306.61
325.875	257.46
326.33	304.27
326.785	308.95
327.24	318.31
327.694	264.48
328.149	250.44
328.603	283.2
329.058	257.46
329.512	271.5
329.966	313.63
330.421	315.97
330.875	280.86
331.329	283.2
331.783	224.69
332.237	353.42
332.691	334.7
333.145	346.4
333.599	299.59
334.053	266.82
334.507	264.48
334.96	203.63
335.414	318.31
335.868	327.68
336.321	301.93
336.775	252.78
337.228	301.93
337.682	318.31
338.135	318.31
338.588	285.55
339.042	299.59
339.495	290.23
339.948	299.59
340.401	276.18
340.854	306.61
341.307	290.23
341.76	290.23
342.213	346.4
342.666	320.65
343.119	231.71
343.571	271.5
344.024	285.55
344.477	257.46
344.929	346.4
345.382	311.29
345.834	322.99
346.287	376.83
346.739	334.7
347.191	266.82
347.644	201.29
348.096	278.52
348.548	262.14
349	306.61
349.452	353.42
349.904	301.93
350.356	255.12
350.808	280.86
351.26	325.33
351.711	367.46
352.163	252.78
352.615	322.99
353.066	318.31
353.518	344.06
353.969	280.86
354.421	220.01
354.872	250.44
355.324	337.04
355.775	241.08
356.226	285.55
356.677	217.67
357.128	278.52
357.579	290.23
358.03	278.52
358.481	320.65
358.932	322.99
359.383	344.06
359.834	360.44
360.285	283.2
360.735	271.5
361.186	273.84
361.637	334.7
362.087	306.61
362.538	351.08
362.988	332.36
363.438	308.95
363.889	301.93
364.339	301.93
364.789	297.25
365.239	287.89
365.689	257.46
366.139	351.08
366.589	285.55
367.039	231.71
367.489	255.12
367.939	301.93
368.389	292.57
368.839	273.84
369.288	287.89
369.738	318.31
370.187	346.4
370.637	318.31
371.086	243.42
371.536	320.65
371.985	299.59
372.434	327.68
372.884	304.27
373.333	308.95
373.782	327.68
374.231	308.95
374.68	290.23
375.129	245.76
375.578	252.78
376.027	332.36
376.475	313.63
376.924	313.63
377.373	243.42
377.822	299.59
378.27	320.65
378.719	315.97
379.167	255.12
379.616	266.82
380.064	285.55
380.512	299.59
380.961	325.33
381.409	322.99
381.857	297.25
382.305	278.52
382.753	224.69
383.201	306.61
383.649	344.06
384.097	301.93
384.545	269.16
384.992	341.72
385.44	269.16
385.888	292.57
386.335	280.86
386.783	255.12
387.231	283.2
387.678	227.03
388.125	327.68
388.573	327.68
389.02	248.1
389.467	252.78
389.914	229.37
390.362	266.82
390.809	294.91
391.256	344.06
391.703	252.78
392.15	297.25
392.596	320.65
393.043	344.06
393.49	297.25
393.937	285.55
394.383	194.26
394.83	322.99
395.276	245.76
395.723	320.65
396.169	311.29
396.616	292.57
397.062	269.16
397.508	276.18
397.954	238.73
398.401	285.55
398.847	234.05
399.293	325.33
399.739	273.84
400.185	334.7
400.631	320.65
401.076	322.99
401.522	358.1
401.968	313.63
402.414	311.29
402.859	262.14
403.305	315.97
403.75	318.31
404.196	306.61
404.641	294.91
405.086	346.4
405.532	283.2
405.977	308.95
406.422	278.52
406.867	292.57
407.312	205.97
407.757	252.78
408.202	294.91
408.647	301.93
409.092	304.27
409.537	299.59
409.982	280.86
410.426	320.65
410.871	271.5
411.316	311.29
411.76	271.5
412.205	262.14
412.649	248.1
413.093	276.18
413.538	285.55
413.982	365.12
414.426	332.36
414.87	315.97
415.314	264.48
415.758	311.29
416.202	299.59
416.646	241.08
417.09	334.7
417.534	271.5
417.978	318.31
418.421	229.37
418.865	376.83
419.309	273.84
419.752	313.63
420.196	290.23
420.639	334.7
421.083	341.72
421.526	322.99
421.969	297.25
422.412	337.04
422.856	301.93
423.299	320.65
423.742	283.2
424.185	259.8
424.628	332.36
425.071	388.53
425.513	299.59
425.956	327.68
426.399	339.38
426.842	376.83
427.284	344.06
427.727	337.04
428.169	360.44
428.612	351.08
429.054	360.44
429.497	315.97
429.939	294.91
430.381	348.74
430.823	334.7
431.265	339.38
431.707	400.23
432.149	348.74
432.591	318.31
433.033	376.83
433.475	351.08
433.917	376.83
434.359	402.57
434.8	496.19
435.242	486.83
435.684	442.36
436.125	486.83
436.567	463.43
437.008	430.66
437.449	351.08
437.891	411.93
438.332	397.89
438.773	386.19
439.214	407.25
439.656	381.51
440.097	496.19
440.538	409.59
440.978	430.66
441.419	311.29
441.86	414.27
442.301	454.06
442.742	461.09
443.182	421.3
443.623	397.89
444.063	444.7
444.504	423.64
444.944	454.06
445.385	416.62
445.825	437.68
446.265	414.27
446.706	454.06
447.146	414.27
447.586	404.91
448.026	517.26
448.466	449.38
448.906	470.45
449.346	472.79
449.786	369.8
450.225	416.62
450.665	402.57
451.105	454.06
451.544	404.91
451.984	423.64
452.424	418.96
452.863	379.17
453.302	493.85
453.742	468.11
454.181	425.98
454.62	475.13
455.059	372.15
455.499	404.91
455.938	458.75
456.377	362.78
456.816	479.81
457.254	400.23
457.693	440.02
458.132	369.8
458.571	362.78
459.01	327.68
459.448	404.91
459.887	411.93
460.325	376.83
460.764	372.15
461.202	355.76
461.641	369.8
462.079	491.51
462.517	374.49
462.955	358.1
463.393	430.66
463.832	344.06
464.27	390.87
464.708	318.31
465.145	346.4
465.583	327.68
466.021	334.7
466.459	315.97
466.897	327.68
467.334	365.12
467.772	318.31
468.209	353.42
468.647	353.42
469.084	355.76
469.522	421.3
469.959	313.63
470.396	339.38
470.833	334.7
471.271	346.4
471.708	388.53
472.145	362.78
472.582	374.49
473.019	330.02
473.456	393.21
473.892	330.02
474.329	428.32
474.766	355.76
475.202	365.12
475.639	477.47
476.076	365.12
476.512	269.16
476.949	337.04
477.385	365.12
477.821	327.68
478.258	374.49
478.694	325.33
479.13	365.12
479.566	360.44
480.002	341.72
480.438	346.4
480.874	376.83
481.31	393.21
481.746	400.23
482.181	297.25
482.617	393.21
483.053	308.95
483.488	332.36
483.924	386.19
484.36	381.51
484.795	351.08
485.23	308.95
485.666	400.23
486.101	411.93
486.536	428.32
486.971	447.04
487.407	402.57
487.842	372.15
488.277	383.85
488.712	418.96
489.146	451.72
489.581	397.89
490.016	418.96
490.451	421.3
490.885	414.27
491.32	440.02
491.755	479.81
492.189	372.15
492.624	411.93
493.058	388.53
493.492	397.89
493.927	383.85
494.361	344.06
494.795	397.89
495.229	334.7
495.663	358.1
496.097	346.4
496.531	390.87
496.965	362.78
497.399	344.06
497.833	440.02
498.266	355.76
498.7	376.83
499.134	348.74
499.567	390.87
500.001	369.8
500.434	430.66
500.868	374.49
501.301	369.8
501.734	376.83
502.168	381.51
502.601	365.12
503.034	360.44
503.467	428.32
503.9	397.89
504.333	390.87
504.766	327.68
505.199	311.29
505.632	348.74
506.064	390.87
506.497	367.46
506.93	346.4
507.362	402.57
507.795	355.76
508.227	320.65
508.66	397.89
509.092	365.12
509.524	374.49
509.956	351.08
510.389	402.57
510.821	381.51
511.253	425.98
511.685	421.3
512.117	376.83
512.549	383.85
512.981	390.87
513.412	451.72
513.844	360.44
514.276	374.49
514.707	402.57
515.139	358.1
515.571	421.3
516.002	353.42
516.433	397.89
516.865	374.49
517.296	397.89
517.727	332.36
518.159	386.19
518.59	409.59
519.021	341.72
519.452	381.51
519.883	362.78
520.314	430.66
520.744	344.06
521.175	372.15
521.606	367.46
522.037	376.83
522.467	411.93
522.898	362.78
523.328	376.83
523.759	402.57
524.189	369.8
524.62	440.02
525.05	334.7
525.48	365.12
525.91	430.66
526.341	447.04
526.771	369.8
527.201	381.51
527.631	407.25
528.061	351.08
528.49	428.32
528.92	442.36
529.35	353.42
529.78	311.29
530.209	315.97
530.639	362.78
531.068	369.8
531.498	376.83
531.927	393.21
532.357	395.55
532.786	362.78
533.215	353.42
533.644	369.8
534.074	435.34
534.503	393.21
534.932	404.91
535.361	400.23
535.79	409.59
536.218	423.64
536.647	327.68
537.076	500.87
537.505	390.87
537.933	418.96
538.362	365.12
538.79	360.44
539.219	451.72
539.647	479.81
540.076	475.13
540.504	486.83
540.932	507.9
541.36	617.9
541.788	655.35
542.217	638.97
542.645	720.89
543.073	702.16
543.5	725.57
543.928	683.44
544.356	636.63
544.784	753.65
545.211	711.52
545.639	681.1
546.067	636.63
546.494	660.03
546.922	592.16
547.349	533.64
547.776	517.26
548.204	519.6
548.631	442.36
549.058	444.7
549.485	472.79
549.912	444.7
550.339	437.68
550.766	440.02
551.193	447.04
551.62	456.4
552.047	418.96
552.474	418.96
552.9	393.21
553.327	418.96
553.754	381.51
554.18	437.68
554.607	428.32
555.033	468.11
555.459	451.72
555.886	433
556.312	423.64
556.738	456.4
557.164	383.85
557.59	374.49
558.016	341.72
558.442	346.4
558.868	325.33
559.294	430.66
559.72	379.17
560.145	423.64
560.571	332.36
560.997	362.78
561.422	430.66
561.848	353.42
562.273	421.3
562.699	344.06
563.124	400.23
563.549	411.93
563.974	315.97
564.4	421.3
564.825	376.83
565.25	442.36
565.675	416.62
566.1	367.46
566.525	379.17
566.95	351.08
567.374	397.89
567.799	381.51
568.224	327.68
568.648	386.19
569.073	451.72
569.497	348.74
569.922	376.83
570.346	360.44
570.771	369.8
571.195	425.98
571.619	374.49
572.043	365.12
572.467	344.06
572.891	409.59
573.315	372.15
573.739	402.57
574.163	351.08
574.587	330.02
575.011	451.72
575.435	418.96
575.858	374.49
576.282	353.42
576.705	383.85
577.129	388.53
577.552	451.72
577.976	365.12
578.399	414.27
578.822	435.34
579.245	418.96
579.669	411.93
580.092	402.57
580.515	402.57
580.938	433
581.361	451.72
581.784	388.53
582.206	421.3
582.629	402.57
583.052	421.3
583.474	482.15
583.897	404.91
584.32	435.34
584.742	397.89
585.165	472.79
585.587	423.64
586.009	402.57
586.431	470.45
586.854	433
587.276	409.59
587.698	440.02
588.12	355.76
588.542	383.85
588.964	397.89
589.386	367.46
589.807	346.4
590.229	369.8
590.651	388.53
591.073	386.19
591.494	351.08
591.916	388.53
592.337	451.72
592.759	414.27
593.18	360.44
593.601	423.64
594.022	437.68
594.444	402.57
594.865	374.49
595.286	386.19
595.707	346.4
596.128	334.7
596.549	346.4
596.97	369.8
597.39	397.89
597.811	365.12
598.232	376.83
598.652	304.27
599.073	447.04
599.494	315.97
599.914	365.12
600.334	341.72
600.755	372.15
601.175	306.61
601.595	259.8
602.015	337.04
602.436	381.51
602.856	484.49
603.276	320.65
603.696	367.46
604.115	360.44
604.535	404.91
604.955	409.59
605.375	280.86
605.794	369.8
606.214	414.27
606.634	322.99
607.053	315.97
607.473	346.4
607.892	325.33
608.311	393.21
608.731	442.36
609.15	498.53
609.569	566.41
609.988	634.29
610.407	758.33
610.826	753.65
611.245	786.42
611.664	784.08
612.083	699.82
612.501	650.67
612.92	620.24
613.339	557.05
613.757	578.11
614.176	545.34
614.594	498.53
615.013	496.19
615.431	498.53
615.85	395.55
616.268	407.25
616.686	379.17
617.104	388.53
617.522	449.38
617.94	369.8
618.358	358.1
618.776	395.55
619.194	395.55
619.612	407.25
620.03	418.96
620.447	374.49
620.865	393.21
621.282	425.98
621.7	395.55
622.117	414.27
622.535	351.08
622.952	397.89
623.369	344.06
623.787	383.85
624.204	337.04
624.621	325.33
625.038	372.15
625.455	386.19
625.872	365.12
626.289	365.12
626.706	367.46
627.123	325.33
627.539	355.76
627.956	360.44
628.373	355.76
628.789	411.93
629.206	358.1
629.622	369.8
630.038	348.74
630.455	322.99
630.871	397.89
631.287	341.72
631.703	325.33
632.12	327.68
632.536	311.29
632.952	358.1
633.368	292.57
633.783	390.87
634.199	337.04
634.615	332.36
635.031	365.12
635.446	365.12
635.862	362.78
636.277	402.57
636.693	353.42
637.108	327.68
637.524	402.57
637.939	325.33
638.354	280.86
638.77	348.74
639.185	341.72
639.6	337.04
640.015	344.06
640.43	308.95
640.845	294.91
641.259	283.2
641.674	299.59
642.089	330.02
642.504	304.27
642.918	283.2
643.333	369.8
643.747	355.76
644.162	346.4
644.576	315.97
644.991	285.55
645.405	325.33
645.819	299.59
646.233	337.04
646.647	315.97
647.061	287.89
647.475	278.52
647.889	313.63
648.303	332.36
648.717	297.25
649.131	330.02
649.545	245.76
649.958	358.1
650.372	367.46
650.785	400.23
651.199	374.49
651.612	318.31
652.026	285.55
652.439	290.23
652.852	283.2
653.266	276.18
653.679	285.55
654.092	339.38
654.505	365.12
654.918	271.5
655.331	273.84
655.744	315.97
656.156	337.04
656.569	337.04
656.982	304.27
657.394	304.27
657.807	344.06
658.22	337.04
658.632	290.23
659.044	320.65
659.457	315.97
659.869	208.31
660.281	266.82
660.693	341.72
661.106	285.55
661.518	334.7
661.93	341.72
662.342	325.33
662.754	358.1
663.165	297.25
663.577	311.29
663.989	311.29
664.401	259.8
664.812	252.78
665.224	297.25
665.635	294.91
666.047	341.72
666.458	348.74
666.869	365.12
667.281	264.48
667.692	330.02
668.103	320.65
668.514	327.68
668.925	304.27
669.336	243.42
669.747	322.99
670.158	318.31
670.569	341.72
670.979	269.16
671.39	313.63
671.801	311.29
672.211	304.27
672.622	273.84
673.032	241.08
673.443	269.16
673.853	294.91
674.263	301.93
674.674	369.8
675.084	301.93
675.494	320.65
675.904	320.65
676.314	318.31
676.724	278.52
677.134	285.55
677.544	332.36
677.953	346.4
678.363	322.99
678.773	358.1
679.182	255.12
679.592	292.57
680.001	313.63
680.411	245.76
680.82	308.95
681.23	322.99
681.639	318.31
682.048	301.93
682.457	248.1
682.866	280.86
683.275	339.38
683.684	294.91
684.093	327.68
684.502	269.16
684.911	308.95
685.32	276.18
685.728	255.12
686.137	346.4
686.546	320.65
686.954	327.68
687.363	344.06
687.771	318.31
688.179	322.99
688.588	327.68
688.996	271.5
689.404	306.61
689.812	360.44
690.22	315.97
690.628	322.99
691.036	388.53
691.444	297.25
691.852	287.89
692.26	325.33
692.667	306.61
693.075	353.42
693.483	273.84
693.89	255.12
694.298	236.39
694.705	283.2
695.112	250.44
695.52	318.31
695.927	285.55
696.334	280.86
696.741	332.36
697.148	255.12
697.555	355.76
697.962	297.25
698.369	257.46
698.776	330.02
699.183	271.5
699.59	322.99
699.996	287.89
700.403	344.06
700.81	313.63
701.216	341.72
701.623	250.44
702.029	325.33
702.435	273.84
702.842	311.29
703.248	292.57
703.654	381.51
704.06	330.02
704.466	304.27
704.872	318.31
705.278	327.68
705.684	255.12
706.09	262.14
706.496	259.8
706.901	379.17
707.307	337.04
707.712	351.08
708.118	262.14
708.523	306.61
708.929	330.02
709.334	327.68
709.74	278.52
710.145	248.1
710.55	287.89
710.955	332.36
711.36	318.31
711.765	273.84
712.17	320.65
712.575	292.57
712.98	840.25
713.385	252.78
713.789	299.59
714.194	276.18
714.599	346.4
715.003	297.25
715.408	262.14
715.812	365.12
716.217	353.42
716.621	304.27
717.025	320.65
717.429	280.86
717.833	327.68
718.238	287.89
718.642	297.25
719.046	365.12
719.449	234.05
719.853	313.63
720.257	301.93
720.661	273.84
721.065	374.49
721.468	294.91
721.872	301.93
722.275	276.18
722.679	285.55
723.082	285.55
723.485	344.06
723.889	393.21
724.292	292.57
724.695	278.52
725.098	287.89
725.501	264.48
725.904	332.36
726.307	308.95
726.71	208.31
727.113	236.39
727.516	271.5
727.918	315.97
728.321	299.59
728.724	304.27
729.126	304.27
729.529	285.55
729.931	330.02
730.333	290.23
730.736	222.35
731.138	311.29
731.54	306.61
731.942	299.59
732.344	238.73
732.746	311.29
733.148	280.86
733.55	259.8
733.952	262.14
734.354	287.89
734.756	266.82
735.157	290.23
735.559	306.61
735.96	262.14
736.362	325.33
736.763	236.39
737.165	332.36
737.566	292.57
737.967	322.99
738.368	311.29
738.77	327.68
739.171	311.29
739.572	294.91
739.973	250.44
740.374	327.68
740.774	280.86
741.175	280.86
741.576	301.93
741.977	297.25
742.377	351.08
742.778	332.36
743.178	234.05
743.579	276.18
743.979	334.7
744.379	381.51
744.78	283.2
745.18	252.78
745.58	311.29
745.98	348.74
746.38	339.38
746.78	337.04
747.18	290.23
747.58	294.91
747.98	271.5
748.38	299.59
748.779	346.4
749.179	341.72
749.578	339.38
749.978	280.86
750.377	276.18
750.777	308.95
751.176	301.93
751.575	318.31
751.975	308.95
752.374	250.44
752.773	276.18
753.172	308.95
753.571	262.14
753.97	252.78
754.369	227.03
754.768	287.89
755.166	294.91
755.565	322.99
755.964	276.18
756.362	290.23
756.761	315.97
757.159	306.61
757.558	273.84
757.956	264.48
758.354	313.63
758.753	325.33
759.151	381.51
759.549	332.36
759.947	294.91
760.345	283.2
760.743	306.61
761.141	348.74
761.539	301.93
761.936	362.78
762.334	299.59
762.732	236.39
763.129	294.91
763.527	308.95
763.924	301.93
764.322	280.86
764.719	313.63
765.117	330.02
765.514	332.36
765.911	313.63
766.308	313.63
766.705	283.2
767.102	341.72
767.499	245.76
767.896	273.84
768.293	269.16
768.69	294.91
769.086	273.84
769.483	276.18
769.88	327.68
770.276	344.06
770.673	297.25
771.069	285.55
771.466	278.52
771.862	276.18
772.258	306.61
772.654	325.33
773.05	255.12
773.447	358.1
773.843	353.42
774.239	292.57
774.634	278.52
775.03	280.86
775.426	271.5
775.822	344.06
776.218	215.33
776.613	353.42
777.009	313.63
777.404	205.97
777.8	287.89
778.195	266.82
778.59	273.84
778.986	292.57
779.381	313.63
779.776	255.12
780.171	278.52
780.566	294.91
780.961	266.82
781.356	306.61
781.751	280.86
782.146	245.76
782.54	231.71
782.935	278.52
783.33	245.76
783.724	271.5
784.119	257.46
784.513	334.7
784.908	278.52
785.302	308.95
785.696	304.27
786.09	334.7
786.485	278.52
786.879	278.52
787.273	313.63
787.667	292.57
788.061	334.7
788.454	269.16
788.848	339.38
789.242	259.8
789.636	346.4
790.029	390.87
790.423	330.02
790.816	290.23
791.21	344.06
791.603	308.95
791.997	297.25
792.39	271.5
792.783	285.55
793.176	301.93
793.569	346.4
793.962	320.65
794.355	294.91
794.748	325.33
795.141	271.5
795.534	285.55
795.927	351.08
796.319	283.2
796.712	269.16
797.105	304.27
797.497	250.44
797.89	334.7
798.282	243.42
798.674	320.65
799.067	264.48
799.459	297.25
799.851	297.25
800.243	285.55
800.635	271.5
801.027	290.23
801.419	292.57
801.811	330.02
802.203	325.33
802.594	327.68
802.986	318.31
803.378	299.59
803.769	341.72
804.161	325.33
804.552	266.82
804.944	276.18
805.335	238.73
805.726	278.52
806.118	339.38
806.509	306.61
806.9	236.39
807.291	292.57
807.682	320.65
808.073	290.23
808.464	283.2
808.855	262.14
809.245	337.04
809.636	271.5
810.027	299.59
810.417	285.55
810.808	308.95
811.198	322.99
811.589	322.99
811.979	308.95
812.369	217.67
812.759	318.31
813.15	227.03
813.54	287.89
813.93	313.63
814.32	304.27
814.71	299.59
815.1	285.55
815.489	301.93
815.879	269.16
816.269	236.39
816.658	341.72
817.048	287.89
817.438	313.63
817.827	231.71
818.216	229.37
818.606	344.06
818.995	292.57
819.384	315.97
819.773	245.76
820.163	250.44
820.552	344.06
820.941	205.97
821.33	283.2
821.718	294.91
822.107	189.58
822.496	283.2
822.885	290.23
823.273	308.95
823.662	306.61
824.05	308.95
824.439	308.95
824.827	290.23
825.216	280.86
825.604	306.61
825.992	215.33
826.38	285.55
826.768	304.27
827.156	266.82
827.544	264.48
827.932	276.18
828.32	273.84
828.708	320.65
829.096	344.06
829.483	276.18
829.871	264.48
830.259	304.27
830.646	341.72
831.034	222.35
831.421	320.65
831.808	313.63
832.196	367.46
832.583	362.78
832.97	287.89
833.357	280.86
833.744	334.7
834.131	318.31
834.518	269.16
834.905	330.02
835.292	285.55
835.678	236.39
836.065	346.4
836.452	231.71
836.838	262.14
837.225	325.33
837.611	285.55
837.998	337.04
838.384	297.25
838.77	294.91
839.157	212.99
839.543	330.02
839.929	252.78
840.315	297.25
840.701	311.29
841.087	348.74
841.473	257.46
841.858	276.18
842.244	315.97
842.63	234.05
843.015	271.5
843.401	667.05
843.787	358.1
844.172	301.93
844.557	276.18
844.943	304.27
845.328	248.1
845.713	346.4
846.098	285.55
846.483	325.33
846.868	269.16
847.253	287.89
847.638	252.78
848.023	348.74
848.408	283.2
848.793	306.61
849.177	287.89
849.562	294.91
849.947	332.36
850.331	252.78
850.715	283.2
851.1	292.57
851.484	273.84
851.868	283.2
852.253	332.36
852.637	238.73
853.021	280.86
853.405	318.31
853.789	337.04
854.173	236.39
854.557	297.25
854.94	285.55
855.324	299.59
855.708	322.99
856.091	355.76
856.475	273.84
856.858	245.76
857.242	337.04
857.625	264.48
858.009	252.78
858.392	248.1
858.775	243.42
859.158	280.86
859.541	337.04
859.924	313.63
860.307	297.25
860.69	262.14
861.073	234.05
861.456	294.91
861.838	283.2
862.221	264.48
862.604	313.63
862.986	290.23
863.369	330.02
863.751	304.27
864.133	294.91
864.516	292.57
864.898	351.08
865.28	290.23
865.662	250.44
866.044	306.61
866.426	276.18
866.808	264.48
867.19	220.01
867.572	315.97
867.954	264.48
868.336	301.93
868.717	308.95
869.099	278.52
869.48	217.67
869.862	294.91
870.243	266.82
870.625	257.46
871.006	250.44
871.387	257.46
871.768	250.44
872.149	315.97
872.53	292.57
872.911	315.97
873.292	306.61
873.673	255.12
874.054	301.93
874.435	266.82
874.815	208.31
875.196	320.65
875.577	276.18
875.957	276.18
876.338	306.61
876.718	280.86
877.098	271.5
877.479	198.95
877.859	278.52
878.239	283.2
878.619	257.46
878.999	327.68
879.379	304.27
879.759	353.42
880.139	248.1
880.519	278.52
880.898	327.68
881.278	278.52
881.658	231.71
882.037	278.52
882.417	330.02
882.796	304.27
883.176	315.97
883.555	306.61
883.934	306.61
884.313	252.78
884.693	283.2
885.072	292.57
885.451	301.93
885.83	264.48
886.209	327.68
886.587	360.44
886.966	252.78
887.345	280.86
887.724	327.68
888.102	304.27
888.481	320.65
888.859	276.18
889.238	271.5
889.616	285.55
889.994	259.8
890.373	290.23
890.751	339.38
891.129	248.1
891.507	250.44
891.885	320.65
892.263	276.18
892.641	327.68
893.019	217.67
893.396	348.74
893.774	313.63
894.152	250.44
894.529	322.99
894.907	337.04
895.284	276.18
895.662	334.7
896.039	330.02
896.416	283.2
896.794	248.1
897.171	330.02
897.548	301.93
897.925	290.23
898.302	238.73
898.679	241.08
899.056	299.59
899.433	191.92
899.809	234.05
900.186	297.25
900.563	287.89
900.939	280.86
901.316	259.8
901.692	280.86
902.069	311.29
902.445	283.2
902.821	318.31
903.197	273.84
903.574	238.73
903.95	266.82
904.326	276.18
904.702	271.5
905.078	313.63
905.454	287.89
905.829	344.06
906.205	320.65
906.581	262.14
906.956	227.03
907.332	325.33
907.707	325.33
908.083	234.05
908.458	243.42
908.833	294.91
909.209	315.97
909.584	297.25
909.959	299.59
910.334	285.55
910.709	339.38
911.084	353.42
911.459	241.08
911.834	271.5
912.209	320.65
912.583	252.78
912.958	301.93
913.333	250.44
913.707	304.27
914.082	252.78
914.456	271.5
914.83	337.04
915.205	273.84
915.579	255.12
915.953	346.4
916.327	407.25
916.701	234.05
917.075	229.37
917.449	252.78
917.823	308.95
918.197	311.29
918.571	322.99
918.944	301.93
919.318	327.68
919.692	285.55
920.065	266.82
920.438	245.76
920.812	252.78
921.185	304.27
921.558	255.12
921.932	311.29
922.305	238.73
922.678	271.5
923.051	311.29
923.424	294.91
923.797	313.63
924.17	278.52
924.542	299.59
924.915	276.18
925.288	292.57
925.661	292.57
926.033	306.61
926.406	271.5
926.778	245.76
927.15	276.18
927.523	304.27
927.895	259.8
928.267	271.5
928.639	304.27
929.011	264.48
929.383	278.52
929.755	287.89
930.127	294.91
930.499	250.44
930.871	220.01
931.242	334.7
931.614	334.7
931.986	264.48
932.357	301.93
932.729	264.48
933.1	315.97
933.471	330.02
933.843	276.18
934.214	229.37
934.585	313.63
934.956	278.52
935.327	294.91
935.698	283.2
936.069	236.39
936.44	348.74
936.811	297.25
937.182	320.65
937.552	252.78
937.923	257.46
938.293	299.59
938.664	241.08
939.034	285.55
939.405	266.82
939.775	241.08
940.145	318.31
940.516	330.02
940.886	264.48
941.256	301.93
941.626	269.16
941.996	224.69
942.366	210.65
942.735	308.95
943.105	248.1
943.475	297.25
943.845	262.14
944.214	376.83
944.584	290.23
944.953	283.2
945.323	231.71
945.692	304.27
946.061	313.63
946.43	238.73
946.8	355.76
947.169	287.89
947.538	320.65
947.907	259.8
948.276	264.48
948.645	318.31
949.013	283.2
949.382	276.18
949.751	264.48
950.119	313.63
950.488	299.59
950.857	290.23
951.225	311.29
951.593	322.99
951.962	325.33
952.33	271.5
952.698	299.59
953.066	229.37
953.434	330.02
953.802	283.2
954.17	318.31
954.538	369.8
954.906	264.48
955.274	304.27
955.642	205.97
956.009	308.95
956.377	236.39
956.744	238.73
957.112	227.03
957.479	271.5
957.847	266.82
958.214	280.86
958.581	301.93
958.948	304.27
959.315	280.86
959.683	255.12
960.05	280.86
960.416	285.55
960.783	292.57
961.15	257.46
961.517	294.91
961.884	229.37
962.25	301.93
962.617	308.95
962.983	287.89
963.35	376.83
963.716	320.65
964.082	313.63
964.449	290.23
964.815	283.2
965.181	276.18
965.547	313.63
965.913	287.89
966.279	266.82
966.645	229.37
967.011	259.8
967.377	269.16
967.742	269.16
968.108	264.48
968.474	255.12
968.839	334.7
969.205	320.65
969.57	306.61
969.935	271.5
970.301	262.14
970.666	264.48
971.031	248.1
971.396	334.7
971.761	313.63
972.126	220.01
972.491	276.18
972.856	297.25
973.221	362.78
973.586	264.48
973.95	292.57
974.315	259.8
974.679	259.8
975.044	231.71
975.408	294.91
975.773	294.91
976.137	283.2
976.501	320.65
976.866	306.61
977.23	278.52
977.594	283.2
977.958	271.5
978.322	285.55
978.686	189.58
979.049	311.29
979.413	252.78
979.777	355.76
980.141	325.33
980.504	304.27
980.868	285.55
981.231	322.99
981.595	290.23
981.958	245.76
982.321	306.61
982.684	227.03
983.048	255.12
983.411	248.1
983.774	285.55
984.137	320.65
984.5	271.5
984.862	266.82
985.225	255.12
985.588	315.97
985.951	290.23
986.313	322.99
986.676	297.25
987.038	304.27
987.401	273.84
987.763	285.55
988.125	292.57
988.488	217.67
988.85	301.93
989.212	276.18
989.574	264.48
989.936	280.86
990.298	341.72
990.66	294.91
991.022	297.25
991.383	294.91
991.745	299.59
992.107	231.71
992.468	320.65
992.83	344.06
993.191	278.52
993.553	262.14
993.914	292.57
994.275	290.23
994.637	306.61
994.998	273.84
995.359	290.23
995.72	313.63
996.081	290.23
996.442	250.44
996.803	262.14
997.163	280.86
997.524	203.63
997.885	257.46
998.245	241.08
998.606	243.42
998.966	327.68
999.327	194.26
999.687	301.93
1000.047	259.8
1000.408	290.23
1000.768	327.68
1001.128	306.61
1001.488	294.91
1001.848	283.2
1002.208	308.95
1002.568	271.5
1002.927	287.89
1003.287	306.61
1003.647	313.63
1004.007	276.18
1004.366	290.23
1004.726	264.48
1005.085	269.16
1005.444	278.52
1005.804	320.65
1006.163	234.05
1006.522	299.59
1006.881	273.84
1007.24	250.44
1007.599	294.91
1007.958	290.23
1008.317	252.78
1008.676	201.29
1009.035	325.33
1009.393	330.02
1009.752	248.1
1010.111	252.78
1010.469	264.48
1010.828	311.29
1011.186	234.05
1011.544	301.93
1011.903	276.18
1012.261	271.5
1012.619	346.4
1012.977	313.63
1013.335	271.5
1013.693	269.16
1014.051	224.69
1014.409	327.68
1014.767	315.97
1015.124	290.23
1015.482	283.2
1015.84	322.99
1016.197	327.68
1016.555	306.61
1016.912	308.95
1017.269	257.46
1017.627	259.8
1017.984	308.95
1018.341	278.52
1018.698	234.05
1019.055	297.25
1019.412	297.25
1019.769	252.78
1020.126	287.89
1020.483	210.65
1020.84	334.7
1021.196	287.89
1021.553	252.78
1021.909	320.65
1022.266	315.97
1022.622	315.97
1022.979	297.25
1023.335	304.27
1023.691	257.46
1024.047	325.33
1024.404	320.65
1024.76	311.29
1025.116	301.93
1025.472	334.7
1025.827	278.52
1026.183	313.63
1026.539	262.14
1026.895	280.86
1027.25	344.06
1027.606	287.89
1027.961	278.52
1028.317	294.91
1028.672	290.23
1029.028	259.8
1029.383	273.84
1029.738	311.29
1030.093	269.16
1030.448	243.42
1030.803	301.93
1031.158	266.82
1031.513	257.46
1031.868	306.61
1032.223	346.4
1032.577	234.05
1032.932	330.02
1033.287	283.2
1033.641	311.29
1033.996	234.05
1034.35	262.14
1034.704	252.78
1035.059	201.29
1035.413	280.86
1035.767	280.86
1036.121	280.86
