Data from Al_FLMS009871__148__11-57-12-581.txt Node

Date: Fri Mar 08 11:57:12 CST 2024
User: pe5414po
Spectrometer: FLMS00987
Trigger mode: 0
Integration Time (sec): 1.000000E-1
Scans to average: 1
Electric dark correction enabled: true
Nonlinearity correction enabled: false
Boxcar width: 0
XAxis mode: Wavelengths
Number of Pixels in Spectrum: 2048
>>>>>Begin Spectral Data<<<<<
188.938	-30.28
189.409	-30.28
189.879	-30.28
190.349	-144.97
190.819	-49
191.29	-77.09
191.76	-16.24
192.23	-105.18
192.7	-149.65
193.17	-119.22
193.64	-34.96
194.109	-23.26
194.579	-39.64
195.049	-11.56
195.519	65.68
195.988	18.87
196.458	46.96
196.927	100.79
197.397	49.3
197.866	147.6
198.336	147.6
198.805	166.32
199.274	156.96
199.744	224.84
200.213	227.18
200.682	231.86
201.151	217.82
201.62	227.18
202.089	264.63
202.558	341.86
203.027	189.73
203.495	323.14
203.964	318.46
204.433	252.92
204.902	337.18
205.37	299.73
205.839	327.82
206.307	292.71
206.776	292.71
207.244	273.99
207.712	269.31
208.181	311.44
208.649	304.42
209.117	262.29
209.585	276.33
210.053	339.52
210.521	262.29
210.989	313.78
211.457	288.03
211.925	276.33
212.393	281.01
212.861	245.9
213.328	276.33
213.796	264.63
214.264	262.29
214.731	269.31
215.199	281.01
215.666	369.95
216.133	192.07
216.601	288.03
217.068	222.5
217.535	288.03
218.003	355.91
218.47	285.69
218.937	255.26
219.404	283.35
219.871	358.25
220.338	255.26
220.805	238.88
221.271	304.42
221.738	337.18
222.205	224.84
222.671	327.82
223.138	271.65
223.605	276.33
224.071	316.12
224.538	278.67
225.004	231.86
225.47	222.5
225.937	252.92
226.403	278.67
226.869	245.9
227.335	325.48
227.801	297.39
228.267	273.99
228.733	306.76
229.199	243.56
229.665	288.03
230.131	227.18
230.597	323.14
231.062	302.08
231.528	273.99
231.994	297.39
232.459	290.37
232.925	281.01
233.39	313.78
233.856	252.92
234.321	292.71
234.786	358.25
235.252	297.39
235.717	304.42
236.182	311.44
236.647	276.33
237.112	281.01
237.577	302.08
238.042	238.88
238.507	266.97
238.972	257.61
239.436	255.26
239.901	318.46
240.366	355.91
240.83	318.46
241.295	318.46
241.76	276.33
242.224	353.57
242.688	278.67
243.153	325.48
243.617	222.5
244.081	295.05
244.545	231.86
245.01	255.26
245.474	245.9
245.938	311.44
246.402	285.69
246.866	222.5
247.33	262.29
247.793	266.97
248.257	257.61
248.721	309.1
249.185	245.9
249.648	245.9
250.112	355.91
250.575	252.92
251.039	250.58
251.502	248.24
251.965	252.92
252.429	339.52
252.892	264.63
253.355	334.84
253.818	323.14
254.281	259.95
254.744	238.88
255.207	346.55
255.67	330.16
256.133	271.65
256.596	208.45
257.059	402.72
257.522	259.95
257.984	257.61
258.447	278.67
258.909	295.05
259.372	320.8
259.834	273.99
260.297	285.69
260.759	297.39
261.221	327.82
261.684	234.2
262.146	285.69
262.608	224.84
263.07	320.8
263.532	283.35
263.994	320.8
264.456	290.37
264.918	297.39
265.38	299.73
265.842	271.65
266.303	318.46
266.765	325.48
267.227	278.67
267.688	339.52
268.15	339.52
268.611	264.63
269.072	269.31
269.534	311.44
269.995	355.91
270.456	276.33
270.918	290.37
271.379	278.67
271.84	243.56
272.301	278.67
272.762	295.05
273.223	278.67
273.684	292.71
274.144	250.58
274.605	297.39
275.066	327.82
275.527	297.39
275.987	313.78
276.448	292.71
276.908	311.44
277.369	330.16
277.829	297.39
278.289	318.46
278.75	327.82
279.21	365.27
279.67	266.97
280.13	353.57
280.59	325.48
281.05	297.39
281.51	302.08
281.97	281.01
282.43	283.35
282.89	316.12
283.35	292.71
283.809	243.56
284.269	316.12
284.729	332.5
285.188	325.48
285.648	295.05
286.107	250.58
286.567	306.76
287.026	346.55
287.485	292.71
287.944	327.82
288.404	316.12
288.863	362.93
289.322	330.16
289.781	290.37
290.24	339.52
290.699	264.63
291.158	344.21
291.616	290.37
292.075	264.63
292.534	299.73
292.992	290.37
293.451	278.67
293.91	316.12
294.368	323.14
294.827	320.8
295.285	283.35
295.743	381.65
296.202	334.84
296.66	295.05
297.118	271.65
297.576	281.01
298.034	264.63
298.492	311.44
298.95	318.46
299.408	306.76
299.866	348.89
300.324	281.01
300.781	304.42
301.239	264.63
301.697	241.22
302.154	313.78
302.612	330.16
303.069	257.61
303.527	262.29
303.984	320.8
304.441	299.73
304.899	309.1
305.356	337.18
305.813	362.93
306.27	252.92
306.727	302.08
307.184	339.52
307.641	283.35
308.098	302.08
308.555	362.93
309.012	295.05
309.468	383.99
309.925	341.86
310.382	248.24
310.838	316.12
311.295	351.23
311.751	273.99
312.208	257.61
312.664	313.78
313.12	381.65
313.577	346.55
314.033	323.14
314.489	355.91
314.945	285.69
315.401	306.76
315.857	292.71
316.313	304.42
316.769	353.57
317.225	318.46
317.681	306.76
318.136	360.59
318.592	299.73
319.048	330.16
319.503	297.39
319.959	250.58
320.414	332.5
320.869	320.8
321.325	313.78
321.78	367.61
322.235	316.12
322.691	304.42
323.146	393.36
323.601	299.73
324.056	332.5
324.511	339.52
324.966	327.82
325.421	316.12
325.875	372.29
326.33	313.78
326.785	276.33
327.24	297.39
327.694	316.12
328.149	334.84
328.603	332.5
329.058	337.18
329.512	306.76
329.966	283.35
330.421	283.35
330.875	374.63
331.329	325.48
331.783	320.8
332.237	262.29
332.691	276.33
333.145	334.84
333.599	264.63
334.053	323.14
334.507	353.57
334.96	313.78
335.414	334.84
335.868	355.91
336.321	309.1
336.775	297.39
337.228	323.14
337.682	316.12
338.135	344.21
338.588	344.21
339.042	273.99
339.495	295.05
339.948	405.06
340.401	344.21
340.854	208.45
341.307	290.37
341.76	323.14
342.213	257.61
342.666	278.67
343.119	309.1
343.571	344.21
344.024	304.42
344.477	341.86
344.929	339.52
345.382	297.39
345.834	311.44
346.287	318.46
346.739	332.5
347.191	299.73
347.644	348.89
348.096	238.88
348.548	353.57
349	355.91
349.452	316.12
349.904	309.1
350.356	393.36
350.808	330.16
351.26	278.67
351.711	259.95
352.163	255.26
352.615	236.54
353.066	281.01
353.518	334.84
353.969	344.21
354.421	337.18
354.872	346.55
355.324	278.67
355.775	302.08
356.226	288.03
356.677	288.03
357.128	297.39
357.579	316.12
358.03	323.14
358.481	358.25
358.932	334.84
359.383	325.48
359.834	376.97
360.285	248.24
360.735	309.1
361.186	339.52
361.637	292.71
362.087	332.5
362.538	299.73
362.988	358.25
363.438	309.1
363.889	383.99
364.339	332.5
364.789	320.8
365.239	304.42
365.689	306.76
366.139	367.61
366.589	313.78
367.039	365.27
367.489	369.95
367.939	334.84
368.389	309.1
368.839	323.14
369.288	353.57
369.738	285.69
370.187	353.57
370.637	348.89
371.086	304.42
371.536	292.71
371.985	290.37
372.434	278.67
372.884	332.5
373.333	374.63
373.782	229.52
374.231	302.08
374.68	362.93
375.129	346.55
375.578	288.03
376.027	332.5
376.475	248.24
376.924	367.61
377.373	320.8
377.822	353.57
378.27	341.86
378.719	313.78
379.167	323.14
379.616	337.18
380.064	316.12
380.512	271.65
380.961	341.86
381.409	318.46
381.857	325.48
382.305	306.76
382.753	320.8
383.201	323.14
383.649	344.21
384.097	376.97
384.545	367.61
384.992	299.73
385.44	346.55
385.888	334.84
386.335	262.29
386.783	355.91
387.231	292.71
387.678	400.38
388.125	283.35
388.573	320.8
389.02	325.48
389.467	299.73
389.914	325.48
390.362	383.99
390.809	290.37
391.256	320.8
391.703	311.44
392.15	288.03
392.596	344.21
393.043	288.03
393.49	257.61
393.937	266.97
394.383	339.52
394.83	339.52
395.276	353.57
395.723	337.18
396.169	351.23
396.616	341.86
397.062	327.82
397.508	273.99
397.954	334.84
398.401	351.23
398.847	379.31
399.293	334.84
399.739	337.18
400.185	283.35
400.631	304.42
401.076	327.82
401.522	241.22
401.968	273.99
402.414	318.46
402.859	337.18
403.305	325.48
403.75	306.76
404.196	318.46
404.641	339.52
405.086	400.38
405.532	353.57
405.977	358.25
406.422	372.29
406.867	379.31
407.312	348.89
407.757	362.93
408.202	299.73
408.647	255.26
409.092	323.14
409.537	299.73
409.982	405.06
410.426	391.02
410.871	332.5
411.316	355.91
411.76	395.7
412.205	360.59
412.649	367.61
413.093	327.82
413.538	339.52
413.982	313.78
414.426	309.1
414.87	360.59
415.314	376.97
415.758	341.86
416.202	323.14
416.646	297.39
417.09	360.59
417.534	426.12
417.978	374.63
418.421	304.42
418.865	344.21
419.309	360.59
419.752	351.23
420.196	306.76
420.639	355.91
421.083	353.57
421.526	309.1
421.969	295.05
422.412	269.31
422.856	372.29
423.299	376.97
423.742	330.16
424.185	398.04
424.628	320.8
425.071	395.7
425.513	337.18
425.956	369.95
426.399	355.91
426.842	295.05
427.284	341.86
427.727	339.52
428.169	313.78
428.612	288.03
429.054	355.91
429.497	379.31
429.939	426.12
430.381	393.36
430.823	362.93
431.265	395.7
431.707	402.72
432.149	369.95
432.591	348.89
433.033	451.87
433.475	383.99
433.917	353.57
434.359	416.76
434.8	454.21
435.242	486.98
435.684	489.32
436.125	578.26
436.567	533.79
437.008	444.85
437.449	381.65
437.891	463.57
438.332	465.91
438.773	475.28
439.214	444.85
439.656	465.91
440.097	416.76
440.538	381.65
440.978	433.15
441.419	463.57
441.86	494
442.301	529.11
442.742	465.91
443.182	618.05
443.623	477.62
444.063	470.59
444.504	496.34
444.944	470.59
445.385	508.04
445.825	503.36
446.265	463.57
446.706	536.13
447.146	547.83
447.586	496.34
448.026	578.26
448.466	472.93
448.906	482.3
449.346	510.38
449.786	512.72
450.225	456.55
450.665	524.43
451.105	501.02
451.544	482.3
451.984	395.7
452.424	456.55
452.863	470.59
453.302	458.89
453.742	412.08
454.181	369.95
454.62	400.38
455.059	463.57
455.499	479.96
455.938	461.23
456.377	360.59
456.816	372.29
457.254	477.62
457.693	496.34
458.132	454.21
458.571	383.99
459.01	465.91
459.448	447.19
459.887	465.91
460.325	374.63
460.764	400.38
461.202	353.57
461.641	409.74
462.079	372.29
462.517	376.97
462.955	391.02
463.393	395.7
463.832	461.23
464.27	376.97
464.708	393.36
465.145	433.15
465.583	421.44
466.021	388.68
466.459	393.36
466.897	372.29
467.334	402.72
467.772	362.93
468.209	369.95
468.647	423.78
469.084	344.21
469.522	433.15
469.959	386.33
470.396	388.68
470.833	351.23
471.271	311.44
471.708	388.68
472.145	421.44
472.582	388.68
473.019	383.99
473.456	388.68
473.892	412.08
474.329	391.02
474.766	435.49
475.202	362.93
475.639	383.99
476.076	362.93
476.512	414.42
476.949	402.72
477.385	367.61
477.821	381.65
478.258	419.1
478.694	332.5
479.13	367.61
479.566	407.4
480.002	428.46
480.438	348.89
480.874	435.49
481.31	332.5
481.746	374.63
482.181	348.89
482.617	421.44
483.053	402.72
483.488	421.44
483.924	470.59
484.36	398.04
484.795	451.87
485.23	395.7
485.666	428.46
486.101	458.89
486.536	463.57
486.971	383.99
487.407	412.08
487.842	386.33
488.277	414.42
488.712	421.44
489.146	437.83
489.581	465.91
490.016	444.85
490.451	369.95
490.885	419.1
491.32	484.64
491.755	526.77
492.189	440.17
492.624	416.76
493.058	428.46
493.492	428.46
493.927	421.44
494.361	409.74
494.795	435.49
495.229	391.02
495.663	428.46
496.097	395.7
496.531	479.96
496.965	398.04
497.399	414.42
497.833	400.38
498.266	426.12
498.7	458.89
499.134	421.44
499.567	393.36
500.001	419.1
500.434	435.49
500.868	372.29
501.301	348.89
501.734	330.16
502.168	381.65
502.601	458.89
503.034	405.06
503.467	402.72
503.9	369.95
504.333	391.02
504.766	470.59
505.199	426.12
505.632	348.89
506.064	383.99
506.497	409.74
506.93	360.59
507.362	327.82
507.795	369.95
508.227	428.46
508.66	405.06
509.092	374.63
509.524	442.51
509.956	440.17
510.389	395.7
510.821	440.17
511.253	433.15
511.685	407.4
512.117	428.46
512.549	426.12
512.981	405.06
513.412	402.72
513.844	402.72
514.276	409.74
514.707	407.4
515.139	430.8
515.571	353.57
516.002	419.1
516.433	367.61
516.865	407.4
517.296	381.65
517.727	419.1
518.159	391.02
518.59	449.53
519.021	421.44
519.452	419.1
519.883	381.65
520.314	428.46
520.744	494
521.175	348.89
521.606	433.15
522.037	442.51
522.467	433.15
522.898	414.42
523.328	346.55
523.759	374.63
524.189	430.8
524.62	482.3
525.05	369.95
525.48	465.91
525.91	362.93
526.341	475.28
526.771	388.68
527.201	365.27
527.631	428.46
528.061	376.97
528.49	414.42
528.92	463.57
529.35	442.51
529.78	489.32
530.209	444.85
530.639	374.63
531.068	421.44
531.498	449.53
531.927	416.76
532.357	407.4
532.786	372.29
533.215	400.38
533.644	428.46
534.074	440.17
534.503	430.8
534.932	433.15
535.361	400.38
535.79	437.83
536.218	484.64
536.647	451.87
537.076	398.04
537.505	414.42
537.933	456.55
538.362	447.19
538.79	407.4
539.219	463.57
539.647	510.38
540.076	512.72
540.504	540.81
540.932	580.6
541.36	618.05
541.788	627.41
542.217	714.01
542.645	671.88
543.073	812.31
543.5	798.27
543.928	685.92
544.356	683.58
544.784	760.82
545.211	742.1
545.639	711.67
546.067	711.67
546.494	671.88
546.922	636.77
547.349	543.15
547.776	531.45
548.204	536.13
548.631	540.81
549.058	522.09
549.485	494
549.912	550.17
550.339	496.34
550.766	461.23
551.193	508.04
551.62	465.91
552.047	461.23
552.474	479.96
552.9	482.3
553.327	393.36
553.754	433.15
554.18	463.57
554.607	463.57
555.033	426.12
555.459	484.64
555.886	468.25
556.312	444.85
556.738	388.68
557.164	444.85
557.59	400.38
558.016	442.51
558.442	454.21
558.868	383.99
559.294	295.05
559.72	405.06
560.145	365.27
560.571	430.8
560.997	405.06
561.422	472.93
561.848	379.31
562.273	419.1
562.699	372.29
563.124	351.23
563.549	472.93
563.974	412.08
564.4	405.06
564.825	381.65
565.25	486.98
565.675	416.76
566.1	400.38
566.525	393.36
566.95	475.28
567.374	405.06
567.799	426.12
568.224	433.15
568.648	395.7
569.073	433.15
569.497	388.68
569.922	412.08
570.346	379.31
570.771	477.62
571.195	440.17
571.619	402.72
572.043	334.84
572.467	379.31
572.891	409.74
573.315	311.44
573.739	395.7
574.163	419.1
574.587	360.59
575.011	358.25
575.435	426.12
575.858	454.21
576.282	409.74
576.705	440.17
577.129	477.62
577.552	477.62
577.976	472.93
578.399	470.59
578.822	376.97
579.245	456.55
579.669	414.42
580.092	440.17
580.515	435.49
580.938	440.17
581.361	461.23
581.784	449.53
582.206	451.87
582.629	402.72
583.052	489.32
583.474	510.38
583.897	414.42
584.32	426.12
584.742	419.1
585.165	482.3
585.587	458.89
586.009	440.17
586.431	468.25
586.854	461.23
587.276	515.06
587.698	465.91
588.12	475.28
588.542	465.91
588.964	472.93
589.386	437.83
589.807	344.21
590.229	353.57
590.651	419.1
591.073	468.25
591.494	344.21
591.916	391.02
592.337	475.28
592.759	423.78
593.18	437.83
593.601	386.33
594.022	419.1
594.444	395.7
594.865	383.99
595.286	442.51
595.707	365.27
596.128	428.46
596.549	435.49
596.97	376.97
597.39	355.91
597.811	376.97
598.232	400.38
598.652	341.86
599.073	426.12
599.494	400.38
599.914	435.49
600.334	358.25
600.755	351.23
601.175	379.31
601.595	386.33
602.015	383.99
602.436	407.4
602.856	580.6
603.276	393.36
603.696	430.8
604.115	362.93
604.535	430.8
604.955	400.38
605.375	395.7
605.794	414.42
606.214	428.46
606.634	414.42
607.053	414.42
607.473	477.62
607.892	449.53
608.311	405.06
608.731	435.49
609.15	547.83
609.569	489.32
609.988	634.43
610.407	847.42
610.826	744.44
611.245	824.01
611.664	753.8
612.083	756.14
612.501	688.26
612.92	599.32
613.339	582.94
613.757	510.38
614.176	564.22
614.594	533.79
615.013	550.17
615.431	519.75
615.85	463.57
616.268	379.31
616.686	405.06
617.104	372.29
617.522	379.31
617.94	449.53
618.358	477.62
618.776	444.85
619.194	437.83
619.612	388.68
620.03	414.42
620.447	433.15
620.865	491.66
621.282	428.46
621.7	327.82
622.117	374.63
622.535	355.91
622.952	435.49
623.369	391.02
623.787	475.28
624.204	409.74
624.621	348.89
625.038	412.08
625.455	381.65
625.872	414.42
626.289	325.48
626.706	360.59
627.123	437.83
627.539	348.89
627.956	341.86
628.373	376.97
628.789	412.08
629.206	433.15
629.622	365.27
630.038	398.04
630.455	355.91
630.871	334.84
631.287	374.63
631.703	348.89
632.12	355.91
632.536	386.33
632.952	414.42
633.368	362.93
633.783	374.63
634.199	386.33
634.615	407.4
635.031	313.78
635.446	330.16
635.862	325.48
636.277	355.91
636.693	383.99
637.108	360.59
637.524	355.91
637.939	353.57
638.354	433.15
638.77	344.21
639.185	393.36
639.6	362.93
640.015	376.97
640.43	309.1
640.845	325.48
641.259	405.06
641.674	362.93
642.089	276.33
642.504	302.08
642.918	316.12
643.333	369.95
643.747	334.84
644.162	365.27
644.576	341.86
644.991	316.12
645.405	337.18
645.819	353.57
646.233	316.12
646.647	369.95
647.061	367.61
647.475	358.25
647.889	339.52
648.303	320.8
648.717	346.55
649.131	309.1
649.545	398.04
649.958	341.86
650.372	388.68
650.785	414.42
651.199	362.93
651.612	304.42
652.026	341.86
652.439	379.31
652.852	346.55
653.266	405.06
653.679	332.5
654.092	360.59
654.505	351.23
654.918	353.57
655.331	332.5
655.744	318.46
656.156	327.82
656.569	318.46
656.982	358.25
657.394	341.86
657.807	316.12
658.22	297.39
658.632	311.44
659.044	299.73
659.457	337.18
659.869	358.25
660.281	334.84
660.693	266.97
661.106	386.33
661.518	325.48
661.93	458.89
662.342	395.7
662.754	388.68
663.165	337.18
663.577	386.33
663.989	316.12
664.401	332.5
664.812	393.36
665.224	320.8
665.635	346.55
666.047	306.76
666.458	318.46
666.869	367.61
667.281	383.99
667.692	283.35
668.103	320.8
668.514	283.35
668.925	323.14
669.336	367.61
669.747	346.55
670.158	360.59
670.569	444.85
670.979	412.08
671.39	323.14
671.801	362.93
672.211	416.76
672.622	276.33
673.032	334.84
673.443	290.37
673.853	353.57
674.263	355.91
674.674	327.82
675.084	302.08
675.494	391.02
675.904	288.03
676.314	320.8
676.724	288.03
677.134	285.69
677.544	353.57
677.953	367.61
678.363	295.05
678.773	391.02
679.182	313.78
679.592	273.99
680.001	388.68
680.411	341.86
680.82	372.29
681.23	309.1
681.639	398.04
682.048	379.31
682.457	290.37
682.866	391.02
683.275	376.97
683.684	323.14
684.093	337.18
684.502	330.16
684.911	376.97
685.32	295.05
685.728	276.33
686.137	334.84
686.546	365.27
686.954	346.55
687.363	285.69
687.771	313.78
688.179	358.25
688.588	330.16
688.996	372.29
689.404	360.59
689.812	346.55
690.22	262.29
690.628	248.24
691.036	316.12
691.444	323.14
691.852	353.57
692.26	376.97
692.667	309.1
693.075	358.25
693.483	351.23
693.89	376.97
694.298	365.27
694.705	376.97
695.112	374.63
695.52	346.55
695.927	318.46
696.334	353.57
696.741	374.63
697.148	306.76
697.555	320.8
697.962	353.57
698.369	320.8
698.776	297.39
699.183	339.52
699.59	323.14
699.996	273.99
700.403	318.46
700.81	250.58
701.216	327.82
701.623	327.82
702.029	318.46
702.435	245.9
702.842	372.29
703.248	297.39
703.654	292.71
704.06	231.86
704.466	341.86
704.872	269.31
705.278	358.25
705.684	304.42
706.09	339.52
706.496	374.63
706.901	330.16
707.307	402.72
707.712	355.91
708.118	393.36
708.523	376.97
708.929	327.82
709.334	419.1
709.74	316.12
710.145	334.84
710.55	323.14
710.955	358.25
711.36	372.29
711.765	283.35
712.17	367.61
712.575	388.68
712.98	922.32
713.385	316.12
713.789	337.18
714.194	327.82
714.599	341.86
715.003	309.1
715.408	316.12
715.812	330.16
716.217	306.76
716.621	304.42
717.025	316.12
717.429	334.84
717.833	285.69
718.238	414.42
718.642	234.2
719.046	273.99
719.449	306.76
719.853	365.27
720.257	332.5
720.661	273.99
721.065	285.69
721.468	325.48
721.872	302.08
722.275	309.1
722.679	252.92
723.082	355.91
723.485	316.12
723.889	332.5
724.292	273.99
724.695	264.63
725.098	320.8
725.501	325.48
725.904	243.56
726.307	398.04
726.71	398.04
727.113	290.37
727.516	283.35
727.918	320.8
728.321	327.82
728.724	313.78
729.126	292.71
729.529	365.27
729.931	290.37
730.333	269.31
730.736	304.42
731.138	271.65
731.54	330.16
731.942	353.57
732.344	348.89
732.746	355.91
733.148	306.76
733.55	318.46
733.952	292.71
734.354	309.1
734.756	362.93
735.157	348.89
735.559	353.57
735.96	332.5
736.362	339.52
736.763	311.44
737.165	313.78
737.566	330.16
737.967	341.86
738.368	332.5
738.77	290.37
739.171	374.63
739.572	355.91
739.973	313.78
740.374	309.1
740.774	334.84
741.175	316.12
741.576	306.76
741.977	276.33
742.377	334.84
742.778	288.03
743.178	358.25
743.579	320.8
743.979	304.42
744.379	395.7
744.78	222.5
745.18	341.86
745.58	355.91
745.98	351.23
746.38	276.33
746.78	208.45
747.18	379.31
747.58	325.48
747.98	309.1
748.38	346.55
748.779	327.82
749.179	304.42
749.578	386.33
749.978	316.12
750.377	283.35
750.777	325.48
751.176	276.33
751.575	416.76
751.975	367.61
752.374	318.46
752.773	288.03
753.172	341.86
753.571	309.1
753.97	332.5
754.369	316.12
754.768	353.57
755.166	369.95
755.565	288.03
755.964	285.69
756.362	288.03
756.761	278.67
757.159	374.63
757.558	348.89
757.956	327.82
758.354	419.1
758.753	302.08
759.151	302.08
759.549	252.92
759.947	353.57
760.345	320.8
760.743	365.27
761.141	337.18
761.539	297.39
761.936	348.89
762.334	341.86
762.732	306.76
763.129	325.48
763.527	348.89
763.924	351.23
764.322	360.59
764.719	316.12
765.117	278.67
765.514	332.5
765.911	346.55
766.308	299.73
766.705	311.44
767.102	320.8
767.499	323.14
767.896	241.22
768.293	339.52
768.69	337.18
769.086	323.14
769.483	285.69
769.88	273.99
770.276	346.55
770.673	353.57
771.069	327.82
771.466	313.78
771.862	355.91
772.258	339.52
772.654	297.39
773.05	297.39
773.447	299.73
773.843	362.93
774.239	266.97
774.634	367.61
775.03	302.08
775.426	339.52
775.822	306.76
776.218	318.46
776.613	318.46
777.009	332.5
777.404	346.55
777.8	288.03
778.195	358.25
778.59	288.03
778.986	346.55
779.381	297.39
779.776	353.57
780.171	318.46
780.566	302.08
780.961	325.48
781.356	381.65
781.751	339.52
782.146	316.12
782.54	332.5
782.935	353.57
783.33	353.57
783.724	243.56
784.119	311.44
784.513	393.36
784.908	316.12
785.302	344.21
785.696	372.29
786.09	266.97
786.485	311.44
786.879	339.52
787.273	302.08
787.667	367.61
788.061	346.55
788.454	323.14
788.848	313.78
789.242	365.27
789.636	304.42
790.029	339.52
790.423	341.86
790.816	323.14
791.21	344.21
791.603	271.65
791.997	313.78
792.39	252.92
792.783	290.37
793.176	330.16
793.569	273.99
793.962	318.46
794.355	320.8
794.748	306.76
795.141	346.55
795.534	327.82
795.927	302.08
796.319	360.59
796.712	344.21
797.105	292.71
797.497	302.08
797.89	369.95
798.282	295.05
798.674	376.97
799.067	327.82
799.459	323.14
799.851	337.18
800.243	327.82
800.635	295.05
801.027	348.89
801.419	323.14
801.811	348.89
802.203	334.84
802.594	295.05
802.986	266.97
803.378	271.65
803.769	285.69
804.161	306.76
804.552	318.46
804.944	318.46
805.335	339.52
805.726	323.14
806.118	311.44
806.509	362.93
806.9	320.8
807.291	295.05
807.682	281.01
808.073	304.42
808.464	316.12
808.855	360.59
809.245	332.5
809.636	316.12
810.027	346.55
810.417	320.8
810.808	393.36
811.198	323.14
811.589	348.89
811.979	348.89
812.369	304.42
812.759	334.84
813.15	332.5
813.54	327.82
813.93	346.55
814.32	281.01
814.71	316.12
815.1	327.82
815.489	292.71
815.879	273.99
816.269	320.8
816.658	339.52
817.048	353.57
817.438	281.01
817.827	379.31
818.216	332.5
818.606	318.46
818.995	311.44
819.384	386.33
819.773	224.84
820.163	295.05
820.552	353.57
820.941	323.14
821.33	309.1
821.718	330.16
822.107	355.91
822.496	302.08
822.885	318.46
823.273	320.8
823.662	248.24
824.05	288.03
824.439	299.73
824.827	269.31
825.216	341.86
825.604	309.1
825.992	381.65
826.38	273.99
826.768	325.48
827.156	332.5
827.544	320.8
827.932	348.89
828.32	313.78
828.708	320.8
829.096	374.63
829.483	374.63
829.871	281.01
830.259	337.18
830.646	262.29
831.034	353.57
831.421	362.93
831.808	325.48
832.196	302.08
832.583	330.16
832.97	325.48
833.357	269.31
833.744	316.12
834.131	323.14
834.518	266.97
834.905	339.52
835.292	311.44
835.678	362.93
836.065	351.23
836.452	252.92
836.838	266.97
837.225	332.5
837.611	306.76
837.998	327.82
838.384	288.03
838.77	341.86
839.157	276.33
839.543	358.25
839.929	302.08
840.315	358.25
840.701	337.18
841.087	355.91
841.473	313.78
841.858	355.91
842.244	327.82
842.63	297.39
843.015	362.93
843.401	730.39
843.787	311.44
844.172	288.03
844.557	330.16
844.943	325.48
845.328	278.67
845.713	313.78
846.098	348.89
846.483	337.18
846.868	325.48
847.253	288.03
847.638	271.65
848.023	271.65
848.408	245.9
848.793	339.52
849.177	325.48
849.562	372.29
849.947	330.16
850.331	388.68
850.715	360.59
851.1	222.5
851.484	339.52
851.868	313.78
852.253	290.37
852.637	285.69
853.021	316.12
853.405	327.82
853.789	369.95
854.173	302.08
854.557	281.01
854.94	292.71
855.324	288.03
855.708	337.18
856.091	360.59
856.475	302.08
856.858	327.82
857.242	325.48
857.625	330.16
858.009	299.73
858.392	332.5
858.775	278.67
859.158	297.39
859.541	309.1
859.924	302.08
860.307	341.86
860.69	339.52
861.073	311.44
861.456	297.39
861.838	332.5
862.221	351.23
862.604	299.73
862.986	369.95
863.369	339.52
863.751	309.1
864.133	351.23
864.516	330.16
864.898	327.82
865.28	323.14
865.662	288.03
866.044	351.23
866.426	248.24
866.808	344.21
867.19	365.27
867.572	292.71
867.954	393.36
868.336	337.18
868.717	353.57
869.099	353.57
869.48	285.69
869.862	297.39
870.243	264.63
870.625	264.63
871.006	358.25
871.387	304.42
871.768	292.71
872.149	304.42
872.53	295.05
872.911	313.78
873.292	341.86
873.673	276.33
874.054	337.18
874.435	346.55
874.815	341.86
875.196	341.86
875.577	355.91
875.957	376.97
876.338	292.71
876.718	285.69
877.098	318.46
877.479	330.16
877.859	337.18
878.239	248.24
878.619	309.1
878.999	273.99
879.379	327.82
879.759	320.8
880.139	351.23
880.519	320.8
880.898	276.33
881.278	330.16
881.658	351.23
882.037	304.42
882.417	383.99
882.796	327.82
883.176	332.5
883.555	318.46
883.934	313.78
884.313	367.61
884.693	311.44
885.072	281.01
885.451	316.12
885.83	304.42
886.209	243.56
886.587	271.65
886.966	344.21
887.345	297.39
887.724	281.01
888.102	344.21
888.481	330.16
888.859	325.48
889.238	348.89
889.616	264.63
889.994	273.99
890.373	360.59
890.751	344.21
891.129	318.46
891.507	360.59
891.885	351.23
892.263	309.1
892.641	330.16
893.019	250.58
893.396	327.82
893.774	327.82
894.152	273.99
894.529	398.04
894.907	292.71
895.284	325.48
895.662	320.8
896.039	276.33
896.416	379.31
896.794	337.18
897.171	330.16
897.548	355.91
897.925	351.23
898.302	337.18
898.679	283.35
899.056	290.37
899.433	297.39
899.809	341.86
900.186	316.12
900.563	323.14
900.939	330.16
901.316	288.03
901.692	295.05
902.069	250.58
902.445	355.91
902.821	262.29
903.197	288.03
903.574	365.27
903.95	320.8
904.326	339.52
904.702	372.29
905.078	306.76
905.454	292.71
905.829	290.37
906.205	309.1
906.581	334.84
906.956	362.93
907.332	337.18
907.707	376.97
908.083	264.63
908.458	330.16
908.833	325.48
909.209	367.61
909.584	332.5
909.959	295.05
910.334	337.18
910.709	339.52
911.084	309.1
911.459	266.97
911.834	351.23
912.209	306.76
912.583	365.27
912.958	320.8
913.333	337.18
913.707	323.14
914.082	358.25
914.456	311.44
914.83	365.27
915.205	320.8
915.579	360.59
915.953	252.92
916.327	337.18
916.701	297.39
917.075	290.37
917.449	323.14
917.823	320.8
918.197	297.39
918.571	334.84
918.944	283.35
919.318	243.56
919.692	346.55
920.065	283.35
920.438	311.44
920.812	346.55
921.185	320.8
921.558	367.61
921.932	299.73
922.305	323.14
922.678	325.48
923.051	449.53
923.424	388.68
923.797	283.35
924.17	220.16
924.542	269.31
924.915	344.21
925.288	304.42
925.661	365.27
926.033	337.18
926.406	311.44
926.778	353.57
927.15	341.86
927.523	339.52
927.895	264.63
928.267	276.33
928.639	325.48
929.011	313.78
929.383	369.95
929.755	313.78
930.127	360.59
930.499	292.71
930.871	337.18
931.242	341.86
931.614	332.5
931.986	355.91
932.357	309.1
932.729	316.12
933.1	243.56
933.471	341.86
933.843	320.8
934.214	376.97
934.585	348.89
934.956	208.45
935.327	355.91
935.698	304.42
936.069	383.99
936.44	351.23
936.811	252.92
937.182	358.25
937.552	351.23
937.923	344.21
938.293	323.14
938.664	311.44
939.034	281.01
939.405	341.86
939.775	320.8
940.145	266.97
940.516	365.27
940.886	278.67
941.256	341.86
941.626	365.27
941.996	355.91
942.366	297.39
942.735	320.8
943.105	332.5
943.475	306.76
943.845	395.7
944.214	353.57
944.584	327.82
944.953	290.37
945.323	344.21
945.692	285.69
946.061	386.33
946.43	292.71
946.8	273.99
947.169	292.71
947.538	323.14
947.907	341.86
948.276	365.27
948.645	309.1
949.013	299.73
949.382	313.78
949.751	323.14
950.119	273.99
950.488	344.21
950.857	353.57
951.225	299.73
951.593	323.14
951.962	369.95
952.33	306.76
952.698	320.8
953.066	306.76
953.434	295.05
953.802	346.55
954.17	316.12
954.538	374.63
954.906	358.25
955.274	238.88
955.642	311.44
956.009	283.35
956.377	353.57
956.744	346.55
957.112	327.82
957.479	290.37
957.847	337.18
958.214	316.12
958.581	325.48
958.948	288.03
959.315	306.76
959.683	391.02
960.05	306.76
960.416	358.25
960.783	367.61
961.15	344.21
961.517	306.76
961.884	400.38
962.25	323.14
962.617	309.1
962.983	344.21
963.35	344.21
963.716	259.95
964.082	304.42
964.449	344.21
964.815	334.84
965.181	316.12
965.547	302.08
965.913	304.42
966.279	339.52
966.645	273.99
967.011	320.8
967.377	295.05
967.742	379.31
968.108	323.14
968.474	318.46
968.839	327.82
969.205	407.4
969.57	327.82
969.935	271.65
970.301	353.57
970.666	255.26
971.031	323.14
971.396	372.29
971.761	302.08
972.126	344.21
972.491	341.86
972.856	257.61
973.221	241.22
973.586	252.92
973.95	362.93
974.315	299.73
974.679	313.78
975.044	292.71
975.408	302.08
975.773	358.25
976.137	320.8
976.501	365.27
976.866	327.82
977.23	332.5
977.594	295.05
977.958	285.69
978.322	278.67
978.686	269.31
979.049	299.73
979.413	285.69
979.777	304.42
980.141	334.84
980.504	269.31
980.868	330.16
981.231	295.05
981.595	374.63
981.958	278.67
982.321	330.16
982.684	243.56
983.048	281.01
983.411	250.58
983.774	358.25
984.137	323.14
984.5	278.67
984.862	316.12
985.225	302.08
985.588	262.29
985.951	327.82
986.313	316.12
986.676	269.31
987.038	309.1
987.401	306.76
987.763	344.21
988.125	376.97
988.488	362.93
988.85	311.44
989.212	259.95
989.574	376.97
989.936	346.55
990.298	348.89
990.66	313.78
991.022	302.08
991.383	309.1
991.745	372.29
992.107	309.1
992.468	276.33
992.83	271.65
993.191	348.89
993.553	320.8
993.914	273.99
994.275	365.27
994.637	292.71
994.998	332.5
995.359	285.69
995.72	323.14
996.081	344.21
996.442	276.33
996.803	337.18
997.163	318.46
997.524	281.01
997.885	334.84
998.245	309.1
998.606	330.16
998.966	381.65
999.327	325.48
999.687	344.21
1000.047	372.29
1000.408	262.29
1000.768	283.35
1001.128	288.03
1001.488	283.35
1001.848	325.48
1002.208	344.21
1002.568	276.33
1002.927	358.25
1003.287	346.55
1003.647	348.89
1004.007	278.67
1004.366	313.78
1004.726	262.29
1005.085	348.89
1005.444	318.46
1005.804	367.61
1006.163	313.78
1006.522	334.84
1006.881	266.97
1007.24	339.52
1007.599	309.1
1007.958	369.95
1008.317	330.16
1008.676	365.27
1009.035	351.23
1009.393	288.03
1009.752	346.55
1010.111	323.14
1010.469	330.16
1010.828	224.84
1011.186	273.99
1011.544	330.16
1011.903	290.37
1012.261	271.65
1012.619	269.31
1012.977	309.1
1013.335	299.73
1013.693	344.21
1014.051	348.89
1014.409	339.52
1014.767	348.89
1015.124	283.35
1015.482	395.7
1015.84	323.14
1016.197	341.86
1016.555	360.59
1016.912	295.05
1017.269	337.18
1017.627	276.33
1017.984	332.5
1018.341	262.29
1018.698	276.33
1019.055	302.08
1019.412	285.69
1019.769	323.14
1020.126	334.84
1020.483	271.65
1020.84	323.14
1021.196	360.59
1021.553	341.86
1021.909	381.65
1022.266	362.93
1022.622	318.46
1022.979	351.23
1023.335	323.14
1023.691	273.99
1024.047	311.44
1024.404	339.52
1024.76	332.5
1025.116	309.1
1025.472	266.97
1025.827	285.69
1026.183	266.97
1026.539	276.33
1026.895	273.99
1027.25	290.37
1027.606	276.33
1027.961	318.46
1028.317	290.37
1028.672	351.23
1029.028	334.84
1029.383	318.46
1029.738	316.12
1030.093	269.31
1030.448	299.73
1030.803	297.39
1031.158	278.67
1031.513	259.95
1031.868	320.8
1032.223	292.71
1032.577	283.35
1032.932	231.86
1033.287	339.52
1033.641	351.23
1033.996	309.1
1034.35	351.23
1034.704	273.99
1035.059	281.01
1035.413	323.14
1035.767	323.14
1036.121	323.14
