Data from Al_FLMS009871__499__14-36-46-730.txt Node

Date: Fri Mar 08 14:36:46 CST 2024
User: pe5414po
Spectrometer: FLMS00987
Trigger mode: 0
Integration Time (sec): 1.000000E-1
Scans to average: 1
Electric dark correction enabled: true
Nonlinearity correction enabled: false
Boxcar width: 0
XAxis mode: Wavelengths
Number of Pixels in Spectrum: 2048
>>>>>Begin Spectral Data<<<<<
188.938	-48.13
189.409	-48.13
189.879	-48.13
190.349	-125.36
190.819	-71.53
191.29	-176.86
191.76	-158.13
192.23	-92.6
192.7	-59.83
193.17	-66.85
193.64	-29.4
194.109	-38.77
194.579	45.49
195.049	15.07
195.519	-22.38
195.988	57.2
196.458	47.83
196.927	89.96
197.397	94.65
197.866	136.78
198.336	157.84
198.805	134.43
199.274	202.31
199.744	153.16
200.213	155.5
200.682	206.99
201.151	223.37
201.62	202.31
202.089	232.74
202.558	253.8
203.027	242.1
203.495	295.93
203.964	305.29
204.433	225.72
204.902	302.95
205.37	281.89
205.839	319.34
206.307	361.47
206.776	317
207.244	321.68
207.712	284.23
208.181	345.08
208.649	338.06
209.117	281.89
209.585	312.32
210.053	326.36
210.521	286.57
210.989	345.08
211.457	242.1
211.925	312.32
212.393	286.57
212.861	352.1
213.328	291.25
213.796	263.16
214.264	288.91
214.731	230.4
215.199	286.57
215.666	223.37
216.133	265.5
216.601	295.93
217.068	239.76
217.535	253.8
218.003	286.57
218.47	312.32
218.937	281.89
219.404	281.89
219.871	279.55
220.338	324.02
220.805	288.91
221.271	307.63
221.738	256.14
222.205	277.21
222.671	291.25
223.138	244.44
223.605	272.53
224.071	279.55
224.538	197.63
225.004	251.46
225.47	232.74
225.937	293.59
226.403	230.4
226.869	284.23
227.335	263.16
227.801	291.25
228.267	274.87
228.733	267.85
229.199	274.87
229.665	288.91
230.131	307.63
230.597	260.82
231.062	277.21
231.528	218.69
231.994	258.48
232.459	291.25
232.925	174.22
233.39	319.34
233.856	242.1
234.321	277.21
234.786	284.23
235.252	258.48
235.717	228.06
236.182	281.89
236.647	263.16
237.112	223.37
237.577	263.16
238.042	307.63
238.507	284.23
238.972	260.82
239.436	300.61
239.901	288.91
240.366	244.44
240.83	326.36
241.295	272.53
241.76	307.63
242.224	300.61
242.688	288.91
243.153	324.02
243.617	279.55
244.081	333.38
244.545	312.32
245.01	235.08
245.474	263.16
245.938	324.02
246.402	319.34
246.866	307.63
247.33	317
247.793	302.95
248.257	286.57
248.721	317
249.185	342.74
249.648	230.4
250.112	251.46
250.575	295.93
251.039	314.66
251.502	258.48
251.965	277.21
252.429	389.55
252.892	324.02
253.355	347.42
253.818	249.12
254.281	281.89
254.744	258.48
255.207	342.74
255.67	214.01
256.133	249.12
256.596	302.95
257.059	314.66
257.522	338.06
257.984	272.53
258.447	356.79
258.909	302.95
259.372	258.48
259.834	302.95
260.297	312.32
260.759	302.95
261.221	284.23
261.684	291.25
262.146	302.95
262.608	302.95
263.07	293.59
263.532	260.82
263.994	237.42
264.456	317
264.918	260.82
265.38	284.23
265.842	277.21
266.303	302.95
266.765	342.74
267.227	272.53
267.688	288.91
268.15	272.53
268.611	307.63
269.072	291.25
269.534	335.72
269.995	272.53
270.456	265.5
270.918	249.12
271.379	302.95
271.84	291.25
272.301	218.69
272.762	312.32
273.223	291.25
273.684	298.27
274.144	265.5
274.605	298.27
275.066	256.14
275.527	340.4
275.987	291.25
276.448	288.91
276.908	305.29
277.369	326.36
277.829	345.08
278.289	298.27
278.75	286.57
279.21	305.29
279.67	258.48
280.13	305.29
280.59	197.63
281.05	291.25
281.51	319.34
281.97	281.89
282.43	324.02
282.89	265.5
283.35	265.5
283.809	401.26
284.269	293.59
284.729	314.66
285.188	345.08
285.648	331.04
286.107	324.02
286.567	242.1
287.026	295.93
287.485	389.55
287.944	387.21
288.404	319.34
288.863	281.89
289.322	338.06
289.781	366.15
290.24	331.04
290.699	307.63
291.158	298.27
291.616	288.91
292.075	312.32
292.534	270.19
292.992	225.72
293.451	309.97
293.91	347.42
294.368	331.04
294.827	361.47
295.285	293.59
295.743	340.4
296.202	302.95
296.66	284.23
297.118	305.29
297.576	302.95
298.034	307.63
298.492	307.63
298.95	260.82
299.408	375.51
299.866	302.95
300.324	347.42
300.781	324.02
301.239	314.66
301.697	270.19
302.154	288.91
302.612	349.76
303.069	295.93
303.527	328.7
303.984	249.12
304.441	347.42
304.899	307.63
305.356	253.8
305.813	331.04
306.27	258.48
306.727	312.32
307.184	314.66
307.641	359.13
308.098	279.55
308.555	253.8
309.012	335.72
309.468	286.57
309.925	326.36
310.382	342.74
310.838	279.55
311.295	286.57
311.751	314.66
312.208	309.97
312.664	295.93
313.12	272.53
313.577	295.93
314.033	286.57
314.489	326.36
314.945	277.21
315.401	279.55
315.857	300.61
316.313	328.7
316.769	328.7
317.225	324.02
317.681	370.83
318.136	317
318.592	242.1
319.048	270.19
319.503	281.89
319.959	258.48
320.414	272.53
320.869	347.42
321.325	319.34
321.78	293.59
322.235	314.66
322.691	284.23
323.146	363.81
323.601	232.74
324.056	321.68
324.511	221.03
324.966	359.13
325.421	375.51
325.875	277.21
326.33	307.63
326.785	277.21
327.24	288.91
327.694	326.36
328.149	370.83
328.603	263.16
329.058	309.97
329.512	324.02
329.966	347.42
330.421	258.48
330.875	331.04
331.329	326.36
331.783	300.61
332.237	326.36
332.691	366.15
333.145	270.19
333.599	291.25
334.053	302.95
334.507	347.42
334.96	288.91
335.414	300.61
335.868	302.95
336.321	354.44
336.775	298.27
337.228	328.7
337.682	321.68
338.135	302.95
338.588	333.38
339.042	324.02
339.495	340.4
339.948	302.95
340.401	345.08
340.854	305.29
341.307	352.1
341.76	260.82
342.213	345.08
342.666	342.74
343.119	389.55
343.571	342.74
344.024	375.51
344.477	314.66
344.929	342.74
345.382	263.16
345.834	328.7
346.287	302.95
346.739	295.93
347.191	309.97
347.644	345.08
348.096	345.08
348.548	317
349	258.48
349.452	321.68
349.904	305.29
350.356	300.61
350.808	277.21
351.26	333.38
351.711	274.87
352.163	291.25
352.615	349.76
353.066	319.34
353.518	328.7
353.969	298.27
354.421	340.4
354.872	312.32
355.324	340.4
355.775	335.72
356.226	286.57
356.677	326.36
357.128	387.21
357.579	382.53
358.03	375.51
358.481	324.02
358.932	338.06
359.383	382.53
359.834	328.7
360.285	270.19
360.735	324.02
361.186	293.59
361.637	319.34
362.087	317
362.538	370.83
362.988	263.16
363.438	312.32
363.889	270.19
364.339	328.7
364.789	281.89
365.239	335.72
365.689	317
366.139	314.66
366.589	354.44
367.039	326.36
367.489	356.79
367.939	314.66
368.389	333.38
368.839	295.93
369.288	267.85
369.738	317
370.187	352.1
370.637	328.7
371.086	347.42
371.536	380.19
371.985	328.7
372.434	295.93
372.884	396.57
373.333	382.53
373.782	281.89
374.231	349.76
374.68	281.89
375.129	340.4
375.578	314.66
376.027	354.44
376.475	331.04
376.924	321.68
377.373	288.91
377.822	338.06
378.27	375.51
378.719	345.08
379.167	331.04
379.616	309.97
380.064	284.23
380.512	317
380.961	295.93
381.409	312.32
381.857	331.04
382.305	279.55
382.753	333.38
383.201	305.29
383.649	251.46
384.097	284.23
384.545	267.85
384.992	300.61
385.44	352.1
385.888	277.21
386.335	359.13
386.783	295.93
387.231	312.32
387.678	319.34
388.125	309.97
388.573	265.5
389.02	272.53
389.467	321.68
389.914	279.55
390.362	270.19
390.809	363.81
391.256	302.95
391.703	270.19
392.15	328.7
392.596	342.74
393.043	258.48
393.49	302.95
393.937	342.74
394.383	274.87
394.83	389.55
395.276	324.02
395.723	349.76
396.169	403.6
396.616	377.85
397.062	370.83
397.508	225.72
397.954	373.17
398.401	377.85
398.847	377.85
399.293	347.42
399.739	345.08
400.185	267.85
400.631	260.82
401.076	317
401.522	359.13
401.968	333.38
402.414	380.19
402.859	309.97
403.305	309.97
403.75	284.23
404.196	324.02
404.641	352.1
405.086	359.13
405.532	293.59
405.977	307.63
406.422	295.93
406.867	305.29
407.312	312.32
407.757	354.44
408.202	295.93
408.647	347.42
409.092	277.21
409.537	251.46
409.982	305.29
410.426	324.02
410.871	377.85
411.316	314.66
411.76	338.06
412.205	394.23
412.649	309.97
413.093	288.91
413.538	324.02
413.982	298.27
414.426	298.27
414.87	368.49
415.314	389.55
415.758	338.06
416.202	408.28
416.646	333.38
417.09	317
417.534	291.25
417.978	237.42
418.421	328.7
418.865	328.7
419.309	300.61
419.752	345.08
420.196	274.87
420.639	307.63
421.083	349.76
421.526	391.89
421.969	272.53
422.412	382.53
422.856	295.93
423.299	307.63
423.742	361.47
424.185	293.59
424.628	342.74
425.071	319.34
425.513	342.74
425.956	324.02
426.399	331.04
426.842	352.1
427.284	270.19
427.727	342.74
428.169	333.38
428.612	340.4
429.054	347.42
429.497	249.12
429.939	328.7
430.381	305.29
430.823	354.44
431.265	335.72
431.707	314.66
432.149	373.17
432.591	309.97
433.033	324.02
433.475	328.7
433.917	324.02
434.359	263.16
434.8	307.63
435.242	295.93
435.684	312.32
436.125	356.79
436.567	302.95
437.008	300.61
437.449	389.55
437.891	302.95
438.332	317
438.773	298.27
439.214	340.4
439.656	272.53
440.097	326.36
440.538	281.89
440.978	286.57
441.419	340.4
441.86	331.04
442.301	324.02
442.742	321.68
443.182	295.93
443.623	382.53
444.063	354.44
444.504	352.1
444.944	293.59
445.385	338.06
445.825	305.29
446.265	380.19
446.706	347.42
447.146	307.63
447.586	359.13
448.026	305.29
448.466	291.25
448.906	349.76
449.346	305.29
449.786	265.5
450.225	347.42
450.665	326.36
451.105	345.08
451.544	347.42
451.984	321.68
452.424	293.59
452.863	277.21
453.302	347.42
453.742	373.17
454.181	377.85
454.62	307.63
455.059	324.02
455.499	265.5
455.938	277.21
456.377	293.59
456.816	253.8
457.254	324.02
457.693	363.81
458.132	324.02
458.571	321.68
459.01	293.59
459.448	272.53
459.887	319.34
460.325	328.7
460.764	326.36
461.202	312.32
461.641	345.08
462.079	242.1
462.517	288.91
462.955	403.6
463.393	317
463.832	333.38
464.27	361.47
464.708	291.25
465.145	256.14
465.583	300.61
466.021	342.74
466.459	338.06
466.897	321.68
467.334	335.72
467.772	382.53
468.209	398.92
468.647	335.72
469.084	260.82
469.522	356.79
469.959	338.06
470.396	221.03
470.833	253.8
471.271	333.38
471.708	321.68
472.145	335.72
472.582	398.92
473.019	331.04
473.456	375.51
473.892	363.81
474.329	305.29
474.766	324.02
475.202	288.91
475.639	317
476.076	338.06
476.512	347.42
476.949	319.34
477.385	370.83
477.821	286.57
478.258	349.76
478.694	312.32
479.13	335.72
479.566	333.38
480.002	291.25
480.438	321.68
480.874	288.91
481.31	314.66
481.746	286.57
482.181	405.94
482.617	274.87
483.053	286.57
483.488	328.7
483.924	305.29
484.36	260.82
484.795	321.68
485.23	338.06
485.666	317
486.101	305.29
486.536	295.93
486.971	345.08
487.407	270.19
487.842	225.72
488.277	324.02
488.712	347.42
489.146	389.55
489.581	319.34
490.016	298.27
490.451	319.34
490.885	307.63
491.32	333.38
491.755	317
492.189	324.02
492.624	331.04
493.058	309.97
493.492	286.57
493.927	347.42
494.361	356.79
494.795	298.27
495.229	293.59
495.663	314.66
496.097	317
496.531	359.13
496.965	300.61
497.399	345.08
497.833	394.23
498.266	324.02
498.7	307.63
499.134	345.08
499.567	342.74
500.001	307.63
500.434	324.02
500.868	338.06
501.301	277.21
501.734	356.79
502.168	370.83
502.601	333.38
503.034	359.13
503.467	281.89
503.9	321.68
504.333	272.53
504.766	328.7
505.199	307.63
505.632	284.23
506.064	331.04
506.497	279.55
506.93	331.04
507.362	356.79
507.795	326.36
508.227	293.59
508.66	295.93
509.092	349.76
509.524	340.4
509.956	366.15
510.389	391.89
510.821	319.34
511.253	298.27
511.685	373.17
512.117	312.32
512.549	338.06
512.981	317
513.412	342.74
513.844	272.53
514.276	312.32
514.707	307.63
515.139	328.7
515.571	375.51
516.002	340.4
516.433	293.59
516.865	319.34
517.296	349.76
517.727	387.21
518.159	363.81
518.59	382.53
519.021	312.32
519.452	270.19
519.883	260.82
520.314	319.34
520.744	324.02
521.175	331.04
521.606	338.06
522.037	324.02
522.467	321.68
522.898	324.02
523.328	293.59
523.759	345.08
524.189	338.06
524.62	331.04
525.05	319.34
525.48	326.36
525.91	338.06
526.341	368.49
526.771	312.32
527.201	368.49
527.631	380.19
528.061	373.17
528.49	368.49
528.92	293.59
529.35	312.32
529.78	338.06
530.209	338.06
530.639	363.81
531.068	312.32
531.498	293.59
531.927	377.85
532.357	345.08
532.786	286.57
533.215	317
533.644	363.81
534.074	209.33
534.503	267.85
534.932	342.74
535.361	244.44
535.79	263.16
536.218	363.81
536.647	366.15
537.076	286.57
537.505	317
537.933	359.13
538.362	314.66
538.79	307.63
539.219	394.23
539.647	328.7
540.076	307.63
540.504	263.16
540.932	300.61
541.36	298.27
541.788	363.81
542.217	352.1
542.645	307.63
543.073	312.32
543.5	342.74
543.928	272.53
544.356	300.61
544.784	328.7
545.211	298.27
545.639	328.7
546.067	284.23
546.494	335.72
546.922	359.13
547.349	384.87
547.776	312.32
548.204	321.68
548.631	319.34
549.058	307.63
549.485	302.95
549.912	359.13
550.339	349.76
550.766	293.59
551.193	370.83
551.62	326.36
552.047	349.76
552.474	317
552.9	302.95
553.327	389.55
553.754	300.61
554.18	373.17
554.607	314.66
555.033	340.4
555.459	281.89
555.886	302.95
556.312	328.7
556.738	300.61
557.164	242.1
557.59	340.4
558.016	331.04
558.442	317
558.868	349.76
559.294	328.7
559.72	298.27
560.145	302.95
560.571	314.66
560.997	391.89
561.422	293.59
561.848	412.96
562.273	307.63
562.699	305.29
563.124	389.55
563.549	326.36
563.974	377.85
564.4	291.25
564.825	295.93
565.25	286.57
565.675	272.53
566.1	293.59
566.525	270.19
566.95	366.15
567.374	375.51
567.799	312.32
568.224	265.5
568.648	300.61
569.073	302.95
569.497	340.4
569.922	298.27
570.346	349.76
570.771	312.32
571.195	335.72
571.619	359.13
572.043	342.74
572.467	326.36
572.891	312.32
573.315	295.93
573.739	298.27
574.163	338.06
574.587	361.47
575.011	340.4
575.435	277.21
575.858	300.61
576.282	321.68
576.705	253.8
577.129	326.36
577.552	328.7
577.976	312.32
578.399	359.13
578.822	405.94
579.245	389.55
579.669	387.21
580.092	368.49
580.515	359.13
580.938	293.59
581.361	361.47
581.784	331.04
582.206	368.49
582.629	312.32
583.052	377.85
583.474	309.97
583.897	293.59
584.32	317
584.742	307.63
585.165	335.72
585.587	340.4
586.009	373.17
586.431	342.74
586.854	394.23
587.276	394.23
587.698	326.36
588.12	281.89
588.542	295.93
588.964	340.4
589.386	274.87
589.807	342.74
590.229	274.87
590.651	333.38
591.073	331.04
591.494	312.32
591.916	342.74
592.337	368.49
592.759	328.7
593.18	293.59
593.601	317
594.022	333.38
594.444	345.08
594.865	354.44
595.286	312.32
595.707	300.61
596.128	281.89
596.549	286.57
596.97	319.34
597.39	312.32
597.811	363.81
598.232	298.27
598.652	281.89
599.073	321.68
599.494	302.95
599.914	314.66
600.334	342.74
600.755	293.59
601.175	312.32
601.595	359.13
602.015	300.61
602.436	342.74
602.856	419.98
603.276	298.27
603.696	335.72
604.115	284.23
604.535	267.85
604.955	352.1
605.375	352.1
605.794	333.38
606.214	349.76
606.634	309.97
607.053	309.97
607.473	417.64
607.892	356.79
608.311	335.72
608.731	326.36
609.15	298.27
609.569	305.29
609.988	312.32
610.407	398.92
610.826	314.66
611.245	366.15
611.664	314.66
612.083	363.81
612.501	295.93
612.92	347.42
613.339	373.17
613.757	347.42
614.176	338.06
614.594	295.93
615.013	284.23
615.431	295.93
615.85	260.82
616.268	345.08
616.686	314.66
617.104	265.5
617.522	342.74
617.94	347.42
618.358	324.02
618.776	281.89
619.194	326.36
619.612	309.97
620.03	331.04
620.447	319.34
620.865	359.13
621.282	244.44
621.7	345.08
622.117	260.82
622.535	293.59
622.952	335.72
623.369	368.49
623.787	347.42
624.204	319.34
624.621	326.36
625.038	263.16
625.455	317
625.872	340.4
626.289	317
626.706	347.42
627.123	335.72
627.539	286.57
627.956	326.36
628.373	352.1
628.789	354.44
629.206	319.34
629.622	333.38
630.038	319.34
630.455	319.34
630.871	305.29
631.287	335.72
631.703	347.42
632.12	405.94
632.536	335.72
632.952	300.61
633.368	333.38
633.783	326.36
634.199	302.95
634.615	324.02
635.031	317
635.446	258.48
635.862	286.57
636.277	317
636.693	347.42
637.108	286.57
637.524	291.25
637.939	328.7
638.354	305.29
638.77	321.68
639.185	333.38
639.6	359.13
640.015	377.85
640.43	258.48
640.845	331.04
641.259	258.48
641.674	321.68
642.089	359.13
642.504	408.28
642.918	256.14
643.333	300.61
643.747	312.32
644.162	359.13
644.576	314.66
644.991	265.5
645.405	293.59
645.819	307.63
646.233	246.78
646.647	352.1
647.061	302.95
647.475	293.59
647.889	338.06
648.303	326.36
648.717	239.76
649.131	349.76
649.545	349.76
649.958	284.23
650.372	370.83
650.785	305.29
651.199	284.23
651.612	349.76
652.026	340.4
652.439	328.7
652.852	286.57
653.266	284.23
653.679	382.53
654.092	284.23
654.505	359.13
654.918	281.89
655.331	293.59
655.744	352.1
656.156	317
656.569	265.5
656.982	288.91
657.394	307.63
657.807	314.66
658.22	300.61
658.632	288.91
659.044	361.47
659.457	352.1
659.869	342.74
660.281	331.04
660.693	324.02
661.106	333.38
661.518	356.79
661.93	305.29
662.342	321.68
662.754	324.02
663.165	305.29
663.577	284.23
663.989	342.74
664.401	302.95
664.812	370.83
665.224	324.02
665.635	256.14
666.047	291.25
666.458	377.85
666.869	324.02
667.281	342.74
667.692	349.76
668.103	312.32
668.514	373.17
668.925	328.7
669.336	352.1
669.747	293.59
670.158	265.5
670.569	300.61
670.979	293.59
671.39	352.1
671.801	335.72
672.211	340.4
672.622	368.49
673.032	302.95
673.443	286.57
673.853	342.74
674.263	274.87
674.674	331.04
675.084	345.08
675.494	361.47
675.904	286.57
676.314	317
676.724	349.76
677.134	277.21
677.544	291.25
677.953	328.7
678.363	324.02
678.773	391.89
679.182	347.42
679.592	288.91
680.001	284.23
680.411	333.38
680.82	333.38
681.23	274.87
681.639	267.85
682.048	382.53
682.457	361.47
682.866	333.38
683.275	302.95
683.684	277.21
684.093	328.7
684.502	267.85
684.911	333.38
685.32	302.95
685.728	324.02
686.137	302.95
686.546	342.74
686.954	347.42
687.363	331.04
687.771	295.93
688.179	321.68
688.588	328.7
688.996	307.63
689.404	288.91
689.812	309.97
690.22	331.04
690.628	359.13
691.036	291.25
691.444	380.19
691.852	331.04
692.26	345.08
692.667	359.13
693.075	288.91
693.483	286.57
693.89	359.13
694.298	300.61
694.705	293.59
695.112	333.38
695.52	352.1
695.927	363.81
696.334	340.4
696.741	265.5
697.148	291.25
697.555	272.53
697.962	347.42
698.369	363.81
698.776	312.32
699.183	335.72
699.59	298.27
699.996	312.32
700.403	352.1
700.81	321.68
701.216	380.19
701.623	286.57
702.029	279.55
702.435	347.42
702.842	302.95
703.248	324.02
703.654	314.66
704.06	342.74
704.466	363.81
704.872	363.81
705.278	305.29
705.684	361.47
706.09	333.38
706.496	394.23
706.901	366.15
707.307	333.38
707.712	375.51
708.118	324.02
708.523	340.4
708.929	331.04
709.334	356.79
709.74	317
710.145	380.19
710.55	256.14
710.955	298.27
711.36	279.55
711.765	277.21
712.17	281.89
712.575	326.36
712.98	951.28
713.385	366.15
713.789	281.89
714.194	274.87
714.599	291.25
715.003	347.42
715.408	326.36
715.812	354.44
716.217	368.49
716.621	415.3
717.025	317
717.429	324.02
717.833	356.79
718.238	242.1
718.642	307.63
719.046	277.21
719.449	309.97
719.853	284.23
720.257	309.97
720.661	342.74
721.065	305.29
721.468	331.04
721.872	293.59
722.275	284.23
722.679	314.66
723.082	258.48
723.485	302.95
723.889	340.4
724.292	279.55
724.695	342.74
725.098	319.34
725.501	307.63
725.904	284.23
726.307	342.74
726.71	319.34
727.113	331.04
727.516	253.8
727.918	298.27
728.321	361.47
728.724	335.72
729.126	401.26
729.529	317
729.931	370.83
730.333	347.42
730.736	314.66
731.138	333.38
731.54	314.66
731.942	342.74
732.344	349.76
732.746	305.29
733.148	328.7
733.55	342.74
733.952	356.79
734.354	359.13
734.756	286.57
735.157	260.82
735.559	314.66
735.96	331.04
736.362	335.72
736.763	342.74
737.165	333.38
737.566	370.83
737.967	331.04
738.368	319.34
738.77	328.7
739.171	314.66
739.572	291.25
739.973	284.23
740.374	279.55
740.774	377.85
741.175	305.29
741.576	302.95
741.977	345.08
742.377	305.29
742.778	251.46
743.178	356.79
743.579	302.95
743.979	286.57
744.379	389.55
744.78	361.47
745.18	284.23
745.58	256.14
745.98	267.85
746.38	347.42
746.78	361.47
747.18	354.44
747.58	326.36
747.98	333.38
748.38	274.87
748.779	291.25
749.179	300.61
749.578	356.79
749.978	398.92
750.377	382.53
750.777	363.81
751.176	321.68
751.575	326.36
751.975	295.93
752.374	333.38
752.773	338.06
753.172	326.36
753.571	389.55
753.97	389.55
754.369	324.02
754.768	321.68
755.166	309.97
755.565	352.1
755.964	281.89
756.362	305.29
756.761	368.49
757.159	363.81
757.558	389.55
757.956	298.27
758.354	309.97
758.753	335.72
759.151	398.92
759.549	342.74
759.947	361.47
760.345	284.23
760.743	291.25
761.141	324.02
761.539	352.1
761.936	356.79
762.334	321.68
762.732	345.08
763.129	300.61
763.527	361.47
763.924	307.63
764.322	396.57
764.719	412.96
765.117	326.36
765.514	361.47
765.911	314.66
766.308	321.68
766.705	345.08
767.102	305.29
767.499	291.25
767.896	319.34
768.293	288.91
768.69	347.42
769.086	389.55
769.483	307.63
769.88	359.13
770.276	305.29
770.673	331.04
771.069	314.66
771.466	319.34
771.862	349.76
772.258	267.85
772.654	312.32
773.05	235.08
773.447	279.55
773.843	321.68
774.239	380.19
774.634	345.08
775.03	345.08
775.426	300.61
775.822	312.32
776.218	375.51
776.613	333.38
777.009	366.15
777.404	359.13
777.8	317
778.195	256.14
778.59	272.53
778.986	349.76
779.381	373.17
779.776	314.66
780.171	363.81
780.566	340.4
780.961	321.68
781.356	412.96
781.751	319.34
782.146	328.7
782.54	284.23
782.935	279.55
783.33	274.87
783.724	317
784.119	345.08
784.513	317
784.908	277.21
785.302	270.19
785.696	291.25
786.09	281.89
786.485	281.89
786.879	300.61
787.273	300.61
787.667	307.63
788.061	307.63
788.454	270.19
788.848	279.55
789.242	382.53
789.636	295.93
790.029	277.21
790.423	309.97
790.816	356.79
791.21	356.79
791.603	342.74
791.997	309.97
792.39	279.55
792.783	331.04
793.176	317
793.569	300.61
793.962	302.95
794.355	314.66
794.748	335.72
795.141	305.29
795.534	331.04
795.927	321.68
796.319	398.92
796.712	333.38
797.105	305.29
797.497	284.23
797.89	302.95
798.282	356.79
798.674	291.25
799.067	324.02
799.459	288.91
799.851	307.63
800.243	317
800.635	284.23
801.027	277.21
801.419	305.29
801.811	333.38
802.203	361.47
802.594	331.04
802.986	291.25
803.378	417.64
803.769	286.57
804.161	277.21
804.552	279.55
804.944	228.06
805.335	380.19
805.726	380.19
806.118	314.66
806.509	295.93
806.9	307.63
807.291	319.34
807.682	295.93
808.073	286.57
808.464	361.47
808.855	366.15
809.245	326.36
809.636	291.25
810.027	300.61
810.417	314.66
810.808	293.59
811.198	333.38
811.589	317
811.979	265.5
812.369	314.66
812.759	251.46
813.15	347.42
813.54	305.29
813.93	284.23
814.32	328.7
814.71	380.19
815.1	312.32
815.489	328.7
815.879	288.91
816.269	331.04
816.658	253.8
817.048	410.62
817.438	317
817.827	328.7
818.216	326.36
818.606	359.13
818.995	291.25
819.384	281.89
819.773	326.36
820.163	300.61
820.552	368.49
820.941	284.23
821.33	387.21
821.718	272.53
822.107	331.04
822.496	307.63
822.885	331.04
823.273	293.59
823.662	359.13
824.05	340.4
824.439	300.61
824.827	293.59
825.216	340.4
825.604	293.59
825.992	307.63
826.38	265.5
826.768	284.23
827.156	363.81
827.544	312.32
827.932	333.38
828.32	270.19
828.708	387.21
829.096	291.25
829.483	373.17
829.871	281.89
830.259	281.89
830.646	293.59
831.034	307.63
831.421	272.53
831.808	256.14
832.196	298.27
832.583	302.95
832.97	253.8
833.357	349.76
833.744	387.21
834.131	412.96
834.518	363.81
834.905	331.04
835.292	321.68
835.678	321.68
836.065	368.49
836.452	305.29
836.838	302.95
837.225	302.95
837.611	326.36
837.998	340.4
838.384	309.97
838.77	312.32
839.157	326.36
839.543	333.38
839.929	293.59
840.315	331.04
840.701	302.95
841.087	281.89
841.473	272.53
841.858	335.72
842.244	312.32
842.63	302.95
843.015	288.91
843.401	602.54
843.787	328.7
844.172	307.63
844.557	349.76
844.943	295.93
845.328	331.04
845.713	359.13
846.098	309.97
846.483	349.76
846.868	319.34
847.253	288.91
847.638	270.19
848.023	363.81
848.408	331.04
848.793	345.08
849.177	370.83
849.562	319.34
849.947	272.53
850.331	373.17
850.715	319.34
851.1	319.34
851.484	331.04
851.868	349.76
852.253	338.06
852.637	312.32
853.021	302.95
853.405	335.72
853.789	307.63
854.173	349.76
854.557	288.91
854.94	359.13
855.324	328.7
855.708	324.02
856.091	335.72
856.475	314.66
856.858	410.62
857.242	302.95
857.625	394.23
858.009	328.7
858.392	314.66
858.775	328.7
859.158	312.32
859.541	302.95
859.924	307.63
860.307	338.06
860.69	331.04
861.073	368.49
861.456	321.68
861.838	277.21
862.221	317
862.604	321.68
862.986	265.5
863.369	354.44
863.751	366.15
864.133	328.7
864.516	288.91
864.898	317
865.28	253.8
865.662	354.44
866.044	382.53
866.426	314.66
866.808	333.38
867.19	302.95
867.572	366.15
867.954	305.29
868.336	314.66
868.717	328.7
869.099	321.68
869.48	317
869.862	291.25
870.243	352.1
870.625	279.55
871.006	321.68
871.387	286.57
871.768	302.95
872.149	366.15
872.53	384.87
872.911	293.59
873.292	267.85
873.673	312.32
874.054	387.21
874.435	359.13
874.815	307.63
875.196	300.61
875.577	326.36
875.957	307.63
876.338	302.95
876.718	295.93
877.098	331.04
877.479	314.66
877.859	300.61
878.239	359.13
878.619	267.85
878.999	265.5
879.379	338.06
879.759	349.76
880.139	373.17
880.519	384.87
880.898	298.27
881.278	312.32
881.658	298.27
882.037	319.34
882.417	312.32
882.796	333.38
883.176	288.91
883.555	281.89
883.934	317
884.313	349.76
884.693	328.7
885.072	281.89
885.451	260.82
885.83	324.02
886.209	317
886.587	321.68
886.966	368.49
887.345	300.61
887.724	300.61
888.102	324.02
888.481	363.81
888.859	349.76
889.238	298.27
889.616	335.72
889.994	324.02
890.373	333.38
890.751	293.59
891.129	319.34
891.507	305.29
891.885	319.34
892.263	356.79
892.641	288.91
893.019	340.4
893.396	370.83
893.774	307.63
894.152	270.19
894.529	277.21
894.907	298.27
895.284	286.57
895.662	305.29
896.039	328.7
896.416	324.02
896.794	314.66
897.171	263.16
897.548	328.7
897.925	312.32
898.302	305.29
898.679	328.7
899.056	326.36
899.433	345.08
899.809	331.04
900.186	309.97
900.563	293.59
900.939	309.97
901.316	319.34
901.692	335.72
902.069	293.59
902.445	335.72
902.821	321.68
903.197	331.04
903.574	309.97
903.95	293.59
904.326	324.02
904.702	312.32
905.078	274.87
905.454	359.13
905.829	363.81
906.205	239.76
906.581	242.1
906.956	349.76
907.332	298.27
907.707	328.7
908.083	356.79
908.458	361.47
908.833	251.46
909.209	319.34
909.584	321.68
909.959	317
910.334	328.7
910.709	295.93
911.084	242.1
911.459	321.68
911.834	352.1
912.209	293.59
912.583	277.21
912.958	356.79
913.333	321.68
913.707	398.92
914.082	335.72
914.456	295.93
914.83	251.46
915.205	279.55
915.579	281.89
915.953	277.21
916.327	300.61
916.701	291.25
917.075	286.57
917.449	368.49
917.823	277.21
918.197	302.95
918.571	274.87
918.944	352.1
919.318	340.4
919.692	291.25
920.065	312.32
920.438	373.17
920.812	286.57
921.185	298.27
921.558	265.5
921.932	284.23
922.305	314.66
922.678	314.66
923.051	338.06
923.424	331.04
923.797	251.46
924.17	328.7
924.542	342.74
924.915	284.23
925.288	368.49
925.661	328.7
926.033	335.72
926.406	305.29
926.778	340.4
927.15	302.95
927.523	293.59
927.895	319.34
928.267	295.93
928.639	345.08
929.011	317
929.383	307.63
929.755	317
930.127	286.57
930.499	272.53
930.871	314.66
931.242	375.51
931.614	286.57
931.986	328.7
932.357	284.23
932.729	333.38
933.1	307.63
933.471	338.06
933.843	270.19
934.214	317
934.585	342.74
934.956	253.8
935.327	279.55
935.698	333.38
936.069	253.8
936.44	295.93
936.811	354.44
937.182	277.21
937.552	319.34
937.923	377.85
938.293	244.44
938.664	258.48
939.034	309.97
939.405	335.72
939.775	326.36
940.145	288.91
940.516	253.8
940.886	293.59
941.256	305.29
941.626	281.89
941.996	328.7
942.366	274.87
942.735	317
943.105	333.38
943.475	368.49
943.845	293.59
944.214	274.87
944.584	328.7
944.953	347.42
945.323	251.46
945.692	307.63
946.061	345.08
946.43	307.63
946.8	335.72
947.169	356.79
947.538	305.29
947.907	366.15
948.276	361.47
948.645	333.38
949.013	298.27
949.382	309.97
949.751	274.87
950.119	347.42
950.488	352.1
950.857	333.38
951.225	382.53
951.593	284.23
951.962	326.36
952.33	361.47
952.698	300.61
953.066	281.89
953.434	288.91
953.802	305.29
954.17	352.1
954.538	312.32
954.906	312.32
955.274	277.21
955.642	319.34
956.009	295.93
956.377	335.72
956.744	331.04
957.112	295.93
957.479	317
957.847	295.93
958.214	398.92
958.581	335.72
958.948	286.57
959.315	286.57
959.683	342.74
960.05	328.7
960.416	319.34
960.783	291.25
961.15	295.93
961.517	281.89
961.884	363.81
962.25	317
962.617	260.82
962.983	305.29
963.35	321.68
963.716	272.53
964.082	267.85
964.449	291.25
964.815	338.06
965.181	302.95
965.547	302.95
965.913	314.66
966.279	312.32
966.645	302.95
967.011	302.95
967.377	331.04
967.742	394.23
968.108	363.81
968.474	288.91
968.839	260.82
969.205	363.81
969.57	331.04
969.935	314.66
970.301	272.53
970.666	230.4
971.031	375.51
971.396	307.63
971.761	305.29
972.126	349.76
972.491	328.7
972.856	349.76
973.221	230.4
973.586	319.34
973.95	335.72
974.315	256.14
974.679	340.4
975.044	267.85
975.408	331.04
975.773	328.7
976.137	288.91
976.501	345.08
976.866	314.66
977.23	293.59
977.594	298.27
977.958	356.79
978.322	342.74
978.686	305.29
979.049	279.55
979.413	352.1
979.777	302.95
980.141	291.25
980.504	267.85
980.868	352.1
981.231	380.19
981.595	321.68
981.958	354.44
982.321	324.02
982.684	309.97
983.048	309.97
983.411	265.5
983.774	319.34
984.137	366.15
984.5	307.63
984.862	317
985.225	288.91
985.588	368.49
985.951	298.27
986.313	295.93
986.676	319.34
987.038	305.29
987.401	293.59
987.763	333.38
988.125	352.1
988.488	349.76
988.85	314.66
989.212	307.63
989.574	333.38
989.936	309.97
990.298	340.4
990.66	291.25
991.022	342.74
991.383	295.93
991.745	321.68
992.107	312.32
992.468	260.82
992.83	361.47
993.191	324.02
993.553	326.36
993.914	284.23
994.275	366.15
994.637	300.61
994.998	281.89
995.359	267.85
995.72	335.72
996.081	302.95
996.442	340.4
996.803	331.04
997.163	319.34
997.524	324.02
997.885	288.91
998.245	363.81
998.606	335.72
998.966	335.72
999.327	295.93
999.687	309.97
1000.047	267.85
1000.408	291.25
1000.768	333.38
1001.128	324.02
1001.488	256.14
1001.848	370.83
1002.208	298.27
1002.568	361.47
1002.927	263.16
1003.287	270.19
1003.647	277.21
1004.007	328.7
1004.366	333.38
1004.726	260.82
1005.085	338.06
1005.444	352.1
1005.804	288.91
1006.163	342.74
1006.522	366.15
1006.881	302.95
1007.24	347.42
1007.599	267.85
1007.958	225.72
1008.317	270.19
1008.676	260.82
1009.035	312.32
1009.393	338.06
1009.752	265.5
1010.111	319.34
1010.469	389.55
1010.828	345.08
1011.186	284.23
1011.544	349.76
1011.903	331.04
1012.261	347.42
1012.619	300.61
1012.977	312.32
1013.335	349.76
1013.693	312.32
1014.051	382.53
1014.409	382.53
1014.767	288.91
1015.124	373.17
1015.482	335.72
1015.84	319.34
1016.197	333.38
1016.555	328.7
1016.912	281.89
1017.269	333.38
1017.627	335.72
1017.984	338.06
1018.341	288.91
1018.698	326.36
1019.055	328.7
1019.412	286.57
1019.769	335.72
1020.126	281.89
1020.483	319.34
1020.84	302.95
1021.196	338.06
1021.553	338.06
1021.909	288.91
1022.266	298.27
1022.622	279.55
1022.979	321.68
1023.335	349.76
1023.691	286.57
1024.047	263.16
1024.404	305.29
1024.76	340.4
1025.116	312.32
1025.472	333.38
1025.827	246.78
1026.183	253.8
1026.539	265.5
1026.895	321.68
1027.25	384.87
1027.606	368.49
1027.961	293.59
1028.317	288.91
1028.672	363.81
1029.028	359.13
1029.383	331.04
1029.738	298.27
1030.093	333.38
1030.448	342.74
1030.803	298.27
1031.158	260.82
1031.513	328.7
1031.868	309.97
1032.223	295.93
1032.577	314.66
1032.932	319.34
1033.287	302.95
1033.641	340.4
1033.996	281.89
1034.35	333.38
1034.704	274.87
1035.059	265.5
1035.413	293.59
1035.767	293.59
1036.121	293.59
