Data from Al_FLMS009871__481__14-36-44-930.txt Node

Date: Fri Mar 08 14:36:44 CST 2024
User: pe5414po
Spectrometer: FLMS00987
Trigger mode: 0
Integration Time (sec): 1.000000E-1
Scans to average: 1
Electric dark correction enabled: true
Nonlinearity correction enabled: false
Boxcar width: 0
XAxis mode: Wavelengths
Number of Pixels in Spectrum: 2048
>>>>>Begin Spectral Data<<<<<
188.938	-24.28
189.409	-24.28
189.879	-24.28
190.349	-101.52
190.819	-52.37
191.29	-122.59
191.76	-101.52
192.23	-89.82
192.7	-120.25
193.17	-52.37
193.64	-3.22
194.109	-68.75
194.579	-47.69
195.049	10.82
195.519	64.66
195.988	50.61
196.458	59.98
196.927	118.49
197.397	52.95
197.866	104.45
198.336	144.24
198.805	172.32
199.274	148.92
199.744	158.28
200.213	244.88
200.682	209.77
201.151	256.58
201.62	249.56
202.089	244.88
202.558	254.24
203.027	298.71
203.495	284.67
203.964	223.81
204.433	277.65
204.902	249.56
205.37	258.92
205.839	265.94
206.307	324.46
206.776	265.94
207.244	284.67
207.712	289.35
208.181	294.03
208.649	289.35
209.117	289.35
209.585	364.25
210.053	315.09
210.521	331.48
210.989	352.54
211.457	268.28
211.925	305.73
212.393	350.2
212.861	303.39
213.328	312.75
213.796	303.39
214.264	289.35
214.731	265.94
215.199	289.35
215.666	340.84
216.133	289.35
216.601	263.6
217.068	279.99
217.535	272.96
218.003	275.31
218.47	244.88
218.937	258.92
219.404	254.24
219.871	287.01
220.338	265.94
220.805	240.2
221.271	340.84
221.738	282.33
222.205	242.54
222.671	308.07
223.138	279.99
223.605	261.26
224.071	254.24
224.538	240.2
225.004	310.41
225.47	240.2
225.937	268.28
226.403	287.01
226.869	251.9
227.335	240.2
227.801	195.73
228.267	237.86
228.733	289.35
229.199	240.2
229.665	303.39
230.131	277.65
230.597	289.35
231.062	268.28
231.528	205.09
231.994	237.86
232.459	322.12
232.925	249.56
233.39	298.71
233.856	301.05
234.321	308.07
234.786	219.13
235.252	251.9
235.717	258.92
236.182	291.69
236.647	249.56
237.112	256.58
237.577	254.24
238.042	322.12
238.507	324.46
238.972	284.67
239.436	312.75
239.901	301.05
240.366	275.31
240.83	265.94
241.295	242.54
241.76	322.12
242.224	277.65
242.688	270.62
243.153	247.22
243.617	287.01
244.081	322.12
244.545	284.67
245.01	249.56
245.474	279.99
245.938	284.67
246.402	265.94
246.866	294.03
247.33	270.62
247.793	310.41
248.257	270.62
248.721	261.26
249.185	256.58
249.648	282.33
250.112	277.65
250.575	291.69
251.039	338.5
251.502	279.99
251.965	310.41
252.429	242.54
252.892	235.52
253.355	329.14
253.818	272.96
254.281	343.18
254.744	357.22
255.207	244.88
255.67	287.01
256.133	254.24
256.596	279.99
257.059	333.82
257.522	277.65
257.984	275.31
258.447	296.37
258.909	347.86
259.372	284.67
259.834	251.9
260.297	275.31
260.759	294.03
261.221	291.69
261.684	265.94
262.146	301.05
262.608	317.44
263.07	354.88
263.532	254.24
263.994	289.35
264.456	249.56
264.918	254.24
265.38	244.88
265.842	263.6
266.303	263.6
266.765	308.07
267.227	301.05
267.688	268.28
268.15	268.28
268.611	347.86
269.072	268.28
269.534	310.41
269.995	322.12
270.456	340.84
270.918	263.6
271.379	289.35
271.84	263.6
272.301	368.93
272.762	336.16
273.223	277.65
273.684	216.79
274.144	282.33
274.605	284.67
275.066	310.41
275.527	270.62
275.987	287.01
276.448	319.78
276.908	298.71
277.369	244.88
277.829	296.37
278.289	331.48
278.75	301.05
279.21	310.41
279.67	305.73
280.13	359.56
280.59	345.52
281.05	291.69
281.51	324.46
281.97	294.03
282.43	359.56
282.89	329.14
283.35	324.46
283.809	368.93
284.269	345.52
284.729	261.26
285.188	319.78
285.648	261.26
286.107	279.99
286.567	291.69
287.026	254.24
287.485	352.54
287.944	315.09
288.404	258.92
288.863	319.78
289.322	277.65
289.781	336.16
290.24	256.58
290.699	298.71
291.158	333.82
291.616	261.26
292.075	315.09
292.534	209.77
292.992	333.82
293.451	364.25
293.91	235.52
294.368	345.52
294.827	256.58
295.285	350.2
295.743	329.14
296.202	310.41
296.66	319.78
297.118	326.8
297.576	303.39
298.034	296.37
298.492	315.09
298.95	380.63
299.408	338.5
299.866	284.67
300.324	331.48
300.781	397.01
301.239	303.39
301.697	315.09
302.154	294.03
302.612	298.71
303.069	303.39
303.527	340.84
303.984	247.22
304.441	303.39
304.899	277.65
305.356	340.84
305.813	317.44
306.27	284.67
306.727	294.03
307.184	223.81
307.641	350.2
308.098	305.73
308.555	312.75
309.012	308.07
309.468	287.01
309.925	298.71
310.382	279.99
310.838	322.12
311.295	291.69
311.751	251.9
312.208	329.14
312.664	333.82
313.12	279.99
313.577	291.69
314.033	333.82
314.489	291.69
314.945	289.35
315.401	357.22
315.857	305.73
316.313	298.71
316.769	282.33
317.225	319.78
317.681	347.86
318.136	289.35
318.592	258.92
319.048	343.18
319.503	319.78
319.959	315.09
320.414	366.59
320.869	345.52
321.325	364.25
321.78	347.86
322.235	368.93
322.691	258.92
323.146	347.86
323.601	366.59
324.056	272.96
324.511	354.88
324.966	270.62
325.421	258.92
325.875	371.27
326.33	291.69
326.785	319.78
327.24	296.37
327.694	345.52
328.149	308.07
328.603	343.18
329.058	240.2
329.512	289.35
329.966	301.05
330.421	315.09
330.875	279.99
331.329	368.93
331.783	282.33
332.237	361.91
332.691	312.75
333.145	272.96
333.599	359.56
334.053	333.82
334.507	345.52
334.96	336.16
335.414	389.99
335.868	331.48
336.321	251.9
336.775	333.82
337.228	319.78
337.682	308.07
338.135	298.71
338.588	301.05
339.042	265.94
339.495	329.14
339.948	324.46
340.401	394.67
340.854	263.6
341.307	322.12
341.76	333.82
342.213	331.48
342.666	347.86
343.119	263.6
343.571	298.71
344.024	326.8
344.477	308.07
344.929	277.65
345.382	254.24
345.834	305.73
346.287	394.67
346.739	301.05
347.191	284.67
347.644	272.96
348.096	294.03
348.548	310.41
349	333.82
349.452	279.99
349.904	333.82
350.356	303.39
350.808	319.78
351.26	270.62
351.711	305.73
352.163	275.31
352.615	322.12
353.066	305.73
353.518	389.99
353.969	345.52
354.421	336.16
354.872	303.39
355.324	308.07
355.775	350.2
356.226	315.09
356.677	263.6
357.128	298.71
357.579	366.59
358.03	275.31
358.481	340.84
358.932	343.18
359.383	287.01
359.834	277.65
360.285	345.52
360.735	382.97
361.186	284.67
361.637	298.71
362.087	397.01
362.538	315.09
362.988	310.41
363.438	382.97
363.889	399.35
364.339	312.75
364.789	364.25
365.239	310.41
365.689	333.82
366.139	345.52
366.589	354.88
367.039	371.27
367.489	305.73
367.939	340.84
368.389	258.92
368.839	343.18
369.288	345.52
369.738	354.88
370.187	256.58
370.637	322.12
371.086	298.71
371.536	310.41
371.985	333.82
372.434	289.35
372.884	279.99
373.333	343.18
373.782	272.96
374.231	331.48
374.68	338.5
375.129	277.65
375.578	298.71
376.027	310.41
376.475	289.35
376.924	329.14
377.373	322.12
377.822	315.09
378.27	329.14
378.719	347.86
379.167	333.82
379.616	359.56
380.064	298.71
380.512	287.01
380.961	310.41
381.409	294.03
381.857	317.44
382.305	319.78
382.753	317.44
383.201	235.52
383.649	308.07
384.097	352.54
384.545	287.01
384.992	352.54
385.44	296.37
385.888	282.33
386.335	340.84
386.783	345.52
387.231	331.48
387.678	322.12
388.125	347.86
388.573	294.03
389.02	329.14
389.467	350.2
389.914	298.71
390.362	301.05
390.809	265.94
391.256	380.63
391.703	368.93
392.15	319.78
392.596	343.18
393.043	251.9
393.49	289.35
393.937	312.75
394.383	287.01
394.83	303.39
395.276	404.03
395.723	333.82
396.169	354.88
396.616	340.84
397.062	265.94
397.508	319.78
397.954	317.44
398.401	301.05
398.847	322.12
399.293	340.84
399.739	380.63
400.185	272.96
400.631	310.41
401.076	284.67
401.522	359.56
401.968	322.12
402.414	301.05
402.859	343.18
403.305	270.62
403.75	298.71
404.196	303.39
404.641	324.46
405.086	368.93
405.532	385.31
405.977	352.54
406.422	340.84
406.867	308.07
407.312	289.35
407.757	305.73
408.202	359.56
408.647	275.31
409.092	361.91
409.537	324.46
409.982	275.31
410.426	265.94
410.871	289.35
411.316	303.39
411.76	256.58
412.205	322.12
412.649	308.07
413.093	296.37
413.538	336.16
413.982	298.71
414.426	312.75
414.87	268.28
415.314	350.2
415.758	244.88
416.202	329.14
416.646	336.16
417.09	331.48
417.534	317.44
417.978	324.46
418.421	258.92
418.865	357.22
419.309	298.71
419.752	329.14
420.196	354.88
420.639	275.31
421.083	272.96
421.526	272.96
421.969	324.46
422.412	324.46
422.856	298.71
423.299	324.46
423.742	272.96
424.185	317.44
424.628	303.39
425.071	352.54
425.513	294.03
425.956	315.09
426.399	343.18
426.842	368.93
427.284	336.16
427.727	359.56
428.169	336.16
428.612	345.52
429.054	322.12
429.497	296.37
429.939	326.8
430.381	343.18
430.823	357.22
431.265	336.16
431.707	233.18
432.149	333.82
432.591	336.16
433.033	263.6
433.475	305.73
433.917	366.59
434.359	336.16
434.8	296.37
435.242	324.46
435.684	326.8
436.125	310.41
436.567	319.78
437.008	387.65
437.449	345.52
437.891	296.37
438.332	310.41
438.773	263.6
439.214	312.75
439.656	301.05
440.097	326.8
440.538	343.18
440.978	235.52
441.419	331.48
441.86	287.01
442.301	413.4
442.742	345.52
443.182	272.96
443.623	317.44
444.063	289.35
444.504	301.05
444.944	333.82
445.385	375.95
445.825	333.82
446.265	324.46
446.706	287.01
447.146	401.69
447.586	352.54
448.026	303.39
448.466	354.88
448.906	336.16
449.346	291.69
449.786	270.62
450.225	364.25
450.665	310.41
451.105	315.09
451.544	329.14
451.984	338.5
452.424	305.73
452.863	277.65
453.302	308.07
453.742	319.78
454.181	310.41
454.62	350.2
455.059	364.25
455.499	296.37
455.938	291.69
456.377	315.09
456.816	359.56
457.254	357.22
457.693	298.71
458.132	404.03
458.571	359.56
459.01	378.29
459.448	329.14
459.887	263.6
460.325	301.05
460.764	340.84
461.202	298.71
461.641	366.59
462.079	319.78
462.517	352.54
462.955	326.8
463.393	324.46
463.832	315.09
464.27	305.73
464.708	354.88
465.145	315.09
465.583	331.48
466.021	359.56
466.459	317.44
466.897	301.05
467.334	284.67
467.772	322.12
468.209	359.56
468.647	315.09
469.084	272.96
469.522	322.12
469.959	368.93
470.396	322.12
470.833	382.97
471.271	394.67
471.708	322.12
472.145	312.75
472.582	345.52
473.019	305.73
473.456	319.78
473.892	406.38
474.329	378.29
474.766	347.86
475.202	289.35
475.639	258.92
476.076	312.75
476.512	303.39
476.949	375.95
477.385	333.82
477.821	303.39
478.258	336.16
478.694	284.67
479.13	310.41
479.566	279.99
480.002	303.39
480.438	352.54
480.874	322.12
481.31	301.05
481.746	315.09
482.181	298.71
482.617	279.99
483.053	294.03
483.488	333.82
483.924	317.44
484.36	338.5
484.795	296.37
485.23	289.35
485.666	275.31
486.101	287.01
486.536	305.73
486.971	336.16
487.407	310.41
487.842	345.52
488.277	364.25
488.712	350.2
489.146	291.69
489.581	310.41
490.016	305.73
490.451	305.73
490.885	350.2
491.32	357.22
491.755	324.46
492.189	308.07
492.624	279.99
493.058	294.03
493.492	329.14
493.927	303.39
494.361	357.22
494.795	329.14
495.229	294.03
495.663	319.78
496.097	219.13
496.531	399.35
496.965	305.73
497.399	294.03
497.833	338.5
498.266	350.2
498.7	317.44
499.134	336.16
499.567	289.35
500.001	371.27
500.434	303.39
500.868	287.01
501.301	338.5
501.734	380.63
502.168	279.99
502.601	279.99
503.034	317.44
503.467	324.46
503.9	275.31
504.333	366.59
504.766	329.14
505.199	263.6
505.632	350.2
506.064	289.35
506.497	296.37
506.93	301.05
507.362	287.01
507.795	345.52
508.227	343.18
508.66	364.25
509.092	296.37
509.524	331.48
509.956	315.09
510.389	322.12
510.821	296.37
511.253	326.8
511.685	378.29
512.117	317.44
512.549	312.75
512.981	350.2
513.412	258.92
513.844	345.52
514.276	343.18
514.707	312.75
515.139	368.93
515.571	392.33
516.002	333.82
516.433	331.48
516.865	303.39
517.296	265.94
517.727	315.09
518.159	322.12
518.59	322.12
519.021	308.07
519.452	322.12
519.883	345.52
520.314	289.35
520.744	340.84
521.175	347.86
521.606	284.67
522.037	258.92
522.467	301.05
522.898	322.12
523.328	324.46
523.759	298.71
524.189	326.8
524.62	287.01
525.05	303.39
525.48	298.71
525.91	301.05
526.341	343.18
526.771	420.42
527.201	279.99
527.631	347.86
528.061	338.5
528.49	247.22
528.92	329.14
529.35	324.46
529.78	282.33
530.209	301.05
530.639	364.25
531.068	174.66
531.498	289.35
531.927	282.33
532.357	310.41
532.786	366.59
533.215	336.16
533.644	389.99
534.074	272.96
534.503	324.46
534.932	338.5
535.361	268.28
535.79	308.07
536.218	310.41
536.647	317.44
537.076	361.91
537.505	317.44
537.933	371.27
538.362	347.86
538.79	333.82
539.219	397.01
539.647	301.05
540.076	340.84
540.504	324.46
540.932	317.44
541.36	392.33
541.788	315.09
542.217	336.16
542.645	354.88
543.073	352.54
543.5	301.05
543.928	303.39
544.356	352.54
544.784	324.46
545.211	303.39
545.639	319.78
546.067	312.75
546.494	378.29
546.922	270.62
547.349	312.75
547.776	352.54
548.204	340.84
548.631	326.8
549.058	291.69
549.485	326.8
549.912	298.71
550.339	336.16
550.766	343.18
551.193	282.33
551.62	329.14
552.047	310.41
552.474	282.33
552.9	317.44
553.327	315.09
553.754	291.69
554.18	315.09
554.607	347.86
555.033	324.46
555.459	354.88
555.886	244.88
556.312	345.52
556.738	357.22
557.164	289.35
557.59	277.65
558.016	343.18
558.442	389.99
558.868	305.73
559.294	338.5
559.72	354.88
560.145	294.03
560.571	336.16
560.997	289.35
561.422	333.82
561.848	404.03
562.273	298.71
562.699	315.09
563.124	347.86
563.549	340.84
563.974	324.46
564.4	352.54
564.825	312.75
565.25	347.86
565.675	284.67
566.1	336.16
566.525	336.16
566.95	378.29
567.374	324.46
567.799	387.65
568.224	319.78
568.648	380.63
569.073	378.29
569.497	317.44
569.922	317.44
570.346	301.05
570.771	298.71
571.195	373.61
571.619	272.96
572.043	310.41
572.467	291.69
572.891	305.73
573.315	291.69
573.739	343.18
574.163	319.78
574.587	343.18
575.011	364.25
575.435	287.01
575.858	308.07
576.282	291.69
576.705	256.58
577.129	324.46
577.552	340.84
577.976	347.86
578.399	291.69
578.822	336.16
579.245	284.67
579.669	331.48
580.092	310.41
580.515	338.5
580.938	357.22
581.361	279.99
581.784	354.88
582.206	315.09
582.629	272.96
583.052	333.82
583.474	389.99
583.897	343.18
584.32	294.03
584.742	287.01
585.165	350.2
585.587	354.88
586.009	270.62
586.431	322.12
586.854	312.75
587.276	331.48
587.698	287.01
588.12	305.73
588.542	359.56
588.964	397.01
589.386	345.52
589.807	294.03
590.229	294.03
590.651	354.88
591.073	326.8
591.494	371.27
591.916	279.99
592.337	275.31
592.759	338.5
593.18	324.46
593.601	336.16
594.022	282.33
594.444	317.44
594.865	333.82
595.286	340.84
595.707	338.5
596.128	324.46
596.549	361.91
596.97	279.99
597.39	364.25
597.811	291.69
598.232	336.16
598.652	359.56
599.073	329.14
599.494	310.41
599.914	319.78
600.334	277.65
600.755	382.97
601.175	291.69
601.595	305.73
602.015	324.46
602.436	322.12
602.856	446.16
603.276	357.22
603.696	303.39
604.115	340.84
604.535	275.31
604.955	354.88
605.375	310.41
605.794	298.71
606.214	345.52
606.634	265.94
607.053	333.82
607.473	357.22
607.892	315.09
608.311	310.41
608.731	289.35
609.15	340.84
609.569	352.54
609.988	326.8
610.407	301.05
610.826	329.14
611.245	378.29
611.664	275.31
612.083	319.78
612.501	333.82
612.92	310.41
613.339	298.71
613.757	303.39
614.176	324.46
614.594	331.48
615.013	343.18
615.431	301.05
615.85	294.03
616.268	256.58
616.686	326.8
617.104	289.35
617.522	287.01
617.94	317.44
618.358	336.16
618.776	324.46
619.194	385.31
619.612	303.39
620.03	389.99
620.447	324.46
620.865	322.12
621.282	366.59
621.7	354.88
622.117	284.67
622.535	326.8
622.952	326.8
623.369	296.37
623.787	333.82
624.204	261.26
624.621	287.01
625.038	319.78
625.455	345.52
625.872	354.88
626.289	305.73
626.706	261.26
627.123	282.33
627.539	263.6
627.956	338.5
628.373	289.35
628.789	315.09
629.206	254.24
629.622	305.73
630.038	338.5
630.455	305.73
630.871	312.75
631.287	301.05
631.703	326.8
632.12	310.41
632.536	308.07
632.952	322.12
633.368	394.67
633.783	310.41
634.199	343.18
634.615	226.15
635.031	303.39
635.446	287.01
635.862	329.14
636.277	289.35
636.693	361.91
637.108	298.71
637.524	298.71
637.939	343.18
638.354	347.86
638.77	322.12
639.185	315.09
639.6	333.82
640.015	373.61
640.43	319.78
640.845	331.48
641.259	312.75
641.674	279.99
642.089	305.73
642.504	357.22
642.918	326.8
643.333	364.25
643.747	338.5
644.162	312.75
644.576	319.78
644.991	291.69
645.405	343.18
645.819	329.14
646.233	411.06
646.647	357.22
647.061	404.03
647.475	345.52
647.889	277.65
648.303	310.41
648.717	305.73
649.131	305.73
649.545	333.82
649.958	261.26
650.372	352.54
650.785	261.26
651.199	279.99
651.612	256.58
652.026	357.22
652.439	303.39
652.852	329.14
653.266	230.84
653.679	326.8
654.092	366.59
654.505	298.71
654.918	338.5
655.331	270.62
655.744	296.37
656.156	366.59
656.569	329.14
656.982	343.18
657.394	310.41
657.807	294.03
658.22	357.22
658.632	352.54
659.044	303.39
659.457	282.33
659.869	340.84
660.281	282.33
660.693	364.25
661.106	270.62
661.518	296.37
661.93	284.67
662.342	268.28
662.754	296.37
663.165	329.14
663.577	294.03
663.989	317.44
664.401	326.8
664.812	350.2
665.224	310.41
665.635	354.88
666.047	282.33
666.458	319.78
666.869	350.2
667.281	296.37
667.692	352.54
668.103	338.5
668.514	366.59
668.925	308.07
669.336	331.48
669.747	308.07
670.158	324.46
670.569	371.27
670.979	389.99
671.39	312.75
671.801	347.86
672.211	312.75
672.622	373.61
673.032	350.2
673.443	289.35
673.853	310.41
674.263	298.71
674.674	301.05
675.084	331.48
675.494	282.33
675.904	324.46
676.314	324.46
676.724	408.72
677.134	294.03
677.544	296.37
677.953	340.84
678.363	312.75
678.773	317.44
679.182	303.39
679.592	298.71
680.001	322.12
680.411	298.71
680.82	287.01
681.23	279.99
681.639	277.65
682.048	359.56
682.457	296.37
682.866	308.07
683.275	287.01
683.684	326.8
684.093	368.93
684.502	354.88
684.911	287.01
685.32	270.62
685.728	361.91
686.137	326.8
686.546	329.14
686.954	298.71
687.363	338.5
687.771	312.75
688.179	319.78
688.588	305.73
688.996	324.46
689.404	268.28
689.812	368.93
690.22	333.82
690.628	256.58
691.036	336.16
691.444	350.2
691.852	284.67
692.26	336.16
692.667	350.2
693.075	268.28
693.483	312.75
693.89	331.48
694.298	361.91
694.705	322.12
695.112	331.48
695.52	279.99
695.927	312.75
696.334	289.35
696.741	340.84
697.148	317.44
697.555	380.63
697.962	298.71
698.369	287.01
698.776	308.07
699.183	310.41
699.59	317.44
699.996	333.82
700.403	308.07
700.81	282.33
701.216	301.05
701.623	310.41
702.029	289.35
702.435	249.56
702.842	226.15
703.248	301.05
703.654	291.69
704.06	291.69
704.466	322.12
704.872	319.78
705.278	324.46
705.684	268.28
706.09	305.73
706.496	312.75
706.901	352.54
707.307	275.31
707.712	312.75
708.118	317.44
708.523	397.01
708.929	294.03
709.334	270.62
709.74	326.8
710.145	258.92
710.55	326.8
710.955	289.35
711.36	258.92
711.765	329.14
712.17	326.8
712.575	287.01
712.98	890.87
713.385	331.48
713.789	347.86
714.194	343.18
714.599	298.71
715.003	361.91
715.408	308.07
715.812	301.05
716.217	326.8
716.621	319.78
717.025	312.75
717.429	254.24
717.833	347.86
718.238	329.14
718.642	296.37
719.046	317.44
719.449	310.41
719.853	291.69
720.257	347.86
720.661	326.8
721.065	329.14
721.468	347.86
721.872	357.22
722.275	361.91
722.679	287.01
723.082	305.73
723.485	361.91
723.889	296.37
724.292	322.12
724.695	251.9
725.098	294.03
725.501	336.16
725.904	228.49
726.307	354.88
726.71	329.14
727.113	275.31
727.516	324.46
727.918	326.8
728.321	263.6
728.724	287.01
729.126	308.07
729.529	317.44
729.931	347.86
730.333	301.05
730.736	308.07
731.138	277.65
731.54	333.82
731.942	389.99
732.344	301.05
732.746	385.31
733.148	279.99
733.55	378.29
733.952	336.16
734.354	305.73
734.756	296.37
735.157	343.18
735.559	317.44
735.96	254.24
736.362	340.84
736.763	270.62
737.165	294.03
737.566	263.6
737.967	263.6
738.368	298.71
738.77	343.18
739.171	279.99
739.572	329.14
739.973	315.09
740.374	287.01
740.774	303.39
741.175	333.82
741.576	296.37
741.977	275.31
742.377	350.2
742.778	326.8
743.178	350.2
743.579	289.35
743.979	340.84
744.379	350.2
744.78	352.54
745.18	308.07
745.58	338.5
745.98	294.03
746.38	294.03
746.78	345.52
747.18	352.54
747.58	296.37
747.98	364.25
748.38	317.44
748.779	310.41
749.179	359.56
749.578	387.65
749.978	319.78
750.377	319.78
750.777	347.86
751.176	345.52
751.575	284.67
751.975	272.96
752.374	333.82
752.773	287.01
753.172	272.96
753.571	265.94
753.97	287.01
754.369	303.39
754.768	336.16
755.166	333.82
755.565	317.44
755.964	279.99
756.362	308.07
756.761	347.86
757.159	219.13
757.558	305.73
757.956	333.82
758.354	324.46
758.753	301.05
759.151	331.48
759.549	331.48
759.947	336.16
760.345	340.84
760.743	244.88
761.141	359.56
761.539	279.99
761.936	329.14
762.334	326.8
762.732	226.15
763.129	303.39
763.527	305.73
763.924	272.96
764.322	315.09
764.719	347.86
765.117	312.75
765.514	261.26
765.911	333.82
766.308	368.93
766.705	324.46
767.102	336.16
767.499	305.73
767.896	345.52
768.293	382.97
768.69	326.8
769.086	301.05
769.483	303.39
769.88	408.72
770.276	324.46
770.673	310.41
771.069	324.46
771.466	392.33
771.862	331.48
772.258	294.03
772.654	310.41
773.05	345.52
773.447	352.54
773.843	303.39
774.239	275.31
774.634	324.46
775.03	347.86
775.426	284.67
775.822	340.84
776.218	317.44
776.613	265.94
777.009	301.05
777.404	340.84
777.8	317.44
778.195	315.09
778.59	312.75
778.986	268.28
779.381	322.12
779.776	329.14
780.171	303.39
780.566	359.56
780.961	382.97
781.356	308.07
781.751	296.37
782.146	308.07
782.54	303.39
782.935	296.37
783.33	375.95
783.724	256.58
784.119	282.33
784.513	345.52
784.908	336.16
785.302	347.86
785.696	303.39
786.09	324.46
786.485	315.09
786.879	371.27
787.273	329.14
787.667	256.58
788.061	326.8
788.454	312.75
788.848	308.07
789.242	357.22
789.636	317.44
790.029	333.82
790.423	317.44
790.816	291.69
791.21	352.54
791.603	319.78
791.997	364.25
792.39	366.59
792.783	305.73
793.176	317.44
793.569	315.09
793.962	319.78
794.355	296.37
794.748	294.03
795.141	324.46
795.534	373.61
795.927	305.73
796.319	364.25
796.712	368.93
797.105	275.31
797.497	277.65
797.89	279.99
798.282	352.54
798.674	312.75
799.067	298.71
799.459	336.16
799.851	226.15
800.243	364.25
800.635	326.8
801.027	343.18
801.419	352.54
801.811	310.41
802.203	305.73
802.594	249.56
802.986	378.29
803.378	298.71
803.769	333.82
804.161	331.48
804.552	298.71
804.944	322.12
805.335	343.18
805.726	354.88
806.118	256.58
806.509	389.99
806.9	308.07
807.291	298.71
807.682	329.14
808.073	284.67
808.464	265.94
808.855	329.14
809.245	310.41
809.636	343.18
810.027	275.31
810.417	354.88
810.808	357.22
811.198	319.78
811.589	312.75
811.979	322.12
812.369	291.69
812.759	338.5
813.15	347.86
813.54	261.26
813.93	364.25
814.32	319.78
814.71	366.59
815.1	319.78
815.489	301.05
815.879	277.65
816.269	258.92
816.658	277.65
817.048	277.65
817.438	301.05
817.827	294.03
818.216	382.97
818.606	350.2
818.995	317.44
819.384	287.01
819.773	350.2
820.163	268.28
820.552	359.56
820.941	263.6
821.33	294.03
821.718	312.75
822.107	336.16
822.496	326.8
822.885	310.41
823.273	317.44
823.662	317.44
824.05	282.33
824.439	315.09
824.827	389.99
825.216	277.65
825.604	310.41
825.992	333.82
826.38	354.88
826.768	265.94
827.156	340.84
827.544	296.37
827.932	294.03
828.32	319.78
828.708	322.12
829.096	336.16
829.483	265.94
829.871	345.52
830.259	310.41
830.646	345.52
831.034	249.56
831.421	247.22
831.808	301.05
832.196	254.24
832.583	338.5
832.97	340.84
833.357	340.84
833.744	315.09
834.131	296.37
834.518	282.33
834.905	275.31
835.292	294.03
835.678	279.99
836.065	331.48
836.452	347.86
836.838	237.86
837.225	308.07
837.611	258.92
837.998	265.94
838.384	361.91
838.77	308.07
839.157	230.84
839.543	275.31
839.929	294.03
840.315	354.88
840.701	333.82
841.087	322.12
841.473	284.67
841.858	340.84
842.244	287.01
842.63	289.35
843.015	294.03
843.401	579.58
843.787	279.99
844.172	345.52
844.557	319.78
844.943	331.48
845.328	343.18
845.713	343.18
846.098	389.99
846.483	338.5
846.868	387.65
847.253	331.48
847.638	354.88
848.023	279.99
848.408	324.46
848.793	284.67
849.177	336.16
849.562	357.22
849.947	361.91
850.331	317.44
850.715	289.35
851.1	352.54
851.484	310.41
851.868	303.39
852.253	301.05
852.637	305.73
853.021	326.8
853.405	361.91
853.789	368.93
854.173	315.09
854.557	233.18
854.94	268.28
855.324	364.25
855.708	345.52
856.091	289.35
856.475	352.54
856.858	364.25
857.242	249.56
857.625	338.5
858.009	315.09
858.392	354.88
858.775	366.59
859.158	364.25
859.541	282.33
859.924	289.35
860.307	315.09
860.69	324.46
861.073	315.09
861.456	371.27
861.838	333.82
862.221	308.07
862.604	312.75
862.986	359.56
863.369	364.25
863.751	322.12
864.133	310.41
864.516	350.2
864.898	368.93
865.28	282.33
865.662	378.29
866.044	352.54
866.426	322.12
866.808	359.56
867.19	347.86
867.572	322.12
867.954	317.44
868.336	317.44
868.717	312.75
869.099	287.01
869.48	312.75
869.862	319.78
870.243	329.14
870.625	322.12
871.006	326.8
871.387	354.88
871.768	291.69
872.149	329.14
872.53	256.58
872.911	305.73
873.292	329.14
873.673	291.69
874.054	254.24
874.435	270.62
874.815	312.75
875.196	347.86
875.577	315.09
875.957	394.67
876.338	352.54
876.718	279.99
877.098	338.5
877.479	322.12
877.859	324.46
878.239	275.31
878.619	324.46
878.999	329.14
879.379	326.8
879.759	317.44
880.139	303.39
880.519	289.35
880.898	315.09
881.278	296.37
881.658	338.5
882.037	312.75
882.417	333.82
882.796	308.07
883.176	322.12
883.555	272.96
883.934	265.94
884.313	303.39
884.693	277.65
885.072	331.48
885.451	319.78
885.83	289.35
886.209	303.39
886.587	359.56
886.966	298.71
887.345	315.09
887.724	287.01
888.102	303.39
888.481	340.84
888.859	254.24
889.238	312.75
889.616	345.52
889.994	326.8
890.373	317.44
890.751	291.69
891.129	233.18
891.507	272.96
891.885	296.37
892.263	343.18
892.641	319.78
893.019	333.82
893.396	301.05
893.774	378.29
894.152	303.39
894.529	319.78
894.907	312.75
895.284	254.24
895.662	317.44
896.039	251.9
896.416	258.92
896.794	298.71
897.171	333.82
897.548	282.33
897.925	315.09
898.302	308.07
898.679	333.82
899.056	298.71
899.433	291.69
899.809	270.62
900.186	296.37
900.563	219.13
900.939	319.78
901.316	291.69
901.692	343.18
902.069	322.12
902.445	345.52
902.821	282.33
903.197	357.22
903.574	331.48
903.95	364.25
904.326	324.46
904.702	315.09
905.078	338.5
905.454	294.03
905.829	287.01
906.205	256.58
906.581	322.12
906.956	287.01
907.332	340.84
907.707	411.06
908.083	209.77
908.458	303.39
908.833	247.22
909.209	326.8
909.584	249.56
909.959	289.35
910.334	368.93
910.709	326.8
911.084	333.82
911.459	331.48
911.834	305.73
912.209	279.99
912.583	315.09
912.958	345.52
913.333	326.8
913.707	317.44
914.082	375.95
914.456	275.31
914.83	329.14
915.205	301.05
915.579	347.86
915.953	333.82
916.327	298.71
916.701	272.96
917.075	408.72
917.449	305.73
917.823	336.16
918.197	352.54
918.571	221.47
918.944	359.56
919.318	340.84
919.692	301.05
920.065	275.31
920.438	322.12
920.812	298.71
921.185	294.03
921.558	291.69
921.932	378.29
922.305	326.8
922.678	315.09
923.051	382.97
923.424	226.15
923.797	303.39
924.17	352.54
924.542	279.99
924.915	366.59
925.288	254.24
925.661	228.49
926.033	279.99
926.406	291.69
926.778	347.86
927.15	296.37
927.523	326.8
927.895	380.63
928.267	301.05
928.639	357.22
929.011	270.62
929.383	310.41
929.755	322.12
930.127	305.73
930.499	361.91
930.871	296.37
931.242	305.73
931.614	279.99
931.986	317.44
932.357	378.29
932.729	308.07
933.1	303.39
933.471	333.82
933.843	343.18
934.214	317.44
934.585	347.86
934.956	303.39
935.327	322.12
935.698	317.44
936.069	343.18
936.44	315.09
936.811	251.9
937.182	378.29
937.552	347.86
937.923	340.84
938.293	312.75
938.664	258.92
939.034	298.71
939.405	272.96
939.775	303.39
940.145	312.75
940.516	308.07
940.886	263.6
941.256	324.46
941.626	298.71
941.996	303.39
942.366	324.46
942.735	343.18
943.105	336.16
943.475	296.37
943.845	364.25
944.214	354.88
944.584	289.35
944.953	244.88
945.323	270.62
945.692	315.09
946.061	343.18
946.43	347.86
946.8	361.91
947.169	305.73
947.538	284.67
947.907	336.16
948.276	333.82
948.645	326.8
949.013	359.56
949.382	401.69
949.751	301.05
950.119	312.75
950.488	282.33
950.857	340.84
951.225	343.18
951.593	319.78
951.962	322.12
952.33	329.14
952.698	294.03
953.066	326.8
953.434	338.5
953.802	322.12
954.17	287.01
954.538	251.9
954.906	366.59
955.274	319.78
955.642	322.12
956.009	340.84
956.377	310.41
956.744	287.01
957.112	287.01
957.479	303.39
957.847	270.62
958.214	291.69
958.581	382.97
958.948	294.03
959.315	345.52
959.683	310.41
960.05	329.14
960.416	324.46
960.783	312.75
961.15	380.63
961.517	329.14
961.884	357.22
962.25	331.48
962.617	336.16
962.983	312.75
963.35	277.65
963.716	305.73
964.082	340.84
964.449	338.5
964.815	326.8
965.181	326.8
965.547	265.94
965.913	275.31
966.279	277.65
966.645	305.73
967.011	296.37
967.377	298.71
967.742	289.35
968.108	303.39
968.474	265.94
968.839	256.58
969.205	408.72
969.57	352.54
969.935	322.12
970.301	382.97
970.666	261.26
971.031	294.03
971.396	336.16
971.761	406.38
972.126	347.86
972.491	333.82
972.856	331.48
973.221	343.18
973.586	303.39
973.95	249.56
974.315	340.84
974.679	298.71
975.044	279.99
975.408	256.58
975.773	340.84
976.137	354.88
976.501	277.65
976.866	268.28
977.23	345.52
977.594	308.07
977.958	357.22
978.322	368.93
978.686	284.67
979.049	291.69
979.413	291.69
979.777	333.82
980.141	378.29
980.504	331.48
980.868	310.41
981.231	287.01
981.595	317.44
981.958	336.16
982.321	298.71
982.684	287.01
983.048	378.29
983.411	357.22
983.774	315.09
984.137	347.86
984.5	336.16
984.862	354.88
985.225	357.22
985.588	303.39
985.951	287.01
986.313	268.28
986.676	343.18
987.038	291.69
987.401	303.39
987.763	270.62
988.125	294.03
988.488	350.2
988.85	305.73
989.212	251.9
989.574	333.82
989.936	242.54
990.298	322.12
990.66	340.84
991.022	324.46
991.383	317.44
991.745	282.33
992.107	303.39
992.468	308.07
992.83	294.03
993.191	301.05
993.553	268.28
993.914	294.03
994.275	287.01
994.637	279.99
994.998	249.56
995.359	308.07
995.72	340.84
996.081	303.39
996.442	291.69
996.803	303.39
997.163	343.18
997.524	289.35
997.885	359.56
998.245	333.82
998.606	345.52
998.966	359.56
999.327	296.37
999.687	303.39
1000.047	336.16
1000.408	291.69
1000.768	284.67
1001.128	284.67
1001.488	294.03
1001.848	310.41
1002.208	240.2
1002.568	265.94
1002.927	289.35
1003.287	340.84
1003.647	333.82
1004.007	354.88
1004.366	261.26
1004.726	282.33
1005.085	345.52
1005.444	382.97
1005.804	291.69
1006.163	282.33
1006.522	319.78
1006.881	254.24
1007.24	272.96
1007.599	240.2
1007.958	305.73
1008.317	343.18
1008.676	357.22
1009.035	371.27
1009.393	322.12
1009.752	331.48
1010.111	317.44
1010.469	319.78
1010.828	326.8
1011.186	336.16
1011.544	289.35
1011.903	357.22
1012.261	333.82
1012.619	324.46
1012.977	244.88
1013.335	366.59
1013.693	282.33
1014.051	298.71
1014.409	308.07
1014.767	272.96
1015.124	394.67
1015.482	371.27
1015.84	305.73
1016.197	352.54
1016.555	287.01
1016.912	347.86
1017.269	317.44
1017.627	350.2
1017.984	303.39
1018.341	294.03
1018.698	277.65
1019.055	329.14
1019.412	326.8
1019.769	251.9
1020.126	322.12
1020.483	312.75
1020.84	301.05
1021.196	240.2
1021.553	315.09
1021.909	364.25
1022.266	364.25
1022.622	272.96
1022.979	261.26
1023.335	294.03
1023.691	324.46
1024.047	324.46
1024.404	329.14
1024.76	324.46
1025.116	284.67
1025.472	308.07
1025.827	312.75
1026.183	287.01
1026.539	336.16
1026.895	322.12
1027.25	333.82
1027.606	294.03
1027.961	284.67
1028.317	333.82
1028.672	308.07
1029.028	354.88
1029.383	345.52
1029.738	317.44
1030.093	350.2
1030.448	258.92
1030.803	226.15
1031.158	296.37
1031.513	287.01
1031.868	294.03
1032.223	350.2
1032.577	347.86
1032.932	298.71
1033.287	242.54
1033.641	308.07
1033.996	317.44
1034.35	263.6
1034.704	254.24
1035.059	319.78
1035.413	380.63
1035.767	380.63
1036.121	380.63
