Data from Al_FLMS009871__487__14-36-45-530.txt Node

Date: Fri Mar 08 14:36:45 CST 2024
User: pe5414po
Spectrometer: FLMS00987
Trigger mode: 0
Integration Time (sec): 1.000000E-1
Scans to average: 1
Electric dark correction enabled: true
Nonlinearity correction enabled: false
Boxcar width: 0
XAxis mode: Wavelengths
Number of Pixels in Spectrum: 2048
>>>>>Begin Spectral Data<<<<<
188.938	-68.17
189.409	-68.17
189.879	-68.17
190.349	-154.77
190.819	-98.6
191.29	-79.87
191.76	-77.53
192.23	-114.98
192.7	-72.85
193.17	-161.79
193.64	-82.21
194.109	18.43
194.579	-14.34
195.049	2.05
195.519	27.79
195.988	67.58
196.458	51.2
196.927	44.18
197.397	86.31
197.866	154.18
198.336	151.84
198.805	189.29
199.274	205.67
199.744	264.19
200.213	179.93
200.682	189.29
201.151	193.97
201.62	252.49
202.089	208.02
202.558	208.02
203.027	287.59
203.495	243.12
203.964	238.44
204.433	236.1
204.902	282.91
205.37	233.76
205.839	243.12
206.307	287.59
206.776	315.68
207.244	287.59
207.712	327.38
208.181	280.57
208.649	294.61
209.117	318.02
209.585	257.17
210.053	280.57
210.521	280.57
210.989	254.83
211.457	322.7
211.925	264.19
212.393	327.38
212.861	303.98
213.328	240.78
213.796	320.36
214.264	296.96
214.731	294.61
215.199	264.19
215.666	238.44
216.133	264.19
216.601	266.53
217.068	259.51
217.535	296.96
218.003	193.97
218.47	296.96
218.937	282.91
219.404	243.12
219.871	303.98
220.338	266.53
220.805	252.49
221.271	250.14
221.738	257.17
222.205	254.83
222.671	236.1
223.138	280.57
223.605	313.34
224.071	311
224.538	264.19
225.004	273.55
225.47	252.49
225.937	273.55
226.403	184.61
226.869	296.96
227.335	208.02
227.801	219.72
228.267	282.91
228.733	233.76
229.199	294.61
229.665	296.96
230.131	254.83
230.597	306.32
231.062	261.85
231.528	245.46
231.994	289.93
232.459	226.74
232.925	238.44
233.39	322.7
233.856	259.51
234.321	374.19
234.786	254.83
235.252	250.14
235.717	320.36
236.182	215.04
236.647	229.08
237.112	203.33
237.577	308.66
238.042	301.64
238.507	285.25
238.972	254.83
239.436	299.3
239.901	257.17
240.366	301.64
240.83	254.83
241.295	203.33
241.76	261.85
242.224	240.78
242.688	348.45
243.153	287.59
243.617	238.44
244.081	313.34
244.545	266.53
245.01	306.32
245.474	252.49
245.938	329.72
246.402	301.64
246.866	282.91
247.33	266.53
247.793	243.12
248.257	231.42
248.721	282.91
249.185	236.1
249.648	245.46
250.112	280.57
250.575	252.49
251.039	236.1
251.502	273.55
251.965	301.64
252.429	266.53
252.892	266.53
253.355	287.59
253.818	236.1
254.281	278.23
254.744	273.55
255.207	311
255.67	275.89
256.133	278.23
256.596	313.34
257.059	282.91
257.522	306.32
257.984	320.36
258.447	303.98
258.909	296.96
259.372	282.91
259.834	322.7
260.297	292.27
260.759	236.1
261.221	271.21
261.684	226.74
262.146	282.91
262.608	231.42
263.07	296.96
263.532	285.25
263.994	240.78
264.456	264.19
264.918	229.08
265.38	299.3
265.842	273.55
266.303	360.15
266.765	250.14
267.227	259.51
267.688	374.19
268.15	325.04
268.611	306.32
269.072	233.76
269.534	280.57
269.995	243.12
270.456	247.8
270.918	252.49
271.379	275.89
271.84	336.74
272.301	243.12
272.762	362.49
273.223	257.17
273.684	278.23
274.144	243.12
274.605	332.06
275.066	252.49
275.527	296.96
275.987	280.57
276.448	289.93
276.908	315.68
277.369	313.34
277.829	275.89
278.289	299.3
278.75	261.85
279.21	215.04
279.67	325.04
280.13	240.78
280.59	247.8
281.05	336.74
281.51	322.7
281.97	266.53
282.43	308.66
282.89	208.02
283.35	285.25
283.809	287.59
284.269	287.59
284.729	346.11
285.188	325.04
285.648	296.96
286.107	266.53
286.567	280.57
287.026	271.21
287.485	229.08
287.944	322.7
288.404	315.68
288.863	322.7
289.322	350.79
289.781	259.51
290.24	334.4
290.699	285.25
291.158	250.14
291.616	320.36
292.075	392.92
292.534	261.85
292.992	287.59
293.451	271.21
293.91	268.87
294.368	285.25
294.827	238.44
295.285	252.49
295.743	280.57
296.202	313.34
296.66	278.23
297.118	306.32
297.576	289.93
298.034	266.53
298.492	222.06
298.95	271.21
299.408	299.3
299.866	318.02
300.324	282.91
300.781	308.66
301.239	243.12
301.697	322.7
302.154	303.98
302.612	278.23
303.069	266.53
303.527	233.76
303.984	325.04
304.441	311
304.899	257.17
305.356	296.96
305.813	341.43
306.27	280.57
306.727	231.42
307.184	296.96
307.641	285.25
308.098	329.72
308.555	289.93
309.012	289.93
309.468	332.06
309.925	343.77
310.382	339.09
310.838	308.66
311.295	299.3
311.751	278.23
312.208	294.61
312.664	334.4
313.12	233.76
313.577	294.61
314.033	327.38
314.489	278.23
314.945	322.7
315.401	280.57
315.857	306.32
316.313	350.79
316.769	308.66
317.225	301.64
317.681	332.06
318.136	313.34
318.592	315.68
319.048	238.44
319.503	268.87
319.959	306.32
320.414	273.55
320.869	322.7
321.325	268.87
321.78	285.25
322.235	341.43
322.691	296.96
323.146	306.32
323.601	299.3
324.056	268.87
324.511	287.59
324.966	299.3
325.421	271.21
325.875	271.21
326.33	299.3
326.785	346.11
327.24	322.7
327.694	233.76
328.149	294.61
328.603	275.89
329.058	224.4
329.512	320.36
329.966	327.38
330.421	250.14
330.875	273.55
331.329	271.21
331.783	296.96
332.237	346.11
332.691	318.02
333.145	273.55
333.599	294.61
334.053	327.38
334.507	374.19
334.96	280.57
335.414	296.96
335.868	315.68
336.321	261.85
336.775	355.47
337.228	303.98
337.682	289.93
338.135	332.06
338.588	308.66
339.042	289.93
339.495	287.59
339.948	303.98
340.401	287.59
340.854	308.66
341.307	308.66
341.76	355.47
342.213	348.45
342.666	336.74
343.119	350.79
343.571	332.06
344.024	346.11
344.477	357.81
344.929	303.98
345.382	222.06
345.834	231.42
346.287	215.04
346.739	353.13
347.191	292.27
347.644	289.93
348.096	275.89
348.548	285.25
349	261.85
349.452	348.45
349.904	332.06
350.356	287.59
350.808	325.04
351.26	294.61
351.711	296.96
352.163	329.72
352.615	346.11
353.066	285.25
353.518	315.68
353.969	308.66
354.421	287.59
354.872	289.93
355.324	259.51
355.775	332.06
356.226	313.34
356.677	289.93
357.128	257.17
357.579	280.57
358.03	273.55
358.481	240.78
358.932	299.3
359.383	315.68
359.834	271.21
360.285	325.04
360.735	303.98
361.186	308.66
361.637	280.57
362.087	303.98
362.538	322.7
362.988	339.09
363.438	275.89
363.889	308.66
364.339	273.55
364.789	222.06
365.239	240.78
365.689	301.64
366.139	322.7
366.589	315.68
367.039	252.49
367.489	341.43
367.939	357.81
368.389	282.91
368.839	289.93
369.288	303.98
369.738	315.68
370.187	315.68
370.637	329.72
371.086	280.57
371.536	362.49
371.985	308.66
372.434	332.06
372.884	320.36
373.333	243.12
373.782	266.53
374.231	308.66
374.68	264.19
375.129	343.77
375.578	318.02
376.027	273.55
376.475	243.12
376.924	301.64
377.373	336.74
377.822	285.25
378.27	292.27
378.719	313.34
379.167	278.23
379.616	360.15
380.064	278.23
380.512	240.78
380.961	306.32
381.409	308.66
381.857	311
382.305	322.7
382.753	247.8
383.201	318.02
383.649	280.57
384.097	329.72
384.545	273.55
384.992	311
385.44	346.11
385.888	346.11
386.335	334.4
386.783	348.45
387.231	311
387.678	266.53
388.125	289.93
388.573	266.53
389.02	348.45
389.467	353.13
389.914	339.09
390.362	289.93
390.809	329.72
391.256	334.4
391.703	303.98
392.15	320.36
392.596	332.06
393.043	320.36
393.49	257.17
393.937	259.51
394.383	329.72
394.83	339.09
395.276	301.64
395.723	329.72
396.169	275.89
396.616	367.17
397.062	301.64
397.508	329.72
397.954	245.46
398.401	315.68
398.847	343.77
399.293	334.4
399.739	325.04
400.185	282.91
400.631	322.7
401.076	303.98
401.522	322.7
401.968	318.02
402.414	348.45
402.859	362.49
403.305	296.96
403.75	320.36
404.196	318.02
404.641	353.13
405.086	303.98
405.532	261.85
405.977	287.59
406.422	215.04
406.867	252.49
407.312	287.59
407.757	308.66
408.202	257.17
408.647	285.25
409.092	360.15
409.537	289.93
409.982	341.43
410.426	311
410.871	320.36
411.316	240.78
411.76	313.34
412.205	381.21
412.649	301.64
413.093	343.77
413.538	336.74
413.982	296.96
414.426	318.02
414.87	296.96
415.314	383.56
415.758	299.3
416.202	294.61
416.646	289.93
417.09	318.02
417.534	280.57
417.978	247.8
418.421	311
418.865	275.89
419.309	341.43
419.752	271.21
420.196	259.51
420.639	282.91
421.083	311
421.526	362.49
421.969	341.43
422.412	294.61
422.856	339.09
423.299	306.32
423.742	341.43
424.185	315.68
424.628	287.59
425.071	353.13
425.513	308.66
425.956	282.91
426.399	318.02
426.842	299.3
427.284	313.34
427.727	294.61
428.169	329.72
428.612	332.06
429.054	318.02
429.497	339.09
429.939	311
430.381	278.23
430.823	273.55
431.265	261.85
431.707	250.14
432.149	259.51
432.591	294.61
433.033	264.19
433.475	280.57
433.917	350.79
434.359	318.02
434.8	245.46
435.242	381.21
435.684	285.25
436.125	325.04
436.567	299.3
437.008	325.04
437.449	275.89
437.891	311
438.332	280.57
438.773	294.61
439.214	280.57
439.656	259.51
440.097	296.96
440.538	233.76
440.978	282.91
441.419	327.38
441.86	322.7
442.301	378.87
442.742	313.34
443.182	222.06
443.623	318.02
444.063	339.09
444.504	329.72
444.944	339.09
445.385	238.44
445.825	275.89
446.265	325.04
446.706	282.91
447.146	348.45
447.586	273.55
448.026	325.04
448.466	252.49
448.906	329.72
449.346	334.4
449.786	311
450.225	271.21
450.665	266.53
451.105	334.4
451.544	285.25
451.984	306.32
452.424	313.34
452.863	301.64
453.302	332.06
453.742	296.96
454.181	350.79
454.62	282.91
455.059	306.32
455.499	287.59
455.938	303.98
456.377	325.04
456.816	353.13
457.254	332.06
457.693	285.25
458.132	282.91
458.571	243.12
459.01	289.93
459.448	292.27
459.887	301.64
460.325	301.64
460.764	247.8
461.202	303.98
461.641	254.83
462.079	320.36
462.517	353.13
462.955	273.55
463.393	320.36
463.832	296.96
464.27	343.77
464.708	308.66
465.145	339.09
465.583	278.23
466.021	308.66
466.459	327.38
466.897	299.3
467.334	339.09
467.772	303.98
468.209	341.43
468.647	322.7
469.084	261.85
469.522	320.36
469.959	245.46
470.396	259.51
470.833	287.59
471.271	299.3
471.708	334.4
472.145	301.64
472.582	336.74
473.019	346.11
473.456	261.85
473.892	303.98
474.329	301.64
474.766	313.34
475.202	336.74
475.639	271.21
476.076	301.64
476.512	287.59
476.949	320.36
477.385	257.17
477.821	322.7
478.258	381.21
478.694	360.15
479.13	278.23
479.566	343.77
480.002	287.59
480.438	285.25
480.874	273.55
481.31	252.49
481.746	238.44
482.181	336.74
482.617	278.23
483.053	348.45
483.488	322.7
483.924	301.64
484.36	332.06
484.795	210.36
485.23	301.64
485.666	278.23
486.101	353.13
486.536	282.91
486.971	353.13
487.407	282.91
487.842	397.6
488.277	327.38
488.712	301.64
489.146	280.57
489.581	273.55
490.016	311
490.451	332.06
490.885	362.49
491.32	327.38
491.755	282.91
492.189	334.4
492.624	371.85
493.058	360.15
493.492	360.15
493.927	268.87
494.361	261.85
494.795	327.38
495.229	339.09
495.663	367.17
496.097	308.66
496.531	327.38
496.965	341.43
497.399	315.68
497.833	287.59
498.266	280.57
498.7	360.15
499.134	329.72
499.567	308.66
500.001	303.98
500.434	303.98
500.868	301.64
501.301	278.23
501.734	336.74
502.168	296.96
502.601	325.04
503.034	329.72
503.467	355.47
503.9	313.34
504.333	369.51
504.766	322.7
505.199	357.81
505.632	308.66
506.064	320.36
506.497	306.32
506.93	334.4
507.362	231.42
507.795	257.17
508.227	301.64
508.66	303.98
509.092	289.93
509.524	289.93
509.956	268.87
510.389	357.81
510.821	311
511.253	238.44
511.685	313.34
512.117	271.21
512.549	292.27
512.981	325.04
513.412	311
513.844	296.96
514.276	322.7
514.707	268.87
515.139	285.25
515.571	268.87
516.002	294.61
516.433	306.32
516.865	303.98
517.296	320.36
517.727	360.15
518.159	329.72
518.59	294.61
519.021	348.45
519.452	329.72
519.883	273.55
520.314	367.17
520.744	282.91
521.175	240.78
521.606	301.64
522.037	325.04
522.467	311
522.898	301.64
523.328	303.98
523.759	292.27
524.189	275.89
524.62	329.72
525.05	273.55
525.48	348.45
525.91	357.81
526.341	320.36
526.771	334.4
527.201	329.72
527.631	315.68
528.061	362.49
528.49	325.04
528.92	355.47
529.35	240.78
529.78	336.74
530.209	374.19
530.639	247.8
531.068	280.57
531.498	294.61
531.927	303.98
532.357	308.66
532.786	226.74
533.215	289.93
533.644	268.87
534.074	278.23
534.503	271.21
534.932	343.77
535.361	346.11
535.79	261.85
536.218	285.25
536.647	261.85
537.076	303.98
537.505	280.57
537.933	313.34
538.362	278.23
538.79	318.02
539.219	278.23
539.647	308.66
540.076	320.36
540.504	346.11
540.932	266.53
541.36	271.21
541.788	289.93
542.217	315.68
542.645	285.25
543.073	315.68
543.5	313.34
543.928	364.83
544.356	318.02
544.784	259.51
545.211	243.12
545.639	329.72
546.067	336.74
546.494	332.06
546.922	378.87
547.349	294.61
547.776	339.09
548.204	261.85
548.631	320.36
549.058	353.13
549.485	311
549.912	287.59
550.339	322.7
550.766	301.64
551.193	402.28
551.62	301.64
552.047	247.8
552.474	250.14
552.9	254.83
553.327	247.8
553.754	315.68
554.18	329.72
554.607	308.66
555.033	357.81
555.459	306.32
555.886	247.8
556.312	343.77
556.738	275.89
557.164	353.13
557.59	360.15
558.016	325.04
558.442	350.79
558.868	311
559.294	378.87
559.72	254.83
560.145	308.66
560.571	268.87
560.997	296.96
561.422	287.59
561.848	296.96
562.273	327.38
562.699	308.66
563.124	308.66
563.549	327.38
563.974	341.43
564.4	322.7
564.825	322.7
565.25	285.25
565.675	229.08
566.1	292.27
566.525	329.72
566.95	282.91
567.374	292.27
567.799	301.64
568.224	278.23
568.648	329.72
569.073	334.4
569.497	339.09
569.922	329.72
570.346	275.89
570.771	250.14
571.195	308.66
571.619	362.49
572.043	287.59
572.467	287.59
572.891	364.83
573.315	266.53
573.739	294.61
574.163	341.43
574.587	336.74
575.011	289.93
575.435	268.87
575.858	334.4
576.282	278.23
576.705	243.12
577.129	299.3
577.552	341.43
577.976	280.57
578.399	322.7
578.822	350.79
579.245	299.3
579.669	282.91
580.092	322.7
580.515	329.72
580.938	254.83
581.361	289.93
581.784	268.87
582.206	362.49
582.629	292.27
583.052	292.27
583.474	303.98
583.897	313.34
584.32	275.89
584.742	292.27
585.165	315.68
585.587	343.77
586.009	278.23
586.431	222.06
586.854	264.19
587.276	289.93
587.698	313.34
588.12	308.66
588.542	318.02
588.964	306.32
589.386	336.74
589.807	292.27
590.229	327.38
590.651	219.72
591.073	303.98
591.494	257.17
591.916	264.19
592.337	332.06
592.759	282.91
593.18	268.87
593.601	296.96
594.022	362.49
594.444	348.45
594.865	282.91
595.286	378.87
595.707	271.21
596.128	313.34
596.549	371.85
596.97	339.09
597.39	311
597.811	327.38
598.232	292.27
598.652	364.83
599.073	376.53
599.494	296.96
599.914	378.87
600.334	278.23
600.755	275.89
601.175	268.87
601.595	280.57
602.015	231.42
602.436	350.79
602.856	404.62
603.276	275.89
603.696	285.25
604.115	294.61
604.535	357.81
604.955	292.27
605.375	315.68
605.794	385.9
606.214	311
606.634	268.87
607.053	306.32
607.473	318.02
607.892	395.26
608.311	329.72
608.731	294.61
609.15	332.06
609.569	332.06
609.988	273.55
610.407	301.64
610.826	268.87
611.245	339.09
611.664	292.27
612.083	320.36
612.501	282.91
612.92	299.3
613.339	315.68
613.757	334.4
614.176	371.85
614.594	329.72
615.013	318.02
615.431	299.3
615.85	280.57
616.268	322.7
616.686	376.53
617.104	341.43
617.522	257.17
617.94	322.7
618.358	334.4
618.776	259.51
619.194	278.23
619.612	334.4
620.03	282.91
620.447	299.3
620.865	280.57
621.282	369.51
621.7	327.38
622.117	339.09
622.535	313.34
622.952	266.53
623.369	334.4
623.787	322.7
624.204	287.59
624.621	381.21
625.038	292.27
625.455	303.98
625.872	273.55
626.289	332.06
626.706	289.93
627.123	343.77
627.539	329.72
627.956	311
628.373	339.09
628.789	336.74
629.206	294.61
629.622	315.68
630.038	287.59
630.455	222.06
630.871	364.83
631.287	273.55
631.703	336.74
632.12	247.8
632.536	275.89
632.952	355.47
633.368	292.27
633.783	327.38
634.199	315.68
634.615	367.17
635.031	266.53
635.446	334.4
635.862	322.7
636.277	388.24
636.693	259.51
637.108	282.91
637.524	360.15
637.939	320.36
638.354	259.51
638.77	285.25
639.185	353.13
639.6	329.72
640.015	278.23
640.43	341.43
640.845	381.21
641.259	360.15
641.674	296.96
642.089	280.57
642.504	250.14
642.918	257.17
643.333	315.68
643.747	355.47
644.162	360.15
644.576	280.57
644.991	306.32
645.405	318.02
645.819	299.3
646.233	250.14
646.647	318.02
647.061	378.87
647.475	341.43
647.889	299.3
648.303	360.15
648.717	275.89
649.131	264.19
649.545	311
649.958	303.98
650.372	357.81
650.785	264.19
651.199	306.32
651.612	301.64
652.026	320.36
652.439	278.23
652.852	287.59
653.266	336.74
653.679	296.96
654.092	334.4
654.505	303.98
654.918	327.38
655.331	308.66
655.744	308.66
656.156	350.79
656.569	273.55
656.982	271.21
657.394	280.57
657.807	271.21
658.22	348.45
658.632	315.68
659.044	289.93
659.457	336.74
659.869	299.3
660.281	254.83
660.693	280.57
661.106	336.74
661.518	289.93
661.93	332.06
662.342	339.09
662.754	299.3
663.165	364.83
663.577	332.06
663.989	287.59
664.401	325.04
664.812	313.34
665.224	350.79
665.635	311
666.047	308.66
666.458	247.8
666.869	329.72
667.281	273.55
667.692	306.32
668.103	308.66
668.514	320.36
668.925	250.14
669.336	292.27
669.747	318.02
670.158	224.4
670.569	367.17
670.979	322.7
671.39	357.81
671.801	299.3
672.211	247.8
672.622	343.77
673.032	268.87
673.443	315.68
673.853	299.3
674.263	329.72
674.674	322.7
675.084	294.61
675.494	261.85
675.904	261.85
676.314	329.72
676.724	339.09
677.134	254.83
677.544	336.74
677.953	318.02
678.363	301.64
678.773	367.17
679.182	325.04
679.592	308.66
680.001	303.98
680.411	254.83
680.82	282.91
681.23	336.74
681.639	285.25
682.048	334.4
682.457	329.72
682.866	296.96
683.275	294.61
683.684	292.27
684.093	369.51
684.502	339.09
684.911	350.79
685.32	306.32
685.728	339.09
686.137	339.09
686.546	301.64
686.954	348.45
687.363	271.21
687.771	245.46
688.179	334.4
688.588	264.19
688.996	278.23
689.404	341.43
689.812	292.27
690.22	294.61
690.628	315.68
691.036	388.24
691.444	245.46
691.852	311
692.26	348.45
692.667	289.93
693.075	301.64
693.483	334.4
693.89	315.68
694.298	301.64
694.705	271.21
695.112	287.59
695.52	266.53
695.927	271.21
696.334	329.72
696.741	318.02
697.148	303.98
697.555	311
697.962	275.89
698.369	273.55
698.776	346.11
699.183	254.83
699.59	311
699.996	287.59
700.403	334.4
700.81	266.53
701.216	296.96
701.623	301.64
702.029	355.47
702.435	303.98
702.842	306.32
703.248	271.21
703.654	296.96
704.06	346.11
704.466	315.68
704.872	346.11
705.278	285.25
705.684	200.99
706.09	266.53
706.496	299.3
706.901	332.06
707.307	278.23
707.712	311
708.118	353.13
708.523	336.74
708.929	325.04
709.334	303.98
709.74	231.42
710.145	374.19
710.55	294.61
710.955	388.24
711.36	320.36
711.765	275.89
712.17	364.83
712.575	292.27
712.98	896.13
713.385	381.21
713.789	287.59
714.194	303.98
714.599	264.19
715.003	406.96
715.408	294.61
715.812	289.93
716.217	339.09
716.621	348.45
717.025	292.27
717.429	362.49
717.833	247.8
718.238	320.36
718.642	325.04
719.046	334.4
719.449	299.3
719.853	311
720.257	264.19
720.661	289.93
721.065	322.7
721.468	271.21
721.872	254.83
722.275	306.32
722.679	322.7
723.082	329.72
723.485	313.34
723.889	292.27
724.292	327.38
724.695	320.36
725.098	334.4
725.501	296.96
725.904	311
726.307	313.34
726.71	250.14
727.113	280.57
727.516	327.38
727.918	245.46
728.321	311
728.724	257.17
729.126	285.25
729.529	299.3
729.931	315.68
730.333	282.91
730.736	273.55
731.138	282.91
731.54	332.06
731.942	271.21
732.344	339.09
732.746	325.04
733.148	348.45
733.55	362.49
733.952	247.8
734.354	315.68
734.756	346.11
735.157	301.64
735.559	261.85
735.96	292.27
736.362	322.7
736.763	238.44
737.165	339.09
737.566	275.89
737.967	315.68
738.368	311
738.77	311
739.171	315.68
739.572	301.64
739.973	332.06
740.374	259.51
740.774	348.45
741.175	327.38
741.576	292.27
741.977	395.26
742.377	332.06
742.778	292.27
743.178	303.98
743.579	259.51
743.979	334.4
744.379	334.4
744.78	292.27
745.18	296.96
745.58	294.61
745.98	318.02
746.38	261.85
746.78	264.19
747.18	364.83
747.58	315.68
747.98	308.66
748.38	318.02
748.779	296.96
749.179	308.66
749.578	318.02
749.978	369.51
750.377	397.6
750.777	271.21
751.176	332.06
751.575	308.66
751.975	343.77
752.374	311
752.773	341.43
753.172	311
753.571	257.17
753.97	289.93
754.369	311
754.768	282.91
755.166	343.77
755.565	250.14
755.964	280.57
756.362	315.68
756.761	311
757.159	318.02
757.558	318.02
757.956	336.74
758.354	318.02
758.753	367.17
759.151	350.79
759.549	233.76
759.947	308.66
760.345	303.98
760.743	268.87
761.141	343.77
761.539	266.53
761.936	303.98
762.334	343.77
762.732	294.61
763.129	346.11
763.527	287.59
763.924	278.23
764.322	322.7
764.719	339.09
765.117	327.38
765.514	294.61
765.911	289.93
766.308	343.77
766.705	339.09
767.102	327.38
767.499	292.27
767.896	360.15
768.293	318.02
768.69	320.36
769.086	346.11
769.483	240.78
769.88	287.59
770.276	261.85
770.673	245.46
771.069	374.19
771.466	346.11
771.862	257.17
772.258	280.57
772.654	282.91
773.05	322.7
773.447	275.89
773.843	287.59
774.239	280.57
774.634	292.27
775.03	325.04
775.426	371.85
775.822	336.74
776.218	294.61
776.613	287.59
777.009	402.28
777.404	299.3
777.8	285.25
778.195	343.77
778.59	332.06
778.986	308.66
779.381	285.25
779.776	296.96
780.171	271.21
780.566	250.14
780.961	233.76
781.356	339.09
781.751	299.3
782.146	257.17
782.54	303.98
782.935	350.79
783.33	278.23
783.724	299.3
784.119	306.32
784.513	357.81
784.908	339.09
785.302	280.57
785.696	299.3
786.09	229.08
786.485	301.64
786.879	250.14
787.273	313.34
787.667	229.08
788.061	320.36
788.454	301.64
788.848	271.21
789.242	339.09
789.636	306.32
790.029	311
790.423	353.13
790.816	322.7
791.21	315.68
791.603	275.89
791.997	254.83
792.39	200.99
792.783	292.27
793.176	303.98
793.569	264.19
793.962	306.32
794.355	292.27
794.748	240.78
795.141	320.36
795.534	315.68
795.927	346.11
796.319	306.32
796.712	378.87
797.105	278.23
797.497	238.44
797.89	280.57
798.282	303.98
798.674	292.27
799.067	303.98
799.459	245.46
799.851	360.15
800.243	311
800.635	222.06
801.027	339.09
801.419	306.32
801.811	259.51
802.203	315.68
802.594	210.36
802.986	325.04
803.378	341.43
803.769	219.72
804.161	350.79
804.552	334.4
804.944	238.44
805.335	301.64
805.726	353.13
806.118	254.83
806.509	294.61
806.9	264.19
807.291	278.23
807.682	360.15
808.073	296.96
808.464	268.87
808.855	325.04
809.245	313.34
809.636	278.23
810.027	294.61
810.417	374.19
810.808	294.61
811.198	329.72
811.589	318.02
811.979	301.64
812.369	289.93
812.759	301.64
813.15	245.46
813.54	261.85
813.93	343.77
814.32	280.57
814.71	325.04
815.1	268.87
815.489	285.25
815.879	360.15
816.269	346.11
816.658	238.44
817.048	280.57
817.438	339.09
817.827	292.27
818.216	280.57
818.606	311
818.995	303.98
819.384	339.09
819.773	315.68
820.163	308.66
820.552	268.87
820.941	320.36
821.33	236.1
821.718	299.3
822.107	308.66
822.496	275.89
822.885	273.55
823.273	287.59
823.662	299.3
824.05	322.7
824.439	339.09
824.827	268.87
825.216	224.4
825.604	378.87
825.992	292.27
826.38	259.51
826.768	261.85
827.156	280.57
827.544	353.13
827.932	273.55
828.32	322.7
828.708	266.53
829.096	275.89
829.483	350.79
829.871	367.17
830.259	315.68
830.646	320.36
831.034	343.77
831.421	301.64
831.808	306.32
832.196	341.43
832.583	268.87
832.97	303.98
833.357	353.13
833.744	238.44
834.131	343.77
834.518	275.89
834.905	343.77
835.292	378.87
835.678	348.45
836.065	318.02
836.452	292.27
836.838	266.53
837.225	329.72
837.611	315.68
837.998	280.57
838.384	315.68
838.77	301.64
839.157	343.77
839.543	332.06
839.929	294.61
840.315	247.8
840.701	282.91
841.087	332.06
841.473	208.02
841.858	273.55
842.244	348.45
842.63	282.91
843.015	320.36
843.401	601.23
843.787	329.72
844.172	334.4
844.557	287.59
844.943	362.49
845.328	296.96
845.713	264.19
846.098	332.06
846.483	322.7
846.868	332.06
847.253	275.89
847.638	315.68
848.023	282.91
848.408	250.14
848.793	320.36
849.177	306.32
849.562	271.21
849.947	222.06
850.331	346.11
850.715	250.14
851.1	336.74
851.484	289.93
851.868	289.93
852.253	318.02
852.637	322.7
853.021	285.25
853.405	294.61
853.789	299.3
854.173	285.25
854.557	329.72
854.94	282.91
855.324	278.23
855.708	318.02
856.091	311
856.475	287.59
856.858	301.64
857.242	285.25
857.625	294.61
858.009	306.32
858.392	360.15
858.775	343.77
859.158	315.68
859.541	315.68
859.924	289.93
860.307	343.77
860.69	299.3
861.073	303.98
861.456	257.17
861.838	341.43
862.221	313.34
862.604	289.93
862.986	250.14
863.369	339.09
863.751	292.27
864.133	301.64
864.516	261.85
864.898	280.57
865.28	292.27
865.662	325.04
866.044	339.09
866.426	285.25
866.808	299.3
867.19	264.19
867.572	271.21
867.954	245.46
868.336	278.23
868.717	308.66
869.099	306.32
869.48	294.61
869.862	273.55
870.243	285.25
870.625	318.02
871.006	313.34
871.387	311
871.768	306.32
872.149	329.72
872.53	247.8
872.911	273.55
873.292	329.72
873.673	318.02
874.054	353.13
874.435	292.27
874.815	259.51
875.196	334.4
875.577	318.02
875.957	238.44
876.338	273.55
876.718	266.53
877.098	280.57
877.479	275.89
877.859	329.72
878.239	311
878.619	264.19
878.999	303.98
879.379	315.68
879.759	287.59
880.139	250.14
880.519	325.04
880.898	259.51
881.278	303.98
881.658	261.85
882.037	294.61
882.417	285.25
882.796	205.67
883.176	306.32
883.555	271.21
883.934	329.72
884.313	273.55
884.693	341.43
885.072	275.89
885.451	350.79
885.83	325.04
886.209	268.87
886.587	311
886.966	278.23
887.345	325.04
887.724	313.34
888.102	322.7
888.481	339.09
888.859	289.93
889.238	318.02
889.616	301.64
889.994	315.68
890.373	273.55
890.751	271.21
891.129	336.74
891.507	301.64
891.885	303.98
892.263	320.36
892.641	313.34
893.019	247.8
893.396	278.23
893.774	278.23
894.152	367.17
894.529	320.36
894.907	343.77
895.284	308.66
895.662	318.02
896.039	278.23
896.416	282.91
896.794	275.89
897.171	341.43
897.548	266.53
897.925	271.21
898.302	296.96
898.679	301.64
899.056	301.64
899.433	278.23
899.809	252.49
900.186	313.34
900.563	329.72
900.939	353.13
901.316	336.74
901.692	303.98
902.069	254.83
902.445	306.32
902.821	360.15
903.197	289.93
903.574	301.64
903.95	301.64
904.326	327.38
904.702	339.09
905.078	397.6
905.454	311
905.829	259.51
906.205	247.8
906.581	320.36
906.956	306.32
907.332	339.09
907.707	261.85
908.083	273.55
908.458	362.49
908.833	294.61
909.209	250.14
909.584	285.25
909.959	278.23
910.334	313.34
910.709	306.32
911.084	308.66
911.459	311
911.834	313.34
912.209	296.96
912.583	289.93
912.958	364.83
913.333	296.96
913.707	348.45
914.082	294.61
914.456	261.85
914.83	299.3
915.205	308.66
915.579	296.96
915.953	292.27
916.327	285.25
916.701	303.98
917.075	285.25
917.449	303.98
917.823	320.36
918.197	282.91
918.571	320.36
918.944	301.64
919.318	334.4
919.692	353.13
920.065	301.64
920.438	287.59
920.812	254.83
921.185	294.61
921.558	402.28
921.932	301.64
922.305	313.34
922.678	259.51
923.051	311
923.424	266.53
923.797	296.96
924.17	348.45
924.542	238.44
924.915	320.36
925.288	325.04
925.661	280.57
926.033	296.96
926.406	325.04
926.778	343.77
927.15	299.3
927.523	378.87
927.895	313.34
928.267	346.11
928.639	355.47
929.011	303.98
929.383	268.87
929.755	306.32
930.127	224.4
930.499	261.85
930.871	306.32
931.242	252.49
931.614	336.74
931.986	289.93
932.357	280.57
932.729	271.21
933.1	313.34
933.471	257.17
933.843	322.7
934.214	341.43
934.585	261.85
934.956	353.13
935.327	268.87
935.698	329.72
936.069	329.72
936.44	364.83
936.811	275.89
937.182	327.38
937.552	315.68
937.923	296.96
938.293	294.61
938.664	334.4
939.034	299.3
939.405	327.38
939.775	327.38
940.145	250.14
940.516	346.11
940.886	355.47
941.256	266.53
941.626	303.98
941.996	210.36
942.366	243.12
942.735	294.61
943.105	292.27
943.475	245.46
943.845	329.72
944.214	332.06
944.584	278.23
944.953	278.23
945.323	254.83
945.692	287.59
946.061	339.09
946.43	332.06
946.8	336.74
947.169	278.23
947.538	266.53
947.907	287.59
948.276	325.04
948.645	233.76
949.013	280.57
949.382	282.91
949.751	341.43
950.119	285.25
950.488	257.17
950.857	261.85
951.225	343.77
951.593	329.72
951.962	315.68
952.33	315.68
952.698	275.89
953.066	313.34
953.434	287.59
953.802	233.76
954.17	275.89
954.538	240.78
954.906	315.68
955.274	285.25
955.642	336.74
956.009	353.13
956.377	289.93
956.744	313.34
957.112	343.77
957.479	350.79
957.847	266.53
958.214	360.15
958.581	315.68
958.948	285.25
959.315	301.64
959.683	334.4
960.05	296.96
960.416	252.49
960.783	287.59
961.15	311
961.517	318.02
961.884	294.61
962.25	289.93
962.617	336.74
962.983	343.77
963.35	252.49
963.716	259.51
964.082	327.38
964.449	294.61
964.815	247.8
965.181	289.93
965.547	341.43
965.913	280.57
966.279	226.74
966.645	264.19
967.011	280.57
967.377	325.04
967.742	327.38
968.108	339.09
968.474	264.19
968.839	383.56
969.205	294.61
969.57	318.02
969.935	329.72
970.301	292.27
970.666	336.74
971.031	311
971.396	327.38
971.761	306.32
972.126	259.51
972.491	285.25
972.856	292.27
973.221	271.21
973.586	243.12
973.95	322.7
974.315	320.36
974.679	315.68
975.044	318.02
975.408	257.17
975.773	301.64
976.137	282.91
976.501	303.98
976.866	280.57
977.23	325.04
977.594	254.83
977.958	320.36
978.322	278.23
978.686	346.11
979.049	336.74
979.413	320.36
979.777	315.68
980.141	341.43
980.504	350.79
980.868	322.7
981.231	353.13
981.595	350.79
981.958	306.32
982.321	245.46
982.684	315.68
983.048	275.89
983.411	306.32
983.774	294.61
984.137	339.09
984.5	355.47
984.862	273.55
985.225	294.61
985.588	278.23
985.951	311
986.313	327.38
986.676	208.02
987.038	273.55
987.401	322.7
987.763	343.77
988.125	275.89
988.488	315.68
988.85	273.55
989.212	292.27
989.574	318.02
989.936	282.91
990.298	350.79
990.66	273.55
991.022	339.09
991.383	313.34
991.745	329.72
992.107	259.51
992.468	278.23
992.83	278.23
993.191	343.77
993.553	268.87
993.914	299.3
994.275	332.06
994.637	247.8
994.998	271.21
995.359	238.44
995.72	350.79
996.081	287.59
996.442	329.72
996.803	313.34
997.163	306.32
997.524	343.77
997.885	299.3
998.245	306.32
998.606	311
998.966	327.38
999.327	411.64
999.687	289.93
1000.047	285.25
1000.408	301.64
1000.768	266.53
1001.128	271.21
1001.488	308.66
1001.848	222.06
1002.208	273.55
1002.568	273.55
1002.927	308.66
1003.287	308.66
1003.647	318.02
1004.007	278.23
1004.366	296.96
1004.726	355.47
1005.085	308.66
1005.444	313.34
1005.804	266.53
1006.163	327.38
1006.522	275.89
1006.881	336.74
1007.24	259.51
1007.599	301.64
1007.958	322.7
1008.317	282.91
1008.676	257.17
1009.035	332.06
1009.393	339.09
1009.752	311
1010.111	311
1010.469	339.09
1010.828	278.23
1011.186	301.64
1011.544	357.81
1011.903	334.4
1012.261	334.4
1012.619	271.21
1012.977	362.49
1013.335	357.81
1013.693	285.25
1014.051	233.76
1014.409	355.47
1014.767	294.61
1015.124	343.77
1015.482	334.4
1015.84	313.34
1016.197	341.43
1016.555	287.59
1016.912	243.12
1017.269	299.3
1017.627	325.04
1017.984	268.87
1018.341	271.21
1018.698	303.98
1019.055	318.02
1019.412	280.57
1019.769	252.49
1020.126	294.61
1020.483	264.19
1020.84	318.02
1021.196	257.17
1021.553	275.89
1021.909	343.77
1022.266	311
1022.622	280.57
1022.979	287.59
1023.335	353.13
1023.691	299.3
1024.047	301.64
1024.404	289.93
1024.76	360.15
1025.116	313.34
1025.472	364.83
1025.827	343.77
1026.183	252.49
1026.539	320.36
1026.895	334.4
1027.25	280.57
1027.606	229.08
1027.961	322.7
1028.317	273.55
1028.672	280.57
1029.028	289.93
1029.383	334.4
1029.738	250.14
1030.093	287.59
1030.448	322.7
1030.803	186.95
1031.158	313.34
1031.513	233.76
1031.868	238.44
1032.223	306.32
1032.577	294.61
1032.932	353.13
1033.287	243.12
1033.641	329.72
1033.996	322.7
1034.35	311
1034.704	299.3
1035.059	289.93
1035.413	259.51
1035.767	259.51
1036.121	259.51
