Data from Al_FLMS009871__498__14-36-46-630.txt Node

Date: Fri Mar 08 14:36:46 CST 2024
User: pe5414po
Spectrometer: FLMS00987
Trigger mode: 0
Integration Time (sec): 1.000000E-1
Scans to average: 1
Electric dark correction enabled: true
Nonlinearity correction enabled: false
Boxcar width: 0
XAxis mode: Wavelengths
Number of Pixels in Spectrum: 2048
>>>>>Begin Spectral Data<<<<<
188.938	-87.92
189.409	-87.92
189.879	-87.92
190.349	-80.89
190.819	-85.58
191.29	-69.19
191.76	-73.87
192.23	-132.39
192.7	-146.43
193.17	-78.55
193.64	-22.38
194.109	-90.26
194.579	43.15
195.049	64.22
195.519	-8.34
195.988	104.01
196.458	26.77
196.927	75.92
197.397	75.92
197.866	101.67
198.336	129.75
198.805	108.69
199.274	148.48
199.744	214.01
200.213	197.63
200.682	211.67
201.151	225.72
201.62	267.85
202.089	235.08
202.558	246.78
203.027	286.57
203.495	326.36
203.964	235.08
204.433	312.32
204.902	312.32
205.37	281.89
205.839	244.44
206.307	345.08
206.776	331.04
207.244	359.13
207.712	340.4
208.181	284.23
208.649	295.93
209.117	335.72
209.585	312.32
210.053	265.5
210.521	317
210.989	319.34
211.457	249.12
211.925	279.55
212.393	288.91
212.861	225.72
213.328	228.06
213.796	314.66
214.264	281.89
214.731	230.4
215.199	270.19
215.666	302.95
216.133	253.8
216.601	270.19
217.068	300.61
217.535	309.97
218.003	326.36
218.47	331.04
218.937	239.76
219.404	270.19
219.871	265.5
220.338	258.48
220.805	218.69
221.271	197.63
221.738	249.12
222.205	246.78
222.671	249.12
223.138	242.1
223.605	251.46
224.071	244.44
224.538	256.14
225.004	286.57
225.47	281.89
225.937	216.35
226.403	260.82
226.869	302.95
227.335	244.44
227.801	246.78
228.267	237.42
228.733	225.72
229.199	279.55
229.665	246.78
230.131	218.69
230.597	293.59
231.062	288.91
231.528	253.8
231.994	321.68
232.459	321.68
232.925	279.55
233.39	244.44
233.856	223.37
234.321	288.91
234.786	307.63
235.252	291.25
235.717	265.5
236.182	263.16
236.647	235.08
237.112	291.25
237.577	302.95
238.042	288.91
238.507	228.06
238.972	228.06
239.436	288.91
239.901	312.32
240.366	291.25
240.83	279.55
241.295	298.27
241.76	281.89
242.224	302.95
242.688	326.36
243.153	324.02
243.617	263.16
244.081	223.37
244.545	284.23
245.01	258.48
245.474	277.21
245.938	232.74
246.402	211.67
246.866	265.5
247.33	281.89
247.793	338.06
248.257	286.57
248.721	281.89
249.185	284.23
249.648	312.32
250.112	237.42
250.575	319.34
251.039	331.04
251.502	335.72
251.965	274.87
252.429	242.1
252.892	246.78
253.355	298.27
253.818	291.25
254.281	321.68
254.744	361.47
255.207	307.63
255.67	291.25
256.133	260.82
256.596	312.32
257.059	305.29
257.522	314.66
257.984	317
258.447	324.02
258.909	331.04
259.372	309.97
259.834	277.21
260.297	328.7
260.759	263.16
261.221	312.32
261.684	270.19
262.146	281.89
262.608	288.91
263.07	279.55
263.532	251.46
263.994	239.76
264.456	312.32
264.918	281.89
265.38	277.21
265.842	300.61
266.303	225.72
266.765	354.44
267.227	317
267.688	253.8
268.15	288.91
268.611	284.23
269.072	267.85
269.534	286.57
269.995	293.59
270.456	244.44
270.918	340.4
271.379	258.48
271.84	295.93
272.301	256.14
272.762	307.63
273.223	274.87
273.684	277.21
274.144	309.97
274.605	232.74
275.066	230.4
275.527	237.42
275.987	244.44
276.448	302.95
276.908	300.61
277.369	295.93
277.829	321.68
278.289	284.23
278.75	279.55
279.21	307.63
279.67	281.89
280.13	312.32
280.59	307.63
281.05	305.29
281.51	230.4
281.97	270.19
282.43	331.04
282.89	253.8
283.35	286.57
283.809	249.12
284.269	267.85
284.729	298.27
285.188	349.76
285.648	338.06
286.107	221.03
286.567	286.57
287.026	253.8
287.485	317
287.944	284.23
288.404	291.25
288.863	328.7
289.322	288.91
289.781	356.79
290.24	373.17
290.699	340.4
291.158	326.36
291.616	286.57
292.075	293.59
292.534	295.93
292.992	298.27
293.451	291.25
293.91	314.66
294.368	317
294.827	272.53
295.285	314.66
295.743	317
296.202	309.97
296.66	267.85
297.118	331.04
297.576	272.53
298.034	370.83
298.492	321.68
298.95	295.93
299.408	317
299.866	331.04
300.324	286.57
300.781	307.63
301.239	352.1
301.697	338.06
302.154	246.78
302.612	309.97
303.069	328.7
303.527	356.79
303.984	312.32
304.441	274.87
304.899	321.68
305.356	331.04
305.813	321.68
306.27	302.95
306.727	312.32
307.184	335.72
307.641	321.68
308.098	312.32
308.555	246.78
309.012	326.36
309.468	319.34
309.925	218.69
310.382	265.5
310.838	302.95
311.295	314.66
311.751	317
312.208	270.19
312.664	307.63
313.12	284.23
313.577	366.15
314.033	328.7
314.489	272.53
314.945	338.06
315.401	331.04
315.857	265.5
316.313	340.4
316.769	340.4
317.225	298.27
317.681	368.49
318.136	340.4
318.592	251.46
319.048	270.19
319.503	291.25
319.959	256.14
320.414	335.72
320.869	309.97
321.325	342.74
321.78	326.36
322.235	345.08
322.691	338.06
323.146	288.91
323.601	314.66
324.056	314.66
324.511	281.89
324.966	293.59
325.421	291.25
325.875	300.61
326.33	319.34
326.785	256.14
327.24	279.55
327.694	274.87
328.149	293.59
328.603	340.4
329.058	326.36
329.512	272.53
329.966	251.46
330.421	246.78
330.875	331.04
331.329	267.85
331.783	349.76
332.237	295.93
332.691	270.19
333.145	312.32
333.599	272.53
334.053	307.63
334.507	324.02
334.96	286.57
335.414	373.17
335.868	349.76
336.321	384.87
336.775	309.97
337.228	361.47
337.682	300.61
338.135	302.95
338.588	326.36
339.042	363.81
339.495	338.06
339.948	354.44
340.401	270.19
340.854	300.61
341.307	338.06
341.76	284.23
342.213	324.02
342.666	300.61
343.119	321.68
343.571	363.81
344.024	321.68
344.477	389.55
344.929	307.63
345.382	349.76
345.834	258.48
346.287	335.72
346.739	277.21
347.191	314.66
347.644	340.4
348.096	375.51
348.548	347.42
349	342.74
349.452	328.7
349.904	321.68
350.356	293.59
350.808	312.32
351.26	314.66
351.711	298.27
352.163	317
352.615	321.68
353.066	274.87
353.518	272.53
353.969	263.16
354.421	305.29
354.872	302.95
355.324	237.42
355.775	284.23
356.226	340.4
356.677	333.38
357.128	293.59
357.579	279.55
358.03	354.44
358.481	335.72
358.932	333.38
359.383	293.59
359.834	366.15
360.285	295.93
360.735	319.34
361.186	286.57
361.637	307.63
362.087	335.72
362.538	324.02
362.988	335.72
363.438	361.47
363.889	347.42
364.339	333.38
364.789	281.89
365.239	272.53
365.689	258.48
366.139	331.04
366.589	277.21
367.039	284.23
367.489	373.17
367.939	338.06
368.389	251.46
368.839	328.7
369.288	335.72
369.738	342.74
370.187	331.04
370.637	328.7
371.086	345.08
371.536	291.25
371.985	277.21
372.434	340.4
372.884	312.32
373.333	319.34
373.782	354.44
374.231	319.34
374.68	288.91
375.129	349.76
375.578	359.13
376.027	366.15
376.475	298.27
376.924	324.02
377.373	354.44
377.822	288.91
378.27	288.91
378.719	305.29
379.167	361.47
379.616	347.42
380.064	338.06
380.512	324.02
380.961	319.34
381.409	291.25
381.857	335.72
382.305	326.36
382.753	291.25
383.201	307.63
383.649	288.91
384.097	356.79
384.545	333.38
384.992	232.74
385.44	375.51
385.888	342.74
386.335	270.19
386.783	342.74
387.231	370.83
387.678	274.87
388.125	300.61
388.573	338.06
389.02	272.53
389.467	324.02
389.914	288.91
390.362	331.04
390.809	284.23
391.256	349.76
391.703	281.89
392.15	361.47
392.596	349.76
393.043	312.32
393.49	265.5
393.937	349.76
394.383	309.97
394.83	302.95
395.276	359.13
395.723	359.13
396.169	377.85
396.616	335.72
397.062	293.59
397.508	298.27
397.954	391.89
398.401	298.27
398.847	319.34
399.293	363.81
399.739	361.47
400.185	384.87
400.631	305.29
401.076	345.08
401.522	328.7
401.968	324.02
402.414	349.76
402.859	319.34
403.305	239.76
403.75	340.4
404.196	291.25
404.641	256.14
405.086	312.32
405.532	309.97
405.977	321.68
406.422	335.72
406.867	293.59
407.312	354.44
407.757	293.59
408.202	326.36
408.647	295.93
409.092	349.76
409.537	338.06
409.982	331.04
410.426	272.53
410.871	338.06
411.316	312.32
411.76	312.32
412.205	363.81
412.649	377.85
413.093	377.85
413.538	302.95
413.982	340.4
414.426	352.1
414.87	368.49
415.314	284.23
415.758	340.4
416.202	382.53
416.646	347.42
417.09	307.63
417.534	326.36
417.978	279.55
418.421	300.61
418.865	256.14
419.309	370.83
419.752	333.38
420.196	347.42
420.639	274.87
421.083	321.68
421.526	309.97
421.969	352.1
422.412	312.32
422.856	293.59
423.299	335.72
423.742	340.4
424.185	352.1
424.628	377.85
425.071	331.04
425.513	352.1
425.956	279.55
426.399	328.7
426.842	317
427.284	340.4
427.727	352.1
428.169	352.1
428.612	382.53
429.054	291.25
429.497	354.44
429.939	291.25
430.381	333.38
430.823	314.66
431.265	387.21
431.707	333.38
432.149	302.95
432.591	263.16
433.033	328.7
433.475	284.23
433.917	314.66
434.359	317
434.8	321.68
435.242	284.23
435.684	345.08
436.125	272.53
436.567	309.97
437.008	270.19
437.449	373.17
437.891	375.51
438.332	270.19
438.773	354.44
439.214	281.89
439.656	295.93
440.097	307.63
440.538	347.42
440.978	291.25
441.419	331.04
441.86	324.02
442.301	319.34
442.742	279.55
443.182	387.21
443.623	382.53
444.063	342.74
444.504	331.04
444.944	333.38
445.385	284.23
445.825	328.7
446.265	347.42
446.706	405.94
447.146	370.83
447.586	265.5
448.026	302.95
448.466	340.4
448.906	321.68
449.346	319.34
449.786	312.32
450.225	349.76
450.665	279.55
451.105	307.63
451.544	317
451.984	302.95
452.424	363.81
452.863	258.48
453.302	305.29
453.742	328.7
454.181	321.68
454.62	300.61
455.059	333.38
455.499	300.61
455.938	242.1
456.377	340.4
456.816	317
457.254	309.97
457.693	331.04
458.132	324.02
458.571	284.23
459.01	263.16
459.448	293.59
459.887	331.04
460.325	267.85
460.764	363.81
461.202	288.91
461.641	382.53
462.079	293.59
462.517	272.53
462.955	314.66
463.393	324.02
463.832	314.66
464.27	326.36
464.708	363.81
465.145	375.51
465.583	352.1
466.021	324.02
466.459	333.38
466.897	342.74
467.334	302.95
467.772	328.7
468.209	272.53
468.647	328.7
469.084	342.74
469.522	349.76
469.959	335.72
470.396	317
470.833	345.08
471.271	375.51
471.708	326.36
472.145	333.38
472.582	235.08
473.019	295.93
473.456	326.36
473.892	375.51
474.329	309.97
474.766	317
475.202	347.42
475.639	291.25
476.076	260.82
476.512	312.32
476.949	314.66
477.385	288.91
477.821	317
478.258	309.97
478.694	298.27
479.13	347.42
479.566	352.1
480.002	347.42
480.438	317
480.874	324.02
481.31	321.68
481.746	347.42
482.181	312.32
482.617	281.89
483.053	309.97
483.488	359.13
483.924	363.81
484.36	302.95
484.795	321.68
485.23	293.59
485.666	377.85
486.101	281.89
486.536	326.36
486.971	321.68
487.407	373.17
487.842	270.19
488.277	284.23
488.712	239.76
489.146	288.91
489.581	342.74
490.016	258.48
490.451	321.68
490.885	328.7
491.32	352.1
491.755	314.66
492.189	244.44
492.624	302.95
493.058	340.4
493.492	342.74
493.927	300.61
494.361	396.57
494.795	307.63
495.229	274.87
495.663	347.42
496.097	401.26
496.531	293.59
496.965	305.29
497.399	284.23
497.833	331.04
498.266	356.79
498.7	302.95
499.134	314.66
499.567	359.13
500.001	391.89
500.434	335.72
500.868	256.14
501.301	361.47
501.734	396.57
502.168	277.21
502.601	342.74
503.034	373.17
503.467	319.34
503.9	274.87
504.333	309.97
504.766	366.15
505.199	356.79
505.632	284.23
506.064	265.5
506.497	345.08
506.93	326.36
507.362	302.95
507.795	298.27
508.227	293.59
508.66	324.02
509.092	328.7
509.524	326.36
509.956	300.61
510.389	312.32
510.821	309.97
511.253	307.63
511.685	352.1
512.117	265.5
512.549	335.72
512.981	382.53
513.412	333.38
513.844	342.74
514.276	340.4
514.707	281.89
515.139	347.42
515.571	338.06
516.002	333.38
516.433	345.08
516.865	274.87
517.296	331.04
517.727	270.19
518.159	305.29
518.59	333.38
519.021	298.27
519.452	335.72
519.883	328.7
520.314	389.55
520.744	342.74
521.175	324.02
521.606	356.79
522.037	312.32
522.467	319.34
522.898	361.47
523.328	394.23
523.759	317
524.189	279.55
524.62	326.36
525.05	347.42
525.48	279.55
525.91	361.47
526.341	300.61
526.771	398.92
527.201	312.32
527.631	342.74
528.061	305.29
528.49	265.5
528.92	281.89
529.35	354.44
529.78	319.34
530.209	356.79
530.639	288.91
531.068	307.63
531.498	352.1
531.927	288.91
532.357	335.72
532.786	272.53
533.215	314.66
533.644	300.61
534.074	314.66
534.503	286.57
534.932	321.68
535.361	338.06
535.79	228.06
536.218	356.79
536.647	352.1
537.076	335.72
537.505	312.32
537.933	274.87
538.362	326.36
538.79	319.34
539.219	300.61
539.647	359.13
540.076	321.68
540.504	286.57
540.932	298.27
541.36	265.5
541.788	312.32
542.217	307.63
542.645	319.34
543.073	305.29
543.5	382.53
543.928	321.68
544.356	253.8
544.784	298.27
545.211	314.66
545.639	338.06
546.067	317
546.494	335.72
546.922	291.25
547.349	314.66
547.776	405.94
548.204	309.97
548.631	338.06
549.058	279.55
549.485	225.72
549.912	307.63
550.339	335.72
550.766	312.32
551.193	305.29
551.62	284.23
552.047	328.7
552.474	286.57
552.9	312.32
553.327	272.53
553.754	317
554.18	340.4
554.607	314.66
555.033	321.68
555.459	321.68
555.886	319.34
556.312	321.68
556.738	309.97
557.164	382.53
557.59	377.85
558.016	326.36
558.442	335.72
558.868	359.13
559.294	314.66
559.72	312.32
560.145	300.61
560.571	384.87
560.997	382.53
561.422	328.7
561.848	349.76
562.273	265.5
562.699	302.95
563.124	328.7
563.549	321.68
563.974	326.36
564.4	335.72
564.825	256.14
565.25	298.27
565.675	349.76
566.1	338.06
566.525	314.66
566.95	312.32
567.374	370.83
567.799	284.23
568.224	387.21
568.648	309.97
569.073	363.81
569.497	300.61
569.922	307.63
570.346	373.17
570.771	331.04
571.195	291.25
571.619	335.72
572.043	291.25
572.467	384.87
572.891	293.59
573.315	326.36
573.739	267.85
574.163	321.68
574.587	312.32
575.011	288.91
575.435	375.51
575.858	375.51
576.282	256.14
576.705	298.27
577.129	277.21
577.552	274.87
577.976	345.08
578.399	326.36
578.822	300.61
579.245	333.38
579.669	265.5
580.092	338.06
580.515	295.93
580.938	302.95
581.361	375.51
581.784	293.59
582.206	335.72
582.629	324.02
583.052	354.44
583.474	302.95
583.897	326.36
584.32	347.42
584.742	272.53
585.165	319.34
585.587	335.72
586.009	333.38
586.431	298.27
586.854	321.68
587.276	349.76
587.698	300.61
588.12	272.53
588.542	253.8
588.964	288.91
589.386	340.4
589.807	293.59
590.229	274.87
590.651	321.68
591.073	267.85
591.494	317
591.916	326.36
592.337	335.72
592.759	363.81
593.18	356.79
593.601	277.21
594.022	338.06
594.444	277.21
594.865	333.38
595.286	335.72
595.707	286.57
596.128	345.08
596.549	324.02
596.97	277.21
597.39	356.79
597.811	300.61
598.232	258.48
598.652	328.7
599.073	356.79
599.494	335.72
599.914	340.4
600.334	361.47
600.755	354.44
601.175	410.62
601.595	309.97
602.015	312.32
602.436	352.1
602.856	487.86
603.276	324.02
603.696	288.91
604.115	340.4
604.535	352.1
604.955	340.4
605.375	347.42
605.794	263.16
606.214	237.42
606.634	352.1
607.053	326.36
607.473	340.4
607.892	331.04
608.311	312.32
608.731	291.25
609.15	319.34
609.569	345.08
609.988	387.21
610.407	317
610.826	419.98
611.245	345.08
611.664	338.06
612.083	312.32
612.501	286.57
612.92	281.89
613.339	328.7
613.757	349.76
614.176	326.36
614.594	366.15
615.013	363.81
615.431	293.59
615.85	298.27
616.268	230.4
616.686	284.23
617.104	324.02
617.522	391.89
617.94	309.97
618.358	272.53
618.776	326.36
619.194	281.89
619.612	352.1
620.03	340.4
620.447	326.36
620.865	342.74
621.282	373.17
621.7	356.79
622.117	321.68
622.535	281.89
622.952	295.93
623.369	267.85
623.787	349.76
624.204	363.81
624.621	317
625.038	277.21
625.455	319.34
625.872	359.13
626.289	347.42
626.706	291.25
627.123	263.16
627.539	335.72
627.956	359.13
628.373	312.32
628.789	345.08
629.206	298.27
629.622	370.83
630.038	293.59
630.455	335.72
630.871	277.21
631.287	305.29
631.703	324.02
632.12	298.27
632.536	286.57
632.952	281.89
633.368	281.89
633.783	366.15
634.199	305.29
634.615	370.83
635.031	307.63
635.446	401.26
635.862	349.76
636.277	394.23
636.693	380.19
637.108	263.16
637.524	375.51
637.939	331.04
638.354	345.08
638.77	324.02
639.185	363.81
639.6	331.04
640.015	349.76
640.43	305.29
640.845	384.87
641.259	338.06
641.674	331.04
642.089	326.36
642.504	305.29
642.918	298.27
643.333	326.36
643.747	335.72
644.162	314.66
644.576	309.97
644.991	267.85
645.405	352.1
645.819	338.06
646.233	300.61
646.647	293.59
647.061	352.1
647.475	370.83
647.889	288.91
648.303	363.81
648.717	307.63
649.131	258.48
649.545	272.53
649.958	347.42
650.372	356.79
650.785	286.57
651.199	221.03
651.612	317
652.026	345.08
652.439	349.76
652.852	300.61
653.266	281.89
653.679	342.74
654.092	263.16
654.505	302.95
654.918	321.68
655.331	326.36
655.744	295.93
656.156	317
656.569	363.81
656.982	260.82
657.394	281.89
657.807	338.06
658.22	291.25
658.632	370.83
659.044	314.66
659.457	288.91
659.869	270.19
660.281	317
660.693	380.19
661.106	356.79
661.518	333.38
661.93	305.29
662.342	305.29
662.754	314.66
663.165	359.13
663.577	281.89
663.989	380.19
664.401	286.57
664.812	342.74
665.224	335.72
665.635	293.59
666.047	281.89
666.458	277.21
666.869	277.21
667.281	352.1
667.692	326.36
668.103	288.91
668.514	361.47
668.925	309.97
669.336	300.61
669.747	291.25
670.158	295.93
670.569	347.42
670.979	246.78
671.39	373.17
671.801	331.04
672.211	305.29
672.622	326.36
673.032	368.49
673.443	352.1
673.853	326.36
674.263	319.34
674.674	333.38
675.084	298.27
675.494	338.06
675.904	305.29
676.314	345.08
676.724	338.06
677.134	300.61
677.544	321.68
677.953	398.92
678.363	314.66
678.773	438.7
679.182	260.82
679.592	340.4
680.001	319.34
680.411	319.34
680.82	328.7
681.23	333.38
681.639	331.04
682.048	321.68
682.457	293.59
682.866	293.59
683.275	356.79
683.684	293.59
684.093	284.23
684.502	321.68
684.911	377.85
685.32	321.68
685.728	359.13
686.137	298.27
686.546	298.27
686.954	354.44
687.363	317
687.771	335.72
688.179	300.61
688.588	408.28
688.996	295.93
689.404	352.1
689.812	300.61
690.22	279.55
690.628	347.42
691.036	347.42
691.444	342.74
691.852	284.23
692.26	300.61
692.667	349.76
693.075	312.32
693.483	253.8
693.89	302.95
694.298	293.59
694.705	331.04
695.112	307.63
695.52	345.08
695.927	251.46
696.334	349.76
696.741	340.4
697.148	286.57
697.555	338.06
697.962	356.79
698.369	363.81
698.776	345.08
699.183	328.7
699.59	298.27
699.996	368.49
700.403	309.97
700.81	272.53
701.216	293.59
701.623	342.74
702.029	302.95
702.435	302.95
702.842	331.04
703.248	312.32
703.654	309.97
704.06	326.36
704.466	326.36
704.872	298.27
705.278	335.72
705.684	326.36
706.09	309.97
706.496	300.61
706.901	291.25
707.307	347.42
707.712	295.93
708.118	312.32
708.523	321.68
708.929	382.53
709.334	284.23
709.74	277.21
710.145	284.23
710.55	288.91
710.955	309.97
711.36	340.4
711.765	305.29
712.17	293.59
712.575	356.79
712.98	1000.43
713.385	363.81
713.789	352.1
714.194	359.13
714.599	312.32
715.003	305.29
715.408	305.29
715.812	286.57
716.217	331.04
716.621	317
717.025	253.8
717.429	338.06
717.833	300.61
718.238	368.49
718.642	370.83
719.046	326.36
719.449	317
719.853	317
720.257	359.13
720.661	309.97
721.065	384.87
721.468	291.25
721.872	328.7
722.275	279.55
722.679	363.81
723.082	317
723.485	242.1
723.889	349.76
724.292	361.47
724.695	286.57
725.098	295.93
725.501	347.42
725.904	363.81
726.307	347.42
726.71	305.29
727.113	328.7
727.516	354.44
727.918	314.66
728.321	242.1
728.724	394.23
729.126	345.08
729.529	295.93
729.931	324.02
730.333	356.79
730.736	349.76
731.138	370.83
731.54	342.74
731.942	277.21
732.344	293.59
732.746	298.27
733.148	328.7
733.55	300.61
733.952	305.29
734.354	298.27
734.756	272.53
735.157	410.62
735.559	373.17
735.96	324.02
736.362	342.74
736.763	293.59
737.165	295.93
737.566	314.66
737.967	291.25
738.368	319.34
738.77	345.08
739.171	324.02
739.572	230.4
739.973	246.78
740.374	326.36
740.774	333.38
741.175	342.74
741.576	309.97
741.977	345.08
742.377	309.97
742.778	291.25
743.178	314.66
743.579	265.5
743.979	309.97
744.379	312.32
744.78	307.63
745.18	319.34
745.58	307.63
745.98	274.87
746.38	349.76
746.78	300.61
747.18	298.27
747.58	281.89
747.98	298.27
748.38	279.55
748.779	335.72
749.179	319.34
749.578	302.95
749.978	258.48
750.377	267.85
750.777	263.16
751.176	279.55
751.575	331.04
751.975	319.34
752.374	338.06
752.773	331.04
753.172	370.83
753.571	298.27
753.97	312.32
754.369	335.72
754.768	345.08
755.166	244.44
755.565	361.47
755.964	317
756.362	356.79
756.761	333.38
757.159	284.23
757.558	324.02
757.956	333.38
758.354	298.27
758.753	347.42
759.151	279.55
759.549	375.51
759.947	300.61
760.345	286.57
760.743	293.59
761.141	324.02
761.539	340.4
761.936	279.55
762.334	286.57
762.732	349.76
763.129	300.61
763.527	293.59
763.924	384.87
764.322	338.06
764.719	359.13
765.117	359.13
765.514	256.14
765.911	391.89
766.308	363.81
766.705	331.04
767.102	335.72
767.499	307.63
767.896	319.34
768.293	267.85
768.69	359.13
769.086	309.97
769.483	272.53
769.88	335.72
770.276	314.66
770.673	326.36
771.069	312.32
771.466	312.32
771.862	305.29
772.258	305.29
772.654	347.42
773.05	246.78
773.447	312.32
773.843	309.97
774.239	281.89
774.634	335.72
775.03	251.46
775.426	312.32
775.822	302.95
776.218	368.49
776.613	309.97
777.009	319.34
777.404	345.08
777.8	312.32
778.195	326.36
778.59	307.63
778.986	317
779.381	314.66
779.776	270.19
780.171	305.29
780.566	338.06
780.961	361.47
781.356	319.34
781.751	295.93
782.146	295.93
782.54	321.68
782.935	291.25
783.33	373.17
783.724	305.29
784.119	309.97
784.513	401.26
784.908	298.27
785.302	309.97
785.696	328.7
786.09	279.55
786.485	244.44
786.879	370.83
787.273	302.95
787.667	317
788.061	272.53
788.454	321.68
788.848	319.34
789.242	345.08
789.636	328.7
790.029	326.36
790.423	317
790.816	256.14
791.21	309.97
791.603	307.63
791.997	338.06
792.39	342.74
792.783	302.95
793.176	340.4
793.569	328.7
793.962	265.5
794.355	277.21
794.748	265.5
795.141	312.32
795.534	317
795.927	307.63
796.319	342.74
796.712	326.36
797.105	312.32
797.497	324.02
797.89	277.21
798.282	281.89
798.674	324.02
799.067	321.68
799.459	272.53
799.851	352.1
800.243	321.68
800.635	338.06
801.027	279.55
801.419	288.91
801.811	338.06
802.203	270.19
802.594	274.87
802.986	370.83
803.378	384.87
803.769	274.87
804.161	291.25
804.552	307.63
804.944	352.1
805.335	274.87
805.726	270.19
806.118	396.57
806.509	338.06
806.9	309.97
807.291	331.04
807.682	324.02
808.073	293.59
808.464	312.32
808.855	377.85
809.245	284.23
809.636	394.23
810.027	298.27
810.417	284.23
810.808	349.76
811.198	335.72
811.589	335.72
811.979	314.66
812.369	340.4
812.759	260.82
813.15	333.38
813.54	258.48
813.93	328.7
814.32	256.14
814.71	389.55
815.1	338.06
815.489	342.74
815.879	415.3
816.269	298.27
816.658	309.97
817.048	321.68
817.438	333.38
817.827	321.68
818.216	309.97
818.606	270.19
818.995	284.23
819.384	338.06
819.773	321.68
820.163	345.08
820.552	277.21
820.941	382.53
821.33	340.4
821.718	302.95
822.107	305.29
822.496	295.93
822.885	277.21
823.273	246.78
823.662	331.04
824.05	277.21
824.439	333.38
824.827	314.66
825.216	354.44
825.604	293.59
825.992	328.7
826.38	225.72
826.768	291.25
827.156	300.61
827.544	302.95
827.932	265.5
828.32	298.27
828.708	307.63
829.096	307.63
829.483	307.63
829.871	279.55
830.259	267.85
830.646	235.08
831.034	333.38
831.421	305.29
831.808	342.74
832.196	305.29
832.583	293.59
832.97	324.02
833.357	380.19
833.744	356.79
834.131	267.85
834.518	345.08
834.905	258.48
835.292	347.42
835.678	256.14
836.065	309.97
836.452	319.34
836.838	295.93
837.225	317
837.611	410.62
837.998	396.57
838.384	331.04
838.77	272.53
839.157	342.74
839.543	300.61
839.929	340.4
840.315	391.89
840.701	321.68
841.087	295.93
841.473	312.32
841.858	228.06
842.244	281.89
842.63	359.13
843.015	300.61
843.401	607.22
843.787	251.46
844.172	270.19
844.557	326.36
844.943	246.78
845.328	314.66
845.713	324.02
846.098	380.19
846.483	305.29
846.868	298.27
847.253	305.29
847.638	277.21
848.023	328.7
848.408	300.61
848.793	300.61
849.177	319.34
849.562	305.29
849.947	270.19
850.331	331.04
850.715	326.36
851.1	377.85
851.484	178.9
851.868	324.02
852.253	279.55
852.637	314.66
853.021	302.95
853.405	279.55
853.789	281.89
854.173	328.7
854.557	333.38
854.94	274.87
855.324	319.34
855.708	321.68
856.091	302.95
856.475	333.38
856.858	298.27
857.242	335.72
857.625	284.23
858.009	251.46
858.392	342.74
858.775	272.53
859.158	356.79
859.541	317
859.924	244.44
860.307	272.53
860.69	307.63
861.073	345.08
861.456	324.02
861.838	331.04
862.221	326.36
862.604	272.53
862.986	281.89
863.369	309.97
863.751	349.76
864.133	305.29
864.516	293.59
864.898	335.72
865.28	288.91
865.662	260.82
866.044	333.38
866.426	274.87
866.808	338.06
867.19	309.97
867.572	342.74
867.954	281.89
868.336	331.04
868.717	284.23
869.099	312.32
869.48	286.57
869.862	307.63
870.243	363.81
870.625	246.78
871.006	326.36
871.387	281.89
871.768	324.02
872.149	366.15
872.53	279.55
872.911	319.34
873.292	382.53
873.673	291.25
874.054	326.36
874.435	309.97
874.815	326.36
875.196	342.74
875.577	335.72
875.957	352.1
876.338	312.32
876.718	338.06
877.098	324.02
877.479	347.42
877.859	380.19
878.239	345.08
878.619	335.72
878.999	295.93
879.379	349.76
879.759	286.57
880.139	333.38
880.519	305.29
880.898	352.1
881.278	307.63
881.658	380.19
882.037	361.47
882.417	324.02
882.796	380.19
883.176	267.85
883.555	319.34
883.934	342.74
884.313	300.61
884.693	333.38
885.072	333.38
885.451	284.23
885.83	319.34
886.209	298.27
886.587	356.79
886.966	352.1
887.345	321.68
887.724	288.91
888.102	309.97
888.481	349.76
888.859	333.38
889.238	284.23
889.616	300.61
889.994	331.04
890.373	340.4
890.751	347.42
891.129	340.4
891.507	302.95
891.885	279.55
892.263	293.59
892.641	288.91
893.019	232.74
893.396	293.59
893.774	319.34
894.152	317
894.529	338.06
894.907	309.97
895.284	270.19
895.662	345.08
896.039	295.93
896.416	354.44
896.794	284.23
897.171	291.25
897.548	328.7
897.925	328.7
898.302	324.02
898.679	302.95
899.056	359.13
899.433	349.76
899.809	349.76
900.186	277.21
900.563	340.4
900.939	270.19
901.316	359.13
901.692	321.68
902.069	277.21
902.445	321.68
902.821	319.34
903.197	321.68
903.574	274.87
903.95	221.03
904.326	373.17
904.702	274.87
905.078	326.36
905.454	326.36
905.829	314.66
906.205	328.7
906.581	307.63
906.956	291.25
907.332	347.42
907.707	305.29
908.083	284.23
908.458	370.83
908.833	331.04
909.209	345.08
909.584	324.02
909.959	284.23
910.334	309.97
910.709	331.04
911.084	347.42
911.459	324.02
911.834	349.76
912.209	298.27
912.583	317
912.958	293.59
913.333	347.42
913.707	321.68
914.082	314.66
914.456	249.12
914.83	312.32
915.205	335.72
915.579	359.13
915.953	338.06
916.327	263.16
916.701	298.27
917.075	324.02
917.449	251.46
917.823	321.68
918.197	368.49
918.571	230.4
918.944	314.66
919.318	375.51
919.692	288.91
920.065	302.95
920.438	342.74
920.812	328.7
921.185	321.68
921.558	277.21
921.932	317
922.305	249.12
922.678	326.36
923.051	340.4
923.424	309.97
923.797	295.93
924.17	375.51
924.542	333.38
924.915	288.91
925.288	354.44
925.661	314.66
926.033	382.53
926.406	277.21
926.778	281.89
927.15	295.93
927.523	319.34
927.895	328.7
928.267	295.93
928.639	335.72
929.011	258.48
929.383	302.95
929.755	274.87
930.127	370.83
930.499	286.57
930.871	300.61
931.242	260.82
931.614	373.17
931.986	291.25
932.357	375.51
932.729	242.1
933.1	366.15
933.471	277.21
933.843	359.13
934.214	265.5
934.585	300.61
934.956	260.82
935.327	300.61
935.698	326.36
936.069	284.23
936.44	274.87
936.811	314.66
937.182	288.91
937.552	314.66
937.923	345.08
938.293	274.87
938.664	324.02
939.034	309.97
939.405	272.53
939.775	300.61
940.145	340.4
940.516	361.47
940.886	218.69
941.256	246.78
941.626	317
941.996	279.55
942.366	347.42
942.735	345.08
943.105	345.08
943.475	356.79
943.845	342.74
944.214	270.19
944.584	272.53
944.953	281.89
945.323	335.72
945.692	286.57
946.061	366.15
946.43	279.55
946.8	302.95
947.169	286.57
947.538	263.16
947.907	270.19
948.276	328.7
948.645	270.19
949.013	281.89
949.382	312.32
949.751	253.8
950.119	345.08
950.488	338.06
950.857	302.95
951.225	284.23
951.593	349.76
951.962	319.34
952.33	321.68
952.698	302.95
953.066	363.81
953.434	293.59
953.802	345.08
954.17	293.59
954.538	302.95
954.906	314.66
955.274	298.27
955.642	295.93
956.009	288.91
956.377	288.91
956.744	333.38
957.112	286.57
957.479	244.44
957.847	361.47
958.214	305.29
958.581	300.61
958.948	272.53
959.315	335.72
959.683	347.42
960.05	309.97
960.416	246.78
960.783	256.14
961.15	286.57
961.517	331.04
961.884	214.01
962.25	363.81
962.617	284.23
962.983	328.7
963.35	335.72
963.716	286.57
964.082	309.97
964.449	321.68
964.815	237.42
965.181	300.61
965.547	277.21
965.913	312.32
966.279	312.32
966.645	284.23
967.011	354.44
967.377	272.53
967.742	368.49
968.108	321.68
968.474	345.08
968.839	291.25
969.205	307.63
969.57	284.23
969.935	345.08
970.301	319.34
970.666	284.23
971.031	295.93
971.396	340.4
971.761	230.4
972.126	331.04
972.491	279.55
972.856	324.02
973.221	312.32
973.586	314.66
973.95	321.68
974.315	328.7
974.679	352.1
975.044	298.27
975.408	347.42
975.773	368.49
976.137	335.72
976.501	295.93
976.866	319.34
977.23	382.53
977.594	345.08
977.958	314.66
978.322	267.85
978.686	368.49
979.049	281.89
979.413	328.7
979.777	333.38
980.141	249.12
980.504	363.81
980.868	312.32
981.231	265.5
981.595	272.53
981.958	267.85
982.321	300.61
982.684	302.95
983.048	307.63
983.411	321.68
983.774	361.47
984.137	331.04
984.5	279.55
984.862	347.42
985.225	331.04
985.588	291.25
985.951	326.36
986.313	338.06
986.676	260.82
987.038	345.08
987.401	317
987.763	352.1
988.125	345.08
988.488	324.02
988.85	333.38
989.212	324.02
989.574	333.38
989.936	370.83
990.298	347.42
990.66	328.7
991.022	375.51
991.383	338.06
991.745	277.21
992.107	354.44
992.468	307.63
992.83	335.72
993.191	349.76
993.553	333.38
993.914	286.57
994.275	338.06
994.637	333.38
994.998	302.95
995.359	324.02
995.72	356.79
996.081	331.04
996.442	347.42
996.803	359.13
997.163	281.89
997.524	312.32
997.885	302.95
998.245	307.63
998.606	354.44
998.966	335.72
999.327	368.49
999.687	326.36
1000.047	305.29
1000.408	286.57
1000.768	281.89
1001.128	279.55
1001.488	328.7
1001.848	300.61
1002.208	319.34
1002.568	284.23
1002.927	286.57
1003.287	335.72
1003.647	317
1004.007	284.23
1004.366	335.72
1004.726	309.97
1005.085	309.97
1005.444	356.79
1005.804	340.4
1006.163	239.76
1006.522	307.63
1006.881	288.91
1007.24	373.17
1007.599	331.04
1007.958	281.89
1008.317	258.48
1008.676	295.93
1009.035	235.08
1009.393	326.36
1009.752	349.76
1010.111	305.29
1010.469	319.34
1010.828	279.55
1011.186	277.21
1011.544	288.91
1011.903	267.85
1012.261	321.68
1012.619	380.19
1012.977	347.42
1013.335	305.29
1013.693	319.34
1014.051	288.91
1014.409	258.48
1014.767	279.55
1015.124	309.97
1015.482	298.27
1015.84	314.66
1016.197	394.23
1016.555	333.38
1016.912	218.69
1017.269	338.06
1017.627	333.38
1017.984	307.63
1018.341	295.93
1018.698	345.08
1019.055	293.59
1019.412	333.38
1019.769	309.97
1020.126	267.85
1020.483	347.42
1020.84	335.72
1021.196	324.02
1021.553	382.53
1021.909	286.57
1022.266	331.04
1022.622	324.02
1022.979	314.66
1023.335	328.7
1023.691	291.25
1024.047	256.14
1024.404	309.97
1024.76	314.66
1025.116	321.68
1025.472	331.04
1025.827	288.91
1026.183	317
1026.539	309.97
1026.895	270.19
1027.25	237.42
1027.606	324.02
1027.961	286.57
1028.317	279.55
1028.672	295.93
1029.028	321.68
1029.383	352.1
1029.738	291.25
1030.093	324.02
1030.448	328.7
1030.803	377.85
1031.158	319.34
1031.513	279.55
1031.868	230.4
1032.223	284.23
1032.577	307.63
1032.932	302.95
1033.287	225.72
1033.641	291.25
1033.996	260.82
1034.35	319.34
1034.704	321.68
1035.059	373.17
1035.413	260.82
1035.767	260.82
1036.121	260.82
