Data from Al_FLMS009871__1083__16-29-42-005.txt Node

Date: Fri Mar 08 16:29:42 CST 2024
User: pe5414po
Spectrometer: FLMS00987
Trigger mode: 0
Integration Time (sec): 1.000000E-1
Scans to average: 1
Electric dark correction enabled: true
Nonlinearity correction enabled: false
Boxcar width: 0
XAxis mode: Wavelengths
Number of Pixels in Spectrum: 2048
>>>>>Begin Spectral Data<<<<<
188.938	-106.35
189.409	-106.35
189.879	-106.35
190.349	-89.96
190.819	-78.26
191.29	-108.69
191.76	-94.65
192.23	-78.26
192.7	-96.99
193.17	-75.92
193.64	-12.73
194.109	-29.11
194.579	8.34
195.049	-10.39
195.519	-15.07
195.988	13.02
196.458	31.74
196.927	116
197.397	97.28
197.866	104.3
198.336	151.11
198.805	90.26
199.274	151.11
199.744	146.43
200.213	240.05
200.682	169.84
201.151	242.39
201.62	240.05
202.089	218.99
202.558	242.39
203.027	207.28
203.495	186.22
203.964	251.75
204.433	314.95
204.902	317.29
205.37	343.03
205.839	265.8
206.307	293.88
206.776	247.07
207.244	307.93
207.712	270.48
208.181	314.95
208.649	286.86
209.117	338.35
209.585	326.65
210.053	265.8
210.521	326.65
210.989	317.29
211.457	296.22
211.925	326.65
212.393	211.96
212.861	233.03
213.328	368.78
213.796	293.88
214.264	251.75
214.731	265.8
215.199	289.2
215.666	249.41
216.133	226.01
216.601	293.88
217.068	272.82
217.535	237.71
218.003	275.16
218.47	282.18
218.937	211.96
219.404	263.46
219.871	240.05
220.338	207.28
220.805	282.18
221.271	251.75
221.738	263.46
222.205	251.75
222.671	249.41
223.138	240.05
223.605	237.71
224.071	207.28
224.538	261.12
225.004	307.93
225.47	256.43
225.937	268.14
226.403	305.59
226.869	331.33
227.335	265.8
227.801	314.95
228.267	364.1
228.733	279.84
229.199	188.56
229.665	211.96
230.131	218.99
230.597	284.52
231.062	289.2
231.528	258.78
231.994	317.29
232.459	272.82
232.925	240.05
233.39	256.43
233.856	275.16
234.321	218.99
234.786	277.5
235.252	312.61
235.717	324.31
236.182	314.95
236.647	249.41
237.112	204.94
237.577	347.72
238.042	279.84
238.507	293.88
238.972	293.88
239.436	293.88
239.901	249.41
240.366	237.71
240.83	324.31
241.295	268.14
241.76	282.18
242.224	275.16
242.688	347.72
243.153	251.75
243.617	265.8
244.081	221.33
244.545	216.65
245.01	272.82
245.474	270.48
245.938	244.73
246.402	270.48
246.866	235.37
247.33	268.14
247.793	284.52
248.257	296.22
248.721	340.69
249.185	249.41
249.648	218.99
250.112	347.72
250.575	251.75
251.039	235.37
251.502	251.75
251.965	230.69
252.429	282.18
252.892	293.88
253.355	310.27
253.818	261.12
254.281	256.43
254.744	272.82
255.207	193.24
255.67	286.86
256.133	289.2
256.596	300.91
257.059	254.09
257.522	312.61
257.984	284.52
258.447	265.8
258.909	300.91
259.372	291.54
259.834	291.54
260.297	324.31
260.759	305.59
261.221	286.86
261.684	254.09
262.146	277.5
262.608	261.12
263.07	275.16
263.532	247.07
263.994	328.99
264.456	298.56
264.918	233.03
265.38	249.41
265.842	291.54
266.303	272.82
266.765	275.16
267.227	256.43
267.688	284.52
268.15	333.67
268.611	221.33
269.072	333.67
269.534	305.59
269.995	296.22
270.456	321.97
270.918	265.8
271.379	303.25
271.84	321.97
272.301	289.2
272.762	258.78
273.223	296.22
273.684	375.8
274.144	226.01
274.605	321.97
275.066	331.33
275.527	275.16
275.987	300.91
276.448	300.91
276.908	319.63
277.369	221.33
277.829	277.5
278.289	244.73
278.75	282.18
279.21	328.99
279.67	298.56
280.13	345.38
280.59	319.63
281.05	328.99
281.51	300.91
281.97	289.2
282.43	350.06
282.89	328.99
283.35	291.54
283.809	347.72
284.269	331.33
284.729	319.63
285.188	268.14
285.648	352.4
286.107	230.69
286.567	324.31
287.026	305.59
287.485	284.52
287.944	275.16
288.404	307.93
288.863	340.69
289.322	378.14
289.781	347.72
290.24	291.54
290.699	289.2
291.158	328.99
291.616	291.54
292.075	263.46
292.534	258.78
292.992	345.38
293.451	272.82
293.91	314.95
294.368	333.67
294.827	279.84
295.285	303.25
295.743	272.82
296.202	321.97
296.66	326.65
297.118	261.12
297.576	300.91
298.034	291.54
298.492	286.86
298.95	307.93
299.408	298.56
299.866	282.18
300.324	314.95
300.781	275.16
301.239	289.2
301.697	298.56
302.154	282.18
302.612	331.33
303.069	328.99
303.527	233.03
303.984	279.84
304.441	286.86
304.899	328.99
305.356	282.18
305.813	275.16
306.27	340.69
306.727	312.61
307.184	254.09
307.641	305.59
308.098	310.27
308.555	277.5
309.012	235.37
309.468	319.63
309.925	303.25
310.382	249.41
310.838	275.16
311.295	272.82
311.751	249.41
312.208	296.22
312.664	303.25
313.12	357.08
313.577	282.18
314.033	256.43
314.489	359.42
314.945	244.73
315.401	328.99
315.857	310.27
316.313	305.59
316.769	286.86
317.225	361.76
317.681	291.54
318.136	324.31
318.592	284.52
319.048	247.07
319.503	336.01
319.959	328.99
320.414	218.99
320.869	268.14
321.325	286.86
321.78	270.48
322.235	263.46
322.691	324.31
323.146	256.43
323.601	359.42
324.056	279.84
324.511	296.22
324.966	298.56
325.421	286.86
325.875	343.03
326.33	284.52
326.785	256.43
327.24	331.33
327.694	321.97
328.149	279.84
328.603	272.82
329.058	399.21
329.512	240.05
329.966	258.78
330.421	261.12
330.875	352.4
331.329	256.43
331.783	312.61
332.237	359.42
332.691	317.29
333.145	275.16
333.599	324.31
334.053	324.31
334.507	272.82
334.96	321.97
335.414	305.59
335.868	392.19
336.321	284.52
336.775	300.91
337.228	291.54
337.682	317.29
338.135	321.97
338.588	286.86
339.042	328.99
339.495	399.21
339.948	359.42
340.401	343.03
340.854	270.48
341.307	282.18
341.76	293.88
342.213	375.8
342.666	321.97
343.119	279.84
343.571	366.44
344.024	268.14
344.477	286.86
344.929	319.63
345.382	373.46
345.834	357.08
346.287	326.65
346.739	340.69
347.191	282.18
347.644	293.88
348.096	333.67
348.548	293.88
349	328.99
349.452	338.35
349.904	254.09
350.356	284.52
350.808	268.14
351.26	305.59
351.711	347.72
352.163	310.27
352.615	286.86
353.066	293.88
353.518	317.29
353.969	319.63
354.421	296.22
354.872	336.01
355.324	324.31
355.775	340.69
356.226	319.63
356.677	340.69
357.128	364.1
357.579	293.88
358.03	300.91
358.481	286.86
358.932	352.4
359.383	256.43
359.834	286.86
360.285	314.95
360.735	321.97
361.186	321.97
361.637	230.69
362.087	331.33
362.538	251.75
362.988	324.31
363.438	300.91
363.889	303.25
364.339	319.63
364.789	289.2
365.239	340.69
365.689	254.09
366.139	338.35
366.589	263.46
367.039	359.42
367.489	399.21
367.939	286.86
368.389	305.59
368.839	394.53
369.288	333.67
369.738	326.65
370.187	317.29
370.637	326.65
371.086	244.73
371.536	354.74
371.985	317.29
372.434	275.16
372.884	279.84
373.333	352.4
373.782	256.43
374.231	331.33
374.68	328.99
375.129	289.2
375.578	298.56
376.027	310.27
376.475	324.31
376.924	305.59
377.373	303.25
377.822	359.42
378.27	328.99
378.719	321.97
379.167	336.01
379.616	268.14
380.064	319.63
380.512	314.95
380.961	328.99
381.409	317.29
381.857	298.56
382.305	305.59
382.753	298.56
383.201	324.31
383.649	298.56
384.097	275.16
384.545	303.25
384.992	293.88
385.44	284.52
385.888	298.56
386.335	305.59
386.783	296.22
387.231	249.41
387.678	310.27
388.125	340.69
388.573	364.1
389.02	350.06
389.467	368.78
389.914	305.59
390.362	314.95
390.809	284.52
391.256	300.91
391.703	314.95
392.15	293.88
392.596	345.38
393.043	371.12
393.49	286.86
393.937	331.33
394.383	272.82
394.83	331.33
395.276	289.2
395.723	275.16
396.169	319.63
396.616	357.08
397.062	314.95
397.508	321.97
397.954	338.35
398.401	324.31
398.847	286.86
399.293	317.29
399.739	268.14
400.185	338.35
400.631	317.29
401.076	340.69
401.522	307.93
401.968	279.84
402.414	347.72
402.859	307.93
403.305	244.73
403.75	331.33
404.196	265.8
404.641	366.44
405.086	312.61
405.532	305.59
405.977	314.95
406.422	338.35
406.867	347.72
407.312	314.95
407.757	326.65
408.202	289.2
408.647	310.27
409.092	291.54
409.537	298.56
409.982	275.16
410.426	326.65
410.871	347.72
411.316	272.82
411.76	336.01
412.205	352.4
412.649	345.38
413.093	291.54
413.538	286.86
413.982	340.69
414.426	261.12
414.87	336.01
415.314	300.91
415.758	293.88
416.202	314.95
416.646	340.69
417.09	298.56
417.534	385.16
417.978	310.27
418.421	340.69
418.865	300.91
419.309	317.29
419.752	361.76
420.196	328.99
420.639	291.54
421.083	286.86
421.526	354.74
421.969	340.69
422.412	413.25
422.856	300.91
423.299	326.65
423.742	303.25
424.185	338.35
424.628	296.22
425.071	371.12
425.513	275.16
425.956	343.03
426.399	230.69
426.842	331.33
427.284	350.06
427.727	277.5
428.169	293.88
428.612	298.56
429.054	291.54
429.497	291.54
429.939	345.38
430.381	394.53
430.823	317.29
431.265	357.08
431.707	314.95
432.149	303.25
432.591	319.63
433.033	237.71
433.475	296.22
433.917	326.65
434.359	399.21
434.8	347.72
435.242	230.69
435.684	307.93
436.125	373.46
436.567	326.65
437.008	338.35
437.449	336.01
437.891	317.29
438.332	284.52
438.773	284.52
439.214	333.67
439.656	345.38
440.097	298.56
440.538	272.82
440.978	254.09
441.419	359.42
441.86	359.42
442.301	298.56
442.742	282.18
443.182	291.54
443.623	282.18
444.063	300.91
444.504	359.42
444.944	333.67
445.385	296.22
445.825	300.91
446.265	268.14
446.706	338.35
447.146	279.84
447.586	317.29
448.026	296.22
448.466	284.52
448.906	296.22
449.346	256.43
449.786	350.06
450.225	387.5
450.665	282.18
451.105	293.88
451.544	371.12
451.984	272.82
452.424	314.95
452.863	314.95
453.302	310.27
453.742	317.29
454.181	352.4
454.62	321.97
455.059	331.33
455.499	371.12
455.938	336.01
456.377	275.16
456.816	338.35
457.254	286.86
457.693	293.88
458.132	331.33
458.571	352.4
459.01	319.63
459.448	289.2
459.887	310.27
460.325	305.59
460.764	298.56
461.202	282.18
461.641	354.74
462.079	282.18
462.517	317.29
462.955	326.65
463.393	333.67
463.832	354.74
464.27	314.95
464.708	275.16
465.145	307.93
465.583	265.8
466.021	307.93
466.459	340.69
466.897	343.03
467.334	270.48
467.772	286.86
468.209	326.65
468.647	333.67
469.084	303.25
469.522	265.8
469.959	275.16
470.396	261.12
470.833	336.01
471.271	361.76
471.708	375.8
472.145	319.63
472.582	307.93
473.019	340.69
473.456	345.38
473.892	314.95
474.329	282.18
474.766	298.56
475.202	375.8
475.639	247.07
476.076	350.06
476.512	328.99
476.949	251.75
477.385	282.18
477.821	258.78
478.258	314.95
478.694	347.72
479.13	293.88
479.566	291.54
480.002	331.33
480.438	293.88
480.874	338.35
481.31	291.54
481.746	291.54
482.181	324.31
482.617	277.5
483.053	282.18
483.488	333.67
483.924	286.86
484.36	289.2
484.795	312.61
485.23	324.31
485.666	303.25
486.101	298.56
486.536	284.52
486.971	258.78
487.407	303.25
487.842	296.22
488.277	279.84
488.712	366.44
489.146	312.61
489.581	361.76
490.016	298.56
490.451	298.56
490.885	324.31
491.32	314.95
491.755	265.8
492.189	247.07
492.624	336.01
493.058	261.12
493.492	251.75
493.927	282.18
494.361	282.18
494.795	336.01
495.229	340.69
495.663	312.61
496.097	282.18
496.531	338.35
496.965	321.97
497.399	347.72
497.833	277.5
498.266	240.05
498.7	282.18
499.134	305.59
499.567	310.27
500.001	368.78
500.434	336.01
500.868	324.31
501.301	312.61
501.734	291.54
502.168	296.22
502.601	265.8
503.034	340.69
503.467	319.63
503.9	282.18
504.333	298.56
504.766	324.31
505.199	324.31
505.632	310.27
506.064	380.48
506.497	336.01
506.93	307.93
507.362	303.25
507.795	328.99
508.227	307.93
508.66	298.56
509.092	368.78
509.524	343.03
509.956	324.31
510.389	312.61
510.821	364.1
511.253	300.91
511.685	307.93
512.117	307.93
512.549	333.67
512.981	331.33
513.412	249.41
513.844	321.97
514.276	265.8
514.707	284.52
515.139	291.54
515.571	298.56
516.002	333.67
516.433	282.18
516.865	338.35
517.296	338.35
517.727	307.93
518.159	331.33
518.59	361.76
519.021	352.4
519.452	352.4
519.883	298.56
520.314	333.67
520.744	359.42
521.175	331.33
521.606	336.01
522.037	293.88
522.467	303.25
522.898	314.95
523.328	291.54
523.759	336.01
524.189	300.91
524.62	343.03
525.05	340.69
525.48	338.35
525.91	307.93
526.341	328.99
526.771	378.14
527.201	366.44
527.631	324.31
528.061	312.61
528.49	361.76
528.92	310.27
529.35	258.78
529.78	382.82
530.209	338.35
530.639	312.61
531.068	324.31
531.498	289.2
531.927	307.93
532.357	314.95
532.786	361.76
533.215	340.69
533.644	303.25
534.074	312.61
534.503	340.69
534.932	307.93
535.361	305.59
535.79	333.67
536.218	352.4
536.647	291.54
537.076	284.52
537.505	317.29
537.933	321.97
538.362	359.42
538.79	338.35
539.219	371.12
539.647	345.38
540.076	300.91
540.504	286.86
540.932	328.99
541.36	275.16
541.788	326.65
542.217	296.22
542.645	293.88
543.073	300.91
543.5	263.46
543.928	289.2
544.356	321.97
544.784	272.82
545.211	291.54
545.639	286.86
546.067	406.23
546.494	319.63
546.922	296.22
547.349	314.95
547.776	289.2
548.204	319.63
548.631	282.18
549.058	321.97
549.485	317.29
549.912	289.2
550.339	319.63
550.766	286.86
551.193	343.03
551.62	284.52
552.047	307.93
552.474	310.27
552.9	247.07
553.327	293.88
553.754	324.31
554.18	307.93
554.607	300.91
555.033	272.82
555.459	314.95
555.886	307.93
556.312	354.74
556.738	347.72
557.164	375.8
557.59	387.5
558.016	293.88
558.442	284.52
558.868	272.82
559.294	357.08
559.72	361.76
560.145	333.67
560.571	399.21
560.997	305.59
561.422	277.5
561.848	396.87
562.273	289.2
562.699	321.97
563.124	368.78
563.549	350.06
563.974	333.67
564.4	321.97
564.825	314.95
565.25	291.54
565.675	328.99
566.1	359.42
566.525	282.18
566.95	275.16
567.374	296.22
567.799	333.67
568.224	296.22
568.648	314.95
569.073	319.63
569.497	331.33
569.922	331.33
570.346	364.1
570.771	336.01
571.195	300.91
571.619	286.86
572.043	272.82
572.467	354.74
572.891	293.88
573.315	328.99
573.739	279.84
574.163	319.63
574.587	387.5
575.011	305.59
575.435	328.99
575.858	354.74
576.282	314.95
576.705	310.27
577.129	303.25
577.552	375.8
577.976	326.65
578.399	359.42
578.822	338.35
579.245	300.91
579.669	263.46
580.092	237.71
580.515	314.95
580.938	352.4
581.361	347.72
581.784	300.91
582.206	291.54
582.629	307.93
583.052	279.84
583.474	296.22
583.897	361.76
584.32	268.14
584.742	307.93
585.165	340.69
585.587	317.29
586.009	270.48
586.431	340.69
586.854	293.88
587.276	319.63
587.698	298.56
588.12	336.01
588.542	282.18
588.964	296.22
589.386	361.76
589.807	340.69
590.229	331.33
590.651	286.86
591.073	265.8
591.494	321.97
591.916	310.27
592.337	300.91
592.759	303.25
593.18	286.86
593.601	380.48
594.022	380.48
594.444	282.18
594.865	371.12
595.286	317.29
595.707	307.93
596.128	293.88
596.549	357.08
596.97	340.69
597.39	359.42
597.811	279.84
598.232	361.76
598.652	296.22
599.073	361.76
599.494	347.72
599.914	289.2
600.334	345.38
600.755	261.12
601.175	256.43
601.595	305.59
602.015	326.65
602.436	265.8
602.856	406.23
603.276	300.91
603.696	284.52
604.115	317.29
604.535	314.95
604.955	263.46
605.375	394.53
605.794	300.91
606.214	378.14
606.634	279.84
607.053	291.54
607.473	291.54
607.892	272.82
608.311	258.78
608.731	359.42
609.15	286.86
609.569	286.86
609.988	282.18
610.407	350.06
610.826	296.22
611.245	354.74
611.664	345.38
612.083	300.91
612.501	300.91
612.92	317.29
613.339	331.33
613.757	284.52
614.176	305.59
614.594	300.91
615.013	237.71
615.431	277.5
615.85	347.72
616.268	364.1
616.686	361.76
617.104	319.63
617.522	312.61
617.94	324.31
618.358	321.97
618.776	326.65
619.194	305.59
619.612	310.27
620.03	373.46
620.447	328.99
620.865	293.88
621.282	247.07
621.7	347.72
622.117	261.12
622.535	333.67
622.952	333.67
623.369	240.05
623.787	305.59
624.204	298.56
624.621	317.29
625.038	289.2
625.455	331.33
625.872	317.29
626.289	317.29
626.706	359.42
627.123	307.93
627.539	258.78
627.956	312.61
628.373	307.93
628.789	333.67
629.206	336.01
629.622	321.97
630.038	380.48
630.455	331.33
630.871	373.46
631.287	340.69
631.703	319.63
632.12	265.8
632.536	258.78
632.952	307.93
633.368	333.67
633.783	277.5
634.199	296.22
634.615	359.42
635.031	317.29
635.446	326.65
635.862	326.65
636.277	289.2
636.693	333.67
637.108	317.29
637.524	382.82
637.939	317.29
638.354	247.07
638.77	284.52
639.185	317.29
639.6	303.25
640.015	312.61
640.43	291.54
640.845	324.31
641.259	321.97
641.674	328.99
642.089	328.99
642.504	347.72
642.918	307.93
643.333	333.67
643.747	366.44
644.162	305.59
644.576	305.59
644.991	350.06
645.405	270.48
645.819	249.41
646.233	336.01
646.647	298.56
647.061	305.59
647.475	331.33
647.889	321.97
648.303	307.93
648.717	261.12
649.131	317.29
649.545	272.82
649.958	282.18
650.372	336.01
650.785	336.01
651.199	284.52
651.612	333.67
652.026	300.91
652.439	312.61
652.852	270.48
653.266	268.14
653.679	298.56
654.092	277.5
654.505	352.4
654.918	336.01
655.331	265.8
655.744	336.01
656.156	307.93
656.569	331.33
656.982	350.06
657.394	324.31
657.807	293.88
658.22	284.52
658.632	291.54
659.044	338.35
659.457	298.56
659.869	319.63
660.281	389.85
660.693	343.03
661.106	319.63
661.518	307.93
661.93	286.86
662.342	321.97
662.754	284.52
663.165	352.4
663.577	317.29
663.989	354.74
664.401	394.53
664.812	314.95
665.224	307.93
665.635	317.29
666.047	350.06
666.458	249.41
666.869	307.93
667.281	270.48
667.692	293.88
668.103	286.86
668.514	331.33
668.925	307.93
669.336	406.23
669.747	314.95
670.158	317.29
670.569	324.31
670.979	242.39
671.39	324.31
671.801	312.61
672.211	279.84
672.622	293.88
673.032	303.25
673.443	331.33
673.853	333.67
674.263	345.38
674.674	263.46
675.084	328.99
675.494	268.14
675.904	326.65
676.314	340.69
676.724	366.44
677.134	296.22
677.544	340.69
677.953	303.25
678.363	291.54
678.773	338.35
679.182	307.93
679.592	300.91
680.001	277.5
680.411	305.59
680.82	235.37
681.23	289.2
681.639	328.99
682.048	317.29
682.457	303.25
682.866	319.63
683.275	368.78
683.684	352.4
684.093	340.69
684.502	296.22
684.911	282.18
685.32	314.95
685.728	350.06
686.137	380.48
686.546	354.74
686.954	268.14
687.363	303.25
687.771	314.95
688.179	350.06
688.588	345.38
688.996	284.52
689.404	324.31
689.812	336.01
690.22	296.22
690.628	331.33
691.036	328.99
691.444	293.88
691.852	242.39
692.26	359.42
692.667	319.63
693.075	343.03
693.483	375.8
693.89	284.52
694.298	310.27
694.705	328.99
695.112	359.42
695.52	343.03
695.927	375.8
696.334	338.35
696.741	314.95
697.148	291.54
697.555	284.52
697.962	300.91
698.369	310.27
698.776	233.03
699.183	366.44
699.59	338.35
699.996	291.54
700.403	272.82
700.81	321.97
701.216	343.03
701.623	286.86
702.029	296.22
702.435	277.5
702.842	286.86
703.248	368.78
703.654	307.93
704.06	336.01
704.466	350.06
704.872	326.65
705.278	352.4
705.684	270.48
706.09	307.93
706.496	324.31
706.901	321.97
707.307	298.56
707.712	331.33
708.118	326.65
708.523	242.39
708.929	366.44
709.334	336.01
709.74	352.4
710.145	228.35
710.55	321.97
710.955	310.27
711.36	270.48
711.765	317.29
712.17	254.09
712.575	314.95
712.98	914.13
713.385	326.65
713.789	336.01
714.194	343.03
714.599	293.88
715.003	289.2
715.408	354.74
715.812	237.71
716.217	279.84
716.621	300.91
717.025	303.25
717.429	354.74
717.833	296.22
718.238	317.29
718.642	296.22
719.046	305.59
719.449	275.16
719.853	312.61
720.257	312.61
720.661	293.88
721.065	336.01
721.468	286.86
721.872	277.5
722.275	357.08
722.679	324.31
723.082	354.74
723.485	312.61
723.889	289.2
724.292	352.4
724.695	345.38
725.098	317.29
725.501	394.53
725.904	298.56
726.307	307.93
726.71	275.16
727.113	284.52
727.516	296.22
727.918	317.29
728.321	284.52
728.724	254.09
729.126	310.27
729.529	307.93
729.931	331.33
730.333	328.99
730.736	319.63
731.138	282.18
731.54	354.74
731.942	408.57
732.344	286.86
732.746	352.4
733.148	305.59
733.55	293.88
733.952	317.29
734.354	331.33
734.756	307.93
735.157	289.2
735.559	352.4
735.96	312.61
736.362	324.31
736.763	331.33
737.165	317.29
737.566	350.06
737.967	272.82
738.368	359.42
738.77	296.22
739.171	298.56
739.572	291.54
739.973	324.31
740.374	385.16
740.774	284.52
741.175	293.88
741.576	324.31
741.977	336.01
742.377	347.72
742.778	296.22
743.178	347.72
743.579	312.61
743.979	279.84
744.379	300.91
744.78	321.97
745.18	296.22
745.58	310.27
745.98	340.69
746.38	282.18
746.78	277.5
747.18	321.97
747.58	338.35
747.98	272.82
748.38	258.78
748.779	298.56
749.179	347.72
749.578	277.5
749.978	254.09
750.377	312.61
750.777	247.07
751.176	380.48
751.575	251.75
751.975	291.54
752.374	240.05
752.773	314.95
753.172	317.29
753.571	354.74
753.97	305.59
754.369	307.93
754.768	251.75
755.166	331.33
755.565	228.35
755.964	279.84
756.362	317.29
756.761	378.14
757.159	272.82
757.558	310.27
757.956	261.12
758.354	345.38
758.753	375.8
759.151	333.67
759.549	338.35
759.947	331.33
760.345	303.25
760.743	314.95
761.141	270.48
761.539	333.67
761.936	366.44
762.334	314.95
762.732	392.19
763.129	270.48
763.527	307.93
763.924	310.27
764.322	321.97
764.719	364.1
765.117	321.97
765.514	354.74
765.911	244.73
766.308	291.54
766.705	396.87
767.102	347.72
767.499	345.38
767.896	286.86
768.293	357.08
768.69	305.59
769.086	319.63
769.483	359.42
769.88	293.88
770.276	300.91
770.673	321.97
771.069	296.22
771.466	277.5
771.862	357.08
772.258	314.95
772.654	272.82
773.05	275.16
773.447	307.93
773.843	371.12
774.239	321.97
774.634	310.27
775.03	268.14
775.426	275.16
775.822	289.2
776.218	272.82
776.613	310.27
777.009	354.74
777.404	361.76
777.8	321.97
778.195	343.03
778.59	357.08
778.986	279.84
779.381	317.29
779.776	338.35
780.171	265.8
780.566	286.86
780.961	223.67
781.356	368.78
781.751	286.86
782.146	324.31
782.54	378.14
782.935	261.12
783.33	319.63
783.724	307.93
784.119	326.65
784.513	357.08
784.908	359.42
785.302	305.59
785.696	289.2
786.09	340.69
786.485	333.67
786.879	286.86
787.273	368.78
787.667	247.07
788.061	277.5
788.454	261.12
788.848	303.25
789.242	314.95
789.636	347.72
790.029	279.84
790.423	345.38
790.816	343.03
791.21	345.38
791.603	314.95
791.997	350.06
792.39	275.16
792.783	354.74
793.176	214.31
793.569	284.52
793.962	277.5
794.355	300.91
794.748	307.93
795.141	317.29
795.534	249.41
795.927	298.56
796.319	300.91
796.712	326.65
797.105	303.25
797.497	345.38
797.89	307.93
798.282	357.08
798.674	303.25
799.067	361.76
799.459	321.97
799.851	317.29
800.243	343.03
800.635	310.27
801.027	293.88
801.419	296.22
801.811	265.8
802.203	354.74
802.594	343.03
802.986	319.63
803.378	321.97
803.769	333.67
804.161	312.61
804.552	354.74
804.944	263.46
805.335	314.95
805.726	368.78
806.118	310.27
806.509	279.84
806.9	277.5
807.291	275.16
807.682	268.14
808.073	268.14
808.464	378.14
808.855	326.65
809.245	343.03
809.636	303.25
810.027	307.93
810.417	277.5
810.808	293.88
811.198	270.48
811.589	314.95
811.979	340.69
812.369	279.84
812.759	333.67
813.15	275.16
813.54	237.71
813.93	328.99
814.32	396.87
814.71	326.65
815.1	314.95
815.489	282.18
815.879	286.86
816.269	333.67
816.658	336.01
817.048	307.93
817.438	361.76
817.827	336.01
818.216	289.2
818.606	354.74
818.995	317.29
819.384	270.48
819.773	364.1
820.163	317.29
820.552	373.46
820.941	317.29
821.33	317.29
821.718	298.56
822.107	247.07
822.496	303.25
822.885	364.1
823.273	303.25
823.662	331.33
824.05	314.95
824.439	343.03
824.827	364.1
825.216	300.91
825.604	296.22
825.992	279.84
826.38	317.29
826.768	298.56
827.156	268.14
827.544	298.56
827.932	270.48
828.32	307.93
828.708	354.74
829.096	298.56
829.483	373.46
829.871	251.75
830.259	345.38
830.646	359.42
831.034	284.52
831.421	307.93
831.808	251.75
832.196	279.84
832.583	305.59
832.97	319.63
833.357	312.61
833.744	350.06
834.131	317.29
834.518	354.74
834.905	254.09
835.292	333.67
835.678	230.69
836.065	298.56
836.452	354.74
836.838	277.5
837.225	364.1
837.611	279.84
837.998	289.2
838.384	270.48
838.77	279.84
839.157	256.43
839.543	340.69
839.929	326.65
840.315	321.97
840.701	359.42
841.087	305.59
841.473	300.91
841.858	359.42
842.244	328.99
842.63	319.63
843.015	359.42
843.401	661.35
843.787	268.14
844.172	230.69
844.557	263.46
844.943	286.86
845.328	289.2
845.713	345.38
846.098	354.74
846.483	286.86
846.868	289.2
847.253	326.65
847.638	247.07
848.023	293.88
848.408	307.93
848.793	345.38
849.177	307.93
849.562	314.95
849.947	324.31
850.331	401.55
850.715	312.61
851.1	354.74
851.484	373.46
851.868	312.61
852.253	359.42
852.637	300.91
853.021	312.61
853.405	270.48
853.789	380.48
854.173	272.82
854.557	352.4
854.94	240.05
855.324	382.82
855.708	307.93
856.091	300.91
856.475	331.33
856.858	345.38
857.242	312.61
857.625	331.33
858.009	305.59
858.392	277.5
858.775	298.56
859.158	366.44
859.541	352.4
859.924	317.29
860.307	364.1
860.69	331.33
861.073	291.54
861.456	251.75
861.838	303.25
862.221	293.88
862.604	305.59
862.986	240.05
863.369	307.93
863.751	272.82
864.133	277.5
864.516	359.42
864.898	340.69
865.28	326.65
865.662	296.22
866.044	298.56
866.426	286.86
866.808	300.91
867.19	284.52
867.572	368.78
867.954	270.48
868.336	270.48
868.717	254.09
869.099	282.18
869.48	300.91
869.862	261.12
870.243	289.2
870.625	324.31
871.006	324.31
871.387	300.91
871.768	303.25
872.149	321.97
872.53	364.1
872.911	293.88
873.292	352.4
873.673	352.4
874.054	375.8
874.435	293.88
874.815	361.76
875.196	275.16
875.577	312.61
875.957	328.99
876.338	272.82
876.718	312.61
877.098	343.03
877.479	300.91
877.859	272.82
878.239	338.35
878.619	300.91
878.999	312.61
879.379	305.59
879.759	300.91
880.139	310.27
880.519	338.35
880.898	338.35
881.278	279.84
881.658	244.73
882.037	305.59
882.417	268.14
882.796	300.91
883.176	298.56
883.555	361.76
883.934	382.82
884.313	321.97
884.693	314.95
885.072	326.65
885.451	359.42
885.83	289.2
886.209	268.14
886.587	321.97
886.966	326.65
887.345	305.59
887.724	331.33
888.102	336.01
888.481	249.41
888.859	275.16
889.238	326.65
889.616	291.54
889.994	289.2
890.373	265.8
890.751	305.59
891.129	345.38
891.507	240.05
891.885	336.01
892.263	310.27
892.641	312.61
893.019	345.38
893.396	298.56
893.774	326.65
894.152	268.14
894.529	333.67
894.907	251.75
895.284	233.03
895.662	233.03
896.039	298.56
896.416	261.12
896.794	279.84
897.171	336.01
897.548	307.93
897.925	312.61
898.302	265.8
898.679	303.25
899.056	293.88
899.433	354.74
899.809	328.99
900.186	296.22
900.563	282.18
900.939	300.91
901.316	307.93
901.692	310.27
902.069	293.88
902.445	324.31
902.821	352.4
903.197	326.65
903.574	352.4
903.95	268.14
904.326	289.2
904.702	317.29
905.078	307.93
905.454	279.84
905.829	279.84
906.205	265.8
906.581	321.97
906.956	312.61
907.332	307.93
907.707	275.16
908.083	286.86
908.458	300.91
908.833	319.63
909.209	345.38
909.584	277.5
909.959	336.01
910.334	314.95
910.709	286.86
911.084	331.33
911.459	321.97
911.834	317.29
912.209	289.2
912.583	279.84
912.958	277.5
913.333	399.21
913.707	307.93
914.082	307.93
914.456	303.25
914.83	303.25
915.205	312.61
915.579	387.5
915.953	298.56
916.327	300.91
916.701	272.82
917.075	258.78
917.449	296.22
917.823	350.06
918.197	263.46
918.571	221.33
918.944	270.48
919.318	340.69
919.692	300.91
920.065	296.22
920.438	331.33
920.812	340.69
921.185	361.76
921.558	268.14
921.932	298.56
922.305	343.03
922.678	328.99
923.051	331.33
923.424	396.87
923.797	326.65
924.17	303.25
924.542	296.22
924.915	277.5
925.288	305.59
925.661	321.97
926.033	296.22
926.406	321.97
926.778	326.65
927.15	378.14
927.523	258.78
927.895	312.61
928.267	352.4
928.639	326.65
929.011	296.22
929.383	317.29
929.755	319.63
930.127	237.71
930.499	270.48
930.871	303.25
931.242	331.33
931.614	272.82
931.986	375.8
932.357	307.93
932.729	244.73
933.1	249.41
933.471	338.35
933.843	263.46
934.214	336.01
934.585	366.44
934.956	265.8
935.327	263.46
935.698	263.46
936.069	312.61
936.44	291.54
936.811	286.86
937.182	291.54
937.552	286.86
937.923	291.54
938.293	328.99
938.664	307.93
939.034	305.59
939.405	364.1
939.775	366.44
940.145	296.22
940.516	331.33
940.886	298.56
941.256	340.69
941.626	328.99
941.996	279.84
942.366	286.86
942.735	345.38
943.105	286.86
943.475	300.91
943.845	279.84
944.214	270.48
944.584	326.65
944.953	321.97
945.323	305.59
945.692	340.69
946.061	340.69
946.43	307.93
946.8	277.5
947.169	359.42
947.538	328.99
947.907	272.82
948.276	326.65
948.645	331.33
949.013	338.35
949.382	319.63
949.751	305.59
950.119	307.93
950.488	272.82
950.857	357.08
951.225	296.22
951.593	303.25
951.962	279.84
952.33	277.5
952.698	282.18
953.066	378.14
953.434	343.03
953.802	340.69
954.17	345.38
954.538	296.22
954.906	272.82
955.274	326.65
955.642	338.35
956.009	331.33
956.377	378.14
956.744	314.95
957.112	317.29
957.479	328.99
957.847	282.18
958.214	366.44
958.581	317.29
958.948	340.69
959.315	343.03
959.683	324.31
960.05	328.99
960.416	298.56
960.783	333.67
961.15	284.52
961.517	298.56
961.884	249.41
962.25	237.71
962.617	298.56
962.983	352.4
963.35	354.74
963.716	331.33
964.082	221.33
964.449	368.78
964.815	331.33
965.181	340.69
965.547	361.76
965.913	312.61
966.279	338.35
966.645	328.99
967.011	277.5
967.377	359.42
967.742	371.12
968.108	361.76
968.474	314.95
968.839	307.93
969.205	352.4
969.57	298.56
969.935	279.84
970.301	336.01
970.666	317.29
971.031	279.84
971.396	284.52
971.761	368.78
972.126	336.01
972.491	312.61
972.856	261.12
973.221	310.27
973.586	282.18
973.95	326.65
974.315	286.86
974.679	293.88
975.044	328.99
975.408	305.59
975.773	331.33
976.137	289.2
976.501	319.63
976.866	343.03
977.23	289.2
977.594	268.14
977.958	298.56
978.322	296.22
978.686	336.01
979.049	261.12
979.413	340.69
979.777	331.33
980.141	251.75
980.504	326.65
980.868	247.07
981.231	263.46
981.595	314.95
981.958	251.75
982.321	303.25
982.684	361.76
983.048	282.18
983.411	354.74
983.774	317.29
984.137	244.73
984.5	284.52
984.862	338.35
985.225	317.29
985.588	284.52
985.951	277.5
986.313	343.03
986.676	343.03
987.038	336.01
987.401	310.27
987.763	331.33
988.125	373.46
988.488	237.71
988.85	307.93
989.212	263.46
989.574	343.03
989.936	340.69
990.298	277.5
990.66	317.29
991.022	291.54
991.383	275.16
991.745	296.22
992.107	289.2
992.468	256.43
992.83	347.72
993.191	357.08
993.553	410.91
993.914	303.25
994.275	352.4
994.637	375.8
994.998	343.03
995.359	293.88
995.72	291.54
996.081	279.84
996.442	305.59
996.803	284.52
997.163	319.63
997.524	235.37
997.885	275.16
998.245	312.61
998.606	230.69
998.966	305.59
999.327	300.91
999.687	324.31
1000.047	319.63
1000.408	326.65
1000.768	331.33
1001.128	310.27
1001.488	312.61
1001.848	277.5
1002.208	359.42
1002.568	272.82
1002.927	319.63
1003.287	282.18
1003.647	307.93
1004.007	305.59
1004.366	347.72
1004.726	343.03
1005.085	319.63
1005.444	368.78
1005.804	289.2
1006.163	305.59
1006.522	293.88
1006.881	291.54
1007.24	305.59
1007.599	307.93
1007.958	321.97
1008.317	291.54
1008.676	319.63
1009.035	307.93
1009.393	312.61
1009.752	291.54
1010.111	333.67
1010.469	352.4
1010.828	378.14
1011.186	343.03
1011.544	357.08
1011.903	284.52
1012.261	307.93
1012.619	343.03
1012.977	265.8
1013.335	361.76
1013.693	296.22
1014.051	247.07
1014.409	345.38
1014.767	300.91
1015.124	373.46
1015.482	312.61
1015.84	314.95
1016.197	312.61
1016.555	347.72
1016.912	312.61
1017.269	333.67
1017.627	307.93
1017.984	333.67
1018.341	328.99
1018.698	324.31
1019.055	289.2
1019.412	359.42
1019.769	354.74
1020.126	324.31
1020.483	284.52
1020.84	242.39
1021.196	333.67
1021.553	279.84
1021.909	345.38
1022.266	286.86
1022.622	209.62
1022.979	293.88
1023.335	312.61
1023.691	359.42
1024.047	321.97
1024.404	305.59
1024.76	300.91
1025.116	347.72
1025.472	366.44
1025.827	226.01
1026.183	293.88
1026.539	314.95
1026.895	333.67
1027.25	324.31
1027.606	305.59
1027.961	361.76
1028.317	307.93
1028.672	289.2
1029.028	354.74
1029.383	368.78
1029.738	336.01
1030.093	307.93
1030.448	331.33
1030.803	303.25
1031.158	263.46
1031.513	354.74
1031.868	307.93
1032.223	328.99
1032.577	305.59
1032.932	343.03
1033.287	312.61
1033.641	289.2
1033.996	343.03
1034.35	321.97
1034.704	312.61
1035.059	366.44
1035.413	336.01
1035.767	336.01
1036.121	336.01
