Data from Al_FLMS009871__1089__16-29-42-605.txt Node

Date: Fri Mar 08 16:29:42 CST 2024
User: pe5414po
Spectrometer: FLMS00987
Trigger mode: 0
Integration Time (sec): 1.000000E-1
Scans to average: 1
Electric dark correction enabled: true
Nonlinearity correction enabled: false
Boxcar width: 0
XAxis mode: Wavelengths
Number of Pixels in Spectrum: 2048
>>>>>Begin Spectral Data<<<<<
188.938	-80.02
189.409	-80.02
189.879	-80.02
190.349	-136.19
190.819	-77.68
191.29	-147.89
191.76	-84.7
192.23	-61.29
192.7	-2.78
193.17	-87.04
193.64	-56.61
194.109	-14.48
194.579	-30.87
195.049	53.39
195.519	-26.18
195.988	37.01
196.458	15.94
196.927	104.89
197.397	100.2
197.866	102.54
198.336	97.86
198.805	147.01
199.274	121.27
199.744	109.57
200.213	214.89
200.682	165.74
201.151	245.32
201.62	266.38
202.089	292.13
202.558	266.38
203.027	292.13
203.495	261.7
203.964	235.96
204.433	313.19
204.902	231.27
205.37	327.24
205.839	261.7
206.307	345.96
206.776	268.72
207.244	268.72
207.712	252.34
208.181	271.06
208.649	364.68
209.117	334.26
209.585	334.26
210.053	322.56
210.521	252.34
210.989	299.15
211.457	301.49
211.925	310.85
212.393	264.04
212.861	280.43
213.328	252.34
213.796	303.83
214.264	336.6
214.731	242.98
215.199	233.61
215.666	294.47
216.133	273.4
216.601	224.25
217.068	299.15
217.535	261.7
218.003	250
218.47	364.68
218.937	252.34
219.404	214.89
219.871	299.15
220.338	264.04
220.805	242.98
221.271	299.15
221.738	214.89
222.205	228.93
222.671	257.02
223.138	350.64
223.605	313.19
224.071	271.06
224.538	259.36
225.004	268.72
225.47	273.4
225.937	273.4
226.403	266.38
226.869	250
227.335	264.04
227.801	294.47
228.267	345.96
228.733	184.46
229.199	362.34
229.665	289.79
230.131	278.08
230.597	266.38
231.062	259.36
231.528	334.26
231.994	313.19
232.459	245.32
232.925	273.4
233.39	264.04
233.856	259.36
234.321	292.13
234.786	294.47
235.252	275.74
235.717	266.38
236.182	310.85
236.647	275.74
237.112	301.49
237.577	268.72
238.042	259.36
238.507	271.06
238.972	235.96
239.436	350.64
239.901	259.36
240.366	334.26
240.83	257.02
241.295	205.53
241.76	306.17
242.224	352.98
242.688	254.68
243.153	264.04
243.617	280.43
244.081	273.4
244.545	324.9
245.01	374.05
245.474	275.74
245.938	289.79
246.402	224.25
246.866	306.17
247.33	252.34
247.793	254.68
248.257	210.21
248.721	191.49
249.185	264.04
249.648	266.38
250.112	317.87
250.575	301.49
251.039	278.08
251.502	308.51
251.965	278.08
252.429	313.19
252.892	303.83
253.355	254.68
253.818	289.79
254.281	306.17
254.744	282.77
255.207	324.9
255.67	261.7
256.133	355.32
256.596	296.81
257.059	285.11
257.522	324.9
257.984	228.93
258.447	247.66
258.909	357.66
259.372	324.9
259.834	334.26
260.297	273.4
260.759	287.45
261.221	266.38
261.684	268.72
262.146	282.77
262.608	322.56
263.07	254.68
263.532	245.32
263.994	245.32
264.456	313.19
264.918	343.62
265.38	327.24
265.842	271.06
266.303	322.56
266.765	306.17
267.227	292.13
267.688	271.06
268.15	247.66
268.611	268.72
269.072	282.77
269.534	294.47
269.995	247.66
270.456	278.08
270.918	315.53
271.379	341.28
271.84	329.58
272.301	254.68
272.762	231.27
273.223	245.32
273.684	306.17
274.144	289.79
274.605	271.06
275.066	338.94
275.527	285.11
275.987	273.4
276.448	285.11
276.908	289.79
277.369	341.28
277.829	338.94
278.289	266.38
278.75	264.04
279.21	257.02
279.67	296.81
280.13	247.66
280.59	264.04
281.05	341.28
281.51	259.36
281.97	264.04
282.43	348.3
282.89	313.19
283.35	315.53
283.809	348.3
284.269	252.34
284.729	313.19
285.188	273.4
285.648	217.23
286.107	322.56
286.567	364.68
287.026	301.49
287.485	280.43
287.944	271.06
288.404	292.13
288.863	299.15
289.322	308.51
289.781	285.11
290.24	327.24
290.699	214.89
291.158	285.11
291.616	331.92
292.075	324.9
292.534	327.24
292.992	313.19
293.451	301.49
293.91	315.53
294.368	320.21
294.827	369.37
295.285	278.08
295.743	322.56
296.202	250
296.66	341.28
297.118	306.17
297.576	310.85
298.034	296.81
298.492	203.19
298.95	231.27
299.408	315.53
299.866	317.87
300.324	287.45
300.781	334.26
301.239	306.17
301.697	329.58
302.154	252.34
302.612	320.21
303.069	315.53
303.527	320.21
303.984	355.32
304.441	280.43
304.899	308.51
305.356	334.26
305.813	327.24
306.27	257.02
306.727	285.11
307.184	257.02
307.641	310.85
308.098	313.19
308.555	278.08
309.012	310.85
309.468	287.45
309.925	289.79
310.382	250
310.838	352.98
311.295	280.43
311.751	264.04
312.208	289.79
312.664	226.59
313.12	376.39
313.577	303.83
314.033	313.19
314.489	271.06
314.945	303.83
315.401	327.24
315.857	324.9
316.313	264.04
316.769	285.11
317.225	320.21
317.681	355.32
318.136	296.81
318.592	331.92
319.048	324.9
319.503	275.74
319.959	308.51
320.414	273.4
320.869	399.79
321.325	306.17
321.78	310.85
322.235	299.15
322.691	388.09
323.146	324.9
323.601	245.32
324.056	299.15
324.511	303.83
324.966	306.17
325.421	310.85
325.875	299.15
326.33	271.06
326.785	254.68
327.24	273.4
327.694	360
328.149	331.92
328.603	327.24
329.058	308.51
329.512	322.56
329.966	357.66
330.421	292.13
330.875	360
331.329	280.43
331.783	259.36
332.237	289.79
332.691	350.64
333.145	273.4
333.599	294.47
334.053	245.32
334.507	285.11
334.96	273.4
335.414	341.28
335.868	320.21
336.321	364.68
336.775	278.08
337.228	322.56
337.682	320.21
338.135	299.15
338.588	303.83
339.042	338.94
339.495	315.53
339.948	285.11
340.401	303.83
340.854	352.98
341.307	275.74
341.76	301.49
342.213	282.77
342.666	301.49
343.119	338.94
343.571	357.66
344.024	317.87
344.477	355.32
344.929	345.96
345.382	327.24
345.834	261.7
346.287	322.56
346.739	275.74
347.191	374.05
347.644	294.47
348.096	271.06
348.548	259.36
349	315.53
349.452	252.34
349.904	287.45
350.356	289.79
350.808	259.36
351.26	352.98
351.711	280.43
352.163	264.04
352.615	280.43
353.066	259.36
353.518	278.08
353.969	285.11
354.421	360
354.872	285.11
355.324	296.81
355.775	231.27
356.226	292.13
356.677	301.49
357.128	306.17
357.579	324.9
358.03	310.85
358.481	327.24
358.932	331.92
359.383	315.53
359.834	287.45
360.285	317.87
360.735	327.24
361.186	315.53
361.637	240.64
362.087	301.49
362.538	327.24
362.988	280.43
363.438	329.58
363.889	273.4
364.339	341.28
364.789	285.11
365.239	341.28
365.689	350.64
366.139	345.96
366.589	348.3
367.039	259.36
367.489	264.04
367.939	324.9
368.389	317.87
368.839	350.64
369.288	235.96
369.738	299.15
370.187	282.77
370.637	289.79
371.086	371.71
371.536	289.79
371.985	313.19
372.434	299.15
372.884	299.15
373.333	231.27
373.782	275.74
374.231	357.66
374.68	261.7
375.129	355.32
375.578	287.45
376.027	301.49
376.475	289.79
376.924	331.92
377.373	313.19
377.822	320.21
378.27	261.7
378.719	327.24
379.167	376.39
379.616	324.9
380.064	261.7
380.512	313.19
380.961	355.32
381.409	285.11
381.857	301.49
382.305	308.51
382.753	296.81
383.201	275.74
383.649	273.4
384.097	303.83
384.545	271.06
384.992	301.49
385.44	264.04
385.888	294.47
386.335	278.08
386.783	313.19
387.231	280.43
387.678	294.47
388.125	301.49
388.573	301.49
389.02	278.08
389.467	345.96
389.914	315.53
390.362	364.68
390.809	345.96
391.256	329.58
391.703	345.96
392.15	315.53
392.596	303.83
393.043	317.87
393.49	331.92
393.937	369.37
394.383	357.66
394.83	409.15
395.276	317.87
395.723	254.68
396.169	320.21
396.616	327.24
397.062	264.04
397.508	285.11
397.954	327.24
398.401	303.83
398.847	303.83
399.293	322.56
399.739	292.13
400.185	327.24
400.631	343.62
401.076	310.85
401.522	287.45
401.968	308.51
402.414	327.24
402.859	334.26
403.305	266.38
403.75	362.34
404.196	341.28
404.641	285.11
405.086	338.94
405.532	278.08
405.977	301.49
406.422	306.17
406.867	315.53
407.312	252.34
407.757	315.53
408.202	336.6
408.647	306.17
409.092	348.3
409.537	327.24
409.982	320.21
410.426	275.74
410.871	287.45
411.316	280.43
411.76	289.79
412.205	313.19
412.649	371.71
413.093	385.75
413.538	355.32
413.982	266.38
414.426	306.17
414.87	310.85
415.314	331.92
415.758	299.15
416.202	357.66
416.646	352.98
417.09	294.47
417.534	315.53
417.978	327.24
418.421	317.87
418.865	282.77
419.309	390.43
419.752	292.13
420.196	327.24
420.639	345.96
421.083	313.19
421.526	301.49
421.969	378.73
422.412	345.96
422.856	341.28
423.299	282.77
423.742	434.9
424.185	376.39
424.628	341.28
425.071	324.9
425.513	327.24
425.956	343.62
426.399	313.19
426.842	338.94
427.284	338.94
427.727	317.87
428.169	301.49
428.612	320.21
429.054	271.06
429.497	303.83
429.939	294.47
430.381	299.15
430.823	317.87
431.265	266.38
431.707	310.85
432.149	329.58
432.591	336.6
433.033	327.24
433.475	301.49
433.917	289.79
434.359	289.79
434.8	303.83
435.242	275.74
435.684	303.83
436.125	350.64
436.567	275.74
437.008	357.66
437.449	348.3
437.891	343.62
438.332	278.08
438.773	381.07
439.214	327.24
439.656	317.87
440.097	296.81
440.538	301.49
440.978	278.08
441.419	266.38
441.86	294.47
442.301	301.49
442.742	257.02
443.182	334.26
443.623	343.62
444.063	306.17
444.504	392.77
444.944	310.85
445.385	320.21
445.825	278.08
446.265	390.43
446.706	317.87
447.146	317.87
447.586	350.64
448.026	301.49
448.466	338.94
448.906	336.6
449.346	299.15
449.786	362.34
450.225	285.11
450.665	345.96
451.105	294.47
451.544	280.43
451.984	348.3
452.424	334.26
452.863	322.56
453.302	367.03
453.742	350.64
454.181	280.43
454.62	254.68
455.059	301.49
455.499	299.15
455.938	273.4
456.377	285.11
456.816	336.6
457.254	266.38
457.693	331.92
458.132	303.83
458.571	320.21
459.01	341.28
459.448	320.21
459.887	338.94
460.325	371.71
460.764	303.83
461.202	310.85
461.641	322.56
462.079	275.74
462.517	301.49
462.955	324.9
463.393	331.92
463.832	357.66
464.27	334.26
464.708	336.6
465.145	315.53
465.583	399.79
466.021	355.32
466.459	278.08
466.897	327.24
467.334	315.53
467.772	329.58
468.209	308.51
468.647	352.98
469.084	289.79
469.522	371.71
469.959	247.66
470.396	327.24
470.833	334.26
471.271	350.64
471.708	259.36
472.145	306.17
472.582	388.09
473.019	399.79
473.456	296.81
473.892	371.71
474.329	348.3
474.766	310.85
475.202	296.81
475.639	371.71
476.076	324.9
476.512	299.15
476.949	289.79
477.385	282.77
477.821	306.17
478.258	278.08
478.694	285.11
479.13	280.43
479.566	313.19
480.002	296.81
480.438	362.34
480.874	352.98
481.31	261.7
481.746	268.72
482.181	352.98
482.617	362.34
483.053	296.81
483.488	238.3
483.924	292.13
484.36	376.39
484.795	278.08
485.23	320.21
485.666	264.04
486.101	308.51
486.536	345.96
486.971	292.13
487.407	336.6
487.842	317.87
488.277	345.96
488.712	271.06
489.146	322.56
489.581	285.11
490.016	280.43
490.451	350.64
490.885	299.15
491.32	296.81
491.755	296.81
492.189	271.06
492.624	334.26
493.058	341.28
493.492	310.85
493.927	310.85
494.361	350.64
494.795	268.72
495.229	306.17
495.663	299.15
496.097	360
496.531	296.81
496.965	287.45
497.399	268.72
497.833	378.73
498.266	306.17
498.7	310.85
499.134	320.21
499.567	334.26
500.001	381.07
500.434	338.94
500.868	327.24
501.301	341.28
501.734	381.07
502.168	278.08
502.601	303.83
503.034	322.56
503.467	282.77
503.9	352.98
504.333	310.85
504.766	338.94
505.199	348.3
505.632	275.74
506.064	371.71
506.497	336.6
506.93	266.38
507.362	331.92
507.795	334.26
508.227	264.04
508.66	299.15
509.092	278.08
509.524	329.58
509.956	334.26
510.389	280.43
510.821	369.37
511.253	338.94
511.685	289.79
512.117	306.17
512.549	350.64
512.981	292.13
513.412	275.74
513.844	317.87
514.276	371.71
514.707	329.58
515.139	299.15
515.571	338.94
516.002	285.11
516.433	296.81
516.865	360
517.296	289.79
517.727	355.32
518.159	292.13
518.59	306.17
519.021	324.9
519.452	364.68
519.883	289.79
520.314	280.43
520.744	301.49
521.175	315.53
521.606	275.74
522.037	336.6
522.467	313.19
522.898	331.92
523.328	320.21
523.759	235.96
524.189	336.6
524.62	306.17
525.05	292.13
525.48	364.68
525.91	308.51
526.341	308.51
526.771	301.49
527.201	336.6
527.631	317.87
528.061	299.15
528.49	327.24
528.92	331.92
529.35	289.79
529.78	280.43
530.209	322.56
530.639	289.79
531.068	329.58
531.498	341.28
531.927	228.93
532.357	343.62
532.786	331.92
533.215	364.68
533.644	329.58
534.074	310.85
534.503	306.17
534.932	287.45
535.361	327.24
535.79	219.57
536.218	322.56
536.647	287.45
537.076	315.53
537.505	303.83
537.933	343.62
538.362	367.03
538.79	362.34
539.219	306.17
539.647	315.53
540.076	315.53
540.504	331.92
540.932	240.64
541.36	273.4
541.788	320.21
542.217	306.17
542.645	282.77
543.073	282.77
543.5	308.51
543.928	280.43
544.356	367.03
544.784	331.92
545.211	247.66
545.639	331.92
546.067	289.79
546.494	303.83
546.922	315.53
547.349	306.17
547.776	226.59
548.204	266.38
548.631	324.9
549.058	301.49
549.485	268.72
549.912	313.19
550.339	343.62
550.766	292.13
551.193	280.43
551.62	315.53
552.047	324.9
552.474	324.9
552.9	299.15
553.327	369.37
553.754	362.34
554.18	301.49
554.607	338.94
555.033	299.15
555.459	310.85
555.886	324.9
556.312	341.28
556.738	336.6
557.164	327.24
557.59	350.64
558.016	296.81
558.442	259.36
558.868	275.74
559.294	247.66
559.72	264.04
560.145	282.77
560.571	310.85
560.997	324.9
561.422	329.58
561.848	327.24
562.273	317.87
562.699	313.19
563.124	324.9
563.549	397.45
563.974	308.51
564.4	327.24
564.825	296.81
565.25	301.49
565.675	348.3
566.1	331.92
566.525	271.06
566.95	296.81
567.374	317.87
567.799	355.32
568.224	306.17
568.648	341.28
569.073	292.13
569.497	336.6
569.922	299.15
570.346	320.21
570.771	259.36
571.195	313.19
571.619	336.6
572.043	327.24
572.467	317.87
572.891	348.3
573.315	348.3
573.739	289.79
574.163	322.56
574.587	369.37
575.011	303.83
575.435	350.64
575.858	275.74
576.282	301.49
576.705	320.21
577.129	315.53
577.552	324.9
577.976	348.3
578.399	322.56
578.822	327.24
579.245	338.94
579.669	296.81
580.092	336.6
580.515	310.85
580.938	303.83
581.361	355.32
581.784	310.85
582.206	322.56
582.629	294.47
583.052	315.53
583.474	355.32
583.897	383.41
584.32	329.58
584.742	259.36
585.165	409.15
585.587	317.87
586.009	374.05
586.431	331.92
586.854	376.39
587.276	306.17
587.698	313.19
588.12	327.24
588.542	287.45
588.964	331.92
589.386	296.81
589.807	240.64
590.229	294.47
590.651	268.72
591.073	306.17
591.494	231.27
591.916	301.49
592.337	348.3
592.759	329.58
593.18	310.85
593.601	282.77
594.022	271.06
594.444	374.05
594.865	322.56
595.286	327.24
595.707	285.11
596.128	350.64
596.549	327.24
596.97	287.45
597.39	285.11
597.811	352.98
598.232	352.98
598.652	261.7
599.073	278.08
599.494	240.64
599.914	306.17
600.334	334.26
600.755	294.47
601.175	310.85
601.595	301.49
602.015	338.94
602.436	306.17
602.856	409.15
603.276	275.74
603.696	378.73
604.115	299.15
604.535	362.34
604.955	282.77
605.375	259.36
605.794	287.45
606.214	275.74
606.634	287.45
607.053	299.15
607.473	343.62
607.892	338.94
608.311	334.26
608.731	343.62
609.15	327.24
609.569	381.07
609.988	294.47
610.407	320.21
610.826	282.77
611.245	355.32
611.664	320.21
612.083	357.66
612.501	336.6
612.92	322.56
613.339	355.32
613.757	369.37
614.176	336.6
614.594	327.24
615.013	352.98
615.431	289.79
615.85	203.19
616.268	289.79
616.686	257.02
617.104	338.94
617.522	308.51
617.94	306.17
618.358	313.19
618.776	231.27
619.194	294.47
619.612	322.56
620.03	320.21
620.447	357.66
620.865	306.17
621.282	278.08
621.7	334.26
622.117	345.96
622.535	275.74
622.952	310.85
623.369	310.85
623.787	315.53
624.204	322.56
624.621	268.72
625.038	317.87
625.455	224.25
625.872	338.94
626.289	376.39
626.706	352.98
627.123	322.56
627.539	327.24
627.956	317.87
628.373	294.47
628.789	315.53
629.206	357.66
629.622	308.51
630.038	313.19
630.455	329.58
630.871	292.13
631.287	345.96
631.703	341.28
632.12	292.13
632.536	331.92
632.952	331.92
633.368	364.68
633.783	320.21
634.199	308.51
634.615	320.21
635.031	367.03
635.446	294.47
635.862	336.6
636.277	336.6
636.693	341.28
637.108	364.68
637.524	306.17
637.939	327.24
638.354	294.47
638.77	301.49
639.185	331.92
639.6	287.45
640.015	360
640.43	357.66
640.845	317.87
641.259	306.17
641.674	245.32
642.089	306.17
642.504	294.47
642.918	271.06
643.333	282.77
643.747	303.83
644.162	352.98
644.576	310.85
644.991	360
645.405	350.64
645.819	362.34
646.233	296.81
646.647	289.79
647.061	320.21
647.475	292.13
647.889	264.04
648.303	282.77
648.717	266.38
649.131	345.96
649.545	252.34
649.958	280.43
650.372	285.11
650.785	343.62
651.199	345.96
651.612	313.19
652.026	331.92
652.439	329.58
652.852	240.64
653.266	271.06
653.679	278.08
654.092	315.53
654.505	369.37
654.918	301.49
655.331	378.73
655.744	301.49
656.156	282.77
656.569	367.03
656.982	294.47
657.394	324.9
657.807	336.6
658.22	369.37
658.632	331.92
659.044	348.3
659.457	329.58
659.869	355.32
660.281	362.34
660.693	287.45
661.106	341.28
661.518	266.38
661.93	341.28
662.342	367.03
662.754	329.58
663.165	306.17
663.577	292.13
663.989	329.58
664.401	303.83
664.812	308.51
665.224	352.98
665.635	355.32
666.047	364.68
666.458	348.3
666.869	313.19
667.281	259.36
667.692	341.28
668.103	303.83
668.514	271.06
668.925	348.3
669.336	292.13
669.747	338.94
670.158	367.03
670.569	313.19
670.979	303.83
671.39	355.32
671.801	336.6
672.211	378.73
672.622	306.17
673.032	324.9
673.443	331.92
673.853	341.28
674.263	301.49
674.674	301.49
675.084	287.45
675.494	376.39
675.904	348.3
676.314	308.51
676.724	308.51
677.134	287.45
677.544	327.24
677.953	355.32
678.363	252.34
678.773	341.28
679.182	306.17
679.592	308.51
680.001	317.87
680.411	303.83
680.82	310.85
681.23	306.17
681.639	336.6
682.048	345.96
682.457	306.17
682.866	360
683.275	320.21
683.684	345.96
684.093	341.28
684.502	315.53
684.911	334.26
685.32	374.05
685.728	275.74
686.137	320.21
686.546	390.43
686.954	315.53
687.363	317.87
687.771	310.85
688.179	317.87
688.588	390.43
688.996	329.58
689.404	285.11
689.812	294.47
690.22	355.32
690.628	348.3
691.036	341.28
691.444	324.9
691.852	320.21
692.26	275.74
692.667	289.79
693.075	268.72
693.483	310.85
693.89	289.79
694.298	320.21
694.705	378.73
695.112	329.58
695.52	345.96
695.927	294.47
696.334	275.74
696.741	264.04
697.148	308.51
697.555	299.15
697.962	352.98
698.369	310.85
698.776	247.66
699.183	294.47
699.59	299.15
699.996	250
700.403	308.51
700.81	259.36
701.216	324.9
701.623	261.7
702.029	376.39
702.435	317.87
702.842	352.98
703.248	329.58
703.654	327.24
704.06	313.19
704.466	294.47
704.872	362.34
705.278	327.24
705.684	303.83
706.09	338.94
706.496	329.58
706.901	292.13
707.307	313.19
707.712	264.04
708.118	369.37
708.523	303.83
708.929	313.19
709.334	301.49
709.74	317.87
710.145	324.9
710.55	399.79
710.955	348.3
711.36	280.43
711.765	299.15
712.17	381.07
712.575	324.9
712.98	931.09
713.385	252.34
713.789	280.43
714.194	264.04
714.599	334.26
715.003	348.3
715.408	257.02
715.812	271.06
716.217	355.32
716.621	362.34
717.025	299.15
717.429	334.26
717.833	327.24
718.238	308.51
718.642	292.13
719.046	285.11
719.449	301.49
719.853	303.83
720.257	317.87
720.661	299.15
721.065	320.21
721.468	336.6
721.872	320.21
722.275	289.79
722.679	308.51
723.082	289.79
723.485	327.24
723.889	257.02
724.292	355.32
724.695	299.15
725.098	341.28
725.501	285.11
725.904	371.71
726.307	317.87
726.71	317.87
727.113	334.26
727.516	310.85
727.918	310.85
728.321	313.19
728.724	308.51
729.126	301.49
729.529	360
729.931	336.6
730.333	306.17
730.736	285.11
731.138	322.56
731.54	287.45
731.942	294.47
732.344	306.17
732.746	348.3
733.148	315.53
733.55	306.17
733.952	306.17
734.354	329.58
734.756	374.05
735.157	282.77
735.559	320.21
735.96	409.15
736.362	285.11
736.763	285.11
737.165	257.02
737.566	313.19
737.967	287.45
738.368	381.07
738.77	287.45
739.171	357.66
739.572	324.9
739.973	310.85
740.374	296.81
740.774	212.55
741.175	397.45
741.576	338.94
741.977	303.83
742.377	324.9
742.778	395.11
743.178	367.03
743.579	308.51
743.979	301.49
744.379	231.27
744.78	336.6
745.18	280.43
745.58	327.24
745.98	331.92
746.38	296.81
746.78	275.74
747.18	322.56
747.58	275.74
747.98	310.85
748.38	287.45
748.779	348.3
749.179	273.4
749.578	287.45
749.978	327.24
750.377	310.85
750.777	331.92
751.176	200.85
751.575	306.17
751.975	271.06
752.374	299.15
752.773	278.08
753.172	338.94
753.571	306.17
753.97	322.56
754.369	299.15
754.768	310.85
755.166	299.15
755.565	264.04
755.964	324.9
756.362	331.92
756.761	308.51
757.159	322.56
757.558	336.6
757.956	268.72
758.354	315.53
758.753	322.56
759.151	296.81
759.549	294.47
759.947	310.85
760.345	310.85
760.743	301.49
761.141	301.49
761.539	259.36
761.936	257.02
762.334	308.51
762.732	238.3
763.129	322.56
763.527	310.85
763.924	338.94
764.322	360
764.719	310.85
765.117	329.58
765.514	285.11
765.911	266.38
766.308	357.66
766.705	242.98
767.102	294.47
767.499	264.04
767.896	259.36
768.293	303.83
768.69	345.96
769.086	329.58
769.483	317.87
769.88	343.62
770.276	348.3
770.673	299.15
771.069	322.56
771.466	322.56
771.862	334.26
772.258	294.47
772.654	336.6
773.05	306.17
773.447	296.81
773.843	259.36
774.239	324.9
774.634	280.43
775.03	371.71
775.426	264.04
775.822	287.45
776.218	306.17
776.613	336.6
777.009	381.07
777.404	266.38
777.8	301.49
778.195	292.13
778.59	336.6
778.986	324.9
779.381	306.17
779.776	303.83
780.171	345.96
780.566	299.15
780.961	324.9
781.356	301.49
781.751	324.9
782.146	322.56
782.54	261.7
782.935	296.81
783.33	299.15
783.724	278.08
784.119	320.21
784.513	327.24
784.908	352.98
785.302	294.47
785.696	334.26
786.09	266.38
786.485	303.83
786.879	367.03
787.273	245.32
787.667	348.3
788.061	301.49
788.454	357.66
788.848	271.06
789.242	261.7
789.636	285.11
790.029	360
790.423	289.79
790.816	247.66
791.21	360
791.603	343.62
791.997	348.3
792.39	308.51
792.783	282.77
793.176	352.98
793.569	324.9
793.962	289.79
794.355	280.43
794.748	313.19
795.141	296.81
795.534	282.77
795.927	261.7
796.319	289.79
796.712	352.98
797.105	324.9
797.497	331.92
797.89	275.74
798.282	299.15
798.674	310.85
799.067	296.81
799.459	296.81
799.851	315.53
800.243	345.96
800.635	327.24
801.027	338.94
801.419	357.66
801.811	310.85
802.203	336.6
802.594	303.83
802.986	317.87
803.378	266.38
803.769	345.96
804.161	275.74
804.552	338.94
804.944	317.87
805.335	338.94
805.726	289.79
806.118	292.13
806.509	294.47
806.9	252.34
807.291	327.24
807.682	369.37
808.073	299.15
808.464	254.68
808.855	308.51
809.245	289.79
809.636	310.85
810.027	331.92
810.417	257.02
810.808	275.74
811.198	355.32
811.589	294.47
811.979	282.77
812.369	357.66
812.759	273.4
813.15	299.15
813.54	306.17
813.93	317.87
814.32	285.11
814.71	350.64
815.1	327.24
815.489	381.07
815.879	303.83
816.269	287.45
816.658	278.08
817.048	238.3
817.438	310.85
817.827	278.08
818.216	221.91
818.606	338.94
818.995	245.32
819.384	308.51
819.773	320.21
820.163	334.26
820.552	336.6
820.941	303.83
821.33	289.79
821.718	294.47
822.107	264.04
822.496	341.28
822.885	320.21
823.273	331.92
823.662	306.17
824.05	322.56
824.439	287.45
824.827	299.15
825.216	278.08
825.604	315.53
825.992	301.49
826.38	306.17
826.768	313.19
827.156	268.72
827.544	301.49
827.932	336.6
828.32	306.17
828.708	329.58
829.096	278.08
829.483	327.24
829.871	233.61
830.259	292.13
830.646	411.5
831.034	282.77
831.421	336.6
831.808	317.87
832.196	275.74
832.583	196.17
832.97	369.37
833.357	345.96
833.744	228.93
834.131	324.9
834.518	369.37
834.905	324.9
835.292	313.19
835.678	348.3
836.065	301.49
836.452	301.49
836.838	315.53
837.225	324.9
837.611	345.96
837.998	308.51
838.384	331.92
838.77	376.39
839.157	362.34
839.543	266.38
839.929	331.92
840.315	306.17
840.701	327.24
841.087	352.98
841.473	404.47
841.858	320.21
842.244	264.04
842.63	350.64
843.015	301.49
843.401	650.23
843.787	331.92
844.172	336.6
844.557	329.58
844.943	374.05
845.328	376.39
845.713	282.77
846.098	378.73
846.483	336.6
846.868	285.11
847.253	285.11
847.638	289.79
848.023	381.07
848.408	308.51
848.793	324.9
849.177	329.58
849.562	313.19
849.947	264.04
850.331	350.64
850.715	301.49
851.1	299.15
851.484	324.9
851.868	233.61
852.253	287.45
852.637	285.11
853.021	345.96
853.405	320.21
853.789	322.56
854.173	212.55
854.557	329.58
854.94	360
855.324	336.6
855.708	268.72
856.091	240.64
856.475	285.11
856.858	310.85
857.242	345.96
857.625	320.21
858.009	329.58
858.392	282.77
858.775	327.24
859.158	345.96
859.541	322.56
859.924	294.47
860.307	303.83
860.69	327.24
861.073	294.47
861.456	334.26
861.838	338.94
862.221	324.9
862.604	261.7
862.986	287.45
863.369	287.45
863.751	308.51
864.133	329.58
864.516	285.11
864.898	348.3
865.28	338.94
865.662	271.06
866.044	299.15
866.426	306.17
866.808	341.28
867.19	285.11
867.572	285.11
867.954	299.15
868.336	301.49
868.717	310.85
869.099	292.13
869.48	287.45
869.862	285.11
870.243	303.83
870.625	360
871.006	280.43
871.387	245.32
871.768	409.15
872.149	334.26
872.53	273.4
872.911	247.66
873.292	341.28
873.673	268.72
874.054	264.04
874.435	294.47
874.815	292.13
875.196	329.58
875.577	301.49
875.957	266.38
876.338	329.58
876.718	261.7
877.098	289.79
877.479	331.92
877.859	357.66
878.239	299.15
878.619	392.77
878.999	294.47
879.379	264.04
879.759	261.7
880.139	285.11
880.519	308.51
880.898	287.45
881.278	313.19
881.658	322.56
882.037	310.85
882.417	289.79
882.796	306.17
883.176	301.49
883.555	334.26
883.934	280.43
884.313	280.43
884.693	287.45
885.072	313.19
885.451	357.66
885.83	280.43
886.209	303.83
886.587	362.34
886.966	301.49
887.345	327.24
887.724	285.11
888.102	315.53
888.481	362.34
888.859	331.92
889.238	261.7
889.616	343.62
889.994	254.68
890.373	273.4
890.751	310.85
891.129	294.47
891.507	324.9
891.885	336.6
892.263	308.51
892.641	266.38
893.019	259.36
893.396	282.77
893.774	313.19
894.152	271.06
894.529	315.53
894.907	273.4
895.284	331.92
895.662	338.94
896.039	257.02
896.416	301.49
896.794	327.24
897.171	278.08
897.548	355.32
897.925	306.17
898.302	299.15
898.679	350.64
899.056	320.21
899.433	271.06
899.809	338.94
900.186	360
900.563	292.13
900.939	275.74
901.316	345.96
901.692	369.37
902.069	287.45
902.445	299.15
902.821	310.85
903.197	336.6
903.574	395.11
903.95	282.77
904.326	289.79
904.702	308.51
905.078	313.19
905.454	303.83
905.829	294.47
906.205	289.79
906.581	289.79
906.956	310.85
907.332	235.96
907.707	306.17
908.083	317.87
908.458	299.15
908.833	303.83
909.209	308.51
909.584	292.13
909.959	299.15
910.334	303.83
910.709	334.26
911.084	289.79
911.459	224.25
911.834	313.19
912.209	334.26
912.583	315.53
912.958	219.57
913.333	261.7
913.707	385.75
914.082	292.13
914.456	292.13
914.83	320.21
915.205	289.79
915.579	275.74
915.953	289.79
916.327	294.47
916.701	313.19
917.075	369.37
917.449	324.9
917.823	285.11
918.197	282.77
918.571	310.85
918.944	282.77
919.318	296.81
919.692	320.21
920.065	294.47
920.438	364.68
920.812	299.15
921.185	324.9
921.558	289.79
921.932	292.13
922.305	317.87
922.678	313.19
923.051	343.62
923.424	360
923.797	280.43
924.17	360
924.542	320.21
924.915	343.62
925.288	301.49
925.661	285.11
926.033	306.17
926.406	289.79
926.778	376.39
927.15	271.06
927.523	310.85
927.895	409.15
928.267	383.41
928.639	280.43
929.011	294.47
929.383	294.47
929.755	278.08
930.127	341.28
930.499	327.24
930.871	367.03
931.242	310.85
931.614	273.4
931.986	329.58
932.357	313.19
932.729	327.24
933.1	289.79
933.471	299.15
933.843	299.15
934.214	268.72
934.585	360
934.956	327.24
935.327	271.06
935.698	341.28
936.069	292.13
936.44	268.72
936.811	331.92
937.182	294.47
937.552	329.58
937.923	252.34
938.293	334.26
938.664	282.77
939.034	320.21
939.405	299.15
939.775	331.92
940.145	296.81
940.516	355.32
940.886	303.83
941.256	313.19
941.626	292.13
941.996	296.81
942.366	289.79
942.735	395.11
943.105	287.45
943.475	280.43
943.845	306.17
944.214	247.66
944.584	336.6
944.953	324.9
945.323	317.87
945.692	273.4
946.061	329.58
946.43	369.37
946.8	296.81
947.169	322.56
947.538	317.87
947.907	317.87
948.276	348.3
948.645	296.81
949.013	324.9
949.382	247.66
949.751	378.73
950.119	266.38
950.488	310.85
950.857	240.64
951.225	306.17
951.593	381.07
951.962	310.85
952.33	341.28
952.698	315.53
953.066	231.27
953.434	329.58
953.802	313.19
954.17	310.85
954.538	282.77
954.906	282.77
955.274	345.96
955.642	310.85
956.009	289.79
956.377	364.68
956.744	299.15
957.112	336.6
957.479	289.79
957.847	294.47
958.214	331.92
958.581	336.6
958.948	238.3
959.315	341.28
959.683	273.4
960.05	320.21
960.416	350.64
960.783	268.72
961.15	301.49
961.517	364.68
961.884	331.92
962.25	301.49
962.617	278.08
962.983	299.15
963.35	294.47
963.716	352.98
964.082	331.92
964.449	324.9
964.815	247.66
965.181	268.72
965.547	343.62
965.913	301.49
966.279	301.49
966.645	296.81
967.011	324.9
967.377	306.17
967.742	322.56
968.108	308.51
968.474	259.36
968.839	320.21
969.205	240.64
969.57	301.49
969.935	275.74
970.301	306.17
970.666	289.79
971.031	273.4
971.396	336.6
971.761	343.62
972.126	282.77
972.491	331.92
972.856	322.56
973.221	360
973.586	287.45
973.95	327.24
974.315	357.66
974.679	306.17
975.044	264.04
975.408	301.49
975.773	294.47
976.137	261.7
976.501	250
976.866	299.15
977.23	364.68
977.594	254.68
977.958	308.51
978.322	324.9
978.686	341.28
979.049	308.51
979.413	317.87
979.777	336.6
980.141	334.26
980.504	310.85
980.868	322.56
981.231	345.96
981.595	303.83
981.958	376.39
982.321	336.6
982.684	259.36
983.048	322.56
983.411	268.72
983.774	303.83
984.137	294.47
984.5	329.58
984.862	310.85
985.225	306.17
985.588	320.21
985.951	259.36
986.313	308.51
986.676	336.6
987.038	306.17
987.401	317.87
987.763	310.85
988.125	327.24
988.488	313.19
988.85	320.21
989.212	308.51
989.574	271.06
989.936	289.79
990.298	324.9
990.66	341.28
991.022	299.15
991.383	345.96
991.745	285.11
992.107	315.53
992.468	273.4
992.83	299.15
993.191	303.83
993.553	306.17
993.914	310.85
994.275	271.06
994.637	331.92
994.998	343.62
995.359	287.45
995.72	341.28
996.081	336.6
996.442	301.49
996.803	315.53
997.163	324.9
997.524	320.21
997.885	322.56
998.245	186.8
998.606	357.66
998.966	296.81
999.327	327.24
999.687	315.53
1000.047	299.15
1000.408	331.92
1000.768	282.77
1001.128	219.57
1001.488	329.58
1001.848	303.83
1002.208	348.3
1002.568	257.02
1002.927	338.94
1003.287	327.24
1003.647	343.62
1004.007	308.51
1004.366	292.13
1004.726	322.56
1005.085	271.06
1005.444	278.08
1005.804	322.56
1006.163	271.06
1006.522	315.53
1006.881	322.56
1007.24	306.17
1007.599	292.13
1007.958	252.34
1008.317	264.04
1008.676	273.4
1009.035	320.21
1009.393	317.87
1009.752	299.15
1010.111	327.24
1010.469	299.15
1010.828	299.15
1011.186	238.3
1011.544	341.28
1011.903	341.28
1012.261	303.83
1012.619	294.47
1012.977	334.26
1013.335	348.3
1013.693	250
1014.051	352.98
1014.409	287.45
1014.767	315.53
1015.124	383.41
1015.482	320.21
1015.84	329.58
1016.197	338.94
1016.555	278.08
1016.912	257.02
1017.269	294.47
1017.627	294.47
1017.984	322.56
1018.341	268.72
1018.698	259.36
1019.055	254.68
1019.412	254.68
1019.769	301.49
1020.126	352.98
1020.483	278.08
1020.84	313.19
1021.196	280.43
1021.553	397.45
1021.909	268.72
1022.266	273.4
1022.622	296.81
1022.979	345.96
1023.335	264.04
1023.691	329.58
1024.047	285.11
1024.404	292.13
1024.76	299.15
1025.116	355.32
1025.472	247.66
1025.827	268.72
1026.183	285.11
1026.539	275.74
1026.895	299.15
1027.25	282.77
1027.606	282.77
1027.961	301.49
1028.317	320.21
1028.672	345.96
1029.028	271.06
1029.383	331.92
1029.738	303.83
1030.093	266.38
1030.448	294.47
1030.803	364.68
1031.158	240.64
1031.513	273.4
1031.868	292.13
1032.223	306.17
1032.577	275.74
1032.932	320.21
1033.287	336.6
1033.641	364.68
1033.996	292.13
1034.35	334.26
1034.704	308.51
1035.059	308.51
1035.413	327.24
1035.767	327.24
1036.121	327.24
