Data from Al_FLMS009871__1088__16-29-42-505.txt Node

Date: Fri Mar 08 16:29:42 CST 2024
User: pe5414po
Spectrometer: FLMS00987
Trigger mode: 0
Integration Time (sec): 1.000000E-1
Scans to average: 1
Electric dark correction enabled: true
Nonlinearity correction enabled: false
Boxcar width: 0
XAxis mode: Wavelengths
Number of Pixels in Spectrum: 2048
>>>>>Begin Spectral Data<<<<<
188.938	-87.62
189.409	-87.62
189.879	-87.62
190.349	-125.07
190.819	-87.62
191.29	-94.65
191.76	-125.07
192.23	-87.62
192.7	-99.33
193.17	-66.56
193.64	-24.43
194.109	-29.11
194.579	-15.07
195.049	20.04
195.519	45.79
195.988	29.4
196.458	55.15
196.927	57.49
197.397	48.13
197.866	148.77
198.336	137.07
198.805	153.45
199.274	211.96
199.744	211.96
200.213	176.86
200.682	289.2
201.151	385.16
201.62	340.69
202.089	317.29
202.558	382.82
203.027	387.5
203.495	408.57
203.964	375.8
204.433	350.06
204.902	443.68
205.37	436.66
205.839	401.55
206.307	408.57
206.776	469.42
207.244	478.79
207.712	448.36
208.181	457.72
208.649	556.02
209.117	520.92
209.585	483.47
210.053	673.05
210.521	687.09
210.989	605.17
211.457	640.28
211.925	752.63
212.393	794.76
212.861	872
213.328	757.31
213.796	614.54
214.264	600.49
214.731	551.34
215.199	609.86
215.666	556.02
216.133	668.37
216.601	769.01
217.068	790.08
217.535	1012.43
218.003	1017.11
218.47	1274.57
218.937	1260.52
219.404	951.57
219.871	1035.83
220.338	1117.75
220.805	1106.05
221.271	982
221.738	790.08
222.205	832.21
222.671	801.78
223.138	857.95
223.605	1136.48
224.071	1054.56
224.538	953.91
225.004	757.31
225.47	949.23
225.937	1120.09
226.403	1220.74
226.869	1010.09
227.335	794.76
227.801	726.88
228.267	621.56
228.733	670.71
229.199	612.2
229.665	560.7
230.131	574.75
230.597	684.75
231.062	593.47
231.528	567.73
231.994	635.6
232.459	506.87
232.925	549
233.39	563.05
233.856	574.75
234.321	588.79
234.786	726.88
235.252	1005.41
235.717	1649.05
236.182	2337.17
236.647	2503.35
237.112	2128.86
237.577	1410.32
238.042	928.17
238.507	724.54
238.972	633.26
239.436	712.84
239.901	612.2
240.366	637.94
240.83	623.9
241.295	621.56
241.76	609.86
242.224	609.86
242.688	511.55
243.153	598.15
243.617	600.49
244.081	502.19
244.545	483.47
245.01	556.02
245.474	485.81
245.938	544.32
246.402	616.88
246.866	794.76
247.33	754.97
247.793	682.41
248.257	577.09
248.721	513.89
249.185	551.34
249.648	579.43
250.112	598.15
250.575	705.82
251.039	771.35
251.502	850.93
251.965	691.77
252.429	724.54
252.892	675.39
253.355	722.2
253.818	598.15
254.281	644.96
254.744	623.9
255.207	680.07
255.67	1017.11
256.133	1436.06
256.596	2035.24
257.059	2068.01
257.522	1810.55
257.984	1253.5
258.447	1045.2
258.909	1007.75
259.372	1066.26
259.834	1007.75
260.297	1010.09
260.759	902.42
261.221	808.8
261.684	1047.54
262.146	1501.6
262.608	1824.59
263.07	1705.23
263.532	1218.4
263.994	930.51
264.456	937.53
264.918	967.96
265.38	1110.73
265.842	1007.75
266.303	797.1
266.765	609.86
267.227	549
267.688	513.89
268.15	556.02
268.611	567.73
269.072	619.22
269.534	635.6
269.995	588.79
270.456	633.26
270.918	621.56
271.379	544.32
271.84	504.53
272.301	532.62
272.762	509.21
273.223	572.41
273.684	520.92
274.144	612.2
274.605	701.14
275.066	717.52
275.527	666.03
275.987	724.54
276.448	661.35
276.908	752.63
277.369	925.83
277.829	1321.38
278.289	2636.76
278.75	4764.31
279.21	6508.01
279.67	6575.88
280.13	4958.57
280.59	3467.65
281.05	2905.92
281.51	2585.27
281.97	1635.01
282.43	808.8
282.89	726.88
283.35	600.49
283.809	642.62
284.269	691.77
284.729	928.17
285.188	953.91
285.648	820.5
286.107	584.11
286.567	579.43
287.026	586.45
287.485	677.73
287.944	696.46
288.404	684.75
288.863	644.96
289.322	644.96
289.781	656.67
290.24	614.54
290.699	605.17
291.158	663.69
291.616	640.28
292.075	656.67
292.534	794.76
292.992	855.61
293.451	902.42
293.91	909.44
294.368	783.06
294.827	691.77
295.285	520.92
295.743	464.74
296.202	511.55
296.66	485.81
297.118	570.07
297.576	485.81
298.034	453.04
298.492	462.4
298.95	481.13
299.408	471.76
299.866	523.26
300.324	464.74
300.781	474.1
301.239	506.87
301.697	525.6
302.154	453.04
302.612	541.98
303.069	551.34
303.527	520.92
303.984	581.77
304.441	619.22
304.899	799.44
305.356	836.89
305.813	869.66
306.27	960.94
306.727	1138.82
307.184	1766.08
307.641	3011.25
308.098	4525.57
308.555	5855
309.012	6098.41
309.468	5054.53
309.925	2625.06
310.382	1096.69
310.838	666.03
311.295	563.05
311.751	574.75
312.208	544.32
312.664	497.51
313.12	516.23
313.577	544.32
314.033	497.51
314.489	469.42
314.945	563.05
315.401	605.17
315.857	609.86
316.313	534.96
316.769	497.51
317.225	455.38
317.681	467.08
318.136	431.98
318.592	478.79
319.048	497.51
319.503	499.85
319.959	439
320.414	436.66
320.869	469.42
321.325	389.85
321.78	389.85
322.235	448.36
322.691	401.55
323.146	464.74
323.601	504.53
324.056	654.33
324.511	897.74
324.966	972.64
325.421	761.99
325.875	551.34
326.33	588.79
326.785	696.46
327.24	967.96
327.694	946.89
328.149	804.12
328.603	584.11
329.058	534.96
329.512	474.1
329.966	431.98
330.421	453.04
330.875	464.74
331.329	474.1
331.783	467.08
332.237	488.15
332.691	558.36
333.145	579.43
333.599	485.81
334.053	579.43
334.507	577.09
334.96	607.52
335.414	640.28
335.868	635.6
336.321	766.67
336.775	729.22
337.228	696.46
337.682	694.12
338.135	593.47
338.588	588.79
339.042	532.62
339.495	483.47
339.948	520.92
340.401	530.28
340.854	626.24
341.307	612.2
341.76	574.75
342.213	499.85
342.666	420.27
343.119	541.98
343.571	581.77
344.024	651.99
344.477	605.17
344.929	626.24
345.382	584.11
345.834	623.9
346.287	635.6
346.739	565.39
347.191	612.2
347.644	525.6
348.096	565.39
348.548	621.56
349	534.96
349.452	581.77
349.904	595.81
350.356	661.35
350.808	642.62
351.26	684.75
351.711	628.58
352.163	649.64
352.615	640.28
353.066	612.2
353.518	623.9
353.969	633.26
354.421	595.81
354.872	497.51
355.324	591.13
355.775	551.34
356.226	654.33
356.677	776.03
357.128	1087.33
357.579	1546.07
358.03	2451.86
358.481	3912.35
358.932	4333.65
359.383	3413.82
359.834	2603.99
360.285	2793.58
360.735	2484.62
361.186	1960.34
361.637	1520.32
362.087	956.26
362.538	698.8
362.988	539.64
363.438	600.49
363.889	563.05
364.339	591.13
364.789	593.47
365.239	565.39
365.689	558.36
366.139	497.51
366.589	506.87
367.039	506.87
367.489	478.79
367.939	551.34
368.389	628.58
368.839	572.41
369.288	623.9
369.738	581.77
370.187	761.99
370.637	769.01
371.086	867.31
371.536	944.55
371.985	801.78
372.434	703.48
372.884	478.79
373.333	551.34
373.782	527.94
374.231	518.57
374.68	549
375.129	539.64
375.578	593.47
376.027	511.55
376.475	464.74
376.924	518.57
377.373	420.27
377.822	497.51
378.27	467.08
378.719	485.81
379.167	474.1
379.616	504.53
380.064	558.36
380.512	602.83
380.961	499.85
381.409	527.94
381.857	574.75
382.305	593.47
382.753	731.56
383.201	754.97
383.649	923.49
384.097	886.04
384.545	867.31
384.992	666.03
385.44	654.33
385.888	654.33
386.335	598.15
386.783	626.24
387.231	614.54
387.678	621.56
388.125	584.11
388.573	532.62
389.02	527.94
389.467	607.52
389.914	586.45
390.362	581.77
390.809	612.2
391.256	581.77
391.703	673.05
392.15	644.96
392.596	764.33
393.043	1077.96
393.49	1723.95
393.937	2812.3
394.383	4343.01
394.83	5096.66
395.276	3900.65
395.723	4022.36
396.169	5908.83
396.616	6393.32
397.062	4106.62
397.508	1688.84
397.954	893.06
398.401	642.62
398.847	644.96
399.293	696.46
399.739	708.16
400.185	708.16
400.631	537.3
401.076	537.3
401.522	591.13
401.968	546.66
402.414	574.75
402.859	619.22
403.305	740.93
403.75	778.37
404.196	731.56
404.641	698.8
405.086	666.03
405.532	745.61
405.977	867.31
406.422	811.14
406.867	682.41
407.312	623.9
407.757	668.37
408.202	588.79
408.647	621.56
409.092	616.88
409.537	588.79
409.982	586.45
410.426	682.41
410.871	628.58
411.316	556.02
411.76	644.96
412.205	663.69
412.649	673.05
413.093	661.35
413.538	661.35
413.982	719.86
414.426	752.63
414.87	785.4
415.314	902.42
415.758	907.1
416.202	864.97
416.646	820.5
417.09	804.12
417.534	740.93
417.978	710.5
418.421	703.48
418.865	546.66
419.309	588.79
419.752	591.13
420.196	588.79
420.639	563.05
421.083	497.51
421.526	513.89
421.969	563.05
422.412	556.02
422.856	642.62
423.299	567.73
423.742	570.07
424.185	553.68
424.628	586.45
425.071	490.49
425.513	556.02
425.956	490.49
426.399	497.51
426.842	504.53
427.284	539.64
427.727	530.28
428.169	563.05
428.612	436.66
429.054	495.17
429.497	504.53
429.939	490.49
430.381	422.61
430.823	467.08
431.265	467.08
431.707	476.45
432.149	474.1
432.591	483.47
433.033	490.49
433.475	499.85
433.917	471.76
434.359	616.88
434.8	537.3
435.242	539.64
435.684	619.22
436.125	530.28
436.567	537.3
437.008	544.32
437.449	546.66
437.891	488.15
438.332	485.81
438.773	549
439.214	478.79
439.656	544.32
440.097	516.23
440.538	523.26
440.978	471.76
441.419	431.98
441.86	520.92
442.301	502.19
442.742	602.83
443.182	666.03
443.623	581.77
444.063	630.92
444.504	598.15
444.944	637.94
445.385	703.48
445.825	731.56
446.265	778.37
446.706	869.66
447.146	1106.05
447.586	1213.71
448.026	1480.54
448.466	1564.79
448.906	1337.76
449.346	1106.05
449.786	883.7
450.225	974.98
450.665	1035.83
451.105	1047.54
451.544	1400.96
451.984	1546.07
452.424	1382.23
452.863	1520.32
453.302	1932.26
453.742	1890.13
454.181	1415
454.62	1010.09
455.059	698.8
455.499	628.58
455.938	616.88
456.377	572.41
456.816	523.26
457.254	574.75
457.693	488.15
458.132	485.81
458.571	446.02
459.01	495.17
459.448	474.1
459.887	497.51
460.325	518.57
460.764	518.57
461.202	565.39
461.641	556.02
462.079	474.1
462.517	553.68
462.955	567.73
463.393	558.36
463.832	577.09
464.27	612.2
464.708	595.81
465.145	654.33
465.583	635.6
466.021	687.09
466.459	787.74
466.897	930.51
467.334	841.57
467.772	626.24
468.209	534.96
468.647	525.6
469.084	502.19
469.522	546.66
469.959	546.66
470.396	534.96
470.833	567.73
471.271	532.62
471.708	450.7
472.145	520.92
472.582	497.51
473.019	504.53
473.456	546.66
473.892	553.68
474.329	485.81
474.766	474.1
475.202	490.49
475.639	469.42
476.076	478.79
476.512	471.76
476.949	518.57
477.385	441.34
477.821	483.47
478.258	534.96
478.694	464.74
479.13	483.47
479.566	539.64
480.002	518.57
480.438	516.23
480.874	509.21
481.31	523.26
481.746	513.89
482.181	534.96
482.617	525.6
483.053	478.79
483.488	504.53
483.924	467.08
484.36	544.32
484.795	558.36
485.23	609.86
485.666	696.46
486.101	710.5
486.536	754.97
486.971	785.4
487.407	731.56
487.842	689.43
488.277	621.56
488.712	579.43
489.146	593.47
489.581	581.77
490.016	574.75
490.451	544.32
490.885	574.75
491.32	497.51
491.755	502.19
492.189	469.42
492.624	553.68
493.058	478.79
493.492	516.23
493.927	588.79
494.361	558.36
494.795	525.6
495.229	520.92
495.663	464.74
496.097	471.76
496.531	518.57
496.965	441.34
497.399	541.98
497.833	546.66
498.266	478.79
498.7	563.05
499.134	567.73
499.567	640.28
500.001	708.16
500.434	848.59
500.868	1026.47
501.301	986.68
501.734	876.68
502.168	654.33
502.601	602.83
503.034	541.98
503.467	553.68
503.9	546.66
504.333	541.98
504.766	567.73
505.199	588.79
505.632	539.64
506.064	544.32
506.497	518.57
506.93	527.94
507.362	560.7
507.795	523.26
508.227	516.23
508.66	506.87
509.092	549
509.524	499.85
509.956	495.17
510.389	553.68
510.821	563.05
511.253	579.43
511.685	567.73
512.117	551.34
512.549	549
512.981	506.87
513.412	598.15
513.844	532.62
514.276	593.47
514.707	565.39
515.139	549
515.571	602.83
516.002	546.66
516.433	628.58
516.865	656.67
517.296	640.28
517.727	717.52
518.159	797.1
518.59	783.06
519.021	754.97
519.452	750.29
519.883	640.28
520.314	567.73
520.744	588.79
521.175	556.02
521.606	581.77
522.037	642.62
522.467	790.08
522.898	607.52
523.328	567.73
523.759	651.99
524.189	565.39
524.62	567.73
525.05	541.98
525.48	626.24
525.91	574.75
526.341	661.35
526.771	682.41
527.201	724.54
527.631	785.4
528.061	834.55
528.49	944.55
528.92	1019.45
529.35	1255.84
529.78	2863.79
530.209	13014.7
530.639	30613.18
531.068	48911.49
531.498	63038.96
531.927	63038.96
532.357	63038.96
532.786	63038.96
533.215	63038.96
533.644	40682.17
534.074	15343.53
534.503	6222.46
534.932	2859.11
535.361	1686.5
535.79	1110.73
536.218	916.47
536.647	766.67
537.076	764.33
537.505	628.58
537.933	556.02
538.362	616.88
538.79	635.6
539.219	513.89
539.647	506.87
540.076	525.6
540.504	462.4
540.932	424.95
541.36	551.34
541.788	474.1
542.217	483.47
542.645	544.32
543.073	436.66
543.5	392.19
543.928	490.49
544.356	448.36
544.784	563.05
545.211	495.17
545.639	453.04
546.067	469.42
546.494	429.63
546.922	544.32
547.349	471.76
547.776	474.1
548.204	460.06
548.631	434.32
549.058	460.06
549.485	441.34
549.912	453.04
550.339	474.1
550.766	450.7
551.193	347.72
551.62	385.16
552.047	450.7
552.474	364.1
552.9	446.02
553.327	455.38
553.754	492.83
554.18	422.61
554.607	509.21
555.033	424.95
555.459	392.19
555.886	429.63
556.312	492.83
556.738	455.38
557.164	427.29
557.59	467.08
558.016	439
558.442	490.49
558.868	523.26
559.294	551.34
559.72	602.83
560.145	691.77
560.571	680.07
560.997	565.39
561.422	551.34
561.848	422.61
562.273	453.04
562.699	462.4
563.124	474.1
563.549	406.23
563.974	413.25
564.4	413.25
564.825	422.61
565.25	434.32
565.675	403.89
566.1	446.02
566.525	427.29
566.95	511.55
567.374	595.81
567.799	563.05
568.224	598.15
568.648	766.67
569.073	785.4
569.497	907.1
569.922	1101.37
570.346	1515.64
570.771	1384.57
571.195	921.15
571.619	701.14
572.043	668.37
572.467	771.35
572.891	972.64
573.315	867.31
573.739	649.64
574.163	558.36
574.587	464.74
575.011	476.45
575.435	481.13
575.858	450.7
576.282	406.23
576.705	382.82
577.129	424.95
577.552	408.57
577.976	399.21
578.399	422.61
578.822	392.19
579.245	417.93
579.669	429.63
580.092	420.27
580.515	413.25
580.938	401.55
581.361	350.06
581.784	326.65
582.206	364.1
582.629	403.89
583.052	420.27
583.474	408.57
583.897	392.19
584.32	387.5
584.742	431.98
585.165	378.14
585.587	415.59
586.009	359.42
586.431	380.48
586.854	347.72
587.276	380.48
587.698	464.74
588.12	455.38
588.542	448.36
588.964	375.8
589.386	457.72
589.807	481.13
590.229	429.63
590.651	406.23
591.073	431.98
591.494	382.82
591.916	417.93
592.337	448.36
592.759	314.95
593.18	413.25
593.601	443.68
594.022	499.85
594.444	453.04
594.865	429.63
595.286	446.02
595.707	357.08
596.128	417.93
596.549	413.25
596.97	401.55
597.39	471.76
597.811	371.12
598.232	387.5
598.652	408.57
599.073	387.5
599.494	366.44
599.914	443.68
600.334	399.21
600.755	373.46
601.175	375.8
601.595	413.25
602.015	371.12
602.436	481.13
602.856	556.02
603.276	431.98
603.696	492.83
604.115	387.5
604.535	431.98
604.955	427.29
605.375	380.48
605.794	396.87
606.214	375.8
606.634	403.89
607.053	378.14
607.473	481.13
607.892	385.16
608.311	460.06
608.731	389.85
609.15	441.34
609.569	422.61
609.988	366.44
610.407	474.1
610.826	387.5
611.245	352.4
611.664	417.93
612.083	343.03
612.501	359.42
612.92	441.34
613.339	410.91
613.757	439
614.176	420.27
614.594	413.25
615.013	427.29
615.431	462.4
615.85	471.76
616.268	420.27
616.686	371.12
617.104	410.91
617.522	389.85
617.94	403.89
618.358	420.27
618.776	410.91
619.194	396.87
619.612	340.69
620.03	436.66
620.447	396.87
620.865	420.27
621.282	385.16
621.7	403.89
622.117	434.32
622.535	455.38
622.952	593.47
623.369	628.58
623.787	825.19
624.204	848.59
624.621	799.44
625.038	923.49
625.455	923.49
625.872	722.2
626.289	602.83
626.706	520.92
627.123	471.76
627.539	448.36
627.956	455.38
628.373	436.66
628.789	396.87
629.206	399.21
629.622	401.55
630.038	331.33
630.455	415.59
630.871	399.21
631.287	350.06
631.703	359.42
632.12	380.48
632.536	455.38
632.952	424.95
633.368	403.89
633.783	389.85
634.199	406.23
634.615	429.63
635.031	399.21
635.446	460.06
635.862	410.91
636.277	408.57
636.693	453.04
637.108	373.46
637.524	450.7
637.939	331.33
638.354	317.29
638.77	417.93
639.185	392.19
639.6	282.18
640.015	399.21
640.43	392.19
640.845	401.55
641.259	373.46
641.674	357.08
642.089	392.19
642.504	396.87
642.918	410.91
643.333	382.82
643.747	357.08
644.162	382.82
644.576	371.12
644.991	354.74
645.405	364.1
645.819	352.4
646.233	364.1
646.647	453.04
647.061	336.01
647.475	429.63
647.889	321.97
648.303	396.87
648.717	366.44
649.131	429.63
649.545	382.82
649.958	413.25
650.372	380.48
650.785	357.08
651.199	392.19
651.612	275.16
652.026	357.08
652.439	336.01
652.852	371.12
653.266	326.65
653.679	389.85
654.092	375.8
654.505	439
654.918	439
655.331	457.72
655.744	584.11
656.156	708.16
656.569	850.93
656.982	1038.17
657.394	1033.49
657.807	787.74
658.22	630.92
658.632	499.85
659.044	523.26
659.457	436.66
659.869	460.06
660.281	366.44
660.693	385.16
661.106	345.38
661.518	429.63
661.93	375.8
662.342	385.16
662.754	380.48
663.165	406.23
663.577	373.46
663.989	371.12
664.401	375.8
664.812	387.5
665.224	333.67
665.635	410.91
666.047	340.69
666.458	300.91
666.869	347.72
667.281	350.06
667.692	401.55
668.103	375.8
668.514	375.8
668.925	343.03
669.336	319.63
669.747	378.14
670.158	347.72
670.569	385.16
670.979	317.29
671.39	431.98
671.801	371.12
672.211	333.67
672.622	385.16
673.032	448.36
673.443	361.76
673.853	321.97
674.263	457.72
674.674	347.72
675.084	336.01
675.494	359.42
675.904	357.08
676.314	392.19
676.724	357.08
677.134	279.84
677.544	352.4
677.953	399.21
678.363	364.1
678.773	417.93
679.182	378.14
679.592	326.65
680.001	415.59
680.411	410.91
680.82	340.69
681.23	305.59
681.639	354.74
682.048	399.21
682.457	373.46
682.866	352.4
683.275	392.19
683.684	396.87
684.093	359.42
684.502	415.59
684.911	401.55
685.32	429.63
685.728	380.48
686.137	300.91
686.546	371.12
686.954	368.78
687.363	261.12
687.771	354.74
688.179	385.16
688.588	317.29
688.996	375.8
689.404	406.23
689.812	340.69
690.22	310.27
690.628	382.82
691.036	328.99
691.444	389.85
691.852	371.12
692.26	361.76
692.667	415.59
693.075	366.44
693.483	396.87
693.89	350.06
694.298	359.42
694.705	347.72
695.112	310.27
695.52	371.12
695.927	347.72
696.334	272.82
696.741	314.95
697.148	380.48
697.555	345.38
697.962	347.72
698.369	389.85
698.776	321.97
699.183	345.38
699.59	275.16
699.996	361.76
700.403	312.61
700.81	314.95
701.216	424.95
701.623	357.08
702.029	415.59
702.435	394.53
702.842	317.29
703.248	343.03
703.654	389.85
704.06	483.47
704.466	572.41
704.872	663.69
705.278	495.17
705.684	532.62
706.09	481.13
706.496	478.79
706.901	471.76
707.307	401.55
707.712	396.87
708.118	338.35
708.523	357.08
708.929	319.63
709.334	368.78
709.74	366.44
710.145	385.16
710.55	380.48
710.955	357.08
711.36	296.22
711.765	338.35
712.17	366.44
712.575	359.42
712.98	960.94
713.385	378.14
713.789	389.85
714.194	352.4
714.599	319.63
715.003	331.33
715.408	291.54
715.812	331.33
716.217	350.06
716.621	286.86
717.025	361.76
717.429	291.54
717.833	324.31
718.238	352.4
718.642	317.29
719.046	307.93
719.449	413.25
719.853	279.84
720.257	303.25
720.661	312.61
721.065	326.65
721.468	394.53
721.872	293.88
722.275	333.67
722.679	347.72
723.082	279.84
723.485	361.76
723.889	338.35
724.292	331.33
724.695	389.85
725.098	410.91
725.501	359.42
725.904	375.8
726.307	268.14
726.71	317.29
727.113	317.29
727.516	263.46
727.918	389.85
728.321	303.25
728.724	382.82
729.126	321.97
729.529	417.93
729.931	298.56
730.333	296.22
730.736	261.12
731.138	380.48
731.54	364.1
731.942	303.25
732.344	326.65
732.746	364.1
733.148	340.69
733.55	317.29
733.952	338.35
734.354	307.93
734.756	293.88
735.157	343.03
735.559	312.61
735.96	300.91
736.362	368.78
736.763	333.67
737.165	350.06
737.566	272.82
737.967	366.44
738.368	347.72
738.77	317.29
739.171	319.63
739.572	324.31
739.973	324.31
740.374	380.48
740.774	359.42
741.175	296.22
741.576	326.65
741.977	317.29
742.377	382.82
742.778	357.08
743.178	359.42
743.579	359.42
743.979	387.5
744.379	340.69
744.78	352.4
745.18	366.44
745.58	366.44
745.98	361.76
746.38	380.48
746.78	396.87
747.18	464.74
747.58	366.44
747.98	354.74
748.38	359.42
748.779	361.76
749.179	293.88
749.578	310.27
749.978	364.1
750.377	277.5
750.777	331.33
751.176	324.31
751.575	291.54
751.975	284.52
752.374	321.97
752.773	380.48
753.172	326.65
753.571	282.18
753.97	314.95
754.369	305.59
754.768	307.93
755.166	359.42
755.565	352.4
755.964	279.84
756.362	359.42
756.761	340.69
757.159	319.63
757.558	340.69
757.956	284.52
758.354	324.31
758.753	286.86
759.151	357.08
759.549	314.95
759.947	371.12
760.345	312.61
760.743	298.56
761.141	328.99
761.539	293.88
761.936	321.97
762.334	333.67
762.732	354.74
763.129	314.95
763.527	357.08
763.924	338.35
764.322	345.38
764.719	354.74
765.117	307.93
765.514	338.35
765.911	366.44
766.308	317.29
766.705	373.46
767.102	331.33
767.499	300.91
767.896	296.22
768.293	251.75
768.69	289.2
769.086	324.31
769.483	286.86
769.88	359.42
770.276	336.01
770.673	312.61
771.069	350.06
771.466	368.78
771.862	385.16
772.258	340.69
772.654	347.72
773.05	324.31
773.447	357.08
773.843	300.91
774.239	300.91
774.634	413.25
775.03	289.2
775.426	263.46
775.822	343.03
776.218	385.16
776.613	389.85
777.009	396.87
777.404	431.98
777.8	382.82
778.195	371.12
778.59	331.33
778.986	408.57
779.381	366.44
779.776	354.74
780.171	321.97
780.566	371.12
780.961	326.65
781.356	324.31
781.751	312.61
782.146	296.22
782.54	317.29
782.935	312.61
783.33	289.2
783.724	366.44
784.119	401.55
784.513	396.87
784.908	403.89
785.302	321.97
785.696	300.91
786.09	336.01
786.485	389.85
786.879	366.44
787.273	314.95
787.667	343.03
788.061	312.61
788.454	340.69
788.848	357.08
789.242	312.61
789.636	354.74
790.029	319.63
790.423	300.91
790.816	296.22
791.21	371.12
791.603	364.1
791.997	352.4
792.39	310.27
792.783	368.78
793.176	359.42
793.569	336.01
793.962	350.06
794.355	286.86
794.748	375.8
795.141	291.54
795.534	261.12
795.927	333.67
796.319	401.55
796.712	333.67
797.105	357.08
797.497	321.97
797.89	307.93
798.282	331.33
798.674	326.65
799.067	389.85
799.459	427.29
799.851	312.61
800.243	310.27
800.635	242.39
801.027	293.88
801.419	312.61
801.811	347.72
802.203	357.08
802.594	373.46
802.986	272.82
803.378	394.53
803.769	352.4
804.161	286.86
804.552	247.07
804.944	319.63
805.335	343.03
805.726	406.23
806.118	321.97
806.509	305.59
806.9	352.4
807.291	321.97
807.682	305.59
808.073	235.37
808.464	312.61
808.855	303.25
809.245	286.86
809.636	289.2
810.027	314.95
810.417	357.08
810.808	305.59
811.198	331.33
811.589	364.1
811.979	289.2
812.369	314.95
812.759	303.25
813.15	324.31
813.54	293.88
813.93	279.84
814.32	326.65
814.71	324.31
815.1	382.82
815.489	300.91
815.879	326.65
816.269	317.29
816.658	406.23
817.048	279.84
817.438	357.08
817.827	321.97
818.216	359.42
818.606	319.63
818.995	340.69
819.384	333.67
819.773	282.18
820.163	357.08
820.552	324.31
820.941	310.27
821.33	340.69
821.718	268.14
822.107	310.27
822.496	359.42
822.885	324.31
823.273	357.08
823.662	373.46
824.05	300.91
824.439	268.14
824.827	298.56
825.216	352.4
825.604	336.01
825.992	319.63
826.38	279.84
826.768	378.14
827.156	364.1
827.544	317.29
827.932	291.54
828.32	345.38
828.708	305.59
829.096	251.75
829.483	298.56
829.871	352.4
830.259	326.65
830.646	345.38
831.034	336.01
831.421	317.29
831.808	336.01
832.196	331.33
832.583	312.61
832.97	359.42
833.357	345.38
833.744	312.61
834.131	333.67
834.518	319.63
834.905	324.31
835.292	275.16
835.678	300.91
836.065	345.38
836.452	352.4
836.838	382.82
837.225	343.03
837.611	263.46
837.998	270.48
838.384	364.1
838.77	261.12
839.157	326.65
839.543	352.4
839.929	270.48
840.315	336.01
840.701	293.88
841.087	303.25
841.473	331.33
841.858	368.78
842.244	251.75
842.63	272.82
843.015	291.54
843.401	609.86
843.787	310.27
844.172	382.82
844.557	324.31
844.943	357.08
845.328	291.54
845.713	314.95
846.098	331.33
846.483	261.12
846.868	277.5
847.253	310.27
847.638	298.56
848.023	361.76
848.408	382.82
848.793	373.46
849.177	328.99
849.562	293.88
849.947	340.69
850.331	326.65
850.715	350.06
851.1	343.03
851.484	371.12
851.868	347.72
852.253	354.74
852.637	357.08
853.021	340.69
853.405	261.12
853.789	282.18
854.173	326.65
854.557	343.03
854.94	347.72
855.324	317.29
855.708	352.4
856.091	382.82
856.475	364.1
856.858	338.35
857.242	298.56
857.625	284.52
858.009	350.06
858.392	303.25
858.775	319.63
859.158	279.84
859.541	319.63
859.924	277.5
860.307	333.67
860.69	314.95
861.073	321.97
861.456	296.22
861.838	336.01
862.221	326.65
862.604	321.97
862.986	333.67
863.369	279.84
863.751	307.93
864.133	307.93
864.516	310.27
864.898	373.46
865.28	312.61
865.662	354.74
866.044	321.97
866.426	286.86
866.808	312.61
867.19	258.78
867.572	340.69
867.954	202.6
868.336	303.25
868.717	268.14
869.099	368.78
869.48	328.99
869.862	345.38
870.243	333.67
870.625	340.69
871.006	328.99
871.387	333.67
871.768	317.29
872.149	312.61
872.53	277.5
872.911	328.99
873.292	364.1
873.673	331.33
874.054	366.44
874.435	312.61
874.815	338.35
875.196	312.61
875.577	338.35
875.957	310.27
876.338	375.8
876.718	366.44
877.098	244.73
877.479	319.63
877.859	343.03
878.239	277.5
878.619	254.09
878.999	286.86
879.379	347.72
879.759	364.1
880.139	378.14
880.519	352.4
880.898	373.46
881.278	282.18
881.658	312.61
882.037	328.99
882.417	364.1
882.796	312.61
883.176	352.4
883.555	268.14
883.934	314.95
884.313	317.29
884.693	399.21
885.072	345.38
885.451	307.93
885.83	307.93
886.209	340.69
886.587	378.14
886.966	298.56
887.345	298.56
887.724	378.14
888.102	375.8
888.481	328.99
888.859	340.69
889.238	336.01
889.616	399.21
889.994	282.18
890.373	347.72
890.751	282.18
891.129	223.67
891.507	303.25
891.885	314.95
892.263	347.72
892.641	314.95
893.019	298.56
893.396	380.48
893.774	326.65
894.152	380.48
894.529	312.61
894.907	293.88
895.284	326.65
895.662	340.69
896.039	317.29
896.416	385.16
896.794	300.91
897.171	279.84
897.548	310.27
897.925	350.06
898.302	314.95
898.679	385.16
899.056	247.07
899.433	310.27
899.809	296.22
900.186	284.52
900.563	300.91
900.939	328.99
901.316	305.59
901.692	350.06
902.069	333.67
902.445	333.67
902.821	328.99
903.197	321.97
903.574	352.4
903.95	336.01
904.326	256.43
904.702	338.35
905.078	324.31
905.454	345.38
905.829	326.65
906.205	296.22
906.581	314.95
906.956	298.56
907.332	307.93
907.707	359.42
908.083	321.97
908.458	345.38
908.833	298.56
909.209	368.78
909.584	328.99
909.959	305.59
910.334	321.97
910.709	279.84
911.084	314.95
911.459	300.91
911.834	298.56
912.209	310.27
912.583	298.56
912.958	340.69
913.333	314.95
913.707	256.43
914.082	291.54
914.456	317.29
914.83	305.59
915.205	336.01
915.579	286.86
915.953	328.99
916.327	312.61
916.701	270.48
917.075	312.61
917.449	279.84
917.823	319.63
918.197	333.67
918.571	317.29
918.944	300.91
919.318	298.56
919.692	324.31
920.065	317.29
920.438	331.33
920.812	328.99
921.185	293.88
921.558	331.33
921.932	331.33
922.305	352.4
922.678	333.67
923.051	338.35
923.424	375.8
923.797	277.5
924.17	340.69
924.542	303.25
924.915	286.86
925.288	286.86
925.661	368.78
926.033	338.35
926.406	413.25
926.778	336.01
927.15	270.48
927.523	305.59
927.895	286.86
928.267	357.08
928.639	321.97
929.011	321.97
929.383	247.07
929.755	317.29
930.127	371.12
930.499	319.63
930.871	319.63
931.242	268.14
931.614	321.97
931.986	373.46
932.357	389.85
932.729	333.67
933.1	289.2
933.471	263.46
933.843	298.56
934.214	340.69
934.585	396.87
934.956	331.33
935.327	347.72
935.698	256.43
936.069	352.4
936.44	357.08
936.811	310.27
937.182	375.8
937.552	314.95
937.923	331.33
938.293	328.99
938.664	361.76
939.034	357.08
939.405	261.12
939.775	352.4
940.145	319.63
940.516	354.74
940.886	366.44
941.256	336.01
941.626	331.33
941.996	277.5
942.366	303.25
942.735	371.12
943.105	321.97
943.475	277.5
943.845	307.93
944.214	282.18
944.584	382.82
944.953	296.22
945.323	340.69
945.692	321.97
946.061	296.22
946.43	345.38
946.8	317.29
947.169	333.67
947.538	338.35
947.907	354.74
948.276	354.74
948.645	298.56
949.013	247.07
949.382	319.63
949.751	350.06
950.119	284.52
950.488	312.61
950.857	310.27
951.225	310.27
951.593	291.54
951.962	305.59
952.33	286.86
952.698	305.59
953.066	286.86
953.434	352.4
953.802	321.97
954.17	289.2
954.538	331.33
954.906	303.25
955.274	261.12
955.642	272.82
956.009	382.82
956.377	277.5
956.744	310.27
957.112	331.33
957.479	300.91
957.847	340.69
958.214	261.12
958.581	352.4
958.948	305.59
959.315	286.86
959.683	305.59
960.05	256.43
960.416	359.42
960.783	284.52
961.15	261.12
961.517	261.12
961.884	319.63
962.25	333.67
962.617	328.99
962.983	382.82
963.35	279.84
963.716	314.95
964.082	331.33
964.449	343.03
964.815	317.29
965.181	321.97
965.547	340.69
965.913	352.4
966.279	237.71
966.645	340.69
967.011	403.89
967.377	361.76
967.742	317.29
968.108	338.35
968.474	357.08
968.839	300.91
969.205	293.88
969.57	293.88
969.935	324.31
970.301	286.86
970.666	272.82
971.031	366.44
971.396	352.4
971.761	321.97
972.126	321.97
972.491	371.12
972.856	277.5
973.221	345.38
973.586	282.18
973.95	268.14
974.315	336.01
974.679	242.39
975.044	340.69
975.408	338.35
975.773	303.25
976.137	364.1
976.501	256.43
976.866	310.27
977.23	305.59
977.594	324.31
977.958	275.16
978.322	300.91
978.686	258.78
979.049	331.33
979.413	279.84
979.777	371.12
980.141	324.31
980.504	261.12
980.868	291.54
981.231	256.43
981.595	312.61
981.958	326.65
982.321	345.38
982.684	300.91
983.048	291.54
983.411	310.27
983.774	303.25
984.137	303.25
984.5	211.96
984.862	286.86
985.225	286.86
985.588	366.44
985.951	305.59
986.313	303.25
986.676	364.1
987.038	298.56
987.401	319.63
987.763	326.65
988.125	319.63
988.488	298.56
988.85	340.69
989.212	375.8
989.574	340.69
989.936	328.99
990.298	331.33
990.66	399.21
991.022	300.91
991.383	263.46
991.745	314.95
992.107	333.67
992.468	359.42
992.83	319.63
993.191	310.27
993.553	284.52
993.914	354.74
994.275	263.46
994.637	375.8
994.998	268.14
995.359	286.86
995.72	336.01
996.081	328.99
996.442	366.44
996.803	275.16
997.163	289.2
997.524	293.88
997.885	305.59
998.245	324.31
998.606	319.63
998.966	336.01
999.327	286.86
999.687	289.2
1000.047	312.61
1000.408	305.59
1000.768	312.61
1001.128	303.25
1001.488	289.2
1001.848	347.72
1002.208	317.29
1002.568	249.41
1002.927	333.67
1003.287	293.88
1003.647	310.27
1004.007	293.88
1004.366	331.33
1004.726	321.97
1005.085	328.99
1005.444	324.31
1005.804	328.99
1006.163	324.31
1006.522	324.31
1006.881	324.31
1007.24	279.84
1007.599	403.89
1007.958	256.43
1008.317	279.84
1008.676	340.69
1009.035	345.38
1009.393	314.95
1009.752	352.4
1010.111	265.8
1010.469	343.03
1010.828	312.61
1011.186	237.71
1011.544	265.8
1011.903	357.08
1012.261	233.03
1012.619	296.22
1012.977	352.4
1013.335	319.63
1013.693	277.5
1014.051	293.88
1014.409	401.55
1014.767	321.97
1015.124	380.48
1015.482	350.06
1015.84	254.09
1016.197	233.03
1016.555	324.31
1016.912	359.42
1017.269	324.31
1017.627	291.54
1017.984	350.06
1018.341	317.29
1018.698	272.82
1019.055	298.56
1019.412	310.27
1019.769	343.03
1020.126	303.25
1020.483	291.54
1020.84	340.69
1021.196	328.99
1021.553	354.74
1021.909	291.54
1022.266	328.99
1022.622	357.08
1022.979	338.35
1023.335	303.25
1023.691	352.4
1024.047	314.95
1024.404	282.18
1024.76	361.76
1025.116	277.5
1025.472	340.69
1025.827	307.93
1026.183	221.33
1026.539	317.29
1026.895	228.35
1027.25	272.82
1027.606	293.88
1027.961	303.25
1028.317	326.65
1028.672	357.08
1029.028	277.5
1029.383	357.08
1029.738	314.95
1030.093	382.82
1030.448	282.18
1030.803	307.93
1031.158	305.59
1031.513	303.25
1031.868	359.42
1032.223	314.95
1032.577	336.01
1032.932	354.74
1033.287	361.76
1033.641	371.12
1033.996	251.75
1034.35	368.78
1034.704	275.16
1035.059	350.06
1035.413	293.88
1035.767	293.88
1036.121	293.88
