Data from Al_FLMS009871__1095__16-29-43-205.txt Node

Date: Fri Mar 08 16:29:43 CST 2024
User: pe5414po
Spectrometer: FLMS00987
Trigger mode: 0
Integration Time (sec): 1.000000E-1
Scans to average: 1
Electric dark correction enabled: true
Nonlinearity correction enabled: false
Boxcar width: 0
XAxis mode: Wavelengths
Number of Pixels in Spectrum: 2048
>>>>>Begin Spectral Data<<<<<
188.938	-69.78
189.409	-69.78
189.879	-69.78
190.349	-149.36
190.819	-90.84
191.29	-102.54
191.76	-118.93
192.23	-125.95
192.7	-86.16
193.17	-41.69
193.64	-29.99
194.109	5.12
194.579	-4.24
195.049	-20.63
195.519	-18.29
195.988	21.5
196.458	23.84
196.927	126.83
197.397	133.85
197.866	119.81
198.336	117.47
198.805	140.87
199.274	126.83
199.744	150.23
200.213	250.88
200.682	225.13
201.151	213.43
201.62	234.49
202.089	213.43
202.558	208.75
203.027	264.92
203.495	274.28
203.964	260.24
204.433	297.69
204.902	276.62
205.37	248.54
205.839	243.85
206.307	236.83
206.776	316.41
207.244	234.49
207.712	267.26
208.181	316.41
208.649	276.62
209.117	307.05
209.585	297.69
210.053	309.39
210.521	218.11
210.989	346.84
211.457	246.2
211.925	349.18
212.393	264.92
212.861	309.39
213.328	288.32
213.796	281.3
214.264	318.75
214.731	234.49
215.199	246.2
215.666	232.15
216.133	227.47
216.601	246.2
217.068	278.96
217.535	257.9
218.003	311.73
218.47	276.62
218.937	271.94
219.404	278.96
219.871	276.62
220.338	243.85
220.805	271.94
221.271	264.92
221.738	204.07
222.205	211.09
222.671	307.05
223.138	204.07
223.605	243.85
224.071	250.88
224.538	257.9
225.004	311.73
225.47	269.6
225.937	283.64
226.403	241.51
226.869	285.98
227.335	248.54
227.801	283.64
228.267	285.98
228.733	297.69
229.199	243.85
229.665	262.58
230.131	164.28
230.597	257.9
231.062	236.83
231.528	236.83
231.994	199.38
232.459	215.77
232.925	253.22
233.39	192.36
233.856	290.67
234.321	257.9
234.786	260.24
235.252	260.24
235.717	239.17
236.182	227.47
236.647	281.3
237.112	325.77
237.577	227.47
238.042	309.39
238.507	239.17
238.972	260.24
239.436	241.51
239.901	281.3
240.366	278.96
240.83	253.22
241.295	307.05
241.76	321.09
242.224	274.28
242.688	204.07
243.153	288.32
243.617	236.83
244.081	285.98
244.545	225.13
245.01	269.6
245.474	264.92
245.938	285.98
246.402	234.49
246.866	349.18
247.33	297.69
247.793	276.62
248.257	323.43
248.721	316.41
249.185	300.03
249.648	218.11
250.112	215.77
250.575	229.81
251.039	255.56
251.502	283.64
251.965	243.85
252.429	297.69
252.892	257.9
253.355	290.67
253.818	295.35
254.281	297.69
254.744	255.56
255.207	290.67
255.67	293.01
256.133	290.67
256.596	227.47
257.059	295.35
257.522	269.6
257.984	281.3
258.447	293.01
258.909	323.43
259.372	215.77
259.834	274.28
260.297	321.09
260.759	337.48
261.221	304.71
261.684	297.69
262.146	318.75
262.608	271.94
263.07	264.92
263.532	285.98
263.994	297.69
264.456	316.41
264.918	250.88
265.38	271.94
265.842	281.3
266.303	250.88
266.765	269.6
267.227	330.45
267.688	255.56
268.15	269.6
268.611	330.45
269.072	335.14
269.534	285.98
269.995	323.43
270.456	311.73
270.918	267.26
271.379	274.28
271.84	253.22
272.301	248.54
272.762	290.67
273.223	290.67
273.684	253.22
274.144	302.37
274.605	243.85
275.066	250.88
275.527	293.01
275.987	274.28
276.448	257.9
276.908	321.09
277.369	363.22
277.829	281.3
278.289	285.98
278.75	276.62
279.21	309.39
279.67	307.05
280.13	302.37
280.59	281.3
281.05	295.35
281.51	274.28
281.97	250.88
282.43	342.16
282.89	213.43
283.35	323.43
283.809	234.49
284.269	325.77
284.729	379.61
285.188	339.82
285.648	295.35
286.107	316.41
286.567	335.14
287.026	295.35
287.485	262.58
287.944	243.85
288.404	255.56
288.863	260.24
289.322	285.98
289.781	241.51
290.24	274.28
290.699	314.07
291.158	260.24
291.616	295.35
292.075	236.83
292.534	295.35
292.992	253.22
293.451	288.32
293.91	234.49
294.368	332.79
294.827	295.35
295.285	250.88
295.743	363.22
296.202	278.96
296.66	271.94
297.118	267.26
297.576	386.63
298.034	208.75
298.492	358.54
298.95	274.28
299.408	337.48
299.866	290.67
300.324	328.11
300.781	276.62
301.239	285.98
301.697	283.64
302.154	302.37
302.612	278.96
303.069	253.22
303.527	271.94
303.984	346.84
304.441	234.49
304.899	278.96
305.356	246.2
305.813	325.77
306.27	260.24
306.727	302.37
307.184	297.69
307.641	318.75
308.098	297.69
308.555	293.01
309.012	351.52
309.468	297.69
309.925	316.41
310.382	213.43
310.838	290.67
311.295	318.75
311.751	269.6
312.208	274.28
312.664	288.32
313.12	260.24
313.577	269.6
314.033	246.2
314.489	285.98
314.945	349.18
315.401	269.6
315.857	293.01
316.313	285.98
316.769	267.26
317.225	285.98
317.681	339.82
318.136	225.13
318.592	281.3
319.048	356.2
319.503	295.35
319.959	300.03
320.414	297.69
320.869	311.73
321.325	321.09
321.78	304.71
322.235	307.05
322.691	302.37
323.146	248.54
323.601	337.48
324.056	290.67
324.511	297.69
324.966	300.03
325.421	309.39
325.875	321.09
326.33	218.11
326.785	269.6
327.24	311.73
327.694	264.92
328.149	309.39
328.603	290.67
329.058	363.22
329.512	309.39
329.966	342.16
330.421	264.92
330.875	264.92
331.329	260.24
331.783	316.41
332.237	346.84
332.691	342.16
333.145	314.07
333.599	283.64
334.053	344.5
334.507	353.86
334.96	304.71
335.414	276.62
335.868	328.11
336.321	316.41
336.775	339.82
337.228	351.52
337.682	314.07
338.135	302.37
338.588	344.5
339.042	309.39
339.495	267.26
339.948	281.3
340.401	309.39
340.854	325.77
341.307	316.41
341.76	290.67
342.213	250.88
342.666	297.69
343.119	325.77
343.571	278.96
344.024	307.05
344.477	297.69
344.929	255.56
345.382	325.77
345.834	302.37
346.287	232.15
346.739	321.09
347.191	346.84
347.644	278.96
348.096	314.07
348.548	297.69
349	309.39
349.452	311.73
349.904	293.01
350.356	295.35
350.808	325.77
351.26	293.01
351.711	267.26
352.163	295.35
352.615	314.07
353.066	339.82
353.518	332.79
353.969	276.62
354.421	267.26
354.872	290.67
355.324	388.97
355.775	328.11
356.226	337.48
356.677	309.39
357.128	288.32
357.579	351.52
358.03	311.73
358.481	311.73
358.932	302.37
359.383	311.73
359.834	328.11
360.285	243.85
360.735	300.03
361.186	342.16
361.637	360.88
362.087	269.6
362.538	255.56
362.988	330.45
363.438	323.43
363.889	314.07
364.339	293.01
364.789	300.03
365.239	276.62
365.689	281.3
366.139	323.43
366.589	253.22
367.039	302.37
367.489	215.77
367.939	307.05
368.389	328.11
368.839	264.92
369.288	342.16
369.738	250.88
370.187	260.24
370.637	307.05
371.086	300.03
371.536	318.75
371.985	311.73
372.434	339.82
372.884	339.82
373.333	260.24
373.782	311.73
374.231	314.07
374.68	271.94
375.129	370.24
375.578	278.96
376.027	243.85
376.475	262.58
376.924	335.14
377.373	328.11
377.822	377.27
378.27	297.69
378.719	278.96
379.167	325.77
379.616	283.64
380.064	337.48
380.512	260.24
380.961	321.09
381.409	236.83
381.857	337.48
382.305	232.15
382.753	278.96
383.201	309.39
383.649	257.9
384.097	321.09
384.545	302.37
384.992	274.28
385.44	335.14
385.888	332.79
386.335	337.48
386.783	314.07
387.231	257.9
387.678	363.22
388.125	314.07
388.573	321.09
389.02	281.3
389.467	290.67
389.914	321.09
390.362	351.52
390.809	370.24
391.256	316.41
391.703	311.73
392.15	346.84
392.596	328.11
393.043	295.35
393.49	325.77
393.937	309.39
394.383	344.5
394.83	264.92
395.276	290.67
395.723	311.73
396.169	316.41
396.616	288.32
397.062	285.98
397.508	264.92
397.954	323.43
398.401	358.54
398.847	321.09
399.293	318.75
399.739	332.79
400.185	337.48
400.631	337.48
401.076	309.39
401.522	283.64
401.968	356.2
402.414	302.37
402.859	302.37
403.305	367.9
403.75	285.98
404.196	250.88
404.641	281.3
405.086	276.62
405.532	337.48
405.977	328.11
406.422	236.83
406.867	283.64
407.312	318.75
407.757	335.14
408.202	349.18
408.647	314.07
409.092	300.03
409.537	367.9
409.982	316.41
410.426	285.98
410.871	337.48
411.316	353.86
411.76	351.52
412.205	278.96
412.649	360.88
413.093	325.77
413.538	293.01
413.982	281.3
414.426	344.5
414.87	360.88
415.314	283.64
415.758	314.07
416.202	367.9
416.646	297.69
417.09	239.17
417.534	300.03
417.978	304.71
418.421	328.11
418.865	311.73
419.309	379.61
419.752	269.6
420.196	309.39
420.639	288.32
421.083	360.88
421.526	248.54
421.969	302.37
422.412	316.41
422.856	316.41
423.299	365.56
423.742	309.39
424.185	314.07
424.628	349.18
425.071	325.77
425.513	297.69
425.956	264.92
426.399	328.11
426.842	304.71
427.284	353.86
427.727	297.69
428.169	318.75
428.612	241.51
429.054	239.17
429.497	274.28
429.939	325.77
430.381	353.86
430.823	335.14
431.265	318.75
431.707	309.39
432.149	316.41
432.591	316.41
433.033	316.41
433.475	330.45
433.917	297.69
434.359	344.5
434.8	264.92
435.242	278.96
435.684	304.71
436.125	264.92
436.567	269.6
437.008	346.84
437.449	330.45
437.891	290.67
438.332	276.62
438.773	325.77
439.214	335.14
439.656	323.43
440.097	297.69
440.538	337.48
440.978	311.73
441.419	283.64
441.86	295.35
442.301	311.73
442.742	367.9
443.182	281.3
443.623	257.9
444.063	342.16
444.504	257.9
444.944	342.16
445.385	325.77
445.825	267.26
446.265	304.71
446.706	290.67
447.146	351.52
447.586	339.82
448.026	346.84
448.466	300.03
448.906	367.9
449.346	295.35
449.786	220.45
450.225	302.37
450.665	293.01
451.105	346.84
451.544	346.84
451.984	285.98
452.424	295.35
452.863	309.39
453.302	367.9
453.742	358.54
454.181	309.39
454.62	370.24
455.059	344.5
455.499	323.43
455.938	257.9
456.377	302.37
456.816	314.07
457.254	321.09
457.693	276.62
458.132	271.94
458.571	295.35
459.01	271.94
459.448	253.22
459.887	257.9
460.325	367.9
460.764	337.48
461.202	288.32
461.641	321.09
462.079	318.75
462.517	295.35
462.955	349.18
463.393	339.82
463.832	295.35
464.27	302.37
464.708	318.75
465.145	309.39
465.583	295.35
466.021	290.67
466.459	295.35
466.897	311.73
467.334	293.01
467.772	309.39
468.209	311.73
468.647	309.39
469.084	323.43
469.522	285.98
469.959	307.05
470.396	332.79
470.833	372.58
471.271	267.26
471.708	323.43
472.145	335.14
472.582	285.98
473.019	260.24
473.456	276.62
473.892	370.24
474.329	335.14
474.766	318.75
475.202	274.28
475.639	285.98
476.076	318.75
476.512	330.45
476.949	316.41
477.385	337.48
477.821	285.98
478.258	335.14
478.694	337.48
479.13	330.45
479.566	255.56
480.002	285.98
480.438	297.69
480.874	278.96
481.31	295.35
481.746	314.07
482.181	285.98
482.617	344.5
483.053	316.41
483.488	229.81
483.924	276.62
484.36	290.67
484.795	339.82
485.23	241.51
485.666	360.88
486.101	267.26
486.536	353.86
486.971	323.43
487.407	311.73
487.842	351.52
488.277	285.98
488.712	283.64
489.146	234.49
489.581	328.11
490.016	281.3
490.451	346.84
490.885	351.52
491.32	316.41
491.755	260.24
492.189	288.32
492.624	325.77
493.058	285.98
493.492	269.6
493.927	283.64
494.361	377.27
494.795	250.88
495.229	393.65
495.663	339.82
496.097	342.16
496.531	295.35
496.965	358.54
497.399	269.6
497.833	360.88
498.266	342.16
498.7	309.39
499.134	318.75
499.567	316.41
500.001	285.98
500.434	337.48
500.868	293.01
501.301	321.09
501.734	250.88
502.168	332.79
502.601	250.88
503.034	276.62
503.467	271.94
503.9	339.82
504.333	323.43
504.766	316.41
505.199	276.62
505.632	325.77
506.064	225.13
506.497	323.43
506.93	363.22
507.362	295.35
507.795	349.18
508.227	395.99
508.66	253.22
509.092	278.96
509.524	346.84
509.956	257.9
510.389	271.94
510.821	377.27
511.253	414.71
511.685	302.37
512.117	300.03
512.549	260.24
512.981	271.94
513.412	337.48
513.844	276.62
514.276	311.73
514.707	321.09
515.139	381.95
515.571	311.73
516.002	370.24
516.433	342.16
516.865	356.2
517.296	349.18
517.727	356.2
518.159	309.39
518.59	253.22
519.021	344.5
519.452	309.39
519.883	377.27
520.314	307.05
520.744	339.82
521.175	307.05
521.606	297.69
522.037	281.3
522.467	278.96
522.898	332.79
523.328	316.41
523.759	316.41
524.189	307.05
524.62	325.77
525.05	323.43
525.48	283.64
525.91	325.77
526.341	353.86
526.771	274.28
527.201	309.39
527.631	295.35
528.061	335.14
528.49	246.2
528.92	351.52
529.35	353.86
529.78	379.61
530.209	269.6
530.639	365.56
531.068	248.54
531.498	372.58
531.927	332.79
532.357	307.05
532.786	358.54
533.215	332.79
533.644	335.14
534.074	304.71
534.503	363.22
534.932	346.84
535.361	304.71
535.79	288.32
536.218	285.98
536.647	264.92
537.076	307.05
537.505	337.48
537.933	316.41
538.362	295.35
538.79	285.98
539.219	293.01
539.647	278.96
540.076	246.2
540.504	267.26
540.932	323.43
541.36	337.48
541.788	325.77
542.217	290.67
542.645	295.35
543.073	314.07
543.5	274.28
543.928	325.77
544.356	311.73
544.784	332.79
545.211	323.43
545.639	253.22
546.067	293.01
546.494	314.07
546.922	328.11
547.349	356.2
547.776	410.03
548.204	281.3
548.631	337.48
549.058	260.24
549.485	339.82
549.912	293.01
550.339	307.05
550.766	269.6
551.193	325.77
551.62	271.94
552.047	300.03
552.474	344.5
552.9	325.77
553.327	335.14
553.754	302.37
554.18	377.27
554.607	325.77
555.033	325.77
555.459	293.01
555.886	304.71
556.312	248.54
556.738	325.77
557.164	250.88
557.59	314.07
558.016	267.26
558.442	295.35
558.868	325.77
559.294	316.41
559.72	276.62
560.145	356.2
560.571	290.67
560.997	302.37
561.422	311.73
561.848	285.98
562.273	321.09
562.699	311.73
563.124	197.04
563.549	328.11
563.974	323.43
564.4	271.94
564.825	323.43
565.25	316.41
565.675	344.5
566.1	281.3
566.525	325.77
566.95	342.16
567.374	222.79
567.799	316.41
568.224	297.69
568.648	307.05
569.073	295.35
569.497	330.45
569.922	293.01
570.346	283.64
570.771	316.41
571.195	243.85
571.619	379.61
572.043	323.43
572.467	271.94
572.891	325.77
573.315	302.37
573.739	360.88
574.163	365.56
574.587	325.77
575.011	358.54
575.435	328.11
575.858	257.9
576.282	316.41
576.705	311.73
577.129	295.35
577.552	307.05
577.976	323.43
578.399	316.41
578.822	271.94
579.245	281.3
579.669	311.73
580.092	290.67
580.515	325.77
580.938	302.37
581.361	335.14
581.784	239.17
582.206	316.41
582.629	293.01
583.052	309.39
583.474	349.18
583.897	300.03
584.32	358.54
584.742	257.9
585.165	335.14
585.587	318.75
586.009	316.41
586.431	323.43
586.854	332.79
587.276	302.37
587.698	316.41
588.12	311.73
588.542	243.85
588.964	300.03
589.386	332.79
589.807	339.82
590.229	332.79
590.651	293.01
591.073	297.69
591.494	328.11
591.916	365.56
592.337	309.39
592.759	309.39
593.18	288.32
593.601	381.95
594.022	311.73
594.444	395.99
594.865	316.41
595.286	353.86
595.707	278.96
596.128	346.84
596.549	346.84
596.97	250.88
597.39	330.45
597.811	278.96
598.232	330.45
598.652	274.28
599.073	307.05
599.494	262.58
599.914	321.09
600.334	281.3
600.755	356.2
601.175	344.5
601.595	311.73
602.015	332.79
602.436	311.73
602.856	395.99
603.276	335.14
603.696	309.39
604.115	267.26
604.535	328.11
604.955	384.29
605.375	367.9
605.794	264.92
606.214	239.17
606.634	232.15
607.053	283.64
607.473	281.3
607.892	370.24
608.311	323.43
608.731	269.6
609.15	351.52
609.569	349.18
609.988	342.16
610.407	328.11
610.826	316.41
611.245	300.03
611.664	215.77
612.083	351.52
612.501	344.5
612.92	307.05
613.339	283.64
613.757	311.73
614.176	285.98
614.594	330.45
615.013	269.6
615.431	253.22
615.85	318.75
616.268	304.71
616.686	318.75
617.104	335.14
617.522	311.73
617.94	283.64
618.358	295.35
618.776	358.54
619.194	297.69
619.612	328.11
620.03	346.84
620.447	300.03
620.865	295.35
621.282	325.77
621.7	274.28
622.117	283.64
622.535	339.82
622.952	281.3
623.369	307.05
623.787	314.07
624.204	328.11
624.621	374.92
625.038	278.96
625.455	316.41
625.872	267.26
626.289	302.37
626.706	367.9
627.123	288.32
627.539	288.32
627.956	285.98
628.373	337.48
628.789	243.85
629.206	297.69
629.622	311.73
630.038	318.75
630.455	274.28
630.871	353.86
631.287	293.01
631.703	384.29
632.12	316.41
632.536	300.03
632.952	293.01
633.368	295.35
633.783	274.28
634.199	325.77
634.615	339.82
635.031	309.39
635.446	271.94
635.862	328.11
636.277	335.14
636.693	337.48
637.108	255.56
637.524	311.73
637.939	255.56
638.354	278.96
638.77	325.77
639.185	332.79
639.6	300.03
640.015	318.75
640.43	269.6
640.845	335.14
641.259	276.62
641.674	288.32
642.089	278.96
642.504	297.69
642.918	307.05
643.333	328.11
643.747	236.83
644.162	278.96
644.576	302.37
644.991	307.05
645.405	283.64
645.819	304.71
646.233	307.05
646.647	328.11
647.061	307.05
647.475	328.11
647.889	300.03
648.303	358.54
648.717	302.37
649.131	358.54
649.545	381.95
649.958	330.45
650.372	337.48
650.785	370.24
651.199	276.62
651.612	335.14
652.026	295.35
652.439	283.64
652.852	262.58
653.266	323.43
653.679	344.5
654.092	318.75
654.505	309.39
654.918	330.45
655.331	285.98
655.744	325.77
656.156	316.41
656.569	227.47
656.982	323.43
657.394	197.04
657.807	278.96
658.22	325.77
658.632	290.67
659.044	342.16
659.457	307.05
659.869	372.58
660.281	330.45
660.693	255.56
661.106	295.35
661.518	311.73
661.93	349.18
662.342	295.35
662.754	281.3
663.165	295.35
663.577	346.84
663.989	356.2
664.401	281.3
664.812	311.73
665.224	290.67
665.635	321.09
666.047	185.34
666.458	311.73
666.869	253.22
667.281	316.41
667.692	257.9
668.103	297.69
668.514	295.35
668.925	255.56
669.336	293.01
669.747	234.49
670.158	316.41
670.569	323.43
670.979	342.16
671.39	285.98
671.801	260.24
672.211	311.73
672.622	290.67
673.032	304.71
673.443	234.49
673.853	344.5
674.263	351.52
674.674	307.05
675.084	300.03
675.494	335.14
675.904	307.05
676.314	267.26
676.724	349.18
677.134	330.45
677.544	391.31
677.953	358.54
678.363	300.03
678.773	356.2
679.182	300.03
679.592	321.09
680.001	271.94
680.411	278.96
680.82	269.6
681.23	349.18
681.639	346.84
682.048	269.6
682.457	288.32
682.866	283.64
683.275	342.16
683.684	339.82
684.093	349.18
684.502	269.6
684.911	314.07
685.32	328.11
685.728	328.11
686.137	309.39
686.546	363.22
686.954	332.79
687.363	260.24
687.771	349.18
688.179	353.86
688.588	372.58
688.996	314.07
689.404	377.27
689.812	328.11
690.22	288.32
690.628	321.09
691.036	257.9
691.444	290.67
691.852	288.32
692.26	344.5
692.667	243.85
693.075	257.9
693.483	260.24
693.89	339.82
694.298	232.15
694.705	236.83
695.112	318.75
695.52	321.09
695.927	243.85
696.334	311.73
696.741	243.85
697.148	353.86
697.555	323.43
697.962	367.9
698.369	346.84
698.776	367.9
699.183	288.32
699.59	351.52
699.996	337.48
700.403	349.18
700.81	290.67
701.216	297.69
701.623	257.9
702.029	325.77
702.435	304.71
702.842	269.6
703.248	241.51
703.654	318.75
704.06	307.05
704.466	290.67
704.872	344.5
705.278	325.77
705.684	288.32
706.09	339.82
706.496	330.45
706.901	344.5
707.307	302.37
707.712	264.92
708.118	290.67
708.523	318.75
708.929	269.6
709.334	290.67
709.74	328.11
710.145	302.37
710.55	274.28
710.955	302.37
711.36	260.24
711.765	335.14
712.17	304.71
712.575	318.75
712.98	950.7
713.385	321.09
713.789	283.64
714.194	285.98
714.599	321.09
715.003	281.3
715.408	356.2
715.812	370.24
716.217	314.07
716.621	342.16
717.025	358.54
717.429	278.96
717.833	262.58
718.238	229.81
718.642	276.62
719.046	309.39
719.449	316.41
719.853	325.77
720.257	403.01
720.661	309.39
721.065	264.92
721.468	302.37
721.872	250.88
722.275	293.01
722.679	307.05
723.082	360.88
723.485	332.79
723.889	307.05
724.292	281.3
724.695	283.64
725.098	328.11
725.501	281.3
725.904	274.28
726.307	250.88
726.71	374.92
727.113	293.01
727.516	372.58
727.918	295.35
728.321	410.03
728.724	269.6
729.126	304.71
729.529	293.01
729.931	271.94
730.333	250.88
730.736	274.28
731.138	257.9
731.54	365.56
731.942	344.5
732.344	274.28
732.746	285.98
733.148	328.11
733.55	339.82
733.952	293.01
734.354	304.71
734.756	370.24
735.157	302.37
735.559	370.24
735.96	304.71
736.362	285.98
736.763	271.94
737.165	309.39
737.566	314.07
737.967	342.16
738.368	262.58
738.77	236.83
739.171	307.05
739.572	295.35
739.973	309.39
740.374	349.18
740.774	290.67
741.175	302.37
741.576	318.75
741.977	274.28
742.377	248.54
742.778	302.37
743.178	318.75
743.579	302.37
743.979	342.16
744.379	267.26
744.78	304.71
745.18	349.18
745.58	300.03
745.98	374.92
746.38	314.07
746.78	318.75
747.18	360.88
747.58	358.54
747.98	372.58
748.38	346.84
748.779	307.05
749.179	356.2
749.578	318.75
749.978	297.69
750.377	344.5
750.777	232.15
751.176	264.92
751.575	297.69
751.975	381.95
752.374	339.82
752.773	274.28
753.172	290.67
753.571	311.73
753.97	321.09
754.369	318.75
754.768	290.67
755.166	293.01
755.565	370.24
755.964	300.03
756.362	293.01
756.761	367.9
757.159	300.03
757.558	374.92
757.956	293.01
758.354	332.79
758.753	285.98
759.151	321.09
759.549	349.18
759.947	262.58
760.345	285.98
760.743	285.98
761.141	304.71
761.539	300.03
761.936	274.28
762.334	295.35
762.732	220.45
763.129	314.07
763.527	288.32
763.924	314.07
764.322	337.48
764.719	323.43
765.117	351.52
765.514	264.92
765.911	332.79
766.308	363.22
766.705	257.9
767.102	328.11
767.499	309.39
767.896	314.07
768.293	236.83
768.69	318.75
769.086	330.45
769.483	283.64
769.88	309.39
770.276	290.67
770.673	321.09
771.069	351.52
771.466	300.03
771.862	386.63
772.258	344.5
772.654	314.07
773.05	309.39
773.447	288.32
773.843	360.88
774.239	307.05
774.634	304.71
775.03	325.77
775.426	274.28
775.822	346.84
776.218	339.82
776.613	248.54
777.009	316.41
777.404	267.26
777.8	311.73
778.195	379.61
778.59	332.79
778.986	325.77
779.381	323.43
779.776	346.84
780.171	276.62
780.566	314.07
780.961	307.05
781.356	412.37
781.751	325.77
782.146	229.81
782.54	314.07
782.935	283.64
783.33	381.95
783.724	307.05
784.119	262.58
784.513	271.94
784.908	318.75
785.302	311.73
785.696	246.2
786.09	302.37
786.485	274.28
786.879	381.95
787.273	332.79
787.667	253.22
788.061	276.62
788.454	290.67
788.848	288.32
789.242	314.07
789.636	246.2
790.029	337.48
790.423	278.96
790.816	307.05
791.21	337.48
791.603	356.2
791.997	325.77
792.39	316.41
792.783	269.6
793.176	255.56
793.569	339.82
793.962	288.32
794.355	288.32
794.748	307.05
795.141	323.43
795.534	318.75
795.927	274.28
796.319	316.41
796.712	363.22
797.105	290.67
797.497	283.64
797.89	304.71
798.282	353.86
798.674	358.54
799.067	325.77
799.459	300.03
799.851	342.16
800.243	339.82
800.635	314.07
801.027	321.09
801.419	330.45
801.811	300.03
802.203	309.39
802.594	295.35
802.986	318.75
803.378	290.67
803.769	325.77
804.161	339.82
804.552	262.58
804.944	307.05
805.335	311.73
805.726	269.6
806.118	290.67
806.509	278.96
806.9	330.45
807.291	314.07
807.682	363.22
808.073	274.28
808.464	293.01
808.855	365.56
809.245	309.39
809.636	283.64
810.027	323.43
810.417	300.03
810.808	297.69
811.198	264.92
811.589	285.98
811.979	351.52
812.369	325.77
812.759	278.96
813.15	314.07
813.54	248.54
813.93	332.79
814.32	283.64
814.71	349.18
815.1	374.92
815.489	300.03
815.879	300.03
816.269	285.98
816.658	342.16
817.048	302.37
817.438	321.09
817.827	278.96
818.216	323.43
818.606	309.39
818.995	295.35
819.384	318.75
819.773	302.37
820.163	309.39
820.552	260.24
820.941	300.03
821.33	260.24
821.718	314.07
822.107	250.88
822.496	288.32
822.885	330.45
823.273	283.64
823.662	365.56
824.05	335.14
824.439	325.77
824.827	318.75
825.216	365.56
825.604	316.41
825.992	330.45
826.38	307.05
826.768	293.01
827.156	307.05
827.544	288.32
827.932	328.11
828.32	297.69
828.708	271.94
829.096	255.56
829.483	335.14
829.871	274.28
830.259	316.41
830.646	321.09
831.034	276.62
831.421	321.09
831.808	253.22
832.196	302.37
832.583	281.3
832.97	328.11
833.357	267.26
833.744	311.73
834.131	267.26
834.518	232.15
834.905	321.09
835.292	328.11
835.678	262.58
836.065	276.62
836.452	344.5
836.838	220.45
837.225	321.09
837.611	325.77
837.998	323.43
838.384	297.69
838.77	328.11
839.157	309.39
839.543	283.64
839.929	243.85
840.315	278.96
840.701	367.9
841.087	325.77
841.473	248.54
841.858	274.28
842.244	278.96
842.63	300.03
843.015	344.5
843.401	594.93
843.787	337.48
844.172	358.54
844.557	255.56
844.943	349.18
845.328	271.94
845.713	321.09
846.098	276.62
846.483	323.43
846.868	234.49
847.253	302.37
847.638	309.39
848.023	356.2
848.408	332.79
848.793	293.01
849.177	267.26
849.562	283.64
849.947	344.5
850.331	304.71
850.715	323.43
851.1	300.03
851.484	328.11
851.868	325.77
852.253	257.9
852.637	393.65
853.021	358.54
853.405	316.41
853.789	269.6
854.173	351.52
854.557	321.09
854.94	318.75
855.324	297.69
855.708	311.73
856.091	337.48
856.475	276.62
856.858	199.38
857.242	316.41
857.625	346.84
858.009	255.56
858.392	300.03
858.775	267.26
859.158	358.54
859.541	283.64
859.924	253.22
860.307	250.88
860.69	290.67
861.073	388.97
861.456	356.2
861.838	316.41
862.221	349.18
862.604	367.9
862.986	309.39
863.369	311.73
863.751	307.05
864.133	229.81
864.516	295.35
864.898	316.41
865.28	360.88
865.662	330.45
866.044	356.2
866.426	332.79
866.808	283.64
867.19	281.3
867.572	295.35
867.954	297.69
868.336	281.3
868.717	271.94
869.099	325.77
869.48	300.03
869.862	330.45
870.243	283.64
870.625	339.82
871.006	363.22
871.387	274.28
871.768	314.07
872.149	300.03
872.53	253.22
872.911	321.09
873.292	314.07
873.673	267.26
874.054	330.45
874.435	274.28
874.815	276.62
875.196	267.26
875.577	248.54
875.957	314.07
876.338	253.22
876.718	285.98
877.098	271.94
877.479	351.52
877.859	314.07
878.239	316.41
878.619	309.39
878.999	325.77
879.379	281.3
879.759	323.43
880.139	349.18
880.519	349.18
880.898	353.86
881.278	367.9
881.658	356.2
882.037	328.11
882.417	295.35
882.796	339.82
883.176	342.16
883.555	349.18
883.934	302.37
884.313	295.35
884.693	290.67
885.072	285.98
885.451	300.03
885.83	281.3
886.209	332.79
886.587	349.18
886.966	300.03
887.345	316.41
887.724	264.92
888.102	290.67
888.481	318.75
888.859	278.96
889.238	269.6
889.616	323.43
889.994	353.86
890.373	339.82
890.751	377.27
891.129	316.41
891.507	300.03
891.885	293.01
892.263	388.97
892.641	248.54
893.019	269.6
893.396	293.01
893.774	337.48
894.152	239.17
894.529	323.43
894.907	297.69
895.284	304.71
895.662	297.69
896.039	276.62
896.416	304.71
896.794	293.01
897.171	328.11
897.548	274.28
897.925	309.39
898.302	267.26
898.679	271.94
899.056	302.37
899.433	285.98
899.809	260.24
900.186	229.81
900.563	372.58
900.939	300.03
901.316	262.58
901.692	339.82
902.069	318.75
902.445	325.77
902.821	339.82
903.197	274.28
903.574	360.88
903.95	297.69
904.326	278.96
904.702	285.98
905.078	337.48
905.454	309.39
905.829	358.54
906.205	297.69
906.581	290.67
906.956	307.05
907.332	307.05
907.707	332.79
908.083	274.28
908.458	339.82
908.833	325.77
909.209	358.54
909.584	262.58
909.959	318.75
910.334	351.52
910.709	274.28
911.084	314.07
911.459	316.41
911.834	278.96
912.209	290.67
912.583	300.03
912.958	360.88
913.333	311.73
913.707	339.82
914.082	349.18
914.456	293.01
914.83	220.45
915.205	318.75
915.579	295.35
915.953	318.75
916.327	271.94
916.701	290.67
917.075	316.41
917.449	342.16
917.823	297.69
918.197	339.82
918.571	302.37
918.944	260.24
919.318	243.85
919.692	325.77
920.065	290.67
920.438	337.48
920.812	321.09
921.185	344.5
921.558	288.32
921.932	307.05
922.305	311.73
922.678	257.9
923.051	330.45
923.424	278.96
923.797	293.01
924.17	356.2
924.542	351.52
924.915	356.2
925.288	358.54
925.661	300.03
926.033	293.01
926.406	271.94
926.778	227.47
927.15	323.43
927.523	353.86
927.895	318.75
928.267	274.28
928.639	314.07
929.011	318.75
929.383	293.01
929.755	264.92
930.127	356.2
930.499	365.56
930.871	335.14
931.242	318.75
931.614	328.11
931.986	395.99
932.357	260.24
932.729	316.41
933.1	316.41
933.471	288.32
933.843	281.3
934.214	344.5
934.585	335.14
934.956	316.41
935.327	311.73
935.698	311.73
936.069	307.05
936.44	330.45
936.811	316.41
937.182	304.71
937.552	314.07
937.923	255.56
938.293	314.07
938.664	288.32
939.034	309.39
939.405	360.88
939.775	257.9
940.145	309.39
940.516	255.56
940.886	349.18
941.256	346.84
941.626	285.98
941.996	283.64
942.366	360.88
942.735	360.88
943.105	311.73
943.475	300.03
943.845	290.67
944.214	285.98
944.584	332.79
944.953	243.85
945.323	335.14
945.692	339.82
946.061	356.2
946.43	304.71
946.8	316.41
947.169	363.22
947.538	323.43
947.907	316.41
948.276	257.9
948.645	274.28
949.013	264.92
949.382	285.98
949.751	255.56
950.119	276.62
950.488	356.2
950.857	360.88
951.225	267.26
951.593	356.2
951.962	337.48
952.33	339.82
952.698	262.58
953.066	257.9
953.434	325.77
953.802	293.01
954.17	323.43
954.538	297.69
954.906	309.39
955.274	236.83
955.642	304.71
956.009	276.62
956.377	363.22
956.744	236.83
957.112	281.3
957.479	267.26
957.847	276.62
958.214	246.2
958.581	300.03
958.948	283.64
959.315	323.43
959.683	323.43
960.05	318.75
960.416	293.01
960.783	276.62
961.15	337.48
961.517	300.03
961.884	353.86
962.25	276.62
962.617	360.88
962.983	260.24
963.35	311.73
963.716	269.6
964.082	300.03
964.449	365.56
964.815	293.01
965.181	318.75
965.547	278.96
965.913	321.09
966.279	353.86
966.645	337.48
967.011	302.37
967.377	302.37
967.742	281.3
968.108	269.6
968.474	339.82
968.839	295.35
969.205	295.35
969.57	344.5
969.935	316.41
970.301	309.39
970.666	281.3
971.031	323.43
971.396	339.82
971.761	307.05
972.126	311.73
972.491	222.79
972.856	328.11
973.221	332.79
973.586	255.56
973.95	295.35
974.315	311.73
974.679	330.45
975.044	276.62
975.408	309.39
975.773	342.16
976.137	234.49
976.501	314.07
976.866	271.94
977.23	297.69
977.594	281.3
977.958	325.77
978.322	290.67
978.686	330.45
979.049	307.05
979.413	269.6
979.777	293.01
980.141	311.73
980.504	281.3
980.868	302.37
981.231	283.64
981.595	300.03
981.958	318.75
982.321	264.92
982.684	285.98
983.048	239.17
983.411	288.32
983.774	293.01
984.137	318.75
984.5	281.3
984.862	262.58
985.225	255.56
985.588	365.56
985.951	311.73
986.313	330.45
986.676	278.96
987.038	314.07
987.401	283.64
987.763	360.88
988.125	281.3
988.488	358.54
988.85	360.88
989.212	267.26
989.574	267.26
989.936	260.24
990.298	211.09
990.66	300.03
991.022	290.67
991.383	337.48
991.745	311.73
992.107	337.48
992.468	321.09
992.83	288.32
993.191	269.6
993.553	295.35
993.914	232.15
994.275	229.81
994.637	311.73
994.998	358.54
995.359	314.07
995.72	353.86
996.081	328.11
996.442	332.79
996.803	360.88
997.163	328.11
997.524	274.28
997.885	335.14
998.245	323.43
998.606	253.22
998.966	274.28
999.327	318.75
999.687	316.41
1000.047	351.52
1000.408	307.05
1000.768	243.85
1001.128	283.64
1001.488	246.2
1001.848	267.26
1002.208	241.51
1002.568	283.64
1002.927	309.39
1003.287	304.71
1003.647	309.39
1004.007	269.6
1004.366	332.79
1004.726	269.6
1005.085	314.07
1005.444	321.09
1005.804	297.69
1006.163	253.22
1006.522	316.41
1006.881	318.75
1007.24	271.94
1007.599	311.73
1007.958	293.01
1008.317	330.45
1008.676	339.82
1009.035	293.01
1009.393	384.29
1009.752	309.39
1010.111	337.48
1010.469	229.81
1010.828	281.3
1011.186	297.69
1011.544	316.41
1011.903	349.18
1012.261	285.98
1012.619	236.83
1012.977	278.96
1013.335	274.28
1013.693	257.9
1014.051	290.67
1014.409	290.67
1014.767	339.82
1015.124	257.9
1015.482	271.94
1015.84	344.5
1016.197	297.69
1016.555	314.07
1016.912	248.54
1017.269	278.96
1017.627	297.69
1017.984	297.69
1018.341	225.13
1018.698	267.26
1019.055	321.09
1019.412	335.14
1019.769	335.14
1020.126	260.24
1020.483	318.75
1020.84	328.11
1021.196	302.37
1021.553	330.45
1021.909	311.73
1022.266	297.69
1022.622	311.73
1022.979	374.92
1023.335	314.07
1023.691	356.2
1024.047	307.05
1024.404	309.39
1024.76	335.14
1025.116	314.07
1025.472	278.96
1025.827	316.41
1026.183	293.01
1026.539	260.24
1026.895	309.39
1027.25	293.01
1027.606	344.5
1027.961	262.58
1028.317	293.01
1028.672	283.64
1029.028	262.58
1029.383	316.41
1029.738	269.6
1030.093	281.3
1030.448	323.43
1030.803	316.41
1031.158	316.41
1031.513	297.69
1031.868	302.37
1032.223	309.39
1032.577	302.37
1032.932	391.31
1033.287	264.92
1033.641	295.35
1033.996	311.73
1034.35	304.71
1034.704	302.37
1035.059	323.43
1035.413	342.16
1035.767	342.16
1036.121	342.16
