Data from Al_FLMS009871__1084__16-29-42-105.txt Node

Date: Fri Mar 08 16:29:42 CST 2024
User: pe5414po
Spectrometer: FLMS00987
Trigger mode: 0
Integration Time (sec): 1.000000E-1
Scans to average: 1
Electric dark correction enabled: true
Nonlinearity correction enabled: false
Boxcar width: 0
XAxis mode: Wavelengths
Number of Pixels in Spectrum: 2048
>>>>>Begin Spectral Data<<<<<
188.938	-101.67
189.409	-101.67
189.879	-101.67
190.349	-96.99
190.819	-61.88
191.29	-125.07
191.76	-82.94
192.23	-99.33
192.7	-61.88
193.17	-52.52
193.64	-61.88
194.109	-12.73
194.579	-29.11
195.049	31.74
195.519	55.15
195.988	69.19
196.458	97.28
196.927	38.77
197.397	87.92
197.866	80.89
198.336	64.51
198.805	139.41
199.274	146.43
199.744	186.22
200.213	251.75
200.682	258.78
201.151	211.96
201.62	289.2
202.089	211.96
202.558	216.65
203.027	317.29
203.495	303.25
203.964	300.91
204.433	261.12
204.902	268.14
205.37	254.09
205.839	275.16
206.307	268.14
206.776	282.18
207.244	307.93
207.712	254.09
208.181	317.29
208.649	261.12
209.117	305.59
209.585	310.27
210.053	291.54
210.521	357.08
210.989	272.82
211.457	312.61
211.925	375.8
212.393	282.18
212.861	333.67
213.328	300.91
213.796	270.48
214.264	291.54
214.731	300.91
215.199	233.03
215.666	291.54
216.133	249.41
216.601	244.73
217.068	235.37
217.535	249.41
218.003	258.78
218.47	261.12
218.937	272.82
219.404	268.14
219.871	251.75
220.338	242.39
220.805	202.6
221.271	207.28
221.738	209.62
222.205	226.01
222.671	254.09
223.138	251.75
223.605	282.18
224.071	233.03
224.538	277.5
225.004	310.27
225.47	282.18
225.937	179.2
226.403	277.5
226.869	270.48
227.335	272.82
227.801	254.09
228.267	249.41
228.733	242.39
229.199	268.14
229.665	338.35
230.131	319.63
230.597	251.75
231.062	310.27
231.528	317.29
231.994	305.59
232.459	296.22
232.925	310.27
233.39	296.22
233.856	375.8
234.321	242.39
234.786	256.43
235.252	272.82
235.717	298.56
236.182	361.76
236.647	277.5
237.112	270.48
237.577	272.82
238.042	240.05
238.507	293.88
238.972	279.84
239.436	305.59
239.901	258.78
240.366	242.39
240.83	256.43
241.295	291.54
241.76	326.65
242.224	256.43
242.688	324.31
243.153	270.48
243.617	347.72
244.081	277.5
244.545	307.93
245.01	345.38
245.474	272.82
245.938	328.99
246.402	270.48
246.866	333.67
247.33	282.18
247.793	211.96
248.257	226.01
248.721	230.69
249.185	298.56
249.648	263.46
250.112	242.39
250.575	254.09
251.039	317.29
251.502	277.5
251.965	254.09
252.429	291.54
252.892	333.67
253.355	282.18
253.818	228.35
254.281	319.63
254.744	272.82
255.207	270.48
255.67	277.5
256.133	261.12
256.596	244.73
257.059	268.14
257.522	319.63
257.984	284.52
258.447	258.78
258.909	268.14
259.372	340.69
259.834	272.82
260.297	247.07
260.759	233.03
261.221	317.29
261.684	293.88
262.146	272.82
262.608	270.48
263.07	338.35
263.532	319.63
263.994	312.61
264.456	268.14
264.918	338.35
265.38	286.86
265.842	314.95
266.303	307.93
266.765	317.29
267.227	244.73
267.688	270.48
268.15	340.69
268.611	272.82
269.072	296.22
269.534	282.18
269.995	286.86
270.456	317.29
270.918	324.31
271.379	298.56
271.84	328.99
272.301	326.65
272.762	366.44
273.223	284.52
273.684	310.27
274.144	314.95
274.605	268.14
275.066	328.99
275.527	204.94
275.987	300.91
276.448	279.84
276.908	256.43
277.369	296.22
277.829	272.82
278.289	343.03
278.75	300.91
279.21	275.16
279.67	293.88
280.13	258.78
280.59	293.88
281.05	277.5
281.51	303.25
281.97	270.48
282.43	303.25
282.89	289.2
283.35	303.25
283.809	270.48
284.269	296.22
284.729	298.56
285.188	300.91
285.648	312.61
286.107	314.95
286.567	307.93
287.026	343.03
287.485	268.14
287.944	307.93
288.404	289.2
288.863	305.59
289.322	312.61
289.781	279.84
290.24	277.5
290.699	291.54
291.158	317.29
291.616	298.56
292.075	305.59
292.534	354.74
292.992	324.31
293.451	249.41
293.91	249.41
294.368	312.61
294.827	296.22
295.285	251.75
295.743	336.01
296.202	284.52
296.66	298.56
297.118	326.65
297.576	254.09
298.034	319.63
298.492	321.97
298.95	272.82
299.408	314.95
299.866	263.46
300.324	282.18
300.781	293.88
301.239	319.63
301.697	321.97
302.154	268.14
302.612	310.27
303.069	303.25
303.527	300.91
303.984	265.8
304.441	307.93
304.899	319.63
305.356	312.61
305.813	333.67
306.27	336.01
306.727	282.18
307.184	282.18
307.641	275.16
308.098	242.39
308.555	286.86
309.012	300.91
309.468	305.59
309.925	321.97
310.382	328.99
310.838	279.84
311.295	394.53
311.751	303.25
312.208	336.01
312.664	310.27
313.12	291.54
313.577	324.31
314.033	293.88
314.489	343.03
314.945	319.63
315.401	328.99
315.857	321.97
316.313	317.29
316.769	378.14
317.225	305.59
317.681	286.86
318.136	270.48
318.592	314.95
319.048	275.16
319.503	350.06
319.959	279.84
320.414	300.91
320.869	359.42
321.325	256.43
321.78	275.16
322.235	328.99
322.691	235.37
323.146	303.25
323.601	321.97
324.056	265.8
324.511	277.5
324.966	352.4
325.421	321.97
325.875	270.48
326.33	373.46
326.785	321.97
327.24	336.01
327.694	293.88
328.149	343.03
328.603	319.63
329.058	307.93
329.512	314.95
329.966	293.88
330.421	303.25
330.875	263.46
331.329	305.59
331.783	340.69
332.237	312.61
332.691	284.52
333.145	291.54
333.599	275.16
334.053	284.52
334.507	307.93
334.96	345.38
335.414	357.08
335.868	387.5
336.321	284.52
336.775	291.54
337.228	357.08
337.682	333.67
338.135	326.65
338.588	354.74
339.042	268.14
339.495	300.91
339.948	284.52
340.401	314.95
340.854	286.86
341.307	326.65
341.76	338.35
342.213	265.8
342.666	298.56
343.119	378.14
343.571	328.99
344.024	328.99
344.477	279.84
344.929	286.86
345.382	312.61
345.834	343.03
346.287	324.31
346.739	375.8
347.191	406.23
347.644	298.56
348.096	317.29
348.548	307.93
349	385.16
349.452	317.29
349.904	314.95
350.356	347.72
350.808	296.22
351.26	296.22
351.711	314.95
352.163	345.38
352.615	338.35
353.066	350.06
353.518	350.06
353.969	289.2
354.421	314.95
354.872	333.67
355.324	312.61
355.775	256.43
356.226	263.46
356.677	303.25
357.128	317.29
357.579	312.61
358.03	261.12
358.481	324.31
358.932	326.65
359.383	319.63
359.834	331.33
360.285	319.63
360.735	312.61
361.186	357.08
361.637	314.95
362.087	312.61
362.538	352.4
362.988	336.01
363.438	268.14
363.889	326.65
364.339	298.56
364.789	326.65
365.239	258.78
365.689	298.56
366.139	343.03
366.589	328.99
367.039	333.67
367.489	350.06
367.939	324.31
368.389	350.06
368.839	371.12
369.288	317.29
369.738	317.29
370.187	373.46
370.637	312.61
371.086	312.61
371.536	314.95
371.985	319.63
372.434	258.78
372.884	228.35
373.333	345.38
373.782	293.88
374.231	394.53
374.68	312.61
375.129	312.61
375.578	291.54
376.027	350.06
376.475	305.59
376.924	237.71
377.373	298.56
377.822	286.86
378.27	382.82
378.719	298.56
379.167	350.06
379.616	324.31
380.064	312.61
380.512	371.12
380.961	268.14
381.409	284.52
381.857	312.61
382.305	317.29
382.753	336.01
383.201	336.01
383.649	298.56
384.097	284.52
384.545	314.95
384.992	357.08
385.44	319.63
385.888	300.91
386.335	336.01
386.783	256.43
387.231	277.5
387.678	310.27
388.125	333.67
388.573	272.82
389.02	336.01
389.467	350.06
389.914	343.03
390.362	354.74
390.809	413.25
391.256	375.8
391.703	298.56
392.15	359.42
392.596	361.76
393.043	305.59
393.49	310.27
393.937	324.31
394.383	331.33
394.83	364.1
395.276	340.69
395.723	324.31
396.169	298.56
396.616	312.61
397.062	314.95
397.508	354.74
397.954	345.38
398.401	314.95
398.847	307.93
399.293	345.38
399.739	333.67
400.185	366.44
400.631	275.16
401.076	333.67
401.522	338.35
401.968	303.25
402.414	324.31
402.859	321.97
403.305	303.25
403.75	357.08
404.196	354.74
404.641	364.1
405.086	317.29
405.532	345.38
405.977	338.35
406.422	300.91
406.867	319.63
407.312	310.27
407.757	296.22
408.202	272.82
408.647	328.99
409.092	291.54
409.537	357.08
409.982	270.48
410.426	305.59
410.871	328.99
411.316	328.99
411.76	235.37
412.205	319.63
412.649	378.14
413.093	291.54
413.538	371.12
413.982	343.03
414.426	352.4
414.87	317.29
415.314	338.35
415.758	298.56
416.202	317.29
416.646	195.58
417.09	328.99
417.534	258.78
417.978	338.35
418.421	338.35
418.865	333.67
419.309	347.72
419.752	336.01
420.196	314.95
420.639	263.46
421.083	326.65
421.526	286.86
421.969	385.16
422.412	331.33
422.856	300.91
423.299	361.76
423.742	354.74
424.185	249.41
424.628	359.42
425.071	324.31
425.513	350.06
425.956	328.99
426.399	279.84
426.842	364.1
427.284	331.33
427.727	307.93
428.169	272.82
428.612	385.16
429.054	300.91
429.497	298.56
429.939	291.54
430.381	310.27
430.823	282.18
431.265	300.91
431.707	366.44
432.149	324.31
432.591	286.86
433.033	324.31
433.475	314.95
433.917	352.4
434.359	307.93
434.8	350.06
435.242	307.93
435.684	275.16
436.125	321.97
436.567	343.03
437.008	350.06
437.449	366.44
437.891	307.93
438.332	312.61
438.773	307.93
439.214	317.29
439.656	282.18
440.097	282.18
440.538	307.93
440.978	338.35
441.419	282.18
441.86	268.14
442.301	343.03
442.742	371.12
443.182	319.63
443.623	347.72
444.063	331.33
444.504	298.56
444.944	293.88
445.385	268.14
445.825	319.63
446.265	350.06
446.706	338.35
447.146	284.52
447.586	275.16
448.026	357.08
448.466	298.56
448.906	300.91
449.346	228.35
449.786	336.01
450.225	338.35
450.665	319.63
451.105	319.63
451.544	368.78
451.984	277.5
452.424	324.31
452.863	352.4
453.302	380.48
453.742	382.82
454.181	345.38
454.62	340.69
455.059	307.93
455.499	326.65
455.938	291.54
456.377	399.21
456.816	275.16
457.254	347.72
457.693	357.08
458.132	343.03
458.571	331.33
459.01	368.78
459.448	291.54
459.887	263.46
460.325	331.33
460.764	279.84
461.202	321.97
461.641	361.76
462.079	314.95
462.517	345.38
462.955	310.27
463.393	303.25
463.832	303.25
464.27	307.93
464.708	244.73
465.145	282.18
465.583	387.5
466.021	303.25
466.459	333.67
466.897	272.82
467.334	324.31
467.772	373.46
468.209	331.33
468.647	340.69
469.084	333.67
469.522	350.06
469.959	328.99
470.396	336.01
470.833	321.97
471.271	326.65
471.708	265.8
472.145	343.03
472.582	389.85
473.019	289.2
473.456	399.21
473.892	298.56
474.329	284.52
474.766	265.8
475.202	343.03
475.639	312.61
476.076	314.95
476.512	321.97
476.949	382.82
477.385	331.33
477.821	321.97
478.258	345.38
478.694	275.16
479.13	319.63
479.566	293.88
480.002	340.69
480.438	300.91
480.874	364.1
481.31	305.59
481.746	317.29
482.181	303.25
482.617	258.78
483.053	310.27
483.488	368.78
483.924	352.4
484.36	289.2
484.795	340.69
485.23	366.44
485.666	336.01
486.101	336.01
486.536	240.05
486.971	307.93
487.407	291.54
487.842	244.73
488.277	310.27
488.712	303.25
489.146	343.03
489.581	347.72
490.016	319.63
490.451	324.31
490.885	326.65
491.32	289.2
491.755	333.67
492.189	282.18
492.624	326.65
493.058	310.27
493.492	291.54
493.927	270.48
494.361	282.18
494.795	324.31
495.229	310.27
495.663	371.12
496.097	343.03
496.531	347.72
496.965	307.93
497.399	380.48
497.833	326.65
498.266	321.97
498.7	324.31
499.134	272.82
499.567	293.88
500.001	300.91
500.434	326.65
500.868	317.29
501.301	357.08
501.734	336.01
502.168	328.99
502.601	352.4
503.034	300.91
503.467	300.91
503.9	338.35
504.333	333.67
504.766	298.56
505.199	314.95
505.632	347.72
506.064	291.54
506.497	284.52
506.93	310.27
507.362	345.38
507.795	389.85
508.227	263.46
508.66	345.38
509.092	300.91
509.524	268.14
509.956	354.74
510.389	352.4
510.821	282.18
511.253	403.89
511.685	289.2
512.117	296.22
512.549	270.48
512.981	310.27
513.412	343.03
513.844	296.22
514.276	382.82
514.707	258.78
515.139	277.5
515.571	336.01
516.002	401.55
516.433	272.82
516.865	382.82
517.296	261.12
517.727	347.72
518.159	300.91
518.59	324.31
519.021	286.86
519.452	375.8
519.883	324.31
520.314	296.22
520.744	279.84
521.175	321.97
521.606	371.12
522.037	298.56
522.467	345.38
522.898	375.8
523.328	340.69
523.759	317.29
524.189	282.18
524.62	319.63
525.05	272.82
525.48	275.16
525.91	361.76
526.341	338.35
526.771	357.08
527.201	347.72
527.631	382.82
528.061	293.88
528.49	314.95
528.92	300.91
529.35	300.91
529.78	338.35
530.209	317.29
530.639	298.56
531.068	357.08
531.498	282.18
531.927	286.86
532.357	417.93
532.786	324.31
533.215	244.73
533.644	272.82
534.074	293.88
534.503	307.93
534.932	284.52
535.361	352.4
535.79	403.89
536.218	275.16
536.647	324.31
537.076	354.74
537.505	312.61
537.933	258.78
538.362	307.93
538.79	293.88
539.219	240.05
539.647	392.19
540.076	298.56
540.504	319.63
540.932	382.82
541.36	331.33
541.788	286.86
542.217	343.03
542.645	333.67
543.073	324.31
543.5	364.1
543.928	373.46
544.356	256.43
544.784	326.65
545.211	326.65
545.639	282.18
546.067	328.99
546.494	401.55
546.922	319.63
547.349	282.18
547.776	300.91
548.204	282.18
548.631	338.35
549.058	357.08
549.485	343.03
549.912	314.95
550.339	300.91
550.766	352.4
551.193	268.14
551.62	340.69
552.047	279.84
552.474	338.35
552.9	312.61
553.327	303.25
553.754	307.93
554.18	357.08
554.607	272.82
555.033	340.69
555.459	336.01
555.886	357.08
556.312	310.27
556.738	366.44
557.164	345.38
557.59	385.16
558.016	338.35
558.442	347.72
558.868	296.22
559.294	333.67
559.72	263.46
560.145	263.46
560.571	338.35
560.997	359.42
561.422	303.25
561.848	314.95
562.273	328.99
562.699	277.5
563.124	326.65
563.549	350.06
563.974	378.14
564.4	296.22
564.825	354.74
565.25	347.72
565.675	350.06
566.1	298.56
566.525	345.38
566.95	385.16
567.374	319.63
567.799	345.38
568.224	314.95
568.648	296.22
569.073	319.63
569.497	296.22
569.922	314.95
570.346	303.25
570.771	303.25
571.195	296.22
571.619	331.33
572.043	364.1
572.467	350.06
572.891	368.78
573.315	317.29
573.739	312.61
574.163	333.67
574.587	321.97
575.011	326.65
575.435	282.18
575.858	317.29
576.282	350.06
576.705	233.03
577.129	347.72
577.552	314.95
577.976	314.95
578.399	307.93
578.822	347.72
579.245	319.63
579.669	284.52
580.092	279.84
580.515	357.08
580.938	263.46
581.361	268.14
581.784	289.2
582.206	310.27
582.629	357.08
583.052	347.72
583.474	317.29
583.897	408.57
584.32	324.31
584.742	333.67
585.165	324.31
585.587	343.03
586.009	326.65
586.431	317.29
586.854	279.84
587.276	340.69
587.698	373.46
588.12	343.03
588.542	343.03
588.964	352.4
589.386	336.01
589.807	357.08
590.229	293.88
590.651	359.42
591.073	307.93
591.494	347.72
591.916	249.41
592.337	354.74
592.759	270.48
593.18	286.86
593.601	305.59
594.022	340.69
594.444	338.35
594.865	347.72
595.286	321.97
595.707	303.25
596.128	265.8
596.549	333.67
596.97	375.8
597.39	275.16
597.811	336.01
598.232	293.88
598.652	331.33
599.073	352.4
599.494	317.29
599.914	333.67
600.334	298.56
600.755	340.69
601.175	298.56
601.595	338.35
602.015	345.38
602.436	347.72
602.856	424.95
603.276	305.59
603.696	343.03
604.115	314.95
604.535	300.91
604.955	359.42
605.375	340.69
605.794	345.38
606.214	303.25
606.634	291.54
607.053	321.97
607.473	350.06
607.892	319.63
608.311	378.14
608.731	305.59
609.15	317.29
609.569	321.97
609.988	324.31
610.407	321.97
610.826	289.2
611.245	314.95
611.664	233.03
612.083	331.33
612.501	303.25
612.92	333.67
613.339	336.01
613.757	324.31
614.176	392.19
614.594	336.01
615.013	364.1
615.431	319.63
615.85	303.25
616.268	305.59
616.686	310.27
617.104	338.35
617.522	300.91
617.94	336.01
618.358	326.65
618.776	366.44
619.194	300.91
619.612	333.67
620.03	343.03
620.447	300.91
620.865	361.76
621.282	314.95
621.7	382.82
622.117	340.69
622.535	333.67
622.952	307.93
623.369	265.8
623.787	347.72
624.204	293.88
624.621	317.29
625.038	371.12
625.455	303.25
625.872	328.99
626.289	321.97
626.706	352.4
627.123	279.84
627.539	364.1
627.956	272.82
628.373	298.56
628.789	340.69
629.206	343.03
629.622	328.99
630.038	319.63
630.455	282.18
630.871	279.84
631.287	307.93
631.703	338.35
632.12	347.72
632.536	282.18
632.952	324.31
633.368	305.59
633.783	305.59
634.199	333.67
634.615	291.54
635.031	289.2
635.446	354.74
635.862	289.2
636.277	326.65
636.693	305.59
637.108	314.95
637.524	357.08
637.939	333.67
638.354	333.67
638.77	298.56
639.185	312.61
639.6	343.03
640.015	364.1
640.43	326.65
640.845	347.72
641.259	261.12
641.674	317.29
642.089	333.67
642.504	296.22
642.918	286.86
643.333	347.72
643.747	258.78
644.162	359.42
644.576	312.61
644.991	317.29
645.405	300.91
645.819	275.16
646.233	293.88
646.647	354.74
647.061	291.54
647.475	319.63
647.889	298.56
648.303	279.84
648.717	375.8
649.131	310.27
649.545	277.5
649.958	286.86
650.372	357.08
650.785	357.08
651.199	361.76
651.612	312.61
652.026	331.33
652.439	361.76
652.852	385.16
653.266	317.29
653.679	321.97
654.092	331.33
654.505	368.78
654.918	347.72
655.331	258.78
655.744	336.01
656.156	321.97
656.569	293.88
656.982	310.27
657.394	279.84
657.807	282.18
658.22	317.29
658.632	303.25
659.044	314.95
659.457	338.35
659.869	314.95
660.281	300.91
660.693	331.33
661.106	312.61
661.518	319.63
661.93	331.33
662.342	305.59
662.754	345.38
663.165	321.97
663.577	333.67
663.989	293.88
664.401	336.01
664.812	324.31
665.224	247.07
665.635	326.65
666.047	289.2
666.458	324.31
666.869	378.14
667.281	251.75
667.692	380.48
668.103	305.59
668.514	298.56
668.925	336.01
669.336	296.22
669.747	331.33
670.158	326.65
670.569	394.53
670.979	338.35
671.39	326.65
671.801	345.38
672.211	282.18
672.622	319.63
673.032	324.31
673.443	277.5
673.853	282.18
674.263	291.54
674.674	328.99
675.084	331.33
675.494	345.38
675.904	343.03
676.314	328.99
676.724	272.82
677.134	307.93
677.544	310.27
677.953	303.25
678.363	310.27
678.773	417.93
679.182	366.44
679.592	258.78
680.001	303.25
680.411	328.99
680.82	364.1
681.23	319.63
681.639	336.01
682.048	293.88
682.457	352.4
682.866	291.54
683.275	286.86
683.684	296.22
684.093	350.06
684.502	354.74
684.911	296.22
685.32	331.33
685.728	270.48
686.137	312.61
686.546	338.35
686.954	321.97
687.363	326.65
687.771	371.12
688.179	247.07
688.588	305.59
688.996	279.84
689.404	319.63
689.812	378.14
690.22	284.52
690.628	326.65
691.036	305.59
691.444	324.31
691.852	289.2
692.26	279.84
692.667	300.91
693.075	321.97
693.483	312.61
693.89	328.99
694.298	347.72
694.705	310.27
695.112	307.93
695.52	331.33
695.927	352.4
696.334	361.76
696.741	324.31
697.148	366.44
697.555	265.8
697.962	284.52
698.369	331.33
698.776	298.56
699.183	324.31
699.59	307.93
699.996	354.74
700.403	382.82
700.81	319.63
701.216	303.25
701.623	305.59
702.029	296.22
702.435	296.22
702.842	347.72
703.248	293.88
703.654	303.25
704.06	345.38
704.466	284.52
704.872	249.41
705.278	340.69
705.684	307.93
706.09	268.14
706.496	317.29
706.901	270.48
707.307	340.69
707.712	333.67
708.118	345.38
708.523	296.22
708.929	347.72
709.334	350.06
709.74	307.93
710.145	305.59
710.55	284.52
710.955	305.59
711.36	279.84
711.765	258.78
712.17	289.2
712.575	261.12
712.98	953.91
713.385	347.72
713.789	317.29
714.194	380.48
714.599	343.03
715.003	394.53
715.408	314.95
715.812	366.44
716.217	354.74
716.621	303.25
717.025	375.8
717.429	345.38
717.833	305.59
718.238	240.05
718.642	293.88
719.046	343.03
719.449	310.27
719.853	293.88
720.257	378.14
720.661	195.58
721.065	284.52
721.468	328.99
721.872	284.52
722.275	336.01
722.679	216.65
723.082	237.71
723.485	296.22
723.889	270.48
724.292	300.91
724.695	286.86
725.098	373.46
725.501	317.29
725.904	319.63
726.307	272.82
726.71	392.19
727.113	352.4
727.516	296.22
727.918	291.54
728.321	296.22
728.724	338.35
729.126	307.93
729.529	307.93
729.931	328.99
730.333	321.97
730.736	324.31
731.138	286.86
731.54	328.99
731.942	328.99
732.344	331.33
732.746	373.46
733.148	293.88
733.55	291.54
733.952	244.73
734.354	307.93
734.756	296.22
735.157	307.93
735.559	272.82
735.96	361.76
736.362	399.21
736.763	298.56
737.165	310.27
737.566	371.12
737.967	336.01
738.368	378.14
738.77	328.99
739.171	258.78
739.572	265.8
739.973	361.76
740.374	312.61
740.774	314.95
741.175	326.65
741.576	289.2
741.977	293.88
742.377	303.25
742.778	326.65
743.178	277.5
743.579	333.67
743.979	354.74
744.379	326.65
744.78	291.54
745.18	331.33
745.58	326.65
745.98	286.86
746.38	291.54
746.78	328.99
747.18	284.52
747.58	268.14
747.98	293.88
748.38	347.72
748.779	296.22
749.179	307.93
749.578	326.65
749.978	275.16
750.377	314.95
750.777	242.39
751.176	314.95
751.575	338.35
751.975	326.65
752.374	261.12
752.773	263.46
753.172	340.69
753.571	296.22
753.97	240.05
754.369	282.18
754.768	249.41
755.166	312.61
755.565	392.19
755.964	354.74
756.362	324.31
756.761	387.5
757.159	321.97
757.558	319.63
757.956	277.5
758.354	298.56
758.753	317.29
759.151	331.33
759.549	319.63
759.947	307.93
760.345	361.76
760.743	319.63
761.141	293.88
761.539	282.18
761.936	268.14
762.334	340.69
762.732	333.67
763.129	293.88
763.527	300.91
763.924	364.1
764.322	336.01
764.719	303.25
765.117	336.01
765.514	296.22
765.911	296.22
766.308	296.22
766.705	251.75
767.102	352.4
767.499	336.01
767.896	279.84
768.293	279.84
768.69	338.35
769.086	270.48
769.483	310.27
769.88	286.86
770.276	305.59
770.673	268.14
771.069	338.35
771.466	286.86
771.862	261.12
772.258	312.61
772.654	321.97
773.05	268.14
773.447	293.88
773.843	366.44
774.239	331.33
774.634	364.1
775.03	312.61
775.426	303.25
775.822	272.82
776.218	256.43
776.613	310.27
777.009	340.69
777.404	382.82
777.8	263.46
778.195	251.75
778.59	286.86
778.986	368.78
779.381	324.31
779.776	258.78
780.171	347.72
780.566	303.25
780.961	350.06
781.356	326.65
781.751	303.25
782.146	347.72
782.54	303.25
782.935	326.65
783.33	380.48
783.724	340.69
784.119	310.27
784.513	336.01
784.908	328.99
785.302	331.33
785.696	359.42
786.09	305.59
786.485	357.08
786.879	361.76
787.273	312.61
787.667	340.69
788.061	340.69
788.454	272.82
788.848	275.16
789.242	373.46
789.636	279.84
790.029	233.03
790.423	282.18
790.816	293.88
791.21	361.76
791.603	333.67
791.997	314.95
792.39	403.89
792.783	326.65
793.176	312.61
793.569	321.97
793.962	340.69
794.355	258.78
794.748	305.59
795.141	350.06
795.534	345.38
795.927	307.93
796.319	359.42
796.712	307.93
797.105	368.78
797.497	422.61
797.89	277.5
798.282	307.93
798.674	277.5
799.067	326.65
799.459	352.4
799.851	368.78
800.243	324.31
800.635	279.84
801.027	361.76
801.419	350.06
801.811	326.65
802.203	350.06
802.594	324.31
802.986	373.46
803.378	336.01
803.769	207.28
804.161	265.8
804.552	275.16
804.944	272.82
805.335	282.18
805.726	333.67
806.118	312.61
806.509	293.88
806.9	314.95
807.291	324.31
807.682	321.97
808.073	350.06
808.464	261.12
808.855	331.33
809.245	293.88
809.636	261.12
810.027	307.93
810.417	291.54
810.808	317.29
811.198	345.38
811.589	300.91
811.979	305.59
812.369	314.95
812.759	333.67
813.15	333.67
813.54	347.72
813.93	350.06
814.32	345.38
814.71	265.8
815.1	331.33
815.489	328.99
815.879	289.2
816.269	319.63
816.658	317.29
817.048	340.69
817.438	272.82
817.827	338.35
818.216	357.08
818.606	333.67
818.995	350.06
819.384	254.09
819.773	300.91
820.163	338.35
820.552	368.78
820.941	303.25
821.33	286.86
821.718	263.46
822.107	296.22
822.496	317.29
822.885	303.25
823.273	293.88
823.662	291.54
824.05	270.48
824.439	286.86
824.827	331.33
825.216	336.01
825.604	277.5
825.992	328.99
826.38	307.93
826.768	321.97
827.156	305.59
827.544	293.88
827.932	347.72
828.32	343.03
828.708	284.52
829.096	293.88
829.483	359.42
829.871	333.67
830.259	256.43
830.646	382.82
831.034	275.16
831.421	284.52
831.808	373.46
832.196	279.84
832.583	314.95
832.97	336.01
833.357	275.16
833.744	328.99
834.131	375.8
834.518	303.25
834.905	366.44
835.292	279.84
835.678	305.59
836.065	305.59
836.452	321.97
836.838	319.63
837.225	282.18
837.611	331.33
837.998	354.74
838.384	326.65
838.77	338.35
839.157	314.95
839.543	373.46
839.929	347.72
840.315	282.18
840.701	380.48
841.087	317.29
841.473	338.35
841.858	305.59
842.244	296.22
842.63	289.2
843.015	328.99
843.401	581.77
843.787	336.01
844.172	289.2
844.557	249.41
844.943	352.4
845.328	361.76
845.713	333.67
846.098	310.27
846.483	298.56
846.868	317.29
847.253	312.61
847.638	378.14
848.023	235.37
848.408	375.8
848.793	296.22
849.177	293.88
849.562	345.38
849.947	328.99
850.331	328.99
850.715	312.61
851.1	242.39
851.484	352.4
851.868	277.5
852.253	282.18
852.637	270.48
853.021	305.59
853.405	275.16
853.789	312.61
854.173	394.53
854.557	296.22
854.94	312.61
855.324	284.52
855.708	312.61
856.091	305.59
856.475	373.46
856.858	340.69
857.242	307.93
857.625	350.06
858.009	336.01
858.392	333.67
858.775	293.88
859.158	333.67
859.541	336.01
859.924	277.5
860.307	326.65
860.69	298.56
861.073	321.97
861.456	347.72
861.838	265.8
862.221	343.03
862.604	286.86
862.986	336.01
863.369	328.99
863.751	293.88
864.133	298.56
864.516	289.2
864.898	371.12
865.28	328.99
865.662	350.06
866.044	314.95
866.426	333.67
866.808	237.71
867.19	244.73
867.572	350.06
867.954	256.43
868.336	317.29
868.717	331.33
869.099	319.63
869.48	326.65
869.862	354.74
870.243	314.95
870.625	336.01
871.006	361.76
871.387	389.85
871.768	361.76
872.149	317.29
872.53	310.27
872.911	289.2
873.292	364.1
873.673	326.65
874.054	268.14
874.435	319.63
874.815	258.78
875.196	319.63
875.577	277.5
875.957	326.65
876.338	272.82
876.718	317.29
877.098	300.91
877.479	256.43
877.859	347.72
878.239	296.22
878.619	343.03
878.999	357.08
879.379	368.78
879.759	319.63
880.139	293.88
880.519	293.88
880.898	277.5
881.278	228.35
881.658	310.27
882.037	317.29
882.417	265.8
882.796	270.48
883.176	312.61
883.555	324.31
883.934	314.95
884.313	284.52
884.693	291.54
885.072	321.97
885.451	317.29
885.83	284.52
886.209	242.39
886.587	277.5
886.966	354.74
887.345	328.99
887.724	307.93
888.102	296.22
888.481	275.16
888.859	347.72
889.238	277.5
889.616	254.09
889.994	368.78
890.373	331.33
890.751	300.91
891.129	326.65
891.507	352.4
891.885	279.84
892.263	340.69
892.641	291.54
893.019	380.48
893.396	270.48
893.774	296.22
894.152	331.33
894.529	277.5
894.907	368.78
895.284	305.59
895.662	317.29
896.039	275.16
896.416	303.25
896.794	312.61
897.171	326.65
897.548	282.18
897.925	368.78
898.302	293.88
898.679	326.65
899.056	319.63
899.433	314.95
899.809	298.56
900.186	317.29
900.563	324.31
900.939	277.5
901.316	378.14
901.692	324.31
902.069	286.86
902.445	326.65
902.821	340.69
903.197	317.29
903.574	307.93
903.95	359.42
904.326	263.46
904.702	336.01
905.078	389.85
905.454	324.31
905.829	321.97
906.205	300.91
906.581	277.5
906.956	279.84
907.332	331.33
907.707	261.12
908.083	310.27
908.458	364.1
908.833	338.35
909.209	321.97
909.584	286.86
909.959	328.99
910.334	328.99
910.709	296.22
911.084	261.12
911.459	284.52
911.834	291.54
912.209	310.27
912.583	336.01
912.958	319.63
913.333	307.93
913.707	343.03
914.082	296.22
914.456	286.86
914.83	272.82
915.205	296.22
915.579	303.25
915.953	303.25
916.327	261.12
916.701	286.86
917.075	326.65
917.449	228.35
917.823	321.97
918.197	282.18
918.571	312.61
918.944	328.99
919.318	307.93
919.692	284.52
920.065	314.95
920.438	307.93
920.812	305.59
921.185	319.63
921.558	251.75
921.932	359.42
922.305	314.95
922.678	303.25
923.051	333.67
923.424	338.35
923.797	317.29
924.17	331.33
924.542	312.61
924.915	345.38
925.288	286.86
925.661	305.59
926.033	279.84
926.406	289.2
926.778	328.99
927.15	303.25
927.523	307.93
927.895	272.82
928.267	286.86
928.639	226.01
929.011	261.12
929.383	333.67
929.755	319.63
930.127	317.29
930.499	352.4
930.871	296.22
931.242	382.82
931.614	305.59
931.986	324.31
932.357	298.56
932.729	359.42
933.1	319.63
933.471	373.46
933.843	364.1
934.214	300.91
934.585	321.97
934.956	380.48
935.327	277.5
935.698	357.08
936.069	328.99
936.44	326.65
936.811	345.38
937.182	298.56
937.552	357.08
937.923	263.46
938.293	310.27
938.664	282.18
939.034	258.78
939.405	272.82
939.775	338.35
940.145	282.18
940.516	310.27
940.886	307.93
941.256	333.67
941.626	328.99
941.996	286.86
942.366	272.82
942.735	324.31
943.105	312.61
943.475	296.22
943.845	303.25
944.214	268.14
944.584	275.16
944.953	410.91
945.323	279.84
945.692	420.27
946.061	270.48
946.43	317.29
946.8	319.63
947.169	277.5
947.538	300.91
947.907	319.63
948.276	352.4
948.645	282.18
949.013	317.29
949.382	296.22
949.751	357.08
950.119	303.25
950.488	305.59
950.857	296.22
951.225	373.46
951.593	305.59
951.962	317.29
952.33	354.74
952.698	289.2
953.066	286.86
953.434	293.88
953.802	343.03
954.17	282.18
954.538	310.27
954.906	298.56
955.274	275.16
955.642	326.65
956.009	282.18
956.377	300.91
956.744	291.54
957.112	326.65
957.479	244.73
957.847	300.91
958.214	296.22
958.581	300.91
958.948	286.86
959.315	296.22
959.683	310.27
960.05	359.42
960.416	282.18
960.783	293.88
961.15	303.25
961.517	333.67
961.884	331.33
962.25	268.14
962.617	415.59
962.983	303.25
963.35	321.97
963.716	307.93
964.082	326.65
964.449	368.78
964.815	345.38
965.181	317.29
965.547	272.82
965.913	338.35
966.279	284.52
966.645	347.72
967.011	324.31
967.377	272.82
967.742	282.18
968.108	307.93
968.474	268.14
968.839	331.33
969.205	300.91
969.57	277.5
969.935	300.91
970.301	298.56
970.666	279.84
971.031	310.27
971.396	261.12
971.761	380.48
972.126	268.14
972.491	263.46
972.856	300.91
973.221	310.27
973.586	275.16
973.95	345.38
974.315	268.14
974.679	272.82
975.044	286.86
975.408	284.52
975.773	319.63
976.137	321.97
976.501	305.59
976.866	331.33
977.23	326.65
977.594	347.72
977.958	303.25
978.322	251.75
978.686	350.06
979.049	328.99
979.413	347.72
979.777	303.25
980.141	352.4
980.504	307.93
980.868	314.95
981.231	286.86
981.595	256.43
981.958	326.65
982.321	314.95
982.684	256.43
983.048	265.8
983.411	317.29
983.774	310.27
984.137	336.01
984.5	317.29
984.862	247.07
985.225	314.95
985.588	258.78
985.951	310.27
986.313	310.27
986.676	340.69
987.038	293.88
987.401	289.2
987.763	347.72
988.125	286.86
988.488	270.48
988.85	364.1
989.212	328.99
989.574	333.67
989.936	312.61
990.298	263.46
990.66	319.63
991.022	314.95
991.383	284.52
991.745	350.06
992.107	352.4
992.468	244.73
992.83	359.42
993.191	340.69
993.553	284.52
993.914	350.06
994.275	296.22
994.637	382.82
994.998	321.97
995.359	307.93
995.72	284.52
996.081	364.1
996.442	282.18
996.803	317.29
997.163	314.95
997.524	303.25
997.885	343.03
998.245	347.72
998.606	286.86
998.966	307.93
999.327	265.8
999.687	350.06
1000.047	263.46
1000.408	293.88
1000.768	254.09
1001.128	270.48
1001.488	293.88
1001.848	207.28
1002.208	336.01
1002.568	277.5
1002.927	254.09
1003.287	265.8
1003.647	343.03
1004.007	258.78
1004.366	242.39
1004.726	258.78
1005.085	312.61
1005.444	321.97
1005.804	331.33
1006.163	277.5
1006.522	279.84
1006.881	331.33
1007.24	340.69
1007.599	279.84
1007.958	261.12
1008.317	319.63
1008.676	303.25
1009.035	298.56
1009.393	226.01
1009.752	263.46
1010.111	319.63
1010.469	382.82
1010.828	357.08
1011.186	305.59
1011.544	347.72
1011.903	333.67
1012.261	296.22
1012.619	272.82
1012.977	298.56
1013.335	333.67
1013.693	270.48
1014.051	345.38
1014.409	333.67
1014.767	357.08
1015.124	307.93
1015.482	347.72
1015.84	333.67
1016.197	350.06
1016.555	333.67
1016.912	300.91
1017.269	254.09
1017.627	209.62
1017.984	345.38
1018.341	336.01
1018.698	300.91
1019.055	343.03
1019.412	298.56
1019.769	296.22
1020.126	300.91
1020.483	319.63
1020.84	368.78
1021.196	291.54
1021.553	336.01
1021.909	272.82
1022.266	226.01
1022.622	289.2
1022.979	310.27
1023.335	371.12
1023.691	324.31
1024.047	361.76
1024.404	389.85
1024.76	314.95
1025.116	303.25
1025.472	279.84
1025.827	336.01
1026.183	336.01
1026.539	331.33
1026.895	387.5
1027.25	338.35
1027.606	333.67
1027.961	343.03
1028.317	298.56
1028.672	354.74
1029.028	272.82
1029.383	289.2
1029.738	303.25
1030.093	272.82
1030.448	328.99
1030.803	300.91
1031.158	324.31
1031.513	340.69
1031.868	305.59
1032.223	235.37
1032.577	282.18
1032.932	307.93
1033.287	303.25
1033.641	275.16
1033.996	324.31
1034.35	343.03
1034.704	305.59
1035.059	242.39
1035.413	307.93
1035.767	307.93
1036.121	307.93
