Data from Al_FLMS009871__1080__16-29-41-705.txt Node

Date: Fri Mar 08 16:29:41 CST 2024
User: pe5414po
Spectrometer: FLMS00987
Trigger mode: 0
Integration Time (sec): 1.000000E-1
Scans to average: 1
Electric dark correction enabled: true
Nonlinearity correction enabled: false
Boxcar width: 0
XAxis mode: Wavelengths
Number of Pixels in Spectrum: 2048
>>>>>Begin Spectral Data<<<<<
188.938	-67.14
189.409	-67.14
189.879	-67.14
190.349	-137.36
190.819	-50.76
191.29	-97.57
191.76	-135.02
192.23	-64.8
192.7	-67.14
193.17	-55.44
193.64	-50.76
194.109	-36.72
194.579	-20.33
195.049	-36.72
195.519	31.16
195.988	56.9
196.458	49.88
196.927	61.59
197.397	134.14
197.866	124.78
198.336	106.06
198.805	166.91
199.274	164.57
199.744	166.91
200.213	274.57
200.682	185.63
201.151	225.42
201.62	281.6
202.089	276.91
202.558	241.81
203.027	281.6
203.495	297.98
203.964	269.89
204.433	267.55
204.902	258.19
205.37	288.62
205.839	272.23
206.307	333.09
206.776	262.87
207.244	323.73
207.712	300.32
208.181	283.94
208.649	389.26
209.117	344.79
209.585	333.09
210.053	288.62
210.521	213.72
210.989	300.32
211.457	239.47
211.925	281.6
212.393	328.41
212.861	267.55
213.328	255.85
213.796	281.6
214.264	246.49
214.731	260.53
215.199	272.23
215.666	265.21
216.133	279.26
216.601	255.85
217.068	248.83
217.535	251.17
218.003	269.89
218.47	272.23
218.937	283.94
219.404	248.83
219.871	295.64
220.338	272.23
220.805	293.3
221.271	335.43
221.738	272.23
222.205	267.55
222.671	274.57
223.138	265.21
223.605	225.42
224.071	227.76
224.538	230.1
225.004	241.81
225.47	283.94
225.937	227.76
226.403	265.21
226.869	272.23
227.335	286.28
227.801	302.66
228.267	251.17
228.733	279.26
229.199	279.26
229.665	290.96
230.131	279.26
230.597	253.51
231.062	276.91
231.528	290.96
231.994	396.28
232.459	220.74
232.925	269.89
233.39	244.15
233.856	288.62
234.321	274.57
234.786	267.55
235.252	333.09
235.717	302.66
236.182	248.83
236.647	297.98
237.112	225.42
237.577	276.91
238.042	237.13
238.507	211.38
238.972	253.51
239.436	260.53
239.901	286.28
240.366	237.13
240.83	276.91
241.295	157.55
241.76	248.83
242.224	272.23
242.688	246.49
243.153	230.1
243.617	309.68
244.081	290.96
244.545	260.53
245.01	307.34
245.474	281.6
245.938	358.83
246.402	302.66
246.866	244.15
247.33	225.42
247.793	283.94
248.257	307.34
248.721	279.26
249.185	354.15
249.648	297.98
250.112	246.49
250.575	300.32
251.039	300.32
251.502	272.23
251.965	248.83
252.429	354.15
252.892	241.81
253.355	312.02
253.818	246.49
254.281	300.32
254.744	300.32
255.207	323.73
255.67	302.66
256.133	335.43
256.596	288.62
257.059	302.66
257.522	319.04
257.984	274.57
258.447	276.91
258.909	323.73
259.372	297.98
259.834	255.85
260.297	297.98
260.759	248.83
261.221	333.09
261.684	290.96
262.146	269.89
262.608	379.9
263.07	295.64
263.532	314.36
263.994	316.7
264.456	314.36
264.918	328.41
265.38	286.28
265.842	281.6
266.303	220.74
266.765	365.85
267.227	283.94
267.688	314.36
268.15	297.98
268.611	230.1
269.072	288.62
269.534	307.34
269.995	230.1
270.456	281.6
270.918	234.78
271.379	314.36
271.84	267.55
272.301	244.15
272.762	302.66
273.223	223.08
273.684	290.96
274.144	337.77
274.605	283.94
275.066	204.36
275.527	309.68
275.987	260.53
276.448	269.89
276.908	279.26
277.369	272.23
277.829	265.21
278.289	361.17
278.75	258.19
279.21	300.32
279.67	321.38
280.13	321.38
280.59	295.64
281.05	305
281.51	293.3
281.97	288.62
282.43	312.02
282.89	295.64
283.35	262.87
283.809	265.21
284.269	337.77
284.729	297.98
285.188	305
285.648	302.66
286.107	316.7
286.567	227.76
287.026	239.47
287.485	305
287.944	316.7
288.404	262.87
288.863	251.17
289.322	319.04
289.781	248.83
290.24	305
290.699	269.89
291.158	314.36
291.616	237.13
292.075	281.6
292.534	267.55
292.992	314.36
293.451	323.73
293.91	283.94
294.368	279.26
294.827	286.28
295.285	323.73
295.743	300.32
296.202	283.94
296.66	361.17
297.118	239.47
297.576	328.41
298.034	326.07
298.492	316.7
298.95	319.04
299.408	258.19
299.866	326.07
300.324	337.77
300.781	333.09
301.239	321.38
301.697	305
302.154	276.91
302.612	349.47
303.069	295.64
303.527	316.7
303.984	342.45
304.441	281.6
304.899	302.66
305.356	323.73
305.813	267.55
306.27	351.81
306.727	246.49
307.184	260.53
307.641	290.96
308.098	253.51
308.555	272.23
309.012	302.66
309.468	356.49
309.925	283.94
310.382	312.02
310.838	312.02
311.295	269.89
311.751	269.89
312.208	293.3
312.664	330.75
313.12	255.85
313.577	281.6
314.033	323.73
314.489	316.7
314.945	279.26
315.401	293.3
315.857	344.79
316.313	267.55
316.769	361.17
317.225	328.41
317.681	297.98
318.136	272.23
318.592	305
319.048	262.87
319.503	321.38
319.959	300.32
320.414	312.02
320.869	309.68
321.325	344.79
321.78	297.98
322.235	349.47
322.691	326.07
323.146	307.34
323.601	319.04
324.056	286.28
324.511	269.89
324.966	220.74
325.421	286.28
325.875	246.49
326.33	290.96
326.785	305
327.24	314.36
327.694	300.32
328.149	251.17
328.603	335.43
329.058	286.28
329.512	328.41
329.966	307.34
330.421	309.68
330.875	309.68
331.329	314.36
331.783	260.53
332.237	262.87
332.691	293.3
333.145	312.02
333.599	272.23
334.053	290.96
334.507	265.21
334.96	344.79
335.414	246.49
335.868	269.89
336.321	344.79
336.775	293.3
337.228	314.36
337.682	340.11
338.135	337.77
338.588	234.78
339.042	372.88
339.495	389.26
339.948	302.66
340.401	307.34
340.854	321.38
341.307	309.68
341.76	333.09
342.213	265.21
342.666	305
343.119	344.79
343.571	283.94
344.024	272.23
344.477	321.38
344.929	333.09
345.382	319.04
345.834	241.81
346.287	358.83
346.739	302.66
347.191	319.04
347.644	354.15
348.096	290.96
348.548	307.34
349	288.62
349.452	335.43
349.904	281.6
350.356	246.49
350.808	333.09
351.26	328.41
351.711	328.41
352.163	227.76
352.615	410.33
353.066	281.6
353.518	330.75
353.969	316.7
354.421	288.62
354.872	323.73
355.324	265.21
355.775	326.07
356.226	342.45
356.677	365.85
357.128	286.28
357.579	335.43
358.03	319.04
358.481	351.81
358.932	312.02
359.383	314.36
359.834	305
360.285	297.98
360.735	272.23
361.186	358.83
361.637	290.96
362.087	314.36
362.538	305
362.988	274.57
363.438	340.11
363.889	312.02
364.339	314.36
364.789	351.81
365.239	288.62
365.689	330.75
366.139	349.47
366.589	328.41
367.039	244.15
367.489	384.58
367.939	340.11
368.389	265.21
368.839	335.43
369.288	354.15
369.738	293.3
370.187	410.33
370.637	391.6
371.086	220.74
371.536	333.09
371.985	326.07
372.434	361.17
372.884	319.04
373.333	305
373.782	333.09
374.231	276.91
374.68	305
375.129	335.43
375.578	295.64
376.027	258.19
376.475	333.09
376.924	319.04
377.373	328.41
377.822	309.68
378.27	384.58
378.719	305
379.167	326.07
379.616	293.3
380.064	349.47
380.512	330.75
380.961	239.47
381.409	337.77
381.857	321.38
382.305	274.57
382.753	260.53
383.201	319.04
383.649	274.57
384.097	316.7
384.545	340.11
384.992	356.49
385.44	377.56
385.888	330.75
386.335	319.04
386.783	269.89
387.231	354.15
387.678	344.79
388.125	283.94
388.573	260.53
389.02	305
389.467	328.41
389.914	276.91
390.362	316.7
390.809	314.36
391.256	281.6
391.703	312.02
392.15	342.45
392.596	342.45
393.043	319.04
393.49	227.76
393.937	293.3
394.383	328.41
394.83	234.78
395.276	326.07
395.723	283.94
396.169	321.38
396.616	326.07
397.062	316.7
397.508	351.81
397.954	269.89
398.401	349.47
398.847	309.68
399.293	328.41
399.739	290.96
400.185	347.13
400.631	344.79
401.076	260.53
401.522	297.98
401.968	302.66
402.414	372.88
402.859	309.68
403.305	295.64
403.75	361.17
404.196	349.47
404.641	262.87
405.086	335.43
405.532	309.68
405.977	356.49
406.422	321.38
406.867	297.98
407.312	323.73
407.757	358.83
408.202	307.34
408.647	316.7
409.092	351.81
409.537	319.04
409.982	330.75
410.426	323.73
410.871	323.73
411.316	333.09
411.76	316.7
412.205	302.66
412.649	295.64
413.093	295.64
413.538	309.68
413.982	300.32
414.426	326.07
414.87	319.04
415.314	272.23
415.758	368.2
416.202	344.79
416.646	342.45
417.09	326.07
417.534	368.2
417.978	321.38
418.421	281.6
418.865	305
419.309	276.91
419.752	307.34
420.196	283.94
420.639	307.34
421.083	351.81
421.526	300.32
421.969	305
422.412	246.49
422.856	272.23
423.299	337.77
423.742	326.07
424.185	356.49
424.628	377.56
425.071	321.38
425.513	326.07
425.956	379.9
426.399	335.43
426.842	316.7
427.284	251.17
427.727	295.64
428.169	305
428.612	286.28
429.054	286.28
429.497	286.28
429.939	333.09
430.381	300.32
430.823	309.68
431.265	300.32
431.707	328.41
432.149	267.55
432.591	386.92
433.033	363.51
433.475	354.15
433.917	283.94
434.359	356.49
434.8	251.17
435.242	305
435.684	267.55
436.125	279.26
436.567	340.11
437.008	281.6
437.449	384.58
437.891	328.41
438.332	262.87
438.773	283.94
439.214	312.02
439.656	293.3
440.097	344.79
440.538	335.43
440.978	316.7
441.419	330.75
441.86	326.07
442.301	337.77
442.742	342.45
443.182	365.85
443.623	283.94
444.063	248.83
444.504	312.02
444.944	248.83
445.385	279.26
445.825	358.83
446.265	258.19
446.706	316.7
447.146	295.64
447.586	300.32
448.026	349.47
448.466	412.67
448.906	244.15
449.346	347.13
449.786	260.53
450.225	372.88
450.665	269.89
451.105	326.07
451.544	312.02
451.984	342.45
452.424	370.54
452.863	370.54
453.302	272.23
453.742	283.94
454.181	337.77
454.62	351.81
455.059	272.23
455.499	302.66
455.938	302.66
456.377	330.75
456.816	323.73
457.254	354.15
457.693	307.34
458.132	297.98
458.571	312.02
459.01	300.32
459.448	323.73
459.887	333.09
460.325	295.64
460.764	302.66
461.202	354.15
461.641	375.22
462.079	319.04
462.517	361.17
462.955	382.24
463.393	314.36
463.832	391.6
464.27	260.53
464.708	272.23
465.145	300.32
465.583	276.91
466.021	319.04
466.459	276.91
466.897	288.62
467.334	316.7
467.772	384.58
468.209	297.98
468.647	351.81
469.084	309.68
469.522	295.64
469.959	335.43
470.396	323.73
470.833	365.85
471.271	335.43
471.708	337.77
472.145	347.13
472.582	323.73
473.019	297.98
473.456	347.13
473.892	302.66
474.329	335.43
474.766	248.83
475.202	319.04
475.639	265.21
476.076	307.34
476.512	328.41
476.949	305
477.385	279.26
477.821	349.47
478.258	290.96
478.694	321.38
479.13	328.41
479.566	328.41
480.002	326.07
480.438	288.62
480.874	340.11
481.31	316.7
481.746	302.66
482.181	300.32
482.617	370.54
483.053	283.94
483.488	295.64
483.924	302.66
484.36	279.26
484.795	281.6
485.23	326.07
485.666	300.32
486.101	330.75
486.536	267.55
486.971	358.83
487.407	262.87
487.842	223.08
488.277	288.62
488.712	337.77
489.146	368.2
489.581	326.07
490.016	295.64
490.451	365.85
490.885	312.02
491.32	354.15
491.755	309.68
492.189	272.23
492.624	349.47
493.058	382.24
493.492	305
493.927	288.62
494.361	316.7
494.795	279.26
495.229	398.62
495.663	300.32
496.097	319.04
496.531	309.68
496.965	309.68
497.399	300.32
497.833	288.62
498.266	321.38
498.7	279.26
499.134	321.38
499.567	363.51
500.001	272.23
500.434	297.98
500.868	262.87
501.301	358.83
501.734	328.41
502.168	297.98
502.601	305
503.034	316.7
503.467	335.43
503.9	283.94
504.333	347.13
504.766	328.41
505.199	333.09
505.632	248.83
506.064	241.81
506.497	321.38
506.93	340.11
507.362	295.64
507.795	337.77
508.227	276.91
508.66	316.7
509.092	344.79
509.524	295.64
509.956	269.89
510.389	286.28
510.821	319.04
511.253	314.36
511.685	342.45
512.117	333.09
512.549	342.45
512.981	255.85
513.412	342.45
513.844	333.09
514.276	323.73
514.707	398.62
515.139	316.7
515.571	333.09
516.002	323.73
516.433	342.45
516.865	234.78
517.296	309.68
517.727	323.73
518.159	328.41
518.59	314.36
519.021	312.02
519.452	340.11
519.883	309.68
520.314	354.15
520.744	319.04
521.175	349.47
521.606	354.15
522.037	330.75
522.467	276.91
522.898	302.66
523.328	330.75
523.759	333.09
524.189	312.02
524.62	422.03
525.05	302.66
525.48	368.2
525.91	337.77
526.341	269.89
526.771	326.07
527.201	293.3
527.631	368.2
528.061	316.7
528.49	323.73
528.92	272.23
529.35	372.88
529.78	269.89
530.209	328.41
530.639	309.68
531.068	312.02
531.498	347.13
531.927	305
532.357	363.51
532.786	368.2
533.215	330.75
533.644	386.92
534.074	328.41
534.503	295.64
534.932	349.47
535.361	265.21
535.79	316.7
536.218	335.43
536.647	281.6
537.076	269.89
537.505	283.94
537.933	351.81
538.362	384.58
538.79	358.83
539.219	319.04
539.647	368.2
540.076	361.17
540.504	307.34
540.932	340.11
541.36	372.88
541.788	251.17
542.217	290.96
542.645	305
543.073	335.43
543.5	319.04
543.928	276.91
544.356	302.66
544.784	365.85
545.211	244.15
545.639	269.89
546.067	337.77
546.494	330.75
546.922	326.07
547.349	316.7
547.776	361.17
548.204	302.66
548.631	316.7
549.058	328.41
549.485	305
549.912	314.36
550.339	321.38
550.766	309.68
551.193	302.66
551.62	347.13
552.047	300.32
552.474	283.94
552.9	293.3
553.327	293.3
553.754	307.34
554.18	274.57
554.607	316.7
555.033	316.7
555.459	312.02
555.886	300.32
556.312	312.02
556.738	305
557.164	351.81
557.59	335.43
558.016	283.94
558.442	326.07
558.868	295.64
559.294	290.96
559.72	290.96
560.145	279.26
560.571	323.73
560.997	290.96
561.422	349.47
561.848	321.38
562.273	328.41
562.699	328.41
563.124	354.15
563.549	349.47
563.974	288.62
564.4	321.38
564.825	358.83
565.25	295.64
565.675	363.51
566.1	286.28
566.525	344.79
566.95	251.17
567.374	314.36
567.799	384.58
568.224	234.78
568.648	356.49
569.073	314.36
569.497	328.41
569.922	335.43
570.346	302.66
570.771	382.24
571.195	351.81
571.619	293.3
572.043	319.04
572.467	297.98
572.891	328.41
573.315	361.17
573.739	260.53
574.163	255.85
574.587	375.22
575.011	400.96
575.435	351.81
575.858	290.96
576.282	340.11
576.705	265.21
577.129	305
577.552	351.81
577.976	316.7
578.399	335.43
578.822	377.56
579.245	333.09
579.669	276.91
580.092	323.73
580.515	319.04
580.938	302.66
581.361	305
581.784	319.04
582.206	244.15
582.629	307.34
583.052	302.66
583.474	281.6
583.897	316.7
584.32	293.3
584.742	305
585.165	340.11
585.587	344.79
586.009	267.55
586.431	297.98
586.854	342.45
587.276	391.6
587.698	300.32
588.12	286.28
588.542	337.77
588.964	356.49
589.386	389.26
589.807	344.79
590.229	248.83
590.651	312.02
591.073	386.92
591.494	272.23
591.916	300.32
592.337	393.94
592.759	340.11
593.18	312.02
593.601	349.47
594.022	288.62
594.444	344.79
594.865	326.07
595.286	283.94
595.707	344.79
596.128	290.96
596.549	234.78
596.97	295.64
597.39	321.38
597.811	333.09
598.232	255.85
598.652	340.11
599.073	361.17
599.494	288.62
599.914	286.28
600.334	297.98
600.755	288.62
601.175	290.96
601.595	356.49
602.015	337.77
602.436	309.68
602.856	440.75
603.276	335.43
603.696	363.51
604.115	279.26
604.535	316.7
604.955	368.2
605.375	333.09
605.794	290.96
606.214	272.23
606.634	272.23
607.053	297.98
607.473	323.73
607.892	312.02
608.311	330.75
608.731	307.34
609.15	305
609.569	319.04
609.988	349.47
610.407	241.81
610.826	276.91
611.245	314.36
611.664	312.02
612.083	265.21
612.501	239.47
612.92	305
613.339	314.36
613.757	265.21
614.176	326.07
614.594	262.87
615.013	305
615.431	290.96
615.85	326.07
616.268	351.81
616.686	335.43
617.104	262.87
617.522	326.07
617.94	328.41
618.358	389.26
618.776	272.23
619.194	316.7
619.612	244.15
620.03	354.15
620.447	286.28
620.865	307.34
621.282	342.45
621.7	386.92
622.117	333.09
622.535	342.45
622.952	276.91
623.369	319.04
623.787	335.43
624.204	314.36
624.621	351.81
625.038	286.28
625.455	330.75
625.872	333.09
626.289	333.09
626.706	365.85
627.123	295.64
627.539	363.51
627.956	314.36
628.373	323.73
628.789	335.43
629.206	314.36
629.622	347.13
630.038	305
630.455	272.23
630.871	314.36
631.287	347.13
631.703	283.94
632.12	258.19
632.536	297.98
632.952	309.68
633.368	302.66
633.783	288.62
634.199	309.68
634.615	314.36
635.031	349.47
635.446	283.94
635.862	365.85
636.277	312.02
636.693	328.41
637.108	279.26
637.524	415.01
637.939	349.47
638.354	321.38
638.77	354.15
639.185	319.04
639.6	307.34
640.015	335.43
640.43	354.15
640.845	300.32
641.259	283.94
641.674	314.36
642.089	337.77
642.504	342.45
642.918	293.3
643.333	349.47
643.747	286.28
644.162	326.07
644.576	309.68
644.991	279.26
645.405	349.47
645.819	365.85
646.233	342.45
646.647	293.3
647.061	337.77
647.475	326.07
647.889	260.53
648.303	347.13
648.717	288.62
649.131	293.3
649.545	379.9
649.958	389.26
650.372	335.43
650.785	319.04
651.199	340.11
651.612	314.36
652.026	286.28
652.439	272.23
652.852	274.57
653.266	307.34
653.679	347.13
654.092	328.41
654.505	326.07
654.918	368.2
655.331	309.68
655.744	237.13
656.156	321.38
656.569	328.41
656.982	307.34
657.394	312.02
657.807	293.3
658.22	297.98
658.632	316.7
659.044	356.49
659.457	326.07
659.869	400.96
660.281	239.47
660.693	347.13
661.106	354.15
661.518	234.78
661.93	379.9
662.342	328.41
662.754	340.11
663.165	365.85
663.577	321.38
663.989	281.6
664.401	274.57
664.812	335.43
665.224	368.2
665.635	293.3
666.047	288.62
666.458	330.75
666.869	272.23
667.281	330.75
667.692	307.34
668.103	290.96
668.514	340.11
668.925	321.38
669.336	326.07
669.747	351.81
670.158	283.94
670.569	307.34
670.979	279.26
671.39	314.36
671.801	290.96
672.211	269.89
672.622	309.68
673.032	384.58
673.443	337.77
673.853	335.43
674.263	337.77
674.674	283.94
675.084	274.57
675.494	321.38
675.904	319.04
676.314	307.34
676.724	316.7
677.134	358.83
677.544	377.56
677.953	269.89
678.363	267.55
678.773	314.36
679.182	274.57
679.592	312.02
680.001	337.77
680.411	361.17
680.82	239.47
681.23	227.76
681.639	363.51
682.048	340.11
682.457	286.28
682.866	361.17
683.275	255.85
683.684	290.96
684.093	363.51
684.502	272.23
684.911	356.49
685.32	335.43
685.728	363.51
686.137	309.68
686.546	288.62
686.954	293.3
687.363	295.64
687.771	258.19
688.179	344.79
688.588	398.62
688.996	288.62
689.404	286.28
689.812	351.81
690.22	319.04
690.628	309.68
691.036	295.64
691.444	323.73
691.852	290.96
692.26	358.83
692.667	316.7
693.075	272.23
693.483	347.13
693.89	302.66
694.298	312.02
694.705	286.28
695.112	302.66
695.52	321.38
695.927	354.15
696.334	391.6
696.741	328.41
697.148	335.43
697.555	358.83
697.962	337.77
698.369	319.04
698.776	293.3
699.183	333.09
699.59	288.62
699.996	274.57
700.403	288.62
700.81	312.02
701.216	379.9
701.623	300.32
702.029	312.02
702.435	356.49
702.842	326.07
703.248	328.41
703.654	326.07
704.06	330.75
704.466	349.47
704.872	262.87
705.278	354.15
705.684	319.04
706.09	265.21
706.496	279.26
706.901	302.66
707.307	258.19
707.712	265.21
708.118	335.43
708.523	342.45
708.929	283.94
709.334	309.68
709.74	363.51
710.145	314.36
710.55	276.91
710.955	340.11
711.36	326.07
711.765	286.28
712.17	365.85
712.575	323.73
712.98	915.88
713.385	375.22
713.789	314.36
714.194	335.43
714.599	309.68
715.003	262.87
715.408	330.75
715.812	319.04
716.217	379.9
716.621	288.62
717.025	297.98
717.429	368.2
717.833	321.38
718.238	342.45
718.642	337.77
719.046	323.73
719.449	307.34
719.853	297.98
720.257	290.96
720.661	386.92
721.065	319.04
721.468	244.15
721.872	300.32
722.275	312.02
722.679	302.66
723.082	265.21
723.485	293.3
723.889	400.96
724.292	316.7
724.695	293.3
725.098	307.34
725.501	335.43
725.904	314.36
726.307	333.09
726.71	297.98
727.113	262.87
727.516	384.58
727.918	342.45
728.321	253.51
728.724	351.81
729.126	297.98
729.529	344.79
729.931	333.09
730.333	340.11
730.736	375.22
731.138	365.85
731.54	300.32
731.942	337.77
732.344	293.3
732.746	307.34
733.148	316.7
733.55	302.66
733.952	283.94
734.354	246.49
734.756	258.19
735.157	319.04
735.559	312.02
735.96	354.15
736.362	251.17
736.763	319.04
737.165	246.49
737.566	354.15
737.967	328.41
738.368	333.09
738.77	321.38
739.171	354.15
739.572	333.09
739.973	307.34
740.374	319.04
740.774	293.3
741.175	300.32
741.576	314.36
741.977	286.28
742.377	302.66
742.778	335.43
743.178	307.34
743.579	305
743.979	375.22
744.379	246.49
744.78	356.49
745.18	305
745.58	300.32
745.98	326.07
746.38	377.56
746.78	349.47
747.18	314.36
747.58	297.98
747.98	323.73
748.38	302.66
748.779	288.62
749.179	286.28
749.578	323.73
749.978	267.55
750.377	288.62
750.777	305
751.176	309.68
751.575	384.58
751.975	290.96
752.374	333.09
752.773	323.73
753.172	344.79
753.571	335.43
753.97	269.89
754.369	281.6
754.768	342.45
755.166	267.55
755.565	309.68
755.964	290.96
756.362	410.33
756.761	314.36
757.159	361.17
757.558	312.02
757.956	293.3
758.354	333.09
758.753	365.85
759.151	300.32
759.549	283.94
759.947	269.89
760.345	276.91
760.743	251.17
761.141	297.98
761.539	288.62
761.936	323.73
762.334	272.23
762.732	328.41
763.129	314.36
763.527	337.77
763.924	384.58
764.322	321.38
764.719	307.34
765.117	309.68
765.514	260.53
765.911	288.62
766.308	326.07
766.705	267.55
767.102	302.66
767.499	272.23
767.896	272.23
768.293	276.91
768.69	295.64
769.086	307.34
769.483	363.51
769.88	312.02
770.276	272.23
770.673	300.32
771.069	389.26
771.466	314.36
771.862	293.3
772.258	321.38
772.654	349.47
773.05	295.64
773.447	333.09
773.843	386.92
774.239	316.7
774.634	293.3
775.03	333.09
775.426	337.77
775.822	354.15
776.218	295.64
776.613	288.62
777.009	351.81
777.404	326.07
777.8	286.28
778.195	262.87
778.59	305
778.986	342.45
779.381	342.45
779.776	295.64
780.171	382.24
780.566	319.04
780.961	323.73
781.356	333.09
781.751	323.73
782.146	276.91
782.54	358.83
782.935	309.68
783.33	276.91
783.724	342.45
784.119	333.09
784.513	335.43
784.908	340.11
785.302	333.09
785.696	281.6
786.09	319.04
786.485	356.49
786.879	269.89
787.273	375.22
787.667	293.3
788.061	326.07
788.454	283.94
788.848	300.32
789.242	354.15
789.636	302.66
790.029	337.77
790.423	354.15
790.816	368.2
791.21	333.09
791.603	326.07
791.997	283.94
792.39	258.19
792.783	344.79
793.176	393.94
793.569	323.73
793.962	265.21
794.355	286.28
794.748	300.32
795.141	326.07
795.534	276.91
795.927	330.75
796.319	300.32
796.712	321.38
797.105	281.6
797.497	300.32
797.89	321.38
798.282	293.3
798.674	312.02
799.067	255.85
799.459	358.83
799.851	260.53
800.243	349.47
800.635	312.02
801.027	330.75
801.419	358.83
801.811	244.15
802.203	330.75
802.594	335.43
802.986	269.89
803.378	307.34
803.769	316.7
804.161	358.83
804.552	347.13
804.944	389.26
805.335	267.55
805.726	300.32
806.118	340.11
806.509	358.83
806.9	375.22
807.291	328.41
807.682	405.64
808.073	302.66
808.464	279.26
808.855	255.85
809.245	283.94
809.636	269.89
810.027	312.02
810.417	356.49
810.808	358.83
811.198	279.26
811.589	305
811.979	354.15
812.369	321.38
812.759	354.15
813.15	305
813.54	272.23
813.93	276.91
814.32	340.11
814.71	314.36
815.1	370.54
815.489	293.3
815.879	272.23
816.269	274.57
816.658	328.41
817.048	379.9
817.438	340.11
817.827	312.02
818.216	340.11
818.606	265.21
818.995	319.04
819.384	335.43
819.773	288.62
820.163	363.51
820.552	307.34
820.941	354.15
821.33	337.77
821.718	281.6
822.107	262.87
822.496	244.15
822.885	305
823.273	400.96
823.662	283.94
824.05	283.94
824.439	307.34
824.827	314.36
825.216	309.68
825.604	354.15
825.992	340.11
826.38	328.41
826.768	276.91
827.156	283.94
827.544	337.77
827.932	316.7
828.32	241.81
828.708	323.73
829.096	340.11
829.483	302.66
829.871	295.64
830.259	239.47
830.646	333.09
831.034	312.02
831.421	279.26
831.808	295.64
832.196	365.85
832.583	314.36
832.97	237.13
833.357	267.55
833.744	356.49
834.131	330.75
834.518	286.28
834.905	218.4
835.292	272.23
835.678	302.66
836.065	312.02
836.452	309.68
836.838	354.15
837.225	344.79
837.611	316.7
837.998	354.15
838.384	321.38
838.77	323.73
839.157	333.09
839.543	333.09
839.929	365.85
840.315	349.47
840.701	347.13
841.087	328.41
841.473	286.28
841.858	316.7
842.244	297.98
842.63	255.85
843.015	321.38
843.401	581.18
843.787	319.04
844.172	361.17
844.557	293.3
844.943	321.38
845.328	363.51
845.713	335.43
846.098	323.73
846.483	265.21
846.868	297.98
847.253	309.68
847.638	319.04
848.023	361.17
848.408	363.51
848.793	295.64
849.177	279.26
849.562	368.2
849.947	398.62
850.331	351.81
850.715	258.19
851.1	295.64
851.484	363.51
851.868	351.81
852.253	365.85
852.637	314.36
853.021	262.87
853.405	365.85
853.789	328.41
854.173	260.53
854.557	323.73
854.94	382.24
855.324	321.38
855.708	297.98
856.091	281.6
856.475	328.41
856.858	333.09
857.242	316.7
857.625	347.13
858.009	307.34
858.392	377.56
858.775	328.41
859.158	314.36
859.541	283.94
859.924	300.32
860.307	312.02
860.69	251.17
861.073	347.13
861.456	326.07
861.838	312.02
862.221	335.43
862.604	305
862.986	307.34
863.369	342.45
863.751	335.43
864.133	309.68
864.516	342.45
864.898	281.6
865.28	281.6
865.662	305
866.044	293.3
866.426	337.77
866.808	307.34
867.19	293.3
867.572	300.32
867.954	330.75
868.336	349.47
868.717	258.19
869.099	288.62
869.48	283.94
869.862	316.7
870.243	260.53
870.625	323.73
871.006	309.68
871.387	382.24
871.768	290.96
872.149	300.32
872.53	220.74
872.911	293.3
873.292	361.17
873.673	293.3
874.054	312.02
874.435	347.13
874.815	330.75
875.196	365.85
875.577	312.02
875.957	302.66
876.338	363.51
876.718	368.2
877.098	288.62
877.479	372.88
877.859	274.57
878.239	356.49
878.619	274.57
878.999	305
879.379	333.09
879.759	368.2
880.139	400.96
880.519	312.02
880.898	328.41
881.278	272.23
881.658	269.89
882.037	295.64
882.417	283.94
882.796	307.34
883.176	321.38
883.555	347.13
883.934	347.13
884.313	293.3
884.693	351.81
885.072	237.13
885.451	288.62
885.83	312.02
886.209	358.83
886.587	314.36
886.966	297.98
887.345	379.9
887.724	400.96
888.102	237.13
888.481	356.49
888.859	351.81
889.238	365.85
889.616	286.28
889.994	279.26
890.373	307.34
890.751	272.23
891.129	274.57
891.507	295.64
891.885	319.04
892.263	295.64
892.641	283.94
893.019	288.62
893.396	319.04
893.774	279.26
894.152	295.64
894.529	274.57
894.907	290.96
895.284	307.34
895.662	286.28
896.039	328.41
896.416	335.43
896.794	297.98
897.171	281.6
897.548	290.96
897.925	354.15
898.302	300.32
898.679	286.28
899.056	297.98
899.433	260.53
899.809	337.77
900.186	293.3
900.563	323.73
900.939	276.91
901.316	267.55
901.692	297.98
902.069	307.34
902.445	356.49
902.821	319.04
903.197	314.36
903.574	309.68
903.95	333.09
904.326	377.56
904.702	330.75
905.078	347.13
905.454	302.66
905.829	333.09
906.205	293.3
906.581	312.02
906.956	316.7
907.332	312.02
907.707	342.45
908.083	363.51
908.458	344.79
908.833	319.04
909.209	326.07
909.584	342.45
909.959	319.04
910.334	225.42
910.709	307.34
911.084	361.17
911.459	262.87
911.834	302.66
912.209	241.81
912.583	342.45
912.958	319.04
913.333	335.43
913.707	274.57
914.082	323.73
914.456	328.41
914.83	302.66
915.205	272.23
915.579	340.11
915.953	314.36
916.327	227.76
916.701	269.89
917.075	279.26
917.449	330.75
917.823	337.77
918.197	302.66
918.571	333.09
918.944	347.13
919.318	326.07
919.692	312.02
920.065	297.98
920.438	347.13
920.812	326.07
921.185	281.6
921.558	358.83
921.932	305
922.305	391.6
922.678	314.36
923.051	302.66
923.424	269.89
923.797	347.13
924.17	333.09
924.542	347.13
924.915	307.34
925.288	272.23
925.661	293.3
926.033	323.73
926.406	307.34
926.778	276.91
927.15	330.75
927.523	344.79
927.895	314.36
928.267	333.09
928.639	239.47
929.011	335.43
929.383	230.1
929.755	328.41
930.127	281.6
930.499	323.73
930.871	314.36
931.242	276.91
931.614	302.66
931.986	354.15
932.357	267.55
932.729	361.17
933.1	295.64
933.471	382.24
933.843	272.23
934.214	290.96
934.585	286.28
934.956	333.09
935.327	398.62
935.698	265.21
936.069	293.3
936.44	248.83
936.811	281.6
937.182	253.51
937.552	274.57
937.923	335.43
938.293	351.81
938.664	349.47
939.034	326.07
939.405	307.34
939.775	295.64
940.145	337.77
940.516	283.94
940.886	305
941.256	309.68
941.626	309.68
941.996	232.44
942.366	354.15
942.735	328.41
943.105	288.62
943.475	335.43
943.845	314.36
944.214	342.45
944.584	283.94
944.953	375.22
945.323	356.49
945.692	276.91
946.061	314.36
946.43	269.89
946.8	330.75
947.169	312.02
947.538	328.41
947.907	220.74
948.276	323.73
948.645	279.26
949.013	358.83
949.382	321.38
949.751	281.6
950.119	309.68
950.488	286.28
950.857	293.3
951.225	246.49
951.593	302.66
951.962	269.89
952.33	337.77
952.698	316.7
953.066	297.98
953.434	269.89
953.802	333.09
954.17	344.79
954.538	370.54
954.906	361.17
955.274	305
955.642	295.64
956.009	314.36
956.377	276.91
956.744	342.45
957.112	295.64
957.479	258.19
957.847	276.91
958.214	300.32
958.581	351.81
958.948	337.77
959.315	403.3
959.683	323.73
960.05	297.98
960.416	281.6
960.783	279.26
961.15	340.11
961.517	323.73
961.884	272.23
962.25	255.85
962.617	347.13
962.983	302.66
963.35	319.04
963.716	283.94
964.082	312.02
964.449	330.75
964.815	330.75
965.181	349.47
965.547	349.47
965.913	246.49
966.279	307.34
966.645	340.11
967.011	326.07
967.377	396.28
967.742	330.75
968.108	323.73
968.474	312.02
968.839	300.32
969.205	297.98
969.57	344.79
969.935	230.1
970.301	368.2
970.666	260.53
971.031	319.04
971.396	309.68
971.761	309.68
972.126	302.66
972.491	272.23
972.856	321.38
973.221	358.83
973.586	293.3
973.95	302.66
974.315	269.89
974.679	330.75
975.044	354.15
975.408	316.7
975.773	246.49
976.137	281.6
976.501	312.02
976.866	319.04
977.23	365.85
977.594	297.98
977.958	279.26
978.322	307.34
978.686	293.3
979.049	354.15
979.413	300.32
979.777	295.64
980.141	225.42
980.504	358.83
980.868	309.68
981.231	255.85
981.595	403.3
981.958	302.66
982.321	326.07
982.684	302.66
983.048	307.34
983.411	358.83
983.774	265.21
984.137	361.17
984.5	288.62
984.862	347.13
985.225	293.3
985.588	316.7
985.951	314.36
986.313	286.28
986.676	297.98
987.038	321.38
987.401	323.73
987.763	286.28
988.125	295.64
988.488	244.15
988.85	344.79
989.212	206.7
989.574	328.41
989.936	272.23
990.298	297.98
990.66	272.23
991.022	288.62
991.383	279.26
991.745	312.02
992.107	319.04
992.468	316.7
992.83	281.6
993.191	267.55
993.553	330.75
993.914	307.34
994.275	286.28
994.637	302.66
994.998	286.28
995.359	237.13
995.72	337.77
996.081	286.28
996.442	297.98
996.803	281.6
997.163	326.07
997.524	358.83
997.885	342.45
998.245	342.45
998.606	293.3
998.966	258.19
999.327	349.47
999.687	272.23
1000.047	295.64
1000.408	283.94
1000.768	272.23
1001.128	316.7
1001.488	307.34
1001.848	314.36
1002.208	330.75
1002.568	312.02
1002.927	244.15
1003.287	305
1003.647	337.77
1004.007	293.3
1004.366	326.07
1004.726	330.75
1005.085	328.41
1005.444	279.26
1005.804	307.34
1006.163	300.32
1006.522	340.11
1006.881	330.75
1007.24	342.45
1007.599	347.13
1007.958	255.85
1008.317	312.02
1008.676	340.11
1009.035	347.13
1009.393	363.51
1009.752	335.43
1010.111	279.26
1010.469	307.34
1010.828	288.62
1011.186	248.83
1011.544	262.87
1011.903	309.68
1012.261	272.23
1012.619	290.96
1012.977	300.32
1013.335	255.85
1013.693	335.43
1014.051	312.02
1014.409	297.98
1014.767	307.34
1015.124	288.62
1015.482	290.96
1015.84	330.75
1016.197	361.17
1016.555	328.41
1016.912	356.49
1017.269	326.07
1017.627	297.98
1017.984	248.83
1018.341	255.85
1018.698	293.3
1019.055	262.87
1019.412	323.73
1019.769	342.45
1020.126	307.34
1020.483	340.11
1020.84	349.47
1021.196	347.13
1021.553	323.73
1021.909	337.77
1022.266	288.62
1022.622	293.3
1022.979	335.43
1023.335	389.26
1023.691	269.89
1024.047	272.23
1024.404	330.75
1024.76	300.32
1025.116	300.32
1025.472	351.81
1025.827	326.07
1026.183	363.51
1026.539	307.34
1026.895	269.89
1027.25	276.91
1027.606	286.28
1027.961	323.73
1028.317	295.64
1028.672	248.83
1029.028	305
1029.383	258.19
1029.738	281.6
1030.093	305
1030.448	333.09
1030.803	258.19
1031.158	309.68
1031.513	307.34
1031.868	314.36
1032.223	286.28
1032.577	351.81
1032.932	321.38
1033.287	361.17
1033.641	305
1033.996	295.64
1034.35	290.96
1034.704	312.02
1035.059	300.32
1035.413	347.13
1035.767	347.13
1036.121	347.13
