Data from Al_FLMS009871__1093__16-29-43-005.txt Node

Date: Fri Mar 08 16:29:43 CST 2024
User: pe5414po
Spectrometer: FLMS00987
Trigger mode: 0
Integration Time (sec): 1.000000E-1
Scans to average: 1
Electric dark correction enabled: true
Nonlinearity correction enabled: false
Boxcar width: 0
XAxis mode: Wavelengths
Number of Pixels in Spectrum: 2048
>>>>>Begin Spectral Data<<<<<
188.938	-54.86
189.409	-54.86
189.879	-54.86
190.349	-40.81
190.819	-132.09
191.29	-132.09
191.76	-118.05
192.23	-129.75
192.7	-82.94
193.17	-80.6
193.64	3.66
194.109	-73.58
194.579	-10.39
195.049	41.11
195.519	15.36
195.988	85.58
196.458	45.79
196.927	73.87
197.397	146.43
197.866	90.26
198.336	125.36
198.805	130.05
199.274	153.45
199.744	151.11
200.213	207.28
200.682	226.01
201.151	209.62
201.62	188.56
202.089	228.35
202.558	331.33
203.027	237.71
203.495	193.24
203.964	251.75
204.433	258.78
204.902	263.46
205.37	268.14
205.839	254.09
206.307	256.43
206.776	347.72
207.244	307.93
207.712	300.91
208.181	336.01
208.649	319.63
209.117	270.48
209.585	284.52
210.053	326.65
210.521	331.33
210.989	317.29
211.457	242.39
211.925	286.86
212.393	289.2
212.861	240.05
213.328	261.12
213.796	340.69
214.264	328.99
214.731	284.52
215.199	300.91
215.666	214.31
216.133	226.01
216.601	317.29
217.068	263.46
217.535	284.52
218.003	242.39
218.47	247.07
218.937	321.97
219.404	256.43
219.871	282.18
220.338	265.8
220.805	300.91
221.271	207.28
221.738	296.22
222.205	237.71
222.671	324.31
223.138	289.2
223.605	195.58
224.071	235.37
224.538	254.09
225.004	291.54
225.47	326.65
225.937	265.8
226.403	242.39
226.869	293.88
227.335	275.16
227.801	251.75
228.267	314.95
228.733	317.29
229.199	296.22
229.665	291.54
230.131	336.01
230.597	277.5
231.062	233.03
231.528	268.14
231.994	265.8
232.459	242.39
232.925	254.09
233.39	251.75
233.856	272.82
234.321	207.28
234.786	321.97
235.252	209.62
235.717	303.25
236.182	270.48
236.647	275.16
237.112	300.91
237.577	296.22
238.042	240.05
238.507	256.43
238.972	300.91
239.436	345.38
239.901	216.65
240.366	268.14
240.83	258.78
241.295	312.61
241.76	326.65
242.224	293.88
242.688	268.14
243.153	244.73
243.617	272.82
244.081	284.52
244.545	305.59
245.01	291.54
245.474	307.93
245.938	317.29
246.402	282.18
246.866	268.14
247.33	289.2
247.793	289.2
248.257	312.61
248.721	307.93
249.185	328.99
249.648	279.84
250.112	270.48
250.575	328.99
251.039	233.03
251.502	279.84
251.965	289.2
252.429	284.52
252.892	321.97
253.355	303.25
253.818	317.29
254.281	312.61
254.744	272.82
255.207	240.05
255.67	263.46
256.133	289.2
256.596	277.5
257.059	289.2
257.522	296.22
257.984	359.42
258.447	303.25
258.909	268.14
259.372	303.25
259.834	328.99
260.297	277.5
260.759	324.31
261.221	305.59
261.684	314.95
262.146	331.33
262.608	310.27
263.07	338.35
263.532	254.09
263.994	272.82
264.456	324.31
264.918	298.56
265.38	270.48
265.842	251.75
266.303	340.69
266.765	277.5
267.227	284.52
267.688	336.01
268.15	331.33
268.611	272.82
269.072	277.5
269.534	286.86
269.995	223.67
270.456	296.22
270.918	265.8
271.379	272.82
271.84	286.86
272.301	340.69
272.762	300.91
273.223	291.54
273.684	270.48
274.144	277.5
274.605	319.63
275.066	293.88
275.527	265.8
275.987	289.2
276.448	310.27
276.908	373.46
277.369	328.99
277.829	263.46
278.289	312.61
278.75	298.56
279.21	336.01
279.67	331.33
280.13	275.16
280.59	277.5
281.05	256.43
281.51	303.25
281.97	305.59
282.43	221.33
282.89	277.5
283.35	244.73
283.809	310.27
284.269	282.18
284.729	258.78
285.188	338.35
285.648	359.42
286.107	303.25
286.567	298.56
287.026	338.35
287.485	256.43
287.944	258.78
288.404	244.73
288.863	312.61
289.322	350.06
289.781	268.14
290.24	300.91
290.699	279.84
291.158	277.5
291.616	296.22
292.075	249.41
292.534	284.52
292.992	312.61
293.451	282.18
293.91	263.46
294.368	272.82
294.827	310.27
295.285	296.22
295.743	251.75
296.202	228.35
296.66	265.8
297.118	261.12
297.576	296.22
298.034	354.74
298.492	277.5
298.95	343.03
299.408	275.16
299.866	347.72
300.324	364.1
300.781	338.35
301.239	333.67
301.697	282.18
302.154	214.31
302.612	312.61
303.069	312.61
303.527	235.37
303.984	326.65
304.441	345.38
304.899	333.67
305.356	282.18
305.813	331.33
306.27	298.56
306.727	378.14
307.184	399.21
307.641	312.61
308.098	263.46
308.555	326.65
309.012	333.67
309.468	263.46
309.925	254.09
310.382	373.46
310.838	270.48
311.295	347.72
311.751	350.06
312.208	331.33
312.664	284.52
313.12	223.67
313.577	350.06
314.033	357.08
314.489	338.35
314.945	291.54
315.401	275.16
315.857	300.91
316.313	279.84
316.769	289.2
317.225	331.33
317.681	272.82
318.136	298.56
318.592	336.01
319.048	303.25
319.503	221.33
319.959	312.61
320.414	317.29
320.869	359.42
321.325	296.22
321.78	235.37
322.235	328.99
322.691	317.29
323.146	319.63
323.601	314.95
324.056	289.2
324.511	303.25
324.966	261.12
325.421	326.65
325.875	314.95
326.33	340.69
326.785	282.18
327.24	270.48
327.694	265.8
328.149	389.85
328.603	216.65
329.058	345.38
329.512	373.46
329.966	300.91
330.421	282.18
330.875	331.33
331.329	331.33
331.783	406.23
332.237	354.74
332.691	298.56
333.145	305.59
333.599	291.54
334.053	361.76
334.507	279.84
334.96	289.2
335.414	324.31
335.868	368.78
336.321	244.73
336.775	303.25
337.228	336.01
337.682	324.31
338.135	310.27
338.588	275.16
339.042	300.91
339.495	392.19
339.948	343.03
340.401	312.61
340.854	310.27
341.307	326.65
341.76	326.65
342.213	328.99
342.666	310.27
343.119	321.97
343.571	331.33
344.024	317.29
344.477	261.12
344.929	350.06
345.382	268.14
345.834	347.72
346.287	321.97
346.739	350.06
347.191	394.53
347.644	263.46
348.096	336.01
348.548	300.91
349	328.99
349.452	303.25
349.904	303.25
350.356	317.29
350.808	293.88
351.26	298.56
351.711	319.63
352.163	305.59
352.615	368.78
353.066	310.27
353.518	261.12
353.969	256.43
354.421	310.27
354.872	286.86
355.324	317.29
355.775	340.69
356.226	333.67
356.677	368.78
357.128	305.59
357.579	336.01
358.03	319.63
358.481	371.12
358.932	296.22
359.383	319.63
359.834	326.65
360.285	340.69
360.735	277.5
361.186	291.54
361.637	406.23
362.087	312.61
362.538	282.18
362.988	324.31
363.438	336.01
363.889	324.31
364.339	305.59
364.789	317.29
365.239	300.91
365.689	298.56
366.139	333.67
366.589	347.72
367.039	312.61
367.489	317.29
367.939	364.1
368.389	333.67
368.839	251.75
369.288	343.03
369.738	307.93
370.187	284.52
370.637	319.63
371.086	312.61
371.536	268.14
371.985	303.25
372.434	324.31
372.884	256.43
373.333	328.99
373.782	310.27
374.231	296.22
374.68	343.03
375.129	375.8
375.578	298.56
376.027	307.93
376.475	324.31
376.924	291.54
377.373	317.29
377.822	293.88
378.27	312.61
378.719	399.21
379.167	410.91
379.616	326.65
380.064	328.99
380.512	310.27
380.961	347.72
381.409	359.42
381.857	345.38
382.305	312.61
382.753	350.06
383.201	354.74
383.649	338.35
384.097	359.42
384.545	282.18
384.992	296.22
385.44	354.74
385.888	317.29
386.335	300.91
386.783	265.8
387.231	240.05
387.678	321.97
388.125	345.38
388.573	261.12
389.02	366.44
389.467	282.18
389.914	282.18
390.362	303.25
390.809	340.69
391.256	326.65
391.703	368.78
392.15	326.65
392.596	314.95
393.043	324.31
393.49	279.84
393.937	333.67
394.383	359.42
394.83	282.18
395.276	216.65
395.723	293.88
396.169	310.27
396.616	310.27
397.062	326.65
397.508	270.48
397.954	375.8
398.401	364.1
398.847	307.93
399.293	293.88
399.739	275.16
400.185	307.93
400.631	261.12
401.076	284.52
401.522	333.67
401.968	357.08
402.414	270.48
402.859	340.69
403.305	333.67
403.75	361.76
404.196	359.42
404.641	340.69
405.086	310.27
405.532	333.67
405.977	296.22
406.422	296.22
406.867	328.99
407.312	275.16
407.757	305.59
408.202	324.31
408.647	343.03
409.092	307.93
409.537	300.91
409.982	380.48
410.426	319.63
410.871	408.57
411.316	373.46
411.76	359.42
412.205	338.35
412.649	275.16
413.093	338.35
413.538	354.74
413.982	305.59
414.426	368.78
414.87	300.91
415.314	331.33
415.758	321.97
416.202	375.8
416.646	300.91
417.09	303.25
417.534	305.59
417.978	338.35
418.421	368.78
418.865	298.56
419.309	291.54
419.752	286.86
420.196	350.06
420.639	347.72
421.083	298.56
421.526	279.84
421.969	338.35
422.412	310.27
422.856	354.74
423.299	350.06
423.742	359.42
424.185	326.65
424.628	321.97
425.071	387.5
425.513	371.12
425.956	258.78
426.399	364.1
426.842	286.86
427.284	272.82
427.727	333.67
428.169	296.22
428.612	354.74
429.054	343.03
429.497	340.69
429.939	282.18
430.381	296.22
430.823	336.01
431.265	347.72
431.707	286.86
432.149	312.61
432.591	296.22
433.033	307.93
433.475	336.01
433.917	371.12
434.359	314.95
434.8	305.59
435.242	336.01
435.684	387.5
436.125	226.01
436.567	333.67
437.008	357.08
437.449	317.29
437.891	343.03
438.332	396.87
438.773	286.86
439.214	312.61
439.656	340.69
440.097	361.76
440.538	310.27
440.978	352.4
441.419	371.12
441.86	300.91
442.301	375.8
442.742	270.48
443.182	347.72
443.623	343.03
444.063	307.93
444.504	298.56
444.944	298.56
445.385	321.97
445.825	357.08
446.265	345.38
446.706	279.84
447.146	293.88
447.586	286.86
448.026	364.1
448.466	317.29
448.906	350.06
449.346	371.12
449.786	352.4
450.225	279.84
450.665	321.97
451.105	314.95
451.544	333.67
451.984	310.27
452.424	373.46
452.863	361.76
453.302	328.99
453.742	343.03
454.181	340.69
454.62	392.19
455.059	347.72
455.499	321.97
455.938	286.86
456.377	291.54
456.816	307.93
457.254	317.29
457.693	314.95
458.132	282.18
458.571	331.33
459.01	251.75
459.448	298.56
459.887	328.99
460.325	303.25
460.764	343.03
461.202	345.38
461.641	345.38
462.079	326.65
462.517	240.05
462.955	314.95
463.393	326.65
463.832	368.78
464.27	293.88
464.708	310.27
465.145	277.5
465.583	401.55
466.021	324.31
466.459	310.27
466.897	289.2
467.334	310.27
467.772	321.97
468.209	403.89
468.647	307.93
469.084	331.33
469.522	401.55
469.959	328.99
470.396	354.74
470.833	321.97
471.271	403.89
471.708	298.56
472.145	354.74
472.582	392.19
473.019	305.59
473.456	293.88
473.892	331.33
474.329	293.88
474.766	256.43
475.202	319.63
475.639	319.63
476.076	282.18
476.512	343.03
476.949	394.53
477.385	326.65
477.821	275.16
478.258	321.97
478.694	314.95
479.13	312.61
479.566	275.16
480.002	300.91
480.438	310.27
480.874	324.31
481.31	314.95
481.746	282.18
482.181	340.69
482.617	336.01
483.053	328.99
483.488	282.18
483.924	293.88
484.36	305.59
484.795	317.29
485.23	364.1
485.666	401.55
486.101	338.35
486.536	296.22
486.971	368.78
487.407	293.88
487.842	364.1
488.277	298.56
488.712	314.95
489.146	249.41
489.581	366.44
490.016	336.01
490.451	340.69
490.885	375.8
491.32	324.31
491.755	321.97
492.189	345.38
492.624	324.31
493.058	298.56
493.492	272.82
493.927	357.08
494.361	359.42
494.795	282.18
495.229	298.56
495.663	378.14
496.097	317.29
496.531	385.16
496.965	345.38
497.399	307.93
497.833	328.99
498.266	350.06
498.7	261.12
499.134	359.42
499.567	317.29
500.001	359.42
500.434	286.86
500.868	336.01
501.301	296.22
501.734	265.8
502.168	361.76
502.601	300.91
503.034	321.97
503.467	375.8
503.9	338.35
504.333	343.03
504.766	378.14
505.199	324.31
505.632	228.35
506.064	303.25
506.497	328.99
506.93	249.41
507.362	352.4
507.795	263.46
508.227	296.22
508.66	326.65
509.092	319.63
509.524	385.16
509.956	340.69
510.389	249.41
510.821	340.69
511.253	350.06
511.685	345.38
512.117	272.82
512.549	371.12
512.981	357.08
513.412	305.59
513.844	312.61
514.276	279.84
514.707	310.27
515.139	293.88
515.571	343.03
516.002	366.44
516.433	359.42
516.865	359.42
517.296	371.12
517.727	305.59
518.159	279.84
518.59	286.86
519.021	282.18
519.452	328.99
519.883	357.08
520.314	261.12
520.744	277.5
521.175	336.01
521.606	354.74
522.037	340.69
522.467	387.5
522.898	366.44
523.328	350.06
523.759	424.95
524.189	310.27
524.62	324.31
525.05	261.12
525.48	352.4
525.91	324.31
526.341	350.06
526.771	375.8
527.201	350.06
527.631	328.99
528.061	324.31
528.49	394.53
528.92	368.78
529.35	319.63
529.78	265.8
530.209	319.63
530.639	331.33
531.068	305.59
531.498	265.8
531.927	328.99
532.357	321.97
532.786	361.76
533.215	352.4
533.644	333.67
534.074	368.78
534.503	347.72
534.932	366.44
535.361	343.03
535.79	328.99
536.218	244.73
536.647	321.97
537.076	270.48
537.505	328.99
537.933	289.2
538.362	289.2
538.79	366.44
539.219	279.84
539.647	345.38
540.076	298.56
540.504	387.5
540.932	279.84
541.36	326.65
541.788	378.14
542.217	350.06
542.645	310.27
543.073	321.97
543.5	321.97
543.928	319.63
544.356	310.27
544.784	340.69
545.211	408.57
545.639	268.14
546.067	284.52
546.494	312.61
546.922	333.67
547.349	328.99
547.776	352.4
548.204	361.76
548.631	333.67
549.058	399.21
549.485	321.97
549.912	319.63
550.339	296.22
550.766	305.59
551.193	352.4
551.62	366.44
552.047	340.69
552.474	314.95
552.9	361.76
553.327	343.03
553.754	336.01
554.18	314.95
554.607	394.53
555.033	357.08
555.459	352.4
555.886	321.97
556.312	286.86
556.738	382.82
557.164	340.69
557.59	333.67
558.016	300.91
558.442	371.12
558.868	321.97
559.294	319.63
559.72	343.03
560.145	331.33
560.571	300.91
560.997	291.54
561.422	284.52
561.848	361.76
562.273	272.82
562.699	275.16
563.124	336.01
563.549	343.03
563.974	310.27
564.4	312.61
564.825	314.95
565.25	336.01
565.675	328.99
566.1	326.65
566.525	286.86
566.95	305.59
567.374	275.16
567.799	256.43
568.224	340.69
568.648	380.48
569.073	314.95
569.497	296.22
569.922	221.33
570.346	328.99
570.771	389.85
571.195	291.54
571.619	361.76
572.043	333.67
572.467	326.65
572.891	300.91
573.315	270.48
573.739	282.18
574.163	286.86
574.587	312.61
575.011	354.74
575.435	326.65
575.858	326.65
576.282	291.54
576.705	263.46
577.129	340.69
577.552	312.61
577.976	293.88
578.399	321.97
578.822	303.25
579.245	268.14
579.669	338.35
580.092	277.5
580.515	338.35
580.938	291.54
581.361	333.67
581.784	350.06
582.206	357.08
582.629	345.38
583.052	387.5
583.474	310.27
583.897	328.99
584.32	359.42
584.742	345.38
585.165	282.18
585.587	331.33
586.009	312.61
586.431	300.91
586.854	298.56
587.276	279.84
587.698	361.76
588.12	324.31
588.542	321.97
588.964	270.48
589.386	331.33
589.807	328.99
590.229	361.76
590.651	324.31
591.073	382.82
591.494	333.67
591.916	345.38
592.337	352.4
592.759	343.03
593.18	359.42
593.601	268.14
594.022	265.8
594.444	324.31
594.865	277.5
595.286	375.8
595.707	371.12
596.128	319.63
596.549	328.99
596.97	300.91
597.39	289.2
597.811	300.91
598.232	336.01
598.652	312.61
599.073	298.56
599.494	307.93
599.914	321.97
600.334	321.97
600.755	343.03
601.175	270.48
601.595	317.29
602.015	296.22
602.436	310.27
602.856	427.29
603.276	312.61
603.696	368.78
604.115	333.67
604.535	270.48
604.955	352.4
605.375	300.91
605.794	352.4
606.214	328.99
606.634	247.07
607.053	380.48
607.473	340.69
607.892	375.8
608.311	321.97
608.731	268.14
609.15	352.4
609.569	319.63
609.988	364.1
610.407	300.91
610.826	338.35
611.245	352.4
611.664	331.33
612.083	354.74
612.501	312.61
612.92	326.65
613.339	352.4
613.757	319.63
614.176	368.78
614.594	310.27
615.013	307.93
615.431	300.91
615.85	261.12
616.268	268.14
616.686	298.56
617.104	354.74
617.522	265.8
617.94	312.61
618.358	328.99
618.776	392.19
619.194	354.74
619.612	272.82
620.03	352.4
620.447	270.48
620.865	298.56
621.282	303.25
621.7	312.61
622.117	291.54
622.535	336.01
622.952	326.65
623.369	347.72
623.787	291.54
624.204	378.14
624.621	279.84
625.038	312.61
625.455	223.67
625.872	303.25
626.289	258.78
626.706	331.33
627.123	328.99
627.539	368.78
627.956	282.18
628.373	319.63
628.789	305.59
629.206	336.01
629.622	296.22
630.038	331.33
630.455	378.14
630.871	357.08
631.287	293.88
631.703	300.91
632.12	347.72
632.536	277.5
632.952	275.16
633.368	328.99
633.783	312.61
634.199	317.29
634.615	319.63
635.031	338.35
635.446	350.06
635.862	319.63
636.277	289.2
636.693	340.69
637.108	382.82
637.524	352.4
637.939	293.88
638.354	331.33
638.77	347.72
639.185	265.8
639.6	338.35
640.015	310.27
640.43	286.86
640.845	317.29
641.259	343.03
641.674	275.16
642.089	345.38
642.504	371.12
642.918	303.25
643.333	338.35
643.747	305.59
644.162	364.1
644.576	347.72
644.991	240.05
645.405	321.97
645.819	277.5
646.233	340.69
646.647	326.65
647.061	389.85
647.475	338.35
647.889	300.91
648.303	277.5
648.717	354.74
649.131	296.22
649.545	265.8
649.958	331.33
650.372	310.27
650.785	331.33
651.199	314.95
651.612	305.59
652.026	343.03
652.439	340.69
652.852	268.14
653.266	338.35
653.679	343.03
654.092	371.12
654.505	300.91
654.918	338.35
655.331	312.61
655.744	328.99
656.156	305.59
656.569	336.01
656.982	359.42
657.394	343.03
657.807	312.61
658.22	366.44
658.632	331.33
659.044	375.8
659.457	310.27
659.869	314.95
660.281	312.61
660.693	300.91
661.106	368.78
661.518	321.97
661.93	343.03
662.342	291.54
662.754	293.88
663.165	296.22
663.577	314.95
663.989	347.72
664.401	312.61
664.812	371.12
665.224	328.99
665.635	328.99
666.047	354.74
666.458	286.86
666.869	310.27
667.281	289.2
667.692	293.88
668.103	289.2
668.514	352.4
668.925	340.69
669.336	307.93
669.747	389.85
670.158	284.52
670.569	314.95
670.979	319.63
671.39	354.74
671.801	305.59
672.211	230.69
672.622	272.82
673.032	298.56
673.443	415.59
673.853	258.78
674.263	314.95
674.674	364.1
675.084	326.65
675.494	338.35
675.904	268.14
676.314	324.31
676.724	368.78
677.134	359.42
677.544	382.82
677.953	333.67
678.363	333.67
678.773	352.4
679.182	352.4
679.592	354.74
680.001	282.18
680.411	300.91
680.82	314.95
681.23	310.27
681.639	312.61
682.048	373.46
682.457	387.5
682.866	338.35
683.275	251.75
683.684	291.54
684.093	373.46
684.502	272.82
684.911	354.74
685.32	298.56
685.728	307.93
686.137	275.16
686.546	364.1
686.954	265.8
687.363	359.42
687.771	336.01
688.179	371.12
688.588	307.93
688.996	254.09
689.404	328.99
689.812	317.29
690.22	268.14
690.628	307.93
691.036	279.84
691.444	326.65
691.852	345.38
692.26	352.4
692.667	307.93
693.075	321.97
693.483	331.33
693.89	256.43
694.298	286.86
694.705	293.88
695.112	357.08
695.52	361.76
695.927	338.35
696.334	296.22
696.741	333.67
697.148	368.78
697.555	291.54
697.962	368.78
698.369	310.27
698.776	343.03
699.183	338.35
699.59	275.16
699.996	380.48
700.403	326.65
700.81	296.22
701.216	298.56
701.623	371.12
702.029	272.82
702.435	359.42
702.842	338.35
703.248	284.52
703.654	343.03
704.06	373.46
704.466	258.78
704.872	382.82
705.278	338.35
705.684	361.76
706.09	326.65
706.496	310.27
706.901	387.5
707.307	298.56
707.712	272.82
708.118	317.29
708.523	307.93
708.929	352.4
709.334	331.33
709.74	312.61
710.145	307.93
710.55	261.12
710.955	300.91
711.36	282.18
711.765	300.91
712.17	345.38
712.575	275.16
712.98	911.78
713.385	321.97
713.789	307.93
714.194	359.42
714.599	286.86
715.003	296.22
715.408	324.31
715.812	293.88
716.217	371.12
716.621	343.03
717.025	310.27
717.429	314.95
717.833	263.46
718.238	357.08
718.642	347.72
719.046	307.93
719.449	263.46
719.853	364.1
720.257	321.97
720.661	340.69
721.065	275.16
721.468	317.29
721.872	336.01
722.275	347.72
722.679	319.63
723.082	343.03
723.485	275.16
723.889	233.03
724.292	265.8
724.695	284.52
725.098	314.95
725.501	305.59
725.904	298.56
726.307	286.86
726.71	413.25
727.113	305.59
727.516	347.72
727.918	284.52
728.321	249.41
728.724	331.33
729.126	310.27
729.529	373.46
729.931	310.27
730.333	291.54
730.736	366.44
731.138	270.48
731.54	340.69
731.942	354.74
732.344	401.55
732.746	359.42
733.148	359.42
733.55	286.86
733.952	354.74
734.354	275.16
734.756	328.99
735.157	380.48
735.559	272.82
735.96	326.65
736.362	319.63
736.763	307.93
737.165	249.41
737.566	307.93
737.967	289.2
738.368	317.29
738.77	307.93
739.171	286.86
739.572	312.61
739.973	340.69
740.374	298.56
740.774	303.25
741.175	296.22
741.576	268.14
741.977	263.46
742.377	336.01
742.778	310.27
743.178	296.22
743.579	291.54
743.979	279.84
744.379	326.65
744.78	359.42
745.18	338.35
745.58	275.16
745.98	373.46
746.38	256.43
746.78	277.5
747.18	279.84
747.58	343.03
747.98	317.29
748.38	300.91
748.779	347.72
749.179	317.29
749.578	380.48
749.978	284.52
750.377	326.65
750.777	279.84
751.176	298.56
751.575	319.63
751.975	310.27
752.374	359.42
752.773	359.42
753.172	317.29
753.571	401.55
753.97	275.16
754.369	328.99
754.768	272.82
755.166	401.55
755.565	303.25
755.964	305.59
756.362	331.33
756.761	336.01
757.159	284.52
757.558	291.54
757.956	361.76
758.354	338.35
758.753	298.56
759.151	343.03
759.549	307.93
759.947	338.35
760.345	359.42
760.743	256.43
761.141	300.91
761.539	373.46
761.936	350.06
762.334	300.91
762.732	324.31
763.129	340.69
763.527	303.25
763.924	357.08
764.322	326.65
764.719	272.82
765.117	347.72
765.514	347.72
765.911	331.33
766.308	326.65
766.705	326.65
767.102	307.93
767.499	321.97
767.896	417.93
768.293	275.16
768.69	350.06
769.086	312.61
769.483	310.27
769.88	305.59
770.276	366.44
770.673	324.31
771.069	314.95
771.466	345.38
771.862	268.14
772.258	354.74
772.654	291.54
773.05	328.99
773.447	298.56
773.843	361.76
774.239	331.33
774.634	298.56
775.03	340.69
775.426	359.42
775.822	385.16
776.218	263.46
776.613	326.65
777.009	413.25
777.404	333.67
777.8	293.88
778.195	251.75
778.59	359.42
778.986	364.1
779.381	291.54
779.776	305.59
780.171	312.61
780.566	324.31
780.961	279.84
781.356	350.06
781.751	319.63
782.146	333.67
782.54	385.16
782.935	345.38
783.33	305.59
783.724	312.61
784.119	324.31
784.513	321.97
784.908	345.38
785.302	291.54
785.696	296.22
786.09	291.54
786.485	338.35
786.879	359.42
787.273	340.69
787.667	357.08
788.061	331.33
788.454	350.06
788.848	282.18
789.242	338.35
789.636	336.01
790.029	333.67
790.423	235.37
790.816	317.29
791.21	317.29
791.603	340.69
791.997	314.95
792.39	298.56
792.783	317.29
793.176	265.8
793.569	272.82
793.962	338.35
794.355	265.8
794.748	293.88
795.141	361.76
795.534	312.61
795.927	251.75
796.319	305.59
796.712	286.86
797.105	343.03
797.497	296.22
797.89	326.65
798.282	319.63
798.674	254.09
799.067	296.22
799.459	296.22
799.851	317.29
800.243	298.56
800.635	336.01
801.027	314.95
801.419	366.44
801.811	312.61
802.203	293.88
802.594	275.16
802.986	333.67
803.378	336.01
803.769	357.08
804.161	352.4
804.552	338.35
804.944	333.67
805.335	312.61
805.726	279.84
806.118	305.59
806.509	307.93
806.9	328.99
807.291	310.27
807.682	345.38
808.073	347.72
808.464	284.52
808.855	317.29
809.245	345.38
809.636	364.1
810.027	303.25
810.417	366.44
810.808	378.14
811.198	364.1
811.589	312.61
811.979	375.8
812.369	307.93
812.759	277.5
813.15	293.88
813.54	319.63
813.93	303.25
814.32	321.97
814.71	305.59
815.1	319.63
815.489	331.33
815.879	319.63
816.269	305.59
816.658	314.95
817.048	270.48
817.438	230.69
817.827	265.8
818.216	328.99
818.606	300.91
818.995	275.16
819.384	226.01
819.773	328.99
820.163	270.48
820.552	261.12
820.941	352.4
821.33	275.16
821.718	307.93
822.107	265.8
822.496	293.88
822.885	240.05
823.273	291.54
823.662	317.29
824.05	296.22
824.439	263.46
824.827	272.82
825.216	293.88
825.604	331.33
825.992	333.67
826.38	368.78
826.768	303.25
827.156	338.35
827.544	296.22
827.932	277.5
828.32	361.76
828.708	319.63
829.096	368.78
829.483	319.63
829.871	310.27
830.259	314.95
830.646	321.97
831.034	361.76
831.421	354.74
831.808	336.01
832.196	338.35
832.583	389.85
832.97	333.67
833.357	340.69
833.744	303.25
834.131	345.38
834.518	300.91
834.905	296.22
835.292	277.5
835.678	291.54
836.065	275.16
836.452	378.14
836.838	291.54
837.225	347.72
837.611	312.61
837.998	282.18
838.384	352.4
838.77	321.97
839.157	279.84
839.543	300.91
839.929	307.93
840.315	272.82
840.701	319.63
841.087	336.01
841.473	298.56
841.858	279.84
842.244	312.61
842.63	317.29
843.015	307.93
843.401	659.01
843.787	326.65
844.172	305.59
844.557	396.87
844.943	321.97
845.328	305.59
845.713	392.19
846.098	427.29
846.483	352.4
846.868	385.16
847.253	305.59
847.638	359.42
848.023	319.63
848.408	300.91
848.793	331.33
849.177	333.67
849.562	286.86
849.947	368.78
850.331	321.97
850.715	272.82
851.1	305.59
851.484	314.95
851.868	343.03
852.253	343.03
852.637	410.91
853.021	333.67
853.405	263.46
853.789	305.59
854.173	272.82
854.557	321.97
854.94	286.86
855.324	312.61
855.708	296.22
856.091	321.97
856.475	343.03
856.858	291.54
857.242	324.31
857.625	291.54
858.009	347.72
858.392	286.86
858.775	340.69
859.158	347.72
859.541	284.52
859.924	340.69
860.307	319.63
860.69	361.76
861.073	279.84
861.456	324.31
861.838	263.46
862.221	251.75
862.604	319.63
862.986	354.74
863.369	343.03
863.751	326.65
864.133	321.97
864.516	303.25
864.898	284.52
865.28	291.54
865.662	378.14
866.044	282.18
866.426	352.4
866.808	333.67
867.19	298.56
867.572	314.95
867.954	331.33
868.336	371.12
868.717	361.76
869.099	331.33
869.48	310.27
869.862	319.63
870.243	338.35
870.625	305.59
871.006	272.82
871.387	331.33
871.768	364.1
872.149	340.69
872.53	347.72
872.911	293.88
873.292	291.54
873.673	364.1
874.054	343.03
874.435	307.93
874.815	300.91
875.196	359.42
875.577	284.52
875.957	305.59
876.338	321.97
876.718	336.01
877.098	314.95
877.479	314.95
877.859	357.08
878.239	357.08
878.619	279.84
878.999	300.91
879.379	314.95
879.759	326.65
880.139	326.65
880.519	345.38
880.898	354.74
881.278	300.91
881.658	261.12
882.037	350.06
882.417	350.06
882.796	293.88
883.176	331.33
883.555	359.42
883.934	385.16
884.313	328.99
884.693	324.31
885.072	319.63
885.451	324.31
885.83	293.88
886.209	303.25
886.587	272.82
886.966	279.84
887.345	371.12
887.724	282.18
888.102	352.4
888.481	256.43
888.859	317.29
889.238	324.31
889.616	218.99
889.994	305.59
890.373	328.99
890.751	345.38
891.129	300.91
891.507	343.03
891.885	343.03
892.263	336.01
892.641	373.46
893.019	275.16
893.396	314.95
893.774	310.27
894.152	265.8
894.529	317.29
894.907	328.99
895.284	310.27
895.662	293.88
896.039	314.95
896.416	336.01
896.794	331.33
897.171	293.88
897.548	352.4
897.925	305.59
898.302	317.29
898.679	300.91
899.056	216.65
899.433	338.35
899.809	319.63
900.186	373.46
900.563	284.52
900.939	373.46
901.316	275.16
901.692	354.74
902.069	312.61
902.445	305.59
902.821	354.74
903.197	314.95
903.574	336.01
903.95	300.91
904.326	291.54
904.702	331.33
905.078	333.67
905.454	340.69
905.829	364.1
906.205	303.25
906.581	272.82
906.956	347.72
907.332	403.89
907.707	331.33
908.083	296.22
908.458	312.61
908.833	233.03
909.209	303.25
909.584	319.63
909.959	310.27
910.334	254.09
910.709	284.52
911.084	333.67
911.459	293.88
911.834	251.75
912.209	331.33
912.583	291.54
912.958	272.82
913.333	347.72
913.707	336.01
914.082	310.27
914.456	284.52
914.83	298.56
915.205	303.25
915.579	270.48
915.953	298.56
916.327	254.09
916.701	401.55
917.075	319.63
917.449	378.14
917.823	307.93
918.197	321.97
918.571	326.65
918.944	354.74
919.318	291.54
919.692	326.65
920.065	338.35
920.438	340.69
920.812	336.01
921.185	368.78
921.558	298.56
921.932	350.06
922.305	286.86
922.678	317.29
923.051	277.5
923.424	364.1
923.797	319.63
924.17	361.76
924.542	382.82
924.915	324.31
925.288	303.25
925.661	317.29
926.033	286.86
926.406	307.93
926.778	375.8
927.15	305.59
927.523	317.29
927.895	324.31
928.267	321.97
928.639	261.12
929.011	343.03
929.383	307.93
929.755	310.27
930.127	403.89
930.499	312.61
930.871	305.59
931.242	303.25
931.614	336.01
931.986	340.69
932.357	333.67
932.729	324.31
933.1	291.54
933.471	350.06
933.843	333.67
934.214	277.5
934.585	357.08
934.956	275.16
935.327	324.31
935.698	249.41
936.069	263.46
936.44	293.88
936.811	296.22
937.182	249.41
937.552	282.18
937.923	265.8
938.293	338.35
938.664	347.72
939.034	319.63
939.405	279.84
939.775	300.91
940.145	368.78
940.516	321.97
940.886	251.75
941.256	298.56
941.626	321.97
941.996	211.96
942.366	282.18
942.735	317.29
943.105	275.16
943.475	296.22
943.845	328.99
944.214	307.93
944.584	293.88
944.953	389.85
945.323	357.08
945.692	317.29
946.061	293.88
946.43	291.54
946.8	296.22
947.169	261.12
947.538	340.69
947.907	333.67
948.276	298.56
948.645	319.63
949.013	284.52
949.382	310.27
949.751	380.48
950.119	326.65
950.488	265.8
950.857	235.37
951.225	312.61
951.593	291.54
951.962	284.52
952.33	291.54
952.698	275.16
953.066	319.63
953.434	256.43
953.802	282.18
954.17	340.69
954.538	305.59
954.906	307.93
955.274	254.09
955.642	317.29
956.009	343.03
956.377	352.4
956.744	270.48
957.112	331.33
957.479	256.43
957.847	347.72
958.214	300.91
958.581	354.74
958.948	300.91
959.315	300.91
959.683	317.29
960.05	289.2
960.416	270.48
960.783	317.29
961.15	307.93
961.517	251.75
961.884	317.29
962.25	336.01
962.617	340.69
962.983	387.5
963.35	307.93
963.716	317.29
964.082	279.84
964.449	328.99
964.815	314.95
965.181	321.97
965.547	350.06
965.913	359.42
966.279	336.01
966.645	366.44
967.011	305.59
967.377	371.12
967.742	333.67
968.108	331.33
968.474	293.88
968.839	268.14
969.205	314.95
969.57	296.22
969.935	343.03
970.301	296.22
970.666	310.27
971.031	291.54
971.396	314.95
971.761	385.16
972.126	291.54
972.491	340.69
972.856	251.75
973.221	338.35
973.586	307.93
973.95	293.88
974.315	347.72
974.679	279.84
975.044	303.25
975.408	354.74
975.773	338.35
976.137	275.16
976.501	331.33
976.866	277.5
977.23	340.69
977.594	275.16
977.958	314.95
978.322	333.67
978.686	310.27
979.049	291.54
979.413	343.03
979.777	258.78
980.141	305.59
980.504	331.33
980.868	368.78
981.231	352.4
981.595	310.27
981.958	291.54
982.321	399.21
982.684	333.67
983.048	343.03
983.411	312.61
983.774	284.52
984.137	268.14
984.5	328.99
984.862	291.54
985.225	305.59
985.588	277.5
985.951	305.59
986.313	284.52
986.676	270.48
987.038	347.72
987.401	371.12
987.763	357.08
988.125	300.91
988.488	312.61
988.85	350.06
989.212	277.5
989.574	317.29
989.936	345.38
990.298	361.76
990.66	319.63
991.022	328.99
991.383	350.06
991.745	303.25
992.107	333.67
992.468	345.38
992.83	317.29
993.191	305.59
993.553	300.91
993.914	282.18
994.275	275.16
994.637	223.67
994.998	319.63
995.359	284.52
995.72	331.33
996.081	333.67
996.442	331.33
996.803	270.48
997.163	300.91
997.524	338.35
997.885	291.54
998.245	314.95
998.606	321.97
998.966	303.25
999.327	350.06
999.687	242.39
1000.047	272.82
1000.408	310.27
1000.768	291.54
1001.128	305.59
1001.488	331.33
1001.848	331.33
1002.208	303.25
1002.568	293.88
1002.927	314.95
1003.287	371.12
1003.647	338.35
1004.007	291.54
1004.366	352.4
1004.726	263.46
1005.085	338.35
1005.444	307.93
1005.804	350.06
1006.163	319.63
1006.522	336.01
1006.881	261.12
1007.24	312.61
1007.599	366.44
1007.958	279.84
1008.317	307.93
1008.676	368.78
1009.035	366.44
1009.393	307.93
1009.752	270.48
1010.111	284.52
1010.469	268.14
1010.828	303.25
1011.186	265.8
1011.544	326.65
1011.903	357.08
1012.261	314.95
1012.619	324.31
1012.977	333.67
1013.335	307.93
1013.693	354.74
1014.051	324.31
1014.409	286.86
1014.767	310.27
1015.124	345.38
1015.482	303.25
1015.84	286.86
1016.197	338.35
1016.555	336.01
1016.912	303.25
1017.269	324.31
1017.627	328.99
1017.984	336.01
1018.341	401.55
1018.698	310.27
1019.055	343.03
1019.412	326.65
1019.769	251.75
1020.126	247.07
1020.483	317.29
1020.84	328.99
1021.196	307.93
1021.553	336.01
1021.909	286.86
1022.266	279.84
1022.622	293.88
1022.979	382.82
1023.335	321.97
1023.691	235.37
1024.047	265.8
1024.404	357.08
1024.76	284.52
1025.116	319.63
1025.472	340.69
1025.827	328.99
1026.183	261.12
1026.539	352.4
1026.895	289.2
1027.25	371.12
1027.606	321.97
1027.961	312.61
1028.317	324.31
1028.672	312.61
1029.028	272.82
1029.383	361.76
1029.738	263.46
1030.093	258.78
1030.448	300.91
1030.803	326.65
1031.158	310.27
1031.513	307.93
1031.868	338.35
1032.223	354.74
1032.577	261.12
1032.932	289.2
1033.287	345.38
1033.641	279.84
1033.996	284.52
1034.35	350.06
1034.704	331.33
1035.059	345.38
1035.413	247.07
1035.767	247.07
1036.121	247.07
