Data from Al_FLMS009871__1060__16-27-02-711.txt Node

Date: Fri Mar 08 16:27:02 CST 2024
User: pe5414po
Spectrometer: FLMS00987
Trigger mode: 0
Integration Time (sec): 1.000000E-1
Scans to average: 1
Electric dark correction enabled: true
Nonlinearity correction enabled: false
Boxcar width: 0
XAxis mode: Wavelengths
Number of Pixels in Spectrum: 2048
>>>>>Begin Spectral Data<<<<<
188.938	-100.5
189.409	-100.5
189.879	-100.5
190.349	-37.3
190.819	-102.84
191.29	-109.86
191.76	-154.33
192.23	-74.75
192.7	-86.45
193.17	-16.24
193.64	-81.77
194.109	-37.3
194.579	-6.88
195.049	-32.62
195.519	-25.6
195.988	30.57
196.458	68.02
196.927	63.34
197.397	154.62
197.866	171.01
198.336	138.24
198.805	77.38
199.274	182.71
199.744	131.22
200.213	161.64
200.682	168.66
201.151	250.58
201.62	210.79
202.089	213.14
202.558	255.26
203.027	278.67
203.495	304.42
203.964	290.37
204.433	304.42
204.902	320.8
205.37	313.78
205.839	281.01
206.307	255.26
206.776	313.78
207.244	325.48
207.712	266.97
208.181	320.8
208.649	273.99
209.117	276.33
209.585	332.5
210.053	313.78
210.521	311.44
210.989	250.58
211.457	295.05
211.925	332.5
212.393	313.78
212.861	316.12
213.328	281.01
213.796	262.29
214.264	243.56
214.731	281.01
215.199	341.86
215.666	288.03
216.133	306.76
216.601	292.71
217.068	302.08
217.535	266.97
218.003	304.42
218.47	257.61
218.937	288.03
219.404	302.08
219.871	173.35
220.338	220.16
220.805	210.79
221.271	271.65
221.738	236.54
222.205	313.78
222.671	206.11
223.138	281.01
223.605	156.96
224.071	231.86
224.538	266.97
225.004	292.71
225.47	278.67
225.937	220.16
226.403	304.42
226.869	323.14
227.335	288.03
227.801	383.99
228.267	295.05
228.733	304.42
229.199	262.29
229.665	341.86
230.131	330.16
230.597	290.37
231.062	248.24
231.528	269.31
231.994	257.61
232.459	302.08
232.925	245.9
233.39	252.92
233.856	290.37
234.321	201.43
234.786	231.86
235.252	297.39
235.717	320.8
236.182	255.26
236.647	248.24
237.112	290.37
237.577	262.29
238.042	231.86
238.507	208.45
238.972	234.2
239.436	245.9
239.901	292.71
240.366	313.78
240.83	264.63
241.295	245.9
241.76	259.95
242.224	353.57
242.688	379.31
243.153	259.95
243.617	241.22
244.081	271.65
244.545	295.05
245.01	295.05
245.474	313.78
245.938	266.97
246.402	288.03
246.866	271.65
247.33	271.65
247.793	299.73
248.257	290.37
248.721	299.73
249.185	302.08
249.648	278.67
250.112	292.71
250.575	278.67
251.039	339.52
251.502	320.8
251.965	215.48
252.429	297.39
252.892	332.5
253.355	245.9
253.818	245.9
254.281	278.67
254.744	281.01
255.207	309.1
255.67	259.95
256.133	376.97
256.596	262.29
257.059	297.39
257.522	306.76
257.984	276.33
258.447	283.35
258.909	273.99
259.372	215.48
259.834	257.61
260.297	383.99
260.759	297.39
261.221	297.39
261.684	292.71
262.146	285.69
262.608	325.48
263.07	285.69
263.532	252.92
263.994	325.48
264.456	365.27
264.918	365.27
265.38	290.37
265.842	255.26
266.303	299.73
266.765	358.25
267.227	311.44
267.688	325.48
268.15	278.67
268.611	278.67
269.072	297.39
269.534	269.31
269.995	295.05
270.456	327.82
270.918	266.97
271.379	243.56
271.84	299.73
272.301	318.46
272.762	255.26
273.223	257.61
273.684	344.21
274.144	339.52
274.605	269.31
275.066	264.63
275.527	323.14
275.987	271.65
276.448	302.08
276.908	290.37
277.369	348.89
277.829	323.14
278.289	316.12
278.75	278.67
279.21	330.16
279.67	292.71
280.13	243.56
280.59	304.42
281.05	290.37
281.51	250.58
281.97	292.71
282.43	297.39
282.89	290.37
283.35	250.58
283.809	313.78
284.269	311.44
284.729	271.65
285.188	325.48
285.648	304.42
286.107	379.31
286.567	292.71
287.026	316.12
287.485	355.91
287.944	276.33
288.404	341.86
288.863	231.86
289.322	304.42
289.781	297.39
290.24	304.42
290.699	341.86
291.158	299.73
291.616	332.5
292.075	266.97
292.534	257.61
292.992	295.05
293.451	259.95
293.91	290.37
294.368	281.01
294.827	295.05
295.285	299.73
295.743	313.78
296.202	241.22
296.66	325.48
297.118	337.18
297.576	297.39
298.034	313.78
298.492	252.92
298.95	276.33
299.408	311.44
299.866	290.37
300.324	271.65
300.781	273.99
301.239	332.5
301.697	273.99
302.154	311.44
302.612	316.12
303.069	292.71
303.527	309.1
303.984	334.84
304.441	334.84
304.899	309.1
305.356	292.71
305.813	372.29
306.27	262.29
306.727	276.33
307.184	288.03
307.641	283.35
308.098	337.18
308.555	367.61
309.012	318.46
309.468	257.61
309.925	302.08
310.382	278.67
310.838	255.26
311.295	259.95
311.751	337.18
312.208	283.35
312.664	309.1
313.12	320.8
313.577	346.55
314.033	255.26
314.489	278.67
314.945	264.63
315.401	259.95
315.857	348.89
316.313	358.25
316.769	238.88
317.225	302.08
317.681	327.82
318.136	297.39
318.592	259.95
319.048	299.73
319.503	269.31
319.959	236.54
320.414	257.61
320.869	295.05
321.325	278.67
321.78	285.69
322.235	320.8
322.691	313.78
323.146	290.37
323.601	281.01
324.056	243.56
324.511	278.67
324.966	318.46
325.421	306.76
325.875	325.48
326.33	292.71
326.785	290.37
327.24	320.8
327.694	309.1
328.149	243.56
328.603	288.03
329.058	348.89
329.512	358.25
329.966	334.84
330.421	334.84
330.875	290.37
331.329	362.93
331.783	292.71
332.237	285.69
332.691	355.91
333.145	297.39
333.599	365.27
334.053	297.39
334.507	304.42
334.96	330.16
335.414	266.97
335.868	320.8
336.321	327.82
336.775	276.33
337.228	316.12
337.682	234.2
338.135	358.25
338.588	297.39
339.042	327.82
339.495	318.46
339.948	339.52
340.401	306.76
340.854	365.27
341.307	348.89
341.76	288.03
342.213	278.67
342.666	201.43
343.119	391.02
343.571	344.21
344.024	341.86
344.477	299.73
344.929	318.46
345.382	327.82
345.834	360.59
346.287	299.73
346.739	330.16
347.191	297.39
347.644	330.16
348.096	248.24
348.548	292.71
349	283.35
349.452	346.55
349.904	316.12
350.356	285.69
350.808	236.54
351.26	330.16
351.711	283.35
352.163	313.78
352.615	257.61
353.066	320.8
353.518	273.99
353.969	330.16
354.421	313.78
354.872	332.5
355.324	344.21
355.775	306.76
356.226	367.61
356.677	346.55
357.128	337.18
357.579	299.73
358.03	351.23
358.481	344.21
358.932	292.71
359.383	316.12
359.834	306.76
360.285	341.86
360.735	252.92
361.186	334.84
361.637	351.23
362.087	341.86
362.538	360.59
362.988	358.25
363.438	313.78
363.889	313.78
364.339	266.97
364.789	313.78
365.239	297.39
365.689	290.37
366.139	323.14
366.589	360.59
367.039	266.97
367.489	271.65
367.939	325.48
368.389	313.78
368.839	309.1
369.288	299.73
369.738	283.35
370.187	285.69
370.637	304.42
371.086	330.16
371.536	330.16
371.985	362.93
372.434	299.73
372.884	285.69
373.333	273.99
373.782	320.8
374.231	295.05
374.68	283.35
375.129	299.73
375.578	325.48
376.027	358.25
376.475	346.55
376.924	325.48
377.373	297.39
377.822	337.18
378.27	358.25
378.719	320.8
379.167	304.42
379.616	323.14
380.064	334.84
380.512	325.48
380.961	292.71
381.409	332.5
381.857	327.82
382.305	327.82
382.753	313.78
383.201	259.95
383.649	309.1
384.097	339.52
384.545	283.35
384.992	355.91
385.44	309.1
385.888	273.99
386.335	330.16
386.783	320.8
387.231	391.02
387.678	302.08
388.125	316.12
388.573	353.57
389.02	316.12
389.467	304.42
389.914	316.12
390.362	309.1
390.809	313.78
391.256	290.37
391.703	304.42
392.15	346.55
392.596	273.99
393.043	360.59
393.49	405.06
393.937	360.59
394.383	325.48
394.83	376.97
395.276	346.55
395.723	311.44
396.169	355.91
396.616	327.82
397.062	334.84
397.508	292.71
397.954	391.02
398.401	302.08
398.847	362.93
399.293	299.73
399.739	330.16
400.185	285.69
400.631	320.8
401.076	285.69
401.522	250.58
401.968	362.93
402.414	337.18
402.859	320.8
403.305	318.46
403.75	369.95
404.196	309.1
404.641	320.8
405.086	288.03
405.532	269.31
405.977	262.29
406.422	358.25
406.867	278.67
407.312	299.73
407.757	313.78
408.202	334.84
408.647	297.39
409.092	313.78
409.537	311.44
409.982	318.46
410.426	252.92
410.871	369.95
411.316	327.82
411.76	306.76
412.205	288.03
412.649	344.21
413.093	323.14
413.538	231.86
413.982	290.37
414.426	299.73
414.87	252.92
415.314	332.5
415.758	355.91
416.202	316.12
416.646	367.61
417.09	367.61
417.534	369.95
417.978	358.25
418.421	285.69
418.865	320.8
419.309	334.84
419.752	295.05
420.196	325.48
420.639	341.86
421.083	302.08
421.526	323.14
421.969	299.73
422.412	313.78
422.856	309.1
423.299	273.99
423.742	323.14
424.185	278.67
424.628	388.68
425.071	362.93
425.513	311.44
425.956	360.59
426.399	304.42
426.842	309.1
427.284	337.18
427.727	358.25
428.169	285.69
428.612	304.42
429.054	269.31
429.497	311.44
429.939	269.31
430.381	281.01
430.823	323.14
431.265	271.65
431.707	306.76
432.149	257.61
432.591	269.31
433.033	318.46
433.475	339.52
433.917	369.95
434.359	323.14
434.8	337.18
435.242	316.12
435.684	320.8
436.125	346.55
436.567	271.65
437.008	334.84
437.449	266.97
437.891	334.84
438.332	362.93
438.773	306.76
439.214	332.5
439.656	337.18
440.097	341.86
440.538	332.5
440.978	295.05
441.419	285.69
441.86	348.89
442.301	332.5
442.742	304.42
443.182	295.05
443.623	309.1
444.063	269.31
444.504	262.29
444.944	262.29
445.385	351.23
445.825	236.54
446.265	323.14
446.706	344.21
447.146	316.12
447.586	360.59
448.026	320.8
448.466	327.82
448.906	290.37
449.346	266.97
449.786	299.73
450.225	348.89
450.665	325.48
451.105	330.16
451.544	341.86
451.984	320.8
452.424	283.35
452.863	313.78
453.302	306.76
453.742	262.29
454.181	316.12
454.62	348.89
455.059	281.01
455.499	383.99
455.938	344.21
456.377	355.91
456.816	334.84
457.254	348.89
457.693	353.57
458.132	379.31
458.571	353.57
459.01	304.42
459.448	339.52
459.887	290.37
460.325	318.46
460.764	299.73
461.202	360.59
461.641	306.76
462.079	339.52
462.517	311.44
462.955	362.93
463.393	337.18
463.832	327.82
464.27	362.93
464.708	320.8
465.145	369.95
465.583	259.95
466.021	358.25
466.459	304.42
466.897	278.67
467.334	304.42
467.772	252.92
468.209	278.67
468.647	374.63
469.084	313.78
469.522	248.24
469.959	344.21
470.396	327.82
470.833	325.48
471.271	332.5
471.708	299.73
472.145	323.14
472.582	358.25
473.019	290.37
473.456	346.55
473.892	302.08
474.329	383.99
474.766	306.76
475.202	376.97
475.639	283.35
476.076	386.33
476.512	283.35
476.949	304.42
477.385	288.03
477.821	283.35
478.258	316.12
478.694	231.86
479.13	290.37
479.566	323.14
480.002	316.12
480.438	299.73
480.874	355.91
481.31	320.8
481.746	309.1
482.181	332.5
482.617	330.16
483.053	344.21
483.488	358.25
483.924	292.71
484.36	285.69
484.795	320.8
485.23	309.1
485.666	297.39
486.101	320.8
486.536	332.5
486.971	259.95
487.407	311.44
487.842	271.65
488.277	264.63
488.712	327.82
489.146	365.27
489.581	358.25
490.016	292.71
490.451	316.12
490.885	297.39
491.32	292.71
491.755	306.76
492.189	320.8
492.624	379.31
493.058	341.86
493.492	292.71
493.927	271.65
494.361	330.16
494.795	393.36
495.229	318.46
495.663	330.16
496.097	259.95
496.531	283.35
496.965	358.25
497.399	372.29
497.833	353.57
498.266	299.73
498.7	320.8
499.134	273.99
499.567	327.82
500.001	313.78
500.434	391.02
500.868	330.16
501.301	330.16
501.734	306.76
502.168	323.14
502.601	309.1
503.034	348.89
503.467	259.95
503.9	379.31
504.333	281.01
504.766	292.71
505.199	302.08
505.632	323.14
506.064	355.91
506.497	311.44
506.93	367.61
507.362	306.76
507.795	337.18
508.227	334.84
508.66	353.57
509.092	414.42
509.524	285.69
509.956	325.48
510.389	309.1
510.821	304.42
511.253	330.16
511.685	369.95
512.117	327.82
512.549	288.03
512.981	318.46
513.412	316.12
513.844	309.1
514.276	306.76
514.707	323.14
515.139	362.93
515.571	318.46
516.002	283.35
516.433	304.42
516.865	332.5
517.296	346.55
517.727	316.12
518.159	348.89
518.59	383.99
519.021	327.82
519.452	245.9
519.883	421.44
520.314	330.16
520.744	316.12
521.175	316.12
521.606	306.76
522.037	306.76
522.467	316.12
522.898	332.5
523.328	332.5
523.759	248.24
524.189	318.46
524.62	369.95
525.05	276.33
525.48	313.78
525.91	346.55
526.341	334.84
526.771	327.82
527.201	337.18
527.631	398.04
528.061	330.16
528.49	360.59
528.92	320.8
529.35	292.71
529.78	355.91
530.209	297.39
530.639	313.78
531.068	278.67
531.498	358.25
531.927	320.8
532.357	337.18
532.786	243.56
533.215	346.55
533.644	325.48
534.074	283.35
534.503	302.08
534.932	353.57
535.361	362.93
535.79	299.73
536.218	362.93
536.647	320.8
537.076	299.73
537.505	271.65
537.933	297.39
538.362	341.86
538.79	348.89
539.219	325.48
539.647	306.76
540.076	332.5
540.504	369.95
540.932	297.39
541.36	351.23
541.788	388.68
542.217	374.63
542.645	309.1
543.073	416.76
543.5	299.73
543.928	262.29
544.356	339.52
544.784	297.39
545.211	318.46
545.639	358.25
546.067	334.84
546.494	367.61
546.922	295.05
547.349	409.74
547.776	278.67
548.204	318.46
548.631	292.71
549.058	327.82
549.485	360.59
549.912	309.1
550.339	311.44
550.766	311.44
551.193	292.71
551.62	238.88
552.047	325.48
552.474	320.8
552.9	339.52
553.327	320.8
553.754	304.42
554.18	351.23
554.607	273.99
555.033	255.26
555.459	339.52
555.886	337.18
556.312	360.59
556.738	330.16
557.164	344.21
557.59	306.76
558.016	288.03
558.442	304.42
558.868	278.67
559.294	402.72
559.72	365.27
560.145	341.86
560.571	355.91
560.997	351.23
561.422	372.29
561.848	339.52
562.273	332.5
562.699	334.84
563.124	313.78
563.549	360.59
563.974	358.25
564.4	276.33
564.825	313.78
565.25	327.82
565.675	323.14
566.1	348.89
566.525	313.78
566.95	383.99
567.374	278.67
567.799	309.1
568.224	311.44
568.648	266.97
569.073	334.84
569.497	252.92
569.922	236.54
570.346	316.12
570.771	355.91
571.195	346.55
571.619	330.16
572.043	395.7
572.467	257.61
572.891	339.52
573.315	325.48
573.739	330.16
574.163	330.16
574.587	281.01
575.011	386.33
575.435	351.23
575.858	381.65
576.282	362.93
576.705	334.84
577.129	325.48
577.552	355.91
577.976	281.01
578.399	285.69
578.822	365.27
579.245	341.86
579.669	330.16
580.092	367.61
580.515	299.73
580.938	269.31
581.361	337.18
581.784	316.12
582.206	320.8
582.629	344.21
583.052	323.14
583.474	311.44
583.897	323.14
584.32	302.08
584.742	360.59
585.165	398.04
585.587	334.84
586.009	337.18
586.431	367.61
586.854	304.42
587.276	323.14
587.698	355.91
588.12	320.8
588.542	259.95
588.964	295.05
589.386	374.63
589.807	372.29
590.229	259.95
590.651	337.18
591.073	323.14
591.494	409.74
591.916	341.86
592.337	262.29
592.759	367.61
593.18	327.82
593.601	341.86
594.022	323.14
594.444	320.8
594.865	288.03
595.286	316.12
595.707	313.78
596.128	271.65
596.549	316.12
596.97	337.18
597.39	341.86
597.811	299.73
598.232	278.67
598.652	271.65
599.073	339.52
599.494	318.46
599.914	358.25
600.334	355.91
600.755	339.52
601.175	353.57
601.595	278.67
602.015	241.22
602.436	288.03
602.856	465.91
603.276	276.33
603.696	318.46
604.115	271.65
604.535	234.2
604.955	360.59
605.375	313.78
605.794	367.61
606.214	250.58
606.634	306.76
607.053	369.95
607.473	257.61
607.892	325.48
608.311	318.46
608.731	341.86
609.15	281.01
609.569	346.55
609.988	309.1
610.407	372.29
610.826	304.42
611.245	325.48
611.664	264.63
612.083	358.25
612.501	318.46
612.92	323.14
613.339	313.78
613.757	372.29
614.176	306.76
614.594	297.39
615.013	346.55
615.431	299.73
615.85	365.27
616.268	257.61
616.686	318.46
617.104	292.71
617.522	334.84
617.94	292.71
618.358	360.59
618.776	330.16
619.194	362.93
619.612	285.69
620.03	288.03
620.447	304.42
620.865	306.76
621.282	388.68
621.7	341.86
622.117	257.61
622.535	332.5
622.952	266.97
623.369	271.65
623.787	374.63
624.204	285.69
624.621	341.86
625.038	276.33
625.455	278.67
625.872	236.54
626.289	337.18
626.706	327.82
627.123	355.91
627.539	257.61
627.956	297.39
628.373	306.76
628.789	273.99
629.206	316.12
629.622	271.65
630.038	309.1
630.455	346.55
630.871	367.61
631.287	327.82
631.703	320.8
632.12	339.52
632.536	288.03
632.952	316.12
633.368	255.26
633.783	334.84
634.199	362.93
634.615	299.73
635.031	341.86
635.446	316.12
635.862	323.14
636.277	318.46
636.693	316.12
637.108	313.78
637.524	351.23
637.939	332.5
638.354	367.61
638.77	360.59
639.185	309.1
639.6	295.05
640.015	337.18
640.43	273.99
640.845	346.55
641.259	302.08
641.674	351.23
642.089	353.57
642.504	330.16
642.918	348.89
643.333	302.08
643.747	393.36
644.162	281.01
644.576	414.42
644.991	288.03
645.405	306.76
645.819	320.8
646.233	339.52
646.647	306.76
647.061	337.18
647.475	304.42
647.889	273.99
648.303	325.48
648.717	313.78
649.131	288.03
649.545	365.27
649.958	269.31
650.372	309.1
650.785	276.33
651.199	323.14
651.612	339.52
652.026	407.4
652.439	316.12
652.852	393.36
653.266	299.73
653.679	320.8
654.092	323.14
654.505	332.5
654.918	320.8
655.331	316.12
655.744	367.61
656.156	402.72
656.569	313.78
656.982	353.57
657.394	323.14
657.807	236.54
658.22	325.48
658.632	285.69
659.044	262.29
659.457	332.5
659.869	316.12
660.281	271.65
660.693	290.37
661.106	358.25
661.518	337.18
661.93	309.1
662.342	344.21
662.754	278.67
663.165	344.21
663.577	325.48
663.989	283.35
664.401	299.73
664.812	266.97
665.224	346.55
665.635	337.18
666.047	344.21
666.458	334.84
666.869	313.78
667.281	283.35
667.692	302.08
668.103	309.1
668.514	355.91
668.925	346.55
669.336	302.08
669.747	316.12
670.158	297.39
670.569	292.71
670.979	348.89
671.39	278.67
671.801	332.5
672.211	313.78
672.622	302.08
673.032	344.21
673.443	295.05
673.853	374.63
674.263	374.63
674.674	339.52
675.084	346.55
675.494	276.33
675.904	325.48
676.314	391.02
676.724	288.03
677.134	316.12
677.544	355.91
677.953	346.55
678.363	309.1
678.773	379.31
679.182	313.78
679.592	348.89
680.001	288.03
680.411	348.89
680.82	398.04
681.23	285.69
681.639	344.21
682.048	355.91
682.457	348.89
682.866	299.73
683.275	379.31
683.684	313.78
684.093	302.08
684.502	353.57
684.911	372.29
685.32	332.5
685.728	318.46
686.137	320.8
686.546	360.59
686.954	295.05
687.363	313.78
687.771	325.48
688.179	288.03
688.588	421.44
688.996	309.1
689.404	332.5
689.812	332.5
690.22	271.65
690.628	288.03
691.036	297.39
691.444	276.33
691.852	332.5
692.26	269.31
692.667	285.69
693.075	365.27
693.483	327.82
693.89	355.91
694.298	323.14
694.705	323.14
695.112	278.67
695.52	348.89
695.927	278.67
696.334	323.14
696.741	290.37
697.148	271.65
697.555	306.76
697.962	351.23
698.369	327.82
698.776	362.93
699.183	292.71
699.59	299.73
699.996	290.37
700.403	306.76
700.81	318.46
701.216	358.25
701.623	330.16
702.029	325.48
702.435	332.5
702.842	288.03
703.248	325.48
703.654	269.31
704.06	304.42
704.466	332.5
704.872	281.01
705.278	374.63
705.684	281.01
706.09	313.78
706.496	337.18
706.901	288.03
707.307	311.44
707.712	348.89
708.118	360.59
708.523	358.25
708.929	369.95
709.334	400.38
709.74	367.61
710.145	327.82
710.55	325.48
710.955	285.69
711.36	295.05
711.765	344.21
712.17	348.89
712.575	346.55
712.98	833.38
713.385	374.63
713.789	304.42
714.194	316.12
714.599	334.84
715.003	381.65
715.408	283.35
715.812	304.42
716.217	276.33
716.621	327.82
717.025	318.46
717.429	339.52
717.833	304.42
718.238	309.1
718.642	302.08
719.046	297.39
719.449	330.16
719.853	295.05
720.257	372.29
720.661	273.99
721.065	304.42
721.468	344.21
721.872	341.86
722.275	346.55
722.679	316.12
723.082	313.78
723.485	276.33
723.889	327.82
724.292	306.76
724.695	290.37
725.098	374.63
725.501	337.18
725.904	316.12
726.307	304.42
726.71	325.48
727.113	348.89
727.516	273.99
727.918	355.91
728.321	327.82
728.724	304.42
729.126	348.89
729.529	358.25
729.931	302.08
730.333	302.08
730.736	332.5
731.138	344.21
731.54	348.89
731.942	283.35
732.344	316.12
732.746	341.86
733.148	393.36
733.55	306.76
733.952	311.44
734.354	323.14
734.756	295.05
735.157	306.76
735.559	313.78
735.96	353.57
736.362	332.5
736.763	341.86
737.165	309.1
737.566	313.78
737.967	309.1
738.368	271.65
738.77	360.59
739.171	320.8
739.572	276.33
739.973	288.03
740.374	358.25
740.774	313.78
741.175	320.8
741.576	313.78
741.977	271.65
742.377	320.8
742.778	332.5
743.178	353.57
743.579	290.37
743.979	316.12
744.379	339.52
744.78	327.82
745.18	412.08
745.58	302.08
745.98	295.05
746.38	264.63
746.78	306.76
747.18	339.52
747.58	339.52
747.98	271.65
748.38	259.95
748.779	271.65
749.179	339.52
749.578	376.97
749.978	325.48
750.377	379.31
750.777	297.39
751.176	302.08
751.575	302.08
751.975	257.61
752.374	318.46
752.773	318.46
753.172	344.21
753.571	348.89
753.97	332.5
754.369	348.89
754.768	241.22
755.166	290.37
755.565	344.21
755.964	341.86
756.362	358.25
756.761	285.69
757.159	278.67
757.558	337.18
757.956	346.55
758.354	306.76
758.753	341.86
759.151	276.33
759.549	344.21
759.947	288.03
760.345	295.05
760.743	252.92
761.141	290.37
761.539	281.01
761.936	346.55
762.334	252.92
762.732	334.84
763.129	278.67
763.527	231.86
763.924	259.95
764.322	325.48
764.719	318.46
765.117	309.1
765.514	318.46
765.911	290.37
766.308	290.37
766.705	297.39
767.102	273.99
767.499	325.48
767.896	344.21
768.293	348.89
768.69	309.1
769.086	320.8
769.483	323.14
769.88	266.97
770.276	362.93
770.673	367.61
771.069	320.8
771.466	313.78
771.862	323.14
772.258	323.14
772.654	348.89
773.05	311.44
773.447	332.5
773.843	323.14
774.239	351.23
774.634	292.71
775.03	273.99
775.426	323.14
775.822	337.18
776.218	313.78
776.613	302.08
777.009	358.25
777.404	360.59
777.8	297.39
778.195	341.86
778.59	334.84
778.986	306.76
779.381	285.69
779.776	266.97
780.171	252.92
780.566	323.14
780.961	285.69
781.356	351.23
781.751	313.78
782.146	339.52
782.54	304.42
782.935	323.14
783.33	313.78
783.724	332.5
784.119	376.97
784.513	309.1
784.908	369.95
785.302	313.78
785.696	281.01
786.09	311.44
786.485	306.76
786.879	313.78
787.273	355.91
787.667	320.8
788.061	330.16
788.454	262.29
788.848	285.69
789.242	330.16
789.636	330.16
790.029	222.5
790.423	386.33
790.816	341.86
791.21	395.7
791.603	376.97
791.997	360.59
792.39	348.89
792.783	332.5
793.176	306.76
793.569	302.08
793.962	276.33
794.355	311.44
794.748	285.69
795.141	402.72
795.534	353.57
795.927	346.55
796.319	250.58
796.712	323.14
797.105	330.16
797.497	369.95
797.89	292.71
798.282	206.11
798.674	290.37
799.067	311.44
799.459	285.69
799.851	325.48
800.243	302.08
800.635	302.08
801.027	264.63
801.419	304.42
801.811	281.01
802.203	273.99
802.594	283.35
802.986	250.58
803.378	313.78
803.769	334.84
804.161	334.84
804.552	288.03
804.944	323.14
805.335	440.17
805.726	299.73
806.118	290.37
806.509	341.86
806.9	337.18
807.291	391.02
807.682	255.26
808.073	250.58
808.464	313.78
808.855	386.33
809.245	341.86
809.636	269.31
810.027	351.23
810.417	327.82
810.808	339.52
811.198	341.86
811.589	285.69
811.979	323.14
812.369	325.48
812.759	311.44
813.15	271.65
813.54	337.18
813.93	257.61
814.32	295.05
814.71	316.12
815.1	362.93
815.489	283.35
815.879	285.69
816.269	313.78
816.658	285.69
817.048	355.91
817.438	330.16
817.827	281.01
818.216	318.46
818.606	257.61
818.995	306.76
819.384	288.03
819.773	292.71
820.163	353.57
820.552	313.78
820.941	262.29
821.33	323.14
821.718	297.39
822.107	295.05
822.496	313.78
822.885	306.76
823.273	341.86
823.662	309.1
824.05	313.78
824.439	290.37
824.827	252.92
825.216	341.86
825.604	269.31
825.992	360.59
826.38	344.21
826.768	292.71
827.156	295.05
827.544	304.42
827.932	304.42
828.32	332.5
828.708	302.08
829.096	327.82
829.483	309.1
829.871	281.01
830.259	309.1
830.646	353.57
831.034	330.16
831.421	302.08
831.808	330.16
832.196	306.76
832.583	393.36
832.97	372.29
833.357	320.8
833.744	292.71
834.131	304.42
834.518	325.48
834.905	337.18
835.292	288.03
835.678	292.71
836.065	299.73
836.452	341.86
836.838	348.89
837.225	313.78
837.611	353.57
837.998	381.65
838.384	281.01
838.77	386.33
839.157	295.05
839.543	337.18
839.929	299.73
840.315	288.03
840.701	288.03
841.087	393.36
841.473	297.39
841.858	297.39
842.244	327.82
842.63	290.37
843.015	297.39
843.401	664.86
843.787	290.37
844.172	316.12
844.557	302.08
844.943	281.01
845.328	283.35
845.713	316.12
846.098	262.29
846.483	325.48
846.868	306.76
847.253	316.12
847.638	290.37
848.023	273.99
848.408	206.11
848.793	318.46
849.177	313.78
849.562	358.25
849.947	245.9
850.331	367.61
850.715	376.97
851.1	276.33
851.484	348.89
851.868	376.97
852.253	339.52
852.637	292.71
853.021	262.29
853.405	302.08
853.789	222.5
854.173	306.76
854.557	339.52
854.94	269.31
855.324	339.52
855.708	304.42
856.091	341.86
856.475	297.39
856.858	351.23
857.242	395.7
857.625	351.23
858.009	337.18
858.392	271.65
858.775	360.59
859.158	330.16
859.541	313.78
859.924	330.16
860.307	283.35
860.69	266.97
861.073	292.71
861.456	290.37
861.838	311.44
862.221	306.76
862.604	332.5
862.986	376.97
863.369	292.71
863.751	334.84
864.133	323.14
864.516	337.18
864.898	400.38
865.28	367.61
865.662	304.42
866.044	327.82
866.426	334.84
866.808	309.1
867.19	386.33
867.572	309.1
867.954	400.38
868.336	369.95
868.717	273.99
869.099	302.08
869.48	330.16
869.862	243.56
870.243	295.05
870.625	362.93
871.006	316.12
871.387	283.35
871.768	353.57
872.149	327.82
872.53	351.23
872.911	327.82
873.292	273.99
873.673	323.14
874.054	344.21
874.435	332.5
874.815	306.76
875.196	306.76
875.577	271.65
875.957	351.23
876.338	295.05
876.718	351.23
877.098	346.55
877.479	297.39
877.859	295.05
878.239	281.01
878.619	313.78
878.999	259.95
879.379	379.31
879.759	332.5
880.139	292.71
880.519	304.42
880.898	323.14
881.278	313.78
881.658	309.1
882.037	245.9
882.417	332.5
882.796	332.5
883.176	271.65
883.555	348.89
883.934	259.95
884.313	290.37
884.693	252.92
885.072	288.03
885.451	334.84
885.83	299.73
886.209	283.35
886.587	245.9
886.966	299.73
887.345	309.1
887.724	353.57
888.102	292.71
888.481	334.84
888.859	330.16
889.238	358.25
889.616	351.23
889.994	288.03
890.373	341.86
890.751	283.35
891.129	297.39
891.507	309.1
891.885	332.5
892.263	365.27
892.641	330.16
893.019	337.18
893.396	302.08
893.774	323.14
894.152	302.08
894.529	325.48
894.907	325.48
895.284	376.97
895.662	365.27
896.039	278.67
896.416	309.1
896.794	266.97
897.171	288.03
897.548	358.25
897.925	318.46
898.302	325.48
898.679	285.69
899.056	304.42
899.433	302.08
899.809	306.76
900.186	313.78
900.563	323.14
900.939	262.29
901.316	259.95
901.692	234.2
902.069	351.23
902.445	365.27
902.821	306.76
903.197	318.46
903.574	320.8
903.95	360.59
904.326	320.8
904.702	318.46
905.078	297.39
905.454	330.16
905.829	355.91
906.205	288.03
906.581	330.16
906.956	351.23
907.332	325.48
907.707	231.86
908.083	299.73
908.458	311.44
908.833	295.05
909.209	276.33
909.584	271.65
909.959	306.76
910.334	362.93
910.709	313.78
911.084	332.5
911.459	278.67
911.834	309.1
912.209	327.82
912.583	271.65
912.958	224.84
913.333	224.84
913.707	330.16
914.082	339.52
914.456	330.16
914.83	264.63
915.205	306.76
915.579	311.44
915.953	353.57
916.327	269.31
916.701	316.12
917.075	234.2
917.449	344.21
917.823	299.73
918.197	346.55
918.571	393.36
918.944	325.48
919.318	337.18
919.692	395.7
920.065	334.84
920.438	316.12
920.812	332.5
921.185	339.52
921.558	302.08
921.932	337.18
922.305	318.46
922.678	318.46
923.051	358.25
923.424	344.21
923.797	302.08
924.17	316.12
924.542	283.35
924.915	278.67
925.288	304.42
925.661	302.08
926.033	313.78
926.406	283.35
926.778	332.5
927.15	332.5
927.523	358.25
927.895	290.37
928.267	358.25
928.639	341.86
929.011	313.78
929.383	259.95
929.755	250.58
930.127	297.39
930.499	327.82
930.871	299.73
931.242	327.82
931.614	276.33
931.986	281.01
932.357	306.76
932.729	297.39
933.1	325.48
933.471	299.73
933.843	302.08
934.214	299.73
934.585	295.05
934.956	276.33
935.327	320.8
935.698	311.44
936.069	316.12
936.44	304.42
936.811	276.33
937.182	306.76
937.552	297.39
937.923	281.01
938.293	421.44
938.664	276.33
939.034	304.42
939.405	304.42
939.775	325.48
940.145	320.8
940.516	341.86
940.886	337.18
941.256	276.33
941.626	304.42
941.996	288.03
942.366	276.33
942.735	334.84
943.105	323.14
943.475	365.27
943.845	295.05
944.214	234.2
944.584	295.05
944.953	285.69
945.323	320.8
945.692	365.27
946.061	334.84
946.43	304.42
946.8	318.46
947.169	391.02
947.538	278.67
947.907	281.01
948.276	313.78
948.645	330.16
949.013	323.14
949.382	341.86
949.751	283.35
950.119	332.5
950.488	330.16
950.857	374.63
951.225	309.1
951.593	344.21
951.962	252.92
952.33	306.76
952.698	306.76
953.066	245.9
953.434	281.01
953.802	278.67
954.17	355.91
954.538	304.42
954.906	302.08
955.274	367.61
955.642	299.73
956.009	348.89
956.377	309.1
956.744	325.48
957.112	344.21
957.479	339.52
957.847	330.16
958.214	283.35
958.581	304.42
958.948	262.29
959.315	278.67
959.683	250.58
960.05	227.18
960.416	285.69
960.783	255.26
961.15	355.91
961.517	248.24
961.884	330.16
962.25	290.37
962.617	325.48
962.983	259.95
963.35	271.65
963.716	269.31
964.082	348.89
964.449	271.65
964.815	304.42
965.181	362.93
965.547	318.46
965.913	269.31
966.279	325.48
966.645	313.78
967.011	318.46
967.377	297.39
967.742	299.73
968.108	290.37
968.474	309.1
968.839	306.76
969.205	243.56
969.57	302.08
969.935	273.99
970.301	273.99
970.666	318.46
971.031	344.21
971.396	320.8
971.761	339.52
972.126	316.12
972.491	255.26
972.856	309.1
973.221	288.03
973.586	245.9
973.95	337.18
974.315	311.44
974.679	325.48
975.044	266.97
975.408	348.89
975.773	372.29
976.137	283.35
976.501	220.16
976.866	313.78
977.23	348.89
977.594	215.48
977.958	278.67
978.322	337.18
978.686	271.65
979.049	334.84
979.413	255.26
979.777	355.91
980.141	339.52
980.504	348.89
980.868	337.18
981.231	339.52
981.595	273.99
981.958	245.9
982.321	297.39
982.684	259.95
983.048	306.76
983.411	320.8
983.774	236.54
984.137	276.33
984.5	266.97
984.862	318.46
985.225	292.71
985.588	306.76
985.951	355.91
986.313	299.73
986.676	311.44
987.038	320.8
987.401	374.63
987.763	283.35
988.125	269.31
988.488	311.44
988.85	311.44
989.212	292.71
989.574	320.8
989.936	327.82
990.298	306.76
990.66	325.48
991.022	334.84
991.383	344.21
991.745	306.76
992.107	299.73
992.468	351.23
992.83	299.73
993.191	341.86
993.553	318.46
993.914	358.25
994.275	318.46
994.637	344.21
994.998	224.84
995.359	302.08
995.72	339.52
996.081	344.21
996.442	318.46
996.803	255.26
997.163	353.57
997.524	320.8
997.885	299.73
998.245	316.12
998.606	334.84
998.966	238.88
999.327	348.89
999.687	330.16
1000.047	360.59
1000.408	281.01
1000.768	341.86
1001.128	316.12
1001.488	334.84
1001.848	309.1
1002.208	306.76
1002.568	388.68
1002.927	318.46
1003.287	290.37
1003.647	344.21
1004.007	313.78
1004.366	299.73
1004.726	358.25
1005.085	302.08
1005.444	290.37
1005.804	318.46
1006.163	302.08
1006.522	325.48
1006.881	316.12
1007.24	250.58
1007.599	259.95
1007.958	283.35
1008.317	327.82
1008.676	304.42
1009.035	365.27
1009.393	323.14
1009.752	278.67
1010.111	302.08
1010.469	337.18
1010.828	311.44
1011.186	313.78
1011.544	318.46
1011.903	297.39
1012.261	330.16
1012.619	278.67
1012.977	266.97
1013.335	311.44
1013.693	309.1
1014.051	311.44
1014.409	332.5
1014.767	388.68
1015.124	334.84
1015.482	302.08
1015.84	259.95
1016.197	266.97
1016.555	309.1
1016.912	252.92
1017.269	297.39
1017.627	243.56
1017.984	309.1
1018.341	259.95
1018.698	353.57
1019.055	295.05
1019.412	330.16
1019.769	278.67
1020.126	285.69
1020.483	332.5
1020.84	271.65
1021.196	292.71
1021.553	295.05
1021.909	295.05
1022.266	313.78
1022.622	278.67
1022.979	381.65
1023.335	351.23
1023.691	346.55
1024.047	318.46
1024.404	299.73
1024.76	304.42
1025.116	355.91
1025.472	320.8
1025.827	339.52
1026.183	348.89
1026.539	313.78
1026.895	269.31
1027.25	334.84
1027.606	348.89
1027.961	311.44
1028.317	332.5
1028.672	266.97
1029.028	276.33
1029.383	376.97
1029.738	250.58
1030.093	332.5
1030.448	299.73
1030.803	309.1
1031.158	339.52
1031.513	360.59
1031.868	304.42
1032.223	325.48
1032.577	316.12
1032.932	339.52
1033.287	281.01
1033.641	341.86
1033.996	224.84
1034.35	220.16
1034.704	241.22
1035.059	269.31
1035.413	332.5
1035.767	332.5
1036.121	332.5
