Data from Al_FLMS009871__1068__16-27-03-511.txt Node

Date: Fri Mar 08 16:27:03 CST 2024
User: pe5414po
Spectrometer: FLMS00987
Trigger mode: 0
Integration Time (sec): 1.000000E-1
Scans to average: 1
Electric dark correction enabled: true
Nonlinearity correction enabled: false
Boxcar width: 0
XAxis mode: Wavelengths
Number of Pixels in Spectrum: 2048
>>>>>Begin Spectral Data<<<<<
188.938	-86.75
189.409	-86.75
189.879	-86.75
190.349	-117.17
190.819	-121.85
191.29	-86.75
191.76	-93.77
192.23	-140.58
192.7	-77.38
193.17	-32.91
193.64	2.19
194.109	-28.23
194.579	-23.55
195.049	-21.21
195.519	39.64
195.988	-9.51
196.458	46.66
196.927	53.69
197.397	156.67
197.866	112.2
198.336	102.84
198.805	126.24
199.274	212.84
199.744	184.76
200.213	294.76
200.682	201.14
201.151	269.02
201.62	236.25
202.089	329.87
202.558	418.81
203.027	465.62
203.495	320.51
203.964	416.47
204.433	439.87
204.902	400.09
205.37	460.94
205.839	416.47
206.307	376.68
206.776	458.6
207.244	517.11
207.712	467.96
208.181	465.62
208.649	439.87
209.117	444.56
209.585	514.77
210.053	449.24
210.521	559.24
210.989	669.25
211.457	680.95
211.925	692.65
212.393	711.38
212.861	765.21
213.328	751.17
213.796	634.14
214.264	547.54
214.731	496.05
215.199	442.21
215.666	524.13
216.133	704.35
216.601	760.53
217.068	809.68
217.535	898.62
218.003	1043.73
218.47	1235.66
218.937	1090.54
219.404	891.6
219.871	936.07
220.338	943.09
220.805	1015.65
221.271	826.06
221.738	692.65
222.205	786.27
222.671	713.72
223.138	905.64
223.605	1025.01
224.071	1048.41
224.538	847.13
225.004	772.23
225.47	929.05
225.937	1022.67
226.403	1015.65
226.869	886.92
227.335	694.99
227.801	547.54
228.267	514.77
228.733	563.92
229.199	470.3
229.665	496.05
230.131	512.43
230.597	528.81
231.062	561.58
231.528	622.44
231.994	552.22
232.459	507.75
232.925	474.98
233.39	542.86
233.856	489.03
234.321	482
234.786	659.88
235.252	971.18
235.717	1474.39
236.182	2153.15
236.647	2206.98
237.112	1837.17
237.577	1092.88
238.042	746.48
238.507	580.31
238.972	587.33
239.436	496.05
239.901	521.79
240.366	554.56
240.83	552.22
241.295	465.62
241.76	500.73
242.224	489.03
242.688	453.92
243.153	472.64
243.617	465.62
244.081	484.34
244.545	491.37
245.01	517.11
245.474	545.2
245.938	540.52
246.402	582.65
246.866	634.14
247.33	683.29
247.793	608.39
248.257	521.79
248.721	510.09
249.185	503.07
249.648	542.86
250.112	561.58
250.575	535.84
251.039	624.78
251.502	568.6
251.965	608.39
252.429	556.9
252.892	510.09
253.355	587.33
253.818	498.39
254.281	500.73
254.744	596.69
255.207	713.72
255.67	1022.67
256.133	1380.77
256.596	1879.3
257.059	1902.71
257.522	1591.42
257.984	1099.91
258.447	896.28
258.909	957.13
259.372	982.88
259.834	964.15
260.297	947.77
260.759	844.79
261.221	786.27
261.684	1029.69
262.146	1558.65
262.608	1905.05
263.07	1755.26
263.532	1254.38
263.994	926.71
264.456	830.74
264.918	915
265.38	1046.07
265.842	982.88
266.303	828.4
266.765	685.63
267.227	484.34
267.688	573.28
268.15	519.45
268.611	573.28
269.072	547.54
269.534	648.18
269.995	570.94
270.456	624.78
270.918	622.44
271.379	577.97
271.84	482
272.301	514.77
272.762	592.01
273.223	554.56
273.684	582.65
274.144	610.73
274.605	697.33
275.066	692.65
275.527	748.83
275.987	739.46
276.448	762.87
276.908	863.51
277.369	917.34
277.829	1497.8
278.289	2911.48
278.75	5460.32
279.21	7264.88
279.67	7489.57
280.13	5565.65
280.59	3768.12
281.05	3005.1
281.51	2686.79
281.97	1680.36
282.43	947.77
282.89	694.99
283.35	683.29
283.809	613.07
284.269	812.02
284.729	1057.78
285.188	931.39
285.648	790.95
286.107	601.37
286.567	610.73
287.026	556.9
287.485	568.6
287.944	610.73
288.404	706.7
288.863	687.97
289.322	652.86
289.781	671.59
290.24	673.93
290.699	545.2
291.158	652.86
291.616	666.91
292.075	755.85
292.534	847.13
292.992	1034.37
293.451	947.77
293.91	833.08
294.368	816.7
294.827	746.48
295.285	596.69
295.743	463.28
296.202	519.45
296.66	477.32
297.118	474.98
297.576	517.11
298.034	456.26
298.492	474.98
298.95	444.56
299.408	470.3
299.866	482
300.324	432.85
300.781	460.94
301.239	456.26
301.697	435.19
302.154	489.03
302.612	491.37
303.069	514.77
303.527	535.84
303.984	535.84
304.441	589.67
304.899	741.8
305.356	730.1
305.813	795.64
306.27	903.3
306.727	1048.41
307.184	1689.72
307.641	2911.48
308.098	4306.44
308.555	5465
309.012	5607.78
309.468	4739.44
309.925	2410.61
310.382	945.43
310.838	737.12
311.295	519.45
311.751	514.77
312.208	493.71
312.664	510.09
313.12	489.03
313.577	568.6
314.033	496.05
314.489	577.97
314.945	615.41
315.401	566.26
315.857	559.24
316.313	552.22
316.769	484.34
317.225	423.49
317.681	404.77
318.136	362.64
318.592	379.02
319.048	437.53
319.503	444.56
319.959	444.56
320.414	418.81
320.869	414.13
321.325	428.17
321.78	474.98
322.235	418.81
322.691	418.81
323.146	463.28
323.601	559.24
324.056	694.99
324.511	816.7
324.966	924.37
325.421	713.72
325.875	568.6
326.33	477.32
326.785	594.35
327.24	826.06
327.694	865.85
328.149	746.48
328.603	580.31
329.058	489.03
329.512	482
329.966	446.9
330.421	456.26
330.875	496.05
331.329	519.45
331.783	446.9
332.237	489.03
332.691	456.26
333.145	547.54
333.599	503.07
334.053	610.73
334.507	524.13
334.96	634.14
335.414	643.5
335.868	648.18
336.321	739.46
336.775	776.91
337.228	751.17
337.682	610.73
338.135	519.45
338.588	594.35
339.042	524.13
339.495	435.19
339.948	514.77
340.401	442.21
340.854	460.94
341.307	350.93
341.76	409.45
342.213	435.19
342.666	444.56
343.119	444.56
343.571	442.21
344.024	507.75
344.477	460.94
344.929	465.62
345.382	535.84
345.834	407.11
346.287	458.6
346.739	467.96
347.191	465.62
347.644	416.47
348.096	489.03
348.548	467.96
349	491.37
349.452	512.43
349.904	554.56
350.356	491.37
350.808	467.96
351.26	517.11
351.711	479.66
352.163	514.77
352.615	549.88
353.066	500.73
353.518	505.41
353.969	542.86
354.421	505.41
354.872	526.47
355.324	549.88
355.775	599.03
356.226	702.01
356.677	772.23
357.128	1025.01
357.579	1500.14
358.03	2551.04
358.481	4100.47
358.932	4659.86
359.383	3522.36
359.834	2728.92
360.285	2824.88
360.735	2518.27
361.186	2075.91
361.637	1572.69
362.087	999.26
362.538	610.73
362.988	542.86
363.438	456.26
363.889	533.5
364.339	498.39
364.789	556.9
365.239	524.13
365.689	493.71
366.139	538.18
366.589	510.09
367.039	395.4
367.489	510.09
367.939	456.26
368.389	563.92
368.839	554.56
369.288	505.41
369.738	629.46
370.187	709.04
370.637	772.23
371.086	875.21
371.536	879.9
371.985	805
372.434	592.01
372.884	549.88
373.333	559.24
373.782	547.54
374.231	575.63
374.68	622.44
375.129	531.16
375.578	526.47
376.027	484.34
376.475	489.03
376.924	507.75
377.373	456.26
377.822	463.28
378.27	446.9
378.719	458.6
379.167	514.77
379.616	465.62
380.064	489.03
380.512	563.92
380.961	552.22
381.409	608.39
381.857	554.56
382.305	702.01
382.753	692.65
383.201	842.45
383.649	758.19
384.097	950.11
384.545	847.13
384.992	641.16
385.44	599.03
385.888	622.44
386.335	732.44
386.783	652.86
387.231	615.41
387.678	570.94
388.125	563.92
388.573	599.03
389.02	517.11
389.467	577.97
389.914	575.63
390.362	641.16
390.809	599.03
391.256	641.16
391.703	587.33
392.15	559.24
392.596	634.14
393.043	912.66
393.49	1280.13
393.937	2398.9
394.383	3784.5
394.83	4739.44
395.276	3737.69
395.723	3611.3
396.169	5298.83
396.616	5869.92
397.062	3552.79
397.508	1362.05
397.954	788.61
398.401	570.94
398.847	556.9
399.293	582.65
399.739	610.73
400.185	683.29
400.631	533.5
401.076	456.26
401.522	453.92
401.968	486.69
402.414	566.26
402.859	575.63
403.305	662.23
403.75	732.44
404.196	720.74
404.641	685.63
405.086	643.5
405.532	685.63
405.977	772.23
406.422	734.78
406.867	613.07
407.312	620.1
407.757	613.07
408.202	657.54
408.647	512.43
409.092	549.88
409.537	547.54
409.982	582.65
410.426	594.35
410.871	638.82
411.316	582.65
411.76	606.05
412.205	538.18
412.649	634.14
413.093	599.03
413.538	739.46
413.982	741.8
414.426	788.61
414.87	807.34
415.314	903.3
415.758	945.43
416.202	837.77
416.646	767.55
417.09	748.83
417.534	774.57
417.978	739.46
418.421	676.27
418.865	547.54
419.309	599.03
419.752	489.03
420.196	510.09
420.639	533.5
421.083	503.07
421.526	500.73
421.969	458.6
422.412	517.11
422.856	617.76
423.299	573.28
423.742	648.18
424.185	575.63
424.628	566.26
425.071	514.77
425.513	472.64
425.956	570.94
426.399	554.56
426.842	568.6
427.284	538.18
427.727	474.98
428.169	435.19
428.612	463.28
429.054	437.53
429.497	437.53
429.939	521.79
430.381	409.45
430.823	517.11
431.265	418.81
431.707	428.17
432.149	404.77
432.591	432.85
433.033	482
433.475	493.71
433.917	460.94
434.359	486.69
434.8	519.45
435.242	512.43
435.684	489.03
436.125	528.81
436.567	472.64
437.008	526.47
437.449	479.66
437.891	463.28
438.332	409.45
438.773	512.43
439.214	482
439.656	575.63
440.097	484.34
440.538	451.58
440.978	503.07
441.419	512.43
441.86	531.16
442.301	545.2
442.742	463.28
443.182	563.92
443.623	568.6
444.063	563.92
444.504	613.07
444.944	648.18
445.385	613.07
445.825	652.86
446.265	800.32
446.706	849.47
447.146	1039.05
447.586	1308.21
448.026	1603.12
448.466	1855.9
448.906	1570.35
449.346	1184.16
449.786	999.26
450.225	936.07
450.665	912.66
451.105	1017.99
451.544	1481.41
451.984	1631.21
452.424	1446.3
452.863	1556.31
453.302	1977.61
453.742	2078.25
454.181	1516.52
454.62	966.49
455.059	720.74
455.499	659.88
455.938	542.86
456.377	519.45
456.816	505.41
457.254	500.73
457.693	479.66
458.132	472.64
458.571	493.71
459.01	505.41
459.448	479.66
459.887	514.77
460.325	503.07
460.764	559.24
461.202	453.92
461.641	552.22
462.079	491.37
462.517	484.34
462.955	615.41
463.393	582.65
463.832	641.16
464.27	531.16
464.708	568.6
465.145	582.65
465.583	613.07
466.021	704.35
466.459	807.34
466.897	1069.48
467.334	917.34
467.772	582.65
468.209	528.81
468.647	538.18
469.084	486.69
469.522	467.96
469.959	533.5
470.396	507.75
470.833	498.39
471.271	486.69
471.708	575.63
472.145	491.37
472.582	477.32
473.019	505.41
473.456	463.28
473.892	437.53
474.329	489.03
474.766	411.79
475.202	425.83
475.639	442.21
476.076	465.62
476.512	439.87
476.949	407.11
477.385	493.71
477.821	402.43
478.258	395.4
478.694	425.83
479.13	432.85
479.566	489.03
480.002	472.64
480.438	519.45
480.874	549.88
481.31	542.86
481.746	467.96
482.181	465.62
482.617	470.3
483.053	474.98
483.488	514.77
483.924	556.9
484.36	526.47
484.795	482
485.23	474.98
485.666	552.22
486.101	685.63
486.536	692.65
486.971	699.67
487.407	652.86
487.842	617.76
488.277	566.26
488.712	500.73
489.146	493.71
489.581	521.79
490.016	496.05
490.451	498.39
490.885	460.94
491.32	535.84
491.755	531.16
492.189	500.73
492.624	449.24
493.058	486.69
493.492	477.32
493.927	479.66
494.361	432.85
494.795	482
495.229	519.45
495.663	467.96
496.097	458.6
496.531	467.96
496.965	432.85
497.399	465.62
497.833	444.56
498.266	472.64
498.7	496.05
499.134	519.45
499.567	573.28
500.001	666.91
500.434	816.7
500.868	987.56
501.301	957.13
501.734	833.08
502.168	669.25
502.601	580.31
503.034	535.84
503.467	575.63
503.9	500.73
504.333	498.39
504.766	486.69
505.199	575.63
505.632	517.11
506.064	545.2
506.497	500.73
506.93	505.41
507.362	526.47
507.795	542.86
508.227	514.77
508.66	512.43
509.092	439.87
509.524	510.09
509.956	486.69
510.389	514.77
510.821	512.43
511.253	556.9
511.685	615.41
512.117	547.54
512.549	491.37
512.981	596.69
513.412	648.18
513.844	559.24
514.276	573.28
514.707	577.97
515.139	587.33
515.571	584.99
516.002	587.33
516.433	687.97
516.865	699.67
517.296	657.54
517.727	718.4
518.159	732.44
518.59	765.21
519.021	788.61
519.452	673.93
519.883	662.23
520.314	584.99
520.744	592.01
521.175	514.77
521.606	631.8
522.037	643.5
522.467	559.24
522.898	617.76
523.328	584.99
523.759	629.46
524.189	535.84
524.62	512.43
525.05	570.94
525.48	587.33
525.91	613.07
526.341	678.61
526.771	629.46
527.201	659.88
527.631	676.27
528.061	723.08
528.49	891.6
528.92	996.92
529.35	1336.3
529.78	2799.13
530.209	13429.85
530.639	32879.7
531.068	49457.71
531.498	63037.5
531.927	63037.5
532.357	63037.5
532.786	63037.5
533.215	63037.5
533.644	35037.67
534.074	12390.65
534.503	5097.54
534.932	2511.25
535.361	1418.22
535.79	1050.75
536.218	854.15
536.647	709.04
537.076	702.01
537.505	643.5
537.933	533.5
538.362	580.31
538.79	554.56
539.219	547.54
539.647	531.16
540.076	533.5
540.504	486.69
540.932	467.96
541.36	493.71
541.788	526.47
542.217	496.05
542.645	453.92
543.073	467.96
543.5	428.17
543.928	439.87
544.356	430.51
544.784	474.98
545.211	514.77
545.639	456.26
546.067	435.19
546.494	463.28
546.922	451.58
547.349	355.62
547.776	400.09
548.204	470.3
548.631	451.58
549.058	458.6
549.485	416.47
549.912	470.3
550.339	477.32
550.766	496.05
551.193	463.28
551.62	409.45
552.047	435.19
552.474	472.64
552.9	449.24
553.327	451.58
553.754	484.34
554.18	446.9
554.607	568.6
555.033	458.6
555.459	538.18
555.886	451.58
556.312	479.66
556.738	432.85
557.164	416.47
557.59	437.53
558.016	444.56
558.442	439.87
558.868	467.96
559.294	540.52
559.72	671.59
560.145	779.25
560.571	720.74
560.997	570.94
561.422	526.47
561.848	503.07
562.273	393.06
562.699	467.96
563.124	510.09
563.549	402.43
563.974	460.94
564.4	449.24
564.825	444.56
565.25	451.58
565.675	397.74
566.1	383.7
566.525	477.32
566.95	545.2
567.374	505.41
567.799	573.28
568.224	758.19
568.648	753.51
569.073	758.19
569.497	922.02
569.922	1254.38
570.346	1694.4
570.771	1383.11
571.195	1039.05
571.619	755.85
572.043	669.25
572.467	734.78
572.891	1158.42
573.315	978.2
573.739	666.91
574.163	507.75
574.587	465.62
575.011	404.77
575.435	376.68
575.858	463.28
576.282	467.96
576.705	400.09
577.129	350.93
577.552	407.11
577.976	479.66
578.399	369.66
578.822	432.85
579.245	395.4
579.669	362.64
580.092	397.74
580.515	381.36
580.938	364.98
581.361	379.02
581.784	357.96
582.206	418.81
582.629	343.91
583.052	393.06
583.474	339.23
583.897	388.38
584.32	353.27
584.742	334.55
585.165	463.28
585.587	360.3
586.009	395.4
586.431	390.72
586.854	404.77
587.276	395.4
587.698	437.53
588.12	402.43
588.542	446.9
588.964	388.38
589.386	430.51
589.807	451.58
590.229	496.05
590.651	474.98
591.073	386.04
591.494	402.43
591.916	369.66
592.337	388.38
592.759	414.13
593.18	369.66
593.601	411.79
594.022	451.58
594.444	456.26
594.865	444.56
595.286	460.94
595.707	369.66
596.128	421.15
596.549	428.17
596.97	390.72
597.39	444.56
597.811	348.59
598.232	407.11
598.652	390.72
599.073	386.04
599.494	367.32
599.914	411.79
600.334	390.72
600.755	390.72
601.175	341.57
601.595	336.89
602.015	360.3
602.436	372
602.856	526.47
603.276	372
603.696	388.38
604.115	423.49
604.535	353.27
604.955	341.57
605.375	376.68
605.794	357.96
606.214	341.57
606.634	395.4
607.053	432.85
607.473	350.93
607.892	397.74
608.311	400.09
608.731	449.24
609.15	439.87
609.569	348.59
609.988	423.49
610.407	423.49
610.826	402.43
611.245	379.02
611.664	444.56
612.083	341.57
612.501	388.38
612.92	379.02
613.339	400.09
613.757	400.09
614.176	362.64
614.594	456.26
615.013	489.03
615.431	456.26
615.85	428.17
616.268	390.72
616.686	400.09
617.104	364.98
617.522	423.49
617.94	451.58
618.358	432.85
618.776	376.68
619.194	519.45
619.612	407.11
620.03	388.38
620.447	383.7
620.865	430.51
621.282	460.94
621.7	493.71
622.117	456.26
622.535	500.73
622.952	566.26
623.369	622.44
623.787	793.3
624.204	882.24
624.621	924.37
625.038	952.45
625.455	929.05
625.872	783.93
626.289	552.22
626.706	489.03
627.123	526.47
627.539	510.09
627.956	446.9
628.373	346.25
628.789	393.06
629.206	393.06
629.622	386.04
630.038	367.32
630.455	364.98
630.871	383.7
631.287	411.79
631.703	393.06
632.12	444.56
632.536	332.21
632.952	425.83
633.368	355.62
633.783	425.83
634.199	381.36
634.615	362.64
635.031	381.36
635.446	336.89
635.862	325.19
636.277	357.96
636.693	357.96
637.108	423.49
637.524	360.3
637.939	414.13
638.354	374.34
638.77	341.57
639.185	360.3
639.6	381.36
640.015	435.19
640.43	313.49
640.845	362.64
641.259	348.59
641.674	395.4
642.089	376.68
642.504	357.96
642.918	334.55
643.333	341.57
643.747	355.62
644.162	388.38
644.576	346.25
644.991	362.64
645.405	339.23
645.819	379.02
646.233	386.04
646.647	402.43
647.061	390.72
647.475	416.47
647.889	409.45
648.303	439.87
648.717	421.15
649.131	437.53
649.545	409.45
649.958	315.83
650.372	393.06
650.785	364.98
651.199	320.51
651.612	390.72
652.026	367.32
652.439	355.62
652.852	360.3
653.266	407.11
653.679	357.96
654.092	364.98
654.505	411.79
654.918	460.94
655.331	535.84
655.744	500.73
656.156	631.8
656.569	833.08
656.982	982.88
657.394	926.71
657.807	723.08
658.22	596.69
658.632	505.41
659.044	421.15
659.457	393.06
659.869	355.62
660.281	376.68
660.693	421.15
661.106	350.93
661.518	444.56
661.93	313.49
662.342	364.98
662.754	350.93
663.165	357.96
663.577	423.49
663.989	372
664.401	369.66
664.812	348.59
665.224	374.34
665.635	322.85
666.047	414.13
666.458	357.96
666.869	388.38
667.281	374.34
667.692	315.83
668.103	379.02
668.514	355.62
668.925	287.74
669.336	388.38
669.747	362.64
670.158	339.23
670.569	393.06
670.979	339.23
671.39	348.59
671.801	325.19
672.211	346.25
672.622	322.85
673.032	379.02
673.443	327.53
673.853	400.09
674.263	252.63
674.674	381.36
675.084	325.19
675.494	332.21
675.904	353.27
676.314	397.74
676.724	245.61
677.134	297.1
677.544	409.45
677.953	353.27
678.363	334.55
678.773	383.7
679.182	329.87
679.592	339.23
680.001	348.59
680.411	343.91
680.82	327.53
681.23	369.66
681.639	318.17
682.048	304.12
682.457	409.45
682.866	369.66
683.275	404.77
683.684	355.62
684.093	428.17
684.502	404.77
684.911	428.17
685.32	463.28
685.728	402.43
686.137	334.55
686.546	350.93
686.954	357.96
687.363	362.64
687.771	402.43
688.179	423.49
688.588	329.87
688.996	294.76
689.404	423.49
689.812	369.66
690.22	355.62
690.628	308.8
691.036	320.51
691.444	397.74
691.852	367.32
692.26	421.15
692.667	355.62
693.075	350.93
693.483	400.09
693.89	346.25
694.298	388.38
694.705	379.02
695.112	381.36
695.52	343.91
695.927	360.3
696.334	343.91
696.741	320.51
697.148	315.83
697.555	357.96
697.962	376.68
698.369	343.91
698.776	318.17
699.183	320.51
699.59	313.49
699.996	383.7
700.403	329.87
700.81	322.85
701.216	369.66
701.623	339.23
702.029	327.53
702.435	327.53
702.842	390.72
703.248	315.83
703.654	397.74
704.06	449.24
704.466	538.18
704.872	503.07
705.278	540.52
705.684	517.11
706.09	538.18
706.496	507.75
706.901	540.52
707.307	465.62
707.712	332.21
708.118	315.83
708.523	360.3
708.929	334.55
709.334	306.46
709.74	343.91
710.145	339.23
710.55	343.91
710.955	273.7
711.36	329.87
711.765	357.96
712.17	318.17
712.575	320.51
712.98	776.91
713.385	350.93
713.789	388.38
714.194	364.98
714.599	355.62
715.003	341.57
715.408	292.42
715.812	367.32
716.217	379.02
716.621	421.15
717.025	306.46
717.429	407.11
717.833	304.12
718.238	334.55
718.642	294.76
719.046	320.51
719.449	334.55
719.853	311.14
720.257	325.19
720.661	320.51
721.065	341.57
721.468	315.83
721.872	341.57
722.275	357.96
722.679	355.62
723.082	400.09
723.485	320.51
723.889	306.46
724.292	397.74
724.695	360.3
725.098	343.91
725.501	313.49
725.904	339.23
726.307	362.64
726.71	320.51
727.113	297.1
727.516	315.83
727.918	327.53
728.321	409.45
728.724	327.53
729.126	292.42
729.529	367.32
729.931	355.62
730.333	372
730.736	280.72
731.138	327.53
731.54	364.98
731.942	294.76
732.344	297.1
732.746	355.62
733.148	276.04
733.55	318.17
733.952	334.55
734.354	297.1
734.756	336.89
735.157	315.83
735.559	290.08
735.96	367.32
736.362	400.09
736.763	266.67
737.165	372
737.566	327.53
737.967	350.93
738.368	386.04
738.77	334.55
739.171	348.59
739.572	379.02
739.973	315.83
740.374	374.34
740.774	339.23
741.175	299.44
741.576	325.19
741.977	372
742.377	364.98
742.778	318.17
743.178	322.85
743.579	381.36
743.979	315.83
744.379	402.43
744.78	379.02
745.18	381.36
745.58	357.96
745.98	376.68
746.38	383.7
746.78	343.91
747.18	451.58
747.58	364.98
747.98	336.89
748.38	374.34
748.779	390.72
749.179	350.93
749.578	364.98
749.978	374.34
750.377	346.25
750.777	273.7
751.176	343.91
751.575	280.72
751.975	276.04
752.374	364.98
752.773	355.62
753.172	320.51
753.571	304.12
753.97	306.46
754.369	332.21
754.768	299.44
755.166	271.36
755.565	311.14
755.964	343.91
756.362	343.91
756.761	336.89
757.159	332.21
757.558	252.63
757.956	329.87
758.354	343.91
758.753	383.7
759.151	386.04
759.549	294.76
759.947	393.06
760.345	353.27
760.743	336.89
761.141	252.63
761.539	278.38
761.936	308.8
762.334	292.42
762.732	290.08
763.129	393.06
763.527	367.32
763.924	336.89
764.322	318.17
764.719	318.17
765.117	318.17
765.514	322.85
765.911	294.76
766.308	336.89
766.705	360.3
767.102	257.31
767.499	269.02
767.896	334.55
768.293	276.04
768.69	278.38
769.086	320.51
769.483	292.42
769.88	325.19
770.276	315.83
770.673	325.19
771.069	304.12
771.466	346.25
771.862	325.19
772.258	315.83
772.654	315.83
773.05	315.83
773.447	369.66
773.843	287.74
774.239	376.68
774.634	320.51
775.03	334.55
775.426	362.64
775.822	343.91
776.218	355.62
776.613	341.57
777.009	465.62
777.404	474.98
777.8	442.21
778.195	364.98
778.59	334.55
778.986	320.51
779.381	367.32
779.776	341.57
780.171	280.72
780.566	250.29
780.961	276.04
781.356	346.25
781.751	325.19
782.146	332.21
782.54	381.36
782.935	348.59
783.33	252.63
783.724	278.38
784.119	357.96
784.513	311.14
784.908	355.62
785.302	388.38
785.696	306.46
786.09	402.43
786.485	327.53
786.879	346.25
787.273	278.38
787.667	372
788.061	304.12
788.454	304.12
788.848	332.21
789.242	311.14
789.636	362.64
790.029	343.91
790.423	409.45
790.816	287.74
791.21	308.8
791.603	273.7
791.997	348.59
792.39	343.91
792.783	362.64
793.176	304.12
793.569	318.17
793.962	308.8
794.355	301.78
794.748	343.91
795.141	301.78
795.534	364.98
795.927	336.89
796.319	346.25
796.712	376.68
797.105	313.49
797.497	322.85
797.89	346.25
798.282	350.93
798.674	276.04
799.067	339.23
799.459	325.19
799.851	336.89
800.243	311.14
800.635	301.78
801.027	318.17
801.419	329.87
801.811	336.89
802.203	299.44
802.594	318.17
802.986	374.34
803.378	336.89
803.769	247.95
804.161	276.04
804.552	327.53
804.944	313.49
805.335	276.04
805.726	348.59
806.118	329.87
806.509	350.93
806.9	306.46
807.291	325.19
807.682	360.3
808.073	322.85
808.464	292.42
808.855	306.46
809.245	283.06
809.636	353.27
810.027	278.38
810.417	266.67
810.808	306.46
811.198	332.21
811.589	287.74
811.979	306.46
812.369	348.59
812.759	301.78
813.15	315.83
813.54	306.46
813.93	325.19
814.32	341.57
814.71	336.89
815.1	287.74
815.489	395.4
815.879	395.4
816.269	353.27
816.658	369.66
817.048	311.14
817.438	322.85
817.827	318.17
818.216	357.96
818.606	343.91
818.995	336.89
819.384	362.64
819.773	322.85
820.163	350.93
820.552	297.1
820.941	346.25
821.33	329.87
821.718	418.81
822.107	357.96
822.496	301.78
822.885	360.3
823.273	318.17
823.662	390.72
824.05	308.8
824.439	304.12
824.827	325.19
825.216	308.8
825.604	334.55
825.992	304.12
826.38	329.87
826.768	325.19
827.156	369.66
827.544	353.27
827.932	283.06
828.32	341.57
828.708	264.33
829.096	334.55
829.483	376.68
829.871	318.17
830.259	372
830.646	313.49
831.034	362.64
831.421	294.76
831.808	304.12
832.196	301.78
832.583	348.59
832.97	329.87
833.357	278.38
833.744	259.65
834.131	341.57
834.518	238.59
834.905	276.04
835.292	390.72
835.678	325.19
836.065	264.33
836.452	301.78
836.838	325.19
837.225	311.14
837.611	292.42
837.998	280.72
838.384	285.4
838.77	325.19
839.157	346.25
839.543	327.53
839.929	369.66
840.315	297.1
840.701	320.51
841.087	308.8
841.473	318.17
841.858	395.4
842.244	301.78
842.63	318.17
843.015	285.4
843.401	613.07
843.787	285.4
844.172	266.67
844.557	290.08
844.943	292.42
845.328	306.46
845.713	343.91
846.098	362.64
846.483	364.98
846.868	290.08
847.253	283.06
847.638	390.72
848.023	264.33
848.408	322.85
848.793	290.08
849.177	332.21
849.562	301.78
849.947	318.17
850.331	315.83
850.715	332.21
851.1	362.64
851.484	336.89
851.868	346.25
852.253	283.06
852.637	334.55
853.021	264.33
853.405	355.62
853.789	276.04
854.173	355.62
854.557	367.32
854.94	346.25
855.324	308.8
855.708	339.23
856.091	290.08
856.475	304.12
856.858	327.53
857.242	336.89
857.625	355.62
858.009	290.08
858.392	334.55
858.775	304.12
859.158	280.72
859.541	327.53
859.924	290.08
860.307	283.06
860.69	357.96
861.073	327.53
861.456	332.21
861.838	229.23
862.221	322.85
862.604	388.38
862.986	304.12
863.369	339.23
863.751	325.19
864.133	343.91
864.516	325.19
864.898	283.06
865.28	313.49
865.662	343.91
866.044	301.78
866.426	325.19
866.808	327.53
867.19	217.52
867.572	325.19
867.954	355.62
868.336	339.23
868.717	304.12
869.099	341.57
869.48	390.72
869.862	280.72
870.243	364.98
870.625	357.96
871.006	306.46
871.387	343.91
871.768	336.89
872.149	350.93
872.53	257.31
872.911	292.42
873.292	329.87
873.673	276.04
874.054	306.46
874.435	306.46
874.815	276.04
875.196	280.72
875.577	250.29
875.957	287.74
876.338	334.55
876.718	315.83
877.098	294.76
877.479	254.97
877.859	376.68
878.239	339.23
878.619	264.33
878.999	339.23
879.379	299.44
879.759	243.27
880.139	322.85
880.519	266.67
880.898	332.21
881.278	285.4
881.658	355.62
882.037	297.1
882.417	329.87
882.796	254.97
883.176	278.38
883.555	327.53
883.934	353.27
884.313	332.21
884.693	252.63
885.072	325.19
885.451	332.21
885.83	311.14
886.209	311.14
886.587	374.34
886.966	278.38
887.345	306.46
887.724	238.59
888.102	332.21
888.481	318.17
888.859	320.51
889.238	301.78
889.616	325.19
889.994	320.51
890.373	304.12
890.751	299.44
891.129	332.21
891.507	306.46
891.885	388.38
892.263	311.14
892.641	388.38
893.019	334.55
893.396	297.1
893.774	334.55
894.152	332.21
894.529	292.42
894.907	283.06
895.284	273.7
895.662	320.51
896.039	329.87
896.416	341.57
896.794	346.25
897.171	355.62
897.548	271.36
897.925	327.53
898.302	287.74
898.679	346.25
899.056	318.17
899.433	355.62
899.809	332.21
900.186	311.14
900.563	308.8
900.939	341.57
901.316	285.4
901.692	254.97
902.069	294.76
902.445	304.12
902.821	320.51
903.197	348.59
903.574	299.44
903.95	372
904.326	315.83
904.702	290.08
905.078	304.12
905.454	266.67
905.829	283.06
906.205	250.29
906.581	364.98
906.956	287.74
907.332	315.83
907.707	252.63
908.083	339.23
908.458	350.93
908.833	297.1
909.209	306.46
909.584	346.25
909.959	341.57
910.334	315.83
910.709	315.83
911.084	343.91
911.459	355.62
911.834	376.68
912.209	329.87
912.583	329.87
912.958	353.27
913.333	332.21
913.707	285.4
914.082	313.49
914.456	276.04
914.83	311.14
915.205	311.14
915.579	325.19
915.953	362.64
916.327	376.68
916.701	341.57
917.075	374.34
917.449	273.7
917.823	357.96
918.197	257.31
918.571	278.38
918.944	383.7
919.318	276.04
919.692	355.62
920.065	292.42
920.438	273.7
920.812	332.21
921.185	320.51
921.558	308.8
921.932	299.44
922.305	304.12
922.678	231.57
923.051	346.25
923.424	290.08
923.797	350.93
924.17	320.51
924.542	353.27
924.915	360.3
925.288	346.25
925.661	334.55
926.033	327.53
926.406	367.32
926.778	245.61
927.15	294.76
927.523	259.65
927.895	355.62
928.267	341.57
928.639	280.72
929.011	311.14
929.383	353.27
929.755	285.4
930.127	395.4
930.499	308.8
930.871	308.8
931.242	325.19
931.614	348.59
931.986	313.49
932.357	360.3
932.729	252.63
933.1	334.55
933.471	294.76
933.843	287.74
934.214	301.78
934.585	304.12
934.956	273.7
935.327	292.42
935.698	283.06
936.069	257.31
936.44	315.83
936.811	383.7
937.182	257.31
937.552	304.12
937.923	367.32
938.293	315.83
938.664	271.36
939.034	311.14
939.405	339.23
939.775	294.76
940.145	320.51
940.516	304.12
940.886	322.85
941.256	313.49
941.626	278.38
941.996	355.62
942.366	367.32
942.735	353.27
943.105	357.96
943.475	334.55
943.845	308.8
944.214	271.36
944.584	348.59
944.953	322.85
945.323	315.83
945.692	313.49
946.061	332.21
946.43	304.12
946.8	367.32
947.169	362.64
947.538	311.14
947.907	301.78
948.276	343.91
948.645	318.17
949.013	259.65
949.382	308.8
949.751	304.12
950.119	264.33
950.488	271.36
950.857	297.1
951.225	276.04
951.593	339.23
951.962	355.62
952.33	276.04
952.698	283.06
953.066	283.06
953.434	308.8
953.802	327.53
954.17	325.19
954.538	388.38
954.906	383.7
955.274	332.21
955.642	318.17
956.009	353.27
956.377	297.1
956.744	294.76
957.112	292.42
957.479	308.8
957.847	273.7
958.214	264.33
958.581	353.27
958.948	304.12
959.315	261.99
959.683	276.04
960.05	280.72
960.416	315.83
960.783	315.83
961.15	247.95
961.517	339.23
961.884	285.4
962.25	339.23
962.617	273.7
962.983	306.46
963.35	294.76
963.716	311.14
964.082	261.99
964.449	332.21
964.815	301.78
965.181	339.23
965.547	308.8
965.913	318.17
966.279	353.27
966.645	336.89
967.011	290.08
967.377	360.3
967.742	350.93
968.108	264.33
968.474	308.8
968.839	285.4
969.205	283.06
969.57	339.23
969.935	332.21
970.301	308.8
970.666	325.19
971.031	294.76
971.396	355.62
971.761	269.02
972.126	290.08
972.491	240.93
972.856	278.38
973.221	313.49
973.586	283.06
973.95	313.49
974.315	264.33
974.679	334.55
975.044	325.19
975.408	313.49
975.773	264.33
976.137	276.04
976.501	301.78
976.866	334.55
977.23	250.29
977.594	322.85
977.958	343.91
978.322	304.12
978.686	320.51
979.049	334.55
979.413	287.74
979.777	390.72
980.141	301.78
980.504	318.17
980.868	343.91
981.231	320.51
981.595	301.78
981.958	350.93
982.321	355.62
982.684	339.23
983.048	294.76
983.411	318.17
983.774	273.7
984.137	341.57
984.5	299.44
984.862	311.14
985.225	313.49
985.588	346.25
985.951	325.19
986.313	294.76
986.676	327.53
987.038	269.02
987.401	341.57
987.763	395.4
988.125	283.06
988.488	261.99
988.85	297.1
989.212	306.46
989.574	304.12
989.936	266.67
990.298	304.12
990.66	259.65
991.022	306.46
991.383	287.74
991.745	278.38
992.107	362.64
992.468	325.19
992.83	297.1
993.191	362.64
993.553	306.46
993.914	348.59
994.275	315.83
994.637	334.55
994.998	343.91
995.359	315.83
995.72	304.12
996.081	236.25
996.442	320.51
996.803	311.14
997.163	311.14
997.524	245.61
997.885	285.4
998.245	276.04
998.606	247.95
998.966	332.21
999.327	322.85
999.687	343.91
1000.047	334.55
1000.408	334.55
1000.768	334.55
1001.128	278.38
1001.488	315.83
1001.848	320.51
1002.208	278.38
1002.568	287.74
1002.927	376.68
1003.287	325.19
1003.647	407.11
1004.007	348.59
1004.366	273.7
1004.726	346.25
1005.085	381.36
1005.444	222.2
1005.804	308.8
1006.163	280.72
1006.522	364.98
1006.881	372
1007.24	372
1007.599	332.21
1007.958	294.76
1008.317	285.4
1008.676	334.55
1009.035	315.83
1009.393	334.55
1009.752	367.32
1010.111	297.1
1010.469	306.46
1010.828	325.19
1011.186	334.55
1011.544	276.04
1011.903	315.83
1012.261	367.32
1012.619	273.7
1012.977	311.14
1013.335	320.51
1013.693	381.36
1014.051	346.25
1014.409	374.34
1014.767	271.36
1015.124	290.08
1015.482	273.7
1015.84	304.12
1016.197	285.4
1016.555	369.66
1016.912	322.85
1017.269	285.4
1017.627	273.7
1017.984	297.1
1018.341	278.38
1018.698	264.33
1019.055	334.55
1019.412	304.12
1019.769	287.74
1020.126	320.51
1020.483	243.27
1020.84	320.51
1021.196	306.46
1021.553	301.78
1021.909	304.12
1022.266	388.38
1022.622	318.17
1022.979	381.36
1023.335	341.57
1023.691	329.87
1024.047	339.23
1024.404	336.89
1024.76	334.55
1025.116	381.36
1025.472	355.62
1025.827	332.21
1026.183	322.85
1026.539	343.91
1026.895	334.55
1027.25	294.76
1027.606	292.42
1027.961	339.23
1028.317	283.06
1028.672	386.04
1029.028	367.32
1029.383	294.76
1029.738	327.53
1030.093	313.49
1030.448	276.04
1030.803	341.57
1031.158	306.46
1031.513	276.04
1031.868	264.33
1032.223	264.33
1032.577	339.23
1032.932	329.87
1033.287	325.19
1033.641	285.4
1033.996	276.04
1034.35	290.08
1034.704	294.76
1035.059	297.1
1035.413	348.59
1035.767	348.59
1036.121	348.59
