Data from Al_FLMS009871__1065__16-27-03-211.txt Node

Date: Fri Mar 08 16:27:03 CST 2024
User: pe5414po
Spectrometer: FLMS00987
Trigger mode: 0
Integration Time (sec): 1.000000E-1
Scans to average: 1
Electric dark correction enabled: true
Nonlinearity correction enabled: false
Boxcar width: 0
XAxis mode: Wavelengths
Number of Pixels in Spectrum: 2048
>>>>>Begin Spectral Data<<<<<
188.938	-113.37
189.409	-113.37
189.879	-113.37
190.349	-134.43
190.819	-29.11
191.29	-38.47
191.76	-78.26
192.23	-141.46
192.7	-57.2
193.17	-61.88
193.64	-38.47
194.109	-47.83
194.579	-38.47
195.049	27.06
195.519	38.77
195.988	27.06
196.458	27.06
196.927	87.92
197.397	92.6
197.866	104.3
198.336	97.28
198.805	172.18
199.274	155.79
199.744	233.03
200.213	155.79
200.682	230.69
201.151	226.01
201.62	214.31
202.089	223.67
202.558	233.03
203.027	298.56
203.495	319.63
203.964	233.03
204.433	270.48
204.902	228.35
205.37	289.2
205.839	328.99
206.307	307.93
206.776	270.48
207.244	230.69
207.712	279.84
208.181	357.08
208.649	251.75
209.117	293.88
209.585	256.43
210.053	312.61
210.521	254.09
210.989	364.1
211.457	338.35
211.925	286.86
212.393	221.33
212.861	319.63
213.328	233.03
213.796	216.65
214.264	261.12
214.731	317.29
215.199	211.96
215.666	251.75
216.133	291.54
216.601	228.35
217.068	289.2
217.535	200.26
218.003	251.75
218.47	263.46
218.937	314.95
219.404	284.52
219.871	258.78
220.338	228.35
220.805	221.33
221.271	209.62
221.738	277.5
222.205	303.25
222.671	268.14
223.138	261.12
223.605	286.86
224.071	209.62
224.538	216.65
225.004	251.75
225.47	247.07
225.937	261.12
226.403	216.65
226.869	300.91
227.335	195.58
227.801	258.78
228.267	275.16
228.733	291.54
229.199	263.46
229.665	284.52
230.131	284.52
230.597	235.37
231.062	338.35
231.528	282.18
231.994	235.37
232.459	254.09
232.925	263.46
233.39	277.5
233.856	272.82
234.321	226.01
234.786	300.91
235.252	380.48
235.717	214.31
236.182	244.73
236.647	263.46
237.112	277.5
237.577	317.29
238.042	237.71
238.507	296.22
238.972	319.63
239.436	237.71
239.901	251.75
240.366	258.78
240.83	289.2
241.295	211.96
241.76	258.78
242.224	279.84
242.688	289.2
243.153	279.84
243.617	256.43
244.081	214.31
244.545	307.93
245.01	218.99
245.474	256.43
245.938	300.91
246.402	307.93
246.866	265.8
247.33	249.41
247.793	300.91
248.257	240.05
248.721	270.48
249.185	272.82
249.648	289.2
250.112	277.5
250.575	275.16
251.039	256.43
251.502	305.59
251.965	261.12
252.429	307.93
252.892	361.76
253.355	277.5
253.818	284.52
254.281	307.93
254.744	233.03
255.207	233.03
255.67	256.43
256.133	263.46
256.596	331.33
257.059	270.48
257.522	209.62
257.984	319.63
258.447	263.46
258.909	286.86
259.372	345.38
259.834	240.05
260.297	277.5
260.759	258.78
261.221	265.8
261.684	270.48
262.146	256.43
262.608	321.97
263.07	307.93
263.532	240.05
263.994	312.61
264.456	343.03
264.918	305.59
265.38	303.25
265.842	247.07
266.303	319.63
266.765	247.07
267.227	284.52
267.688	240.05
268.15	286.86
268.611	338.35
269.072	254.09
269.534	385.16
269.995	293.88
270.456	289.2
270.918	314.95
271.379	263.46
271.84	343.03
272.301	244.73
272.762	270.48
273.223	242.39
273.684	338.35
274.144	289.2
274.605	333.67
275.066	298.56
275.527	279.84
275.987	226.01
276.448	378.14
276.908	261.12
277.369	317.29
277.829	275.16
278.289	272.82
278.75	305.59
279.21	312.61
279.67	265.8
280.13	296.22
280.59	291.54
281.05	303.25
281.51	333.67
281.97	305.59
282.43	303.25
282.89	291.54
283.35	258.78
283.809	279.84
284.269	289.2
284.729	249.41
285.188	282.18
285.648	251.75
286.107	368.78
286.567	275.16
287.026	279.84
287.485	263.46
287.944	270.48
288.404	338.35
288.863	268.14
289.322	279.84
289.781	324.31
290.24	270.48
290.699	249.41
291.158	279.84
291.616	336.01
292.075	321.97
292.534	242.39
292.992	331.33
293.451	279.84
293.91	293.88
294.368	319.63
294.827	336.01
295.285	319.63
295.743	270.48
296.202	366.44
296.66	305.59
297.118	326.65
297.576	268.14
298.034	331.33
298.492	244.73
298.95	303.25
299.408	298.56
299.866	284.52
300.324	249.41
300.781	258.78
301.239	249.41
301.697	289.2
302.154	282.18
302.612	279.84
303.069	275.16
303.527	275.16
303.984	256.43
304.441	277.5
304.899	261.12
305.356	296.22
305.813	282.18
306.27	244.73
306.727	265.8
307.184	279.84
307.641	293.88
308.098	328.99
308.555	254.09
309.012	282.18
309.468	284.52
309.925	343.03
310.382	272.82
310.838	352.4
311.295	282.18
311.751	249.41
312.208	293.88
312.664	277.5
313.12	312.61
313.577	305.59
314.033	312.61
314.489	282.18
314.945	284.52
315.401	328.99
315.857	350.06
316.313	216.65
316.769	291.54
317.225	319.63
317.681	324.31
318.136	211.96
318.592	263.46
319.048	324.31
319.503	371.12
319.959	275.16
320.414	279.84
320.869	300.91
321.325	293.88
321.78	321.97
322.235	300.91
322.691	312.61
323.146	254.09
323.601	254.09
324.056	310.27
324.511	296.22
324.966	263.46
325.421	277.5
325.875	296.22
326.33	305.59
326.785	326.65
327.24	296.22
327.694	275.16
328.149	284.52
328.603	279.84
329.058	242.39
329.512	289.2
329.966	211.96
330.421	352.4
330.875	228.35
331.329	279.84
331.783	303.25
332.237	298.56
332.691	289.2
333.145	296.22
333.599	317.29
334.053	286.86
334.507	284.52
334.96	279.84
335.414	265.8
335.868	279.84
336.321	321.97
336.775	305.59
337.228	307.93
337.682	254.09
338.135	293.88
338.588	352.4
339.042	256.43
339.495	303.25
339.948	361.76
340.401	352.4
340.854	303.25
341.307	258.78
341.76	254.09
342.213	312.61
342.666	354.74
343.119	328.99
343.571	289.2
344.024	268.14
344.477	282.18
344.929	261.12
345.382	310.27
345.834	256.43
346.287	265.8
346.739	300.91
347.191	270.48
347.644	268.14
348.096	366.44
348.548	333.67
349	296.22
349.452	261.12
349.904	326.65
350.356	291.54
350.808	317.29
351.26	326.65
351.711	312.61
352.163	279.84
352.615	352.4
353.066	317.29
353.518	331.33
353.969	305.59
354.421	336.01
354.872	251.75
355.324	284.52
355.775	258.78
356.226	424.95
356.677	223.67
357.128	293.88
357.579	291.54
358.03	307.93
358.481	296.22
358.932	298.56
359.383	291.54
359.834	277.5
360.285	275.16
360.735	298.56
361.186	270.48
361.637	305.59
362.087	317.29
362.538	296.22
362.988	359.42
363.438	331.33
363.889	307.93
364.339	336.01
364.789	359.42
365.239	254.09
365.689	389.85
366.139	331.33
366.589	321.97
367.039	263.46
367.489	286.86
367.939	345.38
368.389	263.46
368.839	310.27
369.288	328.99
369.738	261.12
370.187	340.69
370.637	357.08
371.086	296.22
371.536	319.63
371.985	336.01
372.434	314.95
372.884	310.27
373.333	247.07
373.782	249.41
374.231	312.61
374.68	298.56
375.129	338.35
375.578	343.03
376.027	326.65
376.475	268.14
376.924	275.16
377.373	291.54
377.822	237.71
378.27	345.38
378.719	275.16
379.167	291.54
379.616	319.63
380.064	277.5
380.512	326.65
380.961	305.59
381.409	296.22
381.857	357.08
382.305	326.65
382.753	307.93
383.201	265.8
383.649	317.29
384.097	324.31
384.545	331.33
384.992	303.25
385.44	310.27
385.888	298.56
386.335	331.33
386.783	291.54
387.231	216.65
387.678	319.63
388.125	275.16
388.573	361.76
389.02	268.14
389.467	244.73
389.914	272.82
390.362	282.18
390.809	265.8
391.256	307.93
391.703	282.18
392.15	324.31
392.596	324.31
393.043	296.22
393.49	261.12
393.937	343.03
394.383	317.29
394.83	312.61
395.276	303.25
395.723	303.25
396.169	289.2
396.616	373.46
397.062	291.54
397.508	286.86
397.954	371.12
398.401	321.97
398.847	331.33
399.293	258.78
399.739	359.42
400.185	303.25
400.631	296.22
401.076	244.73
401.522	298.56
401.968	366.44
402.414	277.5
402.859	293.88
403.305	314.95
403.75	317.29
404.196	361.76
404.641	368.78
405.086	328.99
405.532	359.42
405.977	312.61
406.422	293.88
406.867	277.5
407.312	371.12
407.757	324.31
408.202	305.59
408.647	394.53
409.092	298.56
409.537	289.2
409.982	289.2
410.426	317.29
410.871	305.59
411.316	312.61
411.76	312.61
412.205	312.61
412.649	284.52
413.093	275.16
413.538	286.86
413.982	291.54
414.426	310.27
414.87	310.27
415.314	310.27
415.758	345.38
416.202	286.86
416.646	300.91
417.09	263.46
417.534	328.99
417.978	289.2
418.421	284.52
418.865	352.4
419.309	314.95
419.752	272.82
420.196	354.74
420.639	296.22
421.083	284.52
421.526	303.25
421.969	300.91
422.412	223.67
422.856	354.74
423.299	310.27
423.742	324.31
424.185	305.59
424.628	247.07
425.071	298.56
425.513	319.63
425.956	312.61
426.399	279.84
426.842	310.27
427.284	284.52
427.727	310.27
428.169	286.86
428.612	256.43
429.054	277.5
429.497	314.95
429.939	305.59
430.381	298.56
430.823	296.22
431.265	275.16
431.707	359.42
432.149	303.25
432.591	265.8
433.033	345.38
433.475	324.31
433.917	371.12
434.359	277.5
434.8	389.85
435.242	312.61
435.684	251.75
436.125	279.84
436.567	382.82
437.008	270.48
437.449	310.27
437.891	256.43
438.332	298.56
438.773	303.25
439.214	270.48
439.656	263.46
440.097	249.41
440.538	279.84
440.978	272.82
441.419	321.97
441.86	300.91
442.301	251.75
442.742	331.33
443.182	347.72
443.623	291.54
444.063	286.86
444.504	345.38
444.944	310.27
445.385	333.67
445.825	296.22
446.265	359.42
446.706	345.38
447.146	347.72
447.586	284.52
448.026	307.93
448.466	371.12
448.906	312.61
449.346	254.09
449.786	282.18
450.225	345.38
450.665	354.74
451.105	263.46
451.544	300.91
451.984	300.91
452.424	289.2
452.863	345.38
453.302	300.91
453.742	291.54
454.181	366.44
454.62	345.38
455.059	251.75
455.499	296.22
455.938	296.22
456.377	324.31
456.816	284.52
457.254	261.12
457.693	307.93
458.132	331.33
458.571	279.84
459.01	319.63
459.448	303.25
459.887	293.88
460.325	357.08
460.764	289.2
461.202	300.91
461.641	338.35
462.079	272.82
462.517	291.54
462.955	307.93
463.393	310.27
463.832	328.99
464.27	328.99
464.708	310.27
465.145	247.07
465.583	286.86
466.021	296.22
466.459	282.18
466.897	343.03
467.334	324.31
467.772	270.48
468.209	317.29
468.647	338.35
469.084	214.31
469.522	331.33
469.959	261.12
470.396	312.61
470.833	258.78
471.271	326.65
471.708	300.91
472.145	307.93
472.582	328.99
473.019	336.01
473.456	289.2
473.892	291.54
474.329	279.84
474.766	361.76
475.202	340.69
475.639	340.69
476.076	333.67
476.512	307.93
476.949	289.2
477.385	338.35
477.821	305.59
478.258	359.42
478.694	279.84
479.13	228.35
479.566	254.09
480.002	275.16
480.438	319.63
480.874	289.2
481.31	268.14
481.746	296.22
482.181	328.99
482.617	347.72
483.053	307.93
483.488	261.12
483.924	317.29
484.36	268.14
484.795	343.03
485.23	284.52
485.666	336.01
486.101	350.06
486.536	350.06
486.971	368.78
487.407	286.86
487.842	303.25
488.277	244.73
488.712	282.18
489.146	286.86
489.581	293.88
490.016	352.4
490.451	347.72
490.885	319.63
491.32	265.8
491.755	272.82
492.189	312.61
492.624	324.31
493.058	319.63
493.492	338.35
493.927	211.96
494.361	296.22
494.795	293.88
495.229	249.41
495.663	310.27
496.097	354.74
496.531	331.33
496.965	328.99
497.399	354.74
497.833	286.86
498.266	368.78
498.7	319.63
499.134	324.31
499.567	340.69
500.001	387.5
500.434	352.4
500.868	310.27
501.301	251.75
501.734	314.95
502.168	272.82
502.601	317.29
503.034	258.78
503.467	251.75
503.9	312.61
504.333	296.22
504.766	326.65
505.199	293.88
505.632	312.61
506.064	291.54
506.497	326.65
506.93	270.48
507.362	338.35
507.795	305.59
508.227	319.63
508.66	364.1
509.092	382.82
509.524	314.95
509.956	279.84
510.389	333.67
510.821	321.97
511.253	317.29
511.685	261.12
512.117	364.1
512.549	279.84
512.981	300.91
513.412	350.06
513.844	307.93
514.276	233.03
514.707	392.19
515.139	282.18
515.571	310.27
516.002	321.97
516.433	293.88
516.865	307.93
517.296	333.67
517.727	300.91
518.159	357.08
518.59	343.03
519.021	284.52
519.452	326.65
519.883	305.59
520.314	291.54
520.744	317.29
521.175	305.59
521.606	284.52
522.037	214.31
522.467	254.09
522.898	312.61
523.328	289.2
523.759	366.44
524.189	209.62
524.62	291.54
525.05	254.09
525.48	303.25
525.91	324.31
526.341	310.27
526.771	263.46
527.201	314.95
527.631	282.18
528.061	279.84
528.49	314.95
528.92	291.54
529.35	307.93
529.78	314.95
530.209	289.2
530.639	354.74
531.068	343.03
531.498	317.29
531.927	350.06
532.357	364.1
532.786	307.93
533.215	261.12
533.644	289.2
534.074	282.18
534.503	242.39
534.932	289.2
535.361	265.8
535.79	336.01
536.218	333.67
536.647	364.1
537.076	326.65
537.505	282.18
537.933	270.48
538.362	326.65
538.79	326.65
539.219	298.56
539.647	319.63
540.076	326.65
540.504	345.38
540.932	307.93
541.36	303.25
541.788	380.48
542.217	354.74
542.645	293.88
543.073	373.46
543.5	282.18
543.928	326.65
544.356	336.01
544.784	286.86
545.211	279.84
545.639	258.78
546.067	303.25
546.494	261.12
546.922	312.61
547.349	251.75
547.776	289.2
548.204	328.99
548.631	261.12
549.058	300.91
549.485	307.93
549.912	317.29
550.339	291.54
550.766	321.97
551.193	286.86
551.62	345.38
552.047	298.56
552.474	324.31
552.9	300.91
553.327	303.25
553.754	279.84
554.18	303.25
554.607	336.01
555.033	324.31
555.459	263.46
555.886	307.93
556.312	300.91
556.738	284.52
557.164	317.29
557.59	240.05
558.016	251.75
558.442	282.18
558.868	235.37
559.294	279.84
559.72	317.29
560.145	284.52
560.571	324.31
560.997	282.18
561.422	303.25
561.848	298.56
562.273	319.63
562.699	312.61
563.124	286.86
563.549	371.12
563.974	284.52
564.4	277.5
564.825	314.95
565.25	401.55
565.675	387.5
566.1	324.31
566.525	326.65
566.95	218.99
567.374	321.97
567.799	291.54
568.224	312.61
568.648	326.65
569.073	291.54
569.497	305.59
569.922	296.22
570.346	328.99
570.771	345.38
571.195	296.22
571.619	317.29
572.043	317.29
572.467	249.41
572.891	284.52
573.315	317.29
573.739	298.56
574.163	270.48
574.587	331.33
575.011	254.09
575.435	317.29
575.858	298.56
576.282	345.38
576.705	254.09
577.129	310.27
577.552	307.93
577.976	237.71
578.399	298.56
578.822	300.91
579.245	314.95
579.669	298.56
580.092	268.14
580.515	289.2
580.938	310.27
581.361	307.93
581.784	279.84
582.206	378.14
582.629	251.75
583.052	296.22
583.474	312.61
583.897	321.97
584.32	347.72
584.742	298.56
585.165	293.88
585.587	263.46
586.009	328.99
586.431	291.54
586.854	336.01
587.276	286.86
587.698	310.27
588.12	272.82
588.542	254.09
588.964	373.46
589.386	312.61
589.807	371.12
590.229	347.72
590.651	324.31
591.073	307.93
591.494	258.78
591.916	326.65
592.337	305.59
592.759	307.93
593.18	359.42
593.601	331.33
594.022	312.61
594.444	270.48
594.865	289.2
595.286	319.63
595.707	268.14
596.128	310.27
596.549	340.69
596.97	336.01
597.39	272.82
597.811	350.06
598.232	347.72
598.652	296.22
599.073	293.88
599.494	357.08
599.914	272.82
600.334	258.78
600.755	321.97
601.175	258.78
601.595	277.5
602.015	343.03
602.436	359.42
602.856	478.79
603.276	378.14
603.696	350.06
604.115	303.25
604.535	333.67
604.955	343.03
605.375	310.27
605.794	352.4
606.214	296.22
606.634	382.82
607.053	251.75
607.473	310.27
607.892	312.61
608.311	307.93
608.731	354.74
609.15	293.88
609.569	282.18
609.988	343.03
610.407	331.33
610.826	317.29
611.245	310.27
611.664	254.09
612.083	275.16
612.501	272.82
612.92	336.01
613.339	305.59
613.757	300.91
614.176	282.18
614.594	277.5
615.013	289.2
615.431	336.01
615.85	291.54
616.268	286.86
616.686	293.88
617.104	293.88
617.522	336.01
617.94	338.35
618.358	326.65
618.776	263.46
619.194	296.22
619.612	336.01
620.03	347.72
620.447	331.33
620.865	314.95
621.282	284.52
621.7	298.56
622.117	319.63
622.535	347.72
622.952	251.75
623.369	226.01
623.787	242.39
624.204	328.99
624.621	385.16
625.038	321.97
625.455	258.78
625.872	312.61
626.289	286.86
626.706	352.4
627.123	343.03
627.539	303.25
627.956	282.18
628.373	303.25
628.789	261.12
629.206	270.48
629.622	300.91
630.038	305.59
630.455	343.03
630.871	293.88
631.287	303.25
631.703	314.95
632.12	298.56
632.536	307.93
632.952	319.63
633.368	282.18
633.783	298.56
634.199	350.06
634.615	247.07
635.031	305.59
635.446	244.73
635.862	279.84
636.277	319.63
636.693	357.08
637.108	256.43
637.524	319.63
637.939	312.61
638.354	272.82
638.77	314.95
639.185	314.95
639.6	296.22
640.015	277.5
640.43	272.82
640.845	261.12
641.259	340.69
641.674	275.16
642.089	312.61
642.504	291.54
642.918	307.93
643.333	380.48
643.747	305.59
644.162	343.03
644.576	305.59
644.991	312.61
645.405	359.42
645.819	336.01
646.233	303.25
646.647	279.84
647.061	305.59
647.475	268.14
647.889	284.52
648.303	347.72
648.717	303.25
649.131	307.93
649.545	321.97
649.958	333.67
650.372	338.35
650.785	305.59
651.199	303.25
651.612	343.03
652.026	321.97
652.439	328.99
652.852	303.25
653.266	352.4
653.679	364.1
654.092	254.09
654.505	263.46
654.918	277.5
655.331	261.12
655.744	265.8
656.156	333.67
656.569	338.35
656.982	303.25
657.394	340.69
657.807	310.27
658.22	275.16
658.632	352.4
659.044	291.54
659.457	263.46
659.869	319.63
660.281	310.27
660.693	265.8
661.106	282.18
661.518	333.67
661.93	300.91
662.342	319.63
662.754	357.08
663.165	352.4
663.577	284.52
663.989	333.67
664.401	263.46
664.812	314.95
665.224	336.01
665.635	300.91
666.047	298.56
666.458	282.18
666.869	317.29
667.281	307.93
667.692	282.18
668.103	270.48
668.514	305.59
668.925	359.42
669.336	270.48
669.747	296.22
670.158	289.2
670.569	312.61
670.979	296.22
671.39	289.2
671.801	265.8
672.211	293.88
672.622	286.86
673.032	275.16
673.443	350.06
673.853	328.99
674.263	333.67
674.674	317.29
675.084	305.59
675.494	319.63
675.904	347.72
676.314	298.56
676.724	279.84
677.134	326.65
677.544	305.59
677.953	361.76
678.363	261.12
678.773	336.01
679.182	303.25
679.592	256.43
680.001	251.75
680.411	307.93
680.82	279.84
681.23	328.99
681.639	314.95
682.048	251.75
682.457	261.12
682.866	284.52
683.275	272.82
683.684	275.16
684.093	256.43
684.502	312.61
684.911	254.09
685.32	305.59
685.728	310.27
686.137	291.54
686.546	314.95
686.954	314.95
687.363	317.29
687.771	296.22
688.179	300.91
688.588	321.97
688.996	326.65
689.404	303.25
689.812	340.69
690.22	319.63
690.628	296.22
691.036	326.65
691.444	319.63
691.852	244.73
692.26	328.99
692.667	312.61
693.075	223.67
693.483	333.67
693.89	268.14
694.298	235.37
694.705	268.14
695.112	336.01
695.52	317.29
695.927	340.69
696.334	338.35
696.741	233.03
697.148	293.88
697.555	275.16
697.962	296.22
698.369	305.59
698.776	382.82
699.183	347.72
699.59	226.01
699.996	321.97
700.403	326.65
700.81	359.42
701.216	272.82
701.623	314.95
702.029	338.35
702.435	331.33
702.842	300.91
703.248	357.08
703.654	336.01
704.06	277.5
704.466	319.63
704.872	300.91
705.278	338.35
705.684	336.01
706.09	326.65
706.496	324.31
706.901	296.22
707.307	319.63
707.712	312.61
708.118	284.52
708.523	275.16
708.929	284.52
709.334	347.72
709.74	258.78
710.145	286.86
710.55	305.59
710.955	314.95
711.36	249.41
711.765	321.97
712.17	326.65
712.575	350.06
712.98	836.89
713.385	326.65
713.789	300.91
714.194	275.16
714.599	347.72
715.003	310.27
715.408	284.52
715.812	352.4
716.217	272.82
716.621	300.91
717.025	328.99
717.429	343.03
717.833	270.48
718.238	343.03
718.642	282.18
719.046	310.27
719.449	275.16
719.853	336.01
720.257	317.29
720.661	338.35
721.065	305.59
721.468	310.27
721.872	317.29
722.275	354.74
722.679	352.4
723.082	317.29
723.485	300.91
723.889	345.38
724.292	326.65
724.695	321.97
725.098	345.38
725.501	286.86
725.904	284.52
726.307	284.52
726.71	300.91
727.113	293.88
727.516	247.07
727.918	300.91
728.321	319.63
728.724	366.44
729.126	319.63
729.529	352.4
729.931	305.59
730.333	347.72
730.736	338.35
731.138	314.95
731.54	350.06
731.942	261.12
732.344	319.63
732.746	305.59
733.148	307.93
733.55	268.14
733.952	336.01
734.354	268.14
734.756	298.56
735.157	350.06
735.559	350.06
735.96	317.29
736.362	307.93
736.763	289.2
737.165	333.67
737.566	277.5
737.967	392.19
738.368	331.33
738.77	331.33
739.171	261.12
739.572	293.88
739.973	345.38
740.374	314.95
740.774	347.72
741.175	247.07
741.576	300.91
741.977	279.84
742.377	303.25
742.778	380.48
743.178	361.76
743.579	333.67
743.979	293.88
744.379	366.44
744.78	354.74
745.18	293.88
745.58	321.97
745.98	333.67
746.38	277.5
746.78	289.2
747.18	385.16
747.58	216.65
747.98	289.2
748.38	298.56
748.779	312.61
749.179	296.22
749.578	324.31
749.978	209.62
750.377	284.52
750.777	254.09
751.176	279.84
751.575	359.42
751.975	333.67
752.374	338.35
752.773	310.27
753.172	387.5
753.571	371.12
753.97	317.29
754.369	305.59
754.768	343.03
755.166	300.91
755.565	293.88
755.964	406.23
756.362	340.69
756.761	410.91
757.159	263.46
757.558	314.95
757.956	343.03
758.354	380.48
758.753	270.48
759.151	319.63
759.549	275.16
759.947	331.33
760.345	270.48
760.743	265.8
761.141	338.35
761.539	258.78
761.936	300.91
762.334	331.33
762.732	357.08
763.129	300.91
763.527	298.56
763.924	338.35
764.322	347.72
764.719	291.54
765.117	399.21
765.514	321.97
765.911	305.59
766.308	272.82
766.705	277.5
767.102	256.43
767.499	296.22
767.896	293.88
768.293	394.53
768.69	340.69
769.086	319.63
769.483	373.46
769.88	371.12
770.276	296.22
770.673	296.22
771.069	361.76
771.466	284.52
771.862	251.75
772.258	265.8
772.654	251.75
773.05	279.84
773.447	244.73
773.843	350.06
774.239	296.22
774.634	312.61
775.03	312.61
775.426	319.63
775.822	366.44
776.218	265.8
776.613	366.44
777.009	343.03
777.404	328.99
777.8	277.5
778.195	282.18
778.59	338.35
778.986	378.14
779.381	296.22
779.776	354.74
780.171	300.91
780.566	314.95
780.961	282.18
781.356	359.42
781.751	279.84
782.146	268.14
782.54	293.88
782.935	230.69
783.33	240.05
783.724	279.84
784.119	237.71
784.513	333.67
784.908	364.1
785.302	298.56
785.696	247.07
786.09	258.78
786.485	209.62
786.879	247.07
787.273	317.29
787.667	328.99
788.061	293.88
788.454	319.63
788.848	286.86
789.242	326.65
789.636	431.98
790.029	286.86
790.423	324.31
790.816	340.69
791.21	326.65
791.603	296.22
791.997	326.65
792.39	312.61
792.783	347.72
793.176	251.75
793.569	336.01
793.962	284.52
794.355	375.8
794.748	305.59
795.141	293.88
795.534	307.93
795.927	277.5
796.319	305.59
796.712	261.12
797.105	328.99
797.497	303.25
797.89	331.33
798.282	317.29
798.674	298.56
799.067	286.86
799.459	314.95
799.851	343.03
800.243	298.56
800.635	321.97
801.027	303.25
801.419	303.25
801.811	298.56
802.203	331.33
802.594	240.05
802.986	310.27
803.378	277.5
803.769	336.01
804.161	291.54
804.552	298.56
804.944	319.63
805.335	336.01
805.726	293.88
806.118	300.91
806.509	331.33
806.9	328.99
807.291	218.99
807.682	347.72
808.073	305.59
808.464	277.5
808.855	333.67
809.245	357.08
809.636	291.54
810.027	284.52
810.417	256.43
810.808	345.38
811.198	272.82
811.589	291.54
811.979	282.18
812.369	333.67
812.759	233.03
813.15	277.5
813.54	310.27
813.93	338.35
814.32	275.16
814.71	317.29
815.1	350.06
815.489	296.22
815.879	286.86
816.269	314.95
816.658	350.06
817.048	310.27
817.438	284.52
817.827	350.06
818.216	312.61
818.606	338.35
818.995	314.95
819.384	291.54
819.773	343.03
820.163	324.31
820.552	338.35
820.941	293.88
821.33	319.63
821.718	331.33
822.107	303.25
822.496	291.54
822.885	272.82
823.273	263.46
823.662	286.86
824.05	328.99
824.439	296.22
824.827	338.35
825.216	310.27
825.604	275.16
825.992	263.46
826.38	298.56
826.768	314.95
827.156	324.31
827.544	310.27
827.932	333.67
828.32	303.25
828.708	307.93
829.096	317.29
829.483	263.46
829.871	350.06
830.259	324.31
830.646	326.65
831.034	298.56
831.421	249.41
831.808	314.95
832.196	312.61
832.583	270.48
832.97	321.97
833.357	265.8
833.744	289.2
834.131	272.82
834.518	336.01
834.905	375.8
835.292	310.27
835.678	284.52
836.065	282.18
836.452	298.56
836.838	347.72
837.225	282.18
837.611	333.67
837.998	286.86
838.384	312.61
838.77	333.67
839.157	282.18
839.543	284.52
839.929	289.2
840.315	277.5
840.701	312.61
841.087	314.95
841.473	300.91
841.858	307.93
842.244	279.84
842.63	296.22
843.015	275.16
843.401	581.77
843.787	279.84
844.172	312.61
844.557	270.48
844.943	300.91
845.328	258.78
845.713	289.2
846.098	343.03
846.483	331.33
846.868	268.14
847.253	317.29
847.638	359.42
848.023	279.84
848.408	324.31
848.793	256.43
849.177	289.2
849.562	343.03
849.947	331.33
850.331	312.61
850.715	352.4
851.1	293.88
851.484	303.25
851.868	310.27
852.253	277.5
852.637	317.29
853.021	244.73
853.405	347.72
853.789	244.73
854.173	289.2
854.557	303.25
854.94	254.09
855.324	268.14
855.708	343.03
856.091	336.01
856.475	258.78
856.858	343.03
857.242	317.29
857.625	354.74
858.009	336.01
858.392	214.31
858.775	228.35
859.158	326.65
859.541	279.84
859.924	242.39
860.307	265.8
860.69	338.35
861.073	312.61
861.456	336.01
861.838	321.97
862.221	375.8
862.604	254.09
862.986	240.05
863.369	354.74
863.751	361.76
864.133	282.18
864.516	300.91
864.898	298.56
865.28	354.74
865.662	298.56
866.044	258.78
866.426	305.59
866.808	298.56
867.19	275.16
867.572	336.01
867.954	326.65
868.336	350.06
868.717	312.61
869.099	291.54
869.48	275.16
869.862	321.97
870.243	277.5
870.625	314.95
871.006	282.18
871.387	300.91
871.768	254.09
872.149	359.42
872.53	303.25
872.911	244.73
873.292	296.22
873.673	319.63
874.054	328.99
874.435	305.59
874.815	324.31
875.196	336.01
875.577	282.18
875.957	314.95
876.338	317.29
876.718	242.39
877.098	293.88
877.479	319.63
877.859	307.93
878.239	317.29
878.619	406.23
878.999	310.27
879.379	314.95
879.759	293.88
880.139	293.88
880.519	333.67
880.898	343.03
881.278	326.65
881.658	291.54
882.037	268.14
882.417	289.2
882.796	279.84
883.176	340.69
883.555	235.37
883.934	275.16
884.313	223.67
884.693	317.29
885.072	310.27
885.451	347.72
885.83	300.91
886.209	307.93
886.587	293.88
886.966	240.05
887.345	338.35
887.724	314.95
888.102	223.67
888.481	277.5
888.859	289.2
889.238	300.91
889.616	256.43
889.994	284.52
890.373	345.38
890.751	336.01
891.129	366.44
891.507	254.09
891.885	328.99
892.263	303.25
892.641	265.8
893.019	310.27
893.396	286.86
893.774	328.99
894.152	328.99
894.529	338.35
894.907	286.86
895.284	368.78
895.662	282.18
896.039	310.27
896.416	240.05
896.794	247.07
897.171	324.31
897.548	375.8
897.925	319.63
898.302	293.88
898.679	319.63
899.056	312.61
899.433	277.5
899.809	282.18
900.186	282.18
900.563	333.67
900.939	277.5
901.316	289.2
901.692	282.18
902.069	286.86
902.445	354.74
902.821	275.16
903.197	293.88
903.574	305.59
903.95	345.38
904.326	209.62
904.702	282.18
905.078	277.5
905.454	350.06
905.829	331.33
906.205	305.59
906.581	300.91
906.956	261.12
907.332	314.95
907.707	319.63
908.083	317.29
908.458	258.78
908.833	279.84
909.209	312.61
909.584	282.18
909.959	284.52
910.334	336.01
910.709	289.2
911.084	249.41
911.459	357.08
911.834	249.41
912.209	321.97
912.583	279.84
912.958	284.52
913.333	277.5
913.707	336.01
914.082	352.4
914.456	270.48
914.83	268.14
915.205	350.06
915.579	223.67
915.953	251.75
916.327	298.56
916.701	242.39
917.075	282.18
917.449	293.88
917.823	303.25
918.197	256.43
918.571	293.88
918.944	385.16
919.318	272.82
919.692	291.54
920.065	314.95
920.438	319.63
920.812	282.18
921.185	263.46
921.558	282.18
921.932	336.01
922.305	319.63
922.678	268.14
923.051	333.67
923.424	310.27
923.797	298.56
924.17	277.5
924.542	321.97
924.915	364.1
925.288	254.09
925.661	340.69
926.033	331.33
926.406	268.14
926.778	289.2
927.15	333.67
927.523	230.69
927.895	277.5
928.267	293.88
928.639	261.12
929.011	270.48
929.383	256.43
929.755	317.29
930.127	300.91
930.499	298.56
930.871	284.52
931.242	389.85
931.614	251.75
931.986	258.78
932.357	345.38
932.729	296.22
933.1	326.65
933.471	256.43
933.843	317.29
934.214	321.97
934.585	340.69
934.956	293.88
935.327	282.18
935.698	307.93
936.069	258.78
936.44	272.82
936.811	296.22
937.182	286.86
937.552	345.38
937.923	270.48
938.293	310.27
938.664	293.88
939.034	275.16
939.405	265.8
939.775	270.48
940.145	319.63
940.516	324.31
940.886	258.78
941.256	277.5
941.626	312.61
941.996	268.14
942.366	265.8
942.735	317.29
943.105	359.42
943.475	258.78
943.845	275.16
944.214	338.35
944.584	307.93
944.953	277.5
945.323	270.48
945.692	272.82
946.061	258.78
946.43	331.33
946.8	256.43
947.169	303.25
947.538	314.95
947.907	247.07
948.276	286.86
948.645	254.09
949.013	258.78
949.382	321.97
949.751	310.27
950.119	279.84
950.488	310.27
950.857	321.97
951.225	235.37
951.593	282.18
951.962	284.52
952.33	249.41
952.698	296.22
953.066	338.35
953.434	291.54
953.802	338.35
954.17	307.93
954.538	265.8
954.906	296.22
955.274	272.82
955.642	282.18
956.009	214.31
956.377	291.54
956.744	368.78
957.112	357.08
957.479	319.63
957.847	326.65
958.214	296.22
958.581	343.03
958.948	268.14
959.315	235.37
959.683	298.56
960.05	354.74
960.416	284.52
960.783	293.88
961.15	333.67
961.517	218.99
961.884	247.07
962.25	375.8
962.617	352.4
962.983	350.06
963.35	328.99
963.716	343.03
964.082	324.31
964.449	261.12
964.815	296.22
965.181	310.27
965.547	326.65
965.913	284.52
966.279	331.33
966.645	340.69
967.011	277.5
967.377	237.71
967.742	305.59
968.108	361.76
968.474	343.03
968.839	321.97
969.205	314.95
969.57	307.93
969.935	279.84
970.301	312.61
970.666	291.54
971.031	326.65
971.396	261.12
971.761	336.01
972.126	254.09
972.491	338.35
972.856	289.2
973.221	321.97
973.586	279.84
973.95	338.35
974.315	268.14
974.679	247.07
975.044	300.91
975.408	307.93
975.773	328.99
976.137	233.03
976.501	282.18
976.866	272.82
977.23	223.67
977.594	249.41
977.958	312.61
978.322	254.09
978.686	272.82
979.049	307.93
979.413	321.97
979.777	300.91
980.141	282.18
980.504	282.18
980.868	279.84
981.231	230.69
981.595	272.82
981.958	319.63
982.321	319.63
982.684	303.25
983.048	326.65
983.411	286.86
983.774	333.67
984.137	310.27
984.5	310.27
984.862	317.29
985.225	326.65
985.588	284.52
985.951	296.22
986.313	357.08
986.676	321.97
987.038	303.25
987.401	333.67
987.763	261.12
988.125	291.54
988.488	268.14
988.85	366.44
989.212	275.16
989.574	326.65
989.936	272.82
990.298	275.16
990.66	305.59
991.022	282.18
991.383	359.42
991.745	319.63
992.107	310.27
992.468	303.25
992.83	324.31
993.191	338.35
993.553	324.31
993.914	258.78
994.275	300.91
994.637	336.01
994.998	263.46
995.359	293.88
995.72	293.88
996.081	343.03
996.442	317.29
996.803	291.54
997.163	258.78
997.524	277.5
997.885	307.93
998.245	279.84
998.606	314.95
998.966	345.38
999.327	307.93
999.687	368.78
1000.047	289.2
1000.408	326.65
1000.768	275.16
1001.128	317.29
1001.488	300.91
1001.848	298.56
1002.208	298.56
1002.568	333.67
1002.927	293.88
1003.287	314.95
1003.647	303.25
1004.007	368.78
1004.366	293.88
1004.726	268.14
1005.085	336.01
1005.444	314.95
1005.804	272.82
1006.163	314.95
1006.522	298.56
1006.881	223.67
1007.24	298.56
1007.599	282.18
1007.958	289.2
1008.317	279.84
1008.676	214.31
1009.035	298.56
1009.393	291.54
1009.752	331.33
1010.111	326.65
1010.469	237.71
1010.828	331.33
1011.186	324.31
1011.544	310.27
1011.903	261.12
1012.261	272.82
1012.619	347.72
1012.977	293.88
1013.335	319.63
1013.693	275.16
1014.051	268.14
1014.409	240.05
1014.767	366.44
1015.124	286.86
1015.482	282.18
1015.84	233.03
1016.197	270.48
1016.555	282.18
1016.912	233.03
1017.269	207.28
1017.627	321.97
1017.984	336.01
1018.341	286.86
1018.698	251.75
1019.055	249.41
1019.412	268.14
1019.769	293.88
1020.126	303.25
1020.483	307.93
1020.84	359.42
1021.196	364.1
1021.553	324.31
1021.909	300.91
1022.266	312.61
1022.622	333.67
1022.979	345.38
1023.335	284.52
1023.691	319.63
1024.047	343.03
1024.404	326.65
1024.76	298.56
1025.116	291.54
1025.472	352.4
1025.827	336.01
1026.183	312.61
1026.539	256.43
1026.895	296.22
1027.25	354.74
1027.606	284.52
1027.961	300.91
1028.317	286.86
1028.672	261.12
1029.028	331.33
1029.383	249.41
1029.738	314.95
1030.093	340.69
1030.448	336.01
1030.803	300.91
1031.158	279.84
1031.513	256.43
1031.868	268.14
1032.223	256.43
1032.577	310.27
1032.932	275.16
1033.287	296.22
1033.641	326.65
1033.996	324.31
1034.35	310.27
1034.704	361.76
1035.059	340.69
1035.413	336.01
1035.767	336.01
1036.121	336.01
