Data from Al_FLMS009871__1076__16-27-04-311.txt Node

Date: Fri Mar 08 16:27:04 CST 2024
User: pe5414po
Spectrometer: FLMS00987
Trigger mode: 0
Integration Time (sec): 1.000000E-1
Scans to average: 1
Electric dark correction enabled: true
Nonlinearity correction enabled: false
Boxcar width: 0
XAxis mode: Wavelengths
Number of Pixels in Spectrum: 2048
>>>>>Begin Spectral Data<<<<<
188.938	-61.88
189.409	-61.88
189.879	-61.88
190.349	-120.39
190.819	-73.58
191.29	-64.22
191.76	-148.48
192.23	-120.39
192.7	-139.12
193.17	-96.99
193.64	-12.73
194.109	-3.36
194.579	-45.49
195.049	24.72
195.519	13.02
195.988	83.24
196.458	83.24
196.927	99.62
197.397	106.64
197.866	66.85
198.336	153.45
198.805	153.45
199.274	158.13
199.744	146.43
200.213	165.15
200.682	127.71
201.151	127.71
201.62	233.03
202.089	251.75
202.558	261.12
203.027	251.75
203.495	265.8
203.964	303.25
204.433	237.71
204.902	312.61
205.37	242.39
205.839	357.08
206.307	300.91
206.776	258.78
207.244	272.82
207.712	284.52
208.181	282.18
208.649	300.91
209.117	270.48
209.585	254.09
210.053	300.91
210.521	319.63
210.989	258.78
211.457	242.39
211.925	240.05
212.393	296.22
212.861	305.59
213.328	279.84
213.796	247.07
214.264	265.8
214.731	256.43
215.199	242.39
215.666	265.8
216.133	277.5
216.601	258.78
217.068	249.41
217.535	279.84
218.003	286.86
218.47	265.8
218.937	298.56
219.404	321.97
219.871	242.39
220.338	233.03
220.805	263.46
221.271	284.52
221.738	244.73
222.205	303.25
222.671	270.48
223.138	268.14
223.605	221.33
224.071	216.65
224.538	226.01
225.004	228.35
225.47	265.8
225.937	261.12
226.403	254.09
226.869	249.41
227.335	263.46
227.801	249.41
228.267	251.75
228.733	188.56
229.199	261.12
229.665	282.18
230.131	293.88
230.597	279.84
231.062	286.86
231.528	312.61
231.994	338.35
232.459	268.14
232.925	303.25
233.39	293.88
233.856	338.35
234.321	216.65
234.786	237.71
235.252	310.27
235.717	249.41
236.182	282.18
236.647	352.4
237.112	263.46
237.577	226.01
238.042	293.88
238.507	240.05
238.972	233.03
239.436	249.41
239.901	235.37
240.366	240.05
240.83	242.39
241.295	256.43
241.76	251.75
242.224	254.09
242.688	261.12
243.153	261.12
243.617	249.41
244.081	303.25
244.545	286.86
245.01	298.56
245.474	279.84
245.938	275.16
246.402	333.67
246.866	321.97
247.33	284.52
247.793	251.75
248.257	244.73
248.721	265.8
249.185	338.35
249.648	235.37
250.112	284.52
250.575	296.22
251.039	268.14
251.502	258.78
251.965	296.22
252.429	254.09
252.892	293.88
253.355	279.84
253.818	321.97
254.281	265.8
254.744	249.41
255.207	240.05
255.67	237.71
256.133	310.27
256.596	249.41
257.059	275.16
257.522	233.03
257.984	268.14
258.447	268.14
258.909	242.39
259.372	291.54
259.834	298.56
260.297	261.12
260.759	218.99
261.221	237.71
261.684	300.91
262.146	261.12
262.608	293.88
263.07	291.54
263.532	240.05
263.994	249.41
264.456	307.93
264.918	296.22
265.38	272.82
265.842	261.12
266.303	265.8
266.765	270.48
267.227	279.84
267.688	244.73
268.15	270.48
268.611	226.01
269.072	307.93
269.534	256.43
269.995	268.14
270.456	261.12
270.918	286.86
271.379	312.61
271.84	291.54
272.301	247.07
272.762	326.65
273.223	261.12
273.684	314.95
274.144	310.27
274.605	319.63
275.066	270.48
275.527	209.62
275.987	214.31
276.448	263.46
276.908	244.73
277.369	345.38
277.829	296.22
278.289	270.48
278.75	282.18
279.21	216.65
279.67	284.52
280.13	275.16
280.59	307.93
281.05	338.35
281.51	235.37
281.97	282.18
282.43	300.91
282.89	312.61
283.35	291.54
283.809	347.72
284.269	254.09
284.729	310.27
285.188	258.78
285.648	314.95
286.107	310.27
286.567	272.82
287.026	314.95
287.485	279.84
287.944	256.43
288.404	300.91
288.863	207.28
289.322	284.52
289.781	200.26
290.24	268.14
290.699	347.72
291.158	343.03
291.616	277.5
292.075	328.99
292.534	336.01
292.992	305.59
293.451	336.01
293.91	279.84
294.368	296.22
294.827	354.74
295.285	312.61
295.743	256.43
296.202	242.39
296.66	275.16
297.118	261.12
297.576	310.27
298.034	305.59
298.492	331.33
298.95	310.27
299.408	307.93
299.866	296.22
300.324	303.25
300.781	296.22
301.239	291.54
301.697	382.82
302.154	326.65
302.612	258.78
303.069	298.56
303.527	216.65
303.984	298.56
304.441	251.75
304.899	289.2
305.356	284.52
305.813	347.72
306.27	279.84
306.727	326.65
307.184	312.61
307.641	328.99
308.098	291.54
308.555	209.62
309.012	289.2
309.468	296.22
309.925	300.91
310.382	296.22
310.838	324.31
311.295	321.97
311.751	303.25
312.208	249.41
312.664	247.07
313.12	223.67
313.577	291.54
314.033	314.95
314.489	317.29
314.945	226.01
315.401	275.16
315.857	319.63
316.313	289.2
316.769	293.88
317.225	249.41
317.681	319.63
318.136	310.27
318.592	270.48
319.048	319.63
319.503	312.61
319.959	352.4
320.414	240.05
320.869	279.84
321.325	258.78
321.78	263.46
322.235	261.12
322.691	270.48
323.146	303.25
323.601	303.25
324.056	347.72
324.511	279.84
324.966	251.75
325.421	328.99
325.875	328.99
326.33	310.27
326.785	345.38
327.24	303.25
327.694	310.27
328.149	277.5
328.603	286.86
329.058	326.65
329.512	277.5
329.966	399.21
330.421	321.97
330.875	237.71
331.329	307.93
331.783	218.99
332.237	364.1
332.691	258.78
333.145	286.86
333.599	284.52
334.053	300.91
334.507	321.97
334.96	237.71
335.414	270.48
335.868	319.63
336.321	300.91
336.775	235.37
337.228	305.59
337.682	307.93
338.135	314.95
338.588	328.99
339.042	272.82
339.495	279.84
339.948	279.84
340.401	256.43
340.854	291.54
341.307	343.03
341.76	261.12
342.213	303.25
342.666	314.95
343.119	291.54
343.571	312.61
344.024	331.33
344.477	319.63
344.929	326.65
345.382	328.99
345.834	324.31
346.287	314.95
346.739	310.27
347.191	303.25
347.644	338.35
348.096	256.43
348.548	284.52
349	338.35
349.452	343.03
349.904	272.82
350.356	361.76
350.808	310.27
351.26	268.14
351.711	331.33
352.163	305.59
352.615	289.2
353.066	366.44
353.518	289.2
353.969	254.09
354.421	354.74
354.872	321.97
355.324	277.5
355.775	275.16
356.226	230.69
356.677	382.82
357.128	300.91
357.579	340.69
358.03	305.59
358.481	279.84
358.932	307.93
359.383	254.09
359.834	249.41
360.285	350.06
360.735	256.43
361.186	293.88
361.637	254.09
362.087	293.88
362.538	277.5
362.988	371.12
363.438	202.6
363.889	282.18
364.339	328.99
364.789	265.8
365.239	228.35
365.689	340.69
366.139	300.91
366.589	324.31
367.039	343.03
367.489	291.54
367.939	324.31
368.389	263.46
368.839	303.25
369.288	237.71
369.738	286.86
370.187	247.07
370.637	305.59
371.086	319.63
371.536	361.76
371.985	307.93
372.434	282.18
372.884	331.33
373.333	291.54
373.782	312.61
374.231	331.33
374.68	282.18
375.129	296.22
375.578	324.31
376.027	314.95
376.475	328.99
376.924	347.72
377.373	317.29
377.822	289.2
378.27	218.99
378.719	240.05
379.167	282.18
379.616	312.61
380.064	298.56
380.512	263.46
380.961	275.16
381.409	272.82
381.857	343.03
382.305	289.2
382.753	347.72
383.201	328.99
383.649	314.95
384.097	261.12
384.545	279.84
384.992	338.35
385.44	357.08
385.888	265.8
386.335	237.71
386.783	321.97
387.231	305.59
387.678	310.27
388.125	343.03
388.573	380.48
389.02	357.08
389.467	298.56
389.914	240.05
390.362	307.93
390.809	279.84
391.256	282.18
391.703	284.52
392.15	247.07
392.596	298.56
393.043	331.33
393.49	314.95
393.937	310.27
394.383	310.27
394.83	312.61
395.276	319.63
395.723	293.88
396.169	314.95
396.616	305.59
397.062	366.44
397.508	314.95
397.954	235.37
398.401	364.1
398.847	317.29
399.293	305.59
399.739	195.58
400.185	282.18
400.631	298.56
401.076	284.52
401.522	340.69
401.968	312.61
402.414	319.63
402.859	270.48
403.305	347.72
403.75	310.27
404.196	343.03
404.641	244.73
405.086	307.93
405.532	324.31
405.977	300.91
406.422	256.43
406.867	333.67
407.312	317.29
407.757	284.52
408.202	366.44
408.647	286.86
409.092	303.25
409.537	279.84
409.982	291.54
410.426	286.86
410.871	340.69
411.316	277.5
411.76	256.43
412.205	314.95
412.649	303.25
413.093	343.03
413.538	289.2
413.982	240.05
414.426	317.29
414.87	300.91
415.314	326.65
415.758	354.74
416.202	284.52
416.646	326.65
417.09	310.27
417.534	345.38
417.978	284.52
418.421	268.14
418.865	364.1
419.309	254.09
419.752	350.06
420.196	291.54
420.639	331.33
421.083	312.61
421.526	310.27
421.969	310.27
422.412	366.44
422.856	310.27
423.299	305.59
423.742	300.91
424.185	314.95
424.628	347.72
425.071	258.78
425.513	270.48
425.956	286.86
426.399	373.46
426.842	366.44
427.284	237.71
427.727	312.61
428.169	303.25
428.612	298.56
429.054	286.86
429.497	254.09
429.939	357.08
430.381	352.4
430.823	261.12
431.265	382.82
431.707	286.86
432.149	296.22
432.591	251.75
433.033	265.8
433.475	345.38
433.917	275.16
434.359	331.33
434.8	340.69
435.242	268.14
435.684	284.52
436.125	277.5
436.567	319.63
437.008	282.18
437.449	293.88
437.891	296.22
438.332	284.52
438.773	254.09
439.214	277.5
439.656	300.91
440.097	317.29
440.538	338.35
440.978	319.63
441.419	307.93
441.86	277.5
442.301	251.75
442.742	300.91
443.182	305.59
443.623	350.06
444.063	307.93
444.504	293.88
444.944	235.37
445.385	298.56
445.825	328.99
446.265	331.33
446.706	324.31
447.146	319.63
447.586	312.61
448.026	286.86
448.466	296.22
448.906	336.01
449.346	277.5
449.786	319.63
450.225	321.97
450.665	270.48
451.105	261.12
451.544	275.16
451.984	347.72
452.424	310.27
452.863	307.93
453.302	331.33
453.742	328.99
454.181	375.8
454.62	305.59
455.059	279.84
455.499	296.22
455.938	277.5
456.377	324.31
456.816	261.12
457.254	307.93
457.693	326.65
458.132	368.78
458.571	303.25
459.01	317.29
459.448	321.97
459.887	331.33
460.325	305.59
460.764	282.18
461.202	307.93
461.641	357.08
462.079	347.72
462.517	256.43
462.955	343.03
463.393	307.93
463.832	328.99
464.27	328.99
464.708	291.54
465.145	293.88
465.583	261.12
466.021	380.48
466.459	305.59
466.897	268.14
467.334	286.86
467.772	321.97
468.209	359.42
468.647	298.56
469.084	289.2
469.522	317.29
469.959	343.03
470.396	286.86
470.833	312.61
471.271	275.16
471.708	326.65
472.145	284.52
472.582	331.33
473.019	310.27
473.456	361.76
473.892	293.88
474.329	244.73
474.766	286.86
475.202	300.91
475.639	247.07
476.076	319.63
476.512	314.95
476.949	317.29
477.385	263.46
477.821	207.28
478.258	286.86
478.694	312.61
479.13	293.88
479.566	296.22
480.002	305.59
480.438	378.14
480.874	300.91
481.31	286.86
481.746	307.93
482.181	298.56
482.617	328.99
483.053	300.91
483.488	261.12
483.924	223.67
484.36	373.46
484.795	268.14
485.23	333.67
485.666	275.16
486.101	247.07
486.536	284.52
486.971	345.38
487.407	331.33
487.842	296.22
488.277	314.95
488.712	324.31
489.146	354.74
489.581	319.63
490.016	307.93
490.451	293.88
490.885	382.82
491.32	284.52
491.755	357.08
492.189	331.33
492.624	366.44
493.058	401.55
493.492	244.73
493.927	328.99
494.361	333.67
494.795	258.78
495.229	275.16
495.663	394.53
496.097	300.91
496.531	228.35
496.965	326.65
497.399	300.91
497.833	371.12
498.266	319.63
498.7	314.95
499.134	312.61
499.567	314.95
500.001	293.88
500.434	347.72
500.868	321.97
501.301	314.95
501.734	303.25
502.168	343.03
502.601	282.18
503.034	305.59
503.467	270.48
503.9	333.67
504.333	312.61
504.766	352.4
505.199	321.97
505.632	340.69
506.064	317.29
506.497	254.09
506.93	251.75
507.362	357.08
507.795	328.99
508.227	312.61
508.66	272.82
509.092	284.52
509.524	338.35
509.956	296.22
510.389	254.09
510.821	235.37
511.253	324.31
511.685	319.63
512.117	303.25
512.549	235.37
512.981	268.14
513.412	312.61
513.844	338.35
514.276	258.78
514.707	282.18
515.139	270.48
515.571	314.95
516.002	333.67
516.433	340.69
516.865	319.63
517.296	345.38
517.727	321.97
518.159	298.56
518.59	296.22
519.021	296.22
519.452	237.71
519.883	343.03
520.314	317.29
520.744	336.01
521.175	289.2
521.606	286.86
522.037	275.16
522.467	359.42
522.898	354.74
523.328	317.29
523.759	270.48
524.189	268.14
524.62	310.27
525.05	270.48
525.48	321.97
525.91	312.61
526.341	331.33
526.771	305.59
527.201	345.38
527.631	338.35
528.061	296.22
528.49	328.99
528.92	293.88
529.35	317.29
529.78	305.59
530.209	312.61
530.639	324.31
531.068	268.14
531.498	312.61
531.927	312.61
532.357	343.03
532.786	321.97
533.215	312.61
533.644	305.59
534.074	291.54
534.503	317.29
534.932	328.99
535.361	361.76
535.79	350.06
536.218	282.18
536.647	303.25
537.076	314.95
537.505	307.93
537.933	291.54
538.362	296.22
538.79	324.31
539.219	303.25
539.647	336.01
540.076	324.31
540.504	317.29
540.932	261.12
541.36	254.09
541.788	289.2
542.217	279.84
542.645	307.93
543.073	317.29
543.5	361.76
543.928	275.16
544.356	256.43
544.784	340.69
545.211	218.99
545.639	242.39
546.067	300.91
546.494	291.54
546.922	347.72
547.349	286.86
547.776	298.56
548.204	352.4
548.631	286.86
549.058	286.86
549.485	289.2
549.912	321.97
550.339	298.56
550.766	340.69
551.193	336.01
551.62	317.29
552.047	338.35
552.474	317.29
552.9	305.59
553.327	378.14
553.754	265.8
554.18	263.46
554.607	336.01
555.033	331.33
555.459	343.03
555.886	305.59
556.312	328.99
556.738	200.26
557.164	319.63
557.59	321.97
558.016	279.84
558.442	324.31
558.868	324.31
559.294	347.72
559.72	305.59
560.145	303.25
560.571	284.52
560.997	261.12
561.422	314.95
561.848	251.75
562.273	286.86
562.699	314.95
563.124	331.33
563.549	303.25
563.974	331.33
564.4	307.93
564.825	312.61
565.25	240.05
565.675	296.22
566.1	300.91
566.525	359.42
566.95	249.41
567.374	228.35
567.799	293.88
568.224	310.27
568.648	244.73
569.073	317.29
569.497	300.91
569.922	277.5
570.346	249.41
570.771	282.18
571.195	256.43
571.619	333.67
572.043	307.93
572.467	275.16
572.891	357.08
573.315	338.35
573.739	303.25
574.163	345.38
574.587	282.18
575.011	324.31
575.435	258.78
575.858	366.44
576.282	317.29
576.705	324.31
577.129	317.29
577.552	331.33
577.976	268.14
578.399	312.61
578.822	289.2
579.245	284.52
579.669	333.67
580.092	336.01
580.515	338.35
580.938	345.38
581.361	338.35
581.784	307.93
582.206	293.88
582.629	310.27
583.052	242.39
583.474	300.91
583.897	242.39
584.32	328.99
584.742	305.59
585.165	326.65
585.587	240.05
586.009	270.48
586.431	291.54
586.854	312.61
587.276	354.74
587.698	340.69
588.12	265.8
588.542	338.35
588.964	319.63
589.386	298.56
589.807	371.12
590.229	277.5
590.651	319.63
591.073	338.35
591.494	293.88
591.916	242.39
592.337	326.65
592.759	305.59
593.18	300.91
593.601	310.27
594.022	312.61
594.444	270.48
594.865	275.16
595.286	277.5
595.707	216.65
596.128	244.73
596.549	289.2
596.97	286.86
597.39	345.38
597.811	338.35
598.232	314.95
598.652	331.33
599.073	312.61
599.494	275.16
599.914	263.46
600.334	321.97
600.755	347.72
601.175	300.91
601.595	319.63
602.015	282.18
602.436	244.73
602.856	403.89
603.276	291.54
603.696	263.46
604.115	314.95
604.535	347.72
604.955	338.35
605.375	296.22
605.794	305.59
606.214	293.88
606.634	319.63
607.053	319.63
607.473	261.12
607.892	303.25
608.311	343.03
608.731	319.63
609.15	324.31
609.569	251.75
609.988	296.22
610.407	270.48
610.826	352.4
611.245	298.56
611.664	336.01
612.083	270.48
612.501	289.2
612.92	289.2
613.339	331.33
613.757	289.2
614.176	317.29
614.594	298.56
615.013	350.06
615.431	286.86
615.85	321.97
616.268	303.25
616.686	331.33
617.104	230.69
617.522	331.33
617.94	291.54
618.358	319.63
618.776	286.86
619.194	359.42
619.612	221.33
620.03	380.48
620.447	286.86
620.865	307.93
621.282	361.76
621.7	289.2
622.117	326.65
622.535	321.97
622.952	289.2
623.369	298.56
623.787	331.33
624.204	293.88
624.621	277.5
625.038	293.88
625.455	401.55
625.872	319.63
626.289	357.08
626.706	307.93
627.123	324.31
627.539	256.43
627.956	310.27
628.373	268.14
628.789	350.06
629.206	326.65
629.622	282.18
630.038	324.31
630.455	279.84
630.871	268.14
631.287	204.94
631.703	328.99
632.12	354.74
632.536	279.84
632.952	270.48
633.368	321.97
633.783	314.95
634.199	354.74
634.615	303.25
635.031	284.52
635.446	324.31
635.862	279.84
636.277	303.25
636.693	305.59
637.108	310.27
637.524	336.01
637.939	289.2
638.354	328.99
638.77	350.06
639.185	263.46
639.6	242.39
640.015	293.88
640.43	296.22
640.845	282.18
641.259	333.67
641.674	326.65
642.089	310.27
642.504	275.16
642.918	268.14
643.333	270.48
643.747	317.29
644.162	338.35
644.576	314.95
644.991	312.61
645.405	289.2
645.819	251.75
646.233	328.99
646.647	350.06
647.061	286.86
647.475	298.56
647.889	321.97
648.303	254.09
648.717	254.09
649.131	317.29
649.545	256.43
649.958	328.99
650.372	338.35
650.785	268.14
651.199	345.38
651.612	338.35
652.026	286.86
652.439	319.63
652.852	284.52
653.266	387.5
653.679	305.59
654.092	312.61
654.505	319.63
654.918	296.22
655.331	277.5
655.744	312.61
656.156	296.22
656.569	319.63
656.982	317.29
657.394	321.97
657.807	328.99
658.22	303.25
658.632	249.41
659.044	336.01
659.457	300.91
659.869	282.18
660.281	338.35
660.693	270.48
661.106	298.56
661.518	394.53
661.93	305.59
662.342	375.8
662.754	284.52
663.165	345.38
663.577	324.31
663.989	307.93
664.401	338.35
664.812	314.95
665.224	354.74
665.635	331.33
666.047	387.5
666.458	328.99
666.869	270.48
667.281	293.88
667.692	282.18
668.103	291.54
668.514	305.59
668.925	340.69
669.336	263.46
669.747	244.73
670.158	272.82
670.569	279.84
670.979	268.14
671.39	282.18
671.801	258.78
672.211	296.22
672.622	331.33
673.032	303.25
673.443	328.99
673.853	326.65
674.263	345.38
674.674	333.67
675.084	310.27
675.494	328.99
675.904	265.8
676.314	317.29
676.724	307.93
677.134	328.99
677.544	319.63
677.953	324.31
678.363	345.38
678.773	331.33
679.182	361.76
679.592	300.91
680.001	312.61
680.411	307.93
680.82	305.59
681.23	242.39
681.639	314.95
682.048	291.54
682.457	321.97
682.866	303.25
683.275	284.52
683.684	396.87
684.093	338.35
684.502	300.91
684.911	338.35
685.32	328.99
685.728	272.82
686.137	324.31
686.546	282.18
686.954	277.5
687.363	338.35
687.771	343.03
688.179	298.56
688.588	328.99
688.996	336.01
689.404	314.95
689.812	312.61
690.22	256.43
690.628	314.95
691.036	275.16
691.444	247.07
691.852	338.35
692.26	352.4
692.667	382.82
693.075	296.22
693.483	249.41
693.89	324.31
694.298	345.38
694.705	354.74
695.112	340.69
695.52	336.01
695.927	265.8
696.334	303.25
696.741	321.97
697.148	286.86
697.555	279.84
697.962	277.5
698.369	324.31
698.776	343.03
699.183	284.52
699.59	261.12
699.996	307.93
700.403	298.56
700.81	321.97
701.216	300.91
701.623	303.25
702.029	237.71
702.435	233.03
702.842	277.5
703.248	333.67
703.654	230.69
704.06	319.63
704.466	289.2
704.872	312.61
705.278	345.38
705.684	340.69
706.09	338.35
706.496	284.52
706.901	319.63
707.307	261.12
707.712	286.86
708.118	254.09
708.523	324.31
708.929	352.4
709.334	350.06
709.74	265.8
710.145	300.91
710.55	303.25
710.955	298.56
711.36	254.09
711.765	338.35
712.17	310.27
712.575	343.03
712.98	827.53
713.385	343.03
713.789	328.99
714.194	319.63
714.599	303.25
715.003	305.59
715.408	312.61
715.812	258.78
716.217	319.63
716.621	338.35
717.025	317.29
717.429	333.67
717.833	298.56
718.238	305.59
718.642	272.82
719.046	312.61
719.449	317.29
719.853	312.61
720.257	307.93
720.661	305.59
721.065	300.91
721.468	321.97
721.872	343.03
722.275	340.69
722.679	340.69
723.082	324.31
723.485	347.72
723.889	312.61
724.292	314.95
724.695	366.44
725.098	387.5
725.501	296.22
725.904	314.95
726.307	359.42
726.71	338.35
727.113	314.95
727.516	331.33
727.918	303.25
728.321	314.95
728.724	333.67
729.126	265.8
729.529	305.59
729.931	296.22
730.333	284.52
730.736	279.84
731.138	286.86
731.54	307.93
731.942	345.38
732.344	249.41
732.746	289.2
733.148	270.48
733.55	270.48
733.952	307.93
734.354	270.48
734.756	293.88
735.157	289.2
735.559	218.99
735.96	336.01
736.362	279.84
736.763	371.12
737.165	279.84
737.566	272.82
737.967	345.38
738.368	307.93
738.77	242.39
739.171	354.74
739.572	343.03
739.973	279.84
740.374	284.52
740.774	317.29
741.175	298.56
741.576	289.2
741.977	336.01
742.377	221.33
742.778	261.12
743.178	345.38
743.579	340.69
743.979	279.84
744.379	303.25
744.78	321.97
745.18	336.01
745.58	357.08
745.98	317.29
746.38	272.82
746.78	314.95
747.18	289.2
747.58	357.08
747.98	261.12
748.38	277.5
748.779	317.29
749.179	331.33
749.578	296.22
749.978	317.29
750.377	303.25
750.777	270.48
751.176	286.86
751.575	326.65
751.975	298.56
752.374	310.27
752.773	270.48
753.172	237.71
753.571	354.74
753.97	279.84
754.369	240.05
754.768	312.61
755.166	282.18
755.565	275.16
755.964	336.01
756.362	307.93
756.761	268.14
757.159	286.86
757.558	357.08
757.956	284.52
758.354	251.75
758.753	326.65
759.151	298.56
759.549	305.59
759.947	230.69
760.345	284.52
760.743	326.65
761.141	284.52
761.539	317.29
761.936	275.16
762.334	291.54
762.732	307.93
763.129	319.63
763.527	303.25
763.924	319.63
764.322	319.63
764.719	350.06
765.117	328.99
765.514	254.09
765.911	352.4
766.308	291.54
766.705	282.18
767.102	296.22
767.499	272.82
767.896	303.25
768.293	343.03
768.69	314.95
769.086	350.06
769.483	268.14
769.88	319.63
770.276	256.43
770.673	275.16
771.069	305.59
771.466	364.1
771.862	286.86
772.258	286.86
772.654	357.08
773.05	307.93
773.447	289.2
773.843	298.56
774.239	279.84
774.634	328.99
775.03	345.38
775.426	317.29
775.822	289.2
776.218	373.46
776.613	333.67
777.009	410.91
777.404	312.61
777.8	289.2
778.195	242.39
778.59	275.16
778.986	270.48
779.381	263.46
779.776	303.25
780.171	303.25
780.566	347.72
780.961	279.84
781.356	300.91
781.751	286.86
782.146	324.31
782.54	291.54
782.935	279.84
783.33	347.72
783.724	270.48
784.119	326.65
784.513	272.82
784.908	307.93
785.302	249.41
785.696	364.1
786.09	293.88
786.485	277.5
786.879	317.29
787.273	345.38
787.667	289.2
788.061	310.27
788.454	364.1
788.848	256.43
789.242	382.82
789.636	265.8
790.029	305.59
790.423	275.16
790.816	286.86
791.21	317.29
791.603	314.95
791.997	303.25
792.39	300.91
792.783	336.01
793.176	298.56
793.569	242.39
793.962	343.03
794.355	319.63
794.748	284.52
795.141	317.29
795.534	298.56
795.927	237.71
796.319	314.95
796.712	328.99
797.105	364.1
797.497	275.16
797.89	328.99
798.282	340.69
798.674	254.09
799.067	340.69
799.459	244.73
799.851	296.22
800.243	300.91
800.635	347.72
801.027	300.91
801.419	258.78
801.811	312.61
802.203	272.82
802.594	389.85
802.986	310.27
803.378	359.42
803.769	324.31
804.161	272.82
804.552	336.01
804.944	286.86
805.335	300.91
805.726	340.69
806.118	244.73
806.509	345.38
806.9	256.43
807.291	286.86
807.682	286.86
808.073	305.59
808.464	265.8
808.855	314.95
809.245	326.65
809.636	265.8
810.027	275.16
810.417	314.95
810.808	373.46
811.198	298.56
811.589	324.31
811.979	277.5
812.369	298.56
812.759	326.65
813.15	237.71
813.54	345.38
813.93	233.03
814.32	312.61
814.71	265.8
815.1	254.09
815.489	336.01
815.879	303.25
816.269	258.78
816.658	272.82
817.048	235.37
817.438	298.56
817.827	305.59
818.216	307.93
818.606	272.82
818.995	333.67
819.384	303.25
819.773	312.61
820.163	270.48
820.552	240.05
820.941	279.84
821.33	324.31
821.718	272.82
822.107	261.12
822.496	261.12
822.885	251.75
823.273	275.16
823.662	328.99
824.05	284.52
824.439	317.29
824.827	293.88
825.216	310.27
825.604	286.86
825.992	324.31
826.38	312.61
826.768	244.73
827.156	300.91
827.544	242.39
827.932	293.88
828.32	389.85
828.708	258.78
829.096	328.99
829.483	321.97
829.871	314.95
830.259	247.07
830.646	242.39
831.034	268.14
831.421	310.27
831.808	237.71
832.196	254.09
832.583	293.88
832.97	378.14
833.357	333.67
833.744	258.78
834.131	305.59
834.518	310.27
834.905	296.22
835.292	293.88
835.678	303.25
836.065	293.88
836.452	240.05
836.838	265.8
837.225	277.5
837.611	343.03
837.998	244.73
838.384	354.74
838.77	268.14
839.157	303.25
839.543	233.03
839.929	324.31
840.315	265.8
840.701	312.61
841.087	277.5
841.473	345.38
841.858	256.43
842.244	216.65
842.63	375.8
843.015	265.8
843.401	626.24
843.787	347.72
844.172	314.95
844.557	347.72
844.943	328.99
845.328	345.38
845.713	291.54
846.098	298.56
846.483	333.67
846.868	343.03
847.253	364.1
847.638	333.67
848.023	298.56
848.408	298.56
848.793	326.65
849.177	331.33
849.562	364.1
849.947	284.52
850.331	307.93
850.715	228.35
851.1	338.35
851.484	326.65
851.868	319.63
852.253	242.39
852.637	328.99
853.021	328.99
853.405	261.12
853.789	286.86
854.173	289.2
854.557	357.08
854.94	268.14
855.324	350.06
855.708	298.56
856.091	289.2
856.475	249.41
856.858	270.48
857.242	296.22
857.625	303.25
858.009	261.12
858.392	303.25
858.775	312.61
859.158	321.97
859.541	343.03
859.924	307.93
860.307	277.5
860.69	328.99
861.073	300.91
861.456	307.93
861.838	307.93
862.221	312.61
862.604	319.63
862.986	300.91
863.369	317.29
863.751	321.97
864.133	310.27
864.516	286.86
864.898	272.82
865.28	345.38
865.662	277.5
866.044	300.91
866.426	307.93
866.808	347.72
867.19	307.93
867.572	340.69
867.954	319.63
868.336	321.97
868.717	291.54
869.099	312.61
869.48	328.99
869.862	268.14
870.243	300.91
870.625	296.22
871.006	282.18
871.387	300.91
871.768	340.69
872.149	333.67
872.53	298.56
872.911	343.03
873.292	305.59
873.673	310.27
874.054	298.56
874.435	307.93
874.815	261.12
875.196	321.97
875.577	338.35
875.957	331.33
876.338	317.29
876.718	321.97
877.098	249.41
877.479	324.31
877.859	314.95
878.239	350.06
878.619	343.03
878.999	275.16
879.379	321.97
879.759	251.75
880.139	300.91
880.519	340.69
880.898	310.27
881.278	375.8
881.658	307.93
882.037	263.46
882.417	333.67
882.796	268.14
883.176	319.63
883.555	303.25
883.934	272.82
884.313	293.88
884.693	275.16
885.072	277.5
885.451	272.82
885.83	296.22
886.209	310.27
886.587	272.82
886.966	307.93
887.345	328.99
887.724	307.93
888.102	343.03
888.481	352.4
888.859	345.38
889.238	263.46
889.616	279.84
889.994	321.97
890.373	261.12
890.751	331.33
891.129	333.67
891.507	298.56
891.885	254.09
892.263	265.8
892.641	230.69
893.019	345.38
893.396	321.97
893.774	296.22
894.152	272.82
894.529	321.97
894.907	233.03
895.284	277.5
895.662	270.48
896.039	328.99
896.416	277.5
896.794	247.07
897.171	270.48
897.548	312.61
897.925	314.95
898.302	293.88
898.679	319.63
899.056	312.61
899.433	291.54
899.809	317.29
900.186	324.31
900.563	272.82
900.939	333.67
901.316	272.82
901.692	345.38
902.069	279.84
902.445	310.27
902.821	317.29
903.197	305.59
903.574	340.69
903.95	359.42
904.326	338.35
904.702	279.84
905.078	284.52
905.454	328.99
905.829	291.54
906.205	310.27
906.581	284.52
906.956	277.5
907.332	282.18
907.707	343.03
908.083	272.82
908.458	263.46
908.833	289.2
909.209	343.03
909.584	303.25
909.959	319.63
910.334	324.31
910.709	298.56
911.084	336.01
911.459	240.05
911.834	258.78
912.209	303.25
912.583	321.97
912.958	284.52
913.333	289.2
913.707	289.2
914.082	272.82
914.456	230.69
914.83	352.4
915.205	312.61
915.579	270.48
915.953	310.27
916.327	275.16
916.701	270.48
917.075	277.5
917.449	331.33
917.823	286.86
918.197	282.18
918.571	326.65
918.944	303.25
919.318	263.46
919.692	298.56
920.065	333.67
920.438	303.25
920.812	291.54
921.185	272.82
921.558	256.43
921.932	368.78
922.305	258.78
922.678	286.86
923.051	352.4
923.424	352.4
923.797	258.78
924.17	321.97
924.542	326.65
924.915	326.65
925.288	284.52
925.661	279.84
926.033	296.22
926.406	303.25
926.778	275.16
927.15	272.82
927.523	251.75
927.895	279.84
928.267	310.27
928.639	324.31
929.011	319.63
929.383	331.33
929.755	242.39
930.127	286.86
930.499	237.71
930.871	366.44
931.242	254.09
931.614	289.2
931.986	289.2
932.357	291.54
932.729	296.22
933.1	211.96
933.471	279.84
933.843	261.12
934.214	230.69
934.585	317.29
934.956	312.61
935.327	275.16
935.698	331.33
936.069	293.88
936.44	279.84
936.811	296.22
937.182	282.18
937.552	333.67
937.923	324.31
938.293	312.61
938.664	270.48
939.034	263.46
939.405	293.88
939.775	340.69
940.145	300.91
940.516	279.84
940.886	277.5
941.256	296.22
941.626	272.82
941.996	314.95
942.366	345.38
942.735	289.2
943.105	303.25
943.475	300.91
943.845	331.33
944.214	270.48
944.584	265.8
944.953	310.27
945.323	268.14
945.692	305.59
946.061	326.65
946.43	277.5
946.8	343.03
947.169	303.25
947.538	242.39
947.907	247.07
948.276	345.38
948.645	293.88
949.013	282.18
949.382	275.16
949.751	254.09
950.119	298.56
950.488	286.86
950.857	254.09
951.225	244.73
951.593	272.82
951.962	256.43
952.33	284.52
952.698	324.31
953.066	268.14
953.434	296.22
953.802	291.54
954.17	291.54
954.538	289.2
954.906	326.65
955.274	340.69
955.642	333.67
956.009	263.46
956.377	275.16
956.744	284.52
957.112	305.59
957.479	303.25
957.847	352.4
958.214	263.46
958.581	263.46
958.948	251.75
959.315	338.35
959.683	321.97
960.05	258.78
960.416	296.22
960.783	256.43
961.15	282.18
961.517	226.01
961.884	312.61
962.25	321.97
962.617	249.41
962.983	366.44
963.35	277.5
963.716	324.31
964.082	328.99
964.449	279.84
964.815	328.99
965.181	331.33
965.547	354.74
965.913	300.91
966.279	312.61
966.645	296.22
967.011	333.67
967.377	298.56
967.742	286.86
968.108	296.22
968.474	256.43
968.839	233.03
969.205	284.52
969.57	293.88
969.935	289.2
970.301	286.86
970.666	293.88
971.031	258.78
971.396	366.44
971.761	298.56
972.126	233.03
972.491	230.69
972.856	312.61
973.221	296.22
973.586	261.12
973.95	298.56
974.315	298.56
974.679	258.78
975.044	303.25
975.408	275.16
975.773	307.93
976.137	279.84
976.501	293.88
976.866	211.96
977.23	300.91
977.594	336.01
977.958	289.2
978.322	347.72
978.686	279.84
979.049	305.59
979.413	321.97
979.777	284.52
980.141	240.05
980.504	303.25
980.868	340.69
981.231	258.78
981.595	296.22
981.958	303.25
982.321	305.59
982.684	314.95
983.048	293.88
983.411	284.52
983.774	277.5
984.137	350.06
984.5	289.2
984.862	361.76
985.225	244.73
985.588	368.78
985.951	277.5
986.313	317.29
986.676	345.38
987.038	286.86
987.401	296.22
987.763	256.43
988.125	326.65
988.488	326.65
988.85	317.29
989.212	336.01
989.574	282.18
989.936	261.12
990.298	261.12
990.66	345.38
991.022	270.48
991.383	291.54
991.745	345.38
992.107	270.48
992.468	265.8
992.83	251.75
993.191	314.95
993.553	256.43
993.914	336.01
994.275	291.54
994.637	284.52
994.998	307.93
995.359	230.69
995.72	321.97
996.081	314.95
996.442	389.85
996.803	284.52
997.163	289.2
997.524	282.18
997.885	298.56
998.245	373.46
998.606	347.72
998.966	307.93
999.327	291.54
999.687	317.29
1000.047	317.29
1000.408	286.86
1000.768	336.01
1001.128	324.31
1001.488	233.03
1001.848	298.56
1002.208	284.52
1002.568	279.84
1002.927	298.56
1003.287	275.16
1003.647	336.01
1004.007	361.76
1004.366	345.38
1004.726	298.56
1005.085	296.22
1005.444	275.16
1005.804	247.07
1006.163	354.74
1006.522	204.94
1006.881	270.48
1007.24	300.91
1007.599	300.91
1007.958	354.74
1008.317	209.62
1008.676	317.29
1009.035	286.86
1009.393	314.95
1009.752	233.03
1010.111	272.82
1010.469	317.29
1010.828	261.12
1011.186	242.39
1011.544	336.01
1011.903	286.86
1012.261	340.69
1012.619	298.56
1012.977	242.39
1013.335	340.69
1013.693	284.52
1014.051	296.22
1014.409	321.97
1014.767	331.33
1015.124	272.82
1015.482	282.18
1015.84	354.74
1016.197	286.86
1016.555	282.18
1016.912	268.14
1017.269	282.18
1017.627	289.2
1017.984	247.07
1018.341	324.31
1018.698	261.12
1019.055	216.65
1019.412	289.2
1019.769	352.4
1020.126	303.25
1020.483	298.56
1020.84	314.95
1021.196	279.84
1021.553	256.43
1021.909	305.59
1022.266	289.2
1022.622	251.75
1022.979	237.71
1023.335	343.03
1023.691	350.06
1024.047	284.52
1024.404	261.12
1024.76	296.22
1025.116	256.43
1025.472	319.63
1025.827	319.63
1026.183	321.97
1026.539	279.84
1026.895	286.86
1027.25	277.5
1027.606	305.59
1027.961	268.14
1028.317	307.93
1028.672	298.56
1029.028	293.88
1029.383	293.88
1029.738	233.03
1030.093	364.1
1030.448	293.88
1030.803	235.37
1031.158	249.41
1031.513	378.14
1031.868	326.65
1032.223	314.95
1032.577	300.91
1032.932	233.03
1033.287	310.27
1033.641	340.69
1033.996	307.93
1034.35	282.18
1034.704	331.33
1035.059	300.91
1035.413	305.59
1035.767	305.59
1036.121	305.59
