Data from Al_FLMS009871__1074__16-27-04-111.txt Node

Date: Fri Mar 08 16:27:04 CST 2024
User: pe5414po
Spectrometer: FLMS00987
Trigger mode: 0
Integration Time (sec): 1.000000E-1
Scans to average: 1
Electric dark correction enabled: true
Nonlinearity correction enabled: false
Boxcar width: 0
XAxis mode: Wavelengths
Number of Pixels in Spectrum: 2048
>>>>>Begin Spectral Data<<<<<
188.938	-61.44
189.409	-61.44
189.879	-61.44
190.349	-89.53
190.819	-63.78
191.29	-101.23
191.76	-103.57
192.23	-61.44
192.7	-63.78
193.17	-56.76
193.64	-19.31
194.109	-19.31
194.579	1.76
195.049	-56.76
195.519	60.27
195.988	74.31
196.458	22.82
196.927	64.95
197.397	74.31
197.866	95.38
198.336	88.36
198.805	165.59
199.274	135.17
199.744	210.06
200.213	177.3
200.682	231.13
201.151	240.49
201.62	240.49
202.089	282.62
202.558	280.28
203.027	287.3
203.495	268.58
203.964	254.53
204.433	322.41
204.902	266.24
205.37	315.39
205.839	385.6
206.307	294.32
206.776	291.98
207.244	282.62
207.712	277.94
208.181	317.73
208.649	357.52
209.117	317.73
209.585	289.64
210.053	296.66
210.521	233.47
210.989	228.79
211.457	322.41
211.925	317.73
212.393	254.53
212.861	289.64
213.328	231.13
213.796	282.62
214.264	331.77
214.731	284.96
215.199	322.41
215.666	282.62
216.133	233.47
216.601	315.39
217.068	254.53
217.535	221.77
218.003	256.87
218.47	331.77
218.937	249.85
219.404	233.47
219.871	240.49
220.338	235.81
220.805	277.94
221.271	273.26
221.738	256.87
222.205	231.13
222.671	261.55
223.138	348.15
223.605	270.92
224.071	259.21
224.538	217.08
225.004	228.79
225.47	299
225.937	280.28
226.403	263.9
226.869	219.43
227.335	277.94
227.801	270.92
228.267	256.87
228.733	270.92
229.199	315.39
229.665	310.71
230.131	275.6
230.597	245.17
231.062	242.83
231.528	301.34
231.994	270.92
232.459	259.21
232.925	350.5
233.39	317.73
233.856	233.47
234.321	327.09
234.786	296.66
235.252	291.98
235.717	261.55
236.182	266.24
236.647	299
237.112	235.81
237.577	299
238.042	256.87
238.507	277.94
238.972	252.19
239.436	280.28
239.901	345.81
240.366	254.53
240.83	301.34
241.295	275.6
241.76	233.47
242.224	275.6
242.688	317.73
243.153	280.28
243.617	277.94
244.081	261.55
244.545	273.26
245.01	317.73
245.474	266.24
245.938	231.13
246.402	313.05
246.866	238.15
247.33	256.87
247.793	338.79
248.257	254.53
248.721	310.71
249.185	324.75
249.648	273.26
250.112	270.92
250.575	322.41
251.039	313.05
251.502	348.15
251.965	238.15
252.429	252.19
252.892	320.07
253.355	240.49
253.818	284.96
254.281	287.3
254.744	313.05
255.207	233.47
255.67	273.26
256.133	338.79
256.596	263.9
257.059	296.66
257.522	266.24
257.984	261.55
258.447	261.55
258.909	270.92
259.372	310.71
259.834	277.94
260.297	303.68
260.759	303.68
261.221	261.55
261.684	359.86
262.146	315.39
262.608	320.07
263.07	268.58
263.532	284.96
263.994	329.43
264.456	338.79
264.918	275.6
265.38	310.71
265.842	282.62
266.303	224.11
266.765	313.05
267.227	320.07
267.688	299
268.15	350.5
268.611	270.92
269.072	254.53
269.534	256.87
269.995	289.64
270.456	273.26
270.918	308.37
271.379	299
271.84	287.3
272.301	331.77
272.762	294.32
273.223	256.87
273.684	331.77
274.144	287.3
274.605	245.17
275.066	231.13
275.527	277.94
275.987	371.56
276.448	376.24
276.908	336.45
277.369	306.03
277.829	306.03
278.289	287.3
278.75	247.51
279.21	331.77
279.67	259.21
280.13	306.03
280.59	324.75
281.05	329.43
281.51	296.66
281.97	254.53
282.43	320.07
282.89	320.07
283.35	284.96
283.809	277.94
284.269	322.41
284.729	261.55
285.188	350.5
285.648	287.3
286.107	329.43
286.567	301.34
287.026	308.37
287.485	287.3
287.944	273.26
288.404	270.92
288.863	247.51
289.322	322.41
289.781	287.3
290.24	350.5
290.699	322.41
291.158	357.52
291.616	277.94
292.075	254.53
292.534	315.39
292.992	254.53
293.451	224.11
293.91	301.34
294.368	280.28
294.827	301.34
295.285	266.24
295.743	313.05
296.202	275.6
296.66	392.62
297.118	327.09
297.576	310.71
298.034	277.94
298.492	268.58
298.95	341.13
299.408	317.73
299.866	299
300.324	390.28
300.781	324.75
301.239	320.07
301.697	359.86
302.154	299
302.612	329.43
303.069	301.34
303.527	303.68
303.984	329.43
304.441	284.96
304.899	266.24
305.356	289.64
305.813	245.17
306.27	308.37
306.727	310.71
307.184	301.34
307.641	355.18
308.098	261.55
308.555	242.83
309.012	327.09
309.468	317.73
309.925	317.73
310.382	275.6
310.838	355.18
311.295	313.05
311.751	322.41
312.208	317.73
312.664	362.2
313.12	345.81
313.577	329.43
314.033	334.11
314.489	299
314.945	324.75
315.401	303.68
315.857	299
316.313	320.07
316.769	369.22
317.225	287.3
317.681	362.2
318.136	359.86
318.592	303.68
319.048	324.75
319.503	362.2
319.959	306.03
320.414	282.62
320.869	306.03
321.325	291.98
321.78	315.39
322.235	334.11
322.691	275.6
323.146	273.26
323.601	275.6
324.056	277.94
324.511	306.03
324.966	282.62
325.421	266.24
325.875	277.94
326.33	301.34
326.785	240.49
327.24	270.92
327.694	348.15
328.149	315.39
328.603	331.77
329.058	343.47
329.512	313.05
329.966	322.41
330.421	301.34
330.875	287.3
331.329	301.34
331.783	282.62
332.237	249.85
332.691	280.28
333.145	320.07
333.599	369.22
334.053	350.5
334.507	348.15
334.96	252.19
335.414	387.94
335.868	315.39
336.321	324.75
336.775	275.6
337.228	299
337.682	277.94
338.135	334.11
338.588	348.15
339.042	348.15
339.495	359.86
339.948	334.11
340.401	320.07
340.854	369.22
341.307	345.81
341.76	306.03
342.213	306.03
342.666	313.05
343.119	362.2
343.571	303.68
344.024	357.52
344.477	306.03
344.929	282.62
345.382	352.84
345.834	310.71
346.287	336.45
346.739	306.03
347.191	317.73
347.644	334.11
348.096	303.68
348.548	341.13
349	273.26
349.452	341.13
349.904	338.79
350.356	287.3
350.808	287.3
351.26	280.28
351.711	348.15
352.163	341.13
352.615	301.34
353.066	343.47
353.518	359.86
353.969	299
354.421	324.75
354.872	355.18
355.324	310.71
355.775	394.97
356.226	294.32
356.677	315.39
357.128	350.5
357.579	327.09
358.03	350.5
358.481	301.34
358.932	310.71
359.383	343.47
359.834	327.09
360.285	254.53
360.735	294.32
361.186	313.05
361.637	348.15
362.087	303.68
362.538	303.68
362.988	366.88
363.438	362.2
363.889	303.68
364.339	315.39
364.789	245.17
365.239	303.68
365.689	338.79
366.139	320.07
366.589	320.07
367.039	327.09
367.489	357.52
367.939	284.96
368.389	299
368.839	284.96
369.288	313.05
369.738	303.68
370.187	343.47
370.637	350.5
371.086	291.98
371.536	277.94
371.985	362.2
372.434	268.58
372.884	352.84
373.333	275.6
373.782	418.37
374.231	310.71
374.68	310.71
375.129	259.21
375.578	320.07
376.027	371.56
376.475	317.73
376.924	284.96
377.373	324.75
377.822	327.09
378.27	324.75
378.719	308.37
379.167	390.28
379.616	329.43
380.064	341.13
380.512	371.56
380.961	345.81
381.409	362.2
381.857	284.96
382.305	357.52
382.753	324.75
383.201	275.6
383.649	268.58
384.097	301.34
384.545	336.45
384.992	306.03
385.44	334.11
385.888	338.79
386.335	327.09
386.783	289.64
387.231	296.66
387.678	287.3
388.125	378.58
388.573	299
389.02	336.45
389.467	282.62
389.914	263.9
390.362	296.66
390.809	322.41
391.256	406.67
391.703	313.05
392.15	369.22
392.596	371.56
393.043	315.39
393.49	366.88
393.937	348.15
394.383	310.71
394.83	287.3
395.276	310.71
395.723	322.41
396.169	280.28
396.616	336.45
397.062	329.43
397.508	317.73
397.954	320.07
398.401	383.26
398.847	280.28
399.293	345.81
399.739	387.94
400.185	392.62
400.631	336.45
401.076	392.62
401.522	322.41
401.968	362.2
402.414	341.13
402.859	294.32
403.305	308.37
403.75	273.26
404.196	310.71
404.641	282.62
405.086	362.2
405.532	289.64
405.977	308.37
406.422	294.32
406.867	327.09
407.312	268.58
407.757	238.15
408.202	275.6
408.647	306.03
409.092	341.13
409.537	338.79
409.982	334.11
410.426	249.85
410.871	357.52
411.316	338.79
411.76	327.09
412.205	338.79
412.649	324.75
413.093	308.37
413.538	355.18
413.982	317.73
414.426	266.24
414.87	385.6
415.314	313.05
415.758	350.5
416.202	275.6
416.646	371.56
417.09	364.54
417.534	277.94
417.978	282.62
418.421	231.13
418.865	334.11
419.309	327.09
419.752	268.58
420.196	313.05
420.639	362.2
421.083	310.71
421.526	336.45
421.969	371.56
422.412	320.07
422.856	315.39
423.299	378.58
423.742	345.81
424.185	348.15
424.628	303.68
425.071	273.26
425.513	306.03
425.956	327.09
426.399	313.05
426.842	310.71
427.284	275.6
427.727	348.15
428.169	345.81
428.612	352.84
429.054	313.05
429.497	343.47
429.939	303.68
430.381	308.37
430.823	338.79
431.265	301.34
431.707	343.47
432.149	371.56
432.591	383.26
433.033	313.05
433.475	359.86
433.917	310.71
434.359	324.75
434.8	284.96
435.242	291.98
435.684	301.34
436.125	252.19
436.567	310.71
437.008	329.43
437.449	317.73
437.891	275.6
438.332	341.13
438.773	299
439.214	270.92
439.656	313.05
440.097	282.62
440.538	263.9
440.978	299
441.419	336.45
441.86	320.07
442.301	341.13
442.742	322.41
443.182	303.68
443.623	350.5
444.063	284.96
444.504	352.84
444.944	324.75
445.385	282.62
445.825	357.52
446.265	287.3
446.706	334.11
447.146	362.2
447.586	289.64
448.026	299
448.466	334.11
448.906	329.43
449.346	296.66
449.786	256.87
450.225	284.96
450.665	338.79
451.105	303.68
451.544	324.75
451.984	301.34
452.424	329.43
452.863	392.62
453.302	343.47
453.742	343.47
454.181	322.41
454.62	369.22
455.059	261.55
455.499	357.52
455.938	287.3
456.377	329.43
456.816	291.98
457.254	280.28
457.693	327.09
458.132	259.21
458.571	303.68
459.01	289.64
459.448	350.5
459.887	327.09
460.325	310.71
460.764	296.66
461.202	322.41
461.641	287.3
462.079	392.62
462.517	327.09
462.955	310.71
463.393	329.43
463.832	376.24
464.27	256.87
464.708	345.81
465.145	289.64
465.583	369.22
466.021	322.41
466.459	259.21
466.897	327.09
467.334	331.77
467.772	357.52
468.209	376.24
468.647	343.47
469.084	303.68
469.522	348.15
469.959	275.6
470.396	313.05
470.833	320.07
471.271	301.34
471.708	280.28
472.145	366.88
472.582	273.26
473.019	294.32
473.456	387.94
473.892	317.73
474.329	331.77
474.766	331.77
475.202	343.47
475.639	301.34
476.076	327.09
476.512	338.79
476.949	315.39
477.385	329.43
477.821	341.13
478.258	387.94
478.694	261.55
479.13	334.11
479.566	387.94
480.002	390.28
480.438	324.75
480.874	345.81
481.31	291.98
481.746	334.11
482.181	371.56
482.617	357.52
483.053	327.09
483.488	303.68
483.924	334.11
484.36	362.2
484.795	308.37
485.23	327.09
485.666	329.43
486.101	357.52
486.536	338.79
486.971	303.68
487.407	252.19
487.842	341.13
488.277	266.24
488.712	294.32
489.146	306.03
489.581	327.09
490.016	334.11
490.451	301.34
490.885	394.97
491.32	362.2
491.755	308.37
492.189	221.77
492.624	327.09
493.058	369.22
493.492	310.71
493.927	364.54
494.361	366.88
494.795	373.9
495.229	338.79
495.663	341.13
496.097	350.5
496.531	345.81
496.965	266.24
497.399	327.09
497.833	324.75
498.266	366.88
498.7	313.05
499.134	329.43
499.567	341.13
500.001	310.71
500.434	322.41
500.868	380.92
501.301	350.5
501.734	301.34
502.168	336.45
502.601	338.79
503.034	376.24
503.467	296.66
503.9	308.37
504.333	275.6
504.766	350.5
505.199	308.37
505.632	329.43
506.064	284.96
506.497	343.47
506.93	310.71
507.362	336.45
507.795	308.37
508.227	310.71
508.66	291.98
509.092	364.54
509.524	299
509.956	345.81
510.389	303.68
510.821	355.18
511.253	280.28
511.685	299
512.117	299
512.549	399.65
512.981	355.18
513.412	275.6
513.844	308.37
514.276	303.68
514.707	343.47
515.139	364.54
515.571	324.75
516.002	270.92
516.433	324.75
516.865	291.98
517.296	364.54
517.727	315.39
518.159	350.5
518.59	315.39
519.021	294.32
519.452	294.32
519.883	329.43
520.314	324.75
520.744	306.03
521.175	301.34
521.606	315.39
522.037	299
522.467	371.56
522.898	338.79
523.328	270.92
523.759	348.15
524.189	378.58
524.62	380.92
525.05	331.77
525.48	317.73
525.91	317.73
526.341	310.71
526.771	343.47
527.201	334.11
527.631	355.18
528.061	308.37
528.49	313.05
528.92	268.58
529.35	320.07
529.78	294.32
530.209	331.77
530.639	380.92
531.068	249.85
531.498	327.09
531.927	404.33
532.357	376.24
532.786	343.47
533.215	376.24
533.644	336.45
534.074	364.54
534.503	345.81
534.932	310.71
535.361	280.28
535.79	261.55
536.218	327.09
536.647	345.81
537.076	322.41
537.505	308.37
537.933	331.77
538.362	289.64
538.79	341.13
539.219	259.21
539.647	313.05
540.076	329.43
540.504	397.31
540.932	310.71
541.36	385.6
541.788	376.24
542.217	411.35
542.645	315.39
543.073	369.22
543.5	327.09
543.928	313.05
544.356	313.05
544.784	296.66
545.211	315.39
545.639	341.13
546.067	334.11
546.494	282.62
546.922	249.85
547.349	338.79
547.776	329.43
548.204	273.26
548.631	341.13
549.058	348.15
549.485	308.37
549.912	331.77
550.339	345.81
550.766	306.03
551.193	355.18
551.62	350.5
552.047	376.24
552.474	373.9
552.9	352.84
553.327	294.32
553.754	315.39
554.18	327.09
554.607	378.58
555.033	371.56
555.459	306.03
555.886	329.43
556.312	294.32
556.738	273.26
557.164	296.66
557.59	291.98
558.016	336.45
558.442	306.03
558.868	378.58
559.294	306.03
559.72	313.05
560.145	336.45
560.571	329.43
560.997	320.07
561.422	329.43
561.848	277.94
562.273	331.77
562.699	317.73
563.124	280.28
563.549	383.26
563.974	334.11
564.4	268.58
564.825	308.37
565.25	327.09
565.675	313.05
566.1	291.98
566.525	348.15
566.95	299
567.374	284.96
567.799	296.66
568.224	308.37
568.648	308.37
569.073	284.96
569.497	376.24
569.922	310.71
570.346	345.81
570.771	350.5
571.195	310.71
571.619	317.73
572.043	294.32
572.467	327.09
572.891	338.79
573.315	280.28
573.739	224.11
574.163	324.75
574.587	299
575.011	266.24
575.435	378.58
575.858	359.86
576.282	329.43
576.705	336.45
577.129	291.98
577.552	287.3
577.976	348.15
578.399	369.22
578.822	341.13
579.245	303.68
579.669	404.33
580.092	289.64
580.515	306.03
580.938	306.03
581.361	371.56
581.784	322.41
582.206	284.96
582.629	226.45
583.052	371.56
583.474	320.07
583.897	277.94
584.32	338.79
584.742	350.5
585.165	338.79
585.587	345.81
586.009	263.9
586.431	308.37
586.854	376.24
587.276	294.32
587.698	327.09
588.12	313.05
588.542	336.45
588.964	373.9
589.386	348.15
589.807	341.13
590.229	245.17
590.651	317.73
591.073	341.13
591.494	303.68
591.916	348.15
592.337	331.77
592.759	308.37
593.18	329.43
593.601	291.98
594.022	289.64
594.444	348.15
594.865	275.6
595.286	299
595.707	322.41
596.128	303.68
596.549	327.09
596.97	334.11
597.39	327.09
597.811	263.9
598.232	287.3
598.652	280.28
599.073	310.71
599.494	247.51
599.914	303.68
600.334	277.94
600.755	327.09
601.175	303.68
601.595	268.58
602.015	329.43
602.436	362.2
602.856	439.44
603.276	296.66
603.696	334.11
604.115	270.92
604.535	371.56
604.955	299
605.375	334.11
605.794	296.66
606.214	322.41
606.634	320.07
607.053	256.87
607.473	306.03
607.892	296.66
608.311	380.92
608.731	359.86
609.15	273.26
609.569	310.71
609.988	282.62
610.407	324.75
610.826	315.39
611.245	350.5
611.664	341.13
612.083	252.19
612.501	329.43
612.92	287.3
613.339	315.39
613.757	315.39
614.176	242.83
614.594	308.37
615.013	277.94
615.431	348.15
615.85	320.07
616.268	284.96
616.686	341.13
617.104	385.6
617.522	341.13
617.94	369.22
618.358	245.17
618.776	338.79
619.194	355.18
619.612	301.34
620.03	282.62
620.447	345.81
620.865	350.5
621.282	327.09
621.7	308.37
622.117	359.86
622.535	270.92
622.952	320.07
623.369	308.37
623.787	299
624.204	362.2
624.621	294.32
625.038	341.13
625.455	341.13
625.872	308.37
626.289	352.84
626.706	306.03
627.123	324.75
627.539	324.75
627.956	355.18
628.373	338.79
628.789	315.39
629.206	334.11
629.622	324.75
630.038	336.45
630.455	294.32
630.871	343.47
631.287	334.11
631.703	315.39
632.12	359.86
632.536	320.07
632.952	334.11
633.368	301.34
633.783	348.15
634.199	357.52
634.615	256.87
635.031	357.52
635.446	331.77
635.862	294.32
636.277	327.09
636.693	352.84
637.108	308.37
637.524	394.97
637.939	306.03
638.354	327.09
638.77	338.79
639.185	299
639.6	322.41
640.015	324.75
640.43	308.37
640.845	284.96
641.259	331.77
641.674	282.62
642.089	324.75
642.504	336.45
642.918	249.85
643.333	357.52
643.747	242.83
644.162	324.75
644.576	345.81
644.991	315.39
645.405	378.58
645.819	313.05
646.233	282.62
646.647	387.94
647.061	362.2
647.475	287.3
647.889	306.03
648.303	345.81
648.717	301.34
649.131	310.71
649.545	362.2
649.958	277.94
650.372	331.77
650.785	303.68
651.199	359.86
651.612	348.15
652.026	310.71
652.439	301.34
652.852	296.66
653.266	296.66
653.679	331.77
654.092	355.18
654.505	359.86
654.918	376.24
655.331	357.52
655.744	287.3
656.156	369.22
656.569	366.88
656.982	359.86
657.394	317.73
657.807	273.26
658.22	366.88
658.632	336.45
659.044	357.52
659.457	280.28
659.869	294.32
660.281	256.87
660.693	317.73
661.106	336.45
661.518	336.45
661.93	310.71
662.342	301.34
662.754	373.9
663.165	317.73
663.577	331.77
663.989	289.64
664.401	266.24
664.812	275.6
665.224	345.81
665.635	315.39
666.047	322.41
666.458	301.34
666.869	324.75
667.281	270.92
667.692	352.84
668.103	334.11
668.514	313.05
668.925	273.26
669.336	345.81
669.747	324.75
670.158	310.71
670.569	320.07
670.979	313.05
671.39	341.13
671.801	268.58
672.211	350.5
672.622	373.9
673.032	409.01
673.443	338.79
673.853	306.03
674.263	287.3
674.674	284.96
675.084	324.75
675.494	313.05
675.904	315.39
676.314	310.71
676.724	338.79
677.134	306.03
677.544	357.52
677.953	366.88
678.363	364.54
678.773	341.13
679.182	249.85
679.592	313.05
680.001	294.32
680.411	336.45
680.82	338.79
681.23	259.21
681.639	291.98
682.048	259.21
682.457	373.9
682.866	317.73
683.275	268.58
683.684	261.55
684.093	324.75
684.502	313.05
684.911	341.13
685.32	301.34
685.728	336.45
686.137	315.39
686.546	371.56
686.954	343.47
687.363	261.55
687.771	345.81
688.179	320.07
688.588	301.34
688.996	324.75
689.404	299
689.812	373.9
690.22	313.05
690.628	284.96
691.036	254.53
691.444	270.92
691.852	416.03
692.26	324.75
692.667	315.39
693.075	308.37
693.483	369.22
693.89	310.71
694.298	310.71
694.705	291.98
695.112	313.05
695.52	320.07
695.927	392.62
696.334	308.37
696.741	373.9
697.148	348.15
697.555	322.41
697.962	270.92
698.369	331.77
698.776	294.32
699.183	294.32
699.59	329.43
699.996	303.68
700.403	329.43
700.81	334.11
701.216	329.43
701.623	308.37
702.029	301.34
702.435	303.68
702.842	329.43
703.248	350.5
703.654	261.55
704.06	317.73
704.466	362.2
704.872	303.68
705.278	338.79
705.684	303.68
706.09	322.41
706.496	310.71
706.901	362.2
707.307	242.83
707.712	362.2
708.118	282.62
708.523	345.81
708.929	334.11
709.334	336.45
709.74	282.62
710.145	345.81
710.55	369.22
710.955	338.79
711.36	317.73
711.765	350.5
712.17	224.11
712.575	348.15
712.98	809.24
713.385	434.75
713.789	320.07
714.194	350.5
714.599	369.22
715.003	324.75
715.408	334.11
715.812	350.5
716.217	348.15
716.621	301.34
717.025	357.52
717.429	287.3
717.833	324.75
718.238	294.32
718.642	387.94
719.046	270.92
719.449	310.71
719.853	362.2
720.257	315.39
720.661	287.3
721.065	303.68
721.468	294.32
721.872	334.11
722.275	310.71
722.679	352.84
723.082	352.84
723.485	287.3
723.889	385.6
724.292	275.6
724.695	296.66
725.098	310.71
725.501	348.15
725.904	327.09
726.307	338.79
726.71	235.81
727.113	252.19
727.516	341.13
727.918	355.18
728.321	308.37
728.724	331.77
729.126	392.62
729.529	263.9
729.931	378.58
730.333	294.32
730.736	306.03
731.138	317.73
731.54	284.96
731.942	324.75
732.344	338.79
732.746	338.79
733.148	294.32
733.55	287.3
733.952	268.58
734.354	261.55
734.756	270.92
735.157	296.66
735.559	315.39
735.96	296.66
736.362	355.18
736.763	284.96
737.165	352.84
737.566	324.75
737.967	306.03
738.368	219.43
738.77	259.21
739.171	301.34
739.572	301.34
739.973	301.34
740.374	352.84
740.774	390.28
741.175	294.32
741.576	261.55
741.977	284.96
742.377	310.71
742.778	282.62
743.178	291.98
743.579	355.18
743.979	390.28
744.379	317.73
744.78	289.64
745.18	327.09
745.58	341.13
745.98	324.75
746.38	336.45
746.78	350.5
747.18	303.68
747.58	268.58
747.98	282.62
748.38	308.37
748.779	291.98
749.179	338.79
749.578	338.79
749.978	289.64
750.377	355.18
750.777	350.5
751.176	280.28
751.575	369.22
751.975	317.73
752.374	313.05
752.773	310.71
753.172	313.05
753.571	362.2
753.97	336.45
754.369	376.24
754.768	308.37
755.166	399.65
755.565	390.28
755.964	359.86
756.362	308.37
756.761	327.09
757.159	226.45
757.558	245.17
757.956	334.11
758.354	453.48
758.753	350.5
759.151	284.96
759.549	270.92
759.947	334.11
760.345	320.07
760.743	329.43
761.141	357.52
761.539	411.35
761.936	320.07
762.334	266.24
762.732	359.86
763.129	355.18
763.527	280.28
763.924	345.81
764.322	273.26
764.719	338.79
765.117	373.9
765.514	373.9
765.911	270.92
766.308	303.68
766.705	280.28
767.102	261.55
767.499	289.64
767.896	331.77
768.293	310.71
768.69	284.96
769.086	355.18
769.483	322.41
769.88	366.88
770.276	350.5
770.673	306.03
771.069	261.55
771.466	273.26
771.862	256.87
772.258	301.34
772.654	310.71
773.05	303.68
773.447	331.77
773.843	268.58
774.239	341.13
774.634	294.32
775.03	320.07
775.426	315.39
775.822	277.94
776.218	320.07
776.613	329.43
777.009	294.32
777.404	301.34
777.8	301.34
778.195	308.37
778.59	261.55
778.986	329.43
779.381	369.22
779.776	331.77
780.171	392.62
780.566	331.77
780.961	331.77
781.356	296.66
781.751	380.92
782.146	308.37
782.54	301.34
782.935	343.47
783.33	343.47
783.724	348.15
784.119	331.77
784.513	322.41
784.908	315.39
785.302	348.15
785.696	322.41
786.09	324.75
786.485	324.75
786.879	291.98
787.273	313.05
787.667	334.11
788.061	348.15
788.454	320.07
788.848	266.24
789.242	343.47
789.636	324.75
790.029	280.28
790.423	369.22
790.816	338.79
791.21	301.34
791.603	324.75
791.997	308.37
792.39	315.39
792.783	275.6
793.176	284.96
793.569	301.34
793.962	336.45
794.355	268.58
794.748	306.03
795.141	357.52
795.534	317.73
795.927	303.68
796.319	334.11
796.712	334.11
797.105	317.73
797.497	266.24
797.89	329.43
798.282	291.98
798.674	348.15
799.067	378.58
799.459	338.79
799.851	294.32
800.243	322.41
800.635	294.32
801.027	282.62
801.419	350.5
801.811	301.34
802.203	291.98
802.594	329.43
802.986	331.77
803.378	301.34
803.769	294.32
804.161	289.64
804.552	341.13
804.944	273.26
805.335	289.64
805.726	282.62
806.118	284.96
806.509	329.43
806.9	313.05
807.291	411.35
807.682	299
808.073	296.66
808.464	261.55
808.855	362.2
809.245	280.28
809.636	467.52
810.027	352.84
810.417	289.64
810.808	287.3
811.198	308.37
811.589	308.37
811.979	277.94
812.369	364.54
812.759	273.26
813.15	336.45
813.54	364.54
813.93	324.75
814.32	299
814.71	336.45
815.1	331.77
815.489	299
815.879	366.88
816.269	294.32
816.658	397.31
817.048	371.56
817.438	327.09
817.827	317.73
818.216	390.28
818.606	371.56
818.995	315.39
819.384	270.92
819.773	317.73
820.163	306.03
820.552	296.66
820.941	212.4
821.33	350.5
821.718	345.81
822.107	352.84
822.496	291.98
822.885	418.37
823.273	352.84
823.662	294.32
824.05	277.94
824.439	247.51
824.827	277.94
825.216	320.07
825.604	413.69
825.992	245.17
826.38	291.98
826.768	287.3
827.156	280.28
827.544	308.37
827.932	308.37
828.32	280.28
828.708	315.39
829.096	308.37
829.483	308.37
829.871	294.32
830.259	299
830.646	277.94
831.034	308.37
831.421	289.64
831.808	315.39
832.196	299
832.583	315.39
832.97	303.68
833.357	313.05
833.744	310.71
834.131	327.09
834.518	310.71
834.905	240.49
835.292	310.71
835.678	303.68
836.065	359.86
836.452	336.45
836.838	334.11
837.225	280.28
837.611	268.58
837.998	296.66
838.384	369.22
838.77	362.2
839.157	299
839.543	329.43
839.929	362.2
840.315	324.75
840.701	306.03
841.087	252.19
841.473	256.87
841.858	338.79
842.244	282.62
842.63	357.52
843.015	336.45
843.401	544.76
843.787	350.5
844.172	308.37
844.557	387.94
844.943	256.87
845.328	350.5
845.713	310.71
846.098	327.09
846.483	306.03
846.868	291.98
847.253	324.75
847.638	345.81
848.023	336.45
848.408	306.03
848.793	308.37
849.177	310.71
849.562	270.92
849.947	284.96
850.331	273.26
850.715	331.77
851.1	336.45
851.484	322.41
851.868	399.65
852.253	299
852.637	277.94
853.021	317.73
853.405	334.11
853.789	301.34
854.173	355.18
854.557	282.62
854.94	303.68
855.324	315.39
855.708	364.54
856.091	327.09
856.475	266.24
856.858	315.39
857.242	352.84
857.625	275.6
858.009	308.37
858.392	329.43
858.775	268.58
859.158	320.07
859.541	320.07
859.924	373.9
860.307	341.13
860.69	362.2
861.073	294.32
861.456	317.73
861.838	280.28
862.221	320.07
862.604	343.47
862.986	291.98
863.369	289.64
863.751	336.45
864.133	256.87
864.516	282.62
864.898	294.32
865.28	289.64
865.662	373.9
866.044	315.39
866.426	317.73
866.808	320.07
867.19	359.86
867.572	350.5
867.954	334.11
868.336	345.81
868.717	317.73
869.099	329.43
869.48	338.79
869.862	301.34
870.243	345.81
870.625	308.37
871.006	327.09
871.387	350.5
871.768	303.68
872.149	308.37
872.53	364.54
872.911	303.68
873.292	310.71
873.673	301.34
874.054	369.22
874.435	275.6
874.815	268.58
875.196	387.94
875.577	294.32
875.957	282.62
876.338	357.52
876.718	357.52
877.098	348.15
877.479	357.52
877.859	331.77
878.239	303.68
878.619	322.41
878.999	341.13
879.379	341.13
879.759	301.34
880.139	376.24
880.519	268.58
880.898	282.62
881.278	277.94
881.658	322.41
882.037	303.68
882.417	221.77
882.796	233.47
883.176	282.62
883.555	287.3
883.934	343.47
884.313	301.34
884.693	299
885.072	299
885.451	343.47
885.83	334.11
886.209	327.09
886.587	308.37
886.966	308.37
887.345	231.13
887.724	362.2
888.102	270.92
888.481	317.73
888.859	275.6
889.238	306.03
889.616	301.34
889.994	322.41
890.373	242.83
890.751	259.21
891.129	329.43
891.507	308.37
891.885	287.3
892.263	336.45
892.641	315.39
893.019	327.09
893.396	280.28
893.774	329.43
894.152	299
894.529	362.2
894.907	299
895.284	373.9
895.662	327.09
896.039	345.81
896.416	315.39
896.794	327.09
897.171	341.13
897.548	327.09
897.925	313.05
898.302	306.03
898.679	280.28
899.056	254.53
899.433	289.64
899.809	306.03
900.186	249.85
900.563	238.15
900.939	345.81
901.316	270.92
901.692	277.94
902.069	329.43
902.445	324.75
902.821	317.73
903.197	331.77
903.574	296.66
903.95	327.09
904.326	287.3
904.702	327.09
905.078	296.66
905.454	338.79
905.829	364.54
906.205	348.15
906.581	359.86
906.956	277.94
907.332	289.64
907.707	336.45
908.083	289.64
908.458	329.43
908.833	320.07
909.209	327.09
909.584	317.73
909.959	359.86
910.334	387.94
910.709	317.73
911.084	355.18
911.459	308.37
911.834	352.84
912.209	315.39
912.583	322.41
912.958	317.73
913.333	308.37
913.707	273.26
914.082	371.56
914.456	291.98
914.83	308.37
915.205	336.45
915.579	294.32
915.953	245.17
916.327	308.37
916.701	350.5
917.075	313.05
917.449	324.75
917.823	266.24
918.197	270.92
918.571	338.79
918.944	296.66
919.318	348.15
919.692	291.98
920.065	299
920.438	280.28
920.812	329.43
921.185	336.45
921.558	327.09
921.932	308.37
922.305	336.45
922.678	256.87
923.051	322.41
923.424	364.54
923.797	308.37
924.17	313.05
924.542	324.75
924.915	324.75
925.288	289.64
925.661	280.28
926.033	371.56
926.406	310.71
926.778	310.71
927.15	313.05
927.523	284.96
927.895	306.03
928.267	270.92
928.639	350.5
929.011	287.3
929.383	277.94
929.755	315.39
930.127	303.68
930.499	296.66
930.871	394.97
931.242	310.71
931.614	334.11
931.986	357.52
932.357	296.66
932.729	289.64
933.1	336.45
933.471	273.26
933.843	289.64
934.214	418.37
934.585	369.22
934.956	331.77
935.327	331.77
935.698	308.37
936.069	366.88
936.44	301.34
936.811	306.03
937.182	287.3
937.552	327.09
937.923	369.22
938.293	313.05
938.664	306.03
939.034	310.71
939.405	336.45
939.775	315.39
940.145	362.2
940.516	348.15
940.886	308.37
941.256	294.32
941.626	329.43
941.996	287.3
942.366	345.81
942.735	336.45
943.105	282.62
943.475	331.77
943.845	301.34
944.214	308.37
944.584	280.28
944.953	336.45
945.323	291.98
945.692	275.6
946.061	331.77
946.43	303.68
946.8	345.81
947.169	336.45
947.538	282.62
947.907	315.39
948.276	310.71
948.645	303.68
949.013	336.45
949.382	369.22
949.751	334.11
950.119	308.37
950.488	329.43
950.857	387.94
951.225	394.97
951.593	273.26
951.962	313.05
952.33	294.32
952.698	282.62
953.066	303.68
953.434	387.94
953.802	310.71
954.17	338.79
954.538	280.28
954.906	263.9
955.274	329.43
955.642	336.45
956.009	327.09
956.377	322.41
956.744	336.45
957.112	289.64
957.479	336.45
957.847	303.68
958.214	324.75
958.581	308.37
958.948	341.13
959.315	256.87
959.683	315.39
960.05	287.3
960.416	317.73
960.783	268.58
961.15	221.77
961.517	296.66
961.884	306.03
962.25	373.9
962.617	357.52
962.983	343.47
963.35	324.75
963.716	231.13
964.082	359.86
964.449	308.37
964.815	296.66
965.181	343.47
965.547	357.52
965.913	291.98
966.279	261.55
966.645	362.2
967.011	334.11
967.377	294.32
967.742	345.81
968.108	284.96
968.474	320.07
968.839	306.03
969.205	277.94
969.57	270.92
969.935	287.3
970.301	270.92
970.666	263.9
971.031	343.47
971.396	327.09
971.761	385.6
972.126	247.51
972.491	336.45
972.856	334.11
973.221	359.86
973.586	331.77
973.95	273.26
974.315	336.45
974.679	273.26
975.044	291.98
975.408	338.79
975.773	345.81
976.137	266.24
976.501	355.18
976.866	345.81
977.23	247.51
977.594	387.94
977.958	296.66
978.322	317.73
978.686	341.13
979.049	315.39
979.413	343.47
979.777	324.75
980.141	406.67
980.504	315.39
980.868	338.79
981.231	324.75
981.595	282.62
981.958	348.15
982.321	357.52
982.684	355.18
983.048	231.13
983.411	266.24
983.774	313.05
984.137	299
984.5	331.77
984.862	259.21
985.225	334.11
985.588	291.98
985.951	327.09
986.313	254.53
986.676	334.11
987.038	249.85
987.401	289.64
987.763	322.41
988.125	322.41
988.488	306.03
988.85	310.71
989.212	303.68
989.574	310.71
989.936	343.47
990.298	263.9
990.66	322.41
991.022	320.07
991.383	317.73
991.745	301.34
992.107	261.55
992.468	287.3
992.83	266.24
993.191	336.45
993.553	317.73
993.914	355.18
994.275	310.71
994.637	263.9
994.998	252.19
995.359	322.41
995.72	313.05
996.081	303.68
996.442	336.45
996.803	242.83
997.163	362.2
997.524	301.34
997.885	291.98
998.245	308.37
998.606	345.81
998.966	301.34
999.327	284.96
999.687	308.37
1000.047	294.32
1000.408	317.73
1000.768	308.37
1001.128	287.3
1001.488	317.73
1001.848	207.72
1002.208	266.24
1002.568	303.68
1002.927	306.03
1003.287	327.09
1003.647	317.73
1004.007	273.26
1004.366	301.34
1004.726	348.15
1005.085	313.05
1005.444	359.86
1005.804	294.32
1006.163	317.73
1006.522	294.32
1006.881	306.03
1007.24	310.71
1007.599	362.2
1007.958	270.92
1008.317	320.07
1008.676	343.47
1009.035	275.6
1009.393	315.39
1009.752	247.51
1010.111	284.96
1010.469	320.07
1010.828	282.62
1011.186	291.98
1011.544	338.79
1011.903	282.62
1012.261	341.13
1012.619	341.13
1012.977	299
1013.335	364.54
1013.693	336.45
1014.051	282.62
1014.409	343.47
1014.767	266.24
1015.124	341.13
1015.482	303.68
1015.84	308.37
1016.197	277.94
1016.555	324.75
1016.912	385.6
1017.269	329.43
1017.627	294.32
1017.984	277.94
1018.341	254.53
1018.698	327.09
1019.055	299
1019.412	352.84
1019.769	324.75
1020.126	327.09
1020.483	317.73
1020.84	313.05
1021.196	282.62
1021.553	291.98
1021.909	350.5
1022.266	280.28
1022.622	291.98
1022.979	355.18
1023.335	341.13
1023.691	291.98
1024.047	294.32
1024.404	275.6
1024.76	350.5
1025.116	291.98
1025.472	284.96
1025.827	310.71
1026.183	287.3
1026.539	254.53
1026.895	336.45
1027.25	320.07
1027.606	373.9
1027.961	296.66
1028.317	308.37
1028.672	275.6
1029.028	228.79
1029.383	322.41
1029.738	259.21
1030.093	294.32
1030.448	277.94
1030.803	357.52
1031.158	273.26
1031.513	315.39
1031.868	320.07
1032.223	334.11
1032.577	242.83
1032.932	280.28
1033.287	306.03
1033.641	280.28
1033.996	394.97
1034.35	364.54
1034.704	275.6
1035.059	366.88
1035.413	331.77
1035.767	331.77
1036.121	331.77
