Data from Al_FLMS009871__1070__16-27-03-711.txt Node

Date: Fri Mar 08 16:27:03 CST 2024
User: pe5414po
Spectrometer: FLMS00987
Trigger mode: 0
Integration Time (sec): 1.000000E-1
Scans to average: 1
Electric dark correction enabled: true
Nonlinearity correction enabled: false
Boxcar width: 0
XAxis mode: Wavelengths
Number of Pixels in Spectrum: 2048
>>>>>Begin Spectral Data<<<<<
188.938	-83.38
189.409	-83.38
189.879	-83.38
190.349	-43.59
190.819	-81.04
191.29	-111.47
191.76	-111.47
192.23	-50.61
192.7	-85.72
193.17	40.67
193.64	-102.11
194.109	-69.34
194.579	3.22
195.049	19.6
195.519	12.58
195.988	14.92
196.458	50.03
196.927	35.99
197.397	57.05
197.866	115.56
198.336	181.1
198.805	153.01
199.274	234.93
199.744	258.34
200.213	237.27
200.682	274.72
201.151	246.63
201.62	244.29
202.089	256
202.558	241.95
203.027	288.76
203.495	256
203.964	267.7
204.433	274.72
204.902	328.55
205.37	272.38
205.839	251.32
206.307	260.68
206.776	349.62
207.244	295.79
207.712	277.06
208.181	300.47
208.649	305.15
209.117	340.26
209.585	284.08
210.053	316.85
210.521	300.47
210.989	330.89
211.457	316.85
211.925	321.53
212.393	328.55
212.861	239.61
213.328	279.4
213.796	328.55
214.264	246.63
214.731	333.23
215.199	284.08
215.666	277.06
216.133	333.23
216.601	270.04
217.068	246.63
217.535	246.63
218.003	237.27
218.47	284.08
218.937	281.74
219.404	204.5
219.871	237.27
220.338	293.44
220.805	246.63
221.271	253.66
221.738	319.19
222.205	265.36
222.671	209.19
223.138	274.72
223.605	239.61
224.071	309.83
224.538	260.68
225.004	284.08
225.47	274.72
225.937	251.32
226.403	234.93
226.869	248.97
227.335	288.76
227.801	288.76
228.267	295.79
228.733	309.83
229.199	246.63
229.665	295.79
230.131	263.02
230.597	256
231.062	258.34
231.528	302.81
231.994	265.36
232.459	328.55
232.925	293.44
233.39	274.72
233.856	298.13
234.321	293.44
234.786	286.42
235.252	298.13
235.717	302.81
236.182	328.55
236.647	330.89
237.112	260.68
237.577	234.93
238.042	279.4
238.507	253.66
238.972	232.59
239.436	277.06
239.901	337.91
240.366	234.93
240.83	337.91
241.295	281.74
241.76	246.63
242.224	263.02
242.688	277.06
243.153	281.74
243.617	272.38
244.081	307.49
244.545	244.29
245.01	354.3
245.474	328.55
245.938	309.83
246.402	286.42
246.866	230.25
247.33	295.79
247.793	319.19
248.257	342.6
248.721	251.32
249.185	288.76
249.648	302.81
250.112	337.91
250.575	279.4
251.039	239.61
251.502	309.83
251.965	256
252.429	328.55
252.892	314.51
253.355	330.89
253.818	347.28
254.281	302.81
254.744	253.66
255.207	344.94
255.67	316.85
256.133	263.02
256.596	265.36
257.059	314.51
257.522	286.42
257.984	295.79
258.447	291.1
258.909	349.62
259.372	260.68
259.834	326.21
260.297	307.49
260.759	272.38
261.221	298.13
261.684	337.91
262.146	277.06
262.608	286.42
263.07	286.42
263.532	281.74
263.994	281.74
264.456	344.94
264.918	321.53
265.38	354.3
265.842	295.79
266.303	356.64
266.765	248.97
267.227	302.81
267.688	305.15
268.15	326.21
268.611	323.87
269.072	213.87
269.534	284.08
269.995	288.76
270.456	277.06
270.918	335.57
271.379	309.83
271.84	326.21
272.301	286.42
272.762	256
273.223	286.42
273.684	333.23
274.144	370.68
274.605	330.89
275.066	293.44
275.527	270.04
275.987	274.72
276.448	321.53
276.908	321.53
277.369	344.94
277.829	333.23
278.289	330.89
278.75	316.85
279.21	330.89
279.67	314.51
280.13	256
280.59	330.89
281.05	351.96
281.51	298.13
281.97	265.36
282.43	312.17
282.89	293.44
283.35	237.27
283.809	281.74
284.269	326.21
284.729	316.85
285.188	335.57
285.648	284.08
286.107	263.02
286.567	319.19
287.026	342.6
287.485	305.15
287.944	307.49
288.404	281.74
288.863	319.19
289.322	344.94
289.781	279.4
290.24	323.87
290.699	319.19
291.158	328.55
291.616	267.7
292.075	309.83
292.534	241.95
292.992	351.96
293.451	309.83
293.91	340.26
294.368	342.6
294.827	286.42
295.285	363.66
295.743	361.32
296.202	335.57
296.66	307.49
297.118	354.3
297.576	295.79
298.034	260.68
298.492	361.32
298.95	286.42
299.408	319.19
299.866	354.3
300.324	351.96
300.781	326.21
301.239	316.85
301.697	272.38
302.154	319.19
302.612	298.13
303.069	263.02
303.527	337.91
303.984	295.79
304.441	319.19
304.899	333.23
305.356	323.87
305.813	337.91
306.27	312.17
306.727	300.47
307.184	293.44
307.641	293.44
308.098	328.55
308.555	284.08
309.012	337.91
309.468	344.94
309.925	302.81
310.382	253.66
310.838	344.94
311.295	347.28
311.751	351.96
312.208	354.3
312.664	309.83
313.12	337.91
313.577	337.91
314.033	340.26
314.489	272.38
314.945	342.6
315.401	319.19
315.857	347.28
316.313	354.3
316.769	323.87
317.225	340.26
317.681	347.28
318.136	328.55
318.592	319.19
319.048	349.62
319.503	326.21
319.959	291.1
320.414	272.38
320.869	347.28
321.325	293.44
321.78	314.51
322.235	366
322.691	328.55
323.146	333.23
323.601	279.4
324.056	330.89
324.511	319.19
324.966	295.79
325.421	340.26
325.875	366
326.33	330.89
326.785	323.87
327.24	302.81
327.694	335.57
328.149	305.15
328.603	321.53
329.058	265.36
329.512	354.3
329.966	319.19
330.421	293.44
330.875	288.76
331.329	368.34
331.783	333.23
332.237	366
332.691	368.34
333.145	356.64
333.599	298.13
334.053	377.7
334.507	267.7
334.96	321.53
335.414	394.09
335.868	309.83
336.321	373.02
336.775	316.85
337.228	302.81
337.682	305.15
338.135	319.19
338.588	328.55
339.042	342.6
339.495	358.98
339.948	302.81
340.401	328.55
340.854	309.83
341.307	321.53
341.76	298.13
342.213	260.68
342.666	328.55
343.119	342.6
343.571	288.76
344.024	319.19
344.477	295.79
344.929	351.96
345.382	330.89
345.834	314.51
346.287	314.51
346.739	316.85
347.191	368.34
347.644	274.72
348.096	298.13
348.548	349.62
349	347.28
349.452	293.44
349.904	246.63
350.356	305.15
350.808	405.79
351.26	300.47
351.711	288.76
352.163	335.57
352.615	265.36
353.066	321.53
353.518	300.47
353.969	328.55
354.421	337.91
354.872	312.17
355.324	368.34
355.775	319.19
356.226	281.74
356.677	361.32
357.128	363.66
357.579	354.3
358.03	319.19
358.481	300.47
358.932	293.44
359.383	361.32
359.834	347.28
360.285	305.15
360.735	337.91
361.186	321.53
361.637	330.89
362.087	333.23
362.538	293.44
362.988	295.79
363.438	307.49
363.889	330.89
364.339	321.53
364.789	340.26
365.239	358.98
365.689	337.91
366.139	330.89
366.589	251.32
367.039	316.85
367.489	307.49
367.939	361.32
368.389	316.85
368.839	342.6
369.288	305.15
369.738	309.83
370.187	288.76
370.637	380.04
371.086	368.34
371.536	354.3
371.985	314.51
372.434	347.28
372.884	288.76
373.333	330.89
373.782	366
374.231	288.76
374.68	314.51
375.129	272.38
375.578	387.07
376.027	347.28
376.475	295.79
376.924	307.49
377.373	295.79
377.822	330.89
378.27	328.55
378.719	358.98
379.167	347.28
379.616	316.85
380.064	330.89
380.512	300.47
380.961	377.7
381.409	328.55
381.857	216.21
382.305	312.17
382.753	328.55
383.201	344.94
383.649	347.28
384.097	347.28
384.545	326.21
384.992	366
385.44	342.6
385.888	398.77
386.335	351.96
386.783	389.41
387.231	351.96
387.678	298.13
388.125	335.57
388.573	298.13
389.02	387.07
389.467	307.49
389.914	281.74
390.362	347.28
390.809	314.51
391.256	293.44
391.703	291.1
392.15	309.83
392.596	300.47
393.043	316.85
393.49	284.08
393.937	375.36
394.383	366
394.83	319.19
395.276	351.96
395.723	330.89
396.169	342.6
396.616	281.74
397.062	403.45
397.508	368.34
397.954	293.44
398.401	265.36
398.847	267.7
399.293	281.74
399.739	270.04
400.185	312.17
400.631	265.36
401.076	302.81
401.522	300.47
401.968	323.87
402.414	396.43
402.859	344.94
403.305	293.44
403.75	384.73
404.196	326.21
404.641	312.17
405.086	333.23
405.532	321.53
405.977	333.23
406.422	239.61
406.867	349.62
407.312	298.13
407.757	274.72
408.202	265.36
408.647	279.4
409.092	340.26
409.537	314.51
409.982	344.94
410.426	274.72
410.871	342.6
411.316	293.44
411.76	316.85
412.205	272.38
412.649	373.02
413.093	363.66
413.538	349.62
413.982	347.28
414.426	319.19
414.87	295.79
415.314	351.96
415.758	316.85
416.202	319.19
416.646	291.1
417.09	274.72
417.534	457.28
417.978	328.55
418.421	347.28
418.865	291.1
419.309	307.49
419.752	300.47
420.196	328.55
420.639	347.28
421.083	277.06
421.526	361.32
421.969	351.96
422.412	351.96
422.856	337.91
423.299	274.72
423.742	270.04
424.185	326.21
424.628	363.66
425.071	351.96
425.513	316.85
425.956	295.79
426.399	333.23
426.842	314.51
427.284	279.4
427.727	394.09
428.169	340.26
428.612	401.11
429.054	344.94
429.497	375.36
429.939	328.55
430.381	307.49
430.823	314.51
431.265	351.96
431.707	370.68
432.149	225.57
432.591	342.6
433.033	251.32
433.475	302.81
433.917	326.21
434.359	295.79
434.8	330.89
435.242	356.64
435.684	274.72
436.125	300.47
436.567	302.81
437.008	368.34
437.449	323.87
437.891	363.66
438.332	375.36
438.773	260.68
439.214	302.81
439.656	326.21
440.097	309.83
440.538	342.6
440.978	314.51
441.419	312.17
441.86	361.32
442.301	263.02
442.742	330.89
443.182	349.62
443.623	284.08
444.063	349.62
444.504	319.19
444.944	373.02
445.385	316.85
445.825	302.81
446.265	330.89
446.706	309.83
447.146	314.51
447.586	351.96
448.026	302.81
448.466	284.08
448.906	426.86
449.346	223.23
449.786	373.02
450.225	316.85
450.665	358.98
451.105	396.43
451.544	356.64
451.984	361.32
452.424	337.91
452.863	326.21
453.302	284.08
453.742	356.64
454.181	349.62
454.62	445.58
455.059	361.32
455.499	330.89
455.938	323.87
456.377	251.32
456.816	316.85
457.254	344.94
457.693	302.81
458.132	354.3
458.571	309.83
459.01	398.77
459.448	295.79
459.887	330.89
460.325	323.87
460.764	342.6
461.202	316.85
461.641	279.4
462.079	302.81
462.517	326.21
462.955	326.21
463.393	253.66
463.832	361.32
464.27	354.3
464.708	295.79
465.145	337.91
465.583	291.1
466.021	349.62
466.459	305.15
466.897	358.98
467.334	305.15
467.772	281.74
468.209	363.66
468.647	354.3
469.084	358.98
469.522	321.53
469.959	244.29
470.396	272.38
470.833	351.96
471.271	349.62
471.708	363.66
472.145	347.28
472.582	394.09
473.019	330.89
473.456	330.89
473.892	291.1
474.329	305.15
474.766	342.6
475.202	279.4
475.639	298.13
476.076	351.96
476.512	293.44
476.949	260.68
477.385	333.23
477.821	361.32
478.258	396.43
478.694	312.17
479.13	323.87
479.566	298.13
480.002	368.34
480.438	344.94
480.874	265.36
481.31	326.21
481.746	314.51
482.181	358.98
482.617	267.7
483.053	424.51
483.488	263.02
483.924	335.57
484.36	326.21
484.795	354.3
485.23	293.44
485.666	337.91
486.101	333.23
486.536	300.47
486.971	328.55
487.407	298.13
487.842	361.32
488.277	288.76
488.712	281.74
489.146	277.06
489.581	356.64
490.016	358.98
490.451	277.06
490.885	342.6
491.32	321.53
491.755	263.02
492.189	312.17
492.624	307.49
493.058	377.7
493.492	302.81
493.927	277.06
494.361	326.21
494.795	314.51
495.229	316.85
495.663	358.98
496.097	312.17
496.531	319.19
496.965	340.26
497.399	323.87
497.833	335.57
498.266	298.13
498.7	347.28
499.134	335.57
499.567	302.81
500.001	337.91
500.434	333.23
500.868	328.55
501.301	323.87
501.734	363.66
502.168	389.41
502.601	293.44
503.034	384.73
503.467	293.44
503.9	267.7
504.333	307.49
504.766	340.26
505.199	333.23
505.632	344.94
506.064	335.57
506.497	319.19
506.93	288.76
507.362	363.66
507.795	351.96
508.227	408.13
508.66	366
509.092	305.15
509.524	337.91
509.956	340.26
510.389	284.08
510.821	314.51
511.253	330.89
511.685	314.51
512.117	344.94
512.549	307.49
512.981	307.49
513.412	316.85
513.844	344.94
514.276	366
514.707	309.83
515.139	384.73
515.571	305.15
516.002	314.51
516.433	291.1
516.865	412.81
517.296	277.06
517.727	321.53
518.159	335.57
518.59	328.55
519.021	398.77
519.452	340.26
519.883	335.57
520.314	333.23
520.744	366
521.175	373.02
521.606	340.26
522.037	342.6
522.467	330.89
522.898	319.19
523.328	300.47
523.759	363.66
524.189	307.49
524.62	307.49
525.05	314.51
525.48	380.04
525.91	384.73
526.341	305.15
526.771	384.73
527.201	293.44
527.631	326.21
528.061	333.23
528.49	298.13
528.92	305.15
529.35	354.3
529.78	272.38
530.209	293.44
530.639	337.91
531.068	307.49
531.498	277.06
531.927	323.87
532.357	387.07
532.786	323.87
533.215	305.15
533.644	326.21
534.074	251.32
534.503	293.44
534.932	302.81
535.361	344.94
535.79	394.09
536.218	305.15
536.647	377.7
537.076	340.26
537.505	333.23
537.933	361.32
538.362	349.62
538.79	387.07
539.219	316.85
539.647	326.21
540.076	316.85
540.504	335.57
540.932	373.02
541.36	389.41
541.788	295.79
542.217	319.19
542.645	394.09
543.073	267.7
543.5	321.53
543.928	326.21
544.356	295.79
544.784	272.38
545.211	349.62
545.639	344.94
546.067	305.15
546.494	405.79
546.922	347.28
547.349	344.94
547.776	328.55
548.204	382.39
548.631	377.7
549.058	305.15
549.485	323.87
549.912	356.64
550.339	347.28
550.766	349.62
551.193	349.62
551.62	298.13
552.047	361.32
552.474	319.19
552.9	302.81
553.327	344.94
553.754	375.36
554.18	377.7
554.607	370.68
555.033	246.63
555.459	258.34
555.886	281.74
556.312	307.49
556.738	349.62
557.164	358.98
557.59	316.85
558.016	333.23
558.442	380.04
558.868	330.89
559.294	377.7
559.72	314.51
560.145	288.76
560.571	293.44
560.997	344.94
561.422	316.85
561.848	321.53
562.273	286.42
562.699	340.26
563.124	309.83
563.549	309.83
563.974	396.43
564.4	312.17
564.825	307.49
565.25	417.49
565.675	267.7
566.1	270.04
566.525	293.44
566.95	319.19
567.374	382.39
567.799	307.49
568.224	323.87
568.648	373.02
569.073	300.47
569.497	370.68
569.922	347.28
570.346	302.81
570.771	319.19
571.195	309.83
571.619	405.79
572.043	370.68
572.467	256
572.891	323.87
573.315	366
573.739	256
574.163	363.66
574.587	344.94
575.011	251.32
575.435	356.64
575.858	335.57
576.282	295.79
576.705	291.1
577.129	305.15
577.552	351.96
577.976	356.64
578.399	419.83
578.822	347.28
579.245	316.85
579.669	330.89
580.092	370.68
580.515	281.74
580.938	281.74
581.361	333.23
581.784	302.81
582.206	344.94
582.629	314.51
583.052	281.74
583.474	349.62
583.897	270.04
584.32	314.51
584.742	344.94
585.165	337.91
585.587	340.26
586.009	366
586.431	349.62
586.854	319.19
587.276	309.83
587.698	321.53
588.12	323.87
588.542	316.85
588.964	305.15
589.386	389.41
589.807	344.94
590.229	387.07
590.651	328.55
591.073	321.53
591.494	288.76
591.916	319.19
592.337	349.62
592.759	380.04
593.18	349.62
593.601	323.87
594.022	277.06
594.444	391.75
594.865	316.85
595.286	326.21
595.707	312.17
596.128	227.91
596.549	319.19
596.97	347.28
597.39	351.96
597.811	335.57
598.232	354.3
598.652	356.64
599.073	309.83
599.494	307.49
599.914	323.87
600.334	342.6
600.755	333.23
601.175	347.28
601.595	309.83
602.015	302.81
602.436	274.72
602.856	373.02
603.276	272.38
603.696	370.68
604.115	302.81
604.535	265.36
604.955	333.23
605.375	305.15
605.794	363.66
606.214	321.53
606.634	298.13
607.053	307.49
607.473	279.4
607.892	370.68
608.311	270.04
608.731	375.36
609.15	323.87
609.569	417.49
609.988	349.62
610.407	370.68
610.826	370.68
611.245	373.02
611.664	302.81
612.083	316.85
612.501	405.79
612.92	298.13
613.339	323.87
613.757	312.17
614.176	356.64
614.594	344.94
615.013	323.87
615.431	373.02
615.85	349.62
616.268	263.02
616.686	314.51
617.104	321.53
617.522	337.91
617.94	316.85
618.358	328.55
618.776	302.81
619.194	368.34
619.612	328.55
620.03	281.74
620.447	323.87
620.865	344.94
621.282	358.98
621.7	417.49
622.117	314.51
622.535	368.34
622.952	366
623.369	382.39
623.787	358.98
624.204	307.49
624.621	298.13
625.038	398.77
625.455	333.23
625.872	293.44
626.289	328.55
626.706	309.83
627.123	274.72
627.539	302.81
627.956	340.26
628.373	323.87
628.789	328.55
629.206	340.26
629.622	288.76
630.038	288.76
630.455	368.34
630.871	337.91
631.287	321.53
631.703	319.19
632.12	380.04
632.536	312.17
632.952	328.55
633.368	316.85
633.783	356.64
634.199	354.3
634.615	340.26
635.031	333.23
635.446	323.87
635.862	277.06
636.277	403.45
636.693	284.08
637.108	349.62
637.524	335.57
637.939	387.07
638.354	328.55
638.77	330.89
639.185	391.75
639.6	356.64
640.015	335.57
640.43	389.41
640.845	312.17
641.259	426.86
641.674	319.19
642.089	356.64
642.504	358.98
642.918	274.72
643.333	316.85
643.747	277.06
644.162	342.6
644.576	321.53
644.991	307.49
645.405	361.32
645.819	335.57
646.233	288.76
646.647	373.02
647.061	403.45
647.475	293.44
647.889	314.51
648.303	351.96
648.717	309.83
649.131	323.87
649.545	312.17
649.958	284.08
650.372	340.26
650.785	267.7
651.199	349.62
651.612	373.02
652.026	246.63
652.439	335.57
652.852	316.85
653.266	335.57
653.679	286.42
654.092	396.43
654.505	347.28
654.918	305.15
655.331	328.55
655.744	396.43
656.156	373.02
656.569	333.23
656.982	256
657.394	305.15
657.807	293.44
658.22	272.38
658.632	288.76
659.044	321.53
659.457	363.66
659.869	391.75
660.281	375.36
660.693	277.06
661.106	373.02
661.518	333.23
661.93	337.91
662.342	267.7
662.754	349.62
663.165	361.32
663.577	288.76
663.989	309.83
664.401	396.43
664.812	330.89
665.224	274.72
665.635	277.06
666.047	328.55
666.458	377.7
666.869	344.94
667.281	340.26
667.692	237.27
668.103	337.91
668.514	344.94
668.925	337.91
669.336	330.89
669.747	312.17
670.158	300.47
670.569	295.79
670.979	342.6
671.39	321.53
671.801	316.85
672.211	408.13
672.622	330.89
673.032	321.53
673.443	363.66
673.853	333.23
674.263	368.34
674.674	288.76
675.084	265.36
675.494	309.83
675.904	302.81
676.314	330.89
676.724	319.19
677.134	335.57
677.544	342.6
677.953	377.7
678.363	330.89
678.773	333.23
679.182	319.19
679.592	382.39
680.001	363.66
680.411	312.17
680.82	368.34
681.23	281.74
681.639	328.55
682.048	436.22
682.457	302.81
682.866	316.85
683.275	291.1
683.684	328.55
684.093	279.4
684.502	358.98
684.911	295.79
685.32	328.55
685.728	300.47
686.137	370.68
686.546	288.76
686.954	302.81
687.363	417.49
687.771	272.38
688.179	321.53
688.588	342.6
688.996	377.7
689.404	340.26
689.812	314.51
690.22	344.94
690.628	256
691.036	298.13
691.444	312.17
691.852	279.4
692.26	333.23
692.667	321.53
693.075	300.47
693.483	377.7
693.89	342.6
694.298	232.59
694.705	377.7
695.112	291.1
695.52	391.75
695.927	321.53
696.334	337.91
696.741	354.3
697.148	356.64
697.555	319.19
697.962	302.81
698.369	319.19
698.776	347.28
699.183	295.79
699.59	328.55
699.996	358.98
700.403	323.87
700.81	286.42
701.216	321.53
701.623	328.55
702.029	363.66
702.435	288.76
702.842	279.4
703.248	344.94
703.654	337.91
704.06	342.6
704.466	384.73
704.872	291.1
705.278	366
705.684	281.74
706.09	274.72
706.496	375.36
706.901	333.23
707.307	272.38
707.712	347.28
708.118	260.68
708.523	291.1
708.929	368.34
709.334	272.38
709.74	314.51
710.145	384.73
710.55	295.79
710.955	405.79
711.36	305.15
711.765	326.21
712.17	394.09
712.575	288.76
712.98	873.9
713.385	335.57
713.789	309.83
714.194	314.51
714.599	263.02
715.003	321.53
715.408	309.83
715.812	314.51
716.217	349.62
716.621	328.55
717.025	340.26
717.429	337.91
717.833	321.53
718.238	373.02
718.642	305.15
719.046	349.62
719.449	305.15
719.853	279.4
720.257	323.87
720.661	321.53
721.065	340.26
721.468	321.53
721.872	295.79
722.275	363.66
722.679	316.85
723.082	307.49
723.485	316.85
723.889	293.44
724.292	295.79
724.695	267.7
725.098	337.91
725.501	384.73
725.904	326.21
726.307	340.26
726.71	358.98
727.113	370.68
727.516	333.23
727.918	319.19
728.321	274.72
728.724	293.44
729.126	316.85
729.529	373.02
729.931	323.87
730.333	316.85
730.736	326.21
731.138	314.51
731.54	286.42
731.942	358.98
732.344	337.91
732.746	333.23
733.148	312.17
733.55	330.89
733.952	358.98
734.354	305.15
734.756	312.17
735.157	368.34
735.559	312.17
735.96	312.17
736.362	354.3
736.763	312.17
737.165	316.85
737.566	326.21
737.967	354.3
738.368	361.32
738.77	307.49
739.171	309.83
739.572	272.38
739.973	337.91
740.374	340.26
740.774	351.96
741.175	342.6
741.576	422.17
741.977	422.17
742.377	349.62
742.778	363.66
743.178	391.75
743.579	309.83
743.979	272.38
744.379	344.94
744.78	309.83
745.18	323.87
745.58	328.55
745.98	277.06
746.38	356.64
746.78	351.96
747.18	349.62
747.58	328.55
747.98	288.76
748.38	370.68
748.779	326.21
749.179	321.53
749.578	295.79
749.978	248.97
750.377	274.72
750.777	361.32
751.176	363.66
751.575	326.21
751.975	316.85
752.374	368.34
752.773	382.39
753.172	337.91
753.571	366
753.97	286.42
754.369	354.3
754.768	333.23
755.166	277.06
755.565	333.23
755.964	279.4
756.362	337.91
756.761	415.15
757.159	288.76
757.558	316.85
757.956	295.79
758.354	328.55
758.753	358.98
759.151	328.55
759.549	356.64
759.947	340.26
760.345	277.06
760.743	396.43
761.141	267.7
761.539	337.91
761.936	335.57
762.334	340.26
762.732	349.62
763.129	363.66
763.527	408.13
763.924	328.55
764.322	330.89
764.719	340.26
765.117	333.23
765.514	382.39
765.911	366
766.308	344.94
766.705	316.85
767.102	307.49
767.499	361.32
767.896	351.96
768.293	272.38
768.69	356.64
769.086	333.23
769.483	312.17
769.88	307.49
770.276	361.32
770.673	342.6
771.069	335.57
771.466	312.17
771.862	412.81
772.258	354.3
772.654	396.43
773.05	342.6
773.447	373.02
773.843	361.32
774.239	314.51
774.634	377.7
775.03	368.34
775.426	384.73
775.822	344.94
776.218	321.53
776.613	349.62
777.009	354.3
777.404	314.51
777.8	291.1
778.195	349.62
778.59	344.94
778.986	281.74
779.381	279.4
779.776	300.47
780.171	344.94
780.566	323.87
780.961	328.55
781.356	281.74
781.751	295.79
782.146	319.19
782.54	251.32
782.935	356.64
783.33	361.32
783.724	354.3
784.119	323.87
784.513	333.23
784.908	300.47
785.302	302.81
785.696	291.1
786.09	335.57
786.485	274.72
786.879	305.15
787.273	284.08
787.667	356.64
788.061	286.42
788.454	288.76
788.848	298.13
789.242	265.36
789.636	375.36
790.029	288.76
790.423	347.28
790.816	337.91
791.21	354.3
791.603	295.79
791.997	380.04
792.39	291.1
792.783	342.6
793.176	300.47
793.569	316.85
793.962	335.57
794.355	305.15
794.748	354.3
795.141	319.19
795.534	267.7
795.927	277.06
796.319	302.81
796.712	337.91
797.105	230.25
797.497	307.49
797.89	363.66
798.282	354.3
798.674	356.64
799.067	293.44
799.459	328.55
799.851	337.91
800.243	342.6
800.635	314.51
801.027	316.85
801.419	337.91
801.811	286.42
802.203	251.32
802.594	302.81
802.986	323.87
803.378	300.47
803.769	288.76
804.161	263.02
804.552	321.53
804.944	274.72
805.335	277.06
805.726	300.47
806.118	314.51
806.509	270.04
806.9	321.53
807.291	307.49
807.682	333.23
808.073	316.85
808.464	309.83
808.855	344.94
809.245	333.23
809.636	382.39
810.027	370.68
810.417	300.47
810.808	356.64
811.198	349.62
811.589	272.38
811.979	326.21
812.369	277.06
812.759	380.04
813.15	312.17
813.54	314.51
813.93	305.15
814.32	274.72
814.71	316.85
815.1	284.08
815.489	349.62
815.879	368.34
816.269	302.81
816.658	426.86
817.048	335.57
817.438	293.44
817.827	340.26
818.216	335.57
818.606	302.81
818.995	295.79
819.384	288.76
819.773	391.75
820.163	309.83
820.552	298.13
820.941	363.66
821.33	380.04
821.718	342.6
822.107	337.91
822.496	375.36
822.885	319.19
823.273	321.53
823.662	335.57
824.05	319.19
824.439	351.96
824.827	309.83
825.216	288.76
825.604	305.15
825.992	328.55
826.38	288.76
826.768	366
827.156	309.83
827.544	298.13
827.932	319.19
828.32	323.87
828.708	314.51
829.096	356.64
829.483	319.19
829.871	351.96
830.259	274.72
830.646	363.66
831.034	342.6
831.421	295.79
831.808	330.89
832.196	316.85
832.583	272.38
832.97	307.49
833.357	251.32
833.744	270.04
834.131	291.1
834.518	356.64
834.905	356.64
835.292	314.51
835.678	300.47
836.065	309.83
836.452	347.28
836.838	370.68
837.225	293.44
837.611	309.83
837.998	295.79
838.384	319.19
838.77	284.08
839.157	326.21
839.543	319.19
839.929	335.57
840.315	351.96
840.701	321.53
841.087	351.96
841.473	323.87
841.858	319.19
842.244	335.57
842.63	344.94
843.015	307.49
843.401	597.71
843.787	333.23
844.172	300.47
844.557	366
844.943	361.32
845.328	323.87
845.713	284.08
846.098	337.91
846.483	300.47
846.868	358.98
847.253	302.81
847.638	312.17
848.023	263.02
848.408	361.32
848.793	330.89
849.177	274.72
849.562	312.17
849.947	309.83
850.331	293.44
850.715	349.62
851.1	358.98
851.484	260.68
851.868	366
852.253	358.98
852.637	270.04
853.021	260.68
853.405	291.1
853.789	351.96
854.173	330.89
854.557	361.32
854.94	305.15
855.324	347.28
855.708	293.44
856.091	349.62
856.475	293.44
856.858	363.66
857.242	253.66
857.625	349.62
858.009	270.04
858.392	340.26
858.775	319.19
859.158	337.91
859.541	349.62
859.924	342.6
860.307	330.89
860.69	328.55
861.073	384.73
861.456	373.02
861.838	340.26
862.221	340.26
862.604	333.23
862.986	333.23
863.369	309.83
863.751	368.34
864.133	344.94
864.516	307.49
864.898	358.98
865.28	258.34
865.662	312.17
866.044	366
866.426	319.19
866.808	293.44
867.19	349.62
867.572	326.21
867.954	403.45
868.336	323.87
868.717	349.62
869.099	415.15
869.48	380.04
869.862	267.7
870.243	293.44
870.625	312.17
871.006	377.7
871.387	288.76
871.768	358.98
872.149	382.39
872.53	358.98
872.911	241.95
873.292	394.09
873.673	377.7
874.054	323.87
874.435	340.26
874.815	361.32
875.196	347.28
875.577	246.63
875.957	335.57
876.338	377.7
876.718	354.3
877.098	314.51
877.479	274.72
877.859	319.19
878.239	316.85
878.619	281.74
878.999	363.66
879.379	316.85
879.759	342.6
880.139	300.47
880.519	314.51
880.898	286.42
881.278	342.6
881.658	344.94
882.037	309.83
882.417	312.17
882.796	274.72
883.176	335.57
883.555	333.23
883.934	384.73
884.313	349.62
884.693	321.53
885.072	333.23
885.451	312.17
885.83	394.09
886.209	288.76
886.587	358.98
886.966	321.53
887.345	335.57
887.724	309.83
888.102	380.04
888.481	279.4
888.859	302.81
889.238	356.64
889.616	323.87
889.994	284.08
890.373	351.96
890.751	344.94
891.129	305.15
891.507	326.21
891.885	316.85
892.263	302.81
892.641	323.87
893.019	344.94
893.396	361.32
893.774	281.74
894.152	321.53
894.529	321.53
894.907	328.55
895.284	358.98
895.662	319.19
896.039	349.62
896.416	354.3
896.794	300.47
897.171	330.89
897.548	380.04
897.925	349.62
898.302	328.55
898.679	314.51
899.056	302.81
899.433	307.49
899.809	302.81
900.186	328.55
900.563	354.3
900.939	321.53
901.316	328.55
901.692	326.21
902.069	351.96
902.445	370.68
902.821	307.49
903.197	309.83
903.574	412.81
903.95	358.98
904.326	321.53
904.702	314.51
905.078	309.83
905.454	328.55
905.829	265.36
906.205	349.62
906.581	340.26
906.956	263.02
907.332	328.55
907.707	270.04
908.083	344.94
908.458	340.26
908.833	319.19
909.209	300.47
909.584	356.64
909.959	253.66
910.334	354.3
910.709	323.87
911.084	281.74
911.459	277.06
911.834	305.15
912.209	333.23
912.583	340.26
912.958	314.51
913.333	340.26
913.707	237.27
914.082	279.4
914.456	293.44
914.83	387.07
915.205	330.89
915.579	312.17
915.953	258.34
916.327	270.04
916.701	321.53
917.075	326.21
917.449	279.4
917.823	312.17
918.197	319.19
918.571	298.13
918.944	361.32
919.318	291.1
919.692	321.53
920.065	225.57
920.438	370.68
920.812	298.13
921.185	263.02
921.558	344.94
921.932	300.47
922.305	265.36
922.678	281.74
923.051	291.1
923.424	342.6
923.797	300.47
924.17	316.85
924.542	305.15
924.915	319.19
925.288	321.53
925.661	272.38
926.033	337.91
926.406	316.85
926.778	291.1
927.15	307.49
927.523	281.74
927.895	323.87
928.267	398.77
928.639	314.51
929.011	295.79
929.383	328.55
929.755	358.98
930.127	335.57
930.499	284.08
930.871	335.57
931.242	328.55
931.614	307.49
931.986	394.09
932.357	344.94
932.729	347.28
933.1	309.83
933.471	323.87
933.843	333.23
934.214	309.83
934.585	267.7
934.956	272.38
935.327	279.4
935.698	344.94
936.069	370.68
936.44	349.62
936.811	361.32
937.182	272.38
937.552	351.96
937.923	316.85
938.293	349.62
938.664	349.62
939.034	333.23
939.405	288.76
939.775	286.42
940.145	307.49
940.516	316.85
940.886	326.21
941.256	347.28
941.626	302.81
941.996	295.79
942.366	291.1
942.735	281.74
943.105	370.68
943.475	344.94
943.845	321.53
944.214	333.23
944.584	342.6
944.953	330.89
945.323	305.15
945.692	307.49
946.061	358.98
946.43	321.53
946.8	326.21
947.169	293.44
947.538	361.32
947.907	279.4
948.276	340.26
948.645	319.19
949.013	293.44
949.382	260.68
949.751	323.87
950.119	358.98
950.488	309.83
950.857	312.17
951.225	347.28
951.593	326.21
951.962	349.62
952.33	263.02
952.698	349.62
953.066	356.64
953.434	319.19
953.802	340.26
954.17	356.64
954.538	363.66
954.906	300.47
955.274	309.83
955.642	288.76
956.009	356.64
956.377	366
956.744	286.42
957.112	314.51
957.479	295.79
957.847	230.25
958.214	366
958.581	326.21
958.948	382.39
959.315	330.89
959.683	316.85
960.05	347.28
960.416	347.28
960.783	351.96
961.15	284.08
961.517	309.83
961.884	291.1
962.25	384.73
962.617	354.3
962.983	330.89
963.35	300.47
963.716	366
964.082	366
964.449	309.83
964.815	321.53
965.181	277.06
965.547	351.96
965.913	337.91
966.279	305.15
966.645	256
967.011	256
967.377	330.89
967.742	272.38
968.108	335.57
968.474	340.26
968.839	293.44
969.205	340.26
969.57	291.1
969.935	286.42
970.301	321.53
970.666	326.21
971.031	274.72
971.396	300.47
971.761	288.76
972.126	312.17
972.491	309.83
972.856	274.72
973.221	305.15
973.586	333.23
973.95	321.53
974.315	337.91
974.679	298.13
975.044	284.08
975.408	279.4
975.773	349.62
976.137	351.96
976.501	319.19
976.866	321.53
977.23	323.87
977.594	340.26
977.958	344.94
978.322	319.19
978.686	307.49
979.049	335.57
979.413	368.34
979.777	291.1
980.141	328.55
980.504	309.83
980.868	314.51
981.231	335.57
981.595	305.15
981.958	319.19
982.321	323.87
982.684	312.17
983.048	328.55
983.411	241.95
983.774	370.68
984.137	270.04
984.5	316.85
984.862	347.28
985.225	356.64
985.588	387.07
985.951	342.6
986.313	305.15
986.676	323.87
987.038	319.19
987.401	330.89
987.763	354.3
988.125	279.4
988.488	293.44
988.85	305.15
989.212	354.3
989.574	267.7
989.936	323.87
990.298	284.08
990.66	316.85
991.022	291.1
991.383	312.17
991.745	288.76
992.107	354.3
992.468	319.19
992.83	295.79
993.191	316.85
993.553	305.15
993.914	258.34
994.275	323.87
994.637	382.39
994.998	305.15
995.359	354.3
995.72	387.07
996.081	335.57
996.442	291.1
996.803	265.36
997.163	281.74
997.524	363.66
997.885	328.55
998.245	333.23
998.606	265.36
998.966	323.87
999.327	309.83
999.687	272.38
1000.047	335.57
1000.408	284.08
1000.768	330.89
1001.128	281.74
1001.488	305.15
1001.848	272.38
1002.208	330.89
1002.568	293.44
1002.927	356.64
1003.287	340.26
1003.647	305.15
1004.007	387.07
1004.366	316.85
1004.726	281.74
1005.085	288.76
1005.444	270.04
1005.804	340.26
1006.163	314.51
1006.522	342.6
1006.881	230.25
1007.24	295.79
1007.599	312.17
1007.958	312.17
1008.317	340.26
1008.676	293.44
1009.035	335.57
1009.393	307.49
1009.752	265.36
1010.111	274.72
1010.469	241.95
1010.828	291.1
1011.186	337.91
1011.544	307.49
1011.903	274.72
1012.261	286.42
1012.619	305.15
1012.977	361.32
1013.335	281.74
1013.693	302.81
1014.051	312.17
1014.409	368.34
1014.767	270.04
1015.124	319.19
1015.482	288.76
1015.84	344.94
1016.197	316.85
1016.555	319.19
1016.912	323.87
1017.269	361.32
1017.627	319.19
1017.984	342.6
1018.341	337.91
1018.698	321.53
1019.055	340.26
1019.412	291.1
1019.769	246.63
1020.126	314.51
1020.483	293.44
1020.84	335.57
1021.196	305.15
1021.553	316.85
1021.909	288.76
1022.266	340.26
1022.622	314.51
1022.979	321.53
1023.335	314.51
1023.691	253.66
1024.047	326.21
1024.404	298.13
1024.76	340.26
1025.116	284.08
1025.472	309.83
1025.827	291.1
1026.183	295.79
1026.539	302.81
1026.895	316.85
1027.25	309.83
1027.606	337.91
1027.961	298.13
1028.317	302.81
1028.672	277.06
1029.028	347.28
1029.383	361.32
1029.738	328.55
1030.093	279.4
1030.448	302.81
1030.803	305.15
1031.158	316.85
1031.513	277.06
1031.868	277.06
1032.223	377.7
1032.577	330.89
1032.932	314.51
1033.287	316.85
1033.641	293.44
1033.996	298.13
1034.35	358.98
1034.704	251.32
1035.059	323.87
1035.413	302.81
1035.767	302.81
1036.121	302.81
