Data from Al_FLMS009871__520__14-41-44-923.txt Node

Date: Fri Mar 08 14:41:44 CST 2024
User: pe5414po
Spectrometer: FLMS00987
Trigger mode: 0
Integration Time (sec): 1.000000E-1
Scans to average: 1
Electric dark correction enabled: true
Nonlinearity correction enabled: false
Boxcar width: 0
XAxis mode: Wavelengths
Number of Pixels in Spectrum: 2048
>>>>>Begin Spectral Data<<<<<
188.938	-46.37
189.409	-46.37
189.879	-46.37
190.349	-139.99
190.819	-74.46
191.29	-151.7
191.76	-107.23
192.23	-118.93
192.7	-62.76
193.17	-81.48
193.64	-44.03
194.109	0.44
194.579	0.44
195.049	51.93
195.519	-46.37
195.988	47.25
196.458	2.78
196.927	101.08
197.397	126.83
197.866	147.89
198.336	133.85
198.805	183
199.274	157.25
199.744	201.72
200.213	213.43
200.682	211.09
201.151	225.13
201.62	246.2
202.089	234.49
202.558	260.24
203.027	243.85
203.495	283.64
203.964	257.9
204.433	278.96
204.902	288.32
205.37	311.73
205.839	285.98
206.307	304.71
206.776	311.73
207.244	321.09
207.712	281.3
208.181	290.67
208.649	290.67
209.117	267.26
209.585	267.26
210.053	274.28
210.521	297.69
210.989	241.51
211.457	262.58
211.925	262.58
212.393	281.3
212.861	274.28
213.328	278.96
213.796	260.24
214.264	278.96
214.731	255.56
215.199	346.84
215.666	255.56
216.133	316.41
216.601	260.24
217.068	267.26
217.535	274.28
218.003	243.85
218.47	307.05
218.937	260.24
219.404	262.58
219.871	290.67
220.338	232.15
220.805	241.51
221.271	297.69
221.738	316.41
222.205	208.75
222.671	236.83
223.138	307.05
223.605	274.28
224.071	208.75
224.538	253.22
225.004	253.22
225.47	339.82
225.937	290.67
226.403	271.94
226.869	264.92
227.335	227.47
227.801	197.04
228.267	283.64
228.733	353.86
229.199	253.22
229.665	285.98
230.131	255.56
230.597	314.07
231.062	227.47
231.528	236.83
231.994	229.81
232.459	318.75
232.925	262.58
233.39	248.54
233.856	276.62
234.321	304.71
234.786	274.28
235.252	269.6
235.717	332.79
236.182	285.98
236.647	295.35
237.112	295.35
237.577	316.41
238.042	257.9
238.507	201.72
238.972	271.94
239.436	295.35
239.901	236.83
240.366	253.22
240.83	262.58
241.295	264.92
241.76	248.54
242.224	276.62
242.688	250.88
243.153	260.24
243.617	276.62
244.081	309.39
244.545	300.03
245.01	171.3
245.474	288.32
245.938	314.07
246.402	293.01
246.866	260.24
247.33	276.62
247.793	297.69
248.257	248.54
248.721	239.17
249.185	236.83
249.648	304.71
250.112	218.11
250.575	285.98
251.039	290.67
251.502	304.71
251.965	281.3
252.429	253.22
252.892	253.22
253.355	307.05
253.818	267.26
254.281	264.92
254.744	321.09
255.207	293.01
255.67	274.28
256.133	271.94
256.596	323.43
257.059	257.9
257.522	267.26
257.984	374.92
258.447	288.32
258.909	342.16
259.372	271.94
259.834	267.26
260.297	339.82
260.759	293.01
261.221	318.75
261.684	255.56
262.146	290.67
262.608	295.35
263.07	337.48
263.532	274.28
263.994	328.11
264.456	297.69
264.918	215.77
265.38	283.64
265.842	239.17
266.303	316.41
266.765	208.75
267.227	321.09
267.688	271.94
268.15	290.67
268.611	335.14
269.072	239.17
269.534	285.98
269.995	204.07
270.456	264.92
270.918	297.69
271.379	309.39
271.84	239.17
272.301	241.51
272.762	309.39
273.223	297.69
273.684	204.07
274.144	281.3
274.605	274.28
275.066	269.6
275.527	297.69
275.987	278.96
276.448	264.92
276.908	360.88
277.369	274.28
277.829	330.45
278.289	288.32
278.75	318.75
279.21	328.11
279.67	281.3
280.13	248.54
280.59	274.28
281.05	335.14
281.51	264.92
281.97	311.73
282.43	285.98
282.89	248.54
283.35	175.98
283.809	267.26
284.269	332.79
284.729	225.13
285.188	276.62
285.648	293.01
286.107	300.03
286.567	262.58
287.026	194.7
287.485	271.94
287.944	267.26
288.404	232.15
288.863	278.96
289.322	250.88
289.781	227.47
290.24	262.58
290.699	297.69
291.158	349.18
291.616	349.18
292.075	332.79
292.534	297.69
292.992	293.01
293.451	281.3
293.91	267.26
294.368	314.07
294.827	349.18
295.285	295.35
295.743	246.2
296.202	342.16
296.66	328.11
297.118	346.84
297.576	285.98
298.034	309.39
298.492	239.17
298.95	293.01
299.408	307.05
299.866	290.67
300.324	302.37
300.781	323.43
301.239	267.26
301.697	269.6
302.154	250.88
302.612	328.11
303.069	285.98
303.527	318.75
303.984	325.77
304.441	283.64
304.899	269.6
305.356	351.52
305.813	321.09
306.27	255.56
306.727	365.56
307.184	241.51
307.641	314.07
308.098	304.71
308.555	309.39
309.012	311.73
309.468	358.54
309.925	281.3
310.382	351.52
310.838	278.96
311.295	309.39
311.751	393.65
312.208	297.69
312.664	356.2
313.12	232.15
313.577	255.56
314.033	264.92
314.489	255.56
314.945	321.09
315.401	325.77
315.857	276.62
316.313	262.58
316.769	262.58
317.225	271.94
317.681	274.28
318.136	281.3
318.592	349.18
319.048	283.64
319.503	264.92
319.959	332.79
320.414	293.01
320.869	262.58
321.325	314.07
321.78	309.39
322.235	285.98
322.691	342.16
323.146	311.73
323.601	365.56
324.056	363.22
324.511	337.48
324.966	314.07
325.421	328.11
325.875	274.28
326.33	344.5
326.785	274.28
327.24	318.75
327.694	269.6
328.149	388.97
328.603	260.24
329.058	323.43
329.512	325.77
329.966	367.9
330.421	285.98
330.875	316.41
331.329	351.52
331.783	288.32
332.237	337.48
332.691	239.17
333.145	278.96
333.599	281.3
334.053	288.32
334.507	260.24
334.96	300.03
335.414	302.37
335.868	297.69
336.321	307.05
336.775	316.41
337.228	307.05
337.682	304.71
338.135	255.56
338.588	255.56
339.042	288.32
339.495	278.96
339.948	290.67
340.401	304.71
340.854	304.71
341.307	367.9
341.76	325.77
342.213	330.45
342.666	276.62
343.119	285.98
343.571	285.98
344.024	297.69
344.477	332.79
344.929	351.52
345.382	346.84
345.834	276.62
346.287	283.64
346.739	309.39
347.191	351.52
347.644	335.14
348.096	281.3
348.548	300.03
349	269.6
349.452	346.84
349.904	307.05
350.356	335.14
350.808	335.14
351.26	353.86
351.711	316.41
352.163	302.37
352.615	405.35
353.066	325.77
353.518	358.54
353.969	316.41
354.421	342.16
354.872	295.35
355.324	302.37
355.775	342.16
356.226	330.45
356.677	323.43
357.128	332.79
357.579	318.75
358.03	257.9
358.481	318.75
358.932	285.98
359.383	342.16
359.834	311.73
360.285	342.16
360.735	246.2
361.186	285.98
361.637	323.43
362.087	290.67
362.538	318.75
362.988	267.26
363.438	351.52
363.889	384.29
364.339	344.5
364.789	358.54
365.239	300.03
365.689	351.52
366.139	358.54
366.589	321.09
367.039	314.07
367.489	269.6
367.939	285.98
368.389	281.3
368.839	271.94
369.288	332.79
369.738	353.86
370.187	295.35
370.637	330.45
371.086	302.37
371.536	323.43
371.985	316.41
372.434	346.84
372.884	314.07
373.333	281.3
373.782	342.16
374.231	307.05
374.68	330.45
375.129	267.26
375.578	325.77
376.027	370.24
376.475	307.05
376.924	332.79
377.373	337.48
377.822	302.37
378.27	290.67
378.719	264.92
379.167	398.33
379.616	349.18
380.064	309.39
380.512	302.37
380.961	271.94
381.409	351.52
381.857	356.2
382.305	344.5
382.753	323.43
383.201	339.82
383.649	346.84
384.097	344.5
384.545	335.14
384.992	276.62
385.44	323.43
385.888	339.82
386.335	344.5
386.783	316.41
387.231	365.56
387.678	309.39
388.125	384.29
388.573	335.14
389.02	311.73
389.467	372.58
389.914	353.86
390.362	293.01
390.809	344.5
391.256	262.58
391.703	335.14
392.15	293.01
392.596	323.43
393.043	372.58
393.49	311.73
393.937	307.05
394.383	300.03
394.83	290.67
395.276	325.77
395.723	300.03
396.169	307.05
396.616	269.6
397.062	344.5
397.508	274.28
397.954	264.92
398.401	339.82
398.847	288.32
399.293	321.09
399.739	360.88
400.185	304.71
400.631	360.88
401.076	264.92
401.522	290.67
401.968	290.67
402.414	328.11
402.859	323.43
403.305	304.71
403.75	325.77
404.196	321.09
404.641	344.5
405.086	332.79
405.532	370.24
405.977	358.54
406.422	248.54
406.867	274.28
407.312	346.84
407.757	271.94
408.202	309.39
408.647	337.48
409.092	267.26
409.537	358.54
409.982	335.14
410.426	367.9
410.871	283.64
411.316	374.92
411.76	309.39
412.205	307.05
412.649	346.84
413.093	271.94
413.538	255.56
413.982	321.09
414.426	269.6
414.87	278.96
415.314	349.18
415.758	300.03
416.202	342.16
416.646	349.18
417.09	222.79
417.534	290.67
417.978	325.77
418.421	304.71
418.865	300.03
419.309	325.77
419.752	321.09
420.196	339.82
420.639	332.79
421.083	311.73
421.526	325.77
421.969	300.03
422.412	360.88
422.856	332.79
423.299	346.84
423.742	288.32
424.185	236.83
424.628	281.3
425.071	323.43
425.513	330.45
425.956	410.03
426.399	323.43
426.842	339.82
427.284	356.2
427.727	328.11
428.169	297.69
428.612	285.98
429.054	407.69
429.497	330.45
429.939	400.67
430.381	344.5
430.823	314.07
431.265	290.67
431.707	328.11
432.149	321.09
432.591	307.05
433.033	285.98
433.475	297.69
433.917	274.28
434.359	295.35
434.8	353.86
435.242	323.43
435.684	293.01
436.125	351.52
436.567	248.54
437.008	311.73
437.449	328.11
437.891	328.11
438.332	271.94
438.773	393.65
439.214	309.39
439.656	316.41
440.097	335.14
440.538	339.82
440.978	339.82
441.419	349.18
441.86	367.9
442.301	255.56
442.742	356.2
443.182	281.3
443.623	346.84
444.063	314.07
444.504	220.45
444.944	311.73
445.385	339.82
445.825	344.5
446.265	314.07
446.706	342.16
447.146	318.75
447.586	281.3
448.026	307.05
448.466	285.98
448.906	323.43
449.346	339.82
449.786	255.56
450.225	307.05
450.665	318.75
451.105	309.39
451.544	379.61
451.984	360.88
452.424	288.32
452.863	316.41
453.302	363.22
453.742	318.75
454.181	337.48
454.62	297.69
455.059	358.54
455.499	325.77
455.938	321.09
456.377	330.45
456.816	367.9
457.254	328.11
457.693	353.86
458.132	300.03
458.571	318.75
459.01	328.11
459.448	330.45
459.887	307.05
460.325	278.96
460.764	297.69
461.202	288.32
461.641	356.2
462.079	321.09
462.517	250.88
462.955	307.05
463.393	330.45
463.832	321.09
464.27	351.52
464.708	316.41
465.145	264.92
465.583	374.92
466.021	342.16
466.459	271.94
466.897	335.14
467.334	356.2
467.772	363.22
468.209	314.07
468.647	293.01
469.084	325.77
469.522	386.63
469.959	358.54
470.396	318.75
470.833	285.98
471.271	311.73
471.708	290.67
472.145	257.9
472.582	302.37
473.019	351.52
473.456	281.3
473.892	344.5
474.329	290.67
474.766	342.16
475.202	328.11
475.639	307.05
476.076	372.58
476.512	367.9
476.949	318.75
477.385	349.18
477.821	297.69
478.258	335.14
478.694	332.79
479.13	264.92
479.566	314.07
480.002	311.73
480.438	330.45
480.874	314.07
481.31	267.26
481.746	332.79
482.181	388.97
482.617	337.48
483.053	337.48
483.488	328.11
483.924	281.3
484.36	393.65
484.795	311.73
485.23	302.37
485.666	241.51
486.101	307.05
486.536	302.37
486.971	356.2
487.407	281.3
487.842	349.18
488.277	339.82
488.712	253.22
489.146	363.22
489.581	302.37
490.016	360.88
490.451	360.88
490.885	274.28
491.32	377.27
491.755	304.71
492.189	318.75
492.624	365.56
493.058	300.03
493.492	342.16
493.927	285.98
494.361	269.6
494.795	316.41
495.229	358.54
495.663	318.75
496.097	257.9
496.531	311.73
496.965	349.18
497.399	285.98
497.833	372.58
498.266	314.07
498.7	337.48
499.134	276.62
499.567	253.22
500.001	400.67
500.434	285.98
500.868	283.64
501.301	267.26
501.734	297.69
502.168	363.22
502.601	300.03
503.034	234.49
503.467	290.67
503.9	349.18
504.333	363.22
504.766	330.45
505.199	349.18
505.632	307.05
506.064	323.43
506.497	353.86
506.93	323.43
507.362	300.03
507.795	264.92
508.227	346.84
508.66	353.86
509.092	262.58
509.524	302.37
509.956	351.52
510.389	241.51
510.821	297.69
511.253	325.77
511.685	356.2
512.117	318.75
512.549	358.54
512.981	377.27
513.412	316.41
513.844	321.09
514.276	278.96
514.707	314.07
515.139	370.24
515.571	321.09
516.002	356.2
516.433	307.05
516.865	318.75
517.296	328.11
517.727	337.48
518.159	302.37
518.59	353.86
519.021	269.6
519.452	269.6
519.883	283.64
520.314	328.11
520.744	297.69
521.175	311.73
521.606	395.99
522.037	318.75
522.467	353.86
522.898	264.92
523.328	351.52
523.759	318.75
524.189	344.5
524.62	274.28
525.05	337.48
525.48	346.84
525.91	335.14
526.341	288.32
526.771	351.52
527.201	274.28
527.631	316.41
528.061	293.01
528.49	349.18
528.92	337.48
529.35	262.58
529.78	321.09
530.209	304.71
530.639	360.88
531.068	325.77
531.498	349.18
531.927	346.84
532.357	304.71
532.786	337.48
533.215	302.37
533.644	365.56
534.074	293.01
534.503	295.35
534.932	321.09
535.361	337.48
535.79	339.82
536.218	234.49
536.647	384.29
537.076	304.71
537.505	358.54
537.933	295.35
538.362	274.28
538.79	316.41
539.219	314.07
539.647	281.3
540.076	318.75
540.504	281.3
540.932	414.71
541.36	337.48
541.788	278.96
542.217	344.5
542.645	316.41
543.073	356.2
543.5	269.6
543.928	274.28
544.356	325.77
544.784	325.77
545.211	330.45
545.639	288.32
546.067	267.26
546.494	264.92
546.922	297.69
547.349	374.92
547.776	246.2
548.204	290.67
548.631	276.62
549.058	316.41
549.485	358.54
549.912	271.94
550.339	278.96
550.766	332.79
551.193	311.73
551.62	346.84
552.047	283.64
552.474	311.73
552.9	257.9
553.327	243.85
553.754	255.56
554.18	295.35
554.607	285.98
555.033	332.79
555.459	288.32
555.886	314.07
556.312	379.61
556.738	346.84
557.164	304.71
557.59	321.09
558.016	271.94
558.442	328.11
558.868	344.5
559.294	309.39
559.72	332.79
560.145	358.54
560.571	335.14
560.997	302.37
561.422	358.54
561.848	314.07
562.273	300.03
562.699	288.32
563.124	332.79
563.549	285.98
563.974	318.75
564.4	302.37
564.825	307.05
565.25	351.52
565.675	267.26
566.1	330.45
566.525	407.69
566.95	339.82
567.374	370.24
567.799	290.67
568.224	281.3
568.648	304.71
569.073	365.56
569.497	271.94
569.922	339.82
570.346	377.27
570.771	304.71
571.195	297.69
571.619	288.32
572.043	318.75
572.467	314.07
572.891	412.37
573.315	358.54
573.739	293.01
574.163	297.69
574.587	384.29
575.011	321.09
575.435	337.48
575.858	304.71
576.282	358.54
576.705	311.73
577.129	374.92
577.552	297.69
577.976	285.98
578.399	351.52
578.822	323.43
579.245	339.82
579.669	325.77
580.092	328.11
580.515	271.94
580.938	309.39
581.361	328.11
581.784	278.96
582.206	358.54
582.629	316.41
583.052	274.28
583.474	339.82
583.897	316.41
584.32	295.35
584.742	246.2
585.165	309.39
585.587	276.62
586.009	353.86
586.431	431.1
586.854	300.03
587.276	367.9
587.698	318.75
588.12	353.86
588.542	386.63
588.964	316.41
589.386	300.03
589.807	269.6
590.229	321.09
590.651	276.62
591.073	339.82
591.494	344.5
591.916	302.37
592.337	384.29
592.759	332.79
593.18	360.88
593.601	293.01
594.022	351.52
594.444	311.73
594.865	332.79
595.286	337.48
595.707	285.98
596.128	346.84
596.549	262.58
596.97	314.07
597.39	339.82
597.811	314.07
598.232	339.82
598.652	321.09
599.073	328.11
599.494	328.11
599.914	318.75
600.334	337.48
600.755	318.75
601.175	264.92
601.595	344.5
602.015	353.86
602.436	283.64
602.856	410.03
603.276	342.16
603.696	339.82
604.115	358.54
604.535	262.58
604.955	255.56
605.375	337.48
605.794	304.71
606.214	351.52
606.634	278.96
607.053	300.03
607.473	283.64
607.892	323.43
608.311	309.39
608.731	260.24
609.15	288.32
609.569	342.16
609.988	360.88
610.407	335.14
610.826	311.73
611.245	358.54
611.664	332.79
612.083	342.16
612.501	363.22
612.92	314.07
613.339	290.67
613.757	300.03
614.176	267.26
614.594	297.69
615.013	243.85
615.431	311.73
615.85	321.09
616.268	328.11
616.686	349.18
617.104	297.69
617.522	267.26
617.94	346.84
618.358	260.24
618.776	271.94
619.194	410.03
619.612	304.71
620.03	330.45
620.447	330.45
620.865	325.77
621.282	293.01
621.7	300.03
622.117	342.16
622.535	300.03
622.952	283.64
623.369	304.71
623.787	274.28
624.204	304.71
624.621	302.37
625.038	300.03
625.455	332.79
625.872	388.97
626.289	271.94
626.706	290.67
627.123	325.77
627.539	332.79
627.956	328.11
628.373	208.75
628.789	372.58
629.206	344.5
629.622	328.11
630.038	278.96
630.455	332.79
630.871	344.5
631.287	344.5
631.703	344.5
632.12	363.22
632.536	407.69
632.952	372.58
633.368	311.73
633.783	302.37
634.199	335.14
634.615	342.16
635.031	302.37
635.446	388.97
635.862	290.67
636.277	363.22
636.693	309.39
637.108	314.07
637.524	356.2
637.939	335.14
638.354	302.37
638.77	278.96
639.185	351.52
639.6	278.96
640.015	283.64
640.43	229.81
640.845	335.14
641.259	332.79
641.674	381.95
642.089	370.24
642.504	318.75
642.918	264.92
643.333	351.52
643.747	377.27
644.162	360.88
644.576	335.14
644.991	337.48
645.405	243.85
645.819	290.67
646.233	318.75
646.647	339.82
647.061	321.09
647.475	311.73
647.889	339.82
648.303	297.69
648.717	328.11
649.131	300.03
649.545	295.35
649.958	295.35
650.372	339.82
650.785	353.86
651.199	278.96
651.612	243.85
652.026	328.11
652.439	285.98
652.852	288.32
653.266	311.73
653.679	335.14
654.092	288.32
654.505	309.39
654.918	274.28
655.331	332.79
655.744	344.5
656.156	288.32
656.569	344.5
656.982	248.54
657.394	309.39
657.807	307.05
658.22	288.32
658.632	278.96
659.044	337.48
659.457	316.41
659.869	307.05
660.281	325.77
660.693	344.5
661.106	311.73
661.518	307.05
661.93	367.9
662.342	278.96
662.754	344.5
663.165	379.61
663.577	372.58
663.989	374.92
664.401	372.58
664.812	367.9
665.224	309.39
665.635	353.86
666.047	307.05
666.458	349.18
666.869	332.79
667.281	297.69
667.692	349.18
668.103	283.64
668.514	314.07
668.925	342.16
669.336	293.01
669.747	370.24
670.158	300.03
670.569	314.07
670.979	346.84
671.39	337.48
671.801	304.71
672.211	293.01
672.622	342.16
673.032	311.73
673.443	297.69
673.853	356.2
674.263	379.61
674.674	332.79
675.084	309.39
675.494	316.41
675.904	325.77
676.314	351.52
676.724	370.24
677.134	274.28
677.544	325.77
677.953	330.45
678.363	323.43
678.773	351.52
679.182	337.48
679.592	330.45
680.001	346.84
680.411	295.35
680.82	285.98
681.23	297.69
681.639	356.2
682.048	227.47
682.457	318.75
682.866	281.3
683.275	330.45
683.684	344.5
684.093	314.07
684.502	353.86
684.911	307.05
685.32	300.03
685.728	316.41
686.137	328.11
686.546	278.96
686.954	321.09
687.363	339.82
687.771	288.32
688.179	344.5
688.588	339.82
688.996	300.03
689.404	271.94
689.812	227.47
690.22	321.09
690.628	300.03
691.036	302.37
691.444	321.09
691.852	323.43
692.26	342.16
692.667	358.54
693.075	328.11
693.483	300.03
693.89	304.71
694.298	318.75
694.705	332.79
695.112	330.45
695.52	349.18
695.927	281.3
696.334	288.32
696.741	370.24
697.148	318.75
697.555	304.71
697.962	264.92
698.369	302.37
698.776	342.16
699.183	335.14
699.59	323.43
699.996	285.98
700.403	314.07
700.81	271.94
701.216	302.37
701.623	332.79
702.029	328.11
702.435	356.2
702.842	377.27
703.248	267.26
703.654	300.03
704.06	321.09
704.466	325.77
704.872	271.94
705.278	356.2
705.684	283.64
706.09	285.98
706.496	353.86
706.901	321.09
707.307	288.32
707.712	342.16
708.118	271.94
708.523	227.47
708.929	314.07
709.334	353.86
709.74	318.75
710.145	367.9
710.55	332.79
710.955	285.98
711.36	307.05
711.765	255.56
712.17	262.58
712.575	267.26
712.98	744.73
713.385	372.58
713.789	332.79
714.194	297.69
714.599	318.75
715.003	328.11
715.408	339.82
715.812	304.71
716.217	307.05
716.621	297.69
717.025	344.5
717.429	300.03
717.833	332.79
718.238	302.37
718.642	288.32
719.046	311.73
719.449	316.41
719.853	290.67
720.257	309.39
720.661	339.82
721.065	290.67
721.468	344.5
721.872	274.28
722.275	283.64
722.679	314.07
723.082	363.22
723.485	311.73
723.889	290.67
724.292	262.58
724.695	337.48
725.098	302.37
725.501	393.65
725.904	316.41
726.307	339.82
726.71	307.05
727.113	374.92
727.516	321.09
727.918	395.99
728.321	290.67
728.724	377.27
729.126	353.86
729.529	318.75
729.931	323.43
730.333	264.92
730.736	267.26
731.138	269.6
731.54	278.96
731.942	337.48
732.344	276.62
732.746	346.84
733.148	293.01
733.55	316.41
733.952	269.6
734.354	314.07
734.756	321.09
735.157	342.16
735.559	311.73
735.96	311.73
736.362	342.16
736.763	328.11
737.165	342.16
737.566	332.79
737.967	234.49
738.368	239.17
738.77	321.09
739.171	262.58
739.572	290.67
739.973	316.41
740.374	271.94
740.774	271.94
741.175	400.67
741.576	283.64
741.977	353.86
742.377	325.77
742.778	311.73
743.178	283.64
743.579	328.11
743.979	297.69
744.379	321.09
744.78	351.52
745.18	304.71
745.58	307.05
745.98	321.09
746.38	267.26
746.78	314.07
747.18	257.9
747.58	330.45
747.98	285.98
748.38	271.94
748.779	300.03
749.179	276.62
749.578	360.88
749.978	323.43
750.377	391.31
750.777	339.82
751.176	323.43
751.575	295.35
751.975	300.03
752.374	302.37
752.773	337.48
753.172	351.52
753.571	337.48
753.97	297.69
754.369	309.39
754.768	321.09
755.166	379.61
755.565	250.88
755.964	293.01
756.362	274.28
756.761	323.43
757.159	356.2
757.558	288.32
757.956	351.52
758.354	300.03
758.753	300.03
759.151	316.41
759.549	358.54
759.947	342.16
760.345	288.32
760.743	316.41
761.141	227.47
761.539	318.75
761.936	365.56
762.334	335.14
762.732	283.64
763.129	300.03
763.527	297.69
763.924	288.32
764.322	283.64
764.719	295.35
765.117	311.73
765.514	297.69
765.911	232.15
766.308	271.94
766.705	304.71
767.102	342.16
767.499	302.37
767.896	316.41
768.293	204.07
768.69	337.48
769.086	285.98
769.483	337.48
769.88	255.56
770.276	302.37
770.673	330.45
771.069	281.3
771.466	363.22
771.862	379.61
772.258	295.35
772.654	356.2
773.05	288.32
773.447	335.14
773.843	346.84
774.239	328.11
774.634	363.22
775.03	297.69
775.426	344.5
775.822	316.41
776.218	344.5
776.613	278.96
777.009	335.14
777.404	335.14
777.8	335.14
778.195	293.01
778.59	344.5
778.986	302.37
779.381	353.86
779.776	335.14
780.171	262.58
780.566	283.64
780.961	300.03
781.356	293.01
781.751	288.32
782.146	363.22
782.54	276.62
782.935	330.45
783.33	257.9
783.724	274.28
784.119	321.09
784.513	295.35
784.908	285.98
785.302	239.17
785.696	314.07
786.09	323.43
786.485	332.79
786.879	309.39
787.273	285.98
787.667	253.22
788.061	290.67
788.454	285.98
788.848	278.96
789.242	309.39
789.636	321.09
790.029	288.32
790.423	309.39
790.816	274.28
791.21	283.64
791.603	225.13
791.997	278.96
792.39	264.92
792.783	342.16
793.176	370.24
793.569	311.73
793.962	321.09
794.355	248.54
794.748	332.79
795.141	276.62
795.534	290.67
795.927	304.71
796.319	318.75
796.712	314.07
797.105	267.26
797.497	236.83
797.89	248.54
798.282	236.83
798.674	351.52
799.067	342.16
799.459	351.52
799.851	328.11
800.243	285.98
800.635	290.67
801.027	267.26
801.419	365.56
801.811	325.77
802.203	342.16
802.594	311.73
802.986	332.79
803.378	293.01
803.769	339.82
804.161	300.03
804.552	360.88
804.944	309.39
805.335	346.84
805.726	248.54
806.118	344.5
806.509	332.79
806.9	293.01
807.291	311.73
807.682	276.62
808.073	255.56
808.464	300.03
808.855	304.71
809.245	318.75
809.636	346.84
810.027	309.39
810.417	255.56
810.808	388.97
811.198	325.77
811.589	363.22
811.979	339.82
812.369	304.71
812.759	328.11
813.15	349.18
813.54	297.69
813.93	257.9
814.32	304.71
814.71	283.64
815.1	318.75
815.489	349.18
815.879	281.3
816.269	257.9
816.658	314.07
817.048	307.05
817.438	285.98
817.827	325.77
818.216	323.43
818.606	318.75
818.995	250.88
819.384	253.22
819.773	302.37
820.163	309.39
820.552	386.63
820.941	325.77
821.33	358.54
821.718	314.07
822.107	344.5
822.496	328.11
822.885	330.45
823.273	337.48
823.662	290.67
824.05	377.27
824.439	288.32
824.827	309.39
825.216	311.73
825.604	293.01
825.992	323.43
826.38	288.32
826.768	307.05
827.156	328.11
827.544	267.26
827.932	309.39
828.32	353.86
828.708	255.56
829.096	278.96
829.483	290.67
829.871	316.41
830.259	293.01
830.646	304.71
831.034	325.77
831.421	274.28
831.808	302.37
832.196	248.54
832.583	304.71
832.97	339.82
833.357	304.71
833.744	248.54
834.131	281.3
834.518	281.3
834.905	281.3
835.292	365.56
835.678	225.13
836.065	241.51
836.452	227.47
836.838	339.82
837.225	311.73
837.611	321.09
837.998	349.18
838.384	281.3
838.77	328.11
839.157	281.3
839.543	248.54
839.929	257.9
840.315	349.18
840.701	250.88
841.087	246.2
841.473	332.79
841.858	323.43
842.244	342.16
842.63	325.77
843.015	318.75
843.401	590.25
843.787	304.71
844.172	239.17
844.557	302.37
844.943	288.32
845.328	353.86
845.713	300.03
846.098	304.71
846.483	323.43
846.868	316.41
847.253	410.03
847.638	363.22
848.023	271.94
848.408	290.67
848.793	335.14
849.177	307.05
849.562	358.54
849.947	330.45
850.331	335.14
850.715	311.73
851.1	325.77
851.484	337.48
851.868	290.67
852.253	372.58
852.637	328.11
853.021	344.5
853.405	325.77
853.789	269.6
854.173	278.96
854.557	335.14
854.94	278.96
855.324	311.73
855.708	335.14
856.091	344.5
856.475	293.01
856.858	321.09
857.242	314.07
857.625	321.09
858.009	325.77
858.392	253.22
858.775	323.43
859.158	351.52
859.541	328.11
859.924	302.37
860.307	372.58
860.69	332.79
861.073	314.07
861.456	293.01
861.838	276.62
862.221	358.54
862.604	314.07
862.986	257.9
863.369	285.98
863.751	281.3
864.133	285.98
864.516	323.43
864.898	285.98
865.28	346.84
865.662	325.77
866.044	295.35
866.426	346.84
866.808	328.11
867.19	255.56
867.572	307.05
867.954	304.71
868.336	293.01
868.717	335.14
869.099	262.58
869.48	293.01
869.862	337.48
870.243	370.24
870.625	283.64
871.006	293.01
871.387	351.52
871.768	367.9
872.149	328.11
872.53	379.61
872.911	304.71
873.292	346.84
873.673	328.11
874.054	335.14
874.435	379.61
874.815	314.07
875.196	349.18
875.577	330.45
875.957	246.2
876.338	346.84
876.718	314.07
877.098	285.98
877.479	328.11
877.859	342.16
878.239	311.73
878.619	290.67
878.999	239.17
879.379	278.96
879.759	314.07
880.139	314.07
880.519	260.24
880.898	314.07
881.278	283.64
881.658	360.88
882.037	290.67
882.417	297.69
882.796	215.77
883.176	318.75
883.555	290.67
883.934	283.64
884.313	339.82
884.693	307.05
885.072	302.37
885.451	330.45
885.83	314.07
886.209	257.9
886.587	330.45
886.966	285.98
887.345	351.52
887.724	318.75
888.102	328.11
888.481	304.71
888.859	360.88
889.238	267.26
889.616	283.64
889.994	297.69
890.373	300.03
890.751	262.58
891.129	262.58
891.507	276.62
891.885	321.09
892.263	325.77
892.641	288.32
893.019	302.37
893.396	285.98
893.774	332.79
894.152	232.15
894.529	339.82
894.907	323.43
895.284	379.61
895.662	323.43
896.039	325.77
896.416	271.94
896.794	323.43
897.171	234.49
897.548	271.94
897.925	302.37
898.302	316.41
898.679	318.75
899.056	278.96
899.433	274.28
899.809	337.48
900.186	307.05
900.563	283.64
900.939	353.86
901.316	332.79
901.692	250.88
902.069	297.69
902.445	290.67
902.821	283.64
903.197	285.98
903.574	316.41
903.95	339.82
904.326	344.5
904.702	225.13
905.078	351.52
905.454	367.9
905.829	267.26
906.205	274.28
906.581	311.73
906.956	314.07
907.332	300.03
907.707	346.84
908.083	323.43
908.458	360.88
908.833	332.79
909.209	367.9
909.584	307.05
909.959	346.84
910.334	314.07
910.709	271.94
911.084	262.58
911.459	391.31
911.834	302.37
912.209	342.16
912.583	344.5
912.958	330.45
913.333	264.92
913.707	337.48
914.082	337.48
914.456	321.09
914.83	257.9
915.205	360.88
915.579	325.77
915.953	307.05
916.327	323.43
916.701	262.58
917.075	318.75
917.449	311.73
917.823	307.05
918.197	281.3
918.571	339.82
918.944	311.73
919.318	332.79
919.692	288.32
920.065	335.14
920.438	300.03
920.812	323.43
921.185	342.16
921.558	283.64
921.932	293.01
922.305	335.14
922.678	295.35
923.051	271.94
923.424	337.48
923.797	309.39
924.17	344.5
924.542	332.79
924.915	227.47
925.288	283.64
925.661	321.09
926.033	349.18
926.406	229.81
926.778	295.35
927.15	262.58
927.523	365.56
927.895	328.11
928.267	290.67
928.639	309.39
929.011	344.5
929.383	325.77
929.755	307.05
930.127	330.45
930.499	269.6
930.871	330.45
931.242	297.69
931.614	330.45
931.986	309.39
932.357	283.64
932.729	243.85
933.1	297.69
933.471	281.3
933.843	293.01
934.214	342.16
934.585	255.56
934.956	264.92
935.327	260.24
935.698	328.11
936.069	300.03
936.44	285.98
936.811	314.07
937.182	339.82
937.552	283.64
937.923	330.45
938.293	309.39
938.664	229.81
939.034	365.56
939.405	281.3
939.775	300.03
940.145	325.77
940.516	346.84
940.886	363.22
941.256	311.73
941.626	344.5
941.996	344.5
942.366	297.69
942.735	288.32
943.105	314.07
943.475	278.96
943.845	316.41
944.214	307.05
944.584	335.14
944.953	290.67
945.323	250.88
945.692	246.2
946.061	330.45
946.43	316.41
946.8	330.45
947.169	307.05
947.538	295.35
947.907	374.92
948.276	255.56
948.645	267.26
949.013	311.73
949.382	328.11
949.751	293.01
950.119	276.62
950.488	356.2
950.857	370.24
951.225	307.05
951.593	342.16
951.962	332.79
952.33	307.05
952.698	295.35
953.066	321.09
953.434	285.98
953.802	318.75
954.17	288.32
954.538	314.07
954.906	314.07
955.274	300.03
955.642	297.69
956.009	288.32
956.377	290.67
956.744	304.71
957.112	297.69
957.479	307.05
957.847	302.37
958.214	311.73
958.581	351.52
958.948	311.73
959.315	316.41
959.683	346.84
960.05	304.71
960.416	295.35
960.783	267.26
961.15	330.45
961.517	297.69
961.884	290.67
962.25	328.11
962.617	323.43
962.983	337.48
963.35	293.01
963.716	307.05
964.082	316.41
964.449	342.16
964.815	297.69
965.181	276.62
965.547	311.73
965.913	330.45
966.279	356.2
966.645	307.05
967.011	267.26
967.377	271.94
967.742	281.3
968.108	321.09
968.474	372.58
968.839	318.75
969.205	349.18
969.57	335.14
969.935	271.94
970.301	260.24
970.666	307.05
971.031	285.98
971.396	316.41
971.761	307.05
972.126	311.73
972.491	302.37
972.856	351.52
973.221	278.96
973.586	302.37
973.95	346.84
974.315	300.03
974.679	243.85
975.044	236.83
975.408	285.98
975.773	339.82
976.137	339.82
976.501	358.54
976.866	285.98
977.23	314.07
977.594	342.16
977.958	314.07
978.322	337.48
978.686	285.98
979.049	243.85
979.413	314.07
979.777	323.43
980.141	395.99
980.504	290.67
980.868	381.95
981.231	309.39
981.595	285.98
981.958	374.92
982.321	358.54
982.684	325.77
983.048	278.96
983.411	346.84
983.774	316.41
984.137	239.17
984.5	302.37
984.862	330.45
985.225	311.73
985.588	293.01
985.951	360.88
986.313	281.3
986.676	285.98
987.038	318.75
987.401	346.84
987.763	314.07
988.125	316.41
988.488	290.67
988.85	278.96
989.212	353.86
989.574	318.75
989.936	302.37
990.298	288.32
990.66	335.14
991.022	330.45
991.383	307.05
991.745	267.26
992.107	325.77
992.468	372.58
992.83	328.11
993.191	330.45
993.553	332.79
993.914	395.99
994.275	260.24
994.637	349.18
994.998	290.67
995.359	332.79
995.72	267.26
996.081	311.73
996.442	295.35
996.803	344.5
997.163	314.07
997.524	332.79
997.885	234.49
998.245	360.88
998.606	349.18
998.966	360.88
999.327	267.26
999.687	325.77
1000.047	318.75
1000.408	285.98
1000.768	309.39
1001.128	271.94
1001.488	316.41
1001.848	222.79
1002.208	253.22
1002.568	274.28
1002.927	288.32
1003.287	307.05
1003.647	330.45
1004.007	316.41
1004.366	295.35
1004.726	297.69
1005.085	330.45
1005.444	323.43
1005.804	236.83
1006.163	183
1006.522	349.18
1006.881	328.11
1007.24	332.79
1007.599	309.39
1007.958	300.03
1008.317	323.43
1008.676	302.37
1009.035	370.24
1009.393	325.77
1009.752	339.82
1010.111	342.16
1010.469	290.67
1010.828	285.98
1011.186	255.56
1011.544	332.79
1011.903	342.16
1012.261	344.5
1012.619	374.92
1012.977	243.85
1013.335	285.98
1013.693	328.11
1014.051	302.37
1014.409	349.18
1014.767	325.77
1015.124	304.71
1015.482	316.41
1015.84	295.35
1016.197	267.26
1016.555	307.05
1016.912	300.03
1017.269	269.6
1017.627	388.97
1017.984	370.24
1018.341	293.01
1018.698	293.01
1019.055	283.64
1019.412	290.67
1019.769	267.26
1020.126	337.48
1020.483	290.67
1020.84	262.58
1021.196	335.14
1021.553	295.35
1021.909	344.5
1022.266	264.92
1022.622	283.64
1022.979	367.9
1023.335	393.65
1023.691	288.32
1024.047	304.71
1024.404	295.35
1024.76	300.03
1025.116	269.6
1025.472	335.14
1025.827	309.39
1026.183	281.3
1026.539	283.64
1026.895	321.09
1027.25	372.58
1027.606	377.27
1027.961	353.86
1028.317	295.35
1028.672	281.3
1029.028	330.45
1029.383	328.11
1029.738	339.82
1030.093	356.2
1030.448	283.64
1030.803	318.75
1031.158	316.41
1031.513	309.39
1031.868	246.2
1032.223	271.94
1032.577	339.82
1032.932	381.95
1033.287	316.41
1033.641	332.79
1033.996	293.01
1034.35	318.75
1034.704	278.96
1035.059	311.73
1035.413	267.26
1035.767	267.26
1036.121	267.26
