Data from Al_FLMS009871__539__14-41-46-822.txt Node

Date: Fri Mar 08 14:41:46 CST 2024
User: pe5414po
Spectrometer: FLMS00987
Trigger mode: 0
Integration Time (sec): 1.000000E-1
Scans to average: 1
Electric dark correction enabled: true
Nonlinearity correction enabled: false
Boxcar width: 0
XAxis mode: Wavelengths
Number of Pixels in Spectrum: 2048
>>>>>Begin Spectral Data<<<<<
188.938	-63.93
189.409	-63.93
189.879	-63.93
190.349	-108.4
190.819	-73.29
191.29	-124.78
191.76	-120.1
192.23	-77.97
192.7	-38.18
193.17	-63.93
193.64	-42.86
194.109	-17.12
194.579	-19.46
195.049	6.29
195.519	-45.2
195.988	83.53
196.458	34.38
196.927	57.78
197.397	130.34
197.866	109.27
198.336	128
198.805	116.3
199.274	142.04
199.744	165.45
200.213	205.24
200.682	238
201.151	214.6
201.62	249.71
202.089	191.19
202.558	268.43
203.027	275.45
203.495	301.2
203.964	242.68
204.433	345.67
204.902	242.68
205.37	326.94
205.839	273.11
206.307	291.84
206.776	235.66
207.244	235.66
207.712	291.84
208.181	310.56
208.649	333.97
209.117	371.41
209.585	287.15
210.053	338.65
210.521	305.88
210.989	331.62
211.457	331.62
211.925	303.54
212.393	319.92
212.861	331.62
213.328	270.77
213.796	275.45
214.264	275.45
214.731	277.79
215.199	298.86
215.666	338.65
216.133	298.86
216.601	233.32
217.068	289.5
217.535	319.92
218.003	226.3
218.47	301.2
218.937	268.43
219.404	249.71
219.871	277.79
220.338	305.88
220.805	301.2
221.271	289.5
221.738	312.9
222.205	261.41
222.671	275.45
223.138	319.92
223.605	305.88
224.071	312.9
224.538	291.84
225.004	312.9
225.47	268.43
225.937	312.9
226.403	256.73
226.869	235.66
227.335	298.86
227.801	270.77
228.267	298.86
228.733	261.41
229.199	305.88
229.665	324.6
230.131	268.43
230.597	301.2
231.062	202.9
231.528	303.54
231.994	355.03
232.459	336.31
232.925	333.97
233.39	275.45
233.856	312.9
234.321	282.47
234.786	282.47
235.252	280.13
235.717	308.22
236.182	340.99
236.647	273.11
237.112	315.24
237.577	333.97
238.042	287.15
238.507	261.41
238.972	273.11
239.436	256.73
239.901	294.18
240.366	266.09
240.83	221.62
241.295	282.47
241.76	280.13
242.224	298.86
242.688	340.99
243.153	280.13
243.617	277.79
244.081	296.52
244.545	277.79
245.01	284.81
245.474	287.15
245.938	289.5
246.402	275.45
246.866	261.41
247.33	294.18
247.793	298.86
248.257	333.97
248.721	228.64
249.185	362.05
249.648	280.13
250.112	240.34
250.575	312.9
251.039	280.13
251.502	331.62
251.965	390.14
252.429	322.26
252.892	284.81
253.355	282.47
253.818	303.54
254.281	233.32
254.744	294.18
255.207	214.6
255.67	282.47
256.133	266.09
256.596	254.39
257.059	322.26
257.522	305.88
257.984	305.88
258.447	284.81
258.909	263.75
259.372	247.37
259.834	284.81
260.297	326.94
260.759	308.22
261.221	338.65
261.684	298.86
262.146	205.24
262.608	277.79
263.07	301.2
263.532	240.34
263.994	263.75
264.456	296.52
264.918	294.18
265.38	287.15
265.842	261.41
266.303	329.28
266.765	289.5
267.227	331.62
267.688	336.31
268.15	324.6
268.611	319.92
269.072	324.6
269.534	261.41
269.995	301.2
270.456	289.5
270.918	343.33
271.379	331.62
271.84	273.11
272.301	291.84
272.762	287.15
273.223	326.94
273.684	275.45
274.144	315.24
274.605	296.52
275.066	298.86
275.527	305.88
275.987	294.18
276.448	284.81
276.908	331.62
277.369	352.69
277.829	317.58
278.289	209.92
278.75	312.9
279.21	340.99
279.67	312.9
280.13	282.47
280.59	266.09
281.05	294.18
281.51	303.54
281.97	355.03
282.43	268.43
282.89	270.77
283.35	317.58
283.809	350.35
284.269	282.47
284.729	266.09
285.188	352.69
285.648	282.47
286.107	280.13
286.567	315.24
287.026	308.22
287.485	270.77
287.944	324.6
288.404	310.56
288.863	317.58
289.322	343.33
289.781	291.84
290.24	294.18
290.699	310.56
291.158	348.01
291.616	397.16
292.075	362.05
292.534	280.13
292.992	287.15
293.451	338.65
293.91	317.58
294.368	336.31
294.827	305.88
295.285	401.84
295.743	338.65
296.202	315.24
296.66	282.47
297.118	345.67
297.576	310.56
298.034	310.56
298.492	317.58
298.95	301.2
299.408	310.56
299.866	235.66
300.324	362.05
300.781	352.69
301.239	329.28
301.697	273.11
302.154	305.88
302.612	373.75
303.069	298.86
303.527	305.88
303.984	310.56
304.441	219.28
304.899	287.15
305.356	273.11
305.813	317.58
306.27	273.11
306.727	336.31
307.184	298.86
307.641	333.97
308.098	301.2
308.555	301.2
309.012	385.46
309.468	291.84
309.925	280.13
310.382	305.88
310.838	296.52
311.295	338.65
311.751	352.69
312.208	301.2
312.664	308.22
313.12	392.48
313.577	263.75
314.033	280.13
314.489	305.88
314.945	273.11
315.401	329.28
315.857	287.15
316.313	296.52
316.769	289.5
317.225	301.2
317.681	371.41
318.136	326.94
318.592	280.13
319.048	352.69
319.503	301.2
319.959	298.86
320.414	296.52
320.869	315.24
321.325	345.67
321.78	385.46
322.235	362.05
322.691	298.86
323.146	359.71
323.601	301.2
324.056	348.01
324.511	340.99
324.966	291.84
325.421	345.67
325.875	376.09
326.33	352.69
326.785	289.5
327.24	296.52
327.694	282.47
328.149	319.92
328.603	308.22
329.058	376.09
329.512	308.22
329.966	338.65
330.421	329.28
330.875	333.97
331.329	310.56
331.783	259.07
332.237	310.56
332.691	319.92
333.145	340.99
333.599	352.69
334.053	289.5
334.507	329.28
334.96	282.47
335.414	317.58
335.868	387.8
336.321	352.69
336.775	329.28
337.228	371.41
337.682	380.78
338.135	270.77
338.588	294.18
339.042	348.01
339.495	308.22
339.948	317.58
340.401	319.92
340.854	340.99
341.307	291.84
341.76	324.6
342.213	296.52
342.666	291.84
343.119	317.58
343.571	352.69
344.024	308.22
344.477	294.18
344.929	277.79
345.382	310.56
345.834	266.09
346.287	343.33
346.739	308.22
347.191	308.22
347.644	310.56
348.096	345.67
348.548	270.77
349	305.88
349.452	254.39
349.904	352.69
350.356	348.01
350.808	315.24
351.26	364.39
351.711	324.6
352.163	373.75
352.615	357.37
353.066	331.62
353.518	338.65
353.969	336.31
354.421	343.33
354.872	310.56
355.324	345.67
355.775	394.82
356.226	273.11
356.677	373.75
357.128	259.07
357.579	305.88
358.03	319.92
358.481	319.92
358.932	380.78
359.383	298.86
359.834	397.16
360.285	380.78
360.735	296.52
361.186	294.18
361.637	315.24
362.087	350.35
362.538	364.39
362.988	242.68
363.438	336.31
363.889	336.31
364.339	392.48
364.789	291.84
365.239	310.56
365.689	296.52
366.139	282.47
366.589	263.75
367.039	305.88
367.489	333.97
367.939	270.77
368.389	343.33
368.839	301.2
369.288	298.86
369.738	284.81
370.187	282.47
370.637	331.62
371.086	338.65
371.536	291.84
371.985	308.22
372.434	380.78
372.884	247.37
373.333	352.69
373.782	357.37
374.231	319.92
374.68	261.41
375.129	326.94
375.578	340.99
376.027	319.92
376.475	282.47
376.924	357.37
377.373	305.88
377.822	298.86
378.27	310.56
378.719	352.69
379.167	348.01
379.616	355.03
380.064	301.2
380.512	287.15
380.961	331.62
381.409	357.37
381.857	315.24
382.305	287.15
382.753	378.44
383.201	369.07
383.649	315.24
384.097	340.99
384.545	331.62
384.992	308.22
385.44	303.54
385.888	383.12
386.335	364.39
386.783	415.88
387.231	390.14
387.678	298.86
388.125	366.73
388.573	291.84
389.02	242.68
389.467	308.22
389.914	343.33
390.362	371.41
390.809	277.79
391.256	319.92
391.703	357.37
392.15	336.31
392.596	340.99
393.043	289.5
393.49	329.28
393.937	357.37
394.383	263.75
394.83	294.18
395.276	338.65
395.723	324.6
396.169	319.92
396.616	319.92
397.062	350.35
397.508	310.56
397.954	322.26
398.401	362.05
398.847	338.65
399.293	317.58
399.739	324.6
400.185	406.52
400.631	312.9
401.076	315.24
401.522	352.69
401.968	322.26
402.414	256.73
402.859	317.58
403.305	270.77
403.75	266.09
404.196	392.48
404.641	340.99
405.086	319.92
405.532	352.69
405.977	369.07
406.422	338.65
406.867	345.67
407.312	404.18
407.757	294.18
408.202	317.58
408.647	366.73
409.092	380.78
409.537	366.73
409.982	294.18
410.426	296.52
410.871	348.01
411.316	317.58
411.76	357.37
412.205	364.39
412.649	340.99
413.093	362.05
413.538	235.66
413.982	310.56
414.426	324.6
414.87	350.35
415.314	284.81
415.758	310.56
416.202	329.28
416.646	340.99
417.09	294.18
417.534	340.99
417.978	310.56
418.421	310.56
418.865	392.48
419.309	373.75
419.752	294.18
420.196	310.56
420.639	357.37
421.083	287.15
421.526	305.88
421.969	345.67
422.412	343.33
422.856	296.52
423.299	326.94
423.742	340.99
424.185	376.09
424.628	359.71
425.071	350.35
425.513	343.33
425.956	340.99
426.399	310.56
426.842	350.35
427.284	275.45
427.727	350.35
428.169	387.8
428.612	324.6
429.054	289.5
429.497	312.9
429.939	336.31
430.381	336.31
430.823	289.5
431.265	371.41
431.707	308.22
432.149	319.92
432.591	338.65
433.033	366.73
433.475	345.67
433.917	371.41
434.359	427.59
434.8	348.01
435.242	380.78
435.684	338.65
436.125	369.07
436.567	345.67
437.008	385.46
437.449	303.54
437.891	273.11
438.332	392.48
438.773	305.88
439.214	376.09
439.656	350.35
440.097	357.37
440.538	380.78
440.978	294.18
441.419	301.2
441.86	401.84
442.301	371.41
442.742	298.86
443.182	355.03
443.623	287.15
444.063	324.6
444.504	345.67
444.944	338.65
445.385	333.97
445.825	331.62
446.265	294.18
446.706	348.01
447.146	348.01
447.586	326.94
448.026	355.03
448.466	317.58
448.906	385.46
449.346	333.97
449.786	333.97
450.225	343.33
450.665	385.46
451.105	366.73
451.544	369.07
451.984	345.67
452.424	289.5
452.863	366.73
453.302	291.84
453.742	331.62
454.181	348.01
454.62	408.86
455.059	348.01
455.499	296.52
455.938	322.26
456.377	352.69
456.816	350.35
457.254	324.6
457.693	326.94
458.132	326.94
458.571	289.5
459.01	340.99
459.448	369.07
459.887	343.33
460.325	296.52
460.764	296.52
461.202	336.31
461.641	373.75
462.079	336.31
462.517	322.26
462.955	373.75
463.393	305.88
463.832	404.18
464.27	380.78
464.708	312.9
465.145	380.78
465.583	364.39
466.021	352.69
466.459	317.58
466.897	345.67
467.334	340.99
467.772	324.6
468.209	303.54
468.647	371.41
469.084	362.05
469.522	397.16
469.959	289.5
470.396	355.03
470.833	397.16
471.271	331.62
471.708	331.62
472.145	296.52
472.582	338.65
473.019	322.26
473.456	350.35
473.892	340.99
474.329	317.58
474.766	305.88
475.202	350.35
475.639	317.58
476.076	294.18
476.512	273.11
476.949	364.39
477.385	322.26
477.821	371.41
478.258	252.05
478.694	329.28
479.13	254.39
479.566	331.62
480.002	331.62
480.438	376.09
480.874	315.24
481.31	305.88
481.746	326.94
482.181	331.62
482.617	319.92
483.053	261.41
483.488	312.9
483.924	371.41
484.36	298.86
484.795	310.56
485.23	348.01
485.666	326.94
486.101	369.07
486.536	319.92
486.971	319.92
487.407	362.05
487.842	319.92
488.277	331.62
488.712	324.6
489.146	324.6
489.581	322.26
490.016	273.11
490.451	308.22
490.885	336.31
491.32	373.75
491.755	355.03
492.189	362.05
492.624	385.46
493.058	301.2
493.492	324.6
493.927	357.37
494.361	294.18
494.795	268.43
495.229	319.92
495.663	331.62
496.097	338.65
496.531	364.39
496.965	364.39
497.399	329.28
497.833	331.62
498.266	338.65
498.7	390.14
499.134	422.91
499.567	362.05
500.001	369.07
500.434	343.33
500.868	280.13
501.301	319.92
501.734	275.45
502.168	298.86
502.601	270.77
503.034	319.92
503.467	301.2
503.9	312.9
504.333	366.73
504.766	366.73
505.199	282.47
505.632	333.97
506.064	317.58
506.497	352.69
506.93	310.56
507.362	352.69
507.795	308.22
508.227	315.24
508.66	350.35
509.092	390.14
509.524	298.86
509.956	296.52
510.389	340.99
510.821	303.54
511.253	308.22
511.685	291.84
512.117	280.13
512.549	397.16
512.981	252.05
513.412	277.79
513.844	366.73
514.276	357.37
514.707	397.16
515.139	305.88
515.571	439.29
516.002	287.15
516.433	333.97
516.865	266.09
517.296	284.81
517.727	305.88
518.159	317.58
518.59	340.99
519.021	322.26
519.452	345.67
519.883	308.22
520.314	324.6
520.744	303.54
521.175	359.71
521.606	408.86
522.037	324.6
522.467	345.67
522.898	275.45
523.328	340.99
523.759	317.58
524.189	280.13
524.62	362.05
525.05	280.13
525.48	336.31
525.91	338.65
526.341	315.24
526.771	298.86
527.201	319.92
527.631	343.33
528.061	338.65
528.49	355.03
528.92	366.73
529.35	333.97
529.78	336.31
530.209	324.6
530.639	324.6
531.068	310.56
531.498	317.58
531.927	343.33
532.357	383.12
532.786	364.39
533.215	329.28
533.644	305.88
534.074	308.22
534.503	273.11
534.932	376.09
535.361	315.24
535.79	350.35
536.218	338.65
536.647	338.65
537.076	329.28
537.505	317.58
537.933	308.22
538.362	305.88
538.79	333.97
539.219	319.92
539.647	362.05
540.076	357.37
540.504	355.03
540.932	387.8
541.36	376.09
541.788	317.58
542.217	366.73
542.645	305.88
543.073	322.26
543.5	301.2
543.928	338.65
544.356	352.69
544.784	350.35
545.211	359.71
545.639	319.92
546.067	362.05
546.494	340.99
546.922	345.67
547.349	355.03
547.776	315.24
548.204	387.8
548.631	308.22
549.058	319.92
549.485	268.43
549.912	308.22
550.339	355.03
550.766	273.11
551.193	357.37
551.62	275.45
552.047	333.97
552.474	362.05
552.9	329.28
553.327	362.05
553.754	317.58
554.18	266.09
554.607	322.26
555.033	362.05
555.459	280.13
555.886	338.65
556.312	336.31
556.738	294.18
557.164	317.58
557.59	343.33
558.016	357.37
558.442	380.78
558.868	308.22
559.294	348.01
559.72	270.77
560.145	408.86
560.571	345.67
560.997	362.05
561.422	287.15
561.848	333.97
562.273	378.44
562.699	357.37
563.124	322.26
563.549	387.8
563.974	336.31
564.4	322.26
564.825	362.05
565.25	312.9
565.675	294.18
566.1	343.33
566.525	355.03
566.95	331.62
567.374	322.26
567.799	378.44
568.224	322.26
568.648	376.09
569.073	331.62
569.497	312.9
569.922	326.94
570.346	331.62
570.771	319.92
571.195	303.54
571.619	336.31
572.043	315.24
572.467	308.22
572.891	329.28
573.315	317.58
573.739	291.84
574.163	326.94
574.587	333.97
575.011	273.11
575.435	282.47
575.858	371.41
576.282	273.11
576.705	364.39
577.129	296.52
577.552	338.65
577.976	340.99
578.399	366.73
578.822	329.28
579.245	364.39
579.669	366.73
580.092	294.18
580.515	268.43
580.938	343.33
581.361	305.88
581.784	315.24
582.206	308.22
582.629	322.26
583.052	326.94
583.474	317.58
583.897	238
584.32	338.65
584.742	289.5
585.165	357.37
585.587	357.37
586.009	308.22
586.431	348.01
586.854	329.28
587.276	333.97
587.698	305.88
588.12	310.56
588.542	296.52
588.964	338.65
589.386	303.54
589.807	425.25
590.229	305.88
590.651	373.75
591.073	376.09
591.494	294.18
591.916	317.58
592.337	406.52
592.759	319.92
593.18	376.09
593.601	326.94
594.022	329.28
594.444	331.62
594.865	310.56
595.286	319.92
595.707	348.01
596.128	282.47
596.549	340.99
596.97	343.33
597.39	310.56
597.811	338.65
598.232	352.69
598.652	340.99
599.073	317.58
599.494	315.24
599.914	333.97
600.334	322.26
600.755	336.31
601.175	338.65
601.595	284.81
602.015	322.26
602.436	355.03
602.856	474.4
603.276	338.65
603.696	331.62
604.115	308.22
604.535	357.37
604.955	369.07
605.375	357.37
605.794	322.26
606.214	287.15
606.634	319.92
607.053	322.26
607.473	357.37
607.892	359.71
608.311	326.94
608.731	319.92
609.15	280.13
609.569	333.97
609.988	359.71
610.407	380.78
610.826	357.37
611.245	249.71
611.664	308.22
612.083	401.84
612.501	303.54
612.92	333.97
613.339	350.35
613.757	357.37
614.176	329.28
614.594	308.22
615.013	312.9
615.431	364.39
615.85	338.65
616.268	319.92
616.686	324.6
617.104	312.9
617.522	315.24
617.94	357.37
618.358	390.14
618.776	322.26
619.194	378.44
619.612	331.62
620.03	352.69
620.447	289.5
620.865	284.81
621.282	336.31
621.7	289.5
622.117	303.54
622.535	380.78
622.952	294.18
623.369	362.05
623.787	333.97
624.204	312.9
624.621	317.58
625.038	439.29
625.455	331.62
625.872	340.99
626.289	312.9
626.706	371.41
627.123	277.79
627.539	317.58
627.956	242.68
628.373	322.26
628.789	336.31
629.206	336.31
629.622	333.97
630.038	319.92
630.455	331.62
630.871	338.65
631.287	394.82
631.703	312.9
632.12	315.24
632.536	326.94
632.952	394.82
633.368	301.2
633.783	378.44
634.199	312.9
634.615	357.37
635.031	305.88
635.446	343.33
635.862	308.22
636.277	308.22
636.693	408.86
637.108	331.62
637.524	355.03
637.939	348.01
638.354	319.92
638.77	336.31
639.185	373.75
639.6	380.78
640.015	371.41
640.43	282.47
640.845	329.28
641.259	371.41
641.674	233.32
642.089	247.37
642.504	352.69
642.918	333.97
643.333	294.18
643.747	301.2
644.162	261.41
644.576	308.22
644.991	326.94
645.405	350.35
645.819	310.56
646.233	324.6
646.647	273.11
647.061	399.5
647.475	359.71
647.889	310.56
648.303	345.67
648.717	371.41
649.131	331.62
649.545	355.03
649.958	324.6
650.372	348.01
650.785	383.12
651.199	312.9
651.612	254.39
652.026	322.26
652.439	310.56
652.852	287.15
653.266	275.45
653.679	305.88
654.092	308.22
654.505	343.33
654.918	345.67
655.331	322.26
655.744	340.99
656.156	380.78
656.569	383.12
656.982	319.92
657.394	331.62
657.807	308.22
658.22	378.44
658.632	291.84
659.044	348.01
659.457	340.99
659.869	348.01
660.281	308.22
660.693	376.09
661.106	287.15
661.518	322.26
661.93	352.69
662.342	338.65
662.754	362.05
663.165	322.26
663.577	355.03
663.989	303.54
664.401	343.33
664.812	383.12
665.224	322.26
665.635	287.15
666.047	266.09
666.458	289.5
666.869	329.28
667.281	294.18
667.692	369.07
668.103	364.39
668.514	329.28
668.925	273.11
669.336	308.22
669.747	359.71
670.158	343.33
670.569	362.05
670.979	390.14
671.39	315.24
671.801	326.94
672.211	345.67
672.622	392.48
673.032	364.39
673.443	364.39
673.853	338.65
674.263	366.73
674.674	366.73
675.084	324.6
675.494	371.41
675.904	240.34
676.314	357.37
676.724	296.52
677.134	336.31
677.544	284.81
677.953	322.26
678.363	338.65
678.773	340.99
679.182	390.14
679.592	294.18
680.001	364.39
680.411	310.56
680.82	359.71
681.23	322.26
681.639	331.62
682.048	301.2
682.457	329.28
682.866	373.75
683.275	308.22
683.684	270.77
684.093	362.05
684.502	305.88
684.911	277.79
685.32	333.97
685.728	254.39
686.137	294.18
686.546	350.35
686.954	355.03
687.363	345.67
687.771	310.56
688.179	373.75
688.588	284.81
688.996	333.97
689.404	305.88
689.812	301.2
690.22	315.24
690.628	350.35
691.036	322.26
691.444	340.99
691.852	362.05
692.26	280.13
692.667	317.58
693.075	378.44
693.483	387.8
693.89	397.16
694.298	329.28
694.705	315.24
695.112	326.94
695.52	383.12
695.927	336.31
696.334	343.33
696.741	312.9
697.148	348.01
697.555	296.52
697.962	324.6
698.369	312.9
698.776	322.26
699.183	282.47
699.59	364.39
699.996	331.62
700.403	355.03
700.81	317.58
701.216	324.6
701.623	352.69
702.029	270.77
702.435	287.15
702.842	352.69
703.248	369.07
703.654	317.58
704.06	333.97
704.466	364.39
704.872	350.35
705.278	340.99
705.684	333.97
706.09	326.94
706.496	291.84
706.901	355.03
707.307	294.18
707.712	336.31
708.118	315.24
708.523	305.88
708.929	310.56
709.334	355.03
709.74	329.28
710.145	242.68
710.55	331.62
710.955	357.37
711.36	338.65
711.765	301.2
712.17	305.88
712.575	266.09
712.98	797.39
713.385	371.41
713.789	324.6
714.194	280.13
714.599	359.71
715.003	315.24
715.408	331.62
715.812	312.9
716.217	324.6
716.621	308.22
717.025	303.54
717.429	298.86
717.833	373.75
718.238	322.26
718.642	324.6
719.046	364.39
719.449	287.15
719.853	291.84
720.257	364.39
720.661	303.54
721.065	333.97
721.468	340.99
721.872	385.46
722.275	338.65
722.679	298.86
723.082	411.2
723.485	345.67
723.889	291.84
724.292	324.6
724.695	273.11
725.098	291.84
725.501	296.52
725.904	329.28
726.307	284.81
726.71	329.28
727.113	338.65
727.516	312.9
727.918	413.54
728.321	336.31
728.724	305.88
729.126	282.47
729.529	326.94
729.931	315.24
730.333	296.52
730.736	387.8
731.138	305.88
731.54	268.43
731.942	317.58
732.344	298.86
732.746	326.94
733.148	369.07
733.55	289.5
733.952	357.37
734.354	338.65
734.756	357.37
735.157	369.07
735.559	324.6
735.96	338.65
736.362	404.18
736.763	357.37
737.165	280.13
737.566	308.22
737.967	319.92
738.368	310.56
738.77	319.92
739.171	390.14
739.572	371.41
739.973	329.28
740.374	301.2
740.774	418.22
741.175	340.99
741.576	322.26
741.977	352.69
742.377	357.37
742.778	326.94
743.178	247.37
743.579	261.41
743.979	350.35
744.379	362.05
744.78	329.28
745.18	350.35
745.58	296.52
745.98	326.94
746.38	308.22
746.78	376.09
747.18	298.86
747.58	355.03
747.98	399.5
748.38	305.88
748.779	329.28
749.179	333.97
749.578	310.56
749.978	275.45
750.377	303.54
750.777	394.82
751.176	340.99
751.575	333.97
751.975	298.86
752.374	195.87
752.773	287.15
753.172	280.13
753.571	308.22
753.97	310.56
754.369	338.65
754.768	298.86
755.166	287.15
755.565	287.15
755.964	338.65
756.362	282.47
756.761	277.79
757.159	275.45
757.558	326.94
757.956	329.28
758.354	362.05
758.753	397.16
759.151	326.94
759.549	385.46
759.947	338.65
760.345	317.58
760.743	195.87
761.141	296.52
761.539	319.92
761.936	301.2
762.334	301.2
762.732	324.6
763.129	336.31
763.527	310.56
763.924	324.6
764.322	343.33
764.719	317.58
765.117	315.24
765.514	357.37
765.911	322.26
766.308	373.75
766.705	362.05
767.102	336.31
767.499	352.69
767.896	355.03
768.293	315.24
768.69	322.26
769.086	310.56
769.483	242.68
769.88	343.33
770.276	355.03
770.673	270.77
771.069	277.79
771.466	343.33
771.862	270.77
772.258	329.28
772.654	366.73
773.05	275.45
773.447	336.31
773.843	385.46
774.239	315.24
774.634	315.24
775.03	322.26
775.426	296.52
775.822	305.88
776.218	219.28
776.613	331.62
777.009	284.81
777.404	289.5
777.8	326.94
778.195	340.99
778.59	392.48
778.986	298.86
779.381	291.84
779.776	329.28
780.171	340.99
780.566	301.2
780.961	380.78
781.356	436.95
781.751	296.52
782.146	326.94
782.54	357.37
782.935	336.31
783.33	331.62
783.724	312.9
784.119	301.2
784.513	329.28
784.908	329.28
785.302	345.67
785.696	317.58
786.09	296.52
786.485	287.15
786.879	273.11
787.273	301.2
787.667	366.73
788.061	331.62
788.454	326.94
788.848	324.6
789.242	198.21
789.636	249.71
790.029	317.58
790.423	352.69
790.816	331.62
791.21	371.41
791.603	322.26
791.997	333.97
792.39	266.09
792.783	289.5
793.176	359.71
793.569	284.81
793.962	383.12
794.355	364.39
794.748	343.33
795.141	303.54
795.534	317.58
795.927	305.88
796.319	277.79
796.712	322.26
797.105	326.94
797.497	296.52
797.89	331.62
798.282	340.99
798.674	303.54
799.067	362.05
799.459	308.22
799.851	397.16
800.243	326.94
800.635	289.5
801.027	308.22
801.419	333.97
801.811	308.22
802.203	319.92
802.594	329.28
802.986	277.79
803.378	336.31
803.769	390.14
804.161	338.65
804.552	348.01
804.944	336.31
805.335	287.15
805.726	322.26
806.118	366.73
806.509	245.02
806.9	287.15
807.291	280.13
807.682	345.67
808.073	296.52
808.464	319.92
808.855	312.9
809.245	310.56
809.636	259.07
810.027	294.18
810.417	338.65
810.808	392.48
811.198	324.6
811.589	275.45
811.979	317.58
812.369	296.52
812.759	277.79
813.15	336.31
813.54	350.35
813.93	371.41
814.32	340.99
814.71	298.86
815.1	305.88
815.489	364.39
815.879	289.5
816.269	298.86
816.658	366.73
817.048	364.39
817.438	287.15
817.827	324.6
818.216	296.52
818.606	329.28
818.995	376.09
819.384	303.54
819.773	364.39
820.163	350.35
820.552	329.28
820.941	301.2
821.33	364.39
821.718	329.28
822.107	308.22
822.496	319.92
822.885	371.41
823.273	277.79
823.662	235.66
824.05	333.97
824.439	376.09
824.827	275.45
825.216	280.13
825.604	348.01
825.992	284.81
826.38	305.88
826.768	275.45
827.156	296.52
827.544	268.43
827.932	326.94
828.32	383.12
828.708	378.44
829.096	331.62
829.483	280.13
829.871	362.05
830.259	385.46
830.646	289.5
831.034	317.58
831.421	380.78
831.808	350.35
832.196	366.73
832.583	348.01
832.97	343.33
833.357	312.9
833.744	322.26
834.131	338.65
834.518	348.01
834.905	312.9
835.292	312.9
835.678	317.58
836.065	301.2
836.452	352.69
836.838	303.54
837.225	261.41
837.611	333.97
837.998	301.2
838.384	289.5
838.77	331.62
839.157	319.92
839.543	294.18
839.929	324.6
840.315	287.15
840.701	326.94
841.087	352.69
841.473	326.94
841.858	378.44
842.244	350.35
842.63	305.88
843.015	256.73
843.401	582.06
843.787	378.44
844.172	336.31
844.557	322.26
844.943	420.57
845.328	352.69
845.713	308.22
846.098	291.84
846.483	359.71
846.868	366.73
847.253	336.31
847.638	348.01
848.023	324.6
848.408	373.75
848.793	333.97
849.177	343.33
849.562	329.28
849.947	284.81
850.331	333.97
850.715	317.58
851.1	294.18
851.484	357.37
851.868	312.9
852.253	336.31
852.637	371.41
853.021	312.9
853.405	333.97
853.789	340.99
854.173	380.78
854.557	326.94
854.94	373.75
855.324	326.94
855.708	345.67
856.091	359.71
856.475	277.79
856.858	385.46
857.242	240.34
857.625	273.11
858.009	345.67
858.392	270.77
858.775	282.47
859.158	289.5
859.541	310.56
859.924	315.24
860.307	324.6
860.69	305.88
861.073	352.69
861.456	291.84
861.838	247.37
862.221	326.94
862.604	326.94
862.986	369.07
863.369	343.33
863.751	322.26
864.133	291.84
864.516	362.05
864.898	275.45
865.28	345.67
865.662	317.58
866.044	333.97
866.426	270.77
866.808	312.9
867.19	282.47
867.572	329.28
867.954	317.58
868.336	352.69
868.717	303.54
869.099	333.97
869.48	348.01
869.862	315.24
870.243	326.94
870.625	340.99
871.006	383.12
871.387	301.2
871.768	331.62
872.149	362.05
872.53	359.71
872.911	348.01
873.292	366.73
873.673	298.86
874.054	238
874.435	345.67
874.815	366.73
875.196	296.52
875.577	380.78
875.957	336.31
876.338	352.69
876.718	324.6
877.098	256.73
877.479	312.9
877.859	277.79
878.239	298.86
878.619	256.73
878.999	322.26
879.379	340.99
879.759	289.5
880.139	338.65
880.519	369.07
880.898	406.52
881.278	340.99
881.658	277.79
882.037	296.52
882.417	275.45
882.796	355.03
883.176	317.58
883.555	317.58
883.934	294.18
884.313	317.58
884.693	338.65
885.072	338.65
885.451	333.97
885.83	280.13
886.209	263.75
886.587	362.05
886.966	394.82
887.345	336.31
887.724	343.33
888.102	315.24
888.481	331.62
888.859	366.73
889.238	362.05
889.616	340.99
889.994	355.03
890.373	308.22
890.751	301.2
891.129	359.71
891.507	369.07
891.885	352.69
892.263	324.6
892.641	329.28
893.019	270.77
893.396	322.26
893.774	322.26
894.152	289.5
894.529	291.84
894.907	338.65
895.284	280.13
895.662	345.67
896.039	282.47
896.416	296.52
896.794	324.6
897.171	352.69
897.548	348.01
897.925	338.65
898.302	298.86
898.679	359.71
899.056	294.18
899.433	352.69
899.809	268.43
900.186	287.15
900.563	289.5
900.939	340.99
901.316	322.26
901.692	317.58
902.069	294.18
902.445	254.39
902.821	359.71
903.197	303.54
903.574	273.11
903.95	326.94
904.326	338.65
904.702	247.37
905.078	359.71
905.454	324.6
905.829	287.15
906.205	371.41
906.581	294.18
906.956	284.81
907.332	284.81
907.707	266.09
908.083	336.31
908.458	252.05
908.833	294.18
909.209	336.31
909.584	289.5
909.959	329.28
910.334	348.01
910.709	350.35
911.084	287.15
911.459	273.11
911.834	291.84
912.209	343.33
912.583	303.54
912.958	340.99
913.333	296.52
913.707	277.79
914.082	289.5
914.456	289.5
914.83	317.58
915.205	326.94
915.579	355.03
915.953	273.11
916.327	296.52
916.701	305.88
917.075	329.28
917.449	291.84
917.823	366.73
918.197	340.99
918.571	298.86
918.944	287.15
919.318	305.88
919.692	301.2
920.065	303.54
920.438	357.37
920.812	312.9
921.185	294.18
921.558	301.2
921.932	345.67
922.305	305.88
922.678	284.81
923.051	350.35
923.424	338.65
923.797	413.54
924.17	280.13
924.542	312.9
924.915	303.54
925.288	282.47
925.661	399.5
926.033	324.6
926.406	303.54
926.778	298.86
927.15	371.41
927.523	355.03
927.895	317.58
928.267	298.86
928.639	371.41
929.011	294.18
929.383	282.47
929.755	282.47
930.127	305.88
930.499	355.03
930.871	387.8
931.242	296.52
931.614	333.97
931.986	322.26
932.357	305.88
932.729	312.9
933.1	350.35
933.471	336.31
933.843	289.5
934.214	308.22
934.585	322.26
934.956	350.35
935.327	301.2
935.698	287.15
936.069	348.01
936.44	340.99
936.811	303.54
937.182	277.79
937.552	336.31
937.923	352.69
938.293	345.67
938.664	280.13
939.034	340.99
939.405	282.47
939.775	350.35
940.145	319.92
940.516	338.65
940.886	392.48
941.256	338.65
941.626	331.62
941.996	305.88
942.366	287.15
942.735	315.24
943.105	324.6
943.475	355.03
943.845	289.5
944.214	322.26
944.584	284.81
944.953	289.5
945.323	352.69
945.692	371.41
946.061	336.31
946.43	303.54
946.8	338.65
947.169	392.48
947.538	242.68
947.907	371.41
948.276	294.18
948.645	291.84
949.013	352.69
949.382	319.92
949.751	294.18
950.119	331.62
950.488	305.88
950.857	298.86
951.225	329.28
951.593	228.64
951.962	350.35
952.33	298.86
952.698	362.05
953.066	319.92
953.434	383.12
953.802	364.39
954.17	319.92
954.538	326.94
954.906	352.69
955.274	348.01
955.642	362.05
956.009	324.6
956.377	343.33
956.744	326.94
957.112	310.56
957.479	303.54
957.847	312.9
958.214	317.58
958.581	333.97
958.948	352.69
959.315	294.18
959.683	383.12
960.05	296.52
960.416	345.67
960.783	270.77
961.15	340.99
961.517	404.18
961.884	359.71
962.25	329.28
962.617	301.2
962.983	350.35
963.35	376.09
963.716	266.09
964.082	245.02
964.449	277.79
964.815	303.54
965.181	390.14
965.547	355.03
965.913	362.05
966.279	298.86
966.645	298.86
967.011	298.86
967.377	305.88
967.742	312.9
968.108	310.56
968.474	287.15
968.839	310.56
969.205	336.31
969.57	298.86
969.935	333.97
970.301	359.71
970.666	291.84
971.031	329.28
971.396	338.65
971.761	359.71
972.126	397.16
972.491	352.69
972.856	273.11
973.221	324.6
973.586	322.26
973.95	355.03
974.315	275.45
974.679	329.28
975.044	303.54
975.408	359.71
975.773	343.33
976.137	326.94
976.501	291.84
976.866	303.54
977.23	326.94
977.594	303.54
977.958	324.6
978.322	343.33
978.686	345.67
979.049	333.97
979.413	312.9
979.777	303.54
980.141	312.9
980.504	305.88
980.868	359.71
981.231	280.13
981.595	326.94
981.958	317.58
982.321	326.94
982.684	387.8
983.048	333.97
983.411	329.28
983.774	362.05
984.137	315.24
984.5	275.45
984.862	392.48
985.225	376.09
985.588	294.18
985.951	364.39
986.313	359.71
986.676	324.6
987.038	338.65
987.401	373.75
987.763	333.97
988.125	326.94
988.488	355.03
988.85	348.01
989.212	287.15
989.574	275.45
989.936	249.71
990.298	319.92
990.66	352.69
991.022	294.18
991.383	298.86
991.745	326.94
992.107	273.11
992.468	340.99
992.83	359.71
993.191	296.52
993.553	366.73
993.914	282.47
994.275	284.81
994.637	317.58
994.998	308.22
995.359	315.24
995.72	245.02
996.081	345.67
996.442	357.37
996.803	352.69
997.163	303.54
997.524	287.15
997.885	315.24
998.245	296.52
998.606	280.13
998.966	364.39
999.327	308.22
999.687	331.62
1000.047	322.26
1000.408	324.6
1000.768	305.88
1001.128	287.15
1001.488	303.54
1001.848	387.8
1002.208	233.32
1002.568	298.86
1002.927	317.58
1003.287	336.31
1003.647	392.48
1004.007	329.28
1004.366	333.97
1004.726	343.33
1005.085	315.24
1005.444	315.24
1005.804	319.92
1006.163	308.22
1006.522	350.35
1006.881	284.81
1007.24	350.35
1007.599	268.43
1007.958	333.97
1008.317	312.9
1008.676	326.94
1009.035	317.58
1009.393	364.39
1009.752	280.13
1010.111	331.62
1010.469	315.24
1010.828	305.88
1011.186	366.73
1011.544	376.09
1011.903	270.77
1012.261	294.18
1012.619	294.18
1012.977	315.24
1013.335	310.56
1013.693	324.6
1014.051	294.18
1014.409	289.5
1014.767	369.07
1015.124	305.88
1015.482	308.22
1015.84	345.67
1016.197	348.01
1016.555	350.35
1016.912	303.54
1017.269	305.88
1017.627	329.28
1017.984	305.88
1018.341	303.54
1018.698	256.73
1019.055	275.45
1019.412	315.24
1019.769	312.9
1020.126	294.18
1020.483	303.54
1020.84	266.09
1021.196	350.35
1021.553	298.86
1021.909	280.13
1022.266	280.13
1022.622	308.22
1022.979	364.39
1023.335	385.46
1023.691	324.6
1024.047	315.24
1024.404	305.88
1024.76	277.79
1025.116	343.33
1025.472	369.07
1025.827	355.03
1026.183	270.77
1026.539	322.26
1026.895	298.86
1027.25	326.94
1027.606	366.73
1027.961	273.11
1028.317	280.13
1028.672	301.2
1029.028	394.82
1029.383	380.78
1029.738	305.88
1030.093	352.69
1030.448	310.56
1030.803	348.01
1031.158	298.86
1031.513	340.99
1031.868	322.26
1032.223	333.97
1032.577	310.56
1032.932	329.28
1033.287	280.13
1033.641	312.9
1033.996	322.26
1034.35	301.2
1034.704	329.28
1035.059	263.75
1035.413	284.81
1035.767	284.81
1036.121	284.81
