Data from Al_FLMS009871__525__14-41-45-423.txt Node

Date: Fri Mar 08 14:41:45 CST 2024
User: pe5414po
Spectrometer: FLMS00987
Trigger mode: 0
Integration Time (sec): 1.000000E-1
Scans to average: 1
Electric dark correction enabled: true
Nonlinearity correction enabled: false
Boxcar width: 0
XAxis mode: Wavelengths
Number of Pixels in Spectrum: 2048
>>>>>Begin Spectral Data<<<<<
188.938	-77.53
189.409	-77.53
189.879	-77.53
190.349	-79.87
190.819	-114.98
191.29	-180.51
191.76	-63.49
192.23	-56.47
192.7	-129.02
193.17	-16.68
193.64	-44.76
194.109	-9.65
194.579	4.39
195.049	-51.78
195.519	55.88
195.988	23.11
196.458	55.88
196.927	58.22
197.397	81.63
197.866	112.05
198.336	161.2
198.805	65.24
199.274	191.63
199.744	151.84
200.213	243.12
200.682	200.99
201.151	163.54
201.62	282.91
202.089	261.85
202.558	215.04
203.027	236.1
203.495	231.42
203.964	247.8
204.433	266.53
204.902	252.49
205.37	261.85
205.839	306.32
206.307	268.87
206.776	339.09
207.244	229.08
207.712	247.8
208.181	315.68
208.649	334.4
209.117	327.38
209.585	357.81
210.053	306.32
210.521	193.97
210.989	306.32
211.457	308.66
211.925	341.43
212.393	292.27
212.861	292.27
213.328	240.78
213.796	261.85
214.264	301.64
214.731	233.76
215.199	299.3
215.666	245.46
216.133	285.25
216.601	271.21
217.068	303.98
217.535	247.8
218.003	303.98
218.47	245.46
218.937	266.53
219.404	226.74
219.871	292.27
220.338	203.33
220.805	243.12
221.271	292.27
221.738	280.57
222.205	332.06
222.671	264.19
223.138	275.89
223.605	266.53
224.071	247.8
224.538	268.87
225.004	261.85
225.47	240.78
225.937	278.23
226.403	311
226.869	259.51
227.335	336.74
227.801	287.59
228.267	292.27
228.733	271.21
229.199	278.23
229.665	355.47
230.131	259.51
230.597	182.27
231.062	275.89
231.528	250.14
231.994	289.93
232.459	273.55
232.925	334.4
233.39	226.74
233.856	231.42
234.321	280.57
234.786	332.06
235.252	339.09
235.717	266.53
236.182	306.32
236.647	266.53
237.112	259.51
237.577	252.49
238.042	282.91
238.507	301.64
238.972	315.68
239.436	268.87
239.901	294.61
240.366	280.57
240.83	266.53
241.295	254.83
241.76	287.59
242.224	264.19
242.688	280.57
243.153	334.4
243.617	238.44
244.081	273.55
244.545	299.3
245.01	289.93
245.474	301.64
245.938	179.93
246.402	219.72
246.866	271.21
247.33	294.61
247.793	308.66
248.257	233.76
248.721	301.64
249.185	299.3
249.648	226.74
250.112	233.76
250.575	196.31
251.039	369.51
251.502	280.57
251.965	233.76
252.429	289.93
252.892	219.72
253.355	287.59
253.818	289.93
254.281	294.61
254.744	392.92
255.207	254.83
255.67	250.14
256.133	313.34
256.596	292.27
257.059	322.7
257.522	299.3
257.984	348.45
258.447	250.14
258.909	224.4
259.372	250.14
259.834	303.98
260.297	247.8
260.759	268.87
261.221	280.57
261.684	306.32
262.146	287.59
262.608	236.1
263.07	292.27
263.532	327.38
263.994	240.78
264.456	250.14
264.918	243.12
265.38	275.89
265.842	285.25
266.303	339.09
266.765	296.96
267.227	219.72
267.688	245.46
268.15	306.32
268.611	266.53
269.072	240.78
269.534	282.91
269.995	285.25
270.456	339.09
270.918	278.23
271.379	217.38
271.84	322.7
272.301	278.23
272.762	313.34
273.223	226.74
273.684	374.19
274.144	339.09
274.605	301.64
275.066	306.32
275.527	332.06
275.987	360.15
276.448	313.34
276.908	341.43
277.369	287.59
277.829	287.59
278.289	268.87
278.75	306.32
279.21	320.36
279.67	320.36
280.13	296.96
280.59	282.91
281.05	254.83
281.51	271.21
281.97	271.21
282.43	325.04
282.89	271.21
283.35	271.21
283.809	336.74
284.269	261.85
284.729	315.68
285.188	299.3
285.648	271.21
286.107	280.57
286.567	350.79
287.026	250.14
287.485	303.98
287.944	266.53
288.404	350.79
288.863	306.32
289.322	320.36
289.781	273.55
290.24	353.13
290.699	259.51
291.158	315.68
291.616	271.21
292.075	294.61
292.534	254.83
292.992	334.4
293.451	306.32
293.91	299.3
294.368	287.59
294.827	318.02
295.285	268.87
295.743	315.68
296.202	271.21
296.66	301.64
297.118	224.4
297.576	311
298.034	325.04
298.492	341.43
298.95	322.7
299.408	308.66
299.866	308.66
300.324	334.4
300.781	273.55
301.239	320.36
301.697	327.38
302.154	332.06
302.612	292.27
303.069	318.02
303.527	303.98
303.984	210.36
304.441	259.51
304.899	289.93
305.356	327.38
305.813	287.59
306.27	371.85
306.727	236.1
307.184	364.83
307.641	322.7
308.098	301.64
308.555	311
309.012	271.21
309.468	336.74
309.925	357.81
310.382	313.34
310.838	229.08
311.295	313.34
311.751	252.49
312.208	327.38
312.664	259.51
313.12	250.14
313.577	296.96
314.033	346.11
314.489	289.93
314.945	311
315.401	329.72
315.857	296.96
316.313	271.21
316.769	332.06
317.225	346.11
317.681	303.98
318.136	268.87
318.592	275.89
319.048	339.09
319.503	294.61
319.959	296.96
320.414	292.27
320.869	292.27
321.325	289.93
321.78	282.91
322.235	282.91
322.691	313.34
323.146	364.83
323.601	308.66
324.056	346.11
324.511	299.3
324.966	273.55
325.421	266.53
325.875	271.21
326.33	303.98
326.785	327.38
327.24	346.11
327.694	273.55
328.149	388.24
328.603	329.72
329.058	299.3
329.512	350.79
329.966	303.98
330.421	268.87
330.875	243.12
331.329	243.12
331.783	315.68
332.237	325.04
332.691	348.45
333.145	275.89
333.599	322.7
334.053	273.55
334.507	315.68
334.96	322.7
335.414	301.64
335.868	296.96
336.321	299.3
336.775	245.46
337.228	315.68
337.682	280.57
338.135	339.09
338.588	322.7
339.042	341.43
339.495	306.32
339.948	243.12
340.401	261.85
340.854	292.27
341.307	273.55
341.76	296.96
342.213	308.66
342.666	332.06
343.119	378.87
343.571	369.51
344.024	315.68
344.477	322.7
344.929	278.23
345.382	287.59
345.834	325.04
346.287	339.09
346.739	278.23
347.191	278.23
347.644	296.96
348.096	296.96
348.548	238.44
349	264.19
349.452	367.17
349.904	357.81
350.356	273.55
350.808	357.81
351.26	275.89
351.711	280.57
352.163	341.43
352.615	252.49
353.066	303.98
353.518	273.55
353.969	266.53
354.421	381.21
354.872	332.06
355.324	315.68
355.775	303.98
356.226	311
356.677	362.49
357.128	296.96
357.579	339.09
358.03	325.04
358.481	303.98
358.932	292.27
359.383	292.27
359.834	336.74
360.285	268.87
360.735	268.87
361.186	327.38
361.637	294.61
362.087	308.66
362.538	301.64
362.988	339.09
363.438	374.19
363.889	292.27
364.339	322.7
364.789	308.66
365.239	350.79
365.689	266.53
366.139	299.3
366.589	306.32
367.039	322.7
367.489	306.32
367.939	315.68
368.389	332.06
368.839	353.13
369.288	329.72
369.738	357.81
370.187	367.17
370.637	311
371.086	325.04
371.536	350.79
371.985	327.38
372.434	322.7
372.884	346.11
373.333	353.13
373.782	362.49
374.231	261.85
374.68	315.68
375.129	327.38
375.578	325.04
376.027	334.4
376.475	266.53
376.924	278.23
377.373	299.3
377.822	250.14
378.27	334.4
378.719	306.32
379.167	236.1
379.616	336.74
380.064	301.64
380.512	278.23
380.961	367.17
381.409	364.83
381.857	247.8
382.305	322.7
382.753	376.53
383.201	308.66
383.649	210.36
384.097	325.04
384.545	325.04
384.992	327.38
385.44	318.02
385.888	287.59
386.335	320.36
386.783	399.94
387.231	383.56
387.678	322.7
388.125	296.96
388.573	299.3
389.02	273.55
389.467	364.83
389.914	320.36
390.362	264.19
390.809	313.34
391.256	294.61
391.703	313.34
392.15	327.38
392.596	247.8
393.043	329.72
393.49	353.13
393.937	273.55
394.383	299.3
394.83	320.36
395.276	327.38
395.723	362.49
396.169	275.89
396.616	392.92
397.062	346.11
397.508	299.3
397.954	278.23
398.401	259.51
398.847	364.83
399.293	327.38
399.739	294.61
400.185	278.23
400.631	301.64
401.076	383.56
401.522	336.74
401.968	320.36
402.414	371.85
402.859	383.56
403.305	346.11
403.75	280.57
404.196	275.89
404.641	311
405.086	350.79
405.532	318.02
405.977	346.11
406.422	399.94
406.867	261.85
407.312	329.72
407.757	336.74
408.202	327.38
408.647	306.32
409.092	289.93
409.537	275.89
409.982	374.19
410.426	303.98
410.871	339.09
411.316	280.57
411.76	353.13
412.205	336.74
412.649	343.77
413.093	332.06
413.538	327.38
413.982	264.19
414.426	275.89
414.87	320.36
415.314	311
415.758	313.34
416.202	285.25
416.646	325.04
417.09	294.61
417.534	346.11
417.978	343.77
418.421	311
418.865	334.4
419.309	329.72
419.752	308.66
420.196	376.53
420.639	318.02
421.083	278.23
421.526	322.7
421.969	341.43
422.412	271.21
422.856	285.25
423.299	325.04
423.742	301.64
424.185	306.32
424.628	332.06
425.071	353.13
425.513	343.77
425.956	364.83
426.399	348.45
426.842	315.68
427.284	264.19
427.727	268.87
428.169	308.66
428.612	280.57
429.054	339.09
429.497	378.87
429.939	329.72
430.381	388.24
430.823	336.74
431.265	299.3
431.707	292.27
432.149	327.38
432.591	325.04
433.033	285.25
433.475	341.43
433.917	313.34
434.359	313.34
434.8	320.36
435.242	325.04
435.684	329.72
436.125	292.27
436.567	268.87
437.008	397.6
437.449	357.81
437.891	327.38
438.332	360.15
438.773	292.27
439.214	282.91
439.656	332.06
440.097	289.93
440.538	311
440.978	332.06
441.419	346.11
441.86	343.77
442.301	421
442.742	299.3
443.182	311
443.623	350.79
444.063	315.68
444.504	318.02
444.944	219.72
445.385	289.93
445.825	259.51
446.265	278.23
446.706	299.3
447.146	306.32
447.586	364.83
448.026	296.96
448.466	353.13
448.906	303.98
449.346	268.87
449.786	294.61
450.225	362.49
450.665	325.04
451.105	343.77
451.544	311
451.984	320.36
452.424	325.04
452.863	273.55
453.302	329.72
453.742	299.3
454.181	266.53
454.62	268.87
455.059	299.3
455.499	364.83
455.938	303.98
456.377	343.77
456.816	334.4
457.254	308.66
457.693	299.3
458.132	334.4
458.571	245.46
459.01	268.87
459.448	332.06
459.887	247.8
460.325	268.87
460.764	275.89
461.202	376.53
461.641	282.91
462.079	371.85
462.517	371.85
462.955	343.77
463.393	346.11
463.832	327.38
464.27	301.64
464.708	306.32
465.145	273.55
465.583	285.25
466.021	299.3
466.459	289.93
466.897	367.17
467.334	308.66
467.772	315.68
468.209	303.98
468.647	261.85
469.084	313.34
469.522	364.83
469.959	362.49
470.396	353.13
470.833	327.38
471.271	311
471.708	303.98
472.145	301.64
472.582	311
473.019	299.3
473.456	308.66
473.892	329.72
474.329	299.3
474.766	322.7
475.202	280.57
475.639	383.56
476.076	266.53
476.512	327.38
476.949	325.04
477.385	299.3
477.821	252.49
478.258	381.21
478.694	294.61
479.13	320.36
479.566	327.38
480.002	322.7
480.438	343.77
480.874	339.09
481.31	257.17
481.746	303.98
482.181	362.49
482.617	292.27
483.053	332.06
483.488	334.4
483.924	296.96
484.36	348.45
484.795	257.17
485.23	278.23
485.666	306.32
486.101	278.23
486.536	392.92
486.971	339.09
487.407	296.96
487.842	325.04
488.277	320.36
488.712	341.43
489.146	327.38
489.581	343.77
490.016	348.45
490.451	294.61
490.885	325.04
491.32	341.43
491.755	329.72
492.189	289.93
492.624	296.96
493.058	343.77
493.492	311
493.927	271.21
494.361	322.7
494.795	325.04
495.229	320.36
495.663	257.17
496.097	299.3
496.531	320.36
496.965	315.68
497.399	224.4
497.833	315.68
498.266	360.15
498.7	327.38
499.134	357.81
499.567	364.83
500.001	282.91
500.434	296.96
500.868	355.47
501.301	346.11
501.734	355.47
502.168	416.32
502.601	376.53
503.034	378.87
503.467	336.74
503.9	313.34
504.333	254.83
504.766	257.17
505.199	315.68
505.632	327.38
506.064	250.14
506.497	378.87
506.93	325.04
507.362	320.36
507.795	350.79
508.227	362.49
508.66	264.19
509.092	320.36
509.524	303.98
509.956	357.81
510.389	287.59
510.821	275.89
511.253	299.3
511.685	376.53
512.117	332.06
512.549	339.09
512.981	348.45
513.412	233.76
513.844	308.66
514.276	339.09
514.707	378.87
515.139	322.7
515.571	360.15
516.002	294.61
516.433	299.3
516.865	273.55
517.296	325.04
517.727	315.68
518.159	334.4
518.59	346.11
519.021	303.98
519.452	334.4
519.883	357.81
520.314	325.04
520.744	332.06
521.175	357.81
521.606	315.68
522.037	294.61
522.467	306.32
522.898	320.36
523.328	294.61
523.759	334.4
524.189	236.1
524.62	292.27
525.05	299.3
525.48	306.32
525.91	273.55
526.341	271.21
526.771	350.79
527.201	280.57
527.631	329.72
528.061	383.56
528.49	257.17
528.92	353.13
529.35	350.79
529.78	313.34
530.209	257.17
530.639	343.77
531.068	306.32
531.498	343.77
531.927	292.27
532.357	311
532.786	343.77
533.215	325.04
533.644	278.23
534.074	318.02
534.503	308.66
534.932	292.27
535.361	306.32
535.79	306.32
536.218	322.7
536.647	397.6
537.076	303.98
537.505	329.72
537.933	311
538.362	301.64
538.79	254.83
539.219	428.03
539.647	322.7
540.076	303.98
540.504	294.61
540.932	303.98
541.36	292.27
541.788	329.72
542.217	315.68
542.645	254.83
543.073	339.09
543.5	318.02
543.928	346.11
544.356	273.55
544.784	327.38
545.211	308.66
545.639	336.74
546.067	313.34
546.494	322.7
546.922	336.74
547.349	355.47
547.776	336.74
548.204	287.59
548.631	395.26
549.058	299.3
549.485	336.74
549.912	303.98
550.339	268.87
550.766	336.74
551.193	364.83
551.62	378.87
552.047	353.13
552.474	334.4
552.9	289.93
553.327	369.51
553.754	325.04
554.18	325.04
554.607	325.04
555.033	303.98
555.459	367.17
555.886	320.36
556.312	325.04
556.738	264.19
557.164	367.17
557.59	336.74
558.016	294.61
558.442	325.04
558.868	336.74
559.294	355.47
559.72	318.02
560.145	325.04
560.571	376.53
560.997	322.7
561.422	271.21
561.848	364.83
562.273	311
562.699	350.79
563.124	353.13
563.549	392.92
563.974	350.79
564.4	322.7
564.825	367.17
565.25	254.83
565.675	313.34
566.1	287.59
566.525	259.51
566.95	355.47
567.374	308.66
567.799	329.72
568.224	222.06
568.648	264.19
569.073	280.57
569.497	364.83
569.922	257.17
570.346	320.36
570.771	392.92
571.195	303.98
571.619	327.38
572.043	348.45
572.467	318.02
572.891	350.79
573.315	268.87
573.739	313.34
574.163	322.7
574.587	280.57
575.011	343.77
575.435	292.27
575.858	282.91
576.282	292.27
576.705	289.93
577.129	292.27
577.552	271.21
577.976	275.89
578.399	332.06
578.822	318.02
579.245	252.49
579.669	294.61
580.092	325.04
580.515	306.32
580.938	341.43
581.361	257.17
581.784	292.27
582.206	320.36
582.629	339.09
583.052	367.17
583.474	315.68
583.897	308.66
584.32	369.51
584.742	327.38
585.165	322.7
585.587	292.27
586.009	303.98
586.431	353.13
586.854	294.61
587.276	329.72
587.698	289.93
588.12	287.59
588.542	329.72
588.964	296.96
589.386	308.66
589.807	308.66
590.229	325.04
590.651	332.06
591.073	367.17
591.494	327.38
591.916	346.11
592.337	306.32
592.759	292.27
593.18	294.61
593.601	271.21
594.022	280.57
594.444	320.36
594.865	261.85
595.286	329.72
595.707	303.98
596.128	299.3
596.549	318.02
596.97	336.74
597.39	294.61
597.811	325.04
598.232	374.19
598.652	318.02
599.073	275.89
599.494	306.32
599.914	329.72
600.334	275.89
600.755	299.3
601.175	292.27
601.595	311
602.015	341.43
602.436	311
602.856	402.28
603.276	322.7
603.696	318.02
604.115	353.13
604.535	257.17
604.955	299.3
605.375	259.51
605.794	332.06
606.214	348.45
606.634	282.91
607.053	308.66
607.473	343.77
607.892	339.09
608.311	257.17
608.731	261.85
609.15	275.89
609.569	325.04
609.988	327.38
610.407	325.04
610.826	271.21
611.245	273.55
611.664	334.4
612.083	332.06
612.501	278.23
612.92	294.61
613.339	336.74
613.757	287.59
614.176	306.32
614.594	325.04
615.013	390.58
615.431	341.43
615.85	367.17
616.268	339.09
616.686	367.17
617.104	315.68
617.522	282.91
617.94	336.74
618.358	243.12
618.776	247.8
619.194	287.59
619.612	360.15
620.03	327.38
620.447	350.79
620.865	306.32
621.282	301.64
621.7	273.55
622.117	322.7
622.535	348.45
622.952	306.32
623.369	238.44
623.787	318.02
624.204	259.51
624.621	360.15
625.038	348.45
625.455	311
625.872	280.57
626.289	292.27
626.706	315.68
627.123	303.98
627.539	280.57
627.956	299.3
628.373	318.02
628.789	273.55
629.206	301.64
629.622	350.79
630.038	341.43
630.455	229.08
630.871	327.38
631.287	294.61
631.703	315.68
632.12	367.17
632.536	334.4
632.952	369.51
633.368	325.04
633.783	315.68
634.199	388.24
634.615	329.72
635.031	348.45
635.446	325.04
635.862	254.83
636.277	311
636.693	247.8
637.108	299.3
637.524	320.36
637.939	369.51
638.354	332.06
638.77	329.72
639.185	289.93
639.6	261.85
640.015	329.72
640.43	306.32
640.845	303.98
641.259	322.7
641.674	341.43
642.089	350.79
642.504	320.36
642.918	296.96
643.333	334.4
643.747	376.53
644.162	320.36
644.576	332.06
644.991	306.32
645.405	296.96
645.819	341.43
646.233	313.34
646.647	325.04
647.061	296.96
647.475	311
647.889	306.32
648.303	292.27
648.717	311
649.131	296.96
649.545	336.74
649.958	320.36
650.372	280.57
650.785	275.89
651.199	353.13
651.612	271.21
652.026	275.89
652.439	294.61
652.852	325.04
653.266	320.36
653.679	266.53
654.092	264.19
654.505	367.17
654.918	381.21
655.331	322.7
655.744	306.32
656.156	285.25
656.569	318.02
656.982	268.87
657.394	254.83
657.807	278.23
658.22	353.13
658.632	350.79
659.044	268.87
659.457	280.57
659.869	339.09
660.281	301.64
660.693	296.96
661.106	334.4
661.518	341.43
661.93	318.02
662.342	318.02
662.754	306.32
663.165	311
663.577	343.77
663.989	332.06
664.401	336.74
664.812	348.45
665.224	303.98
665.635	254.83
666.047	362.49
666.458	364.83
666.869	336.74
667.281	278.23
667.692	346.11
668.103	296.96
668.514	252.49
668.925	280.57
669.336	311
669.747	336.74
670.158	320.36
670.569	308.66
670.979	299.3
671.39	308.66
671.801	360.15
672.211	332.06
672.622	280.57
673.032	322.7
673.443	285.25
673.853	292.27
674.263	343.77
674.674	313.34
675.084	282.91
675.494	226.74
675.904	313.34
676.314	334.4
676.724	296.96
677.134	336.74
677.544	364.83
677.953	287.59
678.363	367.17
678.773	315.68
679.182	322.7
679.592	332.06
680.001	240.78
680.411	322.7
680.82	311
681.23	329.72
681.639	334.4
682.048	315.68
682.457	278.23
682.866	275.89
683.275	313.34
683.684	278.23
684.093	325.04
684.502	357.81
684.911	343.77
685.32	339.09
685.728	329.72
686.137	339.09
686.546	374.19
686.954	240.78
687.363	266.53
687.771	336.74
688.179	303.98
688.588	327.38
688.996	362.49
689.404	334.4
689.812	346.11
690.22	329.72
690.628	332.06
691.036	357.81
691.444	282.91
691.852	341.43
692.26	313.34
692.667	362.49
693.075	294.61
693.483	271.21
693.89	343.77
694.298	292.27
694.705	315.68
695.112	348.45
695.52	350.79
695.927	273.55
696.334	308.66
696.741	353.13
697.148	322.7
697.555	301.64
697.962	271.21
698.369	266.53
698.776	325.04
699.183	367.17
699.59	322.7
699.996	303.98
700.403	296.96
700.81	325.04
701.216	299.3
701.623	311
702.029	259.51
702.435	348.45
702.842	343.77
703.248	318.02
703.654	308.66
704.06	292.27
704.466	355.47
704.872	301.64
705.278	322.7
705.684	303.98
706.09	280.57
706.496	303.98
706.901	308.66
707.307	334.4
707.712	282.91
708.118	238.44
708.523	287.59
708.929	257.17
709.334	320.36
709.74	294.61
710.145	320.36
710.55	339.09
710.955	325.04
711.36	313.34
711.765	311
712.17	318.02
712.575	238.44
712.98	751.02
713.385	296.96
713.789	341.43
714.194	271.21
714.599	292.27
715.003	275.89
715.408	325.04
715.812	357.81
716.217	327.38
716.621	299.3
717.025	254.83
717.429	343.77
717.833	318.02
718.238	336.74
718.642	294.61
719.046	318.02
719.449	315.68
719.853	322.7
720.257	289.93
720.661	362.49
721.065	308.66
721.468	325.04
721.872	325.04
722.275	327.38
722.679	306.32
723.082	332.06
723.485	385.9
723.889	343.77
724.292	355.47
724.695	362.49
725.098	311
725.501	289.93
725.904	343.77
726.307	271.21
726.71	296.96
727.113	341.43
727.516	341.43
727.918	287.59
728.321	299.3
728.724	231.42
729.126	278.23
729.529	409.3
729.931	376.53
730.333	327.38
730.736	343.77
731.138	306.32
731.54	287.59
731.942	332.06
732.344	388.24
732.746	334.4
733.148	254.83
733.55	264.19
733.952	329.72
734.354	315.68
734.756	334.4
735.157	341.43
735.559	402.28
735.96	247.8
736.362	329.72
736.763	362.49
737.165	264.19
737.566	285.25
737.967	268.87
738.368	252.49
738.77	329.72
739.171	318.02
739.572	240.78
739.973	367.17
740.374	327.38
740.774	332.06
741.175	332.06
741.576	353.13
741.977	318.02
742.377	327.38
742.778	357.81
743.178	301.64
743.579	273.55
743.979	336.74
744.379	364.83
744.78	275.89
745.18	327.38
745.58	318.02
745.98	355.47
746.38	252.49
746.78	259.51
747.18	285.25
747.58	327.38
747.98	308.66
748.38	346.11
748.779	287.59
749.179	250.14
749.578	285.25
749.978	299.3
750.377	261.85
750.777	292.27
751.176	282.91
751.575	357.81
751.975	313.34
752.374	294.61
752.773	322.7
753.172	341.43
753.571	392.92
753.97	353.13
754.369	296.96
754.768	264.19
755.166	296.96
755.565	289.93
755.964	292.27
756.362	334.4
756.761	261.85
757.159	311
757.558	318.02
757.956	280.57
758.354	329.72
758.753	355.47
759.151	299.3
759.549	289.93
759.947	322.7
760.345	332.06
760.743	261.85
761.141	308.66
761.539	299.3
761.936	296.96
762.334	236.1
762.732	332.06
763.129	360.15
763.527	369.51
763.924	362.49
764.322	271.21
764.719	315.68
765.117	353.13
765.514	325.04
765.911	306.32
766.308	327.38
766.705	362.49
767.102	240.78
767.499	334.4
767.896	343.77
768.293	322.7
768.69	329.72
769.086	376.53
769.483	287.59
769.88	301.64
770.276	320.36
770.673	308.66
771.069	313.34
771.466	292.27
771.862	266.53
772.258	318.02
772.654	285.25
773.05	311
773.447	350.79
773.843	325.04
774.239	383.56
774.634	268.87
775.03	327.38
775.426	259.51
775.822	306.32
776.218	336.74
776.613	306.32
777.009	303.98
777.404	311
777.8	357.81
778.195	378.87
778.59	268.87
778.986	306.32
779.381	299.3
779.776	327.38
780.171	296.96
780.566	282.91
780.961	264.19
781.356	308.66
781.751	280.57
782.146	348.45
782.54	313.34
782.935	332.06
783.33	275.89
783.724	299.3
784.119	252.49
784.513	343.77
784.908	353.13
785.302	240.78
785.696	350.79
786.09	285.25
786.485	329.72
786.879	343.77
787.273	311
787.667	282.91
788.061	282.91
788.454	364.83
788.848	250.14
789.242	313.34
789.636	322.7
790.029	261.85
790.423	322.7
790.816	315.68
791.21	339.09
791.603	264.19
791.997	327.38
792.39	264.19
792.783	329.72
793.176	275.89
793.569	318.02
793.962	336.74
794.355	285.25
794.748	294.61
795.141	311
795.534	266.53
795.927	318.02
796.319	371.85
796.712	292.27
797.105	285.25
797.497	254.83
797.89	336.74
798.282	339.09
798.674	327.38
799.067	296.96
799.459	332.06
799.851	322.7
800.243	318.02
800.635	346.11
801.027	315.68
801.419	278.23
801.811	273.55
802.203	247.8
802.594	303.98
802.986	306.32
803.378	320.36
803.769	294.61
804.161	287.59
804.552	292.27
804.944	282.91
805.335	299.3
805.726	339.09
806.118	376.53
806.509	275.89
806.9	318.02
807.291	341.43
807.682	299.3
808.073	336.74
808.464	292.27
808.855	364.83
809.245	320.36
809.636	313.34
810.027	318.02
810.417	285.25
810.808	332.06
811.198	350.79
811.589	311
811.979	299.3
812.369	287.59
812.759	278.23
813.15	287.59
813.54	318.02
813.93	327.38
814.32	362.49
814.71	287.59
815.1	395.26
815.489	313.34
815.879	336.74
816.269	311
816.658	343.77
817.048	261.85
817.438	306.32
817.827	275.89
818.216	336.74
818.606	306.32
818.995	271.21
819.384	334.4
819.773	348.45
820.163	261.85
820.552	273.55
820.941	285.25
821.33	320.36
821.718	289.93
822.107	280.57
822.496	364.83
822.885	325.04
823.273	318.02
823.662	332.06
824.05	350.79
824.439	289.93
824.827	296.96
825.216	303.98
825.604	353.13
825.992	282.91
826.38	332.06
826.768	315.68
827.156	325.04
827.544	282.91
827.932	289.93
828.32	245.46
828.708	381.21
829.096	282.91
829.483	233.76
829.871	285.25
830.259	303.98
830.646	292.27
831.034	303.98
831.421	336.74
831.808	343.77
832.196	301.64
832.583	303.98
832.97	362.49
833.357	285.25
833.744	315.68
834.131	280.57
834.518	339.09
834.905	315.68
835.292	278.23
835.678	292.27
836.065	280.57
836.452	336.74
836.838	320.36
837.225	329.72
837.611	266.53
837.998	313.34
838.384	275.89
838.77	318.02
839.157	341.43
839.543	334.4
839.929	264.19
840.315	385.9
840.701	327.38
841.087	320.36
841.473	306.32
841.858	346.11
842.244	313.34
842.63	308.66
843.015	308.66
843.401	549.73
843.787	318.02
844.172	315.68
844.557	299.3
844.943	327.38
845.328	334.4
845.713	378.87
846.098	301.64
846.483	336.74
846.868	280.57
847.253	339.09
847.638	325.04
848.023	322.7
848.408	322.7
848.793	318.02
849.177	280.57
849.562	296.96
849.947	254.83
850.331	268.87
850.715	271.21
851.1	411.64
851.484	315.68
851.868	313.34
852.253	315.68
852.637	318.02
853.021	289.93
853.405	315.68
853.789	334.4
854.173	320.36
854.557	238.44
854.94	392.92
855.324	367.17
855.708	306.32
856.091	346.11
856.475	348.45
856.858	364.83
857.242	252.49
857.625	292.27
858.009	350.79
858.392	257.17
858.775	318.02
859.158	346.11
859.541	360.15
859.924	334.4
860.307	339.09
860.69	346.11
861.073	289.93
861.456	301.64
861.838	325.04
862.221	346.11
862.604	388.24
862.986	369.51
863.369	364.83
863.751	343.77
864.133	275.89
864.516	287.59
864.898	362.49
865.28	336.74
865.662	353.13
866.044	353.13
866.426	292.27
866.808	301.64
867.19	210.36
867.572	301.64
867.954	296.96
868.336	336.74
868.717	285.25
869.099	339.09
869.48	280.57
869.862	259.51
870.243	289.93
870.625	296.96
871.006	336.74
871.387	294.61
871.768	381.21
872.149	313.34
872.53	268.87
872.911	299.3
873.292	287.59
873.673	282.91
874.054	381.21
874.435	259.51
874.815	238.44
875.196	311
875.577	275.89
875.957	296.96
876.338	273.55
876.718	301.64
877.098	299.3
877.479	254.83
877.859	334.4
878.239	322.7
878.619	303.98
878.999	261.85
879.379	336.74
879.759	339.09
880.139	371.85
880.519	273.55
880.898	275.89
881.278	308.66
881.658	369.51
882.037	357.81
882.417	336.74
882.796	287.59
883.176	280.57
883.555	292.27
883.934	257.17
884.313	266.53
884.693	278.23
885.072	318.02
885.451	308.66
885.83	371.85
886.209	292.27
886.587	301.64
886.966	308.66
887.345	318.02
887.724	329.72
888.102	327.38
888.481	308.66
888.859	303.98
889.238	299.3
889.616	280.57
889.994	271.21
890.373	299.3
890.751	250.14
891.129	294.61
891.507	303.98
891.885	257.17
892.263	285.25
892.641	329.72
893.019	301.64
893.396	339.09
893.774	311
894.152	287.59
894.529	303.98
894.907	275.89
895.284	289.93
895.662	219.72
896.039	287.59
896.416	399.94
896.794	343.77
897.171	346.11
897.548	334.4
897.925	334.4
898.302	311
898.679	193.97
899.056	346.11
899.433	292.27
899.809	320.36
900.186	229.08
900.563	325.04
900.939	308.66
901.316	299.3
901.692	318.02
902.069	296.96
902.445	273.55
902.821	289.93
903.197	318.02
903.574	364.83
903.95	268.87
904.326	313.34
904.702	355.47
905.078	303.98
905.454	289.93
905.829	315.68
906.205	268.87
906.581	322.7
906.956	315.68
907.332	364.83
907.707	334.4
908.083	320.36
908.458	329.72
908.833	273.55
909.209	341.43
909.584	254.83
909.959	336.74
910.334	308.66
910.709	341.43
911.084	343.77
911.459	327.38
911.834	294.61
912.209	280.57
912.583	245.46
912.958	240.78
913.333	303.98
913.707	301.64
914.082	327.38
914.456	313.34
914.83	320.36
915.205	306.32
915.579	261.85
915.953	322.7
916.327	329.72
916.701	294.61
917.075	320.36
917.449	346.11
917.823	325.04
918.197	294.61
918.571	282.91
918.944	318.02
919.318	280.57
919.692	315.68
920.065	390.58
920.438	299.3
920.812	313.34
921.185	275.89
921.558	348.45
921.932	278.23
922.305	355.47
922.678	287.59
923.051	278.23
923.424	374.19
923.797	301.64
924.17	299.3
924.542	301.64
924.915	282.91
925.288	271.21
925.661	341.43
926.033	322.7
926.406	261.85
926.778	285.25
927.15	318.02
927.523	367.17
927.895	329.72
928.267	299.3
928.639	315.68
929.011	341.43
929.383	332.06
929.755	285.25
930.127	313.34
930.499	301.64
930.871	245.46
931.242	296.96
931.614	315.68
931.986	311
932.357	243.12
932.729	341.43
933.1	306.32
933.471	212.7
933.843	271.21
934.214	289.93
934.585	278.23
934.956	296.96
935.327	273.55
935.698	303.98
936.069	289.93
936.44	296.96
936.811	311
937.182	308.66
937.552	329.72
937.923	350.79
938.293	278.23
938.664	243.12
939.034	299.3
939.405	303.98
939.775	404.62
940.145	334.4
940.516	271.21
940.886	350.79
941.256	348.45
941.626	308.66
941.996	301.64
942.366	243.12
942.735	343.77
943.105	289.93
943.475	322.7
943.845	303.98
944.214	327.38
944.584	264.19
944.953	327.38
945.323	296.96
945.692	292.27
946.061	289.93
946.43	327.38
946.8	294.61
947.169	339.09
947.538	285.25
947.907	257.17
948.276	336.74
948.645	320.36
949.013	289.93
949.382	282.91
949.751	268.87
950.119	308.66
950.488	313.34
950.857	318.02
951.225	285.25
951.593	329.72
951.962	275.89
952.33	268.87
952.698	289.93
953.066	301.64
953.434	271.21
953.802	334.4
954.17	306.32
954.538	336.74
954.906	346.11
955.274	247.8
955.642	339.09
956.009	325.04
956.377	332.06
956.744	355.47
957.112	301.64
957.479	369.51
957.847	348.45
958.214	334.4
958.581	308.66
958.948	299.3
959.315	273.55
959.683	318.02
960.05	357.81
960.416	350.79
960.783	322.7
961.15	252.49
961.517	327.38
961.884	308.66
962.25	282.91
962.617	296.96
962.983	299.3
963.35	294.61
963.716	275.89
964.082	308.66
964.449	231.42
964.815	229.08
965.181	245.46
965.547	343.77
965.913	322.7
966.279	329.72
966.645	292.27
967.011	257.17
967.377	320.36
967.742	353.13
968.108	285.25
968.474	346.11
968.839	264.19
969.205	303.98
969.57	329.72
969.935	301.64
970.301	294.61
970.666	421
971.031	278.23
971.396	261.85
971.761	266.53
972.126	315.68
972.491	332.06
972.856	334.4
973.221	388.24
973.586	296.96
973.95	334.4
974.315	334.4
974.679	292.27
975.044	315.68
975.408	334.4
975.773	282.91
976.137	296.96
976.501	285.25
976.866	264.19
977.23	278.23
977.594	257.17
977.958	296.96
978.322	296.96
978.686	257.17
979.049	311
979.413	320.36
979.777	292.27
980.141	296.96
980.504	282.91
980.868	332.06
981.231	350.79
981.595	303.98
981.958	250.14
982.321	275.89
982.684	329.72
983.048	306.32
983.411	268.87
983.774	334.4
984.137	315.68
984.5	332.06
984.862	306.32
985.225	334.4
985.588	287.59
985.951	329.72
986.313	231.42
986.676	399.94
987.038	301.64
987.401	273.55
987.763	252.49
988.125	282.91
988.488	296.96
988.85	318.02
989.212	341.43
989.574	318.02
989.936	303.98
990.298	287.59
990.66	439.73
991.022	278.23
991.383	313.34
991.745	357.81
992.107	315.68
992.468	266.53
992.83	287.59
993.191	296.96
993.553	257.17
993.914	301.64
994.275	381.21
994.637	362.49
994.998	250.14
995.359	320.36
995.72	318.02
996.081	268.87
996.442	282.91
996.803	296.96
997.163	318.02
997.524	327.38
997.885	320.36
998.245	294.61
998.606	259.51
998.966	322.7
999.327	294.61
999.687	322.7
1000.047	306.32
1000.408	296.96
1000.768	301.64
1001.128	334.4
1001.488	334.4
1001.848	329.72
1002.208	268.87
1002.568	332.06
1002.927	245.46
1003.287	339.09
1003.647	336.74
1004.007	268.87
1004.366	315.68
1004.726	289.93
1005.085	271.21
1005.444	341.43
1005.804	311
1006.163	282.91
1006.522	308.66
1006.881	299.3
1007.24	325.04
1007.599	360.15
1007.958	322.7
1008.317	275.89
1008.676	327.38
1009.035	250.14
1009.393	287.59
1009.752	268.87
1010.111	250.14
1010.469	378.87
1010.828	306.32
1011.186	254.83
1011.544	236.1
1011.903	348.45
1012.261	282.91
1012.619	353.13
1012.977	318.02
1013.335	332.06
1013.693	369.51
1014.051	350.79
1014.409	320.36
1014.767	200.99
1015.124	254.83
1015.482	348.45
1015.84	282.91
1016.197	294.61
1016.555	395.26
1016.912	332.06
1017.269	285.25
1017.627	289.93
1017.984	240.78
1018.341	341.43
1018.698	334.4
1019.055	301.64
1019.412	289.93
1019.769	292.27
1020.126	315.68
1020.483	282.91
1020.84	360.15
1021.196	308.66
1021.553	322.7
1021.909	301.64
1022.266	243.12
1022.622	278.23
1022.979	299.3
1023.335	268.87
1023.691	327.38
1024.047	252.49
1024.404	296.96
1024.76	346.11
1025.116	325.04
1025.472	294.61
1025.827	332.06
1026.183	287.59
1026.539	327.38
1026.895	311
1027.25	292.27
1027.606	329.72
1027.961	367.17
1028.317	303.98
1028.672	289.93
1029.028	318.02
1029.383	299.3
1029.738	308.66
1030.093	353.13
1030.448	294.61
1030.803	294.61
1031.158	327.38
1031.513	261.85
1031.868	315.68
1032.223	287.59
1032.577	306.32
1032.932	261.85
1033.287	341.43
1033.641	292.27
1033.996	250.14
1034.35	348.45
1034.704	308.66
1035.059	208.02
1035.413	350.79
1035.767	350.79
1036.121	350.79
