Data from Al_FLMS009871__538__14-41-46-722.txt Node

Date: Fri Mar 08 14:41:46 CST 2024
User: pe5414po
Spectrometer: FLMS00987
Trigger mode: 0
Integration Time (sec): 1.000000E-1
Scans to average: 1
Electric dark correction enabled: true
Nonlinearity correction enabled: false
Boxcar width: 0
XAxis mode: Wavelengths
Number of Pixels in Spectrum: 2048
>>>>>Begin Spectral Data<<<<<
188.938	-103.86
189.409	-103.86
189.879	-103.86
190.349	-113.22
190.819	-38.33
191.29	-113.22
191.76	-59.39
192.23	-124.93
192.7	-127.27
193.17	-52.37
193.64	-10.24
194.109	-3.22
194.579	1.46
195.049	24.87
195.519	24.87
195.988	-43.01
196.458	6.14
196.927	22.53
197.397	141.89
197.866	137.21
198.336	174.66
198.805	57.64
199.274	202.75
199.744	158.28
200.213	151.26
200.682	174.66
201.151	223.81
201.62	226.15
202.089	186.37
202.558	205.09
203.027	244.88
203.495	265.94
203.964	242.54
204.433	303.39
204.902	261.26
205.37	279.99
205.839	249.56
206.307	308.07
206.776	268.28
207.244	219.13
207.712	251.9
208.181	258.92
208.649	294.03
209.117	315.09
209.585	258.92
210.053	289.35
210.521	287.01
210.989	268.28
211.457	258.92
211.925	249.56
212.393	345.52
212.861	258.92
213.328	277.65
213.796	282.33
214.264	277.65
214.731	251.9
215.199	310.41
215.666	249.56
216.133	200.41
216.601	315.09
217.068	317.44
217.535	228.49
218.003	221.47
218.47	305.73
218.937	249.56
219.404	223.81
219.871	287.01
220.338	282.33
220.805	258.92
221.271	296.37
221.738	261.26
222.205	230.84
222.671	233.18
223.138	165.3
223.605	258.92
224.071	256.58
224.538	202.75
225.004	205.09
225.47	193.39
225.937	268.28
226.403	254.24
226.869	235.52
227.335	289.35
227.801	249.56
228.267	249.56
228.733	251.9
229.199	191.05
229.665	242.54
230.131	249.56
230.597	272.96
231.062	233.18
231.528	249.56
231.994	284.67
232.459	277.65
232.925	336.16
233.39	270.62
233.856	296.37
234.321	254.24
234.786	258.92
235.252	233.18
235.717	256.58
236.182	287.01
236.647	237.86
237.112	310.41
237.577	251.9
238.042	291.69
238.507	272.96
238.972	296.37
239.436	237.86
239.901	289.35
240.366	223.81
240.83	308.07
241.295	287.01
241.76	324.46
242.224	242.54
242.688	270.62
243.153	261.26
243.617	291.69
244.081	240.2
244.545	284.67
245.01	336.16
245.474	336.16
245.938	233.18
246.402	240.2
246.866	272.96
247.33	289.35
247.793	308.07
248.257	233.18
248.721	305.73
249.185	279.99
249.648	261.26
250.112	340.84
250.575	270.62
251.039	263.6
251.502	279.99
251.965	289.35
252.429	277.65
252.892	279.99
253.355	261.26
253.818	265.94
254.281	308.07
254.744	254.24
255.207	228.49
255.67	223.81
256.133	244.88
256.596	251.9
257.059	284.67
257.522	277.65
257.984	270.62
258.447	265.94
258.909	251.9
259.372	230.84
259.834	268.28
260.297	265.94
260.759	249.56
261.221	265.94
261.684	263.6
262.146	268.28
262.608	301.05
263.07	258.92
263.532	240.2
263.994	322.12
264.456	268.28
264.918	237.86
265.38	268.28
265.842	258.92
266.303	249.56
266.765	310.41
267.227	301.05
267.688	329.14
268.15	258.92
268.611	268.28
269.072	298.71
269.534	279.99
269.995	228.49
270.456	244.88
270.918	212.11
271.379	294.03
271.84	354.88
272.301	315.09
272.762	261.26
273.223	301.05
273.684	287.01
274.144	289.35
274.605	277.65
275.066	294.03
275.527	247.22
275.987	268.28
276.448	237.86
276.908	282.33
277.369	291.69
277.829	338.5
278.289	329.14
278.75	319.78
279.21	265.94
279.67	308.07
280.13	312.75
280.59	350.2
281.05	270.62
281.51	333.82
281.97	237.86
282.43	333.82
282.89	254.24
283.35	312.75
283.809	343.18
284.269	324.46
284.729	263.6
285.188	359.56
285.648	301.05
286.107	240.2
286.567	352.54
287.026	279.99
287.485	282.33
287.944	317.44
288.404	268.28
288.863	268.28
289.322	261.26
289.781	256.58
290.24	308.07
290.699	249.56
291.158	315.09
291.616	265.94
292.075	230.84
292.534	336.16
292.992	329.14
293.451	315.09
293.91	230.84
294.368	329.14
294.827	242.54
295.285	312.75
295.743	272.96
296.202	329.14
296.66	265.94
297.118	247.22
297.576	291.69
298.034	242.54
298.492	233.18
298.95	338.5
299.408	305.73
299.866	256.58
300.324	270.62
300.781	317.44
301.239	303.39
301.697	329.14
302.154	296.37
302.612	270.62
303.069	336.16
303.527	268.28
303.984	317.44
304.441	343.18
304.899	326.8
305.356	322.12
305.813	268.28
306.27	284.67
306.727	305.73
307.184	298.71
307.641	324.46
308.098	310.41
308.555	338.5
309.012	315.09
309.468	298.71
309.925	319.78
310.382	331.48
310.838	261.26
311.295	287.01
311.751	284.67
312.208	261.26
312.664	301.05
313.12	331.48
313.577	249.56
314.033	305.73
314.489	251.9
314.945	223.81
315.401	282.33
315.857	324.46
316.313	282.33
316.769	256.58
317.225	223.81
317.681	331.48
318.136	282.33
318.592	275.31
319.048	287.01
319.503	294.03
319.959	296.37
320.414	303.39
320.869	287.01
321.325	347.86
321.78	240.2
322.235	230.84
322.691	338.5
323.146	249.56
323.601	279.99
324.056	282.33
324.511	310.41
324.966	317.44
325.421	338.5
325.875	308.07
326.33	322.12
326.785	270.62
327.24	270.62
327.694	251.9
328.149	289.35
328.603	347.86
329.058	322.12
329.512	364.25
329.966	237.86
330.421	256.58
330.875	331.48
331.329	338.5
331.783	303.39
332.237	249.56
332.691	324.46
333.145	268.28
333.599	242.54
334.053	315.09
334.507	254.24
334.96	333.82
335.414	277.65
335.868	247.22
336.321	272.96
336.775	340.84
337.228	324.46
337.682	329.14
338.135	343.18
338.588	368.93
339.042	235.52
339.495	249.56
339.948	261.26
340.401	240.2
340.854	272.96
341.307	326.8
341.76	249.56
342.213	350.2
342.666	301.05
343.119	359.56
343.571	308.07
344.024	268.28
344.477	310.41
344.929	298.71
345.382	343.18
345.834	289.35
346.287	291.69
346.739	275.31
347.191	303.39
347.644	277.65
348.096	275.31
348.548	247.22
349	277.65
349.452	305.73
349.904	263.6
350.356	254.24
350.808	263.6
351.26	287.01
351.711	333.82
352.163	289.35
352.615	303.39
353.066	350.2
353.518	301.05
353.969	301.05
354.421	336.16
354.872	268.28
355.324	305.73
355.775	303.39
356.226	312.75
356.677	294.03
357.128	291.69
357.579	347.86
358.03	249.56
358.481	296.37
358.932	305.73
359.383	265.94
359.834	308.07
360.285	282.33
360.735	329.14
361.186	394.67
361.637	310.41
362.087	312.75
362.538	228.49
362.988	312.75
363.438	368.93
363.889	354.88
364.339	272.96
364.789	329.14
365.239	291.69
365.689	375.95
366.139	340.84
366.589	294.03
367.039	298.71
367.489	308.07
367.939	359.56
368.389	254.24
368.839	310.41
369.288	312.75
369.738	308.07
370.187	375.95
370.637	345.52
371.086	284.67
371.536	277.65
371.985	336.16
372.434	336.16
372.884	326.8
373.333	333.82
373.782	226.15
374.231	289.35
374.68	289.35
375.129	256.58
375.578	315.09
376.027	279.99
376.475	289.35
376.924	340.84
377.373	310.41
377.822	315.09
378.27	275.31
378.719	331.48
379.167	287.01
379.616	275.31
380.064	315.09
380.512	319.78
380.961	263.6
381.409	319.78
381.857	277.65
382.305	263.6
382.753	317.44
383.201	317.44
383.649	359.56
384.097	240.2
384.545	364.25
384.992	336.16
385.44	308.07
385.888	277.65
386.335	310.41
386.783	303.39
387.231	265.94
387.678	336.16
388.125	324.46
388.573	317.44
389.02	343.18
389.467	333.82
389.914	331.48
390.362	301.05
390.809	270.62
391.256	282.33
391.703	282.33
392.15	305.73
392.596	275.31
393.043	308.07
393.49	270.62
393.937	317.44
394.383	305.73
394.83	301.05
395.276	298.71
395.723	336.16
396.169	284.67
396.616	291.69
397.062	378.29
397.508	340.84
397.954	340.84
398.401	357.22
398.847	298.71
399.293	315.09
399.739	366.59
400.185	319.78
400.631	373.61
401.076	326.8
401.522	333.82
401.968	279.99
402.414	308.07
402.859	322.12
403.305	270.62
403.75	319.78
404.196	289.35
404.641	294.03
405.086	305.73
405.532	298.71
405.977	336.16
406.422	322.12
406.867	291.69
407.312	324.46
407.757	354.88
408.202	317.44
408.647	329.14
409.092	275.31
409.537	296.37
409.982	322.12
410.426	270.62
410.871	350.2
411.316	301.05
411.76	287.01
412.205	324.46
412.649	294.03
413.093	268.28
413.538	275.31
413.982	329.14
414.426	319.78
414.87	375.95
415.314	333.82
415.758	338.5
416.202	312.75
416.646	265.94
417.09	401.69
417.534	338.5
417.978	275.31
418.421	329.14
418.865	291.69
419.309	326.8
419.752	382.97
420.196	347.86
420.639	340.84
421.083	354.88
421.526	317.44
421.969	284.67
422.412	308.07
422.856	315.09
423.299	359.56
423.742	373.61
424.185	272.96
424.628	326.8
425.071	263.6
425.513	352.54
425.956	270.62
426.399	303.39
426.842	228.49
427.284	326.8
427.727	287.01
428.169	350.2
428.612	324.46
429.054	310.41
429.497	256.58
429.939	277.65
430.381	272.96
430.823	287.01
431.265	331.48
431.707	305.73
432.149	277.65
432.591	308.07
433.033	277.65
433.475	324.46
433.917	301.05
434.359	282.33
434.8	312.75
435.242	319.78
435.684	277.65
436.125	317.44
436.567	275.31
437.008	305.73
437.449	331.48
437.891	277.65
438.332	317.44
438.773	329.14
439.214	361.91
439.656	315.09
440.097	305.73
440.538	331.48
440.978	284.67
441.419	301.05
441.86	240.2
442.301	310.41
442.742	287.01
443.182	361.91
443.623	312.75
444.063	319.78
444.504	256.58
444.944	315.09
445.385	291.69
445.825	347.86
446.265	354.88
446.706	305.73
447.146	329.14
447.586	284.67
448.026	308.07
448.466	336.16
448.906	371.27
449.346	308.07
449.786	366.59
450.225	340.84
450.665	265.94
451.105	310.41
451.544	284.67
451.984	317.44
452.424	329.14
452.863	277.65
453.302	261.26
453.742	357.22
454.181	294.03
454.62	322.12
455.059	268.28
455.499	289.35
455.938	326.8
456.377	291.69
456.816	361.91
457.254	310.41
457.693	298.71
458.132	350.2
458.571	265.94
459.01	333.82
459.448	284.67
459.887	228.49
460.325	357.22
460.764	315.09
461.202	305.73
461.641	282.33
462.079	268.28
462.517	368.93
462.955	333.82
463.393	333.82
463.832	425.1
464.27	301.05
464.708	272.96
465.145	338.5
465.583	329.14
466.021	282.33
466.459	298.71
466.897	359.56
467.334	275.31
467.772	340.84
468.209	336.16
468.647	289.35
469.084	296.37
469.522	389.99
469.959	310.41
470.396	265.94
470.833	303.39
471.271	305.73
471.708	287.01
472.145	359.56
472.582	338.5
473.019	333.82
473.456	287.01
473.892	329.14
474.329	319.78
474.766	317.44
475.202	333.82
475.639	333.82
476.076	303.39
476.512	317.44
476.949	345.52
477.385	310.41
477.821	310.41
478.258	282.33
478.694	359.56
479.13	345.52
479.566	359.56
480.002	378.29
480.438	331.48
480.874	357.22
481.31	294.03
481.746	333.82
482.181	282.33
482.617	324.46
483.053	275.31
483.488	305.73
483.924	310.41
484.36	345.52
484.795	329.14
485.23	282.33
485.666	347.86
486.101	308.07
486.536	336.16
486.971	289.35
487.407	284.67
487.842	312.75
488.277	373.61
488.712	331.48
489.146	336.16
489.581	230.84
490.016	319.78
490.451	289.35
490.885	361.91
491.32	350.2
491.755	324.46
492.189	312.75
492.624	303.39
493.058	291.69
493.492	291.69
493.927	282.33
494.361	329.14
494.795	305.73
495.229	294.03
495.663	378.29
496.097	303.39
496.531	303.39
496.965	272.96
497.399	319.78
497.833	305.73
498.266	305.73
498.7	366.59
499.134	261.26
499.567	298.71
500.001	287.01
500.434	324.46
500.868	289.35
501.301	354.88
501.734	331.48
502.168	305.73
502.601	291.69
503.034	336.16
503.467	242.54
503.9	305.73
504.333	310.41
504.766	308.07
505.199	336.16
505.632	284.67
506.064	249.56
506.497	289.35
506.93	326.8
507.362	312.75
507.795	291.69
508.227	324.46
508.66	354.88
509.092	317.44
509.524	347.86
509.956	317.44
510.389	333.82
510.821	251.9
511.253	331.48
511.685	373.61
512.117	312.75
512.549	282.33
512.981	345.52
513.412	310.41
513.844	331.48
514.276	324.46
514.707	326.8
515.139	308.07
515.571	308.07
516.002	361.91
516.433	291.69
516.865	265.94
517.296	265.94
517.727	345.52
518.159	301.05
518.59	368.93
519.021	301.05
519.452	333.82
519.883	270.62
520.314	275.31
520.744	291.69
521.175	317.44
521.606	319.78
522.037	345.52
522.467	287.01
522.898	289.35
523.328	326.8
523.759	364.25
524.189	331.48
524.62	291.69
525.05	289.35
525.48	298.71
525.91	294.03
526.341	226.15
526.771	331.48
527.201	284.67
527.631	261.26
528.061	296.37
528.49	312.75
528.92	301.05
529.35	385.31
529.78	298.71
530.209	282.33
530.639	333.82
531.068	298.71
531.498	284.67
531.927	289.35
532.357	322.12
532.786	296.37
533.215	336.16
533.644	291.69
534.074	359.56
534.503	305.73
534.932	310.41
535.361	270.62
535.79	265.94
536.218	272.96
536.647	324.46
537.076	256.58
537.505	237.86
537.933	277.65
538.362	303.39
538.79	319.78
539.219	263.6
539.647	305.73
540.076	301.05
540.504	343.18
540.932	279.99
541.36	308.07
541.788	319.78
542.217	294.03
542.645	296.37
543.073	289.35
543.5	256.58
543.928	354.88
544.356	315.09
544.784	301.05
545.211	303.39
545.639	296.37
546.067	326.8
546.494	343.18
546.922	251.9
547.349	287.01
547.776	315.09
548.204	336.16
548.631	357.22
549.058	312.75
549.485	352.54
549.912	291.69
550.339	326.8
550.766	303.39
551.193	291.69
551.62	291.69
552.047	308.07
552.474	322.12
552.9	305.73
553.327	336.16
553.754	298.71
554.18	308.07
554.607	263.6
555.033	305.73
555.459	294.03
555.886	340.84
556.312	336.16
556.738	279.99
557.164	315.09
557.59	258.92
558.016	291.69
558.442	265.94
558.868	261.26
559.294	258.92
559.72	319.78
560.145	284.67
560.571	296.37
560.997	247.22
561.422	282.33
561.848	354.88
562.273	338.5
562.699	287.01
563.124	366.59
563.549	326.8
563.974	303.39
564.4	251.9
564.825	366.59
565.25	298.71
565.675	261.26
566.1	291.69
566.525	228.49
566.95	317.44
567.374	312.75
567.799	256.58
568.224	308.07
568.648	310.41
569.073	289.35
569.497	254.24
569.922	352.54
570.346	205.09
570.771	279.99
571.195	345.52
571.619	289.35
572.043	244.88
572.467	284.67
572.891	294.03
573.315	359.56
573.739	312.75
574.163	256.58
574.587	310.41
575.011	324.46
575.435	296.37
575.858	272.96
576.282	333.82
576.705	326.8
577.129	380.63
577.552	268.28
577.976	261.26
578.399	329.14
578.822	331.48
579.245	301.05
579.669	352.54
580.092	303.39
580.515	354.88
580.938	277.65
581.361	312.75
581.784	357.22
582.206	291.69
582.629	298.71
583.052	333.82
583.474	296.37
583.897	317.44
584.32	322.12
584.742	247.22
585.165	324.46
585.587	343.18
586.009	336.16
586.431	272.96
586.854	287.01
587.276	221.47
587.698	310.41
588.12	312.75
588.542	256.58
588.964	329.14
589.386	361.91
589.807	368.93
590.229	305.73
590.651	240.2
591.073	378.29
591.494	310.41
591.916	301.05
592.337	291.69
592.759	282.33
593.18	305.73
593.601	294.03
594.022	294.03
594.444	270.62
594.865	275.31
595.286	357.22
595.707	244.88
596.128	371.27
596.549	261.26
596.97	324.46
597.39	340.84
597.811	284.67
598.232	240.2
598.652	378.29
599.073	287.01
599.494	291.69
599.914	287.01
600.334	296.37
600.755	282.33
601.175	301.05
601.595	233.18
602.015	296.37
602.436	338.5
602.856	429.78
603.276	345.52
603.696	308.07
604.115	268.28
604.535	345.52
604.955	303.39
605.375	294.03
605.794	322.12
606.214	282.33
606.634	331.48
607.053	226.15
607.473	315.09
607.892	315.09
608.311	303.39
608.731	319.78
609.15	294.03
609.569	361.91
609.988	287.01
610.407	329.14
610.826	308.07
611.245	310.41
611.664	305.73
612.083	371.27
612.501	233.18
612.92	331.48
613.339	279.99
613.757	343.18
614.176	282.33
614.594	322.12
615.013	329.14
615.431	336.16
615.85	305.73
616.268	373.61
616.686	357.22
617.104	303.39
617.522	298.71
617.94	291.69
618.358	256.58
618.776	312.75
619.194	319.78
619.612	279.99
620.03	270.62
620.447	301.05
620.865	310.41
621.282	261.26
621.7	312.75
622.117	256.58
622.535	279.99
622.952	279.99
623.369	308.07
623.787	319.78
624.204	282.33
624.621	303.39
625.038	303.39
625.455	284.67
625.872	275.31
626.289	275.31
626.706	352.54
627.123	371.27
627.539	305.73
627.956	301.05
628.373	258.92
628.789	282.33
629.206	310.41
629.622	305.73
630.038	359.56
630.455	287.01
630.871	373.61
631.287	336.16
631.703	268.28
632.12	263.6
632.536	272.96
632.952	368.93
633.368	350.2
633.783	404.03
634.199	308.07
634.615	308.07
635.031	305.73
635.446	371.27
635.862	312.75
636.277	303.39
636.693	312.75
637.108	310.41
637.524	305.73
637.939	319.78
638.354	333.82
638.77	315.09
639.185	326.8
639.6	329.14
640.015	308.07
640.43	310.41
640.845	333.82
641.259	256.58
641.674	331.48
642.089	340.84
642.504	289.35
642.918	333.82
643.333	272.96
643.747	291.69
644.162	188.71
644.576	289.35
644.991	366.59
645.405	303.39
645.819	340.84
646.233	289.35
646.647	378.29
647.061	317.44
647.475	301.05
647.889	343.18
648.303	350.2
648.717	338.5
649.131	326.8
649.545	331.48
649.958	263.6
650.372	301.05
650.785	326.8
651.199	237.86
651.612	301.05
652.026	312.75
652.439	270.62
652.852	312.75
653.266	301.05
653.679	312.75
654.092	324.46
654.505	317.44
654.918	272.96
655.331	322.12
655.744	268.28
656.156	301.05
656.569	284.67
656.982	294.03
657.394	329.14
657.807	324.46
658.22	242.54
658.632	343.18
659.044	212.11
659.457	294.03
659.869	310.41
660.281	270.62
660.693	333.82
661.106	347.86
661.518	282.33
661.93	326.8
662.342	223.81
662.754	272.96
663.165	237.86
663.577	331.48
663.989	308.07
664.401	265.94
664.812	289.35
665.224	315.09
665.635	287.01
666.047	312.75
666.458	249.56
666.869	284.67
667.281	329.14
667.692	282.33
668.103	230.84
668.514	301.05
668.925	282.33
669.336	279.99
669.747	340.84
670.158	333.82
670.569	275.31
670.979	317.44
671.39	340.84
671.801	343.18
672.211	254.24
672.622	282.33
673.032	247.22
673.443	240.2
673.853	329.14
674.263	233.18
674.674	331.48
675.084	338.5
675.494	315.09
675.904	340.84
676.314	326.8
676.724	310.41
677.134	312.75
677.544	258.92
677.953	305.73
678.363	364.25
678.773	382.97
679.182	310.41
679.592	347.86
680.001	291.69
680.411	340.84
680.82	284.67
681.23	312.75
681.639	308.07
682.048	322.12
682.457	291.69
682.866	305.73
683.275	310.41
683.684	303.39
684.093	333.82
684.502	279.99
684.911	277.65
685.32	256.58
685.728	301.05
686.137	352.54
686.546	279.99
686.954	310.41
687.363	301.05
687.771	251.9
688.179	329.14
688.588	331.48
688.996	340.84
689.404	279.99
689.812	279.99
690.22	289.35
690.628	310.41
691.036	268.28
691.444	270.62
691.852	345.52
692.26	289.35
692.667	270.62
693.075	352.54
693.483	275.31
693.89	275.31
694.298	340.84
694.705	359.56
695.112	296.37
695.52	338.5
695.927	305.73
696.334	272.96
696.741	230.84
697.148	333.82
697.555	279.99
697.962	291.69
698.369	312.75
698.776	357.22
699.183	310.41
699.59	294.03
699.996	308.07
700.403	305.73
700.81	303.39
701.216	317.44
701.623	352.54
702.029	354.88
702.435	347.86
702.842	226.15
703.248	397.01
703.654	268.28
704.06	331.48
704.466	251.9
704.872	331.48
705.278	263.6
705.684	301.05
706.09	296.37
706.496	322.12
706.901	319.78
707.307	294.03
707.712	322.12
708.118	324.46
708.523	380.63
708.929	340.84
709.334	310.41
709.74	268.28
710.145	352.54
710.55	371.27
710.955	366.59
711.36	256.58
711.765	338.5
712.17	301.05
712.575	272.96
712.98	729.37
713.385	282.33
713.789	350.2
714.194	195.73
714.599	294.03
715.003	331.48
715.408	261.26
715.812	296.37
716.217	350.2
716.621	296.37
717.025	263.6
717.429	350.2
717.833	296.37
718.238	347.86
718.642	315.09
719.046	331.48
719.449	413.4
719.853	282.33
720.257	350.2
720.661	263.6
721.065	315.09
721.468	298.71
721.872	228.49
722.275	324.46
722.679	298.71
723.082	305.73
723.485	270.62
723.889	296.37
724.292	324.46
724.695	303.39
725.098	305.73
725.501	233.18
725.904	272.96
726.307	305.73
726.71	277.65
727.113	287.01
727.516	340.84
727.918	284.67
728.321	333.82
728.724	319.78
729.126	268.28
729.529	277.65
729.931	329.14
730.333	338.5
730.736	345.52
731.138	315.09
731.54	371.27
731.942	312.75
732.344	308.07
732.746	298.71
733.148	240.2
733.55	254.24
733.952	305.73
734.354	308.07
734.756	242.54
735.157	287.01
735.559	326.8
735.96	319.78
736.362	350.2
736.763	303.39
737.165	352.54
737.566	308.07
737.967	322.12
738.368	324.46
738.77	287.01
739.171	291.69
739.572	261.26
739.973	357.22
740.374	263.6
740.774	329.14
741.175	251.9
741.576	336.16
741.977	312.75
742.377	359.56
742.778	261.26
743.178	317.44
743.579	294.03
743.979	361.91
744.379	361.91
744.78	294.03
745.18	312.75
745.58	207.43
745.98	291.69
746.38	310.41
746.78	268.28
747.18	352.54
747.58	317.44
747.98	345.52
748.38	336.16
748.779	282.33
749.179	324.46
749.578	247.22
749.978	284.67
750.377	331.48
750.777	336.16
751.176	310.41
751.575	315.09
751.975	263.6
752.374	287.01
752.773	298.71
753.172	308.07
753.571	268.28
753.97	219.13
754.369	301.05
754.768	223.81
755.166	279.99
755.565	301.05
755.964	338.5
756.362	284.67
756.761	317.44
757.159	326.8
757.558	294.03
757.956	317.44
758.354	329.14
758.753	298.71
759.151	256.58
759.549	310.41
759.947	317.44
760.345	312.75
760.743	322.12
761.141	310.41
761.539	279.99
761.936	331.48
762.334	277.65
762.732	291.69
763.129	294.03
763.527	317.44
763.924	310.41
764.322	333.82
764.719	340.84
765.117	347.86
765.514	284.67
765.911	275.31
766.308	361.91
766.705	343.18
767.102	312.75
767.499	301.05
767.896	291.69
768.293	305.73
768.69	240.2
769.086	268.28
769.483	289.35
769.88	284.67
770.276	329.14
770.673	324.46
771.069	310.41
771.466	312.75
771.862	352.54
772.258	298.71
772.654	352.54
773.05	340.84
773.447	282.33
773.843	371.27
774.239	275.31
774.634	277.65
775.03	338.5
775.426	256.58
775.822	315.09
776.218	329.14
776.613	272.96
777.009	312.75
777.404	319.78
777.8	338.5
778.195	233.18
778.59	312.75
778.986	263.6
779.381	326.8
779.776	326.8
780.171	279.99
780.566	315.09
780.961	237.86
781.356	350.2
781.751	284.67
782.146	340.84
782.54	268.28
782.935	287.01
783.33	329.14
783.724	301.05
784.119	324.46
784.513	268.28
784.908	258.92
785.302	317.44
785.696	322.12
786.09	268.28
786.485	277.65
786.879	254.24
787.273	270.62
787.667	277.65
788.061	315.09
788.454	319.78
788.848	303.39
789.242	298.71
789.636	347.86
790.029	272.96
790.423	303.39
790.816	287.01
791.21	312.75
791.603	237.86
791.997	326.8
792.39	282.33
792.783	287.01
793.176	263.6
793.569	375.95
793.962	308.07
794.355	303.39
794.748	352.54
795.141	336.16
795.534	345.52
795.927	336.16
796.319	352.54
796.712	319.78
797.105	294.03
797.497	237.86
797.89	308.07
798.282	343.18
798.674	298.71
799.067	263.6
799.459	282.33
799.851	345.52
800.243	287.01
800.635	261.26
801.027	326.8
801.419	284.67
801.811	303.39
802.203	230.84
802.594	289.35
802.986	289.35
803.378	291.69
803.769	296.37
804.161	263.6
804.552	270.62
804.944	326.8
805.335	275.31
805.726	254.24
806.118	294.03
806.509	312.75
806.9	284.67
807.291	329.14
807.682	275.31
808.073	310.41
808.464	315.09
808.855	272.96
809.245	265.94
809.636	268.28
810.027	322.12
810.417	226.15
810.808	308.07
811.198	291.69
811.589	263.6
811.979	301.05
812.369	289.35
812.759	331.48
813.15	322.12
813.54	336.16
813.93	289.35
814.32	294.03
814.71	291.69
815.1	343.18
815.489	242.54
815.879	261.26
816.269	258.92
816.658	279.99
817.048	338.5
817.438	345.52
817.827	279.99
818.216	268.28
818.606	242.54
818.995	270.62
819.384	289.35
819.773	298.71
820.163	324.46
820.552	350.2
820.941	265.94
821.33	270.62
821.718	251.9
822.107	333.82
822.496	329.14
822.885	277.65
823.273	350.2
823.662	298.71
824.05	291.69
824.439	340.84
824.827	249.56
825.216	249.56
825.604	275.31
825.992	270.62
826.38	352.54
826.768	347.86
827.156	333.82
827.544	277.65
827.932	270.62
828.32	380.63
828.708	317.44
829.096	310.41
829.483	272.96
829.871	289.35
830.259	254.24
830.646	350.2
831.034	284.67
831.421	326.8
831.808	265.94
832.196	350.2
832.583	329.14
832.97	268.28
833.357	233.18
833.744	357.22
834.131	287.01
834.518	270.62
834.905	249.56
835.292	308.07
835.678	317.44
836.065	305.73
836.452	303.39
836.838	277.65
837.225	317.44
837.611	294.03
837.998	282.33
838.384	221.47
838.77	277.65
839.157	298.71
839.543	310.41
839.929	312.75
840.315	277.65
840.701	296.37
841.087	256.58
841.473	312.75
841.858	310.41
842.244	287.01
842.63	315.09
843.015	230.84
843.401	525.74
843.787	223.81
844.172	296.37
844.557	352.54
844.943	244.88
845.328	336.16
845.713	298.71
846.098	305.73
846.483	338.5
846.868	308.07
847.253	350.2
847.638	294.03
848.023	282.33
848.408	312.75
848.793	270.62
849.177	329.14
849.562	287.01
849.947	265.94
850.331	310.41
850.715	350.2
851.1	331.48
851.484	291.69
851.868	338.5
852.253	336.16
852.637	287.01
853.021	272.96
853.405	312.75
853.789	251.9
854.173	298.71
854.557	357.22
854.94	265.94
855.324	287.01
855.708	322.12
856.091	298.71
856.475	322.12
856.858	296.37
857.242	301.05
857.625	268.28
858.009	294.03
858.392	319.78
858.775	296.37
859.158	340.84
859.541	324.46
859.924	305.73
860.307	354.88
860.69	310.41
861.073	329.14
861.456	324.46
861.838	272.96
862.221	298.71
862.604	265.94
862.986	336.16
863.369	319.78
863.751	270.62
864.133	317.44
864.516	301.05
864.898	331.48
865.28	256.58
865.662	331.48
866.044	331.48
866.426	331.48
866.808	296.37
867.19	287.01
867.572	315.09
867.954	291.69
868.336	277.65
868.717	329.14
869.099	291.69
869.48	263.6
869.862	289.35
870.243	324.46
870.625	322.12
871.006	303.39
871.387	331.48
871.768	303.39
872.149	329.14
872.53	277.65
872.911	324.46
873.292	263.6
873.673	338.5
874.054	336.16
874.435	268.28
874.815	315.09
875.196	312.75
875.577	284.67
875.957	247.22
876.338	291.69
876.718	287.01
877.098	310.41
877.479	230.84
877.859	357.22
878.239	265.94
878.619	272.96
878.999	279.99
879.379	338.5
879.759	265.94
880.139	287.01
880.519	364.25
880.898	359.56
881.278	284.67
881.658	324.46
882.037	347.86
882.417	354.88
882.796	347.86
883.176	347.86
883.555	301.05
883.934	312.75
884.313	303.39
884.693	298.71
885.072	256.58
885.451	289.35
885.83	301.05
886.209	282.33
886.587	317.44
886.966	347.86
887.345	331.48
887.724	289.35
888.102	279.99
888.481	289.35
888.859	256.58
889.238	305.73
889.616	284.67
889.994	289.35
890.373	289.35
890.751	254.24
891.129	301.05
891.507	361.91
891.885	284.67
892.263	261.26
892.641	298.71
893.019	312.75
893.396	343.18
893.774	310.41
894.152	256.58
894.529	233.18
894.907	305.73
895.284	287.01
895.662	354.88
896.039	305.73
896.416	359.56
896.794	301.05
897.171	310.41
897.548	308.07
897.925	291.69
898.302	301.05
898.679	289.35
899.056	279.99
899.433	368.93
899.809	298.71
900.186	336.16
900.563	322.12
900.939	270.62
901.316	287.01
901.692	354.88
902.069	303.39
902.445	249.56
902.821	354.88
903.197	282.33
903.574	331.48
903.95	324.46
904.326	249.56
904.702	275.31
905.078	256.58
905.454	254.24
905.829	338.5
906.205	287.01
906.581	230.84
906.956	315.09
907.332	378.29
907.707	289.35
908.083	296.37
908.458	249.56
908.833	333.82
909.209	324.46
909.584	251.9
909.959	291.69
910.334	282.33
910.709	240.2
911.084	315.09
911.459	298.71
911.834	350.2
912.209	317.44
912.583	301.05
912.958	287.01
913.333	265.94
913.707	347.86
914.082	326.8
914.456	247.22
914.83	282.33
915.205	282.33
915.579	275.31
915.953	279.99
916.327	277.65
916.701	228.49
917.075	308.07
917.449	268.28
917.823	261.26
918.197	319.78
918.571	347.86
918.944	317.44
919.318	272.96
919.692	340.84
920.065	294.03
920.438	345.52
920.812	303.39
921.185	275.31
921.558	244.88
921.932	305.73
922.305	289.35
922.678	296.37
923.051	240.2
923.424	312.75
923.797	296.37
924.17	303.39
924.542	347.86
924.915	333.82
925.288	268.28
925.661	268.28
926.033	301.05
926.406	331.48
926.778	301.05
927.15	343.18
927.523	324.46
927.895	308.07
928.267	282.33
928.639	350.2
929.011	277.65
929.383	258.92
929.755	294.03
930.127	284.67
930.499	244.88
930.871	310.41
931.242	324.46
931.614	291.69
931.986	287.01
932.357	294.03
932.729	270.62
933.1	287.01
933.471	265.94
933.843	254.24
934.214	357.22
934.585	294.03
934.956	244.88
935.327	366.59
935.698	340.84
936.069	265.94
936.44	282.33
936.811	275.31
937.182	354.88
937.552	301.05
937.923	258.92
938.293	312.75
938.664	282.33
939.034	317.44
939.405	294.03
939.775	315.09
940.145	291.69
940.516	340.84
940.886	294.03
941.256	315.09
941.626	268.28
941.996	322.12
942.366	291.69
942.735	277.65
943.105	296.37
943.475	361.91
943.845	277.65
944.214	336.16
944.584	296.37
944.953	230.84
945.323	357.22
945.692	333.82
946.061	275.31
946.43	329.14
946.8	296.37
947.169	251.9
947.538	258.92
947.907	301.05
948.276	256.58
948.645	324.46
949.013	312.75
949.382	282.33
949.751	284.67
950.119	305.73
950.488	338.5
950.857	296.37
951.225	359.56
951.593	272.96
951.962	305.73
952.33	317.44
952.698	305.73
953.066	333.82
953.434	387.65
953.802	343.18
954.17	331.48
954.538	268.28
954.906	315.09
955.274	338.5
955.642	272.96
956.009	226.15
956.377	282.33
956.744	315.09
957.112	270.62
957.479	298.71
957.847	275.31
958.214	340.84
958.581	343.18
958.948	294.03
959.315	275.31
959.683	305.73
960.05	296.37
960.416	347.86
960.783	291.69
961.15	361.91
961.517	272.96
961.884	305.73
962.25	265.94
962.617	284.67
962.983	324.46
963.35	279.99
963.716	329.14
964.082	338.5
964.449	249.56
964.815	282.33
965.181	265.94
965.547	303.39
965.913	237.86
966.279	244.88
966.645	279.99
967.011	287.01
967.377	333.82
967.742	287.01
968.108	340.84
968.474	317.44
968.839	329.14
969.205	258.92
969.57	230.84
969.935	338.5
970.301	340.84
970.666	336.16
971.031	249.56
971.396	329.14
971.761	279.99
972.126	263.6
972.491	317.44
972.856	277.65
973.221	317.44
973.586	247.22
973.95	326.8
974.315	354.88
974.679	235.52
975.044	294.03
975.408	254.24
975.773	298.71
976.137	275.31
976.501	298.71
976.866	310.41
977.23	237.86
977.594	317.44
977.958	315.09
978.322	322.12
978.686	279.99
979.049	226.15
979.413	345.52
979.777	333.82
980.141	357.22
980.504	312.75
980.868	298.71
981.231	303.39
981.595	282.33
981.958	279.99
982.321	268.28
982.684	289.35
983.048	282.33
983.411	312.75
983.774	284.67
984.137	343.18
984.5	275.31
984.862	247.22
985.225	287.01
985.588	221.47
985.951	235.52
986.313	221.47
986.676	296.37
987.038	263.6
987.401	357.22
987.763	317.44
988.125	315.09
988.488	282.33
988.85	270.62
989.212	401.69
989.574	289.35
989.936	221.47
990.298	284.67
990.66	247.22
991.022	312.75
991.383	275.31
991.745	235.52
992.107	366.59
992.468	287.01
992.83	277.65
993.191	361.91
993.553	322.12
993.914	251.9
994.275	324.46
994.637	287.01
994.998	333.82
995.359	357.22
995.72	270.62
996.081	338.5
996.442	305.73
996.803	287.01
997.163	270.62
997.524	368.93
997.885	270.62
998.245	282.33
998.606	207.43
998.966	219.13
999.327	324.46
999.687	354.88
1000.047	336.16
1000.408	237.86
1000.768	254.24
1001.128	301.05
1001.488	256.58
1001.848	289.35
1002.208	287.01
1002.568	284.67
1002.927	261.26
1003.287	291.69
1003.647	354.88
1004.007	235.52
1004.366	254.24
1004.726	242.54
1005.085	331.48
1005.444	275.31
1005.804	326.8
1006.163	312.75
1006.522	317.44
1006.881	338.5
1007.24	301.05
1007.599	294.03
1007.958	357.22
1008.317	303.39
1008.676	331.48
1009.035	312.75
1009.393	258.92
1009.752	294.03
1010.111	301.05
1010.469	305.73
1010.828	277.65
1011.186	291.69
1011.544	366.59
1011.903	256.58
1012.261	287.01
1012.619	333.82
1012.977	251.9
1013.335	270.62
1013.693	333.82
1014.051	287.01
1014.409	319.78
1014.767	294.03
1015.124	298.71
1015.482	301.05
1015.84	315.09
1016.197	279.99
1016.555	380.63
1016.912	279.99
1017.269	256.58
1017.627	277.65
1017.984	242.54
1018.341	277.65
1018.698	294.03
1019.055	333.82
1019.412	226.15
1019.769	275.31
1020.126	301.05
1020.483	338.5
1020.84	357.22
1021.196	354.88
1021.553	287.01
1021.909	298.71
1022.266	284.67
1022.622	294.03
1022.979	373.61
1023.335	352.54
1023.691	284.67
1024.047	287.01
1024.404	272.96
1024.76	298.71
1025.116	254.24
1025.472	240.2
1025.827	305.73
1026.183	294.03
1026.539	275.31
1026.895	279.99
1027.25	254.24
1027.606	343.18
1027.961	301.05
1028.317	258.92
1028.672	326.8
1029.028	340.84
1029.383	329.14
1029.738	322.12
1030.093	226.15
1030.448	275.31
1030.803	315.09
1031.158	237.86
1031.513	277.65
1031.868	317.44
1032.223	310.41
1032.577	310.41
1032.932	235.52
1033.287	329.14
1033.641	336.16
1033.996	298.71
1034.35	256.58
1034.704	270.62
1035.059	289.35
1035.413	331.48
1035.767	331.48
1036.121	331.48
