Data from Al_FLMS009871__528__14-41-45-723.txt Node

Date: Fri Mar 08 14:41:45 CST 2024
User: pe5414po
Spectrometer: FLMS00987
Trigger mode: 0
Integration Time (sec): 1.000000E-1
Scans to average: 1
Electric dark correction enabled: true
Nonlinearity correction enabled: false
Boxcar width: 0
XAxis mode: Wavelengths
Number of Pixels in Spectrum: 2048
>>>>>Begin Spectral Data<<<<<
188.938	-37.89
189.409	-37.89
189.879	-37.89
190.349	-84.7
190.819	-70.65
191.29	-89.38
191.76	-103.42
192.23	-110.44
192.7	-80.02
193.17	-58.95
193.64	53.39
194.109	-65.97
194.579	-7.46
195.049	-68.31
195.519	60.42
195.988	46.37
196.458	51.05
196.927	62.76
197.397	65.1
197.866	95.52
198.336	149.36
198.805	193.83
199.274	196.17
199.744	186.8
200.213	245.32
200.682	299.15
201.151	322.56
201.62	252.34
202.089	261.7
202.558	343.62
203.027	336.6
203.495	324.9
203.964	331.92
204.433	266.38
204.902	397.45
205.37	374.05
205.839	416.18
206.307	460.65
206.776	423.2
207.244	395.11
207.712	327.24
208.181	418.52
208.649	437.24
209.117	446.6
209.585	432.56
210.053	439.58
210.521	500.44
210.989	542.57
211.457	594.06
211.925	657.25
212.393	683
212.861	638.53
213.328	720.45
213.796	699.38
214.264	750.87
214.731	762.58
215.199	900.67
215.666	865.56
216.133	1001.31
216.601	1055.14
217.068	1247.07
217.535	1298.56
218.003	1368.77
218.47	1352.39
218.937	1361.75
219.404	1420.27
219.871	1474.1
220.338	1588.78
220.805	1584.1
221.271	1574.74
221.738	1455.37
222.205	1551.34
222.671	1750.28
223.138	1944.55
223.605	1883.69
224.071	1747.94
224.538	1834.54
225.004	1811.14
225.47	1923.48
225.937	1916.46
226.403	1764.33
226.869	1633.26
227.335	1438.99
227.801	1457.71
228.267	1567.72
228.733	1588.78
229.199	1527.93
229.665	1736.24
230.131	1862.63
230.597	1921.14
231.062	1970.29
231.528	1747.94
231.994	1612.19
232.459	1530.27
232.925	1584.1
233.39	1621.55
233.856	1773.69
234.321	2084.98
234.786	2768.41
235.252	3845.06
235.717	5160.44
236.182	5633.23
236.647	5120.65
237.112	3407.38
237.577	2283.92
238.042	1883.69
238.507	1666.02
238.972	1497.5
239.436	1492.82
239.901	1385.16
240.366	1392.18
240.83	1478.78
241.295	1516.23
241.76	1467.08
242.224	1488.14
242.688	1544.31
243.153	1586.44
243.617	1525.59
244.081	1563.04
244.545	1661.34
245.01	1661.34
245.474	1743.26
245.938	1820.5
246.402	1628.57
246.866	1607.51
247.33	1612.19
247.793	1523.25
248.257	1518.57
248.721	1563.04
249.185	1516.23
249.648	1532.61
250.112	1600.49
250.575	1560.7
251.039	1642.62
251.502	1572.4
251.965	1628.57
252.429	1619.21
252.892	1806.45
253.355	1602.83
253.818	1740.92
254.281	1806.45
254.744	1871.99
255.207	2213.71
255.67	2773.1
256.133	3435.47
256.596	3955.07
257.059	3702.29
257.522	3049.28
257.984	2496.91
258.447	2279.24
258.909	2333.08
259.372	2113.06
259.834	2185.62
260.297	2115.41
260.759	2150.51
261.221	2407.97
261.684	2958
262.146	3713.99
262.608	3861.45
263.07	3444.83
263.532	3044.6
263.994	2630.32
264.456	2667.77
264.918	2557.77
265.38	2700.54
265.842	2370.52
266.303	2021.78
266.765	1722.2
267.227	1654.32
267.688	1598.15
268.15	1621.55
268.611	1722.2
269.072	1670.7
269.534	1722.2
269.995	1619.21
270.456	1602.83
270.918	1647.3
271.379	1551.34
271.84	1637.94
272.301	1469.42
272.762	1579.42
273.223	1534.95
273.684	1567.72
274.144	1577.08
274.605	1572.4
275.066	1619.21
275.527	1651.98
275.987	1799.43
276.448	2014.76
276.908	2344.78
277.369	3187.37
277.829	5108.95
278.289	8914.66
278.75	13038.69
279.21	14653.66
279.67	12069.7
280.13	8771.89
280.59	6597.53
281.05	5888.35
281.51	5127.67
281.97	3728.03
282.43	2499.25
282.89	2059.23
283.35	1909.44
283.809	2026.47
284.269	2230.09
284.729	2274.56
285.188	2017.1
285.648	1806.45
286.107	1527.93
286.567	1471.76
287.026	1544.31
287.485	1551.34
287.944	1539.63
288.404	1495.16
288.863	1453.03
289.322	1492.82
289.781	1488.14
290.24	1532.61
290.699	1549
291.158	1640.28
291.616	1691.77
292.075	1914.12
292.534	2040.51
292.992	2187.96
293.451	2099.02
293.91	1942.21
294.368	1761.98
294.827	1637.94
295.285	1450.69
295.743	1359.41
296.202	1350.05
296.66	1261.11
297.118	1291.54
297.576	1371.12
298.034	1279.83
298.492	1401.54
298.95	1389.84
299.408	1366.43
299.866	1270.47
300.324	1408.56
300.781	1347.71
301.239	1378.14
301.697	1469.42
302.154	1534.95
302.612	1518.57
303.069	1544.31
303.527	1757.3
303.984	1942.21
304.441	2438.4
304.899	3007.15
305.356	3355.89
305.813	3248.22
306.27	3203.75
306.727	3433.13
307.184	4654.89
307.641	6737.96
308.098	8359.95
308.555	10033.44
309.012	9296.17
309.468	7131.17
309.925	4165.71
310.382	2546.06
310.838	2049.87
311.295	1745.6
311.751	1642.62
312.208	1450.69
312.664	1441.33
313.12	1497.5
313.577	1392.18
314.033	1261.11
314.489	1343.03
314.945	1324.3
315.401	1216.64
315.857	1314.94
316.313	1216.64
316.769	1321.96
317.225	1134.72
317.681	1277.49
318.136	1251.75
318.592	1174.51
319.048	1270.47
319.503	1139.4
319.959	1148.76
320.414	1179.19
320.869	1130.04
321.325	1146.42
321.78	1146.42
322.235	1123.02
322.691	1211.96
323.146	1127.7
323.601	1289.2
324.056	1532.61
324.511	1736.24
324.966	1733.9
325.421	1382.82
325.875	1188.55
326.33	1380.48
326.785	1584.1
327.24	1551.34
327.694	1455.37
328.149	1258.77
328.603	1158.13
329.058	1097.27
329.512	1057.48
329.966	1134.72
330.421	1158.13
330.875	1094.93
331.329	1097.27
331.783	1155.79
332.237	1261.11
332.691	1272.81
333.145	1263.45
333.599	1420.27
334.053	1321.96
334.507	1357.07
334.96	1343.03
335.414	1366.43
335.868	1249.41
336.321	1261.11
336.775	1221.32
337.228	1307.92
337.682	1263.45
338.135	1148.76
338.588	1188.55
339.042	1326.64
339.495	1230.68
339.948	1183.87
340.401	1183.87
340.854	1151.1
341.307	1151.1
341.76	1144.08
342.213	1083.23
342.666	1237.7
343.119	1240.05
343.571	1272.81
344.024	1350.05
344.477	1235.36
344.929	1284.52
345.382	1256.43
345.834	1202.6
346.287	1228.34
346.739	1202.6
347.191	1293.88
347.644	1261.11
348.096	1293.88
348.548	1261.11
349	1270.47
349.452	1256.43
349.904	1258.77
350.356	1350.05
350.808	1314.94
351.26	1324.3
351.711	1307.92
352.163	1392.18
352.615	1424.95
353.066	1448.35
353.518	1457.71
353.969	1497.5
354.421	1651.98
354.872	1705.81
355.324	1890.71
355.775	2045.19
356.226	2330.73
356.677	2618.62
357.128	3386.32
357.579	4179.76
358.03	5314.92
358.481	6070.91
358.932	6150.49
359.383	4914.69
359.834	4074.43
360.285	3477.6
360.735	3255.25
361.186	2901.83
361.637	2541.38
362.087	2230.09
362.538	1916.46
362.988	1778.37
363.438	1591.13
363.889	1509.21
364.339	1406.22
364.789	1455.37
365.239	1394.52
365.689	1375.8
366.139	1368.77
366.589	1354.73
367.039	1228.34
367.489	1305.58
367.939	1310.26
368.389	1247.07
368.839	1249.41
369.288	1326.64
369.738	1261.11
370.187	1211.96
370.637	1242.39
371.086	1359.41
371.536	1300.9
371.985	1408.56
372.434	1326.64
372.884	1277.49
373.333	1293.88
373.782	1277.49
374.231	1293.88
374.68	1380.48
375.129	1247.07
375.578	1190.89
376.027	1233.02
376.475	1158.13
376.924	1162.81
377.373	1186.21
377.822	1167.49
378.27	1151.1
378.719	1085.57
379.167	1195.57
379.616	1146.42
380.064	1179.19
380.512	1310.26
380.961	1268.13
381.409	1314.94
381.857	1331.33
382.305	1577.08
382.753	1549
383.201	1710.49
383.649	1855.61
384.097	1719.85
384.545	1532.61
384.992	1364.09
385.44	1244.73
385.888	1321.96
386.335	1277.49
386.783	1235.36
387.231	1197.92
387.678	1141.74
388.125	1256.43
388.573	1176.85
389.02	1254.09
389.467	1202.6
389.914	1328.99
390.362	1317.28
390.809	1338.35
391.256	1230.68
391.703	1275.15
392.15	1394.52
392.596	1581.76
393.043	1783.05
393.49	2113.06
393.937	3503.34
394.383	5448.33
394.83	6295.6
395.276	5455.35
395.723	5481.1
396.169	7772.48
396.616	8200.8
397.062	5338.32
397.508	2859.7
397.954	2005.4
398.401	1701.13
398.847	1600.49
399.293	1570.06
399.739	1607.51
400.185	1541.97
400.631	1492.82
401.076	1305.58
401.522	1324.3
401.968	1366.43
402.414	1371.12
402.859	1410.9
403.305	1551.34
403.75	1509.21
404.196	1464.74
404.641	1378.14
405.086	1268.13
405.532	1417.93
405.977	1317.28
406.422	1354.73
406.867	1354.73
407.312	1382.82
407.757	1359.41
408.202	1399.2
408.647	1305.58
409.092	1343.03
409.537	1319.62
409.982	1326.64
410.426	1190.89
410.871	1331.33
411.316	1265.79
411.76	1286.86
412.205	1151.1
412.649	1275.15
413.093	1317.28
413.538	1214.3
413.982	1256.43
414.426	1221.32
414.87	1223.66
415.314	1366.43
415.758	1211.96
416.202	1181.53
416.646	1218.98
417.09	1226
417.534	1258.77
417.978	1237.7
418.421	1275.15
418.865	1326.64
419.309	1240.05
419.752	1247.07
420.196	1251.75
420.639	1209.62
421.083	1118.34
421.526	1176.85
421.969	1265.79
422.412	1141.74
422.856	1284.52
423.299	1148.76
423.742	1291.54
424.185	1284.52
424.628	1141.74
425.071	1172.17
425.513	1197.92
425.956	1183.87
426.399	1087.91
426.842	1108.98
427.284	1120.68
427.727	1169.83
428.169	1172.17
428.612	1050.46
429.054	998.97
429.497	1141.74
429.939	1076.21
430.381	1092.59
430.823	1148.76
431.265	1151.1
431.707	1094.93
432.149	1062.16
432.591	1099.61
433.033	1099.61
433.475	1132.38
433.917	1094.93
434.359	1092.59
434.8	1218.98
435.242	1172.17
435.684	1118.34
436.125	1226
436.567	1174.51
437.008	1125.36
437.449	1218.98
437.891	1158.13
438.332	1108.98
438.773	1139.4
439.214	1162.81
439.656	1125.36
440.097	1123.02
440.538	1148.76
440.978	1113.66
441.419	1167.49
441.86	1162.81
442.301	1202.6
442.742	1211.96
443.182	1305.58
443.623	1343.03
444.063	1284.52
444.504	1312.6
444.944	1331.33
445.385	1368.77
445.825	1284.52
446.265	1382.82
446.706	1476.44
447.146	1387.5
447.586	1396.86
448.026	1495.16
448.466	1464.74
448.906	1436.65
449.346	1382.82
449.786	1336.01
450.225	1408.56
450.665	1368.77
451.105	1476.44
451.544	1492.82
451.984	1614.53
452.424	1518.57
452.863	1523.25
453.302	1609.85
453.742	1551.34
454.181	1420.27
454.62	1401.54
455.059	1534.95
455.499	1422.61
455.938	1314.94
456.377	1277.49
456.816	1310.26
457.254	1286.86
457.693	1188.55
458.132	1195.57
458.571	1195.57
459.01	1310.26
459.448	1265.79
459.887	1141.74
460.325	1277.49
460.764	1282.17
461.202	1235.36
461.641	1251.75
462.079	1230.68
462.517	1228.34
462.955	1258.77
463.393	1343.03
463.832	1338.35
464.27	1364.09
464.708	1382.82
465.145	1298.56
465.583	1331.33
466.021	1558.36
466.459	1600.49
466.897	1769.01
467.334	1708.15
467.772	1551.34
468.209	1424.95
468.647	1366.43
469.084	1296.22
469.522	1251.75
469.959	1211.96
470.396	1256.43
470.833	1319.62
471.271	1247.07
471.708	1165.15
472.145	1172.17
472.582	1134.72
473.019	1179.19
473.456	1153.45
473.892	1116
474.329	1162.81
474.766	1148.76
475.202	1071.53
475.639	1125.36
476.076	1130.04
476.512	1144.08
476.949	1207.28
477.385	1279.83
477.821	1228.34
478.258	1221.32
478.694	1181.53
479.13	1165.15
479.566	1202.6
480.002	1251.75
480.438	1261.11
480.874	1298.56
481.31	1270.47
481.746	1228.34
482.181	1188.55
482.617	1230.68
483.053	1179.19
483.488	1197.92
483.924	1218.98
484.36	1249.41
484.795	1204.94
485.23	1366.43
485.666	1272.81
486.101	1279.83
486.536	1284.52
486.971	1291.54
487.407	1394.52
487.842	1240.05
488.277	1258.77
488.712	1261.11
489.146	1244.73
489.581	1193.23
490.016	1247.07
490.451	1265.79
490.885	1235.36
491.32	1193.23
491.755	1186.21
492.189	1218.98
492.624	1284.52
493.058	1254.09
493.492	1251.75
493.927	1155.79
494.361	1214.3
494.795	1237.7
495.229	1221.32
495.663	1244.73
496.097	1256.43
496.531	1197.92
496.965	1214.3
497.399	1204.94
497.833	1268.13
498.266	1345.37
498.7	1305.58
499.134	1450.69
499.567	1483.46
500.001	1649.64
500.434	1745.6
500.868	1804.11
501.301	1951.57
501.734	1790.07
502.168	1616.87
502.601	1504.53
503.034	1446.01
503.467	1392.18
503.9	1298.56
504.333	1240.05
504.766	1328.99
505.199	1382.82
505.632	1431.97
506.064	1286.86
506.497	1354.73
506.93	1286.86
507.362	1249.41
507.795	1235.36
508.227	1218.98
508.66	1193.23
509.092	1256.43
509.524	1214.3
509.956	1202.6
510.389	1237.7
510.821	1261.11
511.253	1307.92
511.685	1282.17
512.117	1237.7
512.549	1251.75
512.981	1226
513.412	1216.64
513.844	1263.45
514.276	1251.75
514.707	1263.45
515.139	1286.86
515.571	1268.13
516.002	1366.43
516.433	1314.94
516.865	1478.78
517.296	1504.53
517.727	1495.16
518.159	1684.75
518.59	1509.21
519.021	1811.14
519.452	1572.4
519.883	1469.42
520.314	1403.88
520.744	1340.69
521.175	1350.05
521.606	1343.03
522.037	1516.23
522.467	1628.57
522.898	1556.02
523.328	1541.97
523.759	1513.89
524.189	1347.71
524.62	1483.46
525.05	1574.74
525.48	1600.49
525.91	1666.02
526.341	1717.51
526.771	1785.39
527.201	1996.04
527.631	2096.68
528.061	2288.61
528.49	2651.39
528.92	3107.79
529.35	3971.45
529.78	7877.8
530.209	36532.98
530.639	61848.22
531.068	63058.27
531.498	63058.27
531.927	63058.27
532.357	63058.27
532.786	63058.27
533.215	63058.27
533.644	63058.27
534.074	55294.72
534.503	17305.48
534.932	8659.54
535.361	5640.25
535.79	3704.63
536.218	3170.99
536.647	2745.01
537.076	2419.68
537.505	1967.95
537.933	1759.64
538.362	1619.21
538.79	1448.35
539.219	1392.18
539.647	1321.96
540.076	1263.45
540.504	1197.92
540.932	1141.74
541.36	1141.74
541.788	1200.26
542.217	1183.87
542.645	1155.79
543.073	1071.53
543.5	1080.89
543.928	1106.63
544.356	1200.26
544.784	1017.69
545.211	1050.46
545.639	1027.06
546.067	1017.69
546.494	1078.55
546.922	1062.16
547.349	1059.82
547.776	949.82
548.204	1043.44
548.631	998.97
549.058	928.75
549.485	970.88
549.912	980.25
550.339	1003.65
550.766	1029.4
551.193	956.84
551.62	987.27
552.047	996.63
552.474	970.88
552.9	1020.03
553.327	970.88
553.754	998.97
554.18	1003.65
554.607	1094.93
555.033	977.91
555.459	907.69
555.886	1001.31
556.312	1013.01
556.738	959.18
557.164	970.88
557.59	1001.31
558.016	996.63
558.442	1008.33
558.868	1022.38
559.294	973.22
559.72	1113.66
560.145	1139.4
560.571	1090.25
560.997	1045.78
561.422	1080.89
561.848	1005.99
562.273	1071.53
562.699	984.93
563.124	1066.85
563.549	1022.38
563.974	1017.69
564.4	1050.46
564.825	1031.74
565.25	1038.76
565.675	1017.69
566.1	1024.72
566.525	1101.95
566.95	1200.26
567.374	1197.92
567.799	1263.45
568.224	1359.41
568.648	1380.48
569.073	1382.82
569.497	1352.39
569.922	1296.22
570.346	1317.28
570.771	1265.79
571.195	1272.81
571.619	1153.45
572.043	1101.95
572.467	1043.44
572.891	1130.04
573.315	1127.7
573.739	984.93
574.163	935.78
574.587	952.16
575.011	912.37
575.435	839.81
575.858	886.62
576.282	884.28
576.705	790.66
577.129	895.99
577.552	795.34
577.976	874.92
578.399	849.18
578.822	793
579.245	795.34
579.669	757.89
580.092	793
580.515	856.2
580.938	781.3
581.361	818.75
581.784	697.04
582.206	743.85
582.629	778.96
583.052	718.11
583.474	811.73
583.897	797.68
584.32	736.83
584.742	727.47
585.165	720.45
585.587	711.08
586.009	694.7
586.431	739.17
586.854	725.13
587.276	673.64
587.698	785.98
588.12	671.29
588.542	753.21
588.964	755.55
589.386	711.08
589.807	734.49
590.229	725.13
590.651	704.06
591.073	673.64
591.494	683
591.916	746.19
592.337	722.79
592.759	797.68
593.18	739.17
593.601	832.79
594.022	701.72
594.444	769.6
594.865	802.36
595.286	790.66
595.707	729.81
596.128	846.84
596.549	722.79
596.97	692.36
597.39	666.61
597.811	706.4
598.232	727.47
598.652	652.57
599.073	739.17
599.494	666.61
599.914	647.89
600.334	687.68
600.755	706.4
601.175	734.49
601.595	713.42
602.015	694.7
602.436	699.38
602.856	797.68
603.276	694.7
603.696	713.42
604.115	680.66
604.535	687.68
604.955	741.51
605.375	675.98
605.794	699.38
606.214	626.82
606.634	633.85
607.053	671.29
607.473	718.11
607.892	668.95
608.311	631.51
608.731	640.87
609.15	697.04
609.569	743.85
609.988	671.29
610.407	727.47
610.826	718.11
611.245	736.83
611.664	647.89
612.083	776.62
612.501	729.81
612.92	762.58
613.339	753.21
613.757	736.83
614.176	683
614.594	697.04
615.013	769.6
615.431	657.25
615.85	734.49
616.268	739.17
616.686	708.74
617.104	750.87
617.522	760.24
617.94	657.25
618.358	785.98
618.776	739.17
619.194	666.61
619.612	797.68
620.03	722.79
620.447	804.71
620.865	771.94
621.282	736.83
621.7	793
622.117	764.92
622.535	818.75
622.952	895.99
623.369	874.92
623.787	935.78
624.204	996.63
624.621	1059.82
625.038	1048.12
625.455	1059.82
625.872	1062.16
626.289	1055.14
626.706	984.93
627.123	1024.72
627.539	881.94
627.956	919.39
628.373	870.24
628.789	863.22
629.206	797.68
629.622	853.86
630.038	718.11
630.455	734.49
630.871	727.47
631.287	694.7
631.703	704.06
632.12	748.53
632.536	722.79
632.952	631.51
633.368	666.61
633.783	690.02
634.199	683
634.615	680.66
635.031	652.57
635.446	680.66
635.862	654.91
636.277	589.38
636.693	622.14
637.108	636.19
637.524	631.51
637.939	692.36
638.354	617.46
638.77	619.8
639.185	594.06
639.6	605.76
640.015	622.14
640.43	640.87
640.845	615.12
641.259	549.59
641.674	608.1
642.089	540.22
642.504	563.63
642.918	565.97
643.333	612.78
643.747	547.25
644.162	580.01
644.576	512.14
644.991	587.04
645.405	596.4
645.819	563.63
646.233	608.1
646.647	556.61
647.061	537.88
647.475	542.57
647.889	568.31
648.303	594.06
648.717	540.22
649.131	502.78
649.545	580.01
649.958	570.65
650.372	554.27
650.785	603.42
651.199	617.46
651.612	556.61
652.026	575.33
652.439	582.35
652.852	577.67
653.266	537.88
653.679	516.82
654.092	516.82
654.505	596.4
654.918	575.33
655.331	587.04
655.744	572.99
656.156	643.21
656.569	636.19
656.982	526.18
657.394	533.2
657.807	577.67
658.22	589.38
658.632	603.42
659.044	558.95
659.457	537.88
659.869	528.52
660.281	505.12
660.693	530.86
661.106	551.93
661.518	498.1
661.93	535.54
662.342	458.31
662.754	505.12
663.165	547.25
663.577	516.82
663.989	502.78
664.401	556.61
664.812	547.25
665.224	544.91
665.635	577.67
666.047	551.93
666.458	577.67
666.869	512.14
667.281	554.27
667.692	556.61
668.103	551.93
668.514	528.52
668.925	505.12
669.336	549.59
669.747	507.46
670.158	556.61
670.569	572.99
670.979	537.88
671.39	523.84
671.801	535.54
672.211	568.31
672.622	591.72
673.032	484.05
673.443	514.48
673.853	455.97
674.263	472.35
674.674	535.54
675.084	481.71
675.494	444.26
675.904	448.94
676.314	535.54
676.724	460.65
677.134	455.97
677.544	474.69
677.953	500.44
678.363	587.04
678.773	512.14
679.182	481.71
679.592	491.07
680.001	409.15
680.411	453.63
680.82	439.58
681.23	507.46
681.639	432.56
682.048	453.63
682.457	446.6
682.866	462.99
683.275	479.37
683.684	516.82
684.093	572.99
684.502	505.12
684.911	507.46
685.32	587.04
685.728	512.14
686.137	455.97
686.546	491.07
686.954	493.41
687.363	505.12
687.771	467.67
688.179	514.48
688.588	629.17
688.996	430.22
689.404	486.39
689.812	519.16
690.22	500.44
690.628	427.88
691.036	500.44
691.444	416.18
691.852	446.6
692.26	493.41
692.667	491.07
693.075	409.15
693.483	385.75
693.89	495.75
694.298	500.44
694.705	418.52
695.112	453.63
695.52	451.28
695.927	458.31
696.334	530.86
696.741	444.26
697.148	521.5
697.555	488.73
697.962	439.58
698.369	523.84
698.776	484.05
699.183	537.88
699.59	493.41
699.996	477.03
700.403	383.41
700.81	411.5
701.216	470.01
701.623	439.58
702.029	514.48
702.435	528.52
702.842	481.71
703.248	591.72
703.654	603.42
704.06	612.78
704.466	746.19
704.872	736.83
705.278	741.51
705.684	652.57
706.09	624.48
706.496	659.59
706.901	528.52
707.307	633.85
707.712	547.25
708.118	472.35
708.523	558.95
708.929	512.14
709.334	500.44
709.74	437.24
710.145	432.56
710.55	420.86
710.955	486.39
711.36	399.79
711.765	434.9
712.17	413.84
712.575	392.77
712.98	963.86
713.385	453.63
713.789	423.2
714.194	455.97
714.599	430.22
715.003	477.03
715.408	427.88
715.812	395.11
716.217	420.86
716.621	420.86
717.025	477.03
717.429	411.5
717.833	460.65
718.238	439.58
718.642	467.67
719.046	416.18
719.449	453.63
719.853	418.52
720.257	406.81
720.661	378.73
721.065	395.11
721.468	409.15
721.872	369.37
722.275	455.97
722.679	376.39
723.082	418.52
723.485	378.73
723.889	441.92
724.292	448.94
724.695	395.11
725.098	402.13
725.501	390.43
725.904	367.03
726.307	448.94
726.71	395.11
727.113	420.86
727.516	420.86
727.918	418.52
728.321	425.54
728.724	334.26
729.126	355.32
729.529	411.5
729.931	397.45
730.333	367.03
730.736	280.43
731.138	425.54
731.54	397.45
731.942	376.39
732.344	385.75
732.746	411.5
733.148	437.24
733.55	381.07
733.952	376.39
734.354	287.45
734.756	355.32
735.157	411.5
735.559	303.83
735.96	385.75
736.362	430.22
736.763	416.18
737.165	397.45
737.566	362.34
737.967	409.15
738.368	369.37
738.77	441.92
739.171	367.03
739.572	402.13
739.973	430.22
740.374	352.98
740.774	423.2
741.175	334.26
741.576	425.54
741.977	369.37
742.377	397.45
742.778	395.11
743.178	458.31
743.579	427.88
743.979	432.56
744.379	488.73
744.78	451.28
745.18	467.67
745.58	458.31
745.98	399.79
746.38	446.6
746.78	404.47
747.18	420.86
747.58	434.9
747.98	462.99
748.38	425.54
748.779	441.92
749.179	425.54
749.578	404.47
749.978	371.71
750.377	367.03
750.777	324.9
751.176	488.73
751.575	446.6
751.975	406.81
752.374	367.03
752.773	439.58
753.172	395.11
753.571	285.11
753.97	376.39
754.369	385.75
754.768	397.45
755.166	334.26
755.565	376.39
755.964	390.43
756.362	413.84
756.761	381.07
757.159	331.92
757.558	352.98
757.956	355.32
758.354	343.62
758.753	331.92
759.151	371.71
759.549	322.56
759.947	378.73
760.345	303.83
760.743	376.39
761.141	383.41
761.539	352.98
761.936	240.64
762.334	371.71
762.732	376.39
763.129	345.96
763.527	345.96
763.924	341.28
764.322	345.96
764.719	367.03
765.117	378.73
765.514	322.56
765.911	404.47
766.308	331.92
766.705	381.07
767.102	348.3
767.499	367.03
767.896	334.26
768.293	338.94
768.69	392.77
769.086	338.94
769.483	306.17
769.88	341.28
770.276	395.11
770.673	350.64
771.069	362.34
771.466	360
771.862	381.07
772.258	362.34
772.654	390.43
773.05	383.41
773.447	348.3
773.843	355.32
774.239	341.28
774.634	327.24
775.03	289.79
775.426	301.49
775.822	336.6
776.218	381.07
776.613	392.77
777.009	439.58
777.404	460.65
777.8	462.99
778.195	388.09
778.59	406.81
778.986	374.05
779.381	338.94
779.776	367.03
780.171	371.71
780.566	376.39
780.961	383.41
781.356	395.11
781.751	381.07
782.146	313.19
782.54	390.43
782.935	275.74
783.33	320.21
783.724	392.77
784.119	371.71
784.513	327.24
784.908	409.15
785.302	376.39
785.696	364.68
786.09	322.56
786.485	247.66
786.879	313.19
787.273	343.62
787.667	313.19
788.061	352.98
788.454	352.98
788.848	418.52
789.242	383.41
789.636	338.94
790.029	322.56
790.423	322.56
790.816	388.09
791.21	360
791.603	301.49
791.997	334.26
792.39	371.71
792.783	413.84
793.176	348.3
793.569	324.9
793.962	406.81
794.355	392.77
794.748	338.94
795.141	409.15
795.534	360
795.927	338.94
796.319	271.06
796.712	357.66
797.105	308.51
797.497	367.03
797.89	381.07
798.282	397.45
798.674	329.58
799.067	341.28
799.459	418.52
799.851	355.32
800.243	409.15
800.635	310.85
801.027	376.39
801.419	308.51
801.811	360
802.203	364.68
802.594	343.62
802.986	310.85
803.378	294.47
803.769	367.03
804.161	341.28
804.552	345.96
804.944	278.08
805.335	371.71
805.726	348.3
806.118	292.13
806.509	341.28
806.9	341.28
807.291	355.32
807.682	348.3
808.073	320.21
808.464	320.21
808.855	348.3
809.245	350.64
809.636	301.49
810.027	315.53
810.417	362.34
810.808	282.77
811.198	315.53
811.589	315.53
811.979	341.28
812.369	313.19
812.759	352.98
813.15	350.64
813.54	378.73
813.93	329.58
814.32	348.3
814.71	350.64
815.1	338.94
815.489	362.34
815.879	320.21
816.269	352.98
816.658	371.71
817.048	329.58
817.438	345.96
817.827	352.98
818.216	383.41
818.606	360
818.995	367.03
819.384	252.34
819.773	327.24
820.163	299.15
820.552	324.9
820.941	357.66
821.33	355.32
821.718	402.13
822.107	364.68
822.496	369.37
822.885	334.26
823.273	299.15
823.662	364.68
824.05	303.83
824.439	418.52
824.827	397.45
825.216	280.43
825.604	345.96
825.992	352.98
826.38	299.15
826.768	329.58
827.156	360
827.544	331.92
827.932	299.15
828.32	350.64
828.708	329.58
829.096	352.98
829.483	357.66
829.871	364.68
830.259	306.17
830.646	385.75
831.034	350.64
831.421	287.45
831.808	374.05
832.196	350.64
832.583	273.4
832.97	296.81
833.357	360
833.744	378.73
834.131	324.9
834.518	357.66
834.905	345.96
835.292	367.03
835.678	329.58
836.065	313.19
836.452	338.94
836.838	364.68
837.225	334.26
837.611	343.62
837.998	352.98
838.384	385.75
838.77	345.96
839.157	383.41
839.543	341.28
839.929	327.24
840.315	320.21
840.701	355.32
841.087	313.19
841.473	296.81
841.858	317.87
842.244	352.98
842.63	317.87
843.015	334.26
843.401	725.13
843.787	331.92
844.172	345.96
844.557	341.28
844.943	327.24
845.328	329.58
845.713	338.94
846.098	303.83
846.483	315.53
846.868	331.92
847.253	334.26
847.638	362.34
848.023	334.26
848.408	299.15
848.793	357.66
849.177	275.74
849.562	350.64
849.947	294.47
850.331	430.22
850.715	320.21
851.1	343.62
851.484	315.53
851.868	338.94
852.253	350.64
852.637	315.53
853.021	355.32
853.405	303.83
853.789	338.94
854.173	324.9
854.557	331.92
854.94	369.37
855.324	362.34
855.708	301.49
856.091	280.43
856.475	348.3
856.858	343.62
857.242	322.56
857.625	282.77
858.009	275.74
858.392	287.45
858.775	294.47
859.158	315.53
859.541	338.94
859.924	399.79
860.307	345.96
860.69	357.66
861.073	308.51
861.456	329.58
861.838	317.87
862.221	350.64
862.604	362.34
862.986	280.43
863.369	352.98
863.751	392.77
864.133	343.62
864.516	322.56
864.898	360
865.28	360
865.662	313.19
866.044	289.79
866.426	348.3
866.808	348.3
867.19	315.53
867.572	376.39
867.954	378.73
868.336	254.68
868.717	334.26
869.099	308.51
869.48	334.26
869.862	385.75
870.243	376.39
870.625	360
871.006	331.92
871.387	336.6
871.768	310.85
872.149	381.07
872.53	371.71
872.911	320.21
873.292	294.47
873.673	301.49
874.054	336.6
874.435	285.11
874.815	334.26
875.196	334.26
875.577	278.08
875.957	364.68
876.338	259.36
876.718	313.19
877.098	388.09
877.479	350.64
877.859	322.56
878.239	322.56
878.619	348.3
878.999	273.4
879.379	343.62
879.759	292.13
880.139	352.98
880.519	357.66
880.898	343.62
881.278	317.87
881.658	310.85
882.037	285.11
882.417	320.21
882.796	364.68
883.176	294.47
883.555	324.9
883.934	282.77
884.313	343.62
884.693	261.7
885.072	395.11
885.451	285.11
885.83	329.58
886.209	233.61
886.587	289.79
886.966	352.98
887.345	334.26
887.724	310.85
888.102	336.6
888.481	285.11
888.859	313.19
889.238	331.92
889.616	315.53
889.994	345.96
890.373	338.94
890.751	301.49
891.129	357.66
891.507	271.06
891.885	397.45
892.263	320.21
892.641	338.94
893.019	278.08
893.396	317.87
893.774	282.77
894.152	273.4
894.529	282.77
894.907	313.19
895.284	303.83
895.662	362.34
896.039	301.49
896.416	287.45
896.794	310.85
897.171	343.62
897.548	350.64
897.925	310.85
898.302	275.74
898.679	343.62
899.056	369.37
899.433	329.58
899.809	320.21
900.186	324.9
900.563	364.68
900.939	385.75
901.316	338.94
901.692	292.13
902.069	308.51
902.445	425.54
902.821	329.58
903.197	343.62
903.574	315.53
903.95	285.11
904.326	296.81
904.702	310.85
905.078	341.28
905.454	303.83
905.829	404.47
906.205	336.6
906.581	338.94
906.956	338.94
907.332	306.17
907.707	334.26
908.083	397.45
908.458	301.49
908.833	320.21
909.209	336.6
909.584	275.74
909.959	320.21
910.334	338.94
910.709	306.17
911.084	280.43
911.459	334.26
911.834	357.66
912.209	324.9
912.583	345.96
912.958	331.92
913.333	271.06
913.707	320.21
914.082	261.7
914.456	360
914.83	296.81
915.205	327.24
915.579	352.98
915.953	322.56
916.327	306.17
916.701	257.02
917.075	341.28
917.449	360
917.823	324.9
918.197	289.79
918.571	348.3
918.944	348.3
919.318	320.21
919.692	341.28
920.065	360
920.438	315.53
920.812	315.53
921.185	315.53
921.558	287.45
921.932	301.49
922.305	331.92
922.678	313.19
923.051	341.28
923.424	299.15
923.797	301.49
924.17	301.49
924.542	315.53
924.915	348.3
925.288	299.15
925.661	357.66
926.033	310.85
926.406	294.47
926.778	315.53
927.15	313.19
927.523	338.94
927.895	259.36
928.267	334.26
928.639	285.11
929.011	282.77
929.383	254.68
929.755	289.79
930.127	303.83
930.499	301.49
930.871	320.21
931.242	334.26
931.614	303.83
931.986	315.53
932.357	287.45
932.729	306.17
933.1	327.24
933.471	338.94
933.843	294.47
934.214	327.24
934.585	303.83
934.956	266.38
935.327	306.17
935.698	371.71
936.069	374.05
936.44	310.85
936.811	334.26
937.182	275.74
937.552	360
937.923	303.83
938.293	334.26
938.664	317.87
939.034	273.4
939.405	301.49
939.775	268.72
940.145	331.92
940.516	327.24
940.886	320.21
941.256	315.53
941.626	378.73
941.996	357.66
942.366	327.24
942.735	381.07
943.105	345.96
943.475	315.53
943.845	273.4
944.214	303.83
944.584	275.74
944.953	299.15
945.323	285.11
945.692	306.17
946.061	301.49
946.43	301.49
946.8	341.28
947.169	315.53
947.538	322.56
947.907	334.26
948.276	352.98
948.645	292.13
949.013	350.64
949.382	320.21
949.751	313.19
950.119	327.24
950.488	306.17
950.857	338.94
951.225	329.58
951.593	352.98
951.962	331.92
952.33	331.92
952.698	338.94
953.066	301.49
953.434	242.98
953.802	292.13
954.17	338.94
954.538	334.26
954.906	357.66
955.274	360
955.642	343.62
956.009	348.3
956.377	308.51
956.744	324.9
957.112	357.66
957.479	388.09
957.847	278.08
958.214	275.74
958.581	378.73
958.948	381.07
959.315	320.21
959.683	289.79
960.05	324.9
960.416	315.53
960.783	369.37
961.15	306.17
961.517	285.11
961.884	299.15
962.25	327.24
962.617	306.17
962.983	299.15
963.35	250
963.716	261.7
964.082	345.96
964.449	331.92
964.815	280.43
965.181	336.6
965.547	350.64
965.913	280.43
966.279	315.53
966.645	336.6
967.011	289.79
967.377	362.34
967.742	369.37
968.108	299.15
968.474	257.02
968.839	331.92
969.205	327.24
969.57	413.84
969.935	313.19
970.301	362.34
970.666	282.77
971.031	299.15
971.396	306.17
971.761	390.43
972.126	289.79
972.491	338.94
972.856	280.43
973.221	317.87
973.586	317.87
973.95	364.68
974.315	343.62
974.679	341.28
975.044	336.6
975.408	327.24
975.773	322.56
976.137	308.51
976.501	282.77
976.866	345.96
977.23	308.51
977.594	352.98
977.958	299.15
978.322	343.62
978.686	345.96
979.049	313.19
979.413	317.87
979.777	331.92
980.141	336.6
980.504	266.38
980.868	296.81
981.231	280.43
981.595	301.49
981.958	327.24
982.321	250
982.684	350.64
983.048	327.24
983.411	287.45
983.774	383.41
984.137	261.7
984.5	310.85
984.862	331.92
985.225	317.87
985.588	322.56
985.951	317.87
986.313	268.72
986.676	315.53
987.038	341.28
987.401	334.26
987.763	360
988.125	322.56
988.488	247.66
988.85	264.04
989.212	317.87
989.574	287.45
989.936	278.08
990.298	315.53
990.66	343.62
991.022	308.51
991.383	374.05
991.745	331.92
992.107	271.06
992.468	360
992.83	266.38
993.191	327.24
993.553	343.62
993.914	294.47
994.275	334.26
994.637	310.85
994.998	285.11
995.359	336.6
995.72	348.3
996.081	289.79
996.442	320.21
996.803	268.72
997.163	275.74
997.524	320.21
997.885	360
998.245	334.26
998.606	308.51
998.966	343.62
999.327	250
999.687	348.3
1000.047	402.13
1000.408	350.64
1000.768	289.79
1001.128	317.87
1001.488	395.11
1001.848	280.43
1002.208	287.45
1002.568	331.92
1002.927	289.79
1003.287	306.17
1003.647	299.15
1004.007	322.56
1004.366	301.49
1004.726	360
1005.085	257.02
1005.444	261.7
1005.804	292.13
1006.163	367.03
1006.522	320.21
1006.881	301.49
1007.24	355.32
1007.599	338.94
1007.958	371.71
1008.317	320.21
1008.676	348.3
1009.035	271.06
1009.393	362.34
1009.752	364.68
1010.111	334.26
1010.469	334.26
1010.828	336.6
1011.186	280.43
1011.544	331.92
1011.903	294.47
1012.261	350.64
1012.619	369.37
1012.977	299.15
1013.335	320.21
1013.693	278.08
1014.051	362.34
1014.409	310.85
1014.767	345.96
1015.124	338.94
1015.482	355.32
1015.84	313.19
1016.197	264.04
1016.555	317.87
1016.912	352.98
1017.269	322.56
1017.627	282.77
1017.984	381.07
1018.341	364.68
1018.698	336.6
1019.055	334.26
1019.412	310.85
1019.769	322.56
1020.126	360
1020.483	336.6
1020.84	322.56
1021.196	352.98
1021.553	376.39
1021.909	371.71
1022.266	308.51
1022.622	362.34
1022.979	341.28
1023.335	367.03
1023.691	360
1024.047	271.06
1024.404	271.06
1024.76	273.4
1025.116	352.98
1025.472	376.39
1025.827	308.51
1026.183	322.56
1026.539	282.77
1026.895	317.87
1027.25	320.21
1027.606	285.11
1027.961	367.03
1028.317	338.94
1028.672	355.32
1029.028	292.13
1029.383	357.66
1029.738	329.58
1030.093	334.26
1030.448	322.56
1030.803	310.85
1031.158	367.03
1031.513	329.58
1031.868	313.19
1032.223	310.85
1032.577	315.53
1032.932	296.81
1033.287	376.39
1033.641	310.85
1033.996	338.94
1034.35	317.87
1034.704	345.96
1035.059	324.9
1035.413	268.72
1035.767	268.72
1036.121	268.72
