Data from Al_FLMS009871__477__14-34-54-732.txt Node

Date: Fri Mar 08 14:34:54 CST 2024
User: pe5414po
Spectrometer: FLMS00987
Trigger mode: 0
Integration Time (sec): 1.000000E-1
Scans to average: 1
Electric dark correction enabled: true
Nonlinearity correction enabled: false
Boxcar width: 0
XAxis mode: Wavelengths
Number of Pixels in Spectrum: 2048
>>>>>Begin Spectral Data<<<<<
188.938	-92.01
189.409	-92.01
189.879	-92.01
190.349	-66.27
190.819	-45.2
191.29	-113.08
191.76	-52.22
192.23	-63.93
192.7	-80.31
193.17	-10.09
193.64	-61.59
194.109	-26.48
194.579	-47.54
195.049	-49.88
195.519	3.95
195.988	-40.52
196.458	74.17
196.927	111.61
197.397	113.95
197.866	137.36
198.336	104.59
198.805	139.7
199.274	139.7
199.744	181.83
200.213	156.08
200.682	181.83
201.151	275.45
201.62	242.68
202.089	273.11
202.558	277.79
203.027	245.02
203.495	245.02
203.964	298.86
204.433	326.94
204.902	277.79
205.37	340.99
205.839	280.13
206.307	214.6
206.776	308.22
207.244	245.02
207.712	291.84
208.181	261.41
208.649	312.9
209.117	312.9
209.585	326.94
210.053	280.13
210.521	261.41
210.989	310.56
211.457	277.79
211.925	280.13
212.393	205.24
212.861	312.9
213.328	294.18
213.796	305.88
214.264	355.03
214.731	303.54
215.199	282.47
215.666	273.11
216.133	268.43
216.601	233.32
217.068	282.47
217.535	266.09
218.003	219.28
218.47	287.15
218.937	270.77
219.404	252.05
219.871	259.07
220.338	282.47
220.805	263.75
221.271	312.9
221.738	280.13
222.205	287.15
222.671	238
223.138	284.81
223.605	263.75
224.071	280.13
224.538	291.84
225.004	259.07
225.47	216.94
225.937	228.64
226.403	266.09
226.869	275.45
227.335	333.97
227.801	322.26
228.267	263.75
228.733	263.75
229.199	282.47
229.665	263.75
230.131	230.98
230.597	322.26
231.062	172.47
231.528	266.09
231.994	256.73
232.459	245.02
232.925	277.79
233.39	245.02
233.856	245.02
234.321	291.84
234.786	336.31
235.252	291.84
235.717	247.37
236.182	308.22
236.647	228.64
237.112	355.03
237.577	340.99
238.042	287.15
238.507	308.22
238.972	310.56
239.436	289.5
239.901	296.52
240.366	235.66
240.83	289.5
241.295	223.96
241.76	284.81
242.224	287.15
242.688	280.13
243.153	340.99
243.617	195.87
244.081	315.24
244.545	235.66
245.01	294.18
245.474	277.79
245.938	317.58
246.402	277.79
246.866	242.68
247.33	245.02
247.793	263.75
248.257	247.37
248.721	315.24
249.185	223.96
249.648	280.13
250.112	355.03
250.575	287.15
251.039	305.88
251.502	280.13
251.965	308.22
252.429	280.13
252.892	240.34
253.355	305.88
253.818	289.5
254.281	270.77
254.744	336.31
255.207	282.47
255.67	277.79
256.133	284.81
256.596	284.81
257.059	326.94
257.522	219.28
257.984	329.28
258.447	263.75
258.909	319.92
259.372	331.62
259.834	329.28
260.297	270.77
260.759	317.58
261.221	261.41
261.684	268.43
262.146	298.86
262.608	252.05
263.07	223.96
263.532	252.05
263.994	277.79
264.456	298.86
264.918	280.13
265.38	312.9
265.842	270.77
266.303	329.28
266.765	317.58
267.227	308.22
267.688	352.69
268.15	317.58
268.611	369.07
269.072	223.96
269.534	326.94
269.995	305.88
270.456	303.54
270.918	310.56
271.379	312.9
271.84	326.94
272.301	230.98
272.762	296.52
273.223	317.58
273.684	296.52
274.144	308.22
274.605	259.07
275.066	259.07
275.527	284.81
275.987	268.43
276.448	312.9
276.908	338.65
277.369	287.15
277.829	319.92
278.289	305.88
278.75	319.92
279.21	261.41
279.67	296.52
280.13	369.07
280.59	245.02
281.05	312.9
281.51	303.54
281.97	301.2
282.43	310.56
282.89	312.9
283.35	277.79
283.809	324.6
284.269	280.13
284.729	280.13
285.188	333.97
285.648	301.2
286.107	324.6
286.567	284.81
287.026	308.22
287.485	259.07
287.944	317.58
288.404	310.56
288.863	310.56
289.322	219.28
289.781	305.88
290.24	270.77
290.699	284.81
291.158	256.73
291.616	343.33
292.075	333.97
292.534	289.5
292.992	268.43
293.451	310.56
293.91	319.92
294.368	329.28
294.827	373.75
295.285	333.97
295.743	266.09
296.202	355.03
296.66	331.62
297.118	312.9
297.576	287.15
298.034	319.92
298.492	322.26
298.95	282.47
299.408	301.2
299.866	282.47
300.324	284.81
300.781	287.15
301.239	284.81
301.697	289.5
302.154	284.81
302.612	348.01
303.069	296.52
303.527	319.92
303.984	284.81
304.441	291.84
304.899	350.35
305.356	366.73
305.813	261.41
306.27	240.34
306.727	322.26
307.184	333.97
307.641	280.13
308.098	317.58
308.555	343.33
309.012	348.01
309.468	324.6
309.925	280.13
310.382	298.86
310.838	254.39
311.295	289.5
311.751	301.2
312.208	312.9
312.664	326.94
313.12	280.13
313.577	223.96
314.033	205.24
314.489	319.92
314.945	289.5
315.401	280.13
315.857	275.45
316.313	322.26
316.769	317.58
317.225	270.77
317.681	345.67
318.136	301.2
318.592	305.88
319.048	340.99
319.503	308.22
319.959	308.22
320.414	275.45
320.869	291.84
321.325	305.88
321.78	312.9
322.235	280.13
322.691	315.24
323.146	312.9
323.601	291.84
324.056	324.6
324.511	275.45
324.966	371.41
325.421	305.88
325.875	289.5
326.33	263.75
326.785	333.97
327.24	357.37
327.694	301.2
328.149	284.81
328.603	336.31
329.058	301.2
329.512	303.54
329.966	289.5
330.421	324.6
330.875	350.35
331.329	317.58
331.783	287.15
332.237	275.45
332.691	333.97
333.145	333.97
333.599	322.26
334.053	287.15
334.507	305.88
334.96	291.84
335.414	352.69
335.868	235.66
336.321	263.75
336.775	343.33
337.228	284.81
337.682	287.15
338.135	350.35
338.588	284.81
339.042	333.97
339.495	352.69
339.948	315.24
340.401	329.28
340.854	230.98
341.307	343.33
341.76	362.05
342.213	362.05
342.666	317.58
343.119	324.6
343.571	333.97
344.024	371.41
344.477	277.79
344.929	364.39
345.382	362.05
345.834	273.11
346.287	315.24
346.739	305.88
347.191	298.86
347.644	366.73
348.096	275.45
348.548	324.6
349	296.52
349.452	378.44
349.904	369.07
350.356	301.2
350.808	296.52
351.26	333.97
351.711	404.18
352.163	287.15
352.615	326.94
353.066	390.14
353.518	296.52
353.969	270.77
354.421	333.97
354.872	326.94
355.324	333.97
355.775	348.01
356.226	308.22
356.677	343.33
357.128	256.73
357.579	263.75
358.03	266.09
358.481	298.86
358.932	310.56
359.383	287.15
359.834	406.52
360.285	301.2
360.735	294.18
361.186	312.9
361.637	324.6
362.087	296.52
362.538	355.03
362.988	273.11
363.438	315.24
363.889	362.05
364.339	287.15
364.789	326.94
365.239	289.5
365.689	282.47
366.139	305.88
366.589	315.24
367.039	289.5
367.489	350.35
367.939	331.62
368.389	319.92
368.839	324.6
369.288	340.99
369.738	282.47
370.187	352.69
370.637	350.35
371.086	305.88
371.536	291.84
371.985	294.18
372.434	348.01
372.884	319.92
373.333	277.79
373.782	270.77
374.231	291.84
374.68	326.94
375.129	345.67
375.578	319.92
376.027	289.5
376.475	308.22
376.924	228.64
377.373	247.37
377.822	303.54
378.27	294.18
378.719	322.26
379.167	380.78
379.616	333.97
380.064	277.79
380.512	305.88
380.961	291.84
381.409	254.39
381.857	305.88
382.305	319.92
382.753	352.69
383.201	275.45
383.649	275.45
384.097	305.88
384.545	326.94
384.992	324.6
385.44	305.88
385.888	315.24
386.335	296.52
386.783	308.22
387.231	348.01
387.678	338.65
388.125	315.24
388.573	259.07
389.02	303.54
389.467	340.99
389.914	294.18
390.362	315.24
390.809	291.84
391.256	301.2
391.703	287.15
392.15	287.15
392.596	291.84
393.043	369.07
393.49	308.22
393.937	287.15
394.383	348.01
394.83	350.35
395.276	259.07
395.723	261.41
396.169	333.97
396.616	336.31
397.062	329.28
397.508	235.66
397.954	298.86
398.401	282.47
398.847	280.13
399.293	284.81
399.739	294.18
400.185	322.26
400.631	373.75
401.076	280.13
401.522	268.43
401.968	273.11
402.414	305.88
402.859	275.45
403.305	308.22
403.75	319.92
404.196	364.39
404.641	319.92
405.086	324.6
405.532	303.54
405.977	331.62
406.422	326.94
406.867	340.99
407.312	357.37
407.757	333.97
408.202	362.05
408.647	359.71
409.092	366.73
409.537	326.94
409.982	338.65
410.426	357.37
410.871	329.28
411.316	331.62
411.76	378.44
412.205	317.58
412.649	350.35
413.093	406.52
413.538	254.39
413.982	338.65
414.426	312.9
414.87	273.11
415.314	301.2
415.758	336.31
416.202	298.86
416.646	287.15
417.09	308.22
417.534	364.39
417.978	284.81
418.421	326.94
418.865	301.2
419.309	308.22
419.752	326.94
420.196	352.69
420.639	340.99
421.083	317.58
421.526	308.22
421.969	275.45
422.412	352.69
422.856	333.97
423.299	359.71
423.742	289.5
424.185	268.43
424.628	324.6
425.071	371.41
425.513	338.65
425.956	331.62
426.399	319.92
426.842	268.43
427.284	296.52
427.727	294.18
428.169	352.69
428.612	247.37
429.054	338.65
429.497	277.79
429.939	245.02
430.381	319.92
430.823	287.15
431.265	355.03
431.707	296.52
432.149	364.39
432.591	280.13
433.033	305.88
433.475	373.75
433.917	333.97
434.359	397.16
434.8	336.31
435.242	282.47
435.684	369.07
436.125	310.56
436.567	357.37
437.008	359.71
437.449	280.13
437.891	352.69
438.332	238
438.773	345.67
439.214	287.15
439.656	326.94
440.097	305.88
440.538	333.97
440.978	312.9
441.419	348.01
441.86	336.31
442.301	315.24
442.742	333.97
443.182	249.71
443.623	355.03
444.063	331.62
444.504	333.97
444.944	273.11
445.385	352.69
445.825	312.9
446.265	371.41
446.706	268.43
447.146	340.99
447.586	245.02
448.026	305.88
448.466	230.98
448.906	343.33
449.346	338.65
449.786	326.94
450.225	315.24
450.665	254.39
451.105	338.65
451.544	308.22
451.984	294.18
452.424	329.28
452.863	373.75
453.302	317.58
453.742	378.44
454.181	352.69
454.62	359.71
455.059	284.81
455.499	331.62
455.938	366.73
456.377	296.52
456.816	362.05
457.254	282.47
457.693	305.88
458.132	294.18
458.571	338.65
459.01	310.56
459.448	364.39
459.887	315.24
460.325	305.88
460.764	294.18
461.202	298.86
461.641	392.48
462.079	305.88
462.517	259.07
462.955	319.92
463.393	364.39
463.832	317.58
464.27	291.84
464.708	315.24
465.145	284.81
465.583	326.94
466.021	312.9
466.459	331.62
466.897	268.43
467.334	352.69
467.772	247.37
468.209	343.33
468.647	348.01
469.084	291.84
469.522	198.21
469.959	319.92
470.396	245.02
470.833	317.58
471.271	345.67
471.708	312.9
472.145	289.5
472.582	331.62
473.019	326.94
473.456	336.31
473.892	305.88
474.329	317.58
474.766	329.28
475.202	331.62
475.639	312.9
476.076	277.79
476.512	270.77
476.949	303.54
477.385	343.33
477.821	371.41
478.258	310.56
478.694	308.22
479.13	357.37
479.566	305.88
480.002	305.88
480.438	359.71
480.874	340.99
481.31	317.58
481.746	315.24
482.181	301.2
482.617	319.92
483.053	259.07
483.488	294.18
483.924	324.6
484.36	312.9
484.795	294.18
485.23	376.09
485.666	319.92
486.101	263.75
486.536	315.24
486.971	315.24
487.407	345.67
487.842	280.13
488.277	298.86
488.712	329.28
489.146	357.37
489.581	326.94
490.016	336.31
490.451	256.73
490.885	326.94
491.32	256.73
491.755	336.31
492.189	312.9
492.624	333.97
493.058	280.13
493.492	329.28
493.927	312.9
494.361	296.52
494.795	310.56
495.229	345.67
495.663	298.86
496.097	310.56
496.531	319.92
496.965	340.99
497.399	336.31
497.833	289.5
498.266	359.71
498.7	312.9
499.134	277.79
499.567	406.52
500.001	298.86
500.434	277.79
500.868	385.46
501.301	319.92
501.734	310.56
502.168	266.09
502.601	371.41
503.034	345.67
503.467	312.9
503.9	270.77
504.333	324.6
504.766	301.2
505.199	336.31
505.632	333.97
506.064	284.81
506.497	376.09
506.93	359.71
507.362	359.71
507.795	343.33
508.227	282.47
508.66	308.22
509.092	268.43
509.524	310.56
509.956	343.33
510.389	289.5
510.821	331.62
511.253	291.84
511.685	326.94
512.117	394.82
512.549	340.99
512.981	287.15
513.412	298.86
513.844	298.86
514.276	317.58
514.707	333.97
515.139	305.88
515.571	336.31
516.002	284.81
516.433	340.99
516.865	343.33
517.296	245.02
517.727	373.75
518.159	338.65
518.59	352.69
519.021	315.24
519.452	355.03
519.883	345.67
520.314	280.13
520.744	301.2
521.175	390.14
521.606	355.03
522.037	280.13
522.467	280.13
522.898	294.18
523.328	319.92
523.759	317.58
524.189	326.94
524.62	261.41
525.05	305.88
525.48	284.81
525.91	322.26
526.341	345.67
526.771	298.86
527.201	376.09
527.631	282.47
528.061	319.92
528.49	289.5
528.92	331.62
529.35	280.13
529.78	326.94
530.209	303.54
530.639	242.68
531.068	380.78
531.498	303.54
531.927	289.5
532.357	376.09
532.786	331.62
533.215	343.33
533.644	226.3
534.074	312.9
534.503	280.13
534.932	357.37
535.361	291.84
535.79	298.86
536.218	319.92
536.647	355.03
537.076	331.62
537.505	294.18
537.933	303.54
538.362	401.84
538.79	303.54
539.219	324.6
539.647	324.6
540.076	343.33
540.504	336.31
540.932	268.43
541.36	371.41
541.788	301.2
542.217	352.69
542.645	298.86
543.073	352.69
543.5	333.97
543.928	308.22
544.356	371.41
544.784	308.22
545.211	333.97
545.639	343.33
546.067	275.45
546.494	291.84
546.922	392.48
547.349	329.28
547.776	357.37
548.204	352.69
548.631	303.54
549.058	336.31
549.485	303.54
549.912	336.31
550.339	343.33
550.766	315.24
551.193	369.07
551.62	287.15
552.047	289.5
552.474	319.92
552.9	268.43
553.327	371.41
553.754	268.43
554.18	317.58
554.607	280.13
555.033	315.24
555.459	310.56
555.886	319.92
556.312	326.94
556.738	326.94
557.164	268.43
557.59	233.32
558.016	364.39
558.442	369.07
558.868	340.99
559.294	273.11
559.72	317.58
560.145	387.8
560.571	376.09
560.997	324.6
561.422	326.94
561.848	317.58
562.273	343.33
562.699	345.67
563.124	338.65
563.549	308.22
563.974	326.94
564.4	305.88
564.825	350.35
565.25	294.18
565.675	336.31
566.1	275.45
566.525	357.37
566.95	324.6
567.374	277.79
567.799	340.99
568.224	319.92
568.648	359.71
569.073	366.73
569.497	296.52
569.922	362.05
570.346	317.58
570.771	301.2
571.195	247.37
571.619	296.52
572.043	352.69
572.467	322.26
572.891	336.31
573.315	352.69
573.739	291.84
574.163	366.73
574.587	385.46
575.011	326.94
575.435	277.79
575.858	289.5
576.282	336.31
576.705	369.07
577.129	308.22
577.552	319.92
577.976	340.99
578.399	317.58
578.822	319.92
579.245	331.62
579.669	331.62
580.092	338.65
580.515	322.26
580.938	336.31
581.361	301.2
581.784	268.43
582.206	364.39
582.629	324.6
583.052	345.67
583.474	369.07
583.897	282.47
584.32	303.54
584.742	282.47
585.165	284.81
585.587	315.24
586.009	312.9
586.431	268.43
586.854	331.62
587.276	268.43
587.698	333.97
588.12	315.24
588.542	296.52
588.964	301.2
589.386	296.52
589.807	268.43
590.229	273.11
590.651	343.33
591.073	312.9
591.494	305.88
591.916	348.01
592.337	364.39
592.759	282.47
593.18	291.84
593.601	301.2
594.022	373.75
594.444	411.2
594.865	359.71
595.286	317.58
595.707	340.99
596.128	312.9
596.549	331.62
596.97	249.71
597.39	340.99
597.811	305.88
598.232	301.2
598.652	343.33
599.073	315.24
599.494	343.33
599.914	371.41
600.334	387.8
600.755	329.28
601.175	291.84
601.595	329.28
602.015	301.2
602.436	305.88
602.856	509.51
603.276	340.99
603.696	322.26
604.115	317.58
604.535	333.97
604.955	291.84
605.375	287.15
605.794	376.09
606.214	312.9
606.634	305.88
607.053	312.9
607.473	301.2
607.892	312.9
608.311	343.33
608.731	394.82
609.15	333.97
609.569	331.62
609.988	301.2
610.407	348.01
610.826	289.5
611.245	362.05
611.664	338.65
612.083	317.58
612.501	298.86
612.92	284.81
613.339	338.65
613.757	359.71
614.176	355.03
614.594	298.86
615.013	338.65
615.431	252.05
615.85	371.41
616.268	345.67
616.686	261.41
617.104	359.71
617.522	312.9
617.94	315.24
618.358	322.26
618.776	331.62
619.194	305.88
619.612	301.2
620.03	348.01
620.447	366.73
620.865	333.97
621.282	362.05
621.7	336.31
622.117	326.94
622.535	322.26
622.952	310.56
623.369	319.92
623.787	294.18
624.204	289.5
624.621	315.24
625.038	289.5
625.455	359.71
625.872	305.88
626.289	331.62
626.706	291.84
627.123	317.58
627.539	315.24
627.956	315.24
628.373	333.97
628.789	308.22
629.206	355.03
629.622	254.39
630.038	254.39
630.455	329.28
630.871	322.26
631.287	298.86
631.703	284.81
632.12	294.18
632.536	238
632.952	305.88
633.368	256.73
633.783	366.73
634.199	301.2
634.615	282.47
635.031	324.6
635.446	376.09
635.862	326.94
636.277	289.5
636.693	331.62
637.108	273.11
637.524	326.94
637.939	345.67
638.354	298.86
638.77	310.56
639.185	350.35
639.6	350.35
640.015	308.22
640.43	331.62
640.845	326.94
641.259	296.52
641.674	338.65
642.089	303.54
642.504	287.15
642.918	336.31
643.333	291.84
643.747	261.41
644.162	291.84
644.576	352.69
644.991	331.62
645.405	308.22
645.819	355.03
646.233	340.99
646.647	296.52
647.061	329.28
647.475	312.9
647.889	266.09
648.303	338.65
648.717	366.73
649.131	266.09
649.545	305.88
649.958	413.54
650.372	270.77
650.785	336.31
651.199	310.56
651.612	259.07
652.026	275.45
652.439	289.5
652.852	336.31
653.266	322.26
653.679	282.47
654.092	301.2
654.505	275.45
654.918	373.75
655.331	287.15
655.744	326.94
656.156	275.45
656.569	315.24
656.982	275.45
657.394	333.97
657.807	317.58
658.22	324.6
658.632	319.92
659.044	333.97
659.457	310.56
659.869	326.94
660.281	305.88
660.693	298.86
661.106	319.92
661.518	322.26
661.93	355.03
662.342	305.88
662.754	294.18
663.165	275.45
663.577	277.79
663.989	340.99
664.401	273.11
664.812	282.47
665.224	348.01
665.635	287.15
666.047	357.37
666.458	331.62
666.869	289.5
667.281	303.54
667.692	394.82
668.103	317.58
668.514	291.84
668.925	350.35
669.336	380.78
669.747	350.35
670.158	387.8
670.569	256.73
670.979	352.69
671.39	338.65
671.801	305.88
672.211	282.47
672.622	333.97
673.032	315.24
673.443	298.86
673.853	301.2
674.263	355.03
674.674	273.11
675.084	296.52
675.494	336.31
675.904	308.22
676.314	392.48
676.724	317.58
677.134	277.79
677.544	289.5
677.953	280.13
678.363	308.22
678.773	317.58
679.182	296.52
679.592	397.16
680.001	359.71
680.411	280.13
680.82	303.54
681.23	310.56
681.639	357.37
682.048	305.88
682.457	350.35
682.866	263.75
683.275	336.31
683.684	256.73
684.093	319.92
684.502	287.15
684.911	340.99
685.32	280.13
685.728	362.05
686.137	355.03
686.546	362.05
686.954	315.24
687.363	289.5
687.771	287.15
688.179	355.03
688.588	338.65
688.996	338.65
689.404	308.22
689.812	268.43
690.22	317.58
690.628	284.81
691.036	303.54
691.444	242.68
691.852	333.97
692.26	355.03
692.667	343.33
693.075	324.6
693.483	317.58
693.89	315.24
694.298	303.54
694.705	268.43
695.112	366.73
695.52	289.5
695.927	362.05
696.334	343.33
696.741	324.6
697.148	345.67
697.555	275.45
697.962	329.28
698.369	259.07
698.776	338.65
699.183	294.18
699.59	310.56
699.996	275.45
700.403	324.6
700.81	266.09
701.216	273.11
701.623	355.03
702.029	399.5
702.435	343.33
702.842	343.33
703.248	294.18
703.654	355.03
704.06	366.73
704.466	319.92
704.872	296.52
705.278	329.28
705.684	317.58
706.09	383.12
706.496	331.62
706.901	366.73
707.307	317.58
707.712	270.77
708.118	289.5
708.523	366.73
708.929	345.67
709.334	294.18
709.74	326.94
710.145	280.13
710.55	317.58
710.955	275.45
711.36	366.73
711.765	336.31
712.17	312.9
712.575	317.58
712.98	900.37
713.385	308.22
713.789	383.12
714.194	324.6
714.599	294.18
715.003	345.67
715.408	317.58
715.812	275.45
716.217	315.24
716.621	376.09
717.025	378.44
717.429	275.45
717.833	362.05
718.238	357.37
718.642	322.26
719.046	305.88
719.449	301.2
719.853	366.73
720.257	303.54
720.661	371.41
721.065	408.86
721.468	312.9
721.872	331.62
722.275	366.73
722.679	277.79
723.082	329.28
723.485	282.47
723.889	315.24
724.292	317.58
724.695	333.97
725.098	355.03
725.501	331.62
725.904	305.88
726.307	303.54
726.71	301.2
727.113	317.58
727.516	315.24
727.918	315.24
728.321	324.6
728.724	308.22
729.126	322.26
729.529	338.65
729.931	291.84
730.333	362.05
730.736	322.26
731.138	301.2
731.54	331.62
731.942	280.13
732.344	315.24
732.746	333.97
733.148	331.62
733.55	245.02
733.952	298.86
734.354	301.2
734.756	287.15
735.157	329.28
735.559	336.31
735.96	355.03
736.362	322.26
736.763	301.2
737.165	355.03
737.566	261.41
737.967	266.09
738.368	319.92
738.77	294.18
739.171	266.09
739.572	289.5
739.973	333.97
740.374	247.37
740.774	357.37
741.175	291.84
741.576	322.26
741.977	338.65
742.377	310.56
742.778	308.22
743.178	345.67
743.579	291.84
743.979	331.62
744.379	331.62
744.78	326.94
745.18	280.13
745.58	378.44
745.98	296.52
746.38	273.11
746.78	364.39
747.18	303.54
747.58	376.09
747.98	305.88
748.38	359.71
748.779	266.09
749.179	268.43
749.578	275.45
749.978	329.28
750.377	287.15
750.777	333.97
751.176	333.97
751.575	282.47
751.975	312.9
752.374	333.97
752.773	338.65
753.172	263.75
753.571	312.9
753.97	254.39
754.369	287.15
754.768	326.94
755.166	275.45
755.565	329.28
755.964	340.99
756.362	324.6
756.761	326.94
757.159	343.33
757.558	298.86
757.956	371.41
758.354	333.97
758.753	345.67
759.151	371.41
759.549	294.18
759.947	329.28
760.345	376.09
760.743	322.26
761.141	324.6
761.539	305.88
761.936	345.67
762.334	359.71
762.732	287.15
763.129	301.2
763.527	291.84
763.924	289.5
764.322	310.56
764.719	310.56
765.117	322.26
765.514	294.18
765.911	350.35
766.308	289.5
766.705	308.22
767.102	315.24
767.499	305.88
767.896	287.15
768.293	322.26
768.69	294.18
769.086	348.01
769.483	380.78
769.88	282.47
770.276	291.84
770.673	329.28
771.069	303.54
771.466	315.24
771.862	331.62
772.258	355.03
772.654	336.31
773.05	315.24
773.447	343.33
773.843	310.56
774.239	326.94
774.634	308.22
775.03	329.28
775.426	338.65
775.822	266.09
776.218	289.5
776.613	289.5
777.009	331.62
777.404	331.62
777.8	319.92
778.195	322.26
778.59	317.58
778.986	305.88
779.381	329.28
779.776	308.22
780.171	357.37
780.566	355.03
780.961	301.2
781.356	326.94
781.751	284.81
782.146	308.22
782.54	284.81
782.935	345.67
783.33	280.13
783.724	343.33
784.119	275.45
784.513	301.2
784.908	340.99
785.302	350.35
785.696	287.15
786.09	301.2
786.485	331.62
786.879	268.43
787.273	310.56
787.667	329.28
788.061	223.96
788.454	296.52
788.848	301.2
789.242	284.81
789.636	284.81
790.029	284.81
790.423	291.84
790.816	387.8
791.21	319.92
791.603	348.01
791.997	268.43
792.39	331.62
792.783	348.01
793.176	294.18
793.569	294.18
793.962	305.88
794.355	348.01
794.748	373.75
795.141	249.71
795.534	343.33
795.927	380.78
796.319	308.22
796.712	298.86
797.105	338.65
797.497	305.88
797.89	319.92
798.282	303.54
798.674	298.86
799.067	270.77
799.459	343.33
799.851	317.58
800.243	268.43
800.635	303.54
801.027	336.31
801.419	315.24
801.811	340.99
802.203	287.15
802.594	310.56
802.986	336.31
803.378	319.92
803.769	268.43
804.161	291.84
804.552	280.13
804.944	308.22
805.335	280.13
805.726	319.92
806.118	270.77
806.509	312.9
806.9	345.67
807.291	289.5
807.682	266.09
808.073	303.54
808.464	324.6
808.855	326.94
809.245	312.9
809.636	268.43
810.027	296.52
810.417	352.69
810.808	317.58
811.198	301.2
811.589	338.65
811.979	338.65
812.369	263.75
812.759	256.73
813.15	322.26
813.54	364.39
813.93	303.54
814.32	284.81
814.71	352.69
815.1	310.56
815.489	350.35
815.879	268.43
816.269	362.05
816.658	357.37
817.048	298.86
817.438	310.56
817.827	343.33
818.216	333.97
818.606	317.58
818.995	294.18
819.384	280.13
819.773	348.01
820.163	282.47
820.552	350.35
820.941	343.33
821.33	298.86
821.718	345.67
822.107	322.26
822.496	333.97
822.885	362.05
823.273	383.12
823.662	289.5
824.05	352.69
824.439	277.79
824.827	348.01
825.216	355.03
825.604	355.03
825.992	273.11
826.38	338.65
826.768	270.77
827.156	322.26
827.544	294.18
827.932	252.05
828.32	340.99
828.708	308.22
829.096	310.56
829.483	348.01
829.871	312.9
830.259	329.28
830.646	312.9
831.034	355.03
831.421	317.58
831.808	329.28
832.196	205.24
832.583	315.24
832.97	298.86
833.357	266.09
833.744	345.67
834.131	298.86
834.518	287.15
834.905	275.45
835.292	259.07
835.678	298.86
836.065	336.31
836.452	333.97
836.838	333.97
837.225	254.39
837.611	331.62
837.998	364.39
838.384	310.56
838.77	352.69
839.157	280.13
839.543	282.47
839.929	275.45
840.315	261.41
840.701	333.97
841.087	298.86
841.473	340.99
841.858	263.75
842.244	336.31
842.63	296.52
843.015	350.35
843.401	385.46
843.787	298.86
844.172	326.94
844.557	291.84
844.943	343.33
845.328	298.86
845.713	275.45
846.098	340.99
846.483	336.31
846.868	287.15
847.253	331.62
847.638	277.79
848.023	277.79
848.408	294.18
848.793	324.6
849.177	366.73
849.562	291.84
849.947	291.84
850.331	348.01
850.715	324.6
851.1	275.45
851.484	298.86
851.868	228.64
852.253	326.94
852.637	348.01
853.021	305.88
853.405	252.05
853.789	333.97
854.173	289.5
854.557	303.54
854.94	277.79
855.324	322.26
855.708	305.88
856.091	336.31
856.475	333.97
856.858	287.15
857.242	315.24
857.625	348.01
858.009	280.13
858.392	310.56
858.775	296.52
859.158	310.56
859.541	326.94
859.924	322.26
860.307	284.81
860.69	263.75
861.073	238
861.456	275.45
861.838	277.79
862.221	291.84
862.604	289.5
862.986	319.92
863.369	287.15
863.751	310.56
864.133	331.62
864.516	345.67
864.898	312.9
865.28	324.6
865.662	317.58
866.044	282.47
866.426	336.31
866.808	319.92
867.19	273.11
867.572	294.18
867.954	350.35
868.336	331.62
868.717	317.58
869.099	322.26
869.48	277.79
869.862	333.97
870.243	357.37
870.625	336.31
871.006	310.56
871.387	282.47
871.768	282.47
872.149	275.45
872.53	298.86
872.911	317.58
873.292	373.75
873.673	350.35
874.054	333.97
874.435	298.86
874.815	345.67
875.196	369.07
875.577	315.24
875.957	319.92
876.338	298.86
876.718	289.5
877.098	310.56
877.479	315.24
877.859	322.26
878.239	308.22
878.619	326.94
878.999	308.22
879.379	319.92
879.759	333.97
880.139	322.26
880.519	326.94
880.898	284.81
881.278	294.18
881.658	310.56
882.037	282.47
882.417	336.31
882.796	324.6
883.176	282.47
883.555	312.9
883.934	336.31
884.313	256.73
884.693	366.73
885.072	298.86
885.451	333.97
885.83	289.5
886.209	301.2
886.587	303.54
886.966	326.94
887.345	357.37
887.724	406.52
888.102	270.77
888.481	348.01
888.859	312.9
889.238	322.26
889.616	333.97
889.994	247.37
890.373	345.67
890.751	301.2
891.129	273.11
891.507	296.52
891.885	291.84
892.263	280.13
892.641	317.58
893.019	326.94
893.396	315.24
893.774	369.07
894.152	340.99
894.529	256.73
894.907	359.71
895.284	315.24
895.662	343.33
896.039	343.33
896.416	343.33
896.794	315.24
897.171	315.24
897.548	263.75
897.925	301.2
898.302	296.52
898.679	301.2
899.056	310.56
899.433	308.22
899.809	308.22
900.186	249.71
900.563	275.45
900.939	326.94
901.316	284.81
901.692	252.05
902.069	291.84
902.445	319.92
902.821	350.35
903.197	315.24
903.574	294.18
903.95	266.09
904.326	275.45
904.702	268.43
905.078	268.43
905.454	305.88
905.829	319.92
906.205	291.84
906.581	343.33
906.956	277.79
907.332	333.97
907.707	223.96
908.083	359.71
908.458	282.47
908.833	357.37
909.209	315.24
909.584	322.26
909.959	263.75
910.334	266.09
910.709	326.94
911.084	263.75
911.459	357.37
911.834	308.22
912.209	324.6
912.583	331.62
912.958	303.54
913.333	303.54
913.707	275.45
914.082	319.92
914.456	310.56
914.83	315.24
915.205	301.2
915.579	310.56
915.953	270.77
916.327	294.18
916.701	273.11
917.075	312.9
917.449	275.45
917.823	289.5
918.197	259.07
918.571	284.81
918.944	319.92
919.318	287.15
919.692	280.13
920.065	287.15
920.438	273.11
920.812	392.48
921.185	376.09
921.558	303.54
921.932	343.33
922.305	308.22
922.678	298.86
923.051	191.19
923.424	287.15
923.797	305.88
924.17	336.31
924.542	308.22
924.915	277.79
925.288	329.28
925.661	315.24
926.033	275.45
926.406	266.09
926.778	324.6
927.15	303.54
927.523	315.24
927.895	338.65
928.267	357.37
928.639	329.28
929.011	305.88
929.383	319.92
929.755	317.58
930.127	336.31
930.499	340.99
930.871	282.47
931.242	322.26
931.614	326.94
931.986	308.22
932.357	282.47
932.729	317.58
933.1	343.33
933.471	275.45
933.843	336.31
934.214	340.99
934.585	401.84
934.956	268.43
935.327	343.33
935.698	369.07
936.069	338.65
936.44	289.5
936.811	273.11
937.182	319.92
937.552	333.97
937.923	247.37
938.293	355.03
938.664	289.5
939.034	312.9
939.405	338.65
939.775	338.65
940.145	284.81
940.516	317.58
940.886	305.88
941.256	317.58
941.626	270.77
941.996	324.6
942.366	275.45
942.735	291.84
943.105	336.31
943.475	369.07
943.845	310.56
944.214	291.84
944.584	355.03
944.953	317.58
945.323	305.88
945.692	336.31
946.061	373.75
946.43	312.9
946.8	345.67
947.169	333.97
947.538	312.9
947.907	331.62
948.276	315.24
948.645	340.99
949.013	291.84
949.382	348.01
949.751	315.24
950.119	333.97
950.488	273.11
950.857	312.9
951.225	308.22
951.593	305.88
951.962	212.26
952.33	331.62
952.698	329.28
953.066	331.62
953.434	310.56
953.802	324.6
954.17	296.52
954.538	284.81
954.906	343.33
955.274	289.5
955.642	333.97
956.009	338.65
956.377	324.6
956.744	277.79
957.112	355.03
957.479	319.92
957.847	284.81
958.214	329.28
958.581	268.43
958.948	294.18
959.315	317.58
959.683	329.28
960.05	294.18
960.416	310.56
960.783	310.56
961.15	369.07
961.517	308.22
961.884	338.65
962.25	266.09
962.617	326.94
962.983	315.24
963.35	242.68
963.716	266.09
964.082	282.47
964.449	289.5
964.815	315.24
965.181	331.62
965.547	338.65
965.913	256.73
966.279	238
966.645	348.01
967.011	296.52
967.377	350.35
967.742	319.92
968.108	315.24
968.474	284.81
968.839	305.88
969.205	352.69
969.57	350.35
969.935	333.97
970.301	287.15
970.666	296.52
971.031	338.65
971.396	235.66
971.761	291.84
972.126	310.56
972.491	305.88
972.856	275.45
973.221	252.05
973.586	331.62
973.95	256.73
974.315	315.24
974.679	315.24
975.044	359.71
975.408	296.52
975.773	371.41
976.137	287.15
976.501	277.79
976.866	376.09
977.23	259.07
977.594	333.97
977.958	324.6
978.322	296.52
978.686	238
979.049	357.37
979.413	319.92
979.777	329.28
980.141	343.33
980.504	301.2
980.868	289.5
981.231	378.44
981.595	303.54
981.958	305.88
982.321	336.31
982.684	256.73
983.048	324.6
983.411	380.78
983.774	259.07
984.137	312.9
984.5	315.24
984.862	282.47
985.225	333.97
985.588	287.15
985.951	301.2
986.313	268.43
986.676	322.26
987.038	319.92
987.401	376.09
987.763	364.39
988.125	376.09
988.488	343.33
988.85	331.62
989.212	275.45
989.574	317.58
989.936	308.22
990.298	301.2
990.66	305.88
991.022	315.24
991.383	364.39
991.745	284.81
992.107	312.9
992.468	287.15
992.83	291.84
993.191	238
993.553	240.34
993.914	305.88
994.275	324.6
994.637	303.54
994.998	315.24
995.359	301.2
995.72	329.28
996.081	324.6
996.442	319.92
996.803	273.11
997.163	364.39
997.524	326.94
997.885	348.01
998.245	233.32
998.606	308.22
998.966	336.31
999.327	331.62
999.687	331.62
1000.047	284.81
1000.408	355.03
1000.768	252.05
1001.128	315.24
1001.488	268.43
1001.848	282.47
1002.208	331.62
1002.568	294.18
1002.927	268.43
1003.287	310.56
1003.647	383.12
1004.007	333.97
1004.366	287.15
1004.726	287.15
1005.085	270.77
1005.444	340.99
1005.804	296.52
1006.163	287.15
1006.522	287.15
1006.881	266.09
1007.24	301.2
1007.599	301.2
1007.958	319.92
1008.317	319.92
1008.676	301.2
1009.035	322.26
1009.393	345.67
1009.752	284.81
1010.111	303.54
1010.469	284.81
1010.828	310.56
1011.186	317.58
1011.544	338.65
1011.903	371.41
1012.261	394.82
1012.619	270.77
1012.977	298.86
1013.335	312.9
1013.693	296.52
1014.051	280.13
1014.409	387.8
1014.767	350.35
1015.124	338.65
1015.482	273.11
1015.84	345.67
1016.197	324.6
1016.555	352.69
1016.912	383.12
1017.269	331.62
1017.627	336.31
1017.984	324.6
1018.341	310.56
1018.698	308.22
1019.055	319.92
1019.412	270.77
1019.769	329.28
1020.126	350.35
1020.483	294.18
1020.84	317.58
1021.196	336.31
1021.553	289.5
1021.909	277.79
1022.266	296.52
1022.622	322.26
1022.979	294.18
1023.335	317.58
1023.691	301.2
1024.047	282.47
1024.404	282.47
1024.76	249.71
1025.116	340.99
1025.472	308.22
1025.827	280.13
1026.183	270.77
1026.539	324.6
1026.895	235.66
1027.25	294.18
1027.606	303.54
1027.961	289.5
1028.317	254.39
1028.672	340.99
1029.028	282.47
1029.383	273.11
1029.738	326.94
1030.093	261.41
1030.448	319.92
1030.803	294.18
1031.158	355.03
1031.513	336.31
1031.868	252.05
1032.223	340.99
1032.577	301.2
1032.932	252.05
1033.287	312.9
1033.641	308.22
1033.996	338.65
1034.35	336.31
1034.704	284.81
1035.059	301.2
1035.413	238
1035.767	238
1036.121	238
