Data from Al_FLMS009871__478__14-34-54-832.txt Node

Date: Fri Mar 08 14:34:54 CST 2024
User: pe5414po
Spectrometer: FLMS00987
Trigger mode: 0
Integration Time (sec): 1.000000E-1
Scans to average: 1
Electric dark correction enabled: true
Nonlinearity correction enabled: false
Boxcar width: 0
XAxis mode: Wavelengths
Number of Pixels in Spectrum: 2048
>>>>>Begin Spectral Data<<<<<
188.938	-27.21
189.409	-27.21
189.879	-27.21
190.349	-20.19
190.819	-85.72
191.29	-102.11
191.76	-95.08
192.23	-74.02
192.7	-169.98
193.17	-24.87
193.64	-3.8
194.109	-29.55
194.579	-8.48
195.049	21.94
195.519	57.05
195.988	-1.46
196.458	101.52
196.927	33.65
197.397	61.73
197.866	155.35
198.336	78.12
198.805	153.01
199.274	162.37
199.744	204.5
200.213	143.65
200.682	225.57
201.151	305.15
201.62	155.35
202.089	260.68
202.558	225.57
203.027	253.66
203.495	218.55
203.964	218.55
204.433	251.32
204.902	267.7
205.37	291.1
205.839	272.38
206.307	328.55
206.776	321.53
207.244	293.44
207.712	267.7
208.181	333.23
208.649	281.74
209.117	375.36
209.585	291.1
210.053	330.89
210.521	270.04
210.989	295.79
211.457	286.42
211.925	356.64
212.393	253.66
212.861	349.62
213.328	302.81
213.796	293.44
214.264	230.25
214.731	291.1
215.199	253.66
215.666	305.15
216.133	225.57
216.601	265.36
217.068	314.51
217.535	314.51
218.003	284.08
218.47	328.55
218.937	277.06
219.404	256
219.871	302.81
220.338	248.97
220.805	281.74
221.271	293.44
221.738	300.47
222.205	244.29
222.671	246.63
223.138	281.74
223.605	333.23
224.071	267.7
224.538	281.74
225.004	323.87
225.47	333.23
225.937	251.32
226.403	251.32
226.869	277.06
227.335	241.95
227.801	302.81
228.267	241.95
228.733	312.17
229.199	260.68
229.665	298.13
230.131	295.79
230.597	307.49
231.062	267.7
231.528	298.13
231.994	237.27
232.459	288.76
232.925	251.32
233.39	298.13
233.856	293.44
234.321	300.47
234.786	241.95
235.252	270.04
235.717	260.68
236.182	253.66
236.647	220.89
237.112	241.95
237.577	251.32
238.042	265.36
238.507	258.34
238.972	256
239.436	284.08
239.901	316.85
240.366	244.29
240.83	279.4
241.295	295.79
241.76	286.42
242.224	284.08
242.688	239.61
243.153	251.32
243.617	284.08
244.081	330.89
244.545	328.55
245.01	298.13
245.474	237.27
245.938	319.19
246.402	309.83
246.866	277.06
247.33	241.95
247.793	347.28
248.257	328.55
248.721	220.89
249.185	256
249.648	298.13
250.112	286.42
250.575	239.61
251.039	284.08
251.502	239.61
251.965	246.63
252.429	302.81
252.892	326.21
253.355	248.97
253.818	279.4
254.281	291.1
254.744	291.1
255.207	349.62
255.67	326.21
256.133	260.68
256.596	263.02
257.059	281.74
257.522	225.57
257.984	307.49
258.447	387.07
258.909	267.7
259.372	277.06
259.834	300.47
260.297	279.4
260.759	263.02
261.221	302.81
261.684	279.4
262.146	281.74
262.608	307.49
263.07	277.06
263.532	300.47
263.994	321.53
264.456	291.1
264.918	340.26
265.38	274.72
265.842	281.74
266.303	281.74
266.765	295.79
267.227	263.02
267.688	300.47
268.15	309.83
268.611	277.06
269.072	284.08
269.534	323.87
269.995	239.61
270.456	277.06
270.918	340.26
271.379	314.51
271.84	373.02
272.301	326.21
272.762	302.81
273.223	267.7
273.684	307.49
274.144	330.89
274.605	368.34
275.066	351.96
275.527	316.85
275.987	279.4
276.448	314.51
276.908	300.47
277.369	307.49
277.829	288.76
278.289	218.55
278.75	293.44
279.21	323.87
279.67	284.08
280.13	270.04
280.59	347.28
281.05	309.83
281.51	298.13
281.97	314.51
282.43	293.44
282.89	375.36
283.35	248.97
283.809	251.32
284.269	232.59
284.729	281.74
285.188	333.23
285.648	340.26
286.107	358.98
286.567	298.13
287.026	291.1
287.485	326.21
287.944	286.42
288.404	258.34
288.863	321.53
289.322	286.42
289.781	326.21
290.24	302.81
290.699	321.53
291.158	258.34
291.616	326.21
292.075	321.53
292.534	220.89
292.992	328.55
293.451	344.94
293.91	349.62
294.368	328.55
294.827	321.53
295.285	295.79
295.743	358.98
296.202	286.42
296.66	277.06
297.118	305.15
297.576	321.53
298.034	305.15
298.492	274.72
298.95	340.26
299.408	260.68
299.866	267.7
300.324	354.3
300.781	366
301.239	323.87
301.697	340.26
302.154	344.94
302.612	260.68
303.069	263.02
303.527	330.89
303.984	291.1
304.441	335.57
304.899	293.44
305.356	300.47
305.813	342.6
306.27	281.74
306.727	307.49
307.184	356.64
307.641	300.47
308.098	326.21
308.555	300.47
309.012	316.85
309.468	380.04
309.925	319.19
310.382	321.53
310.838	328.55
311.295	344.94
311.751	349.62
312.208	309.83
312.664	267.7
313.12	239.61
313.577	274.72
314.033	328.55
314.489	281.74
314.945	382.39
315.401	373.02
315.857	305.15
316.313	277.06
316.769	291.1
317.225	321.53
317.681	382.39
318.136	241.95
318.592	279.4
319.048	300.47
319.503	286.42
319.959	307.49
320.414	256
320.869	312.17
321.325	319.19
321.78	288.76
322.235	260.68
322.691	333.23
323.146	337.91
323.601	323.87
324.056	265.36
324.511	293.44
324.966	387.07
325.421	244.29
325.875	284.08
326.33	267.7
326.785	234.93
327.24	328.55
327.694	333.23
328.149	337.91
328.603	321.53
329.058	347.28
329.512	323.87
329.966	307.49
330.421	277.06
330.875	300.47
331.329	263.02
331.783	265.36
332.237	349.62
332.691	246.63
333.145	309.83
333.599	305.15
334.053	384.73
334.507	295.79
334.96	347.28
335.414	258.34
335.868	354.3
336.321	263.02
336.775	279.4
337.228	389.41
337.682	270.04
338.135	270.04
338.588	314.51
339.042	330.89
339.495	368.34
339.948	321.53
340.401	321.53
340.854	312.17
341.307	356.64
341.76	263.02
342.213	295.79
342.666	314.51
343.119	314.51
343.571	337.91
344.024	314.51
344.477	312.17
344.929	330.89
345.382	349.62
345.834	333.23
346.287	279.4
346.739	342.6
347.191	239.61
347.644	291.1
348.096	316.85
348.548	316.85
349	340.26
349.452	256
349.904	319.19
350.356	344.94
350.808	373.02
351.26	361.32
351.711	351.96
352.163	300.47
352.615	340.26
353.066	237.27
353.518	274.72
353.969	344.94
354.421	281.74
354.872	314.51
355.324	272.38
355.775	328.55
356.226	302.81
356.677	291.1
357.128	354.3
357.579	272.38
358.03	314.51
358.481	314.51
358.932	351.96
359.383	330.89
359.834	347.28
360.285	302.81
360.735	321.53
361.186	321.53
361.637	305.15
362.087	319.19
362.538	300.47
362.988	375.36
363.438	286.42
363.889	368.34
364.339	314.51
364.789	337.91
365.239	328.55
365.689	316.85
366.139	263.02
366.589	316.85
367.039	272.38
367.489	314.51
367.939	358.98
368.389	305.15
368.839	293.44
369.288	375.36
369.738	396.43
370.187	272.38
370.637	354.3
371.086	305.15
371.536	281.74
371.985	258.34
372.434	286.42
372.884	358.98
373.333	340.26
373.782	305.15
374.231	349.62
374.68	293.44
375.129	286.42
375.578	323.87
376.027	335.57
376.475	309.83
376.924	384.73
377.373	358.98
377.822	293.44
378.27	368.34
378.719	319.19
379.167	361.32
379.616	337.91
380.064	342.6
380.512	375.36
380.961	272.38
381.409	316.85
381.857	305.15
382.305	307.49
382.753	305.15
383.201	347.28
383.649	326.21
384.097	288.76
384.545	232.59
384.992	344.94
385.44	272.38
385.888	256
386.335	321.53
386.783	293.44
387.231	312.17
387.678	267.7
388.125	370.68
388.573	295.79
389.02	328.55
389.467	323.87
389.914	358.98
390.362	312.17
390.809	382.39
391.256	323.87
391.703	321.53
392.15	356.64
392.596	295.79
393.043	368.34
393.49	354.3
393.937	220.89
394.383	291.1
394.83	307.49
395.276	328.55
395.723	302.81
396.169	302.81
396.616	277.06
397.062	344.94
397.508	281.74
397.954	272.38
398.401	291.1
398.847	340.26
399.293	373.02
399.739	328.55
400.185	333.23
400.631	333.23
401.076	300.47
401.522	401.11
401.968	309.83
402.414	326.21
402.859	270.04
403.305	319.19
403.75	307.49
404.196	314.51
404.641	279.4
405.086	321.53
405.532	333.23
405.977	330.89
406.422	284.08
406.867	302.81
407.312	351.96
407.757	340.26
408.202	319.19
408.647	351.96
409.092	225.57
409.537	326.21
409.982	263.02
410.426	286.42
410.871	382.39
411.316	295.79
411.76	312.17
412.205	356.64
412.649	335.57
413.093	298.13
413.538	316.85
413.982	277.06
414.426	300.47
414.87	312.17
415.314	279.4
415.758	330.89
416.202	335.57
416.646	300.47
417.09	337.91
417.534	251.32
417.978	333.23
418.421	316.85
418.865	389.41
419.309	328.55
419.752	368.34
420.196	312.17
420.639	279.4
421.083	368.34
421.526	263.02
421.969	309.83
422.412	342.6
422.856	321.53
423.299	347.28
423.742	267.7
424.185	319.19
424.628	358.98
425.071	342.6
425.513	314.51
425.956	302.81
426.399	309.83
426.842	277.06
427.284	326.21
427.727	312.17
428.169	300.47
428.612	342.6
429.054	340.26
429.497	284.08
429.939	328.55
430.381	272.38
430.823	373.02
431.265	305.15
431.707	384.73
432.149	300.47
432.591	277.06
433.033	316.85
433.475	288.76
433.917	305.15
434.359	305.15
434.8	354.3
435.242	415.15
435.684	307.49
436.125	330.89
436.567	344.94
437.008	349.62
437.449	248.97
437.891	274.72
438.332	380.04
438.773	260.68
439.214	370.68
439.656	274.72
440.097	314.51
440.538	293.44
440.978	293.44
441.419	316.85
441.86	328.55
442.301	307.49
442.742	328.55
443.182	366
443.623	298.13
444.063	305.15
444.504	354.3
444.944	319.19
445.385	323.87
445.825	358.98
446.265	284.08
446.706	302.81
447.146	356.64
447.586	358.98
448.026	347.28
448.466	333.23
448.906	375.36
449.346	347.28
449.786	295.79
450.225	366
450.665	401.11
451.105	286.42
451.544	342.6
451.984	330.89
452.424	356.64
452.863	363.66
453.302	288.76
453.742	330.89
454.181	366
454.62	309.83
455.059	344.94
455.499	312.17
455.938	342.6
456.377	366
456.816	342.6
457.254	298.13
457.693	361.32
458.132	321.53
458.571	342.6
459.01	382.39
459.448	326.21
459.887	288.76
460.325	281.74
460.764	307.49
461.202	312.17
461.641	293.44
462.079	396.43
462.517	267.7
462.955	293.44
463.393	323.87
463.832	281.74
464.27	337.91
464.708	349.62
465.145	314.51
465.583	274.72
466.021	319.19
466.459	337.91
466.897	333.23
467.334	302.81
467.772	328.55
468.209	286.42
468.647	305.15
469.084	302.81
469.522	333.23
469.959	291.1
470.396	298.13
470.833	396.43
471.271	286.42
471.708	302.81
472.145	337.91
472.582	307.49
473.019	328.55
473.456	405.79
473.892	342.6
474.329	328.55
474.766	321.53
475.202	295.79
475.639	295.79
476.076	330.89
476.512	347.28
476.949	295.79
477.385	270.04
477.821	298.13
478.258	263.02
478.694	342.6
479.13	260.68
479.566	387.07
480.002	321.53
480.438	309.83
480.874	321.53
481.31	312.17
481.746	286.42
482.181	277.06
482.617	333.23
483.053	295.79
483.488	267.7
483.924	307.49
484.36	288.76
484.795	335.57
485.23	312.17
485.666	279.4
486.101	330.89
486.536	316.85
486.971	387.07
487.407	347.28
487.842	396.43
488.277	351.96
488.712	251.32
489.146	323.87
489.581	291.1
490.016	347.28
490.451	260.68
490.885	251.32
491.32	330.89
491.755	366
492.189	253.66
492.624	326.21
493.058	344.94
493.492	342.6
493.927	305.15
494.361	295.79
494.795	312.17
495.229	241.95
495.663	256
496.097	368.34
496.531	302.81
496.965	351.96
497.399	340.26
497.833	309.83
498.266	319.19
498.7	206.84
499.134	349.62
499.567	347.28
500.001	380.04
500.434	347.28
500.868	342.6
501.301	300.47
501.734	403.45
502.168	312.17
502.601	328.55
503.034	246.63
503.467	342.6
503.9	295.79
504.333	253.66
504.766	314.51
505.199	291.1
505.632	307.49
506.064	340.26
506.497	319.19
506.93	307.49
507.362	267.7
507.795	330.89
508.227	351.96
508.66	333.23
509.092	354.3
509.524	302.81
509.956	333.23
510.389	265.36
510.821	349.62
511.253	363.66
511.685	347.28
512.117	307.49
512.549	342.6
512.981	263.02
513.412	387.07
513.844	361.32
514.276	307.49
514.707	330.89
515.139	281.74
515.571	291.1
516.002	251.32
516.433	279.4
516.865	309.83
517.296	323.87
517.727	277.06
518.159	344.94
518.59	284.08
519.021	366
519.452	326.21
519.883	377.7
520.314	316.85
520.744	361.32
521.175	351.96
521.606	349.62
522.037	323.87
522.467	344.94
522.898	321.53
523.328	288.76
523.759	366
524.189	316.85
524.62	312.17
525.05	337.91
525.48	349.62
525.91	253.66
526.341	354.3
526.771	351.96
527.201	267.7
527.631	375.36
528.061	272.38
528.49	293.44
528.92	354.3
529.35	298.13
529.78	300.47
530.209	286.42
530.639	253.66
531.068	237.27
531.498	326.21
531.927	323.87
532.357	373.02
532.786	286.42
533.215	319.19
533.644	340.26
534.074	293.44
534.503	298.13
534.932	340.26
535.361	323.87
535.79	347.28
536.218	300.47
536.647	330.89
537.076	309.83
537.505	368.34
537.933	300.47
538.362	328.55
538.79	309.83
539.219	342.6
539.647	258.34
540.076	300.47
540.504	305.15
540.932	286.42
541.36	340.26
541.788	330.89
542.217	286.42
542.645	246.63
543.073	330.89
543.5	328.55
543.928	309.83
544.356	354.3
544.784	347.28
545.211	309.83
545.639	286.42
546.067	253.66
546.494	354.3
546.922	389.41
547.349	295.79
547.776	326.21
548.204	342.6
548.631	312.17
549.058	312.17
549.485	270.04
549.912	363.66
550.339	298.13
550.766	342.6
551.193	263.02
551.62	344.94
552.047	326.21
552.474	307.49
552.9	293.44
553.327	333.23
553.754	330.89
554.18	344.94
554.607	344.94
555.033	314.51
555.459	298.13
555.886	281.74
556.312	298.13
556.738	321.53
557.164	307.49
557.59	307.49
558.016	319.19
558.442	302.81
558.868	286.42
559.294	340.26
559.72	330.89
560.145	323.87
560.571	328.55
560.997	354.3
561.422	305.15
561.848	300.47
562.273	330.89
562.699	305.15
563.124	321.53
563.549	256
563.974	370.68
564.4	309.83
564.825	270.04
565.25	347.28
565.675	277.06
566.1	293.44
566.525	291.1
566.95	344.94
567.374	314.51
567.799	293.44
568.224	361.32
568.648	239.61
569.073	279.4
569.497	251.32
569.922	351.96
570.346	293.44
570.771	344.94
571.195	260.68
571.619	358.98
572.043	316.85
572.467	248.97
572.891	307.49
573.315	326.21
573.739	361.32
574.163	302.81
574.587	358.98
575.011	274.72
575.435	312.17
575.858	326.21
576.282	342.6
576.705	337.91
577.129	323.87
577.552	370.68
577.976	335.57
578.399	368.34
578.822	323.87
579.245	335.57
579.669	284.08
580.092	288.76
580.515	305.15
580.938	279.4
581.361	279.4
581.784	295.79
582.206	321.53
582.629	363.66
583.052	335.57
583.474	293.44
583.897	293.44
584.32	328.55
584.742	307.49
585.165	302.81
585.587	300.47
586.009	333.23
586.431	342.6
586.854	260.68
587.276	253.66
587.698	263.02
588.12	354.3
588.542	335.57
588.964	363.66
589.386	305.15
589.807	323.87
590.229	330.89
590.651	307.49
591.073	316.85
591.494	330.89
591.916	307.49
592.337	286.42
592.759	344.94
593.18	330.89
593.601	384.73
594.022	265.36
594.444	298.13
594.865	288.76
595.286	333.23
595.707	328.55
596.128	384.73
596.549	321.53
596.97	368.34
597.39	335.57
597.811	300.47
598.232	319.19
598.652	333.23
599.073	361.32
599.494	340.26
599.914	286.42
600.334	351.96
600.755	316.85
601.175	363.66
601.595	333.23
602.015	321.53
602.436	227.91
602.856	424.51
603.276	321.53
603.696	284.08
604.115	253.66
604.535	347.28
604.955	300.47
605.375	272.38
605.794	309.83
606.214	361.32
606.634	309.83
607.053	267.7
607.473	305.15
607.892	314.51
608.311	377.7
608.731	258.34
609.15	288.76
609.569	335.57
609.988	284.08
610.407	333.23
610.826	316.85
611.245	321.53
611.664	340.26
612.083	309.83
612.501	288.76
612.92	270.04
613.339	248.97
613.757	323.87
614.176	333.23
614.594	298.13
615.013	326.21
615.431	302.81
615.85	326.21
616.268	321.53
616.686	307.49
617.104	321.53
617.522	319.19
617.94	326.21
618.358	333.23
618.776	274.72
619.194	337.91
619.612	258.34
620.03	344.94
620.447	288.76
620.865	375.36
621.282	431.54
621.7	340.26
622.117	312.17
622.535	368.34
622.952	267.7
623.369	323.87
623.787	314.51
624.204	342.6
624.621	263.02
625.038	316.85
625.455	321.53
625.872	358.98
626.289	321.53
626.706	286.42
627.123	307.49
627.539	300.47
627.956	277.06
628.373	366
628.789	260.68
629.206	274.72
629.622	272.38
630.038	368.34
630.455	272.38
630.871	302.81
631.287	389.41
631.703	305.15
632.12	272.38
632.536	356.64
632.952	281.74
633.368	307.49
633.783	349.62
634.199	267.7
634.615	206.84
635.031	323.87
635.446	302.81
635.862	263.02
636.277	387.07
636.693	323.87
637.108	335.57
637.524	319.19
637.939	281.74
638.354	309.83
638.77	363.66
639.185	302.81
639.6	314.51
640.015	305.15
640.43	319.19
640.845	358.98
641.259	305.15
641.674	377.7
642.089	340.26
642.504	272.38
642.918	323.87
643.333	293.44
643.747	291.1
644.162	281.74
644.576	309.83
644.991	298.13
645.405	309.83
645.819	356.64
646.233	356.64
646.647	342.6
647.061	340.26
647.475	337.91
647.889	347.28
648.303	342.6
648.717	284.08
649.131	239.61
649.545	398.77
649.958	328.55
650.372	335.57
650.785	305.15
651.199	373.02
651.612	302.81
652.026	337.91
652.439	354.3
652.852	279.4
653.266	274.72
653.679	333.23
654.092	309.83
654.505	307.49
654.918	344.94
655.331	300.47
655.744	349.62
656.156	333.23
656.569	279.4
656.982	274.72
657.394	337.91
657.807	370.68
658.22	368.34
658.632	307.49
659.044	286.42
659.457	351.96
659.869	363.66
660.281	366
660.693	340.26
661.106	368.34
661.518	335.57
661.93	293.44
662.342	295.79
662.754	342.6
663.165	291.1
663.577	368.34
663.989	258.34
664.401	335.57
664.812	265.36
665.224	277.06
665.635	309.83
666.047	316.85
666.458	284.08
666.869	267.7
667.281	335.57
667.692	291.1
668.103	307.49
668.514	319.19
668.925	326.21
669.336	377.7
669.747	281.74
670.158	312.17
670.569	366
670.979	298.13
671.39	347.28
671.801	305.15
672.211	295.79
672.622	337.91
673.032	316.85
673.443	300.47
673.853	279.4
674.263	316.85
674.674	300.47
675.084	340.26
675.494	309.83
675.904	330.89
676.314	326.21
676.724	314.51
677.134	323.87
677.544	337.91
677.953	300.47
678.363	340.26
678.773	410.47
679.182	274.72
679.592	333.23
680.001	328.55
680.411	380.04
680.82	312.17
681.23	295.79
681.639	344.94
682.048	389.41
682.457	321.53
682.866	412.81
683.275	307.49
683.684	288.76
684.093	349.62
684.502	319.19
684.911	333.23
685.32	377.7
685.728	358.98
686.137	319.19
686.546	319.19
686.954	377.7
687.363	356.64
687.771	328.55
688.179	286.42
688.588	300.47
688.996	281.74
689.404	319.19
689.812	263.02
690.22	340.26
690.628	361.32
691.036	263.02
691.444	309.83
691.852	337.91
692.26	277.06
692.667	349.62
693.075	277.06
693.483	253.66
693.89	314.51
694.298	373.02
694.705	258.34
695.112	358.98
695.52	342.6
695.927	279.4
696.334	307.49
696.741	307.49
697.148	337.91
697.555	316.85
697.962	298.13
698.369	274.72
698.776	344.94
699.183	408.13
699.59	284.08
699.996	344.94
700.403	342.6
700.81	265.36
701.216	321.53
701.623	305.15
702.029	368.34
702.435	330.89
702.842	337.91
703.248	295.79
703.654	312.17
704.06	375.36
704.466	398.77
704.872	258.34
705.278	312.17
705.684	389.41
706.09	291.1
706.496	307.49
706.901	335.57
707.307	295.79
707.712	344.94
708.118	314.51
708.523	363.66
708.929	307.49
709.334	251.32
709.74	344.94
710.145	312.17
710.55	326.21
710.955	335.57
711.36	316.85
711.765	284.08
712.17	366
712.575	363.66
712.98	850.49
713.385	344.94
713.789	272.38
714.194	323.87
714.599	288.76
715.003	312.17
715.408	330.89
715.812	314.51
716.217	330.89
716.621	344.94
717.025	333.23
717.429	286.42
717.833	307.49
718.238	305.15
718.642	335.57
719.046	265.36
719.449	288.76
719.853	307.49
720.257	302.81
720.661	330.89
721.065	291.1
721.468	279.4
721.872	265.36
722.275	347.28
722.679	309.83
723.082	295.79
723.485	326.21
723.889	361.32
724.292	328.55
724.695	277.06
725.098	307.49
725.501	284.08
725.904	335.57
726.307	328.55
726.71	279.4
727.113	363.66
727.516	314.51
727.918	358.98
728.321	305.15
728.724	326.21
729.126	307.49
729.529	340.26
729.931	366
730.333	312.17
730.736	316.85
731.138	316.85
731.54	319.19
731.942	337.91
732.344	319.19
732.746	265.36
733.148	302.81
733.55	361.32
733.952	286.42
734.354	323.87
734.756	333.23
735.157	337.91
735.559	349.62
735.96	354.3
736.362	312.17
736.763	321.53
737.165	286.42
737.566	342.6
737.967	349.62
738.368	319.19
738.77	272.38
739.171	312.17
739.572	284.08
739.973	309.83
740.374	351.96
740.774	234.93
741.175	291.1
741.576	295.79
741.977	286.42
742.377	349.62
742.778	319.19
743.178	319.19
743.579	335.57
743.979	368.34
744.379	356.64
744.78	314.51
745.18	323.87
745.58	307.49
745.98	267.7
746.38	291.1
746.78	279.4
747.18	256
747.58	293.44
747.98	307.49
748.38	305.15
748.779	344.94
749.179	291.1
749.578	333.23
749.978	335.57
750.377	307.49
750.777	302.81
751.176	333.23
751.575	330.89
751.975	274.72
752.374	321.53
752.773	314.51
753.172	326.21
753.571	286.42
753.97	319.19
754.369	300.47
754.768	344.94
755.166	330.89
755.565	316.85
755.964	281.74
756.362	305.15
756.761	307.49
757.159	328.55
757.558	321.53
757.956	356.64
758.354	354.3
758.753	298.13
759.151	337.91
759.549	366
759.947	211.53
760.345	330.89
760.743	344.94
761.141	319.19
761.539	244.29
761.936	340.26
762.334	319.19
762.732	293.44
763.129	281.74
763.527	333.23
763.924	305.15
764.322	356.64
764.719	328.55
765.117	337.91
765.514	307.49
765.911	335.57
766.308	375.36
766.705	281.74
767.102	281.74
767.499	349.62
767.896	307.49
768.293	319.19
768.69	342.6
769.086	314.51
769.483	319.19
769.88	302.81
770.276	295.79
770.673	330.89
771.069	354.3
771.466	342.6
771.862	305.15
772.258	349.62
772.654	347.28
773.05	344.94
773.447	321.53
773.843	349.62
774.239	347.28
774.634	347.28
775.03	288.76
775.426	356.64
775.822	347.28
776.218	267.7
776.613	356.64
777.009	354.3
777.404	337.91
777.8	305.15
778.195	326.21
778.59	319.19
778.986	298.13
779.381	248.97
779.776	312.17
780.171	298.13
780.566	337.91
780.961	293.44
781.356	349.62
781.751	333.23
782.146	288.76
782.54	314.51
782.935	328.55
783.33	295.79
783.724	321.53
784.119	326.21
784.513	270.04
784.908	267.7
785.302	354.3
785.696	309.83
786.09	340.26
786.485	312.17
786.879	326.21
787.273	232.59
787.667	286.42
788.061	323.87
788.454	323.87
788.848	335.57
789.242	330.89
789.636	298.13
790.029	284.08
790.423	377.7
790.816	321.53
791.21	347.28
791.603	312.17
791.997	286.42
792.39	281.74
792.783	347.28
793.176	305.15
793.569	319.19
793.962	316.85
794.355	337.91
794.748	319.19
795.141	312.17
795.534	309.83
795.927	330.89
796.319	263.02
796.712	277.06
797.105	323.87
797.497	286.42
797.89	356.64
798.282	380.04
798.674	312.17
799.067	326.21
799.459	321.53
799.851	361.32
800.243	363.66
800.635	319.19
801.027	251.32
801.419	295.79
801.811	335.57
802.203	335.57
802.594	319.19
802.986	312.17
803.378	316.85
803.769	284.08
804.161	363.66
804.552	295.79
804.944	342.6
805.335	368.34
805.726	319.19
806.118	256
806.509	321.53
806.9	363.66
807.291	356.64
807.682	337.91
808.073	272.38
808.464	337.91
808.855	316.85
809.245	323.87
809.636	295.79
810.027	305.15
810.417	281.74
810.808	316.85
811.198	274.72
811.589	302.81
811.979	279.4
812.369	351.96
812.759	340.26
813.15	333.23
813.54	366
813.93	265.36
814.32	302.81
814.71	319.19
815.1	270.04
815.489	328.55
815.879	323.87
816.269	333.23
816.658	337.91
817.048	279.4
817.438	319.19
817.827	312.17
818.216	321.53
818.606	277.06
818.995	302.81
819.384	323.87
819.773	319.19
820.163	370.68
820.552	373.02
820.941	328.55
821.33	270.04
821.718	295.79
822.107	321.53
822.496	307.49
822.885	300.47
823.273	307.49
823.662	312.17
824.05	305.15
824.439	265.36
824.827	314.51
825.216	335.57
825.604	295.79
825.992	321.53
826.38	361.32
826.768	330.89
827.156	312.17
827.544	307.49
827.932	253.66
828.32	293.44
828.708	347.28
829.096	361.32
829.483	307.49
829.871	286.42
830.259	351.96
830.646	277.06
831.034	288.76
831.421	387.07
831.808	321.53
832.196	274.72
832.583	312.17
832.97	274.72
833.357	309.83
833.744	351.96
834.131	300.47
834.518	272.38
834.905	267.7
835.292	281.74
835.678	298.13
836.065	314.51
836.452	323.87
836.838	270.04
837.225	328.55
837.611	321.53
837.998	302.81
838.384	302.81
838.77	298.13
839.157	277.06
839.543	314.51
839.929	347.28
840.315	309.83
840.701	284.08
841.087	279.4
841.473	335.57
841.858	286.42
842.244	309.83
842.63	351.96
843.015	307.49
843.401	391.75
843.787	335.57
844.172	328.55
844.557	307.49
844.943	293.44
845.328	307.49
845.713	293.44
846.098	300.47
846.483	312.17
846.868	286.42
847.253	330.89
847.638	328.55
848.023	291.1
848.408	356.64
848.793	387.07
849.177	337.91
849.562	337.91
849.947	272.38
850.331	347.28
850.715	347.28
851.1	305.15
851.484	389.41
851.868	244.29
852.253	323.87
852.637	319.19
853.021	363.66
853.405	349.62
853.789	291.1
854.173	293.44
854.557	286.42
854.94	302.81
855.324	319.19
855.708	277.06
856.091	314.51
856.475	330.89
856.858	286.42
857.242	333.23
857.625	363.66
858.009	316.85
858.392	295.79
858.775	316.85
859.158	316.85
859.541	330.89
859.924	284.08
860.307	298.13
860.69	354.3
861.073	302.81
861.456	319.19
861.838	300.47
862.221	298.13
862.604	321.53
862.986	337.91
863.369	370.68
863.751	286.42
864.133	344.94
864.516	291.1
864.898	314.51
865.28	298.13
865.662	307.49
866.044	358.98
866.426	380.04
866.808	260.68
867.19	326.21
867.572	279.4
867.954	309.83
868.336	340.26
868.717	316.85
869.099	396.43
869.48	344.94
869.862	319.19
870.243	337.91
870.625	302.81
871.006	361.32
871.387	307.49
871.768	286.42
872.149	356.64
872.53	337.91
872.911	284.08
873.292	260.68
873.673	270.04
874.054	263.02
874.435	328.55
874.815	248.97
875.196	326.21
875.577	265.36
875.957	277.06
876.338	319.19
876.718	312.17
877.098	307.49
877.479	351.96
877.859	293.44
878.239	328.55
878.619	323.87
878.999	368.34
879.379	368.34
879.759	347.28
880.139	337.91
880.519	293.44
880.898	347.28
881.278	328.55
881.658	291.1
882.037	319.19
882.417	305.15
882.796	328.55
883.176	230.25
883.555	347.28
883.934	351.96
884.313	307.49
884.693	263.02
885.072	382.39
885.451	333.23
885.83	312.17
886.209	298.13
886.587	356.64
886.966	316.85
887.345	298.13
887.724	248.97
888.102	302.81
888.481	333.23
888.859	316.85
889.238	344.94
889.616	288.76
889.994	323.87
890.373	344.94
890.751	358.98
891.129	307.49
891.507	302.81
891.885	321.53
892.263	321.53
892.641	258.34
893.019	288.76
893.396	305.15
893.774	351.96
894.152	305.15
894.529	279.4
894.907	321.53
895.284	293.44
895.662	298.13
896.039	302.81
896.416	377.7
896.794	333.23
897.171	351.96
897.548	302.81
897.925	342.6
898.302	333.23
898.679	251.32
899.056	312.17
899.433	380.04
899.809	330.89
900.186	316.85
900.563	302.81
900.939	291.1
901.316	330.89
901.692	337.91
902.069	335.57
902.445	389.41
902.821	305.15
903.197	366
903.574	328.55
903.95	382.39
904.326	326.21
904.702	307.49
905.078	323.87
905.454	309.83
905.829	232.59
906.205	307.49
906.581	298.13
906.956	284.08
907.332	356.64
907.707	288.76
908.083	274.72
908.458	330.89
908.833	291.1
909.209	342.6
909.584	349.62
909.959	286.42
910.334	263.02
910.709	375.36
911.084	321.53
911.459	375.36
911.834	302.81
912.209	342.6
912.583	291.1
912.958	328.55
913.333	333.23
913.707	319.19
914.082	363.66
914.456	351.96
914.83	337.91
915.205	396.43
915.579	319.19
915.953	260.68
916.327	326.21
916.701	286.42
917.075	253.66
917.449	328.55
917.823	270.04
918.197	312.17
918.571	368.34
918.944	314.51
919.318	328.55
919.692	373.02
920.065	333.23
920.438	356.64
920.812	288.76
921.185	305.15
921.558	298.13
921.932	344.94
922.305	253.66
922.678	288.76
923.051	316.85
923.424	340.26
923.797	312.17
924.17	337.91
924.542	312.17
924.915	377.7
925.288	291.1
925.661	281.74
926.033	295.79
926.406	314.51
926.778	277.06
927.15	314.51
927.523	286.42
927.895	246.63
928.267	344.94
928.639	251.32
929.011	298.13
929.383	326.21
929.755	272.38
930.127	326.21
930.499	415.15
930.871	260.68
931.242	298.13
931.614	248.97
931.986	340.26
932.357	337.91
932.729	270.04
933.1	298.13
933.471	335.57
933.843	333.23
934.214	347.28
934.585	321.53
934.956	387.07
935.327	354.3
935.698	316.85
936.069	291.1
936.44	295.79
936.811	286.42
937.182	330.89
937.552	354.3
937.923	281.74
938.293	316.85
938.664	330.89
939.034	347.28
939.405	316.85
939.775	253.66
940.145	312.17
940.516	309.83
940.886	370.68
941.256	284.08
941.626	291.1
941.996	267.7
942.366	291.1
942.735	340.26
943.105	309.83
943.475	319.19
943.845	349.62
944.214	333.23
944.584	361.32
944.953	295.79
945.323	351.96
945.692	305.15
946.061	321.53
946.43	358.98
946.8	330.89
947.169	335.57
947.538	326.21
947.907	342.6
948.276	267.7
948.645	356.64
949.013	312.17
949.382	382.39
949.751	326.21
950.119	344.94
950.488	305.15
950.857	314.51
951.225	340.26
951.593	241.95
951.962	279.4
952.33	302.81
952.698	321.53
953.066	328.55
953.434	288.76
953.802	344.94
954.17	328.55
954.538	337.91
954.906	263.02
955.274	302.81
955.642	274.72
956.009	319.19
956.377	295.79
956.744	263.02
957.112	319.19
957.479	295.79
957.847	366
958.214	330.89
958.581	295.79
958.948	333.23
959.315	293.44
959.683	314.51
960.05	277.06
960.416	354.3
960.783	321.53
961.15	291.1
961.517	330.89
961.884	321.53
962.25	279.4
962.617	309.83
962.983	291.1
963.35	361.32
963.716	351.96
964.082	354.3
964.449	281.74
964.815	314.51
965.181	288.76
965.547	326.21
965.913	213.87
966.279	286.42
966.645	335.57
967.011	321.53
967.377	232.59
967.742	279.4
968.108	279.4
968.474	368.34
968.839	319.19
969.205	340.26
969.57	321.53
969.935	316.85
970.301	328.55
970.666	305.15
971.031	323.87
971.396	286.42
971.761	330.89
972.126	356.64
972.491	330.89
972.856	279.4
973.221	270.04
973.586	337.91
973.95	305.15
974.315	286.42
974.679	316.85
975.044	312.17
975.408	314.51
975.773	279.4
976.137	293.44
976.501	330.89
976.866	319.19
977.23	274.72
977.594	298.13
977.958	263.02
978.322	342.6
978.686	272.38
979.049	314.51
979.413	312.17
979.777	319.19
980.141	284.08
980.504	309.83
980.868	321.53
981.231	328.55
981.595	323.87
981.958	370.68
982.321	295.79
982.684	281.74
983.048	366
983.411	335.57
983.774	354.3
984.137	326.21
984.5	337.91
984.862	319.19
985.225	326.21
985.588	340.26
985.951	316.85
986.313	347.28
986.676	281.74
987.038	321.53
987.401	281.74
987.763	288.76
988.125	337.91
988.488	314.51
988.85	333.23
989.212	361.32
989.574	312.17
989.936	272.38
990.298	302.81
990.66	274.72
991.022	302.81
991.383	295.79
991.745	394.09
992.107	356.64
992.468	281.74
992.83	319.19
993.191	354.3
993.553	361.32
993.914	347.28
994.275	263.02
994.637	351.96
994.998	312.17
995.359	279.4
995.72	337.91
996.081	351.96
996.442	387.07
996.803	305.15
997.163	312.17
997.524	366
997.885	349.62
998.245	300.47
998.606	326.21
998.966	286.42
999.327	291.1
999.687	333.23
1000.047	323.87
1000.408	284.08
1000.768	335.57
1001.128	337.91
1001.488	293.44
1001.848	326.21
1002.208	272.38
1002.568	251.32
1002.927	361.32
1003.287	328.55
1003.647	330.89
1004.007	384.73
1004.366	302.81
1004.726	312.17
1005.085	328.55
1005.444	351.96
1005.804	263.02
1006.163	305.15
1006.522	272.38
1006.881	347.28
1007.24	326.21
1007.599	323.87
1007.958	326.21
1008.317	323.87
1008.676	314.51
1009.035	330.89
1009.393	335.57
1009.752	316.85
1010.111	298.13
1010.469	340.26
1010.828	258.34
1011.186	298.13
1011.544	330.89
1011.903	321.53
1012.261	314.51
1012.619	270.04
1012.977	307.49
1013.335	356.64
1013.693	305.15
1014.051	312.17
1014.409	302.81
1014.767	382.39
1015.124	314.51
1015.482	321.53
1015.84	347.28
1016.197	286.42
1016.555	288.76
1016.912	284.08
1017.269	277.06
1017.627	305.15
1017.984	377.7
1018.341	274.72
1018.698	370.68
1019.055	279.4
1019.412	288.76
1019.769	319.19
1020.126	305.15
1020.483	293.44
1020.84	321.53
1021.196	340.26
1021.553	258.34
1021.909	321.53
1022.266	305.15
1022.622	323.87
1022.979	347.28
1023.335	344.94
1023.691	347.28
1024.047	335.57
1024.404	321.53
1024.76	267.7
1025.116	298.13
1025.472	314.51
1025.827	279.4
1026.183	216.21
1026.539	288.76
1026.895	340.26
1027.25	358.98
1027.606	312.17
1027.961	323.87
1028.317	293.44
1028.672	333.23
1029.028	319.19
1029.383	319.19
1029.738	363.66
1030.093	337.91
1030.448	354.3
1030.803	305.15
1031.158	351.96
1031.513	321.53
1031.868	291.1
1032.223	312.17
1032.577	321.53
1032.932	251.32
1033.287	300.47
1033.641	342.6
1033.996	281.74
1034.35	314.51
1034.704	321.53
1035.059	286.42
1035.413	265.36
1035.767	265.36
1036.121	265.36
