Data from Al_FLMS009871__473__14-34-54-333.txt Node

Date: Fri Mar 08 14:34:54 CST 2024
User: pe5414po
Spectrometer: FLMS00987
Trigger mode: 0
Integration Time (sec): 1.000000E-1
Scans to average: 1
Electric dark correction enabled: true
Nonlinearity correction enabled: false
Boxcar width: 0
XAxis mode: Wavelengths
Number of Pixels in Spectrum: 2048
>>>>>Begin Spectral Data<<<<<
188.938	-92.45
189.409	-92.45
189.879	-92.45
190.349	-80.75
190.819	-104.15
191.29	-111.18
191.76	-113.52
192.23	-57.34
192.7	-90.11
193.17	-83.09
193.64	-3.51
194.109	-17.55
194.579	38.62
195.049	-38.62
195.519	1.17
195.988	59.68
196.458	62.02
196.927	57.34
197.397	118.2
197.866	99.47
198.336	78.41
198.805	167.35
199.274	122.88
199.744	186.07
200.213	176.71
200.682	172.03
201.151	202.46
201.62	277.35
202.089	296.08
202.558	263.31
203.027	237.56
203.495	270.33
203.964	321.82
204.433	218.84
204.902	225.86
205.37	303.1
205.839	328.85
206.307	303.1
206.776	303.1
207.244	291.4
207.712	298.42
208.181	328.85
208.649	256.29
209.117	321.82
209.585	324.16
210.053	267.99
210.521	291.4
210.989	349.91
211.457	378
211.925	331.19
212.393	270.33
212.861	296.08
213.328	251.61
213.796	321.82
214.264	331.19
214.731	272.67
215.199	242.25
215.666	300.76
216.133	228.2
216.601	312.46
217.068	263.31
217.535	282.03
218.003	370.97
218.47	275.01
218.937	237.56
219.404	277.35
219.871	230.54
220.338	307.78
220.805	246.93
221.271	214.16
221.738	251.61
222.205	246.93
222.671	221.18
223.138	260.97
223.605	221.18
224.071	230.54
224.538	289.06
225.004	270.33
225.47	324.16
225.937	321.82
226.403	256.29
226.869	286.72
227.335	272.67
227.801	303.1
228.267	279.69
228.733	368.63
229.199	275.01
229.665	244.59
230.131	363.95
230.597	239.9
231.062	251.61
231.528	321.82
231.994	310.12
232.459	253.95
232.925	246.93
233.39	272.67
233.856	186.07
234.321	310.12
234.786	235.22
235.252	265.65
235.717	291.4
236.182	239.9
236.647	277.35
237.112	338.21
237.577	293.74
238.042	272.67
238.507	312.46
238.972	275.01
239.436	235.22
239.901	289.06
240.366	314.8
240.83	251.61
241.295	204.8
241.76	277.35
242.224	267.99
242.688	242.25
243.153	310.12
243.617	328.85
244.081	335.87
244.545	331.19
245.01	253.95
245.474	277.35
245.938	291.4
246.402	249.27
246.866	251.61
247.33	310.12
247.793	307.78
248.257	267.99
248.721	265.65
249.185	282.03
249.648	244.59
250.112	314.8
250.575	279.69
251.039	270.33
251.502	291.4
251.965	244.59
252.429	293.74
252.892	253.95
253.355	267.99
253.818	370.97
254.281	272.67
254.744	218.84
255.207	300.76
255.67	321.82
256.133	349.91
256.596	277.35
257.059	265.65
257.522	235.22
257.984	265.65
258.447	331.19
258.909	331.19
259.372	317.14
259.834	305.44
260.297	298.42
260.759	260.97
261.221	317.14
261.684	258.63
262.146	326.5
262.608	305.44
263.07	310.12
263.532	221.18
263.994	345.23
264.456	356.93
264.918	317.14
265.38	258.63
265.842	303.1
266.303	272.67
266.765	314.8
267.227	291.4
267.688	331.19
268.15	260.97
268.611	282.03
269.072	256.29
269.534	221.18
269.995	251.61
270.456	324.16
270.918	244.59
271.379	331.19
271.84	321.82
272.301	207.14
272.762	293.74
273.223	314.8
273.684	284.38
274.144	293.74
274.605	319.48
275.066	190.75
275.527	265.65
275.987	293.74
276.448	298.42
276.908	319.48
277.369	340.55
277.829	293.74
278.289	275.01
278.75	319.48
279.21	310.12
279.67	359.27
280.13	298.42
280.59	317.14
281.05	277.35
281.51	249.27
281.97	298.42
282.43	319.48
282.89	300.76
283.35	270.33
283.809	218.84
284.269	291.4
284.729	267.99
285.188	300.76
285.648	225.86
286.107	340.55
286.567	258.63
287.026	312.46
287.485	263.31
287.944	314.8
288.404	275.01
288.863	284.38
289.322	331.19
289.781	225.86
290.24	345.23
290.699	317.14
291.158	307.78
291.616	265.65
292.075	328.85
292.534	286.72
292.992	277.35
293.451	375.66
293.91	265.65
294.368	272.67
294.827	312.46
295.285	293.74
295.743	282.03
296.202	317.14
296.66	305.44
297.118	303.1
297.576	321.82
298.034	253.95
298.492	282.03
298.95	284.38
299.408	317.14
299.866	275.01
300.324	333.53
300.781	352.25
301.239	307.78
301.697	258.63
302.154	279.69
302.612	331.19
303.069	317.14
303.527	347.57
303.984	335.87
304.441	277.35
304.899	303.1
305.356	310.12
305.813	310.12
306.27	296.08
306.727	298.42
307.184	303.1
307.641	286.72
308.098	314.8
308.555	218.84
309.012	253.95
309.468	326.5
309.925	340.55
310.382	345.23
310.838	237.56
311.295	230.54
311.751	319.48
312.208	321.82
312.664	267.99
313.12	321.82
313.577	335.87
314.033	267.99
314.489	275.01
314.945	303.1
315.401	373.32
315.857	305.44
316.313	298.42
316.769	270.33
317.225	312.46
317.681	263.31
318.136	265.65
318.592	244.59
319.048	239.9
319.503	293.74
319.959	338.21
320.414	326.5
320.869	296.08
321.325	345.23
321.78	289.06
322.235	338.21
322.691	291.4
323.146	275.01
323.601	342.89
324.056	310.12
324.511	356.93
324.966	230.54
325.421	321.82
325.875	307.78
326.33	305.44
326.785	272.67
327.24	279.69
327.694	279.69
328.149	286.72
328.603	303.1
329.058	249.27
329.512	319.48
329.966	300.76
330.421	312.46
330.875	307.78
331.329	345.23
331.783	272.67
332.237	342.89
332.691	363.95
333.145	305.44
333.599	314.8
334.053	244.59
334.507	275.01
334.96	310.12
335.414	321.82
335.868	363.95
336.321	310.12
336.775	293.74
337.228	310.12
337.682	321.82
338.135	342.89
338.588	314.8
339.042	321.82
339.495	267.99
339.948	237.56
340.401	270.33
340.854	317.14
341.307	317.14
341.76	284.38
342.213	312.46
342.666	366.29
343.119	296.08
343.571	291.4
344.024	270.33
344.477	307.78
344.929	314.8
345.382	340.55
345.834	324.16
346.287	319.48
346.739	319.48
347.191	326.5
347.644	256.29
348.096	345.23
348.548	342.89
349	338.21
349.452	310.12
349.904	307.78
350.356	296.08
350.808	293.74
351.26	286.72
351.711	267.99
352.163	211.82
352.615	279.69
353.066	363.95
353.518	284.38
353.969	279.69
354.421	275.01
354.872	333.53
355.324	342.89
355.775	303.1
356.226	333.53
356.677	293.74
357.128	275.01
357.579	312.46
358.03	270.33
358.481	340.55
358.932	265.65
359.383	279.69
359.834	284.38
360.285	324.16
360.735	246.93
361.186	275.01
361.637	291.4
362.087	298.42
362.538	340.55
362.988	275.01
363.438	289.06
363.889	263.31
364.339	239.9
364.789	354.59
365.239	284.38
365.689	328.85
366.139	338.21
366.589	307.78
367.039	300.76
367.489	307.78
367.939	305.44
368.389	356.93
368.839	347.57
369.288	282.03
369.738	328.85
370.187	382.68
370.637	277.35
371.086	319.48
371.536	342.89
371.985	314.8
372.434	366.29
372.884	275.01
373.333	263.31
373.782	265.65
374.231	363.95
374.68	347.57
375.129	312.46
375.578	277.35
376.027	279.69
376.475	361.61
376.924	347.57
377.373	289.06
377.822	312.46
378.27	347.57
378.719	335.87
379.167	277.35
379.616	356.93
380.064	289.06
380.512	296.08
380.961	385.02
381.409	387.36
381.857	356.93
382.305	300.76
382.753	382.68
383.201	305.44
383.649	321.82
384.097	296.08
384.545	328.85
384.992	347.57
385.44	312.46
385.888	326.5
386.335	279.69
386.783	342.89
387.231	253.95
387.678	270.33
388.125	375.66
388.573	263.31
389.02	345.23
389.467	300.76
389.914	300.76
390.362	347.57
390.809	300.76
391.256	258.63
391.703	342.89
392.15	319.48
392.596	296.08
393.043	361.61
393.49	246.93
393.937	293.74
394.383	352.25
394.83	368.63
395.276	363.95
395.723	326.5
396.169	307.78
396.616	260.97
397.062	251.61
397.508	272.67
397.954	296.08
398.401	319.48
398.847	347.57
399.293	366.29
399.739	385.02
400.185	289.06
400.631	385.02
401.076	296.08
401.522	324.16
401.968	338.21
402.414	375.66
402.859	347.57
403.305	331.19
403.75	354.59
404.196	338.21
404.641	263.31
405.086	352.25
405.532	331.19
405.977	286.72
406.422	319.48
406.867	328.85
407.312	335.87
407.757	321.82
408.202	354.59
408.647	347.57
409.092	314.8
409.537	394.38
409.982	335.87
410.426	253.95
410.871	342.89
411.316	256.29
411.76	272.67
412.205	314.8
412.649	286.72
413.093	312.46
413.538	326.5
413.982	310.12
414.426	331.19
414.87	340.55
415.314	303.1
415.758	286.72
416.202	286.72
416.646	312.46
417.09	265.65
417.534	396.72
417.978	298.42
418.421	363.95
418.865	363.95
419.309	373.32
419.752	345.23
420.196	305.44
420.639	277.35
421.083	314.8
421.526	319.48
421.969	319.48
422.412	317.14
422.856	312.46
423.299	303.1
423.742	342.89
424.185	310.12
424.628	352.25
425.071	321.82
425.513	326.5
425.956	335.87
426.399	366.29
426.842	298.42
427.284	307.78
427.727	333.53
428.169	352.25
428.612	296.08
429.054	328.85
429.497	347.57
429.939	368.63
430.381	246.93
430.823	349.91
431.265	324.16
431.707	361.61
432.149	331.19
432.591	340.55
433.033	237.56
433.475	284.38
433.917	312.46
434.359	335.87
434.8	270.33
435.242	354.59
435.684	303.1
436.125	378
436.567	338.21
437.008	291.4
437.449	286.72
437.891	321.82
438.332	359.27
438.773	314.8
439.214	305.44
439.656	317.14
440.097	378
440.538	293.74
440.978	279.69
441.419	335.87
441.86	291.4
442.301	354.59
442.742	270.33
443.182	282.03
443.623	253.95
444.063	352.25
444.504	314.8
444.944	324.16
445.385	352.25
445.825	361.61
446.265	345.23
446.706	293.74
447.146	345.23
447.586	312.46
448.026	321.82
448.466	310.12
448.906	326.5
449.346	286.72
449.786	289.06
450.225	317.14
450.665	319.48
451.105	352.25
451.544	349.91
451.984	272.67
452.424	282.03
452.863	272.67
453.302	270.33
453.742	331.19
454.181	361.61
454.62	305.44
455.059	385.02
455.499	356.93
455.938	293.74
456.377	345.23
456.816	359.27
457.254	333.53
457.693	347.57
458.132	279.69
458.571	305.44
459.01	326.5
459.448	260.97
459.887	291.4
460.325	296.08
460.764	331.19
461.202	239.9
461.641	244.59
462.079	352.25
462.517	312.46
462.955	298.42
463.393	237.56
463.832	258.63
464.27	349.91
464.708	303.1
465.145	267.99
465.583	289.06
466.021	345.23
466.459	321.82
466.897	298.42
467.334	223.52
467.772	324.16
468.209	356.93
468.647	335.87
469.084	300.76
469.522	267.99
469.959	331.19
470.396	305.44
470.833	286.72
471.271	352.25
471.708	307.78
472.145	298.42
472.582	307.78
473.019	326.5
473.456	298.42
473.892	314.8
474.329	319.48
474.766	272.67
475.202	314.8
475.639	267.99
476.076	326.5
476.512	356.93
476.949	300.76
477.385	298.42
477.821	326.5
478.258	282.03
478.694	305.44
479.13	352.25
479.566	342.89
480.002	333.53
480.438	347.57
480.874	279.69
481.31	303.1
481.746	368.63
482.181	312.46
482.617	385.02
483.053	356.93
483.488	312.46
483.924	317.14
484.36	270.33
484.795	282.03
485.23	305.44
485.666	373.32
486.101	305.44
486.536	267.99
486.971	310.12
487.407	317.14
487.842	347.57
488.277	312.46
488.712	275.01
489.146	333.53
489.581	319.48
490.016	370.97
490.451	331.19
490.885	298.42
491.32	340.55
491.755	324.16
492.189	312.46
492.624	331.19
493.058	366.29
493.492	298.42
493.927	326.5
494.361	349.91
494.795	284.38
495.229	385.02
495.663	286.72
496.097	356.93
496.531	345.23
496.965	312.46
497.399	352.25
497.833	246.93
498.266	286.72
498.7	352.25
499.134	331.19
499.567	307.78
500.001	345.23
500.434	326.5
500.868	317.14
501.301	307.78
501.734	314.8
502.168	291.4
502.601	352.25
503.034	305.44
503.467	314.8
503.9	312.46
504.333	258.63
504.766	289.06
505.199	326.5
505.632	331.19
506.064	289.06
506.497	270.33
506.93	324.16
507.362	314.8
507.795	354.59
508.227	282.03
508.66	291.4
509.092	321.82
509.524	340.55
509.956	314.8
510.389	338.21
510.821	338.21
511.253	340.55
511.685	298.42
512.117	340.55
512.549	310.12
512.981	305.44
513.412	345.23
513.844	319.48
514.276	349.91
514.707	314.8
515.139	307.78
515.571	347.57
516.002	291.4
516.433	335.87
516.865	359.27
517.296	291.4
517.727	352.25
518.159	342.89
518.59	305.44
519.021	284.38
519.452	305.44
519.883	246.93
520.314	396.72
520.744	298.42
521.175	354.59
521.606	275.01
522.037	293.74
522.467	246.93
522.898	296.08
523.328	282.03
523.759	354.59
524.189	275.01
524.62	289.06
525.05	359.27
525.48	333.53
525.91	300.76
526.341	321.82
526.771	319.48
527.201	312.46
527.631	279.69
528.061	305.44
528.49	298.42
528.92	356.93
529.35	289.06
529.78	282.03
530.209	265.65
530.639	296.08
531.068	328.85
531.498	305.44
531.927	342.89
532.357	260.97
532.786	303.1
533.215	305.44
533.644	317.14
534.074	307.78
534.503	342.89
534.932	326.5
535.361	307.78
535.79	263.31
536.218	277.35
536.647	275.01
537.076	333.53
537.505	314.8
537.933	370.97
538.362	345.23
538.79	321.82
539.219	335.87
539.647	293.74
540.076	312.46
540.504	319.48
540.932	279.69
541.36	319.48
541.788	335.87
542.217	307.78
542.645	319.48
543.073	300.76
543.5	380.34
543.928	310.12
544.356	347.57
544.784	282.03
545.211	267.99
545.639	256.29
546.067	333.53
546.494	324.16
546.922	310.12
547.349	307.78
547.776	321.82
548.204	279.69
548.631	303.1
549.058	352.25
549.485	328.85
549.912	298.42
550.339	352.25
550.766	340.55
551.193	307.78
551.62	347.57
552.047	319.48
552.474	307.78
552.9	284.38
553.327	253.95
553.754	356.93
554.18	352.25
554.607	305.44
555.033	331.19
555.459	324.16
555.886	310.12
556.312	331.19
556.738	340.55
557.164	317.14
557.59	289.06
558.016	342.89
558.442	298.42
558.868	279.69
559.294	389.7
559.72	272.67
560.145	312.46
560.571	338.21
560.997	333.53
561.422	359.27
561.848	338.21
562.273	340.55
562.699	291.4
563.124	335.87
563.549	298.42
563.974	305.44
564.4	293.74
564.825	319.48
565.25	286.72
565.675	366.29
566.1	354.59
566.525	307.78
566.95	314.8
567.374	326.5
567.799	216.5
568.224	300.76
568.648	319.48
569.073	354.59
569.497	314.8
569.922	277.35
570.346	333.53
570.771	338.21
571.195	263.31
571.619	335.87
572.043	340.55
572.467	382.68
572.891	361.61
573.315	296.08
573.739	267.99
574.163	326.5
574.587	328.85
575.011	321.82
575.435	326.5
575.858	340.55
576.282	305.44
576.705	282.03
577.129	279.69
577.552	296.08
577.976	326.5
578.399	373.32
578.822	333.53
579.245	361.61
579.669	275.01
580.092	286.72
580.515	277.35
580.938	246.93
581.361	303.1
581.784	345.23
582.206	275.01
582.629	317.14
583.052	321.82
583.474	349.91
583.897	324.16
584.32	298.42
584.742	263.31
585.165	275.01
585.587	307.78
586.009	307.78
586.431	314.8
586.854	347.57
587.276	382.68
587.698	338.21
588.12	328.85
588.542	387.36
588.964	352.25
589.386	282.03
589.807	366.29
590.229	375.66
590.651	307.78
591.073	246.93
591.494	356.93
591.916	296.08
592.337	305.44
592.759	394.38
593.18	359.27
593.601	370.97
594.022	284.38
594.444	335.87
594.865	253.95
595.286	317.14
595.707	354.59
596.128	307.78
596.549	338.21
596.97	305.44
597.39	300.76
597.811	324.16
598.232	333.53
598.652	394.38
599.073	340.55
599.494	305.44
599.914	335.87
600.334	331.19
600.755	310.12
601.175	321.82
601.595	326.5
602.015	338.21
602.436	335.87
602.856	469.28
603.276	349.91
603.696	324.16
604.115	305.44
604.535	324.16
604.955	338.21
605.375	307.78
605.794	242.25
606.214	265.65
606.634	335.87
607.053	333.53
607.473	319.48
607.892	356.93
608.311	354.59
608.731	319.48
609.15	317.14
609.569	328.85
609.988	370.97
610.407	361.61
610.826	370.97
611.245	300.76
611.664	296.08
612.083	326.5
612.501	265.65
612.92	349.91
613.339	305.44
613.757	345.23
614.176	370.97
614.594	293.74
615.013	321.82
615.431	331.19
615.85	319.48
616.268	275.01
616.686	293.74
617.104	317.14
617.522	265.65
617.94	338.21
618.358	382.68
618.776	326.5
619.194	352.25
619.612	293.74
620.03	314.8
620.447	333.53
620.865	300.76
621.282	303.1
621.7	359.27
622.117	317.14
622.535	340.55
622.952	249.27
623.369	279.69
623.787	345.23
624.204	296.08
624.621	223.52
625.038	321.82
625.455	291.4
625.872	291.4
626.289	345.23
626.706	282.03
627.123	303.1
627.539	291.4
627.956	352.25
628.373	296.08
628.789	305.44
629.206	312.46
629.622	300.76
630.038	349.91
630.455	307.78
630.871	326.5
631.287	317.14
631.703	282.03
632.12	270.33
632.536	338.21
632.952	305.44
633.368	356.93
633.783	291.4
634.199	249.27
634.615	267.99
635.031	317.14
635.446	333.53
635.862	347.57
636.277	378
636.693	307.78
637.108	305.44
637.524	298.42
637.939	249.27
638.354	242.25
638.77	333.53
639.185	298.42
639.6	286.72
640.015	242.25
640.43	267.99
640.845	317.14
641.259	272.67
641.674	307.78
642.089	333.53
642.504	289.06
642.918	300.76
643.333	263.31
643.747	267.99
644.162	373.32
644.576	310.12
644.991	333.53
645.405	408.42
645.819	284.38
646.233	305.44
646.647	389.7
647.061	321.82
647.475	340.55
647.889	303.1
648.303	293.74
648.717	303.1
649.131	340.55
649.545	359.27
649.958	312.46
650.372	326.5
650.785	321.82
651.199	312.46
651.612	373.32
652.026	335.87
652.439	277.35
652.852	359.27
653.266	382.68
653.679	282.03
654.092	310.12
654.505	303.1
654.918	321.82
655.331	328.85
655.744	300.76
656.156	291.4
656.569	335.87
656.982	298.42
657.394	282.03
657.807	263.31
658.22	319.48
658.632	338.21
659.044	328.85
659.457	267.99
659.869	319.48
660.281	328.85
660.693	366.29
661.106	305.44
661.518	317.14
661.93	267.99
662.342	263.31
662.754	296.08
663.165	312.46
663.577	361.61
663.989	265.65
664.401	356.93
664.812	321.82
665.224	312.46
665.635	307.78
666.047	289.06
666.458	328.85
666.869	317.14
667.281	270.33
667.692	310.12
668.103	338.21
668.514	324.16
668.925	403.74
669.336	328.85
669.747	361.61
670.158	277.35
670.569	242.25
670.979	249.27
671.39	352.25
671.801	321.82
672.211	242.25
672.622	286.72
673.032	335.87
673.443	312.46
673.853	307.78
674.263	319.48
674.674	335.87
675.084	296.08
675.494	246.93
675.904	385.02
676.314	300.76
676.724	319.48
677.134	260.97
677.544	303.1
677.953	310.12
678.363	328.85
678.773	300.76
679.182	305.44
679.592	307.78
680.001	328.85
680.411	347.57
680.82	361.61
681.23	331.19
681.639	282.03
682.048	361.61
682.457	324.16
682.866	349.91
683.275	279.69
683.684	389.7
684.093	303.1
684.502	331.19
684.911	289.06
685.32	333.53
685.728	284.38
686.137	298.42
686.546	331.19
686.954	310.12
687.363	335.87
687.771	303.1
688.179	352.25
688.588	363.95
688.996	319.48
689.404	305.44
689.812	312.46
690.22	237.56
690.628	310.12
691.036	319.48
691.444	317.14
691.852	331.19
692.26	312.46
692.667	366.29
693.075	291.4
693.483	258.63
693.89	275.01
694.298	326.5
694.705	347.57
695.112	291.4
695.52	279.69
695.927	359.27
696.334	347.57
696.741	291.4
697.148	277.35
697.555	291.4
697.962	293.74
698.369	282.03
698.776	267.99
699.183	331.19
699.59	314.8
699.996	387.36
700.403	370.97
700.81	228.2
701.216	265.65
701.623	317.14
702.029	321.82
702.435	289.06
702.842	340.55
703.248	335.87
703.654	258.63
704.06	275.01
704.466	282.03
704.872	284.38
705.278	328.85
705.684	298.42
706.09	326.5
706.496	394.38
706.901	359.27
707.307	324.16
707.712	296.08
708.118	319.48
708.523	361.61
708.929	326.5
709.334	298.42
709.74	260.97
710.145	263.31
710.55	246.93
710.955	338.21
711.36	230.54
711.765	324.16
712.17	342.89
712.575	293.74
712.98	1012.28
713.385	345.23
713.789	298.42
714.194	275.01
714.599	279.69
715.003	277.35
715.408	282.03
715.812	352.25
716.217	312.46
716.621	342.89
717.025	331.19
717.429	300.76
717.833	340.55
718.238	326.5
718.642	340.55
719.046	298.42
719.449	277.35
719.853	345.23
720.257	286.72
720.661	317.14
721.065	361.61
721.468	317.14
721.872	286.72
722.275	303.1
722.679	277.35
723.082	312.46
723.485	347.57
723.889	340.55
724.292	293.74
724.695	331.19
725.098	373.32
725.501	352.25
725.904	289.06
726.307	387.36
726.71	335.87
727.113	296.08
727.516	293.74
727.918	342.89
728.321	293.74
728.724	267.99
729.126	321.82
729.529	275.01
729.931	275.01
730.333	293.74
730.736	303.1
731.138	279.69
731.54	246.93
731.942	354.59
732.344	303.1
732.746	363.95
733.148	310.12
733.55	331.19
733.952	305.44
734.354	335.87
734.756	333.53
735.157	342.89
735.559	284.38
735.96	293.74
736.362	291.4
736.763	303.1
737.165	298.42
737.566	289.06
737.967	270.33
738.368	282.03
738.77	270.33
739.171	310.12
739.572	328.85
739.973	305.44
740.374	347.57
740.774	314.8
741.175	267.99
741.576	286.72
741.977	260.97
742.377	272.67
742.778	237.56
743.178	307.78
743.579	307.78
743.979	319.48
744.379	370.97
744.78	317.14
745.18	324.16
745.58	319.48
745.98	324.16
746.38	317.14
746.78	324.16
747.18	298.42
747.58	244.59
747.98	354.59
748.38	300.76
748.779	265.65
749.179	319.48
749.578	277.35
749.978	272.67
750.377	314.8
750.777	349.91
751.176	267.99
751.575	298.42
751.975	263.31
752.374	279.69
752.773	378
753.172	312.46
753.571	291.4
753.97	314.8
754.369	258.63
754.768	340.55
755.166	293.74
755.565	296.08
755.964	303.1
756.362	289.06
756.761	303.1
757.159	279.69
757.558	331.19
757.956	251.61
758.354	277.35
758.753	284.38
759.151	342.89
759.549	298.42
759.947	305.44
760.345	284.38
760.743	359.27
761.141	340.55
761.539	296.08
761.936	293.74
762.334	298.42
762.732	345.23
763.129	326.5
763.527	359.27
763.924	251.61
764.322	310.12
764.719	263.31
765.117	333.53
765.514	335.87
765.911	305.44
766.308	305.44
766.705	333.53
767.102	218.84
767.499	300.76
767.896	312.46
768.293	293.74
768.69	307.78
769.086	251.61
769.483	324.16
769.88	298.42
770.276	298.42
770.673	356.93
771.069	314.8
771.466	303.1
771.862	258.63
772.258	296.08
772.654	328.85
773.05	335.87
773.447	303.1
773.843	331.19
774.239	382.68
774.634	305.44
775.03	338.21
775.426	284.38
775.822	373.32
776.218	305.44
776.613	289.06
777.009	310.12
777.404	335.87
777.8	324.16
778.195	317.14
778.59	282.03
778.986	282.03
779.381	305.44
779.776	256.29
780.171	258.63
780.566	305.44
780.961	338.21
781.356	284.38
781.751	303.1
782.146	242.25
782.54	312.46
782.935	272.67
783.33	298.42
783.724	312.46
784.119	286.72
784.513	312.46
784.908	305.44
785.302	305.44
785.696	317.14
786.09	265.65
786.485	284.38
786.879	298.42
787.273	289.06
787.667	361.61
788.061	331.19
788.454	303.1
788.848	296.08
789.242	291.4
789.636	312.46
790.029	298.42
790.423	335.87
790.816	307.78
791.21	347.57
791.603	312.46
791.997	300.76
792.39	328.85
792.783	296.08
793.176	277.35
793.569	307.78
793.962	328.85
794.355	258.63
794.748	326.5
795.141	307.78
795.534	356.93
795.927	324.16
796.319	298.42
796.712	314.8
797.105	314.8
797.497	319.48
797.89	321.82
798.282	300.76
798.674	321.82
799.067	279.69
799.459	249.27
799.851	326.5
800.243	239.9
800.635	373.32
801.027	300.76
801.419	373.32
801.811	314.8
802.203	335.87
802.594	314.8
802.986	253.95
803.378	328.85
803.769	307.78
804.161	286.72
804.552	387.36
804.944	225.86
805.335	314.8
805.726	272.67
806.118	335.87
806.509	279.69
806.9	352.25
807.291	303.1
807.682	267.99
808.073	277.35
808.464	305.44
808.855	284.38
809.245	256.29
809.636	279.69
810.027	312.46
810.417	293.74
810.808	289.06
811.198	321.82
811.589	296.08
811.979	317.14
812.369	284.38
812.759	296.08
813.15	265.65
813.54	354.59
813.93	300.76
814.32	312.46
814.71	345.23
815.1	246.93
815.489	333.53
815.879	267.99
816.269	321.82
816.658	282.03
817.048	260.97
817.438	317.14
817.827	260.97
818.216	312.46
818.606	347.57
818.995	347.57
819.384	319.48
819.773	282.03
820.163	363.95
820.552	356.93
820.941	356.93
821.33	310.12
821.718	342.89
822.107	333.53
822.496	277.35
822.885	282.03
823.273	319.48
823.662	331.19
824.05	298.42
824.439	256.29
824.827	291.4
825.216	305.44
825.604	275.01
825.992	286.72
826.38	317.14
826.768	370.97
827.156	298.42
827.544	326.5
827.932	303.1
828.32	310.12
828.708	270.33
829.096	291.4
829.483	282.03
829.871	317.14
830.259	342.89
830.646	286.72
831.034	342.89
831.421	333.53
831.808	324.16
832.196	345.23
832.583	307.78
832.97	340.55
833.357	284.38
833.744	340.55
834.131	244.59
834.518	342.89
834.905	312.46
835.292	335.87
835.678	340.55
836.065	282.03
836.452	260.97
836.838	270.33
837.225	197.78
837.611	368.63
837.998	356.93
838.384	263.31
838.77	342.89
839.157	230.54
839.543	359.27
839.929	356.93
840.315	310.12
840.701	368.63
841.087	331.19
841.473	345.23
841.858	286.72
842.244	314.8
842.63	331.19
843.015	260.97
843.401	375.66
843.787	307.78
844.172	270.33
844.557	321.82
844.943	291.4
845.328	286.72
845.713	300.76
846.098	305.44
846.483	260.97
846.868	282.03
847.253	289.06
847.638	342.89
848.023	312.46
848.408	305.44
848.793	305.44
849.177	300.76
849.562	331.19
849.947	373.32
850.331	298.42
850.715	326.5
851.1	286.72
851.484	303.1
851.868	314.8
852.253	314.8
852.637	366.29
853.021	284.38
853.405	326.5
853.789	275.01
854.173	275.01
854.557	305.44
854.94	340.55
855.324	366.29
855.708	359.27
856.091	340.55
856.475	359.27
856.858	284.38
857.242	328.85
857.625	303.1
858.009	279.69
858.392	284.38
858.775	363.95
859.158	361.61
859.541	303.1
859.924	352.25
860.307	340.55
860.69	282.03
861.073	340.55
861.456	326.5
861.838	303.1
862.221	331.19
862.604	300.76
862.986	321.82
863.369	328.85
863.751	303.1
864.133	279.69
864.516	300.76
864.898	349.91
865.28	375.66
865.662	340.55
866.044	300.76
866.426	352.25
866.808	265.65
867.19	286.72
867.572	340.55
867.954	356.93
868.336	321.82
868.717	382.68
869.099	359.27
869.48	307.78
869.862	277.35
870.243	293.74
870.625	338.21
871.006	279.69
871.387	244.59
871.768	293.74
872.149	321.82
872.53	296.08
872.911	282.03
873.292	253.95
873.673	326.5
874.054	312.46
874.435	378
874.815	305.44
875.196	282.03
875.577	277.35
875.957	279.69
876.338	321.82
876.718	335.87
877.098	352.25
877.479	246.93
877.859	277.35
878.239	265.65
878.619	282.03
878.999	317.14
879.379	312.46
879.759	256.29
880.139	321.82
880.519	286.72
880.898	352.25
881.278	303.1
881.658	368.63
882.037	265.65
882.417	293.74
882.796	331.19
883.176	246.93
883.555	321.82
883.934	279.69
884.313	331.19
884.693	275.01
885.072	359.27
885.451	349.91
885.83	291.4
886.209	303.1
886.587	326.5
886.966	303.1
887.345	331.19
887.724	291.4
888.102	331.19
888.481	296.08
888.859	317.14
889.238	279.69
889.616	310.12
889.994	270.33
890.373	363.95
890.751	319.48
891.129	282.03
891.507	338.21
891.885	319.48
892.263	324.16
892.641	253.95
893.019	282.03
893.396	296.08
893.774	291.4
894.152	312.46
894.529	310.12
894.907	333.53
895.284	256.29
895.662	263.31
896.039	335.87
896.416	319.48
896.794	326.5
897.171	307.78
897.548	296.08
897.925	286.72
898.302	282.03
898.679	282.03
899.056	253.95
899.433	270.33
899.809	298.42
900.186	282.03
900.563	352.25
900.939	328.85
901.316	347.57
901.692	319.48
902.069	300.76
902.445	406.08
902.821	277.35
903.197	277.35
903.574	291.4
903.95	319.48
904.326	312.46
904.702	293.74
905.078	298.42
905.454	310.12
905.829	314.8
906.205	312.46
906.581	289.06
906.956	286.72
907.332	305.44
907.707	289.06
908.083	279.69
908.458	356.93
908.833	275.01
909.209	298.42
909.584	328.85
909.959	324.16
910.334	319.48
910.709	349.91
911.084	361.61
911.459	305.44
911.834	312.46
912.209	305.44
912.583	326.5
912.958	303.1
913.333	326.5
913.707	293.74
914.082	307.78
914.456	296.08
914.83	279.69
915.205	319.48
915.579	298.42
915.953	319.48
916.327	312.46
916.701	314.8
917.075	324.16
917.449	300.76
917.823	300.76
918.197	270.33
918.571	335.87
918.944	349.91
919.318	338.21
919.692	286.72
920.065	347.57
920.438	347.57
920.812	237.56
921.185	356.93
921.558	349.91
921.932	267.99
922.305	342.89
922.678	293.74
923.051	361.61
923.424	260.97
923.797	321.82
924.17	270.33
924.542	275.01
924.915	340.55
925.288	296.08
925.661	312.46
926.033	296.08
926.406	321.82
926.778	242.25
927.15	312.46
927.523	298.42
927.895	303.1
928.267	265.65
928.639	338.21
929.011	289.06
929.383	244.59
929.755	284.38
930.127	270.33
930.499	296.08
930.871	310.12
931.242	338.21
931.614	312.46
931.986	272.67
932.357	340.55
932.729	249.27
933.1	328.85
933.471	303.1
933.843	282.03
934.214	298.42
934.585	335.87
934.956	286.72
935.327	363.95
935.698	333.53
936.069	314.8
936.44	291.4
936.811	298.42
937.182	296.08
937.552	293.74
937.923	349.91
938.293	356.93
938.664	324.16
939.034	312.46
939.405	354.59
939.775	298.42
940.145	366.29
940.516	275.01
940.886	289.06
941.256	300.76
941.626	338.21
941.996	305.44
942.366	289.06
942.735	296.08
943.105	305.44
943.475	310.12
943.845	321.82
944.214	263.31
944.584	354.59
944.953	340.55
945.323	253.95
945.692	293.74
946.061	286.72
946.43	249.27
946.8	354.59
947.169	300.76
947.538	279.69
947.907	331.19
948.276	312.46
948.645	314.8
949.013	338.21
949.382	375.66
949.751	303.1
950.119	349.91
950.488	326.5
950.857	370.97
951.225	291.4
951.593	354.59
951.962	326.5
952.33	305.44
952.698	242.25
953.066	272.67
953.434	291.4
953.802	286.72
954.17	317.14
954.538	333.53
954.906	342.89
955.274	333.53
955.642	312.46
956.009	286.72
956.377	312.46
956.744	331.19
957.112	284.38
957.479	256.29
957.847	260.97
958.214	303.1
958.581	335.87
958.948	298.42
959.315	312.46
959.683	263.31
960.05	340.55
960.416	342.89
960.783	356.93
961.15	335.87
961.517	314.8
961.884	246.93
962.25	363.95
962.617	258.63
962.983	253.95
963.35	293.74
963.716	289.06
964.082	244.59
964.449	345.23
964.815	347.57
965.181	289.06
965.547	328.85
965.913	277.35
966.279	263.31
966.645	286.72
967.011	300.76
967.377	291.4
967.742	307.78
968.108	221.18
968.474	279.69
968.839	347.57
969.205	342.89
969.57	328.85
969.935	275.01
970.301	282.03
970.666	319.48
971.031	293.74
971.396	305.44
971.761	340.55
972.126	300.76
972.491	267.99
972.856	373.32
973.221	279.69
973.586	279.69
973.95	267.99
974.315	326.5
974.679	296.08
975.044	333.53
975.408	319.48
975.773	378
976.137	333.53
976.501	298.42
976.866	298.42
977.23	338.21
977.594	363.95
977.958	293.74
978.322	314.8
978.686	356.93
979.049	291.4
979.413	324.16
979.777	293.74
980.141	293.74
980.504	347.57
980.868	314.8
981.231	354.59
981.595	293.74
981.958	265.65
982.321	338.21
982.684	321.82
983.048	310.12
983.411	260.97
983.774	298.42
984.137	291.4
984.5	260.97
984.862	314.8
985.225	286.72
985.588	263.31
985.951	324.16
986.313	324.16
986.676	326.5
987.038	340.55
987.401	282.03
987.763	265.65
988.125	303.1
988.488	296.08
988.85	251.61
989.212	296.08
989.574	312.46
989.936	317.14
990.298	279.69
990.66	319.48
991.022	209.48
991.383	298.42
991.745	296.08
992.107	263.31
992.468	244.59
992.83	265.65
993.191	305.44
993.553	289.06
993.914	282.03
994.275	356.93
994.637	317.14
994.998	335.87
995.359	314.8
995.72	352.25
996.081	300.76
996.442	314.8
996.803	305.44
997.163	279.69
997.524	326.5
997.885	319.48
998.245	303.1
998.606	275.01
998.966	333.53
999.327	319.48
999.687	305.44
1000.047	312.46
1000.408	270.33
1000.768	279.69
1001.128	314.8
1001.488	270.33
1001.848	331.19
1002.208	352.25
1002.568	347.57
1002.927	373.32
1003.287	361.61
1003.647	321.82
1004.007	317.14
1004.366	338.21
1004.726	347.57
1005.085	279.69
1005.444	359.27
1005.804	305.44
1006.163	324.16
1006.522	286.72
1006.881	314.8
1007.24	303.1
1007.599	298.42
1007.958	307.78
1008.317	298.42
1008.676	312.46
1009.035	354.59
1009.393	253.95
1009.752	267.99
1010.111	282.03
1010.469	317.14
1010.828	333.53
1011.186	244.59
1011.544	265.65
1011.903	356.93
1012.261	211.82
1012.619	275.01
1012.977	310.12
1013.335	284.38
1013.693	296.08
1014.051	275.01
1014.409	298.42
1014.767	319.48
1015.124	354.59
1015.482	331.19
1015.84	312.46
1016.197	314.8
1016.555	249.27
1016.912	338.21
1017.269	223.52
1017.627	298.42
1017.984	270.33
1018.341	326.5
1018.698	338.21
1019.055	310.12
1019.412	286.72
1019.769	286.72
1020.126	286.72
1020.483	319.48
1020.84	338.21
1021.196	270.33
1021.553	289.06
1021.909	303.1
1022.266	277.35
1022.622	267.99
1022.979	324.16
1023.335	314.8
1023.691	349.91
1024.047	312.46
1024.404	335.87
1024.76	331.19
1025.116	275.01
1025.472	293.74
1025.827	298.42
1026.183	347.57
1026.539	363.95
1026.895	326.5
1027.25	293.74
1027.606	333.53
1027.961	324.16
1028.317	314.8
1028.672	296.08
1029.028	303.1
1029.383	307.78
1029.738	331.19
1030.093	321.82
1030.448	321.82
1030.803	363.95
1031.158	244.59
1031.513	335.87
1031.868	317.14
1032.223	275.01
1032.577	263.31
1032.932	310.12
1033.287	258.63
1033.641	324.16
1033.996	331.19
1034.35	249.27
1034.704	300.76
1035.059	303.1
1035.413	321.82
1035.767	321.82
1036.121	321.82
