Data from Al_FLMS009871__464__14-34-53-432.txt Node

Date: Fri Mar 08 14:34:53 CST 2024
User: pe5414po
Spectrometer: FLMS00987
Trigger mode: 0
Integration Time (sec): 1.000000E-1
Scans to average: 1
Electric dark correction enabled: true
Nonlinearity correction enabled: false
Boxcar width: 0
XAxis mode: Wavelengths
Number of Pixels in Spectrum: 2048
>>>>>Begin Spectral Data<<<<<
188.938	-89.09
189.409	-89.09
189.879	-89.09
190.349	-100.79
190.819	-84.41
191.29	-61
191.76	-39.94
192.23	-82.07
192.7	-93.77
193.17	-77.38
193.64	-84.41
194.109	-63.34
194.579	-23.55
195.049	-21.21
195.519	-7.17
195.988	72.41
196.458	74.75
196.927	79.43
197.397	133.26
197.866	121.56
198.336	72.41
198.805	128.58
199.274	107.52
199.744	182.42
200.213	175.39
200.682	245.61
201.151	254.97
201.62	233.91
202.089	233.91
202.558	287.74
203.027	261.99
203.495	229.23
203.964	325.19
204.433	297.1
204.902	306.46
205.37	264.33
205.839	247.95
206.307	297.1
206.776	311.14
207.244	283.06
207.712	215.18
208.181	285.4
208.649	306.46
209.117	308.8
209.585	290.08
210.053	287.74
210.521	322.85
210.989	198.8
211.457	283.06
211.925	217.52
212.393	278.38
212.861	233.91
213.328	276.04
213.796	290.08
214.264	322.85
214.731	245.61
215.199	231.57
215.666	280.72
216.133	325.19
216.601	247.95
217.068	257.31
217.535	254.97
218.003	273.7
218.47	273.7
218.937	299.44
219.404	247.95
219.871	261.99
220.338	276.04
220.805	280.72
221.271	269.02
221.738	243.27
222.205	198.8
222.671	233.91
223.138	278.38
223.605	273.7
224.071	198.8
224.538	243.27
225.004	254.97
225.47	292.42
225.937	196.46
226.403	290.08
226.869	287.74
227.335	290.08
227.801	280.72
228.267	292.42
228.733	254.97
229.199	222.2
229.665	236.25
230.131	269.02
230.597	261.99
231.062	318.17
231.528	254.97
231.994	233.91
232.459	306.46
232.925	273.7
233.39	264.33
233.856	238.59
234.321	315.83
234.786	301.78
235.252	294.76
235.717	276.04
236.182	238.59
236.647	184.76
237.112	280.72
237.577	285.4
238.042	294.76
238.507	252.63
238.972	343.91
239.436	236.25
239.901	322.85
240.366	149.65
240.83	283.06
241.295	287.74
241.76	299.44
242.224	276.04
242.688	236.25
243.153	276.04
243.617	306.46
244.081	269.02
244.545	243.27
245.01	266.67
245.474	322.85
245.938	269.02
246.402	292.42
246.866	259.65
247.33	308.8
247.793	294.76
248.257	306.46
248.721	266.67
249.185	315.83
249.648	245.61
250.112	327.53
250.575	273.7
251.039	304.12
251.502	269.02
251.965	294.76
252.429	254.97
252.892	280.72
253.355	346.25
253.818	287.74
254.281	299.44
254.744	318.17
255.207	334.55
255.67	250.29
256.133	208.16
256.596	311.14
257.059	306.46
257.522	292.42
257.984	264.33
258.447	341.57
258.909	318.17
259.372	240.93
259.834	252.63
260.297	271.36
260.759	261.99
261.221	283.06
261.684	245.61
262.146	264.33
262.608	357.96
263.07	273.7
263.532	318.17
263.994	308.8
264.456	332.21
264.918	322.85
265.38	247.95
265.842	357.96
266.303	287.74
266.765	243.27
267.227	229.23
267.688	266.67
268.15	276.04
268.611	325.19
269.072	306.46
269.534	318.17
269.995	290.08
270.456	379.02
270.918	292.42
271.379	315.83
271.84	259.65
272.301	287.74
272.762	257.31
273.223	332.21
273.684	278.38
274.144	250.29
274.605	311.14
275.066	318.17
275.527	318.17
275.987	292.42
276.448	287.74
276.908	308.8
277.369	292.42
277.829	259.65
278.289	252.63
278.75	240.93
279.21	315.83
279.67	280.72
280.13	301.78
280.59	287.74
281.05	259.65
281.51	339.23
281.97	325.19
282.43	243.27
282.89	259.65
283.35	278.38
283.809	304.12
284.269	334.55
284.729	254.97
285.188	273.7
285.648	245.61
286.107	341.57
286.567	245.61
287.026	285.4
287.485	304.12
287.944	266.67
288.404	285.4
288.863	374.34
289.322	304.12
289.781	257.31
290.24	308.8
290.699	332.21
291.158	301.78
291.616	276.04
292.075	238.59
292.534	217.52
292.992	261.99
293.451	304.12
293.91	327.53
294.368	276.04
294.827	327.53
295.285	245.61
295.743	299.44
296.202	208.16
296.66	350.93
297.118	301.78
297.576	332.21
298.034	264.33
298.492	304.12
298.95	299.44
299.408	247.95
299.866	257.31
300.324	276.04
300.781	322.85
301.239	301.78
301.697	243.27
302.154	332.21
302.612	332.21
303.069	336.89
303.527	341.57
303.984	269.02
304.441	308.8
304.899	346.25
305.356	287.74
305.813	243.27
306.27	222.2
306.727	367.32
307.184	297.1
307.641	339.23
308.098	329.87
308.555	329.87
309.012	308.8
309.468	236.25
309.925	304.12
310.382	271.36
310.838	276.04
311.295	283.06
311.751	261.99
312.208	332.21
312.664	301.78
313.12	257.31
313.577	294.76
314.033	250.29
314.489	285.4
314.945	290.08
315.401	313.49
315.857	294.76
316.313	329.87
316.769	290.08
317.225	339.23
317.681	327.53
318.136	313.49
318.592	393.06
319.048	269.02
319.503	266.67
319.959	292.42
320.414	313.49
320.869	386.04
321.325	264.33
321.78	285.4
322.235	322.85
322.691	294.76
323.146	336.89
323.601	294.76
324.056	290.08
324.511	294.76
324.966	252.63
325.421	231.57
325.875	276.04
326.33	287.74
326.785	290.08
327.24	301.78
327.694	240.93
328.149	318.17
328.603	315.83
329.058	348.59
329.512	294.76
329.966	306.46
330.421	315.83
330.875	367.32
331.329	266.67
331.783	304.12
332.237	339.23
332.691	254.97
333.145	318.17
333.599	210.5
334.053	336.89
334.507	280.72
334.96	308.8
335.414	311.14
335.868	332.21
336.321	311.14
336.775	357.96
337.228	367.32
337.682	350.93
338.135	304.12
338.588	383.7
339.042	299.44
339.495	252.63
339.948	332.21
340.401	327.53
340.854	236.25
341.307	250.29
341.76	315.83
342.213	350.93
342.666	339.23
343.119	271.36
343.571	339.23
344.024	240.93
344.477	322.85
344.929	308.8
345.382	297.1
345.834	224.55
346.287	222.2
346.739	341.57
347.191	273.7
347.644	329.87
348.096	301.78
348.548	278.38
349	299.44
349.452	233.91
349.904	336.89
350.356	379.02
350.808	334.55
351.26	306.46
351.711	311.14
352.163	376.68
352.615	327.53
353.066	273.7
353.518	386.04
353.969	336.89
354.421	346.25
354.872	297.1
355.324	313.49
355.775	280.72
356.226	292.42
356.677	306.46
357.128	269.02
357.579	308.8
358.03	348.59
358.481	336.89
358.932	315.83
359.383	287.74
359.834	301.78
360.285	261.99
360.735	301.78
361.186	311.14
361.637	283.06
362.087	280.72
362.538	236.25
362.988	341.57
363.438	360.3
363.889	332.21
364.339	325.19
364.789	299.44
365.239	327.53
365.689	304.12
366.139	364.98
366.589	269.02
367.039	283.06
367.489	306.46
367.939	290.08
368.389	301.78
368.839	292.42
369.288	280.72
369.738	315.83
370.187	236.25
370.637	327.53
371.086	238.59
371.536	343.91
371.985	325.19
372.434	341.57
372.884	301.78
373.333	308.8
373.782	320.51
374.231	259.65
374.68	336.89
375.129	336.89
375.578	343.91
376.027	294.76
376.475	339.23
376.924	283.06
377.373	292.42
377.822	320.51
378.27	294.76
378.719	308.8
379.167	266.67
379.616	318.17
380.064	322.85
380.512	304.12
380.961	269.02
381.409	299.44
381.857	301.78
382.305	332.21
382.753	308.8
383.201	283.06
383.649	320.51
384.097	346.25
384.545	294.76
384.992	343.91
385.44	332.21
385.888	271.36
386.335	343.91
386.783	290.08
387.231	339.23
387.678	350.93
388.125	264.33
388.573	315.83
389.02	292.42
389.467	318.17
389.914	252.63
390.362	304.12
390.809	311.14
391.256	308.8
391.703	320.51
392.15	334.55
392.596	332.21
393.043	341.57
393.49	283.06
393.937	313.49
394.383	236.25
394.83	327.53
395.276	290.08
395.723	252.63
396.169	313.49
396.616	327.53
397.062	269.02
397.508	343.91
397.954	325.19
398.401	355.62
398.847	357.96
399.293	343.91
399.739	273.7
400.185	357.96
400.631	372
401.076	322.85
401.522	339.23
401.968	374.34
402.414	261.99
402.859	292.42
403.305	336.89
403.75	276.04
404.196	292.42
404.641	334.55
405.086	318.17
405.532	278.38
405.977	327.53
406.422	238.59
406.867	339.23
407.312	297.1
407.757	283.06
408.202	311.14
408.647	346.25
409.092	350.93
409.537	269.02
409.982	332.21
410.426	322.85
410.871	320.51
411.316	322.85
411.76	273.7
412.205	355.62
412.649	304.12
413.093	294.76
413.538	280.72
413.982	276.04
414.426	311.14
414.87	346.25
415.314	355.62
415.758	264.33
416.202	336.89
416.646	318.17
417.09	254.97
417.534	320.51
417.978	313.49
418.421	329.87
418.865	311.14
419.309	308.8
419.752	252.63
420.196	369.66
420.639	355.62
421.083	322.85
421.526	339.23
421.969	409.45
422.412	304.12
422.856	386.04
423.299	313.49
423.742	369.66
424.185	236.25
424.628	276.04
425.071	327.53
425.513	285.4
425.956	322.85
426.399	294.76
426.842	313.49
427.284	250.29
427.727	280.72
428.169	313.49
428.612	238.59
429.054	336.89
429.497	297.1
429.939	301.78
430.381	322.85
430.823	336.89
431.265	245.61
431.707	245.61
432.149	294.76
432.591	341.57
433.033	278.38
433.475	341.57
433.917	322.85
434.359	313.49
434.8	318.17
435.242	283.06
435.684	360.3
436.125	346.25
436.567	276.04
437.008	315.83
437.449	299.44
437.891	332.21
438.332	372
438.773	257.31
439.214	334.55
439.656	339.23
440.097	290.08
440.538	339.23
440.978	285.4
441.419	254.97
441.86	355.62
442.301	292.42
442.742	261.99
443.182	332.21
443.623	360.3
444.063	297.1
444.504	299.44
444.944	292.42
445.385	257.31
445.825	313.49
446.265	226.89
446.706	287.74
447.146	350.93
447.586	247.95
448.026	332.21
448.466	290.08
448.906	315.83
449.346	327.53
449.786	290.08
450.225	308.8
450.665	273.7
451.105	287.74
451.544	334.55
451.984	320.51
452.424	325.19
452.863	290.08
453.302	254.97
453.742	301.78
454.181	308.8
454.62	283.06
455.059	381.36
455.499	318.17
455.938	304.12
456.377	325.19
456.816	285.4
457.254	264.33
457.693	297.1
458.132	252.63
458.571	325.19
459.01	299.44
459.448	341.57
459.887	311.14
460.325	269.02
460.764	236.25
461.202	273.7
461.641	322.85
462.079	266.67
462.517	357.96
462.955	360.3
463.393	327.53
463.832	257.31
464.27	350.93
464.708	299.44
465.145	304.12
465.583	301.78
466.021	276.04
466.459	280.72
466.897	301.78
467.334	304.12
467.772	336.89
468.209	318.17
468.647	264.33
469.084	364.98
469.522	318.17
469.959	301.78
470.396	329.87
470.833	313.49
471.271	306.46
471.708	311.14
472.145	350.93
472.582	285.4
473.019	318.17
473.456	357.96
473.892	266.67
474.329	350.93
474.766	313.49
475.202	348.59
475.639	318.17
476.076	346.25
476.512	313.49
476.949	276.04
477.385	322.85
477.821	297.1
478.258	376.68
478.694	360.3
479.13	304.12
479.566	313.49
480.002	343.91
480.438	327.53
480.874	308.8
481.31	332.21
481.746	276.04
482.181	269.02
482.617	334.55
483.053	311.14
483.488	266.67
483.924	327.53
484.36	264.33
484.795	348.59
485.23	280.72
485.666	336.89
486.101	292.42
486.536	318.17
486.971	308.8
487.407	306.46
487.842	329.87
488.277	313.49
488.712	315.83
489.146	320.51
489.581	306.46
490.016	374.34
490.451	318.17
490.885	325.19
491.32	346.25
491.755	311.14
492.189	287.74
492.624	311.14
493.058	353.27
493.492	348.59
493.927	313.49
494.361	348.59
494.795	360.3
495.229	306.46
495.663	341.57
496.097	379.02
496.531	313.49
496.965	355.62
497.399	325.19
497.833	271.36
498.266	379.02
498.7	350.93
499.134	250.29
499.567	320.51
500.001	306.46
500.434	294.76
500.868	294.76
501.301	315.83
501.734	294.76
502.168	297.1
502.601	299.44
503.034	318.17
503.467	311.14
503.9	271.36
504.333	273.7
504.766	297.1
505.199	320.51
505.632	350.93
506.064	343.91
506.497	299.44
506.93	259.65
507.362	374.34
507.795	299.44
508.227	287.74
508.66	236.25
509.092	283.06
509.524	315.83
509.956	297.1
510.389	329.87
510.821	369.66
511.253	294.76
511.685	278.38
512.117	236.25
512.549	336.89
512.981	233.91
513.412	304.12
513.844	315.83
514.276	308.8
514.707	381.36
515.139	273.7
515.571	350.93
516.002	278.38
516.433	315.83
516.865	264.33
517.296	360.3
517.727	350.93
518.159	278.38
518.59	334.55
519.021	285.4
519.452	299.44
519.883	322.85
520.314	325.19
520.744	278.38
521.175	308.8
521.606	292.42
522.037	261.99
522.467	367.32
522.898	301.78
523.328	301.78
523.759	350.93
524.189	325.19
524.62	290.08
525.05	364.98
525.48	332.21
525.91	280.72
526.341	339.23
526.771	334.55
527.201	278.38
527.631	355.62
528.061	315.83
528.49	247.95
528.92	264.33
529.35	222.2
529.78	287.74
530.209	376.68
530.639	327.53
531.068	355.62
531.498	311.14
531.927	334.55
532.357	294.76
532.786	325.19
533.215	198.8
533.644	364.98
534.074	259.65
534.503	290.08
534.932	231.57
535.361	285.4
535.79	287.74
536.218	278.38
536.647	311.14
537.076	269.02
537.505	379.02
537.933	306.46
538.362	315.83
538.79	350.93
539.219	297.1
539.647	341.57
540.076	329.87
540.504	329.87
540.932	360.3
541.36	367.32
541.788	280.72
542.217	308.8
542.645	402.43
543.073	252.63
543.5	332.21
543.928	362.64
544.356	292.42
544.784	343.91
545.211	339.23
545.639	322.85
546.067	320.51
546.494	379.02
546.922	343.91
547.349	346.25
547.776	322.85
548.204	322.85
548.631	322.85
549.058	372
549.485	254.97
549.912	355.62
550.339	266.67
550.766	313.49
551.193	315.83
551.62	355.62
552.047	343.91
552.474	313.49
552.9	327.53
553.327	311.14
553.754	390.72
554.18	315.83
554.607	355.62
555.033	367.32
555.459	393.06
555.886	292.42
556.312	306.46
556.738	315.83
557.164	304.12
557.59	353.27
558.016	308.8
558.442	306.46
558.868	320.51
559.294	233.91
559.72	297.1
560.145	273.7
560.571	348.59
560.997	290.08
561.422	343.91
561.848	297.1
562.273	276.04
562.699	280.72
563.124	315.83
563.549	339.23
563.974	259.65
564.4	383.7
564.825	264.33
565.25	315.83
565.675	346.25
566.1	283.06
566.525	283.06
566.95	397.74
567.374	357.96
567.799	315.83
568.224	299.44
568.648	379.02
569.073	332.21
569.497	322.85
569.922	287.74
570.346	292.42
570.771	308.8
571.195	308.8
571.619	299.44
572.043	339.23
572.467	322.85
572.891	301.78
573.315	292.42
573.739	348.59
574.163	304.12
574.587	322.85
575.011	360.3
575.435	294.76
575.858	308.8
576.282	346.25
576.705	360.3
577.129	290.08
577.552	327.53
577.976	264.33
578.399	343.91
578.822	280.72
579.245	334.55
579.669	254.97
580.092	252.63
580.515	367.32
580.938	353.27
581.361	325.19
581.784	280.72
582.206	390.72
582.629	285.4
583.052	301.78
583.474	245.61
583.897	329.87
584.32	311.14
584.742	322.85
585.165	336.89
585.587	308.8
586.009	285.4
586.431	313.49
586.854	285.4
587.276	357.96
587.698	245.61
588.12	341.57
588.542	308.8
588.964	318.17
589.386	407.11
589.807	308.8
590.229	318.17
590.651	320.51
591.073	259.65
591.494	360.3
591.916	306.46
592.337	362.64
592.759	308.8
593.18	283.06
593.601	322.85
594.022	329.87
594.444	334.55
594.865	306.46
595.286	322.85
595.707	336.89
596.128	393.06
596.549	264.33
596.97	329.87
597.39	322.85
597.811	250.29
598.232	269.02
598.652	304.12
599.073	350.93
599.494	322.85
599.914	311.14
600.334	357.96
600.755	252.63
601.175	383.7
601.595	285.4
602.015	318.17
602.436	299.44
602.856	390.72
603.276	297.1
603.696	308.8
604.115	334.55
604.535	348.59
604.955	301.78
605.375	329.87
605.794	301.78
606.214	362.64
606.634	261.99
607.053	336.89
607.473	364.98
607.892	313.49
608.311	297.1
608.731	297.1
609.15	329.87
609.569	414.13
609.988	327.53
610.407	362.64
610.826	311.14
611.245	379.02
611.664	360.3
612.083	306.46
612.501	395.4
612.92	341.57
613.339	304.12
613.757	308.8
614.176	362.64
614.594	346.25
615.013	369.66
615.431	299.44
615.85	334.55
616.268	343.91
616.686	320.51
617.104	327.53
617.522	348.59
617.94	339.23
618.358	339.23
618.776	290.08
619.194	292.42
619.612	280.72
620.03	313.49
620.447	336.89
620.865	306.46
621.282	318.17
621.7	386.04
622.117	360.3
622.535	325.19
622.952	297.1
623.369	325.19
623.787	374.34
624.204	290.08
624.621	301.78
625.038	329.87
625.455	269.02
625.872	334.55
626.289	348.59
626.706	327.53
627.123	304.12
627.539	372
627.956	315.83
628.373	294.76
628.789	325.19
629.206	299.44
629.622	315.83
630.038	283.06
630.455	318.17
630.871	315.83
631.287	325.19
631.703	348.59
632.12	383.7
632.536	306.46
632.952	339.23
633.368	283.06
633.783	318.17
634.199	390.72
634.615	301.78
635.031	327.53
635.446	397.74
635.862	301.78
636.277	334.55
636.693	346.25
637.108	339.23
637.524	322.85
637.939	332.21
638.354	339.23
638.77	381.36
639.185	336.89
639.6	322.85
640.015	313.49
640.43	271.36
640.845	278.38
641.259	320.51
641.674	276.04
642.089	304.12
642.504	334.55
642.918	329.87
643.333	364.98
643.747	229.23
644.162	332.21
644.576	362.64
644.991	257.31
645.405	292.42
645.819	336.89
646.233	313.49
646.647	362.64
647.061	280.72
647.475	360.3
647.889	259.65
648.303	346.25
648.717	348.59
649.131	334.55
649.545	294.76
649.958	287.74
650.372	301.78
650.785	299.44
651.199	287.74
651.612	224.55
652.026	292.42
652.439	346.25
652.852	306.46
653.266	311.14
653.679	311.14
654.092	341.57
654.505	348.59
654.918	320.51
655.331	322.85
655.744	299.44
656.156	360.3
656.569	266.67
656.982	313.49
657.394	313.49
657.807	301.78
658.22	294.76
658.632	336.89
659.044	318.17
659.457	290.08
659.869	299.44
660.281	276.04
660.693	259.65
661.106	250.29
661.518	329.87
661.93	339.23
662.342	313.49
662.754	334.55
663.165	362.64
663.577	294.76
663.989	350.93
664.401	341.57
664.812	297.1
665.224	357.96
665.635	332.21
666.047	336.89
666.458	313.49
666.869	264.33
667.281	276.04
667.692	299.44
668.103	306.46
668.514	346.25
668.925	313.49
669.336	364.98
669.747	301.78
670.158	329.87
670.569	386.04
670.979	355.62
671.39	315.83
671.801	308.8
672.211	355.62
672.622	322.85
673.032	259.65
673.443	325.19
673.853	334.55
674.263	376.68
674.674	332.21
675.084	339.23
675.494	329.87
675.904	376.68
676.314	261.99
676.724	308.8
677.134	271.36
677.544	308.8
677.953	318.17
678.363	301.78
678.773	334.55
679.182	367.32
679.592	362.64
680.001	278.38
680.411	355.62
680.82	287.74
681.23	266.67
681.639	297.1
682.048	301.78
682.457	264.33
682.866	334.55
683.275	364.98
683.684	325.19
684.093	327.53
684.502	350.93
684.911	311.14
685.32	334.55
685.728	325.19
686.137	362.64
686.546	332.21
686.954	322.85
687.363	250.29
687.771	311.14
688.179	315.83
688.588	271.36
688.996	313.49
689.404	315.83
689.812	313.49
690.22	306.46
690.628	311.14
691.036	327.53
691.444	320.51
691.852	285.4
692.26	306.46
692.667	327.53
693.075	329.87
693.483	336.89
693.89	318.17
694.298	292.42
694.705	297.1
695.112	290.08
695.52	306.46
695.927	381.36
696.334	360.3
696.741	273.7
697.148	343.91
697.555	348.59
697.962	329.87
698.369	294.76
698.776	308.8
699.183	353.27
699.59	290.08
699.996	290.08
700.403	299.44
700.81	292.42
701.216	320.51
701.623	259.65
702.029	320.51
702.435	273.7
702.842	322.85
703.248	332.21
703.654	320.51
704.06	276.04
704.466	355.62
704.872	332.21
705.278	299.44
705.684	299.44
706.09	322.85
706.496	311.14
706.901	388.38
707.307	325.19
707.712	315.83
708.118	280.72
708.523	318.17
708.929	285.4
709.334	329.87
709.74	362.64
710.145	278.38
710.55	311.14
710.955	276.04
711.36	350.93
711.765	259.65
712.17	320.51
712.575	313.49
712.98	837.77
713.385	355.62
713.789	357.96
714.194	261.99
714.599	341.57
715.003	313.49
715.408	315.83
715.812	299.44
716.217	334.55
716.621	374.34
717.025	299.44
717.429	376.68
717.833	269.02
718.238	306.46
718.642	292.42
719.046	343.91
719.449	322.85
719.853	259.65
720.257	390.72
720.661	290.08
721.065	283.06
721.468	313.49
721.872	278.38
722.275	334.55
722.679	311.14
723.082	346.25
723.485	383.7
723.889	273.7
724.292	236.25
724.695	318.17
725.098	343.91
725.501	301.78
725.904	322.85
726.307	280.72
726.71	283.06
727.113	273.7
727.516	294.76
727.918	322.85
728.321	287.74
728.724	290.08
729.126	266.67
729.529	271.36
729.931	308.8
730.333	325.19
730.736	339.23
731.138	243.27
731.54	273.7
731.942	320.51
732.344	311.14
732.746	304.12
733.148	278.38
733.55	332.21
733.952	299.44
734.354	266.67
734.756	346.25
735.157	348.59
735.559	341.57
735.96	273.7
736.362	290.08
736.763	292.42
737.165	336.89
737.566	346.25
737.967	294.76
738.368	339.23
738.77	313.49
739.171	306.46
739.572	315.83
739.973	350.93
740.374	355.62
740.774	304.12
741.175	278.38
741.576	273.7
741.977	290.08
742.377	367.32
742.778	308.8
743.178	325.19
743.579	271.36
743.979	287.74
744.379	322.85
744.78	306.46
745.18	278.38
745.58	367.32
745.98	315.83
746.38	341.57
746.78	357.96
747.18	353.27
747.58	299.44
747.98	297.1
748.38	327.53
748.779	276.04
749.179	292.42
749.578	250.29
749.978	306.46
750.377	325.19
750.777	271.36
751.176	327.53
751.575	325.19
751.975	329.87
752.374	306.46
752.773	376.68
753.172	334.55
753.571	283.06
753.97	285.4
754.369	283.06
754.768	322.85
755.166	287.74
755.565	276.04
755.964	313.49
756.362	308.8
756.761	290.08
757.159	320.51
757.558	318.17
757.956	261.99
758.354	292.42
758.753	297.1
759.151	280.72
759.549	339.23
759.947	292.42
760.345	304.12
760.743	343.91
761.141	283.06
761.539	299.44
761.936	346.25
762.334	355.62
762.732	339.23
763.129	290.08
763.527	367.32
763.924	269.02
764.322	348.59
764.719	313.49
765.117	367.32
765.514	355.62
765.911	320.51
766.308	304.12
766.705	332.21
767.102	341.57
767.499	348.59
767.896	332.21
768.293	425.83
768.69	336.89
769.086	346.25
769.483	280.72
769.88	313.49
770.276	346.25
770.673	264.33
771.069	287.74
771.466	315.83
771.862	266.67
772.258	334.55
772.654	299.44
773.05	269.02
773.447	329.87
773.843	374.34
774.239	297.1
774.634	395.4
775.03	301.78
775.426	374.34
775.822	311.14
776.218	292.42
776.613	332.21
777.009	285.4
777.404	325.19
777.8	299.44
778.195	290.08
778.59	252.63
778.986	313.49
779.381	287.74
779.776	306.46
780.171	329.87
780.566	292.42
780.961	285.4
781.356	217.52
781.751	278.38
782.146	290.08
782.54	341.57
782.935	313.49
783.33	313.49
783.724	334.55
784.119	348.59
784.513	360.3
784.908	285.4
785.302	346.25
785.696	283.06
786.09	318.17
786.485	318.17
786.879	224.55
787.273	301.78
787.667	346.25
788.061	273.7
788.454	320.51
788.848	339.23
789.242	290.08
789.636	315.83
790.029	257.31
790.423	308.8
790.816	290.08
791.21	301.78
791.603	315.83
791.997	271.36
792.39	315.83
792.783	311.14
793.176	360.3
793.569	269.02
793.962	259.65
794.355	357.96
794.748	346.25
795.141	322.85
795.534	297.1
795.927	343.91
796.319	266.67
796.712	343.91
797.105	304.12
797.497	315.83
797.89	297.1
798.282	327.53
798.674	311.14
799.067	322.85
799.459	320.51
799.851	320.51
800.243	283.06
800.635	341.57
801.027	299.44
801.419	308.8
801.811	280.72
802.203	266.67
802.594	290.08
802.986	292.42
803.378	301.78
803.769	325.19
804.161	355.62
804.552	339.23
804.944	257.31
805.335	304.12
805.726	306.46
806.118	343.91
806.509	276.04
806.9	252.63
807.291	346.25
807.682	381.36
808.073	306.46
808.464	350.93
808.855	273.7
809.245	339.23
809.636	353.27
810.027	306.46
810.417	327.53
810.808	327.53
811.198	304.12
811.589	269.02
811.979	264.33
812.369	301.78
812.759	325.19
813.15	285.4
813.54	343.91
813.93	308.8
814.32	355.62
814.71	222.2
815.1	322.85
815.489	320.51
815.879	273.7
816.269	315.83
816.658	329.87
817.048	308.8
817.438	271.36
817.827	355.62
818.216	306.46
818.606	290.08
818.995	269.02
819.384	339.23
819.773	390.72
820.163	264.33
820.552	306.46
820.941	264.33
821.33	276.04
821.718	311.14
822.107	308.8
822.496	283.06
822.885	308.8
823.273	369.66
823.662	355.62
824.05	259.65
824.439	280.72
824.827	315.83
825.216	369.66
825.604	315.83
825.992	292.42
826.38	334.55
826.768	292.42
827.156	304.12
827.544	376.68
827.932	308.8
828.32	367.32
828.708	346.25
829.096	271.36
829.483	327.53
829.871	283.06
830.259	318.17
830.646	297.1
831.034	292.42
831.421	325.19
831.808	327.53
832.196	306.46
832.583	283.06
832.97	318.17
833.357	301.78
833.744	343.91
834.131	301.78
834.518	290.08
834.905	269.02
835.292	346.25
835.678	283.06
836.065	290.08
836.452	297.1
836.838	301.78
837.225	334.55
837.611	304.12
837.998	315.83
838.384	334.55
838.77	313.49
839.157	329.87
839.543	266.67
839.929	292.42
840.315	329.87
840.701	318.17
841.087	308.8
841.473	304.12
841.858	318.17
842.244	318.17
842.63	315.83
843.015	278.38
843.401	425.83
843.787	381.36
844.172	315.83
844.557	301.78
844.943	283.06
845.328	341.57
845.713	245.61
846.098	343.91
846.483	271.36
846.868	285.4
847.253	229.23
847.638	271.36
848.023	306.46
848.408	311.14
848.793	313.49
849.177	346.25
849.562	287.74
849.947	348.59
850.331	304.12
850.715	322.85
851.1	259.65
851.484	320.51
851.868	327.53
852.253	313.49
852.637	285.4
853.021	301.78
853.405	308.8
853.789	353.27
854.173	304.12
854.557	327.53
854.94	290.08
855.324	301.78
855.708	315.83
856.091	257.31
856.475	306.46
856.858	348.59
857.242	299.44
857.625	329.87
858.009	318.17
858.392	311.14
858.775	261.99
859.158	353.27
859.541	280.72
859.924	264.33
860.307	280.72
860.69	334.55
861.073	292.42
861.456	362.64
861.838	261.99
862.221	297.1
862.604	311.14
862.986	313.49
863.369	245.61
863.751	320.51
864.133	283.06
864.516	271.36
864.898	355.62
865.28	299.44
865.662	308.8
866.044	327.53
866.426	231.57
866.808	278.38
867.19	334.55
867.572	301.78
867.954	334.55
868.336	334.55
868.717	236.25
869.099	320.51
869.48	332.21
869.862	301.78
870.243	264.33
870.625	290.08
871.006	308.8
871.387	299.44
871.768	327.53
872.149	313.49
872.53	348.59
872.911	315.83
873.292	362.64
873.673	297.1
874.054	285.4
874.435	350.93
874.815	311.14
875.196	311.14
875.577	254.97
875.957	355.62
876.338	276.04
876.718	332.21
877.098	304.12
877.479	290.08
877.859	343.91
878.239	313.49
878.619	304.12
878.999	290.08
879.379	362.64
879.759	315.83
880.139	304.12
880.519	280.72
880.898	287.74
881.278	311.14
881.658	306.46
882.037	280.72
882.417	381.36
882.796	269.02
883.176	280.72
883.555	254.97
883.934	301.78
884.313	362.64
884.693	311.14
885.072	292.42
885.451	393.06
885.83	271.36
886.209	212.84
886.587	304.12
886.966	346.25
887.345	329.87
887.724	297.1
888.102	315.83
888.481	355.62
888.859	348.59
889.238	304.12
889.616	348.59
889.994	283.06
890.373	273.7
890.751	327.53
891.129	313.49
891.507	304.12
891.885	355.62
892.263	299.44
892.641	292.42
893.019	294.76
893.396	294.76
893.774	301.78
894.152	278.38
894.529	280.72
894.907	336.89
895.284	257.31
895.662	318.17
896.039	259.65
896.416	301.78
896.794	306.46
897.171	308.8
897.548	409.45
897.925	325.19
898.302	294.76
898.679	273.7
899.056	297.1
899.433	292.42
899.809	264.33
900.186	379.02
900.563	271.36
900.939	264.33
901.316	299.44
901.692	252.63
902.069	360.3
902.445	278.38
902.821	318.17
903.197	297.1
903.574	325.19
903.95	332.21
904.326	329.87
904.702	283.06
905.078	367.32
905.454	329.87
905.829	318.17
906.205	369.66
906.581	355.62
906.956	299.44
907.332	304.12
907.707	301.78
908.083	332.21
908.458	222.2
908.833	306.46
909.209	304.12
909.584	336.89
909.959	266.67
910.334	311.14
910.709	311.14
911.084	322.85
911.459	306.46
911.834	210.5
912.209	280.72
912.583	355.62
912.958	318.17
913.333	283.06
913.707	219.86
914.082	278.38
914.456	348.59
914.83	278.38
915.205	276.04
915.579	332.21
915.953	334.55
916.327	299.44
916.701	306.46
917.075	364.98
917.449	294.76
917.823	311.14
918.197	325.19
918.571	273.7
918.944	353.27
919.318	304.12
919.692	233.91
920.065	283.06
920.438	271.36
920.812	273.7
921.185	318.17
921.558	259.65
921.932	336.89
922.305	264.33
922.678	304.12
923.051	306.46
923.424	306.46
923.797	348.59
924.17	322.85
924.542	271.36
924.915	278.38
925.288	367.32
925.661	299.44
926.033	271.36
926.406	367.32
926.778	292.42
927.15	261.99
927.523	334.55
927.895	259.65
928.267	280.72
928.639	233.91
929.011	287.74
929.383	334.55
929.755	301.78
930.127	269.02
930.499	297.1
930.871	240.93
931.242	329.87
931.614	299.44
931.986	264.33
932.357	325.19
932.729	311.14
933.1	364.98
933.471	301.78
933.843	304.12
934.214	320.51
934.585	266.67
934.956	306.46
935.327	322.85
935.698	243.27
936.069	327.53
936.44	322.85
936.811	311.14
937.182	257.31
937.552	367.32
937.923	315.83
938.293	341.57
938.664	285.4
939.034	318.17
939.405	364.98
939.775	283.06
940.145	299.44
940.516	318.17
940.886	259.65
941.256	306.46
941.626	346.25
941.996	311.14
942.366	306.46
942.735	339.23
943.105	353.27
943.475	339.23
943.845	318.17
944.214	329.87
944.584	360.3
944.953	306.46
945.323	318.17
945.692	264.33
946.061	336.89
946.43	332.21
946.8	283.06
947.169	292.42
947.538	318.17
947.907	245.61
948.276	294.76
948.645	304.12
949.013	355.62
949.382	273.7
949.751	341.57
950.119	308.8
950.488	369.66
950.857	278.38
951.225	336.89
951.593	290.08
951.962	250.29
952.33	299.44
952.698	320.51
953.066	273.7
953.434	334.55
953.802	301.78
954.17	339.23
954.538	299.44
954.906	341.57
955.274	315.83
955.642	280.72
956.009	322.85
956.377	320.51
956.744	299.44
957.112	315.83
957.479	283.06
957.847	341.57
958.214	304.12
958.581	301.78
958.948	278.38
959.315	313.49
959.683	290.08
960.05	313.49
960.416	313.49
960.783	287.74
961.15	233.91
961.517	264.33
961.884	294.76
962.25	294.76
962.617	283.06
962.983	329.87
963.35	346.25
963.716	285.4
964.082	285.4
964.449	261.99
964.815	388.38
965.181	334.55
965.547	294.76
965.913	336.89
966.279	315.83
966.645	304.12
967.011	306.46
967.377	350.93
967.742	315.83
968.108	334.55
968.474	388.38
968.839	283.06
969.205	271.36
969.57	264.33
969.935	287.74
970.301	271.36
970.666	322.85
971.031	292.42
971.396	233.91
971.761	254.97
972.126	339.23
972.491	341.57
972.856	341.57
973.221	315.83
973.586	308.8
973.95	299.44
974.315	322.85
974.679	285.4
975.044	264.33
975.408	334.55
975.773	334.55
976.137	266.67
976.501	285.4
976.866	327.53
977.23	292.42
977.594	283.06
977.958	374.34
978.322	238.59
978.686	292.42
979.049	318.17
979.413	304.12
979.777	329.87
980.141	360.3
980.504	290.08
980.868	320.51
981.231	383.7
981.595	336.89
981.958	299.44
982.321	306.46
982.684	299.44
983.048	278.38
983.411	343.91
983.774	334.55
984.137	254.97
984.5	325.19
984.862	311.14
985.225	348.59
985.588	254.97
985.951	322.85
986.313	254.97
986.676	276.04
987.038	247.95
987.401	304.12
987.763	285.4
988.125	318.17
988.488	280.72
988.85	304.12
989.212	290.08
989.574	304.12
989.936	287.74
990.298	264.33
990.66	294.76
991.022	320.51
991.383	332.21
991.745	264.33
992.107	280.72
992.468	341.57
992.83	364.98
993.191	294.76
993.553	280.72
993.914	264.33
994.275	266.67
994.637	320.51
994.998	332.21
995.359	273.7
995.72	313.49
996.081	327.53
996.442	280.72
996.803	313.49
997.163	229.23
997.524	290.08
997.885	259.65
998.245	353.27
998.606	266.67
998.966	308.8
999.327	273.7
999.687	311.14
1000.047	315.83
1000.408	294.76
1000.768	287.74
1001.128	271.36
1001.488	336.89
1001.848	353.27
1002.208	341.57
1002.568	315.83
1002.927	320.51
1003.287	320.51
1003.647	320.51
1004.007	346.25
1004.366	259.65
1004.726	276.04
1005.085	290.08
1005.444	341.57
1005.804	362.64
1006.163	362.64
1006.522	364.98
1006.881	292.42
1007.24	318.17
1007.599	283.06
1007.958	283.06
1008.317	357.96
1008.676	299.44
1009.035	292.42
1009.393	299.44
1009.752	332.21
1010.111	318.17
1010.469	301.78
1010.828	374.34
1011.186	273.7
1011.544	290.08
1011.903	278.38
1012.261	280.72
1012.619	236.25
1012.977	304.12
1013.335	297.1
1013.693	325.19
1014.051	339.23
1014.409	336.89
1014.767	318.17
1015.124	301.78
1015.482	325.19
1015.84	276.04
1016.197	325.19
1016.555	325.19
1016.912	276.04
1017.269	259.65
1017.627	280.72
1017.984	325.19
1018.341	306.46
1018.698	299.44
1019.055	334.55
1019.412	306.46
1019.769	301.78
1020.126	250.29
1020.483	259.65
1020.84	315.83
1021.196	301.78
1021.553	364.98
1021.909	339.23
1022.266	311.14
1022.622	320.51
1022.979	322.85
1023.335	320.51
1023.691	308.8
1024.047	318.17
1024.404	285.4
1024.76	285.4
1025.116	304.12
1025.472	339.23
1025.827	297.1
1026.183	313.49
1026.539	350.93
1026.895	322.85
1027.25	350.93
1027.606	269.02
1027.961	294.76
1028.317	313.49
1028.672	383.7
1029.028	280.72
1029.383	292.42
1029.738	299.44
1030.093	257.31
1030.448	287.74
1030.803	311.14
1031.158	322.85
1031.513	287.74
1031.868	215.18
1032.223	329.87
1032.577	261.99
1032.932	271.36
1033.287	283.06
1033.641	287.74
1033.996	276.04
1034.35	292.42
1034.704	269.02
1035.059	332.21
1035.413	306.46
1035.767	306.46
1036.121	306.46
