Data from Al_FLMS009871__468__14-34-53-833.txt Node

Date: Fri Mar 08 14:34:53 CST 2024
User: pe5414po
Spectrometer: FLMS00987
Trigger mode: 0
Integration Time (sec): 1.000000E-1
Scans to average: 1
Electric dark correction enabled: true
Nonlinearity correction enabled: false
Boxcar width: 0
XAxis mode: Wavelengths
Number of Pixels in Spectrum: 2048
>>>>>Begin Spectral Data<<<<<
188.938	-107.66
189.409	-107.66
189.879	-107.66
190.349	-114.69
190.819	-119.37
191.29	-58.51
191.76	-126.39
192.23	-138.09
192.7	-60.85
193.17	-86.6
193.64	-42.13
194.109	-25.75
194.579	25.75
195.049	16.38
195.519	0
195.988	44.47
196.458	63.19
196.927	60.85
197.397	51.49
197.866	149.79
198.336	126.39
198.805	196.61
199.274	198.95
199.744	161.5
200.213	234.05
200.682	236.39
201.151	182.56
201.62	217.67
202.089	198.95
202.558	205.97
203.027	180.22
203.495	283.2
203.964	269.16
204.433	250.44
204.902	308.95
205.37	292.57
205.839	330.02
206.307	318.31
206.776	355.76
207.244	294.91
207.712	339.38
208.181	353.42
208.649	290.23
209.117	351.08
209.585	320.65
210.053	278.52
210.521	308.95
210.989	290.23
211.457	250.44
211.925	301.93
212.393	280.86
212.861	285.55
213.328	327.68
213.796	280.86
214.264	315.97
214.731	313.63
215.199	283.2
215.666	266.82
216.133	201.29
216.601	243.42
217.068	255.12
217.535	269.16
218.003	273.84
218.47	306.61
218.937	182.56
219.404	269.16
219.871	285.55
220.338	278.52
220.805	322.99
221.271	273.84
221.738	205.97
222.205	236.39
222.671	290.23
223.138	283.2
223.605	264.48
224.071	280.86
224.538	245.76
225.004	304.27
225.47	264.48
225.937	273.84
226.403	234.05
226.869	292.57
227.335	306.61
227.801	236.39
228.267	292.57
228.733	304.27
229.199	236.39
229.665	266.82
230.131	245.76
230.597	301.93
231.062	245.76
231.528	306.61
231.994	259.8
232.459	315.97
232.925	283.2
233.39	227.03
233.856	215.33
234.321	234.05
234.786	262.14
235.252	269.16
235.717	255.12
236.182	346.4
236.647	257.46
237.112	290.23
237.577	304.27
238.042	236.39
238.507	262.14
238.972	348.74
239.436	243.42
239.901	334.7
240.366	212.99
240.83	252.78
241.295	287.89
241.76	238.73
242.224	304.27
242.688	294.91
243.153	266.82
243.617	332.36
244.081	297.25
244.545	301.93
245.01	245.76
245.474	222.35
245.938	358.1
246.402	280.86
246.866	236.39
247.33	245.76
247.793	294.91
248.257	315.97
248.721	243.42
249.185	278.52
249.648	330.02
250.112	306.61
250.575	248.1
251.039	308.95
251.502	280.86
251.965	358.1
252.429	322.99
252.892	245.76
253.355	327.68
253.818	271.5
254.281	292.57
254.744	259.8
255.207	278.52
255.67	299.59
256.133	280.86
256.596	283.2
257.059	332.36
257.522	252.78
257.984	285.55
258.447	248.1
258.909	264.48
259.372	283.2
259.834	285.55
260.297	259.8
260.759	273.84
261.221	273.84
261.684	212.99
262.146	259.8
262.608	276.18
263.07	264.48
263.532	273.84
263.994	276.18
264.456	337.04
264.918	315.97
265.38	241.08
265.842	311.29
266.303	334.7
266.765	285.55
267.227	351.08
267.688	355.76
268.15	278.52
268.611	243.42
269.072	292.57
269.534	269.16
269.995	337.04
270.456	332.36
270.918	355.76
271.379	297.25
271.84	262.14
272.301	266.82
272.762	362.78
273.223	285.55
273.684	276.18
274.144	271.5
274.605	273.84
275.066	248.1
275.527	358.1
275.987	245.76
276.448	308.95
276.908	273.84
277.369	259.8
277.829	250.44
278.289	311.29
278.75	285.55
279.21	320.65
279.67	374.49
280.13	308.95
280.59	306.61
281.05	269.16
281.51	297.25
281.97	322.99
282.43	322.99
282.89	327.68
283.35	248.1
283.809	262.14
284.269	334.7
284.729	315.97
285.188	318.31
285.648	301.93
286.107	308.95
286.567	322.99
287.026	346.4
287.485	294.91
287.944	269.16
288.404	308.95
288.863	255.12
289.322	285.55
289.781	273.84
290.24	351.08
290.699	294.91
291.158	297.25
291.616	315.97
292.075	273.84
292.534	358.1
292.992	297.25
293.451	355.76
293.91	266.82
294.368	325.33
294.827	311.29
295.285	224.69
295.743	304.27
296.202	269.16
296.66	257.46
297.118	292.57
297.576	304.27
298.034	264.48
298.492	262.14
298.95	315.97
299.408	264.48
299.866	245.76
300.324	306.61
300.781	271.5
301.239	351.08
301.697	320.65
302.154	259.8
302.612	285.55
303.069	271.5
303.527	292.57
303.984	334.7
304.441	271.5
304.899	348.74
305.356	360.44
305.813	292.57
306.27	276.18
306.727	294.91
307.184	287.89
307.641	292.57
308.098	315.97
308.555	348.74
309.012	236.39
309.468	308.95
309.925	330.02
310.382	290.23
310.838	283.2
311.295	362.78
311.751	322.99
312.208	325.33
312.664	318.31
313.12	348.74
313.577	304.27
314.033	301.93
314.489	290.23
314.945	271.5
315.401	320.65
315.857	376.83
316.313	297.25
316.769	280.86
317.225	322.99
317.681	306.61
318.136	358.1
318.592	313.63
319.048	308.95
319.503	297.25
319.959	346.4
320.414	376.83
320.869	264.48
321.325	304.27
321.78	266.82
322.235	304.27
322.691	278.52
323.146	278.52
323.601	292.57
324.056	292.57
324.511	320.65
324.966	285.55
325.421	215.33
325.875	311.29
326.33	306.61
326.785	339.38
327.24	325.33
327.694	308.95
328.149	311.29
328.603	355.76
329.058	278.52
329.512	304.27
329.966	294.91
330.421	386.19
330.875	294.91
331.329	313.63
331.783	287.89
332.237	325.33
332.691	273.84
333.145	311.29
333.599	287.89
334.053	294.91
334.507	322.99
334.96	315.97
335.414	301.93
335.868	271.5
336.321	320.65
336.775	301.93
337.228	332.36
337.682	334.7
338.135	327.68
338.588	325.33
339.042	306.61
339.495	325.33
339.948	332.36
340.401	285.55
340.854	318.31
341.307	318.31
341.76	276.18
342.213	376.83
342.666	381.51
343.119	294.91
343.571	327.68
344.024	315.97
344.477	325.33
344.929	262.14
345.382	297.25
345.834	341.72
346.287	304.27
346.739	337.04
347.191	332.36
347.644	351.08
348.096	255.12
348.548	404.91
349	327.68
349.452	287.89
349.904	301.93
350.356	311.29
350.808	344.06
351.26	257.46
351.711	290.23
352.163	376.83
352.615	306.61
353.066	271.5
353.518	301.93
353.969	327.68
354.421	348.74
354.872	290.23
355.324	262.14
355.775	320.65
356.226	304.27
356.677	372.15
357.128	355.76
357.579	365.12
358.03	311.29
358.481	241.08
358.932	285.55
359.383	322.99
359.834	318.31
360.285	339.38
360.735	337.04
361.186	325.33
361.637	273.84
362.087	351.08
362.538	320.65
362.988	308.95
363.438	318.31
363.889	297.25
364.339	320.65
364.789	320.65
365.239	337.04
365.689	355.76
366.139	322.99
366.589	287.89
367.039	320.65
367.489	304.27
367.939	238.73
368.389	353.42
368.839	360.44
369.288	315.97
369.738	297.25
370.187	344.06
370.637	341.72
371.086	325.33
371.536	318.31
371.985	304.27
372.434	313.63
372.884	311.29
373.333	313.63
373.782	248.1
374.231	292.57
374.68	292.57
375.129	325.33
375.578	330.02
376.027	353.42
376.475	315.97
376.924	311.29
377.373	327.68
377.822	339.38
378.27	322.99
378.719	346.4
379.167	283.2
379.616	290.23
380.064	264.48
380.512	255.12
380.961	280.86
381.409	390.87
381.857	271.5
382.305	348.74
382.753	292.57
383.201	337.04
383.649	337.04
384.097	355.76
384.545	344.06
384.992	330.02
385.44	308.95
385.888	322.99
386.335	290.23
386.783	337.04
387.231	325.33
387.678	341.72
388.125	325.33
388.573	337.04
389.02	299.59
389.467	341.72
389.914	339.38
390.362	355.76
390.809	308.95
391.256	360.44
391.703	320.65
392.15	367.46
392.596	304.27
393.043	355.76
393.49	386.19
393.937	358.1
394.383	344.06
394.83	311.29
395.276	365.12
395.723	330.02
396.169	283.2
396.616	290.23
397.062	292.57
397.508	238.73
397.954	297.25
398.401	297.25
398.847	304.27
399.293	311.29
399.739	283.2
400.185	374.49
400.631	351.08
401.076	353.42
401.522	320.65
401.968	292.57
402.414	290.23
402.859	386.19
403.305	299.59
403.75	344.06
404.196	297.25
404.641	346.4
405.086	273.84
405.532	313.63
405.977	327.68
406.422	337.04
406.867	346.4
407.312	334.7
407.757	325.33
408.202	322.99
408.647	299.59
409.092	322.99
409.537	360.44
409.982	313.63
410.426	278.52
410.871	285.55
411.316	311.29
411.76	306.61
412.205	315.97
412.649	290.23
413.093	320.65
413.538	306.61
413.982	341.72
414.426	365.12
414.87	285.55
415.314	330.02
415.758	318.31
416.202	301.93
416.646	294.91
417.09	315.97
417.534	315.97
417.978	341.72
418.421	297.25
418.865	311.29
419.309	327.68
419.752	248.1
420.196	273.84
420.639	280.86
421.083	325.33
421.526	355.76
421.969	348.74
422.412	339.38
422.856	332.36
423.299	383.85
423.742	351.08
424.185	348.74
424.628	245.76
425.071	334.7
425.513	271.5
425.956	325.33
426.399	315.97
426.842	315.97
427.284	332.36
427.727	318.31
428.169	308.95
428.612	294.91
429.054	322.99
429.497	348.74
429.939	308.95
430.381	346.4
430.823	330.02
431.265	367.46
431.707	311.29
432.149	322.99
432.591	304.27
433.033	301.93
433.475	344.06
433.917	231.71
434.359	376.83
434.8	358.1
435.242	330.02
435.684	304.27
436.125	318.31
436.567	306.61
437.008	339.38
437.449	334.7
437.891	325.33
438.332	327.68
438.773	304.27
439.214	283.2
439.656	341.72
440.097	341.72
440.538	318.31
440.978	348.74
441.419	376.83
441.86	353.42
442.301	306.61
442.742	318.31
443.182	376.83
443.623	348.74
444.063	290.23
444.504	276.18
444.944	294.91
445.385	250.44
445.825	348.74
446.265	322.99
446.706	287.89
447.146	353.42
447.586	318.31
448.026	264.48
448.466	348.74
448.906	285.55
449.346	294.91
449.786	337.04
450.225	358.1
450.665	315.97
451.105	334.7
451.544	344.06
451.984	341.72
452.424	348.74
452.863	341.72
453.302	341.72
453.742	355.76
454.181	334.7
454.62	325.33
455.059	381.51
455.499	278.52
455.938	243.42
456.377	318.31
456.816	379.17
457.254	360.44
457.693	351.08
458.132	294.91
458.571	248.1
459.01	315.97
459.448	311.29
459.887	353.42
460.325	292.57
460.764	381.51
461.202	304.27
461.641	330.02
462.079	313.63
462.517	358.1
462.955	290.23
463.393	404.91
463.832	311.29
464.27	311.29
464.708	344.06
465.145	299.59
465.583	372.15
466.021	344.06
466.459	376.83
466.897	266.82
467.334	322.99
467.772	346.4
468.209	346.4
468.647	311.29
469.084	315.97
469.522	292.57
469.959	369.8
470.396	285.55
470.833	414.27
471.271	308.95
471.708	376.83
472.145	306.61
472.582	395.55
473.019	287.89
473.456	290.23
473.892	292.57
474.329	294.91
474.766	301.93
475.202	313.63
475.639	318.31
476.076	292.57
476.512	301.93
476.949	264.48
477.385	348.74
477.821	360.44
478.258	297.25
478.694	362.78
479.13	283.2
479.566	269.16
480.002	339.38
480.438	346.4
480.874	304.27
481.31	372.15
481.746	369.8
482.181	348.74
482.617	332.36
483.053	250.44
483.488	337.04
483.924	330.02
484.36	301.93
484.795	306.61
485.23	369.8
485.666	252.78
486.101	297.25
486.536	311.29
486.971	337.04
487.407	344.06
487.842	313.63
488.277	369.8
488.712	334.7
489.146	355.76
489.581	276.18
490.016	283.2
490.451	386.19
490.885	379.17
491.32	351.08
491.755	278.52
492.189	330.02
492.624	311.29
493.058	358.1
493.492	325.33
493.927	313.63
494.361	353.42
494.795	344.06
495.229	330.02
495.663	327.68
496.097	362.78
496.531	346.4
496.965	346.4
497.399	278.52
497.833	360.44
498.266	346.4
498.7	379.17
499.134	308.95
499.567	332.36
500.001	367.46
500.434	271.5
500.868	372.15
501.301	407.25
501.734	278.52
502.168	278.52
502.601	285.55
503.034	369.8
503.467	278.52
503.9	341.72
504.333	346.4
504.766	325.33
505.199	400.23
505.632	299.59
506.064	255.12
506.497	299.59
506.93	280.86
507.362	285.55
507.795	271.5
508.227	339.38
508.66	351.08
509.092	369.8
509.524	306.61
509.956	290.23
510.389	311.29
510.821	344.06
511.253	287.89
511.685	327.68
512.117	365.12
512.549	330.02
512.981	383.85
513.412	252.78
513.844	285.55
514.276	290.23
514.707	283.2
515.139	337.04
515.571	313.63
516.002	372.15
516.433	355.76
516.865	315.97
517.296	318.31
517.727	311.29
518.159	318.31
518.59	379.17
519.021	294.91
519.452	304.27
519.883	278.52
520.314	355.76
520.744	334.7
521.175	348.74
521.606	362.78
522.037	313.63
522.467	327.68
522.898	290.23
523.328	278.52
523.759	318.31
524.189	283.2
524.62	294.91
525.05	313.63
525.48	397.89
525.91	280.86
526.341	301.93
526.771	334.7
527.201	311.29
527.631	315.97
528.061	322.99
528.49	362.78
528.92	360.44
529.35	311.29
529.78	332.36
530.209	348.74
530.639	266.82
531.068	325.33
531.498	311.29
531.927	311.29
532.357	334.7
532.786	348.74
533.215	308.95
533.644	339.38
534.074	330.02
534.503	341.72
534.932	325.33
535.361	313.63
535.79	297.25
536.218	301.93
536.647	320.65
537.076	294.91
537.505	330.02
537.933	379.17
538.362	339.38
538.79	306.61
539.219	311.29
539.647	325.33
540.076	306.61
540.504	292.57
540.932	337.04
541.36	315.97
541.788	271.5
542.217	393.21
542.645	320.65
543.073	304.27
543.5	215.33
543.928	276.18
544.356	294.91
544.784	250.44
545.211	301.93
545.639	360.44
546.067	306.61
546.494	320.65
546.922	252.78
547.349	334.7
547.776	334.7
548.204	407.25
548.631	287.89
549.058	332.36
549.485	383.85
549.912	262.14
550.339	372.15
550.766	262.14
551.193	264.48
551.62	374.49
552.047	360.44
552.474	369.8
552.9	308.95
553.327	409.59
553.754	308.95
554.18	344.06
554.607	297.25
555.033	327.68
555.459	327.68
555.886	318.31
556.312	351.08
556.738	327.68
557.164	360.44
557.59	304.27
558.016	318.31
558.442	376.83
558.868	341.72
559.294	287.89
559.72	330.02
560.145	280.86
560.571	330.02
560.997	297.25
561.422	276.18
561.848	325.33
562.273	327.68
562.699	264.48
563.124	294.91
563.549	325.33
563.974	346.4
564.4	327.68
564.825	334.7
565.25	306.61
565.675	304.27
566.1	280.86
566.525	304.27
566.95	290.23
567.374	327.68
567.799	287.89
568.224	308.95
568.648	250.44
569.073	337.04
569.497	322.99
569.922	285.55
570.346	351.08
570.771	294.91
571.195	322.99
571.619	353.42
572.043	297.25
572.467	292.57
572.891	325.33
573.315	301.93
573.739	341.72
574.163	318.31
574.587	287.89
575.011	313.63
575.435	325.33
575.858	320.65
576.282	332.36
576.705	280.86
577.129	320.65
577.552	290.23
577.976	241.08
578.399	306.61
578.822	294.91
579.245	301.93
579.669	304.27
580.092	327.68
580.515	402.57
580.938	330.02
581.361	292.57
581.784	297.25
582.206	318.31
582.629	341.72
583.052	353.42
583.474	372.15
583.897	322.99
584.32	318.31
584.742	297.25
585.165	313.63
585.587	290.23
586.009	315.97
586.431	327.68
586.854	351.08
587.276	334.7
587.698	407.25
588.12	322.99
588.542	341.72
588.964	320.65
589.386	313.63
589.807	292.57
590.229	278.52
590.651	273.84
591.073	297.25
591.494	358.1
591.916	306.61
592.337	327.68
592.759	362.78
593.18	308.95
593.601	259.8
594.022	318.31
594.444	252.78
594.865	299.59
595.286	355.76
595.707	322.99
596.128	313.63
596.549	327.68
596.97	332.36
597.39	365.12
597.811	386.19
598.232	306.61
598.652	346.4
599.073	315.97
599.494	322.99
599.914	315.97
600.334	276.18
600.755	351.08
601.175	369.8
601.595	250.44
602.015	266.82
602.436	306.61
602.856	409.59
603.276	325.33
603.696	308.95
604.115	278.52
604.535	365.12
604.955	304.27
605.375	304.27
605.794	327.68
606.214	355.76
606.634	341.72
607.053	330.02
607.473	348.74
607.892	252.78
608.311	351.08
608.731	433
609.15	334.7
609.569	311.29
609.988	262.14
610.407	358.1
610.826	301.93
611.245	252.78
611.664	255.12
612.083	374.49
612.501	301.93
612.92	306.61
613.339	290.23
613.757	334.7
614.176	341.72
614.594	245.76
615.013	290.23
615.431	294.91
615.85	327.68
616.268	283.2
616.686	301.93
617.104	341.72
617.522	325.33
617.94	280.86
618.358	259.8
618.776	315.97
619.194	311.29
619.612	266.82
620.03	327.68
620.447	346.4
620.865	271.5
621.282	311.29
621.7	311.29
622.117	332.36
622.535	327.68
622.952	332.36
623.369	283.2
623.787	339.38
624.204	315.97
624.621	355.76
625.038	320.65
625.455	311.29
625.872	344.06
626.289	332.36
626.706	360.44
627.123	386.19
627.539	311.29
627.956	337.04
628.373	301.93
628.789	330.02
629.206	269.16
629.622	386.19
630.038	332.36
630.455	236.39
630.871	348.74
631.287	313.63
631.703	292.57
632.12	297.25
632.536	315.97
632.952	339.38
633.368	311.29
633.783	283.2
634.199	271.5
634.615	266.82
635.031	278.52
635.446	259.8
635.862	269.16
636.277	388.53
636.693	325.33
637.108	341.72
637.524	365.12
637.939	290.23
638.354	315.97
638.77	280.86
639.185	259.8
639.6	313.63
640.015	337.04
640.43	365.12
640.845	337.04
641.259	341.72
641.674	311.29
642.089	299.59
642.504	322.99
642.918	341.72
643.333	330.02
643.747	297.25
644.162	332.36
644.576	315.97
644.991	320.65
645.405	301.93
645.819	393.21
646.233	376.83
646.647	360.44
647.061	334.7
647.475	320.65
647.889	308.95
648.303	334.7
648.717	320.65
649.131	290.23
649.545	269.16
649.958	360.44
650.372	322.99
650.785	301.93
651.199	308.95
651.612	327.68
652.026	334.7
652.439	301.93
652.852	348.74
653.266	355.76
653.679	313.63
654.092	313.63
654.505	381.51
654.918	344.06
655.331	308.95
655.744	306.61
656.156	325.33
656.569	280.86
656.982	313.63
657.394	318.31
657.807	299.59
658.22	355.76
658.632	271.5
659.044	306.61
659.457	276.18
659.869	285.55
660.281	304.27
660.693	313.63
661.106	369.8
661.518	330.02
661.93	339.38
662.342	278.52
662.754	278.52
663.165	269.16
663.577	259.8
663.989	311.29
664.401	388.53
664.812	365.12
665.224	308.95
665.635	308.95
666.047	292.57
666.458	297.25
666.869	365.12
667.281	266.82
667.692	365.12
668.103	362.78
668.514	332.36
668.925	285.55
669.336	320.65
669.747	280.86
670.158	308.95
670.569	390.87
670.979	259.8
671.39	273.84
671.801	285.55
672.211	285.55
672.622	299.59
673.032	369.8
673.443	301.93
673.853	325.33
674.263	348.74
674.674	416.62
675.084	367.46
675.494	306.61
675.904	318.31
676.314	278.52
676.724	334.7
677.134	259.8
677.544	262.14
677.953	285.55
678.363	313.63
678.773	388.53
679.182	304.27
679.592	304.27
680.001	344.06
680.411	339.38
680.82	320.65
681.23	236.39
681.639	330.02
682.048	383.85
682.457	325.33
682.866	353.42
683.275	306.61
683.684	306.61
684.093	285.55
684.502	322.99
684.911	351.08
685.32	294.91
685.728	299.59
686.137	306.61
686.546	297.25
686.954	320.65
687.363	292.57
687.771	322.99
688.179	346.4
688.588	308.95
688.996	311.29
689.404	259.8
689.812	315.97
690.22	332.36
690.628	327.68
691.036	292.57
691.444	332.36
691.852	294.91
692.26	287.89
692.667	299.59
693.075	283.2
693.483	339.38
693.89	339.38
694.298	290.23
694.705	351.08
695.112	348.74
695.52	311.29
695.927	311.29
696.334	313.63
696.741	339.38
697.148	311.29
697.555	311.29
697.962	362.78
698.369	297.25
698.776	306.61
699.183	259.8
699.59	353.42
699.996	304.27
700.403	280.86
700.81	248.1
701.216	304.27
701.623	294.91
702.029	222.35
702.435	294.91
702.842	255.12
703.248	320.65
703.654	344.06
704.06	327.68
704.466	367.46
704.872	287.89
705.278	325.33
705.684	290.23
706.09	299.59
706.496	334.7
706.901	276.18
707.307	313.63
707.712	341.72
708.118	327.68
708.523	337.04
708.929	339.38
709.334	381.51
709.74	339.38
710.145	337.04
710.55	369.8
710.955	311.29
711.36	243.42
711.765	315.97
712.17	294.91
712.575	236.39
712.98	919.83
713.385	365.12
713.789	365.12
714.194	372.15
714.599	358.1
715.003	334.7
715.408	308.95
715.812	257.46
716.217	304.27
716.621	348.74
717.025	285.55
717.429	276.18
717.833	315.97
718.238	334.7
718.642	348.74
719.046	283.2
719.449	320.65
719.853	290.23
720.257	290.23
720.661	348.74
721.065	222.35
721.468	283.2
721.872	248.1
722.275	210.65
722.679	395.55
723.082	276.18
723.485	301.93
723.889	287.89
724.292	278.52
724.695	306.61
725.098	320.65
725.501	367.46
725.904	355.76
726.307	355.76
726.71	341.72
727.113	358.1
727.516	344.06
727.918	276.18
728.321	266.82
728.724	273.84
729.126	311.29
729.529	327.68
729.931	353.42
730.333	348.74
730.736	269.16
731.138	330.02
731.54	337.04
731.942	290.23
732.344	344.06
732.746	322.99
733.148	330.02
733.55	341.72
733.952	332.36
734.354	322.99
734.756	315.97
735.157	255.12
735.559	353.42
735.96	320.65
736.362	306.61
736.763	346.4
737.165	297.25
737.566	341.72
737.967	334.7
738.368	276.18
738.77	294.91
739.171	299.59
739.572	297.25
739.973	397.89
740.374	311.29
740.774	297.25
741.175	322.99
741.576	416.62
741.977	330.02
742.377	330.02
742.778	308.95
743.178	250.44
743.579	330.02
743.979	334.7
744.379	264.48
744.78	276.18
745.18	341.72
745.58	325.33
745.98	285.55
746.38	264.48
746.78	241.08
747.18	330.02
747.58	327.68
747.98	278.52
748.38	339.38
748.779	290.23
749.179	348.74
749.578	318.31
749.978	355.76
750.377	381.51
750.777	276.18
751.176	315.97
751.575	313.63
751.975	379.17
752.374	346.4
752.773	297.25
753.172	322.99
753.571	315.97
753.97	348.74
754.369	379.17
754.768	383.85
755.166	344.06
755.565	327.68
755.964	315.97
756.362	339.38
756.761	365.12
757.159	346.4
757.558	280.86
757.956	369.8
758.354	348.74
758.753	374.49
759.151	257.46
759.549	351.08
759.947	372.15
760.345	301.93
760.743	280.86
761.141	306.61
761.539	301.93
761.936	318.31
762.334	306.61
762.732	322.99
763.129	346.4
763.527	353.42
763.924	313.63
764.322	304.27
764.719	334.7
765.117	341.72
765.514	346.4
765.911	222.35
766.308	320.65
766.705	341.72
767.102	283.2
767.499	327.68
767.896	337.04
768.293	334.7
768.69	334.7
769.086	269.16
769.483	351.08
769.88	318.31
770.276	346.4
770.673	346.4
771.069	374.49
771.466	259.8
771.862	318.31
772.258	271.5
772.654	290.23
773.05	294.91
773.447	337.04
773.843	374.49
774.239	322.99
774.634	346.4
775.03	362.78
775.426	454.06
775.822	304.27
776.218	330.02
776.613	322.99
777.009	360.44
777.404	362.78
777.8	259.8
778.195	320.65
778.59	325.33
778.986	372.15
779.381	369.8
779.776	337.04
780.171	325.33
780.566	327.68
780.961	346.4
781.356	334.7
781.751	388.53
782.146	280.86
782.54	355.76
782.935	327.68
783.33	318.31
783.724	344.06
784.119	318.31
784.513	248.1
784.908	332.36
785.302	365.12
785.696	374.49
786.09	379.17
786.485	320.65
786.879	297.25
787.273	337.04
787.667	337.04
788.061	344.06
788.454	297.25
788.848	271.5
789.242	322.99
789.636	290.23
790.029	308.95
790.423	332.36
790.816	318.31
791.21	297.25
791.603	266.82
791.997	299.59
792.39	325.33
792.783	365.12
793.176	388.53
793.569	386.19
793.962	327.68
794.355	322.99
794.748	383.85
795.141	339.38
795.534	325.33
795.927	322.99
796.319	367.46
796.712	308.95
797.105	315.97
797.497	308.95
797.89	301.93
798.282	259.8
798.674	327.68
799.067	355.76
799.459	346.4
799.851	362.78
800.243	262.14
800.635	271.5
801.027	411.93
801.419	351.08
801.811	285.55
802.203	304.27
802.594	299.59
802.986	327.68
803.378	376.83
803.769	339.38
804.161	330.02
804.552	285.55
804.944	224.69
805.335	306.61
805.726	330.02
806.118	330.02
806.509	358.1
806.9	308.95
807.291	318.31
807.682	358.1
808.073	334.7
808.464	278.52
808.855	411.93
809.245	280.86
809.636	362.78
810.027	313.63
810.417	294.91
810.808	388.53
811.198	322.99
811.589	276.18
811.979	353.42
812.369	301.93
812.759	292.57
813.15	315.97
813.54	292.57
813.93	341.72
814.32	381.51
814.71	301.93
815.1	313.63
815.489	348.74
815.879	292.57
816.269	374.49
816.658	334.7
817.048	362.78
817.438	320.65
817.827	297.25
818.216	308.95
818.606	341.72
818.995	313.63
819.384	320.65
819.773	308.95
820.163	271.5
820.552	283.2
820.941	269.16
821.33	269.16
821.718	280.86
822.107	299.59
822.496	362.78
822.885	337.04
823.273	346.4
823.662	337.04
824.05	304.27
824.439	271.5
824.827	369.8
825.216	322.99
825.604	294.91
825.992	348.74
826.38	355.76
826.768	297.25
827.156	344.06
827.544	320.65
827.932	386.19
828.32	266.82
828.708	341.72
829.096	271.5
829.483	269.16
829.871	306.61
830.259	283.2
830.646	315.97
831.034	262.14
831.421	252.78
831.808	346.4
832.196	372.15
832.583	332.36
832.97	327.68
833.357	294.91
833.744	337.04
834.131	294.91
834.518	259.8
834.905	322.99
835.292	227.03
835.678	294.91
836.065	311.29
836.452	257.46
836.838	348.74
837.225	315.97
837.611	273.84
837.998	283.2
838.384	273.84
838.77	358.1
839.157	243.42
839.543	297.25
839.929	330.02
840.315	297.25
840.701	334.7
841.087	341.72
841.473	355.76
841.858	320.65
842.244	332.36
842.63	322.99
843.015	301.93
843.401	397.89
843.787	259.8
844.172	273.84
844.557	297.25
844.943	297.25
845.328	325.33
845.713	304.27
846.098	353.42
846.483	299.59
846.868	388.53
847.253	374.49
847.638	292.57
848.023	313.63
848.408	318.31
848.793	372.15
849.177	308.95
849.562	297.25
849.947	353.42
850.331	341.72
850.715	318.31
851.1	388.53
851.484	327.68
851.868	290.23
852.253	264.48
852.637	271.5
853.021	273.84
853.405	308.95
853.789	285.55
854.173	330.02
854.557	346.4
854.94	315.97
855.324	327.68
855.708	306.61
856.091	264.48
856.475	346.4
856.858	374.49
857.242	276.18
857.625	341.72
858.009	287.89
858.392	234.05
858.775	266.82
859.158	287.89
859.541	330.02
859.924	304.27
860.307	299.59
860.69	297.25
861.073	318.31
861.456	292.57
861.838	320.65
862.221	313.63
862.604	318.31
862.986	346.4
863.369	386.19
863.751	339.38
864.133	306.61
864.516	276.18
864.898	308.95
865.28	287.89
865.662	315.97
866.044	351.08
866.426	325.33
866.808	313.63
867.19	299.59
867.572	290.23
867.954	301.93
868.336	308.95
868.717	325.33
869.099	285.55
869.48	257.46
869.862	311.29
870.243	341.72
870.625	351.08
871.006	301.93
871.387	330.02
871.768	325.33
872.149	348.74
872.53	315.97
872.911	297.25
873.292	330.02
873.673	290.23
874.054	320.65
874.435	332.36
874.815	308.95
875.196	348.74
875.577	351.08
875.957	344.06
876.338	315.97
876.718	327.68
877.098	344.06
877.479	315.97
877.859	304.27
878.239	248.1
878.619	337.04
878.999	374.49
879.379	365.12
879.759	278.52
880.139	330.02
880.519	327.68
880.898	313.63
881.278	290.23
881.658	355.76
882.037	362.78
882.417	351.08
882.796	325.33
883.176	355.76
883.555	299.59
883.934	290.23
884.313	325.33
884.693	341.72
885.072	341.72
885.451	374.49
885.83	299.59
886.209	285.55
886.587	311.29
886.966	278.52
887.345	322.99
887.724	313.63
888.102	315.97
888.481	376.83
888.859	308.95
889.238	330.02
889.616	320.65
889.994	346.4
890.373	292.57
890.751	304.27
891.129	344.06
891.507	306.61
891.885	313.63
892.263	297.25
892.641	259.8
893.019	369.8
893.396	341.72
893.774	269.16
894.152	313.63
894.529	327.68
894.907	255.12
895.284	269.16
895.662	318.31
896.039	306.61
896.416	327.68
896.794	315.97
897.171	266.82
897.548	276.18
897.925	271.5
898.302	327.68
898.679	337.04
899.056	344.06
899.433	315.97
899.809	276.18
900.186	280.86
900.563	299.59
900.939	280.86
901.316	374.49
901.692	301.93
902.069	374.49
902.445	308.95
902.821	294.91
903.197	257.46
903.574	245.76
903.95	308.95
904.326	341.72
904.702	325.33
905.078	297.25
905.454	311.29
905.829	294.91
906.205	297.25
906.581	322.99
906.956	332.36
907.332	297.25
907.707	315.97
908.083	266.82
908.458	362.78
908.833	297.25
909.209	294.91
909.584	290.23
909.959	301.93
910.334	346.4
910.709	262.14
911.084	297.25
911.459	294.91
911.834	301.93
912.209	294.91
912.583	290.23
912.958	294.91
913.333	269.16
913.707	325.33
914.082	301.93
914.456	280.86
914.83	353.42
915.205	318.31
915.579	318.31
915.953	292.57
916.327	290.23
916.701	308.95
917.075	290.23
917.449	374.49
917.823	306.61
918.197	360.44
918.571	294.91
918.944	393.21
919.318	304.27
919.692	285.55
920.065	330.02
920.438	311.29
920.812	332.36
921.185	269.16
921.558	339.38
921.932	315.97
922.305	287.89
922.678	315.97
923.051	290.23
923.424	395.55
923.797	365.12
924.17	332.36
924.542	299.59
924.915	365.12
925.288	301.93
925.661	280.86
926.033	334.7
926.406	332.36
926.778	313.63
927.15	278.52
927.523	224.69
927.895	299.59
928.267	367.46
928.639	287.89
929.011	299.59
929.383	313.63
929.755	290.23
930.127	330.02
930.499	308.95
930.871	266.82
931.242	306.61
931.614	322.99
931.986	269.16
932.357	276.18
932.729	255.12
933.1	337.04
933.471	315.97
933.843	271.5
934.214	306.61
934.585	362.78
934.956	351.08
935.327	318.31
935.698	201.29
936.069	276.18
936.44	304.27
936.811	297.25
937.182	355.76
937.552	315.97
937.923	278.52
938.293	292.57
938.664	332.36
939.034	285.55
939.405	276.18
939.775	341.72
940.145	292.57
940.516	348.74
940.886	325.33
941.256	287.89
941.626	301.93
941.996	330.02
942.366	250.44
942.735	355.76
943.105	322.99
943.475	325.33
943.845	386.19
944.214	299.59
944.584	332.36
944.953	311.29
945.323	294.91
945.692	320.65
946.061	337.04
946.43	292.57
946.8	311.29
947.169	348.74
947.538	287.89
947.907	271.5
948.276	315.97
948.645	315.97
949.013	301.93
949.382	379.17
949.751	299.59
950.119	266.82
950.488	308.95
950.857	348.74
951.225	325.33
951.593	318.31
951.962	376.83
952.33	351.08
952.698	283.2
953.066	365.12
953.434	313.63
953.802	278.52
954.17	301.93
954.538	306.61
954.906	271.5
955.274	339.38
955.642	313.63
956.009	330.02
956.377	341.72
956.744	252.78
957.112	283.2
957.479	245.76
957.847	287.89
958.214	297.25
958.581	341.72
958.948	339.38
959.315	292.57
959.683	346.4
960.05	327.68
960.416	273.84
960.783	311.29
961.15	283.2
961.517	346.4
961.884	313.63
962.25	330.02
962.617	320.65
962.983	418.96
963.35	355.76
963.716	283.2
964.082	330.02
964.449	334.7
964.815	285.55
965.181	299.59
965.547	372.15
965.913	344.06
966.279	257.46
966.645	315.97
967.011	341.72
967.377	285.55
967.742	322.99
968.108	330.02
968.474	327.68
968.839	339.38
969.205	339.38
969.57	348.74
969.935	269.16
970.301	337.04
970.666	358.1
971.031	348.74
971.396	320.65
971.761	365.12
972.126	313.63
972.491	269.16
972.856	306.61
973.221	301.93
973.586	234.05
973.95	264.48
974.315	304.27
974.679	411.93
975.044	320.65
975.408	280.86
975.773	301.93
976.137	372.15
976.501	407.25
976.866	418.96
977.23	365.12
977.594	330.02
977.958	332.36
978.322	283.2
978.686	290.23
979.049	313.63
979.413	301.93
979.777	320.65
980.141	297.25
980.504	341.72
980.868	306.61
981.231	287.89
981.595	306.61
981.958	313.63
982.321	287.89
982.684	365.12
983.048	318.31
983.411	294.91
983.774	301.93
984.137	257.46
984.5	304.27
984.862	322.99
985.225	259.8
985.588	259.8
985.951	264.48
986.313	320.65
986.676	348.74
987.038	299.59
987.401	290.23
987.763	311.29
988.125	330.02
988.488	306.61
988.85	294.91
989.212	280.86
989.574	339.38
989.936	348.74
990.298	374.49
990.66	409.59
991.022	341.72
991.383	273.84
991.745	339.38
992.107	257.46
992.468	262.14
992.83	315.97
993.191	339.38
993.553	292.57
993.914	334.7
994.275	341.72
994.637	294.91
994.998	330.02
995.359	273.84
995.72	234.05
996.081	339.38
996.442	297.25
996.803	250.44
997.163	283.2
997.524	322.99
997.885	334.7
998.245	252.78
998.606	313.63
998.966	315.97
999.327	320.65
999.687	313.63
1000.047	327.68
1000.408	330.02
1000.768	304.27
1001.128	231.71
1001.488	264.48
1001.848	280.86
1002.208	297.25
1002.568	212.99
1002.927	304.27
1003.287	344.06
1003.647	313.63
1004.007	318.31
1004.366	266.82
1004.726	315.97
1005.085	327.68
1005.444	301.93
1005.804	290.23
1006.163	348.74
1006.522	327.68
1006.881	271.5
1007.24	339.38
1007.599	337.04
1007.958	306.61
1008.317	271.5
1008.676	262.14
1009.035	372.15
1009.393	308.95
1009.752	332.36
1010.111	271.5
1010.469	332.36
1010.828	313.63
1011.186	280.86
1011.544	311.29
1011.903	304.27
1012.261	330.02
1012.619	358.1
1012.977	327.68
1013.335	297.25
1013.693	269.16
1014.051	292.57
1014.409	320.65
1014.767	280.86
1015.124	337.04
1015.482	337.04
1015.84	325.33
1016.197	301.93
1016.555	299.59
1016.912	411.93
1017.269	318.31
1017.627	304.27
1017.984	334.7
1018.341	341.72
1018.698	280.86
1019.055	365.12
1019.412	334.7
1019.769	374.49
1020.126	311.29
1020.483	290.23
1020.84	285.55
1021.196	266.82
1021.553	322.99
1021.909	236.39
1022.266	294.91
1022.622	287.89
1022.979	311.29
1023.335	367.46
1023.691	287.89
1024.047	292.57
1024.404	299.59
1024.76	315.97
1025.116	348.74
1025.472	351.08
1025.827	306.61
1026.183	285.55
1026.539	285.55
1026.895	297.25
1027.25	236.39
1027.606	327.68
1027.961	283.2
1028.317	306.61
1028.672	276.18
1029.028	297.25
1029.383	304.27
1029.738	287.89
1030.093	271.5
1030.448	330.02
1030.803	271.5
1031.158	334.7
1031.513	299.59
1031.868	262.14
1032.223	264.48
1032.577	308.95
1032.932	271.5
1033.287	313.63
1033.641	318.31
1033.996	315.97
1034.35	252.78
1034.704	243.42
1035.059	259.8
1035.413	294.91
1035.767	294.91
1036.121	294.91
