Data from Al_FLMS009871__553__14-43-34-120.txt Node

Date: Fri Mar 08 14:43:34 CST 2024
User: pe5414po
Spectrometer: FLMS00987
Trigger mode: 0
Integration Time (sec): 1.000000E-1
Scans to average: 1
Electric dark correction enabled: true
Nonlinearity correction enabled: false
Boxcar width: 0
XAxis mode: Wavelengths
Number of Pixels in Spectrum: 2048
>>>>>Begin Spectral Data<<<<<
188.938	-9.51
189.409	-9.51
189.879	-9.51
190.349	-72.7
190.819	-84.41
191.29	-124.19
191.76	-112.49
192.23	-49.3
192.7	-84.41
193.17	-82.07
193.64	2.19
194.109	-16.53
194.579	-30.57
195.049	-53.98
195.519	32.62
195.988	46.66
196.458	9.22
196.927	105.18
197.397	126.24
197.866	121.56
198.336	109.86
198.805	226.89
199.274	233.91
199.744	187.1
200.213	166.03
200.682	240.93
201.151	177.73
201.62	245.61
202.089	184.76
202.558	245.61
203.027	254.97
203.495	269.02
203.964	243.27
204.433	306.46
204.902	280.72
205.37	285.4
205.839	236.25
206.307	301.78
206.776	278.38
207.244	254.97
207.712	290.08
208.181	294.76
208.649	252.63
209.117	292.42
209.585	369.66
210.053	264.33
210.521	271.36
210.989	292.42
211.457	276.04
211.925	318.17
212.393	304.12
212.861	259.65
213.328	313.49
213.796	247.95
214.264	325.19
214.731	299.44
215.199	301.78
215.666	252.63
216.133	346.25
216.601	297.1
217.068	222.2
217.535	257.31
218.003	315.83
218.47	287.74
218.937	325.19
219.404	334.55
219.871	294.76
220.338	259.65
220.805	250.29
221.271	254.97
221.738	264.33
222.205	201.14
222.671	217.52
223.138	278.38
223.605	290.08
224.071	285.4
224.538	285.4
225.004	261.99
225.47	311.14
225.937	264.33
226.403	257.31
226.869	280.72
227.335	292.42
227.801	355.62
228.267	229.23
228.733	238.59
229.199	250.29
229.665	341.57
230.131	287.74
230.597	285.4
231.062	304.12
231.528	245.61
231.994	243.27
232.459	297.1
232.925	247.95
233.39	308.8
233.856	280.72
234.321	273.7
234.786	297.1
235.252	238.59
235.717	283.06
236.182	226.89
236.647	290.08
237.112	297.1
237.577	257.31
238.042	252.63
238.507	252.63
238.972	320.51
239.436	254.97
239.901	238.59
240.366	278.38
240.83	240.93
241.295	257.31
241.76	233.91
242.224	271.36
242.688	259.65
243.153	301.78
243.617	304.12
244.081	301.78
244.545	339.23
245.01	245.61
245.474	299.44
245.938	313.49
246.402	336.89
246.866	327.53
247.33	299.44
247.793	292.42
248.257	238.59
248.721	254.97
249.185	320.51
249.648	259.65
250.112	243.27
250.575	290.08
251.039	215.18
251.502	276.04
251.965	367.32
252.429	311.14
252.892	315.83
253.355	287.74
253.818	280.72
254.281	280.72
254.744	173.05
255.207	273.7
255.67	259.65
256.133	292.42
256.596	259.65
257.059	285.4
257.522	336.89
257.984	269.02
258.447	308.8
258.909	315.83
259.372	304.12
259.834	334.55
260.297	287.74
260.759	287.74
261.221	292.42
261.684	290.08
262.146	269.02
262.608	315.83
263.07	353.27
263.532	280.72
263.994	250.29
264.456	320.51
264.918	278.38
265.38	306.46
265.842	254.97
266.303	339.23
266.765	308.8
267.227	315.83
267.688	259.65
268.15	322.85
268.611	318.17
269.072	283.06
269.534	250.29
269.995	348.59
270.456	285.4
270.918	315.83
271.379	224.55
271.84	264.33
272.301	285.4
272.762	327.53
273.223	283.06
273.684	254.97
274.144	285.4
274.605	308.8
275.066	283.06
275.527	294.76
275.987	294.76
276.448	290.08
276.908	264.33
277.369	346.25
277.829	299.44
278.289	308.8
278.75	292.42
279.21	318.17
279.67	306.46
280.13	325.19
280.59	292.42
281.05	285.4
281.51	297.1
281.97	348.59
282.43	287.74
282.89	266.67
283.35	229.23
283.809	367.32
284.269	318.17
284.729	259.65
285.188	388.38
285.648	294.76
286.107	299.44
286.567	278.38
287.026	339.23
287.485	364.98
287.944	332.21
288.404	362.64
288.863	306.46
289.322	285.4
289.781	292.42
290.24	374.34
290.699	269.02
291.158	343.91
291.616	276.04
292.075	313.49
292.534	334.55
292.992	306.46
293.451	273.7
293.91	336.89
294.368	271.36
294.827	259.65
295.285	311.14
295.743	355.62
296.202	264.33
296.66	297.1
297.118	292.42
297.576	341.57
298.034	372
298.492	308.8
298.95	292.42
299.408	294.76
299.866	271.36
300.324	320.51
300.781	297.1
301.239	299.44
301.697	261.99
302.154	381.36
302.612	332.21
303.069	325.19
303.527	301.78
303.984	254.97
304.441	311.14
304.899	243.27
305.356	306.46
305.813	322.85
306.27	355.62
306.727	327.53
307.184	325.19
307.641	339.23
308.098	322.85
308.555	259.65
309.012	301.78
309.468	297.1
309.925	294.76
310.382	313.49
310.838	278.38
311.295	294.76
311.751	278.38
312.208	276.04
312.664	346.25
313.12	273.7
313.577	299.44
314.033	320.51
314.489	308.8
314.945	306.46
315.401	261.99
315.857	329.87
316.313	322.85
316.769	320.51
317.225	287.74
317.681	381.36
318.136	299.44
318.592	322.85
319.048	276.04
319.503	343.91
319.959	269.02
320.414	367.32
320.869	332.21
321.325	322.85
321.78	325.19
322.235	334.55
322.691	374.34
323.146	364.98
323.601	280.72
324.056	297.1
324.511	362.64
324.966	273.7
325.421	315.83
325.875	297.1
326.33	325.19
326.785	325.19
327.24	224.55
327.694	334.55
328.149	362.64
328.603	325.19
329.058	240.93
329.512	301.78
329.966	315.83
330.421	273.7
330.875	287.74
331.329	334.55
331.783	299.44
332.237	334.55
332.691	383.7
333.145	273.7
333.599	301.78
334.053	301.78
334.507	311.14
334.96	325.19
335.414	332.21
335.868	285.4
336.321	336.89
336.775	369.66
337.228	339.23
337.682	276.04
338.135	294.76
338.588	395.4
339.042	276.04
339.495	327.53
339.948	350.93
340.401	364.98
340.854	355.62
341.307	369.66
341.76	278.38
342.213	322.85
342.666	311.14
343.119	287.74
343.571	271.36
344.024	315.83
344.477	332.21
344.929	280.72
345.382	311.14
345.834	254.97
346.287	311.14
346.739	360.3
347.191	283.06
347.644	346.25
348.096	285.4
348.548	294.76
349	341.57
349.452	327.53
349.904	301.78
350.356	355.62
350.808	313.49
351.26	276.04
351.711	376.68
352.163	261.99
352.615	348.59
353.066	294.76
353.518	318.17
353.969	374.34
354.421	278.38
354.872	313.49
355.324	308.8
355.775	320.51
356.226	343.91
356.677	367.32
357.128	294.76
357.579	325.19
358.03	313.49
358.481	311.14
358.932	308.8
359.383	299.44
359.834	311.14
360.285	327.53
360.735	336.89
361.186	301.78
361.637	306.46
362.087	374.34
362.538	311.14
362.988	339.23
363.438	304.12
363.889	297.1
364.339	353.27
364.789	271.36
365.239	247.95
365.689	318.17
366.139	287.74
366.589	306.46
367.039	348.59
367.489	294.76
367.939	301.78
368.389	339.23
368.839	339.23
369.288	327.53
369.738	369.66
370.187	294.76
370.637	332.21
371.086	369.66
371.536	273.7
371.985	350.93
372.434	238.59
372.884	336.89
373.333	374.34
373.782	327.53
374.231	308.8
374.68	318.17
375.129	259.65
375.578	283.06
376.027	311.14
376.475	315.83
376.924	353.27
377.373	269.02
377.822	318.17
378.27	304.12
378.719	320.51
379.167	343.91
379.616	339.23
380.064	320.51
380.512	308.8
380.961	332.21
381.409	339.23
381.857	341.57
382.305	322.85
382.753	325.19
383.201	290.08
383.649	299.44
384.097	350.93
384.545	341.57
384.992	357.96
385.44	325.19
385.888	334.55
386.335	294.76
386.783	355.62
387.231	290.08
387.678	329.87
388.125	278.38
388.573	308.8
389.02	301.78
389.467	329.87
389.914	350.93
390.362	376.68
390.809	339.23
391.256	313.49
391.703	346.25
392.15	304.12
392.596	308.8
393.043	318.17
393.49	327.53
393.937	353.27
394.383	299.44
394.83	315.83
395.276	334.55
395.723	306.46
396.169	320.51
396.616	301.78
397.062	320.51
397.508	329.87
397.954	339.23
398.401	341.57
398.847	369.66
399.293	346.25
399.739	327.53
400.185	304.12
400.631	379.02
401.076	341.57
401.522	325.19
401.968	357.96
402.414	355.62
402.859	313.49
403.305	346.25
403.75	367.32
404.196	379.02
404.641	339.23
405.086	350.93
405.532	311.14
405.977	318.17
406.422	243.27
406.867	271.36
407.312	285.4
407.757	360.3
408.202	301.78
408.647	292.42
409.092	353.27
409.537	364.98
409.982	360.3
410.426	318.17
410.871	271.36
411.316	306.46
411.76	348.59
412.205	261.99
412.649	306.46
413.093	334.55
413.538	315.83
413.982	313.49
414.426	325.19
414.87	339.23
415.314	395.4
415.758	306.46
416.202	346.25
416.646	287.74
417.09	327.53
417.534	346.25
417.978	297.1
418.421	348.59
418.865	287.74
419.309	334.55
419.752	329.87
420.196	301.78
420.639	350.93
421.083	306.46
421.526	269.02
421.969	313.49
422.412	322.85
422.856	318.17
423.299	320.51
423.742	315.83
424.185	360.3
424.628	271.36
425.071	283.06
425.513	304.12
425.956	334.55
426.399	280.72
426.842	301.78
427.284	322.85
427.727	304.12
428.169	315.83
428.612	273.7
429.054	304.12
429.497	285.4
429.939	327.53
430.381	259.65
430.823	280.72
431.265	280.72
431.707	369.66
432.149	297.1
432.591	367.32
433.033	301.78
433.475	306.46
433.917	299.44
434.359	372
434.8	336.89
435.242	360.3
435.684	301.78
436.125	334.55
436.567	329.87
437.008	381.36
437.449	290.08
437.891	346.25
438.332	339.23
438.773	360.3
439.214	362.64
439.656	325.19
440.097	353.27
440.538	393.06
440.978	341.57
441.419	287.74
441.86	320.51
442.301	306.46
442.742	301.78
443.182	304.12
443.623	269.02
444.063	318.17
444.504	367.32
444.944	336.89
445.385	308.8
445.825	386.04
446.265	301.78
446.706	280.72
447.146	329.87
447.586	353.27
448.026	364.98
448.466	252.63
448.906	320.51
449.346	318.17
449.786	325.19
450.225	329.87
450.665	259.65
451.105	304.12
451.544	381.36
451.984	343.91
452.424	336.89
452.863	292.42
453.302	341.57
453.742	306.46
454.181	339.23
454.62	311.14
455.059	360.3
455.499	332.21
455.938	278.38
456.377	304.12
456.816	313.49
457.254	290.08
457.693	322.85
458.132	343.91
458.571	318.17
459.01	360.3
459.448	329.87
459.887	332.21
460.325	339.23
460.764	400.09
461.202	308.8
461.641	294.76
462.079	318.17
462.517	308.8
462.955	325.19
463.393	329.87
463.832	313.49
464.27	301.78
464.708	334.55
465.145	311.14
465.583	299.44
466.021	313.49
466.459	304.12
466.897	357.96
467.334	332.21
467.772	353.27
468.209	341.57
468.647	369.66
469.084	318.17
469.522	327.53
469.959	320.51
470.396	402.43
470.833	308.8
471.271	283.06
471.708	283.06
472.145	341.57
472.582	353.27
473.019	306.46
473.456	280.72
473.892	318.17
474.329	318.17
474.766	376.68
475.202	372
475.639	334.55
476.076	292.42
476.512	287.74
476.949	285.4
477.385	353.27
477.821	292.42
478.258	294.76
478.694	311.14
479.13	355.62
479.566	320.51
480.002	360.3
480.438	304.12
480.874	332.21
481.31	287.74
481.746	299.44
482.181	318.17
482.617	336.89
483.053	364.98
483.488	311.14
483.924	273.7
484.36	353.27
484.795	367.32
485.23	292.42
485.666	285.4
486.101	285.4
486.536	334.55
486.971	290.08
487.407	327.53
487.842	322.85
488.277	346.25
488.712	362.64
489.146	264.33
489.581	264.33
490.016	271.36
490.451	292.42
490.885	306.46
491.32	364.98
491.755	327.53
492.189	320.51
492.624	341.57
493.058	315.83
493.492	381.36
493.927	357.96
494.361	369.66
494.795	322.85
495.229	325.19
495.663	273.7
496.097	280.72
496.531	299.44
496.965	318.17
497.399	353.27
497.833	322.85
498.266	357.96
498.7	339.23
499.134	287.74
499.567	283.06
500.001	294.76
500.434	346.25
500.868	322.85
501.301	278.38
501.734	336.89
502.168	336.89
502.601	320.51
503.034	346.25
503.467	339.23
503.9	334.55
504.333	287.74
504.766	271.36
505.199	320.51
505.632	374.34
506.064	348.59
506.497	325.19
506.93	283.06
507.362	327.53
507.795	297.1
508.227	299.44
508.66	334.55
509.092	266.67
509.524	292.42
509.956	339.23
510.389	339.23
510.821	343.91
511.253	322.85
511.685	327.53
512.117	318.17
512.549	294.76
512.981	325.19
513.412	308.8
513.844	311.14
514.276	287.74
514.707	346.25
515.139	395.4
515.571	353.27
516.002	336.89
516.433	315.83
516.865	269.02
517.296	285.4
517.727	334.55
518.159	357.96
518.59	315.83
519.021	269.02
519.452	299.44
519.883	376.68
520.314	374.34
520.744	329.87
521.175	334.55
521.606	311.14
522.037	379.02
522.467	301.78
522.898	341.57
523.328	301.78
523.759	360.3
524.189	350.93
524.62	294.76
525.05	369.66
525.48	369.66
525.91	374.34
526.341	294.76
526.771	355.62
527.201	341.57
527.631	327.53
528.061	372
528.49	313.49
528.92	325.19
529.35	318.17
529.78	329.87
530.209	269.02
530.639	271.36
531.068	334.55
531.498	348.59
531.927	252.63
532.357	254.97
532.786	283.06
533.215	292.42
533.644	304.12
534.074	320.51
534.503	304.12
534.932	341.57
535.361	393.06
535.79	341.57
536.218	308.8
536.647	308.8
537.076	336.89
537.505	339.23
537.933	285.4
538.362	283.06
538.79	311.14
539.219	320.51
539.647	322.85
540.076	341.57
540.504	308.8
540.932	327.53
541.36	341.57
541.788	383.7
542.217	285.4
542.645	362.64
543.073	404.77
543.5	322.85
543.928	283.06
544.356	332.21
544.784	334.55
545.211	276.04
545.639	318.17
546.067	332.21
546.494	346.25
546.922	362.64
547.349	327.53
547.776	306.46
548.204	332.21
548.631	273.7
549.058	348.59
549.485	432.85
549.912	343.91
550.339	299.44
550.766	294.76
551.193	369.66
551.62	336.89
552.047	362.64
552.474	297.1
552.9	285.4
553.327	346.25
553.754	311.14
554.18	287.74
554.607	367.32
555.033	336.89
555.459	287.74
555.886	261.99
556.312	348.59
556.738	318.17
557.164	348.59
557.59	297.1
558.016	287.74
558.442	383.7
558.868	339.23
559.294	346.25
559.72	334.55
560.145	386.04
560.571	287.74
560.997	266.67
561.422	334.55
561.848	372
562.273	327.53
562.699	348.59
563.124	364.98
563.549	306.46
563.974	306.46
564.4	306.46
564.825	322.85
565.25	269.02
565.675	353.27
566.1	236.25
566.525	306.46
566.95	346.25
567.374	320.51
567.799	287.74
568.224	280.72
568.648	320.51
569.073	348.59
569.497	388.38
569.922	320.51
570.346	297.1
570.771	364.98
571.195	276.04
571.619	393.06
572.043	308.8
572.467	301.78
572.891	376.68
573.315	280.72
573.739	301.78
574.163	353.27
574.587	322.85
575.011	332.21
575.435	301.78
575.858	332.21
576.282	348.59
576.705	332.21
577.129	322.85
577.552	304.12
577.976	332.21
578.399	261.99
578.822	336.89
579.245	294.76
579.669	336.89
580.092	308.8
580.515	311.14
580.938	320.51
581.361	379.02
581.784	292.42
582.206	325.19
582.629	304.12
583.052	350.93
583.474	364.98
583.897	327.53
584.32	376.68
584.742	299.44
585.165	285.4
585.587	357.96
586.009	357.96
586.431	369.66
586.854	273.7
587.276	341.57
587.698	327.53
588.12	327.53
588.542	294.76
588.964	322.85
589.386	322.85
589.807	311.14
590.229	278.38
590.651	336.89
591.073	322.85
591.494	364.98
591.916	397.74
592.337	329.87
592.759	283.06
593.18	318.17
593.601	395.4
594.022	313.49
594.444	299.44
594.865	341.57
595.286	353.27
595.707	397.74
596.128	332.21
596.549	273.7
596.97	290.08
597.39	325.19
597.811	416.47
598.232	327.53
598.652	318.17
599.073	301.78
599.494	372
599.914	327.53
600.334	357.96
600.755	357.96
601.175	327.53
601.595	329.87
602.015	306.46
602.436	290.08
602.856	500.73
603.276	367.32
603.696	360.3
604.115	339.23
604.535	315.83
604.955	299.44
605.375	350.93
605.794	290.08
606.214	336.89
606.634	325.19
607.053	320.51
607.473	266.67
607.892	236.25
608.311	357.96
608.731	292.42
609.15	332.21
609.569	369.66
609.988	346.25
610.407	304.12
610.826	332.21
611.245	290.08
611.664	369.66
612.083	301.78
612.501	308.8
612.92	271.36
613.339	339.23
613.757	290.08
614.176	327.53
614.594	311.14
615.013	329.87
615.431	341.57
615.85	315.83
616.268	372
616.686	318.17
617.104	299.44
617.522	360.3
617.94	357.96
618.358	273.7
618.776	264.33
619.194	343.91
619.612	294.76
620.03	369.66
620.447	313.49
620.865	350.93
621.282	339.23
621.7	294.76
622.117	327.53
622.535	304.12
622.952	313.49
623.369	313.49
623.787	304.12
624.204	325.19
624.621	308.8
625.038	374.34
625.455	327.53
625.872	374.34
626.289	339.23
626.706	381.36
627.123	315.83
627.539	343.91
627.956	292.42
628.373	346.25
628.789	311.14
629.206	292.42
629.622	390.72
630.038	322.85
630.455	357.96
630.871	360.3
631.287	308.8
631.703	320.51
632.12	304.12
632.536	327.53
632.952	350.93
633.368	343.91
633.783	308.8
634.199	346.25
634.615	339.23
635.031	313.49
635.446	353.27
635.862	301.78
636.277	376.68
636.693	327.53
637.108	261.99
637.524	357.96
637.939	252.63
638.354	247.95
638.77	329.87
639.185	395.4
639.6	304.12
640.015	362.64
640.43	355.62
640.845	369.66
641.259	341.57
641.674	276.04
642.089	320.51
642.504	325.19
642.918	313.49
643.333	336.89
643.747	299.44
644.162	346.25
644.576	283.06
644.991	304.12
645.405	254.97
645.819	320.51
646.233	287.74
646.647	360.3
647.061	322.85
647.475	355.62
647.889	322.85
648.303	372
648.717	313.49
649.131	346.25
649.545	343.91
649.958	322.85
650.372	353.27
650.785	374.34
651.199	329.87
651.612	222.2
652.026	322.85
652.439	343.91
652.852	386.04
653.266	318.17
653.679	353.27
654.092	336.89
654.505	334.55
654.918	294.76
655.331	269.02
655.744	311.14
656.156	376.68
656.569	329.87
656.982	304.12
657.394	306.46
657.807	308.8
658.22	318.17
658.632	313.49
659.044	341.57
659.457	320.51
659.869	301.78
660.281	283.06
660.693	332.21
661.106	336.89
661.518	299.44
661.93	261.99
662.342	327.53
662.754	360.3
663.165	334.55
663.577	339.23
663.989	428.17
664.401	301.78
664.812	318.17
665.224	311.14
665.635	336.89
666.047	339.23
666.458	299.44
666.869	325.19
667.281	271.36
667.692	315.83
668.103	299.44
668.514	269.02
668.925	320.51
669.336	339.23
669.747	339.23
670.158	250.29
670.569	278.38
670.979	336.89
671.39	341.57
671.801	346.25
672.211	367.32
672.622	306.46
673.032	343.91
673.443	280.72
673.853	353.27
674.263	308.8
674.674	315.83
675.084	381.36
675.494	325.19
675.904	311.14
676.314	325.19
676.724	311.14
677.134	264.33
677.544	339.23
677.953	327.53
678.363	343.91
678.773	364.98
679.182	308.8
679.592	383.7
680.001	362.64
680.411	325.19
680.82	283.06
681.23	315.83
681.639	278.38
682.048	339.23
682.457	334.55
682.866	294.76
683.275	273.7
683.684	357.96
684.093	332.21
684.502	367.32
684.911	346.25
685.32	341.57
685.728	318.17
686.137	388.38
686.546	346.25
686.954	269.02
687.363	383.7
687.771	372
688.179	257.31
688.588	320.51
688.996	320.51
689.404	292.42
689.812	306.46
690.22	304.12
690.628	332.21
691.036	322.85
691.444	341.57
691.852	306.46
692.26	285.4
692.667	336.89
693.075	276.04
693.483	332.21
693.89	287.74
694.298	341.57
694.705	353.27
695.112	299.44
695.52	271.36
695.927	339.23
696.334	355.62
696.741	357.96
697.148	325.19
697.555	325.19
697.962	327.53
698.369	292.42
698.776	308.8
699.183	329.87
699.59	367.32
699.996	353.27
700.403	360.3
700.81	287.74
701.216	247.95
701.623	336.89
702.029	353.27
702.435	247.95
702.842	292.42
703.248	341.57
703.654	287.74
704.06	339.23
704.466	308.8
704.872	355.62
705.278	360.3
705.684	259.65
706.09	336.89
706.496	311.14
706.901	362.64
707.307	374.34
707.712	329.87
708.118	315.83
708.523	322.85
708.929	292.42
709.334	404.77
709.74	327.53
710.145	306.46
710.55	336.89
710.955	276.04
711.36	276.04
711.765	297.1
712.17	325.19
712.575	297.1
712.98	884.58
713.385	336.89
713.789	301.78
714.194	301.78
714.599	320.51
715.003	294.76
715.408	226.89
715.812	350.93
716.217	332.21
716.621	313.49
717.025	266.67
717.429	271.36
717.833	304.12
718.238	327.53
718.642	299.44
719.046	374.34
719.449	297.1
719.853	299.44
720.257	353.27
720.661	339.23
721.065	372
721.468	372
721.872	250.29
722.275	301.78
722.679	346.25
723.082	301.78
723.485	269.02
723.889	339.23
724.292	294.76
724.695	339.23
725.098	304.12
725.501	311.14
725.904	304.12
726.307	290.08
726.71	332.21
727.113	383.7
727.516	350.93
727.918	374.34
728.321	311.14
728.724	332.21
729.126	292.42
729.529	318.17
729.931	329.87
730.333	285.4
730.736	336.89
731.138	299.44
731.54	311.14
731.942	299.44
732.344	280.72
732.746	315.83
733.148	329.87
733.55	336.89
733.952	301.78
734.354	292.42
734.756	320.51
735.157	336.89
735.559	311.14
735.96	233.91
736.362	336.89
736.763	308.8
737.165	353.27
737.566	341.57
737.967	325.19
738.368	297.1
738.77	329.87
739.171	301.78
739.572	369.66
739.973	297.1
740.374	301.78
740.774	313.49
741.175	425.83
741.576	336.89
741.977	306.46
742.377	313.49
742.778	327.53
743.178	360.3
743.579	353.27
743.979	372
744.379	313.49
744.78	325.19
745.18	322.85
745.58	381.36
745.98	311.14
746.38	327.53
746.78	301.78
747.18	313.49
747.58	320.51
747.98	364.98
748.38	287.74
748.779	364.98
749.179	341.57
749.578	322.85
749.978	325.19
750.377	325.19
750.777	315.83
751.176	294.76
751.575	341.57
751.975	306.46
752.374	278.38
752.773	311.14
753.172	332.21
753.571	322.85
753.97	250.29
754.369	390.72
754.768	280.72
755.166	327.53
755.565	299.44
755.964	311.14
756.362	315.83
756.761	315.83
757.159	353.27
757.558	315.83
757.956	299.44
758.354	269.02
758.753	301.78
759.151	306.46
759.549	315.83
759.947	306.46
760.345	315.83
760.743	285.4
761.141	334.55
761.539	320.51
761.936	343.91
762.334	334.55
762.732	308.8
763.129	325.19
763.527	318.17
763.924	273.7
764.322	348.59
764.719	325.19
765.117	357.96
765.514	357.96
765.911	355.62
766.308	313.49
766.705	311.14
767.102	360.3
767.499	393.06
767.896	329.87
768.293	341.57
768.69	346.25
769.086	229.23
769.483	325.19
769.88	360.3
770.276	299.44
770.673	297.1
771.069	341.57
771.466	315.83
771.862	350.93
772.258	357.96
772.654	306.46
773.05	327.53
773.447	283.06
773.843	304.12
774.239	332.21
774.634	292.42
775.03	320.51
775.426	294.76
775.822	346.25
776.218	327.53
776.613	379.02
777.009	332.21
777.404	276.04
777.8	339.23
778.195	353.27
778.59	327.53
778.986	336.89
779.381	332.21
779.776	322.85
780.171	264.33
780.566	390.72
780.961	376.68
781.356	379.02
781.751	355.62
782.146	350.93
782.54	297.1
782.935	252.63
783.33	276.04
783.724	311.14
784.119	332.21
784.513	343.91
784.908	325.19
785.302	369.66
785.696	355.62
786.09	290.08
786.485	264.33
786.879	325.19
787.273	355.62
787.667	325.19
788.061	381.36
788.454	280.72
788.848	231.57
789.242	325.19
789.636	320.51
790.029	301.78
790.423	320.51
790.816	264.33
791.21	297.1
791.603	332.21
791.997	313.49
792.39	327.53
792.783	318.17
793.176	297.1
793.569	252.63
793.962	266.67
794.355	254.97
794.748	348.59
795.141	329.87
795.534	339.23
795.927	285.4
796.319	327.53
796.712	304.12
797.105	304.12
797.497	285.4
797.89	276.04
798.282	306.46
798.674	318.17
799.067	243.27
799.459	294.76
799.851	374.34
800.243	348.59
800.635	348.59
801.027	292.42
801.419	318.17
801.811	278.38
802.203	313.49
802.594	318.17
802.986	383.7
803.378	343.91
803.769	301.78
804.161	341.57
804.552	357.96
804.944	362.64
805.335	395.4
805.726	350.93
806.118	261.99
806.509	369.66
806.9	343.91
807.291	346.25
807.682	346.25
808.073	315.83
808.464	332.21
808.855	343.91
809.245	264.33
809.636	269.02
810.027	353.27
810.417	346.25
810.808	292.42
811.198	350.93
811.589	348.59
811.979	343.91
812.369	278.38
812.759	243.27
813.15	318.17
813.54	346.25
813.93	339.23
814.32	357.96
814.71	339.23
815.1	423.49
815.489	306.46
815.879	416.47
816.269	252.63
816.658	313.49
817.048	299.44
817.438	311.14
817.827	261.99
818.216	353.27
818.606	294.76
818.995	269.02
819.384	318.17
819.773	353.27
820.163	343.91
820.552	290.08
820.941	287.74
821.33	381.36
821.718	301.78
822.107	301.78
822.496	334.55
822.885	287.74
823.273	353.27
823.662	332.21
824.05	327.53
824.439	329.87
824.827	315.83
825.216	362.64
825.604	308.8
825.992	278.38
826.38	346.25
826.768	311.14
827.156	339.23
827.544	320.51
827.932	320.51
828.32	353.27
828.708	332.21
829.096	332.21
829.483	369.66
829.871	322.85
830.259	287.74
830.646	355.62
831.034	276.04
831.421	346.25
831.808	280.72
832.196	334.55
832.583	254.97
832.97	299.44
833.357	287.74
833.744	283.06
834.131	343.91
834.518	257.31
834.905	311.14
835.292	278.38
835.678	299.44
836.065	259.65
836.452	238.59
836.838	346.25
837.225	283.06
837.611	357.96
837.998	315.83
838.384	294.76
838.77	353.27
839.157	336.89
839.543	350.93
839.929	311.14
840.315	369.66
840.701	269.02
841.087	362.64
841.473	276.04
841.858	313.49
842.244	294.76
842.63	320.51
843.015	400.09
843.401	669.25
843.787	332.21
844.172	308.8
844.557	346.25
844.943	250.29
845.328	304.12
845.713	393.06
846.098	386.04
846.483	367.32
846.868	329.87
847.253	355.62
847.638	376.68
848.023	257.31
848.408	308.8
848.793	318.17
849.177	334.55
849.562	346.25
849.947	332.21
850.331	325.19
850.715	372
851.1	301.78
851.484	287.74
851.868	425.83
852.253	320.51
852.637	329.87
853.021	290.08
853.405	353.27
853.789	280.72
854.173	304.12
854.557	290.08
854.94	311.14
855.324	306.46
855.708	343.91
856.091	350.93
856.475	339.23
856.858	285.4
857.242	334.55
857.625	259.65
858.009	360.3
858.392	290.08
858.775	276.04
859.158	264.33
859.541	339.23
859.924	322.85
860.307	353.27
860.69	266.67
861.073	243.27
861.456	327.53
861.838	299.44
862.221	381.36
862.604	393.06
862.986	320.51
863.369	362.64
863.751	287.74
864.133	367.32
864.516	329.87
864.898	346.25
865.28	287.74
865.662	362.64
866.044	355.62
866.426	322.85
866.808	357.96
867.19	334.55
867.572	311.14
867.954	297.1
868.336	313.49
868.717	308.8
869.099	236.25
869.48	290.08
869.862	311.14
870.243	336.89
870.625	283.06
871.006	360.3
871.387	297.1
871.768	407.11
872.149	311.14
872.53	379.02
872.911	299.44
873.292	329.87
873.673	346.25
874.054	327.53
874.435	294.76
874.815	353.27
875.196	271.36
875.577	348.59
875.957	273.7
876.338	299.44
876.718	343.91
877.098	372
877.479	318.17
877.859	261.99
878.239	325.19
878.619	259.65
878.999	334.55
879.379	367.32
879.759	301.78
880.139	357.96
880.519	329.87
880.898	353.27
881.278	318.17
881.658	313.49
882.037	346.25
882.417	322.85
882.796	339.23
883.176	367.32
883.555	304.12
883.934	386.04
884.313	299.44
884.693	322.85
885.072	280.72
885.451	308.8
885.83	397.74
886.209	273.7
886.587	304.12
886.966	292.42
887.345	292.42
887.724	290.08
888.102	346.25
888.481	318.17
888.859	332.21
889.238	318.17
889.616	343.91
889.994	320.51
890.373	320.51
890.751	299.44
891.129	254.97
891.507	325.19
891.885	285.4
892.263	294.76
892.641	343.91
893.019	388.38
893.396	297.1
893.774	341.57
894.152	332.21
894.529	306.46
894.907	233.91
895.284	339.23
895.662	313.49
896.039	374.34
896.416	250.29
896.794	315.83
897.171	290.08
897.548	350.93
897.925	320.51
898.302	264.33
898.679	334.55
899.056	311.14
899.433	332.21
899.809	364.98
900.186	280.72
900.563	264.33
900.939	369.66
901.316	322.85
901.692	315.83
902.069	325.19
902.445	350.93
902.821	350.93
903.197	355.62
903.574	292.42
903.95	278.38
904.326	313.49
904.702	290.08
905.078	278.38
905.454	266.67
905.829	278.38
906.205	280.72
906.581	269.02
906.956	278.38
907.332	294.76
907.707	273.7
908.083	320.51
908.458	269.02
908.833	348.59
909.209	393.06
909.584	355.62
909.959	346.25
910.334	297.1
910.709	285.4
911.084	381.36
911.459	273.7
911.834	339.23
912.209	315.83
912.583	224.55
912.958	287.74
913.333	313.49
913.707	313.49
914.082	311.14
914.456	357.96
914.83	362.64
915.205	388.38
915.579	393.06
915.953	290.08
916.327	327.53
916.701	287.74
917.075	266.67
917.449	287.74
917.823	245.61
918.197	278.38
918.571	348.59
918.944	364.98
919.318	264.33
919.692	280.72
920.065	339.23
920.438	304.12
920.812	362.64
921.185	364.98
921.558	325.19
921.932	308.8
922.305	261.99
922.678	329.87
923.051	325.19
923.424	311.14
923.797	325.19
924.17	339.23
924.542	318.17
924.915	311.14
925.288	318.17
925.661	292.42
926.033	318.17
926.406	287.74
926.778	318.17
927.15	372
927.523	346.25
927.895	334.55
928.267	372
928.639	273.7
929.011	329.87
929.383	278.38
929.755	353.27
930.127	329.87
930.499	313.49
930.871	280.72
931.242	311.14
931.614	315.83
931.986	346.25
932.357	308.8
932.729	334.55
933.1	336.89
933.471	334.55
933.843	334.55
934.214	325.19
934.585	273.7
934.956	269.02
935.327	320.51
935.698	301.78
936.069	320.51
936.44	322.85
936.811	334.55
937.182	327.53
937.552	350.93
937.923	336.89
938.293	322.85
938.664	334.55
939.034	292.42
939.405	332.21
939.775	306.46
940.145	350.93
940.516	315.83
940.886	360.3
941.256	313.49
941.626	329.87
941.996	388.38
942.366	311.14
942.735	346.25
943.105	285.4
943.475	308.8
943.845	341.57
944.214	252.63
944.584	301.78
944.953	299.44
945.323	334.55
945.692	341.57
946.061	357.96
946.43	308.8
946.8	306.46
947.169	315.83
947.538	341.57
947.907	341.57
948.276	367.32
948.645	315.83
949.013	240.93
949.382	350.93
949.751	308.8
950.119	276.04
950.488	311.14
950.857	362.64
951.225	294.76
951.593	343.91
951.962	336.89
952.33	261.99
952.698	259.65
953.066	299.44
953.434	320.51
953.802	320.51
954.17	325.19
954.538	301.78
954.906	306.46
955.274	327.53
955.642	336.89
956.009	278.38
956.377	290.08
956.744	325.19
957.112	287.74
957.479	292.42
957.847	320.51
958.214	315.83
958.581	348.59
958.948	301.78
959.315	350.93
959.683	318.17
960.05	348.59
960.416	280.72
960.783	276.04
961.15	276.04
961.517	334.55
961.884	336.89
962.25	376.68
962.617	322.85
962.983	290.08
963.35	301.78
963.716	222.2
964.082	238.59
964.449	322.85
964.815	283.06
965.181	322.85
965.547	278.38
965.913	318.17
966.279	285.4
966.645	341.57
967.011	304.12
967.377	343.91
967.742	409.45
968.108	332.21
968.474	336.89
968.839	327.53
969.205	292.42
969.57	301.78
969.935	290.08
970.301	329.87
970.666	409.45
971.031	294.76
971.396	313.49
971.761	297.1
972.126	308.8
972.491	311.14
972.856	299.44
973.221	294.76
973.586	297.1
973.95	240.93
974.315	294.76
974.679	306.46
975.044	411.79
975.408	315.83
975.773	297.1
976.137	285.4
976.501	245.61
976.866	339.23
977.23	301.78
977.594	325.19
977.958	294.76
978.322	369.66
978.686	290.08
979.049	336.89
979.413	254.97
979.777	313.49
980.141	290.08
980.504	386.04
980.868	357.96
981.231	336.89
981.595	290.08
981.958	348.59
982.321	294.76
982.684	341.57
983.048	311.14
983.411	287.74
983.774	247.95
984.137	318.17
984.5	271.36
984.862	299.44
985.225	273.7
985.588	336.89
985.951	273.7
986.313	320.51
986.676	301.78
987.038	308.8
987.401	339.23
987.763	299.44
988.125	313.49
988.488	304.12
988.85	376.68
989.212	304.12
989.574	287.74
989.936	341.57
990.298	280.72
990.66	280.72
991.022	313.49
991.383	306.46
991.745	294.76
992.107	343.91
992.468	320.51
992.83	280.72
993.191	353.27
993.553	285.4
993.914	334.55
994.275	313.49
994.637	334.55
994.998	287.74
995.359	360.3
995.72	343.91
996.081	336.89
996.442	273.7
996.803	334.55
997.163	388.38
997.524	353.27
997.885	245.61
998.245	355.62
998.606	273.7
998.966	322.85
999.327	311.14
999.687	308.8
1000.047	334.55
1000.408	346.25
1000.768	290.08
1001.128	341.57
1001.488	311.14
1001.848	264.33
1002.208	287.74
1002.568	372
1002.927	266.67
1003.287	285.4
1003.647	350.93
1004.007	292.42
1004.366	348.59
1004.726	388.38
1005.085	374.34
1005.444	252.63
1005.804	290.08
1006.163	271.36
1006.522	327.53
1006.881	339.23
1007.24	269.02
1007.599	259.65
1007.958	306.46
1008.317	278.38
1008.676	304.12
1009.035	306.46
1009.393	269.02
1009.752	362.64
1010.111	409.45
1010.469	383.7
1010.828	311.14
1011.186	259.65
1011.544	306.46
1011.903	283.06
1012.261	283.06
1012.619	229.23
1012.977	231.57
1013.335	343.91
1013.693	308.8
1014.051	332.21
1014.409	350.93
1014.767	297.1
1015.124	301.78
1015.482	320.51
1015.84	290.08
1016.197	341.57
1016.555	353.27
1016.912	322.85
1017.269	276.04
1017.627	297.1
1017.984	322.85
1018.341	339.23
1018.698	271.36
1019.055	341.57
1019.412	311.14
1019.769	322.85
1020.126	290.08
1020.483	278.38
1020.84	290.08
1021.196	393.06
1021.553	252.63
1021.909	343.91
1022.266	315.83
1022.622	357.96
1022.979	320.51
1023.335	367.32
1023.691	254.97
1024.047	283.06
1024.404	364.98
1024.76	346.25
1025.116	304.12
1025.472	276.04
1025.827	304.12
1026.183	254.97
1026.539	301.78
1026.895	350.93
1027.25	276.04
1027.606	364.98
1027.961	280.72
1028.317	308.8
1028.672	327.53
1029.028	238.59
1029.383	311.14
1029.738	292.42
1030.093	301.78
1030.448	315.83
1030.803	280.72
1031.158	327.53
1031.513	276.04
1031.868	294.76
1032.223	372
1032.577	315.83
1032.932	301.78
1033.287	336.89
1033.641	280.72
1033.996	301.78
1034.35	357.96
1034.704	313.49
1035.059	311.14
1035.413	297.1
1035.767	297.1
1036.121	297.1
