Data from Al_FLMS009871__542__14-43-33-020.txt Node

Date: Fri Mar 08 14:43:33 CST 2024
User: pe5414po
Spectrometer: FLMS00987
Trigger mode: 0
Integration Time (sec): 1.000000E-1
Scans to average: 1
Electric dark correction enabled: true
Nonlinearity correction enabled: false
Boxcar width: 0
XAxis mode: Wavelengths
Number of Pixels in Spectrum: 2048
>>>>>Begin Spectral Data<<<<<
188.938	-56.03
189.409	-56.03
189.879	-56.03
190.349	-163.69
190.819	-121.56
191.29	-79.43
191.76	-74.75
192.23	-112.2
192.7	-86.45
193.17	-98.16
193.64	-58.37
194.109	-37.3
194.579	0.15
195.049	-6.88
195.519	-2.19
195.988	16.53
196.458	89.09
196.927	61
197.397	89.09
197.866	171.01
198.336	128.88
198.805	161.64
199.274	161.64
199.744	128.88
200.213	154.62
200.682	208.45
201.151	285.69
201.62	224.84
202.089	217.82
202.558	241.22
203.027	257.61
203.495	236.54
203.964	299.73
204.433	243.56
204.902	283.35
205.37	264.63
205.839	252.92
206.307	252.92
206.776	337.18
207.244	248.24
207.712	276.33
208.181	290.37
208.649	304.42
209.117	243.56
209.585	231.86
210.053	288.03
210.521	271.65
210.989	344.21
211.457	304.42
211.925	264.63
212.393	231.86
212.861	285.69
213.328	236.54
213.796	288.03
214.264	252.92
214.731	255.26
215.199	306.76
215.666	276.33
216.133	306.76
216.601	323.14
217.068	276.33
217.535	273.99
218.003	217.82
218.47	241.22
218.937	241.22
219.404	273.99
219.871	271.65
220.338	295.05
220.805	269.31
221.271	250.58
221.738	201.43
222.205	257.61
222.671	231.86
223.138	269.31
223.605	222.5
224.071	231.86
224.538	255.26
225.004	241.22
225.47	297.39
225.937	292.71
226.403	217.82
226.869	276.33
227.335	241.22
227.801	311.44
228.267	234.2
228.733	332.5
229.199	236.54
229.665	278.67
230.131	262.29
230.597	304.42
231.062	227.18
231.528	299.73
231.994	241.22
232.459	285.69
232.925	306.76
233.39	248.24
233.856	201.43
234.321	288.03
234.786	273.99
235.252	306.76
235.717	297.39
236.182	297.39
236.647	302.08
237.112	276.33
237.577	273.99
238.042	316.12
238.507	292.71
238.972	266.97
239.436	297.39
239.901	271.65
240.366	273.99
240.83	299.73
241.295	264.63
241.76	250.58
242.224	276.33
242.688	309.1
243.153	327.82
243.617	304.42
244.081	269.31
244.545	288.03
245.01	299.73
245.474	323.14
245.938	241.22
246.402	311.44
246.866	227.18
247.33	304.42
247.793	273.99
248.257	292.71
248.721	318.46
249.185	281.01
249.648	316.12
250.112	220.16
250.575	271.65
251.039	262.29
251.502	257.61
251.965	264.63
252.429	283.35
252.892	295.05
253.355	327.82
253.818	241.22
254.281	281.01
254.744	299.73
255.207	273.99
255.67	266.97
256.133	334.84
256.596	276.33
257.059	271.65
257.522	285.69
257.984	241.22
258.447	269.31
258.909	292.71
259.372	313.78
259.834	273.99
260.297	339.52
260.759	325.48
261.221	327.82
261.684	288.03
262.146	295.05
262.608	276.33
263.07	297.39
263.532	276.33
263.994	292.71
264.456	245.9
264.918	278.67
265.38	292.71
265.842	348.89
266.303	262.29
266.765	309.1
267.227	236.54
267.688	248.24
268.15	313.78
268.611	281.01
269.072	271.65
269.534	295.05
269.995	283.35
270.456	269.31
270.918	257.61
271.379	257.61
271.84	292.71
272.301	276.33
272.762	283.35
273.223	269.31
273.684	241.22
274.144	374.63
274.605	320.8
275.066	276.33
275.527	278.67
275.987	297.39
276.448	337.18
276.908	351.23
277.369	316.12
277.829	320.8
278.289	292.71
278.75	295.05
279.21	320.8
279.67	297.39
280.13	266.97
280.59	318.46
281.05	325.48
281.51	299.73
281.97	283.35
282.43	334.84
282.89	271.65
283.35	292.71
283.809	341.86
284.269	304.42
284.729	245.9
285.188	285.69
285.648	271.65
286.107	273.99
286.567	330.16
287.026	304.42
287.485	334.84
287.944	332.5
288.404	290.37
288.863	248.24
289.322	334.84
289.781	255.26
290.24	231.86
290.699	313.78
291.158	278.67
291.616	320.8
292.075	313.78
292.534	269.31
292.992	334.84
293.451	278.67
293.91	313.78
294.368	292.71
294.827	325.48
295.285	269.31
295.743	292.71
296.202	306.76
296.66	262.29
297.118	376.97
297.576	255.26
298.034	346.55
298.492	330.16
298.95	313.78
299.408	295.05
299.866	323.14
300.324	276.33
300.781	295.05
301.239	311.44
301.697	320.8
302.154	269.31
302.612	325.48
303.069	245.9
303.527	276.33
303.984	295.05
304.441	273.99
304.899	241.22
305.356	295.05
305.813	269.31
306.27	288.03
306.727	299.73
307.184	306.76
307.641	283.35
308.098	278.67
308.555	306.76
309.012	299.73
309.468	273.99
309.925	243.56
310.382	297.39
310.838	362.93
311.295	309.1
311.751	262.29
312.208	238.88
312.664	227.18
313.12	334.84
313.577	266.97
314.033	332.5
314.489	344.21
314.945	323.14
315.401	316.12
315.857	311.44
316.313	316.12
316.769	273.99
317.225	334.84
317.681	339.52
318.136	299.73
318.592	241.22
319.048	276.33
319.503	283.35
319.959	337.18
320.414	318.46
320.869	283.35
321.325	231.86
321.78	318.46
322.235	369.95
322.691	332.5
323.146	309.1
323.601	325.48
324.056	281.01
324.511	344.21
324.966	325.48
325.421	332.5
325.875	264.63
326.33	388.68
326.785	386.33
327.24	320.8
327.694	339.52
328.149	276.33
328.603	297.39
329.058	299.73
329.512	276.33
329.966	346.55
330.421	320.8
330.875	316.12
331.329	252.92
331.783	316.12
332.237	252.92
332.691	379.31
333.145	269.31
333.599	313.78
334.053	339.52
334.507	327.82
334.96	316.12
335.414	264.63
335.868	283.35
336.321	285.69
336.775	290.37
337.228	344.21
337.682	299.73
338.135	327.82
338.588	311.44
339.042	295.05
339.495	288.03
339.948	355.91
340.401	295.05
340.854	276.33
341.307	362.93
341.76	273.99
342.213	309.1
342.666	320.8
343.119	334.84
343.571	330.16
344.024	299.73
344.477	318.46
344.929	332.5
345.382	288.03
345.834	313.78
346.287	285.69
346.739	332.5
347.191	236.54
347.644	320.8
348.096	306.76
348.548	348.89
349	348.89
349.452	299.73
349.904	341.86
350.356	288.03
350.808	332.5
351.26	327.82
351.711	252.92
352.163	358.25
352.615	320.8
353.066	367.61
353.518	369.95
353.969	351.23
354.421	337.18
354.872	412.08
355.324	337.18
355.775	283.35
356.226	278.67
356.677	285.69
357.128	374.63
357.579	281.01
358.03	285.69
358.481	250.58
358.932	306.76
359.383	299.73
359.834	365.27
360.285	283.35
360.735	330.16
361.186	330.16
361.637	327.82
362.087	355.91
362.538	332.5
362.988	323.14
363.438	327.82
363.889	299.73
364.339	313.78
364.789	273.99
365.239	292.71
365.689	369.95
366.139	337.18
366.589	376.97
367.039	266.97
367.489	318.46
367.939	344.21
368.389	262.29
368.839	346.55
369.288	273.99
369.738	252.92
370.187	320.8
370.637	323.14
371.086	332.5
371.536	332.5
371.985	313.78
372.434	234.2
372.884	395.7
373.333	306.76
373.782	339.52
374.231	325.48
374.68	323.14
375.129	332.5
375.578	297.39
376.027	360.59
376.475	344.21
376.924	297.39
377.373	306.76
377.822	264.63
378.27	283.35
378.719	306.76
379.167	376.97
379.616	353.57
380.064	323.14
380.512	309.1
380.961	358.25
381.409	299.73
381.857	344.21
382.305	302.08
382.753	299.73
383.201	285.69
383.649	295.05
384.097	311.44
384.545	257.61
384.992	327.82
385.44	325.48
385.888	297.39
386.335	276.33
386.783	278.67
387.231	332.5
387.678	255.26
388.125	311.44
388.573	334.84
389.02	334.84
389.467	283.35
389.914	285.69
390.362	341.86
390.809	348.89
391.256	330.16
391.703	337.18
392.15	316.12
392.596	306.76
393.043	276.33
393.49	290.37
393.937	369.95
394.383	334.84
394.83	245.9
395.276	358.25
395.723	313.78
396.169	339.52
396.616	334.84
397.062	295.05
397.508	309.1
397.954	273.99
398.401	341.86
398.847	302.08
399.293	259.95
399.739	341.86
400.185	388.68
400.631	306.76
401.076	346.55
401.522	414.42
401.968	311.44
402.414	330.16
402.859	320.8
403.305	281.01
403.75	295.05
404.196	369.95
404.641	360.59
405.086	309.1
405.532	323.14
405.977	316.12
406.422	273.99
406.867	306.76
407.312	332.5
407.757	273.99
408.202	344.21
408.647	248.24
409.092	255.26
409.537	325.48
409.982	327.82
410.426	334.84
410.871	292.71
411.316	290.37
411.76	236.54
412.205	313.78
412.649	269.31
413.093	304.42
413.538	299.73
413.982	318.46
414.426	283.35
414.87	358.25
415.314	306.76
415.758	304.42
416.202	276.33
416.646	257.61
417.09	323.14
417.534	278.67
417.978	269.31
418.421	334.84
418.865	316.12
419.309	306.76
419.752	302.08
420.196	311.44
420.639	348.89
421.083	334.84
421.526	330.16
421.969	327.82
422.412	327.82
422.856	290.37
423.299	292.71
423.742	327.82
424.185	355.91
424.628	323.14
425.071	318.46
425.513	318.46
425.956	299.73
426.399	229.52
426.842	316.12
427.284	323.14
427.727	332.5
428.169	323.14
428.612	278.67
429.054	316.12
429.497	292.71
429.939	330.16
430.381	255.26
430.823	320.8
431.265	316.12
431.707	332.5
432.149	337.18
432.591	248.24
433.033	276.33
433.475	306.76
433.917	334.84
434.359	374.63
434.8	306.76
435.242	269.31
435.684	339.52
436.125	320.8
436.567	337.18
437.008	311.44
437.449	344.21
437.891	332.5
438.332	313.78
438.773	323.14
439.214	309.1
439.656	348.89
440.097	227.18
440.538	316.12
440.978	339.52
441.419	327.82
441.86	276.33
442.301	379.31
442.742	297.39
443.182	327.82
443.623	304.42
444.063	264.63
444.504	344.21
444.944	306.76
445.385	332.5
445.825	292.71
446.265	281.01
446.706	334.84
447.146	330.16
447.586	311.44
448.026	309.1
448.466	332.5
448.906	339.52
449.346	299.73
449.786	318.46
450.225	337.18
450.665	325.48
451.105	304.42
451.544	304.42
451.984	252.92
452.424	318.46
452.863	264.63
453.302	306.76
453.742	339.52
454.181	271.65
454.62	332.5
455.059	318.46
455.499	358.25
455.938	243.56
456.377	266.97
456.816	381.65
457.254	360.59
457.693	281.01
458.132	252.92
458.571	325.48
459.01	334.84
459.448	330.16
459.887	285.69
460.325	318.46
460.764	255.26
461.202	273.99
461.641	309.1
462.079	245.9
462.517	224.84
462.955	327.82
463.393	351.23
463.832	313.78
464.27	295.05
464.708	398.04
465.145	341.86
465.583	320.8
466.021	273.99
466.459	339.52
466.897	339.52
467.334	330.16
467.772	327.82
468.209	360.59
468.647	318.46
469.084	369.95
469.522	341.86
469.959	318.46
470.396	334.84
470.833	327.82
471.271	306.76
471.708	316.12
472.145	276.33
472.582	269.31
473.019	327.82
473.456	255.26
473.892	273.99
474.329	297.39
474.766	316.12
475.202	337.18
475.639	299.73
476.076	355.91
476.512	334.84
476.949	306.76
477.385	388.68
477.821	318.46
478.258	323.14
478.694	273.99
479.13	316.12
479.566	306.76
480.002	248.24
480.438	348.89
480.874	346.55
481.31	362.93
481.746	302.08
482.181	325.48
482.617	299.73
483.053	271.65
483.488	302.08
483.924	337.18
484.36	302.08
484.795	313.78
485.23	290.37
485.666	355.91
486.101	337.18
486.536	318.46
486.971	283.35
487.407	271.65
487.842	313.78
488.277	299.73
488.712	327.82
489.146	323.14
489.581	318.46
490.016	311.44
490.451	327.82
490.885	295.05
491.32	278.67
491.755	299.73
492.189	290.37
492.624	323.14
493.058	264.63
493.492	306.76
493.927	295.05
494.361	281.01
494.795	400.38
495.229	313.78
495.663	264.63
496.097	391.02
496.531	332.5
496.965	362.93
497.399	264.63
497.833	304.42
498.266	288.03
498.7	306.76
499.134	297.39
499.567	304.42
500.001	283.35
500.434	339.52
500.868	330.16
501.301	259.95
501.734	320.8
502.168	313.78
502.601	379.31
503.034	299.73
503.467	306.76
503.9	332.5
504.333	306.76
504.766	297.39
505.199	351.23
505.632	372.29
506.064	278.67
506.497	320.8
506.93	273.99
507.362	316.12
507.795	306.76
508.227	227.18
508.66	304.42
509.092	341.86
509.524	236.54
509.956	292.71
510.389	355.91
510.821	330.16
511.253	344.21
511.685	318.46
512.117	304.42
512.549	332.5
512.981	295.05
513.412	306.76
513.844	318.46
514.276	269.31
514.707	325.48
515.139	334.84
515.571	344.21
516.002	318.46
516.433	348.89
516.865	353.57
517.296	255.26
517.727	381.65
518.159	304.42
518.59	351.23
519.021	278.67
519.452	355.91
519.883	292.71
520.314	288.03
520.744	292.71
521.175	372.29
521.606	309.1
522.037	285.69
522.467	255.26
522.898	295.05
523.328	302.08
523.759	304.42
524.189	325.48
524.62	309.1
525.05	334.84
525.48	271.65
525.91	302.08
526.341	288.03
526.771	313.78
527.201	330.16
527.631	276.33
528.061	355.91
528.49	344.21
528.92	283.35
529.35	327.82
529.78	297.39
530.209	276.33
530.639	348.89
531.068	290.37
531.498	299.73
531.927	339.52
532.357	339.52
532.786	327.82
533.215	309.1
533.644	351.23
534.074	341.86
534.503	369.95
534.932	318.46
535.361	313.78
535.79	362.93
536.218	292.71
536.647	353.57
537.076	379.31
537.505	395.7
537.933	330.16
538.362	290.37
538.79	325.48
539.219	334.84
539.647	309.1
540.076	332.5
540.504	281.01
540.932	339.52
541.36	391.02
541.788	295.05
542.217	353.57
542.645	248.24
543.073	309.1
543.5	302.08
543.928	283.35
544.356	273.99
544.784	334.84
545.211	388.68
545.639	341.86
546.067	388.68
546.494	304.42
546.922	231.86
547.349	376.97
547.776	339.52
548.204	367.61
548.631	320.8
549.058	372.29
549.485	332.5
549.912	262.29
550.339	304.42
550.766	379.31
551.193	292.71
551.62	330.16
552.047	304.42
552.474	330.16
552.9	320.8
553.327	346.55
553.754	295.05
554.18	311.44
554.607	290.37
555.033	327.82
555.459	304.42
555.886	278.67
556.312	323.14
556.738	281.01
557.164	309.1
557.59	311.44
558.016	325.48
558.442	367.61
558.868	327.82
559.294	295.05
559.72	276.33
560.145	297.39
560.571	295.05
560.997	309.1
561.422	362.93
561.848	306.76
562.273	278.67
562.699	339.52
563.124	383.99
563.549	316.12
563.974	316.12
564.4	302.08
564.825	355.91
565.25	309.1
565.675	302.08
566.1	311.44
566.525	346.55
566.95	383.99
567.374	290.37
567.799	332.5
568.224	398.04
568.648	379.31
569.073	355.91
569.497	290.37
569.922	372.29
570.346	376.97
570.771	372.29
571.195	398.04
571.619	327.82
572.043	339.52
572.467	281.01
572.891	288.03
573.315	320.8
573.739	313.78
574.163	327.82
574.587	243.56
575.011	316.12
575.435	341.86
575.858	372.29
576.282	332.5
576.705	285.69
577.129	358.25
577.552	348.89
577.976	348.89
578.399	292.71
578.822	320.8
579.245	360.59
579.669	285.69
580.092	309.1
580.515	351.23
580.938	332.5
581.361	311.44
581.784	283.35
582.206	299.73
582.629	334.84
583.052	292.71
583.474	309.1
583.897	257.61
584.32	304.42
584.742	330.16
585.165	243.56
585.587	257.61
586.009	278.67
586.431	283.35
586.854	299.73
587.276	281.01
587.698	334.84
588.12	259.95
588.542	299.73
588.964	318.46
589.386	266.97
589.807	288.03
590.229	353.57
590.651	332.5
591.073	346.55
591.494	283.35
591.916	302.08
592.337	334.84
592.759	325.48
593.18	341.86
593.601	355.91
594.022	220.16
594.444	330.16
594.865	325.48
595.286	348.89
595.707	388.68
596.128	273.99
596.549	281.01
596.97	302.08
597.39	318.46
597.811	259.95
598.232	299.73
598.652	295.05
599.073	346.55
599.494	374.63
599.914	297.39
600.334	346.55
600.755	339.52
601.175	299.73
601.595	346.55
602.015	292.71
602.436	337.18
602.856	524.43
603.276	369.95
603.696	309.1
604.115	234.2
604.535	318.46
604.955	299.73
605.375	302.08
605.794	379.31
606.214	346.55
606.634	379.31
607.053	262.29
607.473	295.05
607.892	358.25
608.311	355.91
608.731	325.48
609.15	360.59
609.569	306.76
609.988	332.5
610.407	337.18
610.826	428.46
611.245	316.12
611.664	334.84
612.083	334.84
612.501	365.27
612.92	278.67
613.339	231.86
613.757	292.71
614.176	316.12
614.594	341.86
615.013	367.61
615.431	316.12
615.85	318.46
616.268	320.8
616.686	283.35
617.104	290.37
617.522	316.12
617.94	332.5
618.358	309.1
618.776	355.91
619.194	323.14
619.612	330.16
620.03	297.39
620.447	332.5
620.865	374.63
621.282	316.12
621.7	299.73
622.117	297.39
622.535	297.39
622.952	313.78
623.369	213.14
623.787	323.14
624.204	325.48
624.621	372.29
625.038	320.8
625.455	344.21
625.872	348.89
626.289	297.39
626.706	264.63
627.123	299.73
627.539	353.57
627.956	299.73
628.373	306.76
628.789	276.33
629.206	383.99
629.622	334.84
630.038	332.5
630.455	288.03
630.871	292.71
631.287	393.36
631.703	362.93
632.12	367.61
632.536	381.65
632.952	313.78
633.368	266.97
633.783	344.21
634.199	224.84
634.615	334.84
635.031	339.52
635.446	273.99
635.862	330.16
636.277	341.86
636.693	344.21
637.108	323.14
637.524	393.36
637.939	323.14
638.354	325.48
638.77	288.03
639.185	325.48
639.6	224.84
640.015	292.71
640.43	283.35
640.845	344.21
641.259	372.29
641.674	271.65
642.089	313.78
642.504	309.1
642.918	306.76
643.333	292.71
643.747	248.24
644.162	311.44
644.576	313.78
644.991	292.71
645.405	299.73
645.819	330.16
646.233	290.37
646.647	320.8
647.061	369.95
647.475	313.78
647.889	327.82
648.303	360.59
648.717	252.92
649.131	273.99
649.545	273.99
649.958	327.82
650.372	264.63
650.785	266.97
651.199	323.14
651.612	374.63
652.026	327.82
652.439	309.1
652.852	311.44
653.266	292.71
653.679	281.01
654.092	309.1
654.505	285.69
654.918	346.55
655.331	360.59
655.744	276.33
656.156	299.73
656.569	348.89
656.982	341.86
657.394	316.12
657.807	330.16
658.22	313.78
658.632	309.1
659.044	297.39
659.457	325.48
659.869	281.01
660.281	311.44
660.693	323.14
661.106	311.44
661.518	311.44
661.93	313.78
662.342	304.42
662.754	259.95
663.165	313.78
663.577	271.65
663.989	316.12
664.401	292.71
664.812	269.31
665.224	297.39
665.635	309.1
666.047	269.31
666.458	281.01
666.869	288.03
667.281	334.84
667.692	281.01
668.103	330.16
668.514	323.14
668.925	316.12
669.336	367.61
669.747	295.05
670.158	285.69
670.569	316.12
670.979	325.48
671.39	327.82
671.801	311.44
672.211	325.48
672.622	273.99
673.032	362.93
673.443	355.91
673.853	374.63
674.263	288.03
674.674	304.42
675.084	269.31
675.494	299.73
675.904	281.01
676.314	316.12
676.724	306.76
677.134	320.8
677.544	323.14
677.953	355.91
678.363	362.93
678.773	316.12
679.182	341.86
679.592	386.33
680.001	304.42
680.411	292.71
680.82	376.97
681.23	344.21
681.639	229.52
682.048	330.16
682.457	318.46
682.866	304.42
683.275	288.03
683.684	330.16
684.093	290.37
684.502	299.73
684.911	283.35
685.32	316.12
685.728	355.91
686.137	323.14
686.546	285.69
686.954	374.63
687.363	311.44
687.771	323.14
688.179	320.8
688.588	339.52
688.996	285.69
689.404	290.37
689.812	372.29
690.22	323.14
690.628	281.01
691.036	306.76
691.444	318.46
691.852	334.84
692.26	405.06
692.667	379.31
693.075	302.08
693.483	346.55
693.89	269.31
694.298	355.91
694.705	334.84
695.112	374.63
695.52	257.61
695.927	353.57
696.334	327.82
696.741	269.31
697.148	313.78
697.555	288.03
697.962	325.48
698.369	248.24
698.776	311.44
699.183	269.31
699.59	325.48
699.996	278.67
700.403	283.35
700.81	309.1
701.216	414.42
701.623	339.52
702.029	292.71
702.435	304.42
702.842	285.69
703.248	257.61
703.654	299.73
704.06	318.46
704.466	320.8
704.872	381.65
705.278	353.57
705.684	313.78
706.09	379.31
706.496	299.73
706.901	269.31
707.307	316.12
707.712	358.25
708.118	353.57
708.523	351.23
708.929	358.25
709.334	227.18
709.74	290.37
710.145	302.08
710.55	362.93
710.955	276.33
711.36	281.01
711.765	309.1
712.17	374.63
712.575	302.08
712.98	835.72
713.385	365.27
713.789	337.18
714.194	365.27
714.599	271.65
715.003	388.68
715.408	309.1
715.812	323.14
716.217	304.42
716.621	304.42
717.025	306.76
717.429	304.42
717.833	344.21
718.238	292.71
718.642	320.8
719.046	269.31
719.449	273.99
719.853	311.44
720.257	351.23
720.661	299.73
721.065	320.8
721.468	313.78
721.872	341.86
722.275	344.21
722.679	285.69
723.082	323.14
723.485	325.48
723.889	339.52
724.292	250.58
724.695	348.89
725.098	316.12
725.501	320.8
725.904	304.42
726.307	306.76
726.71	332.5
727.113	320.8
727.516	281.01
727.918	297.39
728.321	353.57
728.724	316.12
729.126	304.42
729.529	332.5
729.931	269.31
730.333	334.84
730.736	311.44
731.138	283.35
731.54	269.31
731.942	241.22
732.344	306.76
732.746	337.18
733.148	276.33
733.55	330.16
733.952	320.8
734.354	320.8
734.756	318.46
735.157	259.95
735.559	309.1
735.96	365.27
736.362	346.55
736.763	332.5
737.165	320.8
737.566	318.46
737.967	304.42
738.368	304.42
738.77	278.67
739.171	332.5
739.572	318.46
739.973	273.99
740.374	325.48
740.774	302.08
741.175	358.25
741.576	309.1
741.977	313.78
742.377	311.44
742.778	332.5
743.178	290.37
743.579	332.5
743.979	330.16
744.379	304.42
744.78	334.84
745.18	271.65
745.58	292.71
745.98	266.97
746.38	325.48
746.78	344.21
747.18	309.1
747.58	262.29
747.98	306.76
748.38	311.44
748.779	273.99
749.179	304.42
749.578	388.68
749.978	344.21
750.377	383.99
750.777	374.63
751.176	334.84
751.575	330.16
751.975	358.25
752.374	318.46
752.773	224.84
753.172	367.61
753.571	285.69
753.97	323.14
754.369	290.37
754.768	266.97
755.166	299.73
755.565	330.16
755.964	330.16
756.362	299.73
756.761	325.48
757.159	266.97
757.558	341.86
757.956	313.78
758.354	271.65
758.753	302.08
759.151	311.44
759.549	386.33
759.947	334.84
760.345	323.14
760.743	304.42
761.141	290.37
761.539	304.42
761.936	297.39
762.334	283.35
762.732	311.44
763.129	295.05
763.527	344.21
763.924	320.8
764.322	304.42
764.719	327.82
765.117	241.22
765.514	255.26
765.911	318.46
766.308	330.16
766.705	313.78
767.102	358.25
767.499	234.2
767.896	234.2
768.293	295.05
768.69	292.71
769.086	346.55
769.483	318.46
769.88	299.73
770.276	250.58
770.673	379.31
771.069	369.95
771.466	309.1
771.862	332.5
772.258	292.71
772.654	306.76
773.05	297.39
773.447	299.73
773.843	320.8
774.239	318.46
774.634	297.39
775.03	292.71
775.426	318.46
775.822	295.05
776.218	285.69
776.613	320.8
777.009	309.1
777.404	341.86
777.8	278.67
778.195	376.97
778.59	285.69
778.986	365.27
779.381	348.89
779.776	236.54
780.171	346.55
780.566	269.31
780.961	281.01
781.356	309.1
781.751	360.59
782.146	323.14
782.54	330.16
782.935	355.91
783.33	309.1
783.724	297.39
784.119	288.03
784.513	304.42
784.908	318.46
785.302	332.5
785.696	367.61
786.09	344.21
786.485	330.16
786.879	332.5
787.273	288.03
787.667	309.1
788.061	334.84
788.454	290.37
788.848	325.48
789.242	302.08
789.636	266.97
790.029	362.93
790.423	304.42
790.816	255.26
791.21	285.69
791.603	320.8
791.997	367.61
792.39	302.08
792.783	290.37
793.176	273.99
793.569	299.73
793.962	304.42
794.355	299.73
794.748	252.92
795.141	262.29
795.534	318.46
795.927	278.67
796.319	285.69
796.712	248.24
797.105	337.18
797.497	309.1
797.89	292.71
798.282	330.16
798.674	353.57
799.067	346.55
799.459	290.37
799.851	369.95
800.243	355.91
800.635	344.21
801.027	281.01
801.419	323.14
801.811	306.76
802.203	313.78
802.594	255.26
802.986	341.86
803.378	372.29
803.769	302.08
804.161	269.31
804.552	309.1
804.944	283.35
805.335	330.16
805.726	309.1
806.118	339.52
806.509	327.82
806.9	304.42
807.291	346.55
807.682	266.97
808.073	276.33
808.464	313.78
808.855	269.31
809.245	299.73
809.636	311.44
810.027	292.71
810.417	297.39
810.808	330.16
811.198	365.27
811.589	313.78
811.979	313.78
812.369	316.12
812.759	304.42
813.15	309.1
813.54	288.03
813.93	264.63
814.32	325.48
814.71	297.39
815.1	257.61
815.489	283.35
815.879	238.88
816.269	367.61
816.658	297.39
817.048	292.71
817.438	266.97
817.827	283.35
818.216	290.37
818.606	311.44
818.995	290.37
819.384	334.84
819.773	276.33
820.163	304.42
820.552	271.65
820.941	243.56
821.33	353.57
821.718	376.97
822.107	288.03
822.496	281.01
822.885	271.65
823.273	269.31
823.662	271.65
824.05	311.44
824.439	332.5
824.827	252.92
825.216	311.44
825.604	271.65
825.992	393.36
826.38	339.52
826.768	351.23
827.156	281.01
827.544	276.33
827.932	327.82
828.32	262.29
828.708	302.08
829.096	327.82
829.483	283.35
829.871	295.05
830.259	304.42
830.646	271.65
831.034	262.29
831.421	341.86
831.808	288.03
832.196	288.03
832.583	257.61
832.97	276.33
833.357	259.95
833.744	259.95
834.131	330.16
834.518	297.39
834.905	325.48
835.292	292.71
835.678	250.58
836.065	271.65
836.452	311.44
836.838	269.31
837.225	243.56
837.611	306.76
837.998	369.95
838.384	355.91
838.77	292.71
839.157	332.5
839.543	376.97
839.929	278.67
840.315	327.82
840.701	290.37
841.087	325.48
841.473	332.5
841.858	278.67
842.244	276.33
842.63	318.46
843.015	344.21
843.401	625.07
843.787	288.03
844.172	325.48
844.557	337.18
844.943	344.21
845.328	241.22
845.713	288.03
846.098	227.18
846.483	285.69
846.868	316.12
847.253	320.8
847.638	297.39
848.023	257.61
848.408	330.16
848.793	302.08
849.177	313.78
849.562	362.93
849.947	283.35
850.331	309.1
850.715	295.05
851.1	255.26
851.484	344.21
851.868	332.5
852.253	271.65
852.637	316.12
853.021	318.46
853.405	316.12
853.789	381.65
854.173	262.29
854.557	330.16
854.94	360.59
855.324	344.21
855.708	334.84
856.091	304.42
856.475	323.14
856.858	334.84
857.242	292.71
857.625	316.12
858.009	320.8
858.392	278.67
858.775	302.08
859.158	295.05
859.541	316.12
859.924	271.65
860.307	250.58
860.69	332.5
861.073	316.12
861.456	255.26
861.838	374.63
862.221	316.12
862.604	269.31
862.986	311.44
863.369	266.97
863.751	355.91
864.133	311.44
864.516	325.48
864.898	266.97
865.28	306.76
865.662	318.46
866.044	304.42
866.426	339.52
866.808	302.08
867.19	330.16
867.572	337.18
867.954	259.95
868.336	313.78
868.717	285.69
869.099	248.24
869.48	252.92
869.862	320.8
870.243	311.44
870.625	259.95
871.006	264.63
871.387	238.88
871.768	276.33
872.149	299.73
872.53	325.48
872.911	295.05
873.292	283.35
873.673	320.8
874.054	299.73
874.435	306.76
874.815	311.44
875.196	323.14
875.577	346.55
875.957	304.42
876.338	292.71
876.718	318.46
877.098	283.35
877.479	313.78
877.859	330.16
878.239	337.18
878.619	252.92
878.999	374.63
879.379	297.39
879.759	337.18
880.139	360.59
880.519	332.5
880.898	313.78
881.278	306.76
881.658	304.42
882.037	348.89
882.417	302.08
882.796	292.71
883.176	288.03
883.555	320.8
883.934	346.55
884.313	309.1
884.693	355.91
885.072	325.48
885.451	355.91
885.83	365.27
886.209	341.86
886.587	266.97
886.966	292.71
887.345	304.42
887.724	262.29
888.102	278.67
888.481	330.16
888.859	332.5
889.238	302.08
889.616	332.5
889.994	316.12
890.373	281.01
890.751	320.8
891.129	309.1
891.507	311.44
891.885	269.31
892.263	341.86
892.641	309.1
893.019	295.05
893.396	327.82
893.774	269.31
894.152	391.02
894.529	379.31
894.907	273.99
895.284	285.69
895.662	316.12
896.039	283.35
896.416	292.71
896.794	290.37
897.171	367.61
897.548	311.44
897.925	234.2
898.302	304.42
898.679	323.14
899.056	346.55
899.433	262.29
899.809	332.5
900.186	264.63
900.563	283.35
900.939	341.86
901.316	285.69
901.692	245.9
902.069	318.46
902.445	351.23
902.821	302.08
903.197	302.08
903.574	285.69
903.95	304.42
904.326	278.67
904.702	327.82
905.078	262.29
905.454	297.39
905.829	316.12
906.205	325.48
906.581	243.56
906.956	383.99
907.332	334.84
907.707	358.25
908.083	269.31
908.458	313.78
908.833	313.78
909.209	269.31
909.584	355.91
909.959	353.57
910.334	292.71
910.709	353.57
911.084	259.95
911.459	323.14
911.834	325.48
912.209	346.55
912.583	273.99
912.958	292.71
913.333	348.89
913.707	306.76
914.082	318.46
914.456	234.2
914.83	299.73
915.205	327.82
915.579	259.95
915.953	285.69
916.327	355.91
916.701	313.78
917.075	309.1
917.449	306.76
917.823	273.99
918.197	295.05
918.571	302.08
918.944	299.73
919.318	334.84
919.692	299.73
920.065	297.39
920.438	290.37
920.812	299.73
921.185	339.52
921.558	323.14
921.932	292.71
922.305	285.69
922.678	351.23
923.051	337.18
923.424	278.67
923.797	299.73
924.17	264.63
924.542	334.84
924.915	323.14
925.288	330.16
925.661	299.73
926.033	309.1
926.406	255.26
926.778	302.08
927.15	295.05
927.523	313.78
927.895	304.42
928.267	365.27
928.639	234.2
929.011	306.76
929.383	227.18
929.755	358.25
930.127	257.61
930.499	215.48
930.871	250.58
931.242	351.23
931.614	332.5
931.986	348.89
932.357	332.5
932.729	278.67
933.1	339.52
933.471	316.12
933.843	281.01
934.214	292.71
934.585	269.31
934.956	285.69
935.327	311.44
935.698	281.01
936.069	299.73
936.44	395.7
936.811	320.8
937.182	276.33
937.552	248.24
937.923	341.86
938.293	304.42
938.664	295.05
939.034	320.8
939.405	306.76
939.775	264.63
940.145	283.35
940.516	306.76
940.886	295.05
941.256	269.31
941.626	351.23
941.996	337.18
942.366	306.76
942.735	409.74
943.105	311.44
943.475	381.65
943.845	299.73
944.214	348.89
944.584	362.93
944.953	341.86
945.323	311.44
945.692	346.55
946.061	318.46
946.43	372.29
946.8	400.38
947.169	299.73
947.538	313.78
947.907	309.1
948.276	316.12
948.645	344.21
949.013	365.27
949.382	330.16
949.751	304.42
950.119	292.71
950.488	353.57
950.857	323.14
951.225	369.95
951.593	269.31
951.962	262.29
952.33	306.76
952.698	259.95
953.066	348.89
953.434	259.95
953.802	327.82
954.17	311.44
954.538	302.08
954.906	262.29
955.274	306.76
955.642	341.86
956.009	299.73
956.377	281.01
956.744	266.97
957.112	278.67
957.479	292.71
957.847	313.78
958.214	295.05
958.581	414.42
958.948	250.58
959.315	290.37
959.683	362.93
960.05	339.52
960.416	266.97
960.783	259.95
961.15	257.61
961.517	288.03
961.884	393.36
962.25	288.03
962.617	348.89
962.983	334.84
963.35	283.35
963.716	290.37
964.082	372.29
964.449	252.92
964.815	306.76
965.181	346.55
965.547	304.42
965.913	297.39
966.279	341.86
966.645	334.84
967.011	295.05
967.377	330.16
967.742	283.35
968.108	320.8
968.474	339.52
968.839	288.03
969.205	374.63
969.57	304.42
969.935	318.46
970.301	351.23
970.666	292.71
971.031	383.99
971.396	348.89
971.761	266.97
972.126	288.03
972.491	332.5
972.856	365.27
973.221	290.37
973.586	264.63
973.95	259.95
974.315	339.52
974.679	285.69
975.044	332.5
975.408	327.82
975.773	283.35
976.137	271.65
976.501	325.48
976.866	330.16
977.23	285.69
977.594	327.82
977.958	346.55
978.322	330.16
978.686	327.82
979.049	316.12
979.413	337.18
979.777	299.73
980.141	299.73
980.504	346.55
980.868	311.44
981.231	290.37
981.595	309.1
981.958	271.65
982.321	360.59
982.684	327.82
983.048	332.5
983.411	266.97
983.774	262.29
984.137	330.16
984.5	290.37
984.862	334.84
985.225	311.44
985.588	252.92
985.951	332.5
986.313	299.73
986.676	316.12
987.038	281.01
987.401	285.69
987.763	325.48
988.125	327.82
988.488	297.39
988.85	332.5
989.212	316.12
989.574	362.93
989.936	295.05
990.298	236.54
990.66	325.48
991.022	283.35
991.383	344.21
991.745	362.93
992.107	318.46
992.468	311.44
992.83	318.46
993.191	362.93
993.553	325.48
993.914	248.24
994.275	388.68
994.637	309.1
994.998	283.35
995.359	330.16
995.72	334.84
996.081	241.22
996.442	295.05
996.803	313.78
997.163	318.46
997.524	278.67
997.885	278.67
998.245	311.44
998.606	325.48
998.966	299.73
999.327	330.16
999.687	334.84
1000.047	323.14
1000.408	292.71
1000.768	346.55
1001.128	281.01
1001.488	330.16
1001.848	283.35
1002.208	304.42
1002.568	206.11
1002.927	318.46
1003.287	318.46
1003.647	299.73
1004.007	320.8
1004.366	346.55
1004.726	304.42
1005.085	252.92
1005.444	285.69
1005.804	313.78
1006.163	248.24
1006.522	306.76
1006.881	327.82
1007.24	353.57
1007.599	325.48
1007.958	302.08
1008.317	316.12
1008.676	337.18
1009.035	330.16
1009.393	297.39
1009.752	341.86
1010.111	283.35
1010.469	351.23
1010.828	248.24
1011.186	264.63
1011.544	278.67
1011.903	341.86
1012.261	306.76
1012.619	320.8
1012.977	276.33
1013.335	283.35
1013.693	325.48
1014.051	255.26
1014.409	369.95
1014.767	320.8
1015.124	332.5
1015.482	334.84
1015.84	201.43
1016.197	306.76
1016.555	327.82
1016.912	372.29
1017.269	259.95
1017.627	283.35
1017.984	316.12
1018.341	285.69
1018.698	259.95
1019.055	372.29
1019.412	388.68
1019.769	278.67
1020.126	302.08
1020.483	273.99
1020.84	372.29
1021.196	311.44
1021.553	292.71
1021.909	327.82
1022.266	290.37
1022.622	245.9
1022.979	355.91
1023.335	276.33
1023.691	290.37
1024.047	285.69
1024.404	309.1
1024.76	276.33
1025.116	288.03
1025.472	285.69
1025.827	344.21
1026.183	313.78
1026.539	283.35
1026.895	344.21
1027.25	325.48
1027.606	344.21
1027.961	283.35
1028.317	318.46
1028.672	306.76
1029.028	297.39
1029.383	278.67
1029.738	262.29
1030.093	313.78
1030.448	278.67
1030.803	231.86
1031.158	320.8
1031.513	248.24
1031.868	339.52
1032.223	255.26
1032.577	339.52
1032.932	266.97
1033.287	358.25
1033.641	285.69
1033.996	304.42
1034.35	271.65
1034.704	241.22
1035.059	285.69
1035.413	311.44
1035.767	311.44
1036.121	311.44
