Data from Al_FLMS009871__554__14-43-34-220.txt Node

Date: Fri Mar 08 14:43:34 CST 2024
User: pe5414po
Spectrometer: FLMS00987
Trigger mode: 0
Integration Time (sec): 1.000000E-1
Scans to average: 1
Electric dark correction enabled: true
Nonlinearity correction enabled: false
Boxcar width: 0
XAxis mode: Wavelengths
Number of Pixels in Spectrum: 2048
>>>>>Begin Spectral Data<<<<<
188.938	-65.1
189.409	-65.1
189.879	-65.1
190.349	-51.05
190.819	-125.95
191.29	-51.05
191.76	-116.59
192.23	-114.25
192.7	-76.8
193.17	-34.67
193.64	-25.31
194.109	-62.76
194.579	-18.29
195.049	14.48
195.519	-48.71
195.988	7.46
196.458	54.27
196.927	70.65
197.397	133.85
197.866	80.02
198.336	187.68
198.805	145.55
199.274	91.72
199.744	213.43
200.213	190.02
200.682	211.09
201.151	311.73
201.62	215.77
202.089	215.77
202.558	283.64
203.027	255.56
203.495	250.88
203.964	211.09
204.433	285.98
204.902	302.37
205.37	288.32
205.839	248.54
206.307	297.69
206.776	264.92
207.244	236.83
207.712	323.43
208.181	283.64
208.649	239.17
209.117	353.86
209.585	311.73
210.053	278.96
210.521	232.15
210.989	293.01
211.457	285.98
211.925	283.64
212.393	323.43
212.861	262.58
213.328	339.82
213.796	250.88
214.264	307.05
214.731	269.6
215.199	220.45
215.666	264.92
216.133	290.67
216.601	267.26
217.068	248.54
217.535	269.6
218.003	264.92
218.47	309.39
218.937	269.6
219.404	293.01
219.871	243.85
220.338	246.2
220.805	262.58
221.271	234.49
221.738	208.75
222.205	304.71
222.671	232.15
223.138	229.81
223.605	253.22
224.071	293.01
224.538	288.32
225.004	257.9
225.47	274.28
225.937	248.54
226.403	297.69
226.869	318.75
227.335	232.15
227.801	278.96
228.267	269.6
228.733	323.43
229.199	290.67
229.665	234.49
230.131	253.22
230.597	304.71
231.062	246.2
231.528	290.67
231.994	271.94
232.459	314.07
232.925	232.15
233.39	335.14
233.856	342.16
234.321	248.54
234.786	302.37
235.252	220.45
235.717	328.11
236.182	264.92
236.647	274.28
237.112	274.28
237.577	293.01
238.042	318.75
238.507	269.6
238.972	302.37
239.436	194.7
239.901	316.41
240.366	248.54
240.83	229.81
241.295	330.45
241.76	374.92
242.224	201.72
242.688	344.5
243.153	278.96
243.617	325.77
244.081	215.77
244.545	246.2
245.01	276.62
245.474	262.58
245.938	314.07
246.402	271.94
246.866	232.15
247.33	264.92
247.793	281.3
248.257	293.01
248.721	267.26
249.185	215.77
249.648	250.88
250.112	300.03
250.575	250.88
251.039	321.09
251.502	323.43
251.965	248.54
252.429	281.3
252.892	248.54
253.355	297.69
253.818	274.28
254.281	297.69
254.744	239.17
255.207	302.37
255.67	271.94
256.133	260.24
256.596	295.35
257.059	307.05
257.522	297.69
257.984	234.49
258.447	295.35
258.909	269.6
259.372	290.67
259.834	342.16
260.297	295.35
260.759	344.5
261.221	351.52
261.684	360.88
262.146	264.92
262.608	264.92
263.07	234.49
263.532	255.56
263.994	264.92
264.456	330.45
264.918	311.73
265.38	271.94
265.842	241.51
266.303	227.47
266.765	325.77
267.227	307.05
267.688	318.75
268.15	370.24
268.611	255.56
269.072	309.39
269.534	290.67
269.995	281.3
270.456	227.47
270.918	297.69
271.379	262.58
271.84	215.77
272.301	304.71
272.762	260.24
273.223	285.98
273.684	300.03
274.144	300.03
274.605	283.64
275.066	356.2
275.527	302.37
275.987	295.35
276.448	328.11
276.908	316.41
277.369	281.3
277.829	293.01
278.289	274.28
278.75	267.26
279.21	262.58
279.67	276.62
280.13	367.9
280.59	283.64
281.05	278.96
281.51	290.67
281.97	246.2
282.43	293.01
282.89	325.77
283.35	257.9
283.809	239.17
284.269	288.32
284.729	250.88
285.188	225.13
285.648	311.73
286.107	307.05
286.567	337.48
287.026	314.07
287.485	295.35
287.944	302.37
288.404	314.07
288.863	276.62
289.322	377.27
289.781	260.24
290.24	335.14
290.699	302.37
291.158	311.73
291.616	386.63
292.075	346.84
292.534	314.07
292.992	307.05
293.451	335.14
293.91	250.88
294.368	290.67
294.827	302.37
295.285	276.62
295.743	220.45
296.202	262.58
296.66	290.67
297.118	344.5
297.576	311.73
298.034	283.64
298.492	225.13
298.95	337.48
299.408	271.94
299.866	339.82
300.324	311.73
300.781	328.11
301.239	332.79
301.697	295.35
302.154	236.83
302.612	269.6
303.069	314.07
303.527	288.32
303.984	293.01
304.441	297.69
304.899	285.98
305.356	302.37
305.813	267.26
306.27	330.45
306.727	351.52
307.184	283.64
307.641	274.28
308.098	321.09
308.555	307.05
309.012	264.92
309.468	293.01
309.925	293.01
310.382	311.73
310.838	346.84
311.295	307.05
311.751	260.24
312.208	349.18
312.664	246.2
313.12	253.22
313.577	314.07
314.033	370.24
314.489	293.01
314.945	339.82
315.401	271.94
315.857	302.37
316.313	363.22
316.769	372.58
317.225	297.69
317.681	281.3
318.136	325.77
318.592	342.16
319.048	328.11
319.503	309.39
319.959	276.62
320.414	356.2
320.869	339.82
321.325	295.35
321.78	276.62
322.235	311.73
322.691	304.71
323.146	335.14
323.601	325.77
324.056	288.32
324.511	302.37
324.966	297.69
325.421	314.07
325.875	356.2
326.33	295.35
326.785	250.88
327.24	267.26
327.694	250.88
328.149	262.58
328.603	321.09
329.058	300.03
329.512	297.69
329.966	300.03
330.421	243.85
330.875	367.9
331.329	318.75
331.783	201.72
332.237	281.3
332.691	328.11
333.145	274.28
333.599	276.62
334.053	293.01
334.507	285.98
334.96	337.48
335.414	293.01
335.868	283.64
336.321	321.09
336.775	302.37
337.228	295.35
337.682	367.9
338.135	288.32
338.588	325.77
339.042	344.5
339.495	288.32
339.948	367.9
340.401	300.03
340.854	314.07
341.307	328.11
341.76	332.79
342.213	311.73
342.666	374.92
343.119	363.22
343.571	304.71
344.024	330.45
344.477	325.77
344.929	314.07
345.382	318.75
345.834	335.14
346.287	311.73
346.739	365.56
347.191	316.41
347.644	328.11
348.096	295.35
348.548	405.35
349	323.43
349.452	300.03
349.904	257.9
350.356	307.05
350.808	349.18
351.26	283.64
351.711	388.97
352.163	316.41
352.615	318.75
353.066	339.82
353.518	278.96
353.969	255.56
354.421	318.75
354.872	271.94
355.324	236.83
355.775	290.67
356.226	260.24
356.677	281.3
357.128	309.39
357.579	377.27
358.03	285.98
358.481	314.07
358.932	304.71
359.383	229.81
359.834	353.86
360.285	349.18
360.735	283.64
361.186	316.41
361.637	321.09
362.087	295.35
362.538	293.01
362.988	316.41
363.438	243.85
363.889	311.73
364.339	302.37
364.789	288.32
365.239	356.2
365.689	253.22
366.139	269.6
366.589	311.73
367.039	290.67
367.489	304.71
367.939	295.35
368.389	323.43
368.839	372.58
369.288	337.48
369.738	302.37
370.187	316.41
370.637	278.96
371.086	262.58
371.536	225.13
371.985	316.41
372.434	267.26
372.884	351.52
373.333	276.62
373.782	346.84
374.231	304.71
374.68	372.58
375.129	358.54
375.578	349.18
376.027	328.11
376.475	274.28
376.924	318.75
377.373	349.18
377.822	297.69
378.27	323.43
378.719	311.73
379.167	314.07
379.616	381.95
380.064	403.01
380.512	325.77
380.961	311.73
381.409	307.05
381.857	365.56
382.305	314.07
382.753	304.71
383.201	302.37
383.649	295.35
384.097	356.2
384.545	321.09
384.992	330.45
385.44	335.14
385.888	363.22
386.335	318.75
386.783	358.54
387.231	321.09
387.678	351.52
388.125	276.62
388.573	337.48
389.02	377.27
389.467	330.45
389.914	330.45
390.362	311.73
390.809	314.07
391.256	307.05
391.703	278.96
392.15	325.77
392.596	395.99
393.043	274.28
393.49	318.75
393.937	323.43
394.383	262.58
394.83	269.6
395.276	335.14
395.723	332.79
396.169	302.37
396.616	285.98
397.062	304.71
397.508	295.35
397.954	297.69
398.401	302.37
398.847	307.05
399.293	353.86
399.739	274.28
400.185	318.75
400.631	325.77
401.076	342.16
401.522	257.9
401.968	264.92
402.414	295.35
402.859	276.62
403.305	297.69
403.75	335.14
404.196	321.09
404.641	288.32
405.086	330.45
405.532	351.52
405.977	314.07
406.422	330.45
406.867	328.11
407.312	316.41
407.757	283.64
408.202	316.41
408.647	330.45
409.092	365.56
409.537	328.11
409.982	278.96
410.426	290.67
410.871	278.96
411.316	276.62
411.76	304.71
412.205	337.48
412.649	290.67
413.093	285.98
413.538	311.73
413.982	307.05
414.426	300.03
414.87	314.07
415.314	316.41
415.758	330.45
416.202	300.03
416.646	314.07
417.09	367.9
417.534	328.11
417.978	335.14
418.421	314.07
418.865	302.37
419.309	353.86
419.752	267.26
420.196	290.67
420.639	335.14
421.083	274.28
421.526	285.98
421.969	325.77
422.412	276.62
422.856	328.11
423.299	367.9
423.742	297.69
424.185	332.79
424.628	325.77
425.071	346.84
425.513	358.54
425.956	295.35
426.399	302.37
426.842	309.39
427.284	300.03
427.727	377.27
428.169	307.05
428.612	339.82
429.054	365.56
429.497	384.29
429.939	302.37
430.381	337.48
430.823	353.86
431.265	295.35
431.707	346.84
432.149	353.86
432.591	323.43
433.033	342.16
433.475	255.56
433.917	314.07
434.359	323.43
434.8	335.14
435.242	410.03
435.684	283.64
436.125	367.9
436.567	311.73
437.008	276.62
437.449	337.48
437.891	325.77
438.332	293.01
438.773	311.73
439.214	391.31
439.656	356.2
440.097	318.75
440.538	344.5
440.978	325.77
441.419	365.56
441.86	328.11
442.301	300.03
442.742	257.9
443.182	332.79
443.623	271.94
444.063	300.03
444.504	314.07
444.944	274.28
445.385	344.5
445.825	314.07
446.265	388.97
446.706	372.58
447.146	302.37
447.586	351.52
448.026	325.77
448.466	395.99
448.906	356.2
449.346	302.37
449.786	302.37
450.225	290.67
450.665	316.41
451.105	281.3
451.544	325.77
451.984	353.86
452.424	304.71
452.863	267.26
453.302	328.11
453.742	304.71
454.181	328.11
454.62	330.45
455.059	269.6
455.499	374.92
455.938	278.96
456.377	328.11
456.816	335.14
457.254	290.67
457.693	384.29
458.132	309.39
458.571	323.43
459.01	370.24
459.448	337.48
459.887	309.39
460.325	323.43
460.764	377.27
461.202	353.86
461.641	356.2
462.079	295.35
462.517	302.37
462.955	335.14
463.393	290.67
463.832	295.35
464.27	311.73
464.708	339.82
465.145	290.67
465.583	370.24
466.021	307.05
466.459	316.41
466.897	335.14
467.334	384.29
467.772	353.86
468.209	332.79
468.647	323.43
469.084	309.39
469.522	370.24
469.959	300.03
470.396	377.27
470.833	260.24
471.271	304.71
471.708	325.77
472.145	332.79
472.582	325.77
473.019	388.97
473.456	278.96
473.892	323.43
474.329	321.09
474.766	351.52
475.202	297.69
475.639	323.43
476.076	353.86
476.512	321.09
476.949	325.77
477.385	337.48
477.821	367.9
478.258	295.35
478.694	335.14
479.13	328.11
479.566	332.79
480.002	311.73
480.438	367.9
480.874	323.43
481.31	285.98
481.746	311.73
482.181	367.9
482.617	339.82
483.053	321.09
483.488	367.9
483.924	372.58
484.36	367.9
484.795	311.73
485.23	316.41
485.666	330.45
486.101	342.16
486.536	311.73
486.971	344.5
487.407	356.2
487.842	358.54
488.277	307.05
488.712	302.37
489.146	318.75
489.581	323.43
490.016	321.09
490.451	300.03
490.885	288.32
491.32	309.39
491.755	278.96
492.189	335.14
492.624	262.58
493.058	290.67
493.492	332.79
493.927	346.84
494.361	337.48
494.795	300.03
495.229	309.39
495.663	297.69
496.097	332.79
496.531	304.71
496.965	342.16
497.399	318.75
497.833	356.2
498.266	321.09
498.7	330.45
499.134	311.73
499.567	346.84
500.001	300.03
500.434	330.45
500.868	339.82
501.301	250.88
501.734	290.67
502.168	318.75
502.601	241.51
503.034	311.73
503.467	328.11
503.9	328.11
504.333	304.71
504.766	300.03
505.199	316.41
505.632	304.71
506.064	257.9
506.497	367.9
506.93	304.71
507.362	314.07
507.795	307.05
508.227	339.82
508.66	386.63
509.092	283.64
509.524	293.01
509.956	290.67
510.389	386.63
510.821	344.5
511.253	321.09
511.685	339.82
512.117	309.39
512.549	349.18
512.981	253.22
513.412	307.05
513.844	316.41
514.276	374.92
514.707	316.41
515.139	318.75
515.571	248.54
516.002	323.43
516.433	356.2
516.865	337.48
517.296	332.79
517.727	278.96
518.159	363.22
518.59	314.07
519.021	328.11
519.452	311.73
519.883	318.75
520.314	332.79
520.744	293.01
521.175	337.48
521.606	419.39
522.037	356.2
522.467	349.18
522.898	269.6
523.328	295.35
523.759	309.39
524.189	318.75
524.62	335.14
525.05	295.35
525.48	274.28
525.91	281.3
526.341	276.62
526.771	356.2
527.201	391.31
527.631	335.14
528.061	318.75
528.49	307.05
528.92	342.16
529.35	323.43
529.78	323.43
530.209	318.75
530.639	346.84
531.068	349.18
531.498	330.45
531.927	264.92
532.357	290.67
532.786	304.71
533.215	293.01
533.644	250.88
534.074	321.09
534.503	304.71
534.932	349.18
535.361	307.05
535.79	393.65
536.218	377.27
536.647	372.58
537.076	293.01
537.505	318.75
537.933	318.75
538.362	293.01
538.79	295.35
539.219	321.09
539.647	332.79
540.076	295.35
540.504	269.6
540.932	293.01
541.36	330.45
541.788	274.28
542.217	325.77
542.645	309.39
543.073	297.69
543.5	335.14
543.928	297.69
544.356	323.43
544.784	267.26
545.211	314.07
545.639	328.11
546.067	337.48
546.494	311.73
546.922	302.37
547.349	335.14
547.776	356.2
548.204	323.43
548.631	339.82
549.058	278.96
549.485	328.11
549.912	314.07
550.339	297.69
550.766	335.14
551.193	304.71
551.62	304.71
552.047	321.09
552.474	360.88
552.9	309.39
553.327	241.51
553.754	339.82
554.18	330.45
554.607	424.08
555.033	229.81
555.459	229.81
555.886	363.22
556.312	349.18
556.738	372.58
557.164	367.9
557.59	316.41
558.016	276.62
558.442	325.77
558.868	314.07
559.294	307.05
559.72	290.67
560.145	353.86
560.571	290.67
560.997	377.27
561.422	257.9
561.848	300.03
562.273	295.35
562.699	285.98
563.124	363.22
563.549	367.9
563.974	351.52
564.4	297.69
564.825	316.41
565.25	295.35
565.675	297.69
566.1	349.18
566.525	295.35
566.95	351.52
567.374	321.09
567.799	323.43
568.224	283.64
568.648	255.56
569.073	269.6
569.497	293.01
569.922	297.69
570.346	293.01
570.771	424.08
571.195	328.11
571.619	391.31
572.043	290.67
572.467	316.41
572.891	335.14
573.315	300.03
573.739	374.92
574.163	332.79
574.587	300.03
575.011	300.03
575.435	276.62
575.858	300.03
576.282	302.37
576.705	356.2
577.129	300.03
577.552	316.41
577.976	309.39
578.399	274.28
578.822	253.22
579.245	351.52
579.669	276.62
580.092	346.84
580.515	316.41
580.938	267.26
581.361	367.9
581.784	325.77
582.206	318.75
582.629	337.48
583.052	335.14
583.474	283.64
583.897	337.48
584.32	337.48
584.742	281.3
585.165	271.94
585.587	293.01
586.009	276.62
586.431	328.11
586.854	342.16
587.276	300.03
587.698	302.37
588.12	325.77
588.542	360.88
588.964	316.41
589.386	290.67
589.807	293.01
590.229	290.67
590.651	349.18
591.073	328.11
591.494	323.43
591.916	311.73
592.337	300.03
592.759	293.01
593.18	300.03
593.601	241.51
594.022	321.09
594.444	374.92
594.865	339.82
595.286	314.07
595.707	318.75
596.128	335.14
596.549	276.62
596.97	330.45
597.39	367.9
597.811	285.98
598.232	285.98
598.652	297.69
599.073	316.41
599.494	297.69
599.914	274.28
600.334	321.09
600.755	379.61
601.175	243.85
601.595	356.2
602.015	344.5
602.436	330.45
602.856	475.57
603.276	356.2
603.696	328.11
604.115	342.16
604.535	297.69
604.955	337.48
605.375	342.16
605.794	328.11
606.214	358.54
606.634	351.52
607.053	346.84
607.473	353.86
607.892	332.79
608.311	339.82
608.731	274.28
609.15	304.71
609.569	314.07
609.988	302.37
610.407	274.28
610.826	330.45
611.245	377.27
611.664	349.18
612.083	391.31
612.501	307.05
612.92	367.9
613.339	283.64
613.757	316.41
614.176	309.39
614.594	300.03
615.013	372.58
615.431	339.82
615.85	365.56
616.268	328.11
616.686	360.88
617.104	328.11
617.522	349.18
617.94	342.16
618.358	337.48
618.776	316.41
619.194	281.3
619.612	278.96
620.03	307.05
620.447	253.22
620.865	290.67
621.282	257.9
621.7	351.52
622.117	337.48
622.535	342.16
622.952	300.03
623.369	330.45
623.787	349.18
624.204	225.13
624.621	321.09
625.038	356.2
625.455	363.22
625.872	344.5
626.289	271.94
626.706	367.9
627.123	328.11
627.539	337.48
627.956	257.9
628.373	323.43
628.789	316.41
629.206	271.94
629.622	346.84
630.038	335.14
630.455	302.37
630.871	323.43
631.287	328.11
631.703	318.75
632.12	314.07
632.536	349.18
632.952	250.88
633.368	290.67
633.783	309.39
634.199	293.01
634.615	307.05
635.031	351.52
635.446	290.67
635.862	360.88
636.277	316.41
636.693	346.84
637.108	344.5
637.524	332.79
637.939	335.14
638.354	314.07
638.77	304.71
639.185	337.48
639.6	339.82
640.015	342.16
640.43	297.69
640.845	274.28
641.259	328.11
641.674	293.01
642.089	297.69
642.504	323.43
642.918	293.01
643.333	323.43
643.747	325.77
644.162	267.26
644.576	302.37
644.991	311.73
645.405	349.18
645.819	346.84
646.233	349.18
646.647	395.99
647.061	335.14
647.475	377.27
647.889	328.11
648.303	325.77
648.717	288.32
649.131	290.67
649.545	335.14
649.958	309.39
650.372	360.88
650.785	342.16
651.199	342.16
651.612	314.07
652.026	384.29
652.439	283.64
652.852	367.9
653.266	353.86
653.679	307.05
654.092	342.16
654.505	307.05
654.918	311.73
655.331	318.75
655.744	262.58
656.156	344.5
656.569	300.03
656.982	302.37
657.394	300.03
657.807	351.52
658.22	309.39
658.632	346.84
659.044	278.96
659.457	351.52
659.869	274.28
660.281	257.9
660.693	300.03
661.106	314.07
661.518	269.6
661.93	307.05
662.342	353.86
662.754	323.43
663.165	335.14
663.577	328.11
663.989	332.79
664.401	257.9
664.812	353.86
665.224	351.52
665.635	281.3
666.047	283.64
666.458	335.14
666.869	323.43
667.281	377.27
667.692	309.39
668.103	330.45
668.514	342.16
668.925	358.54
669.336	339.82
669.747	342.16
670.158	288.32
670.569	293.01
670.979	372.58
671.39	358.54
671.801	339.82
672.211	318.75
672.622	335.14
673.032	403.01
673.443	330.45
673.853	307.05
674.263	271.94
674.674	304.71
675.084	314.07
675.494	339.82
675.904	332.79
676.314	309.39
676.724	325.77
677.134	316.41
677.544	288.32
677.953	367.9
678.363	356.2
678.773	421.74
679.182	332.79
679.592	318.75
680.001	339.82
680.411	360.88
680.82	393.65
681.23	316.41
681.639	332.79
682.048	293.01
682.457	283.64
682.866	346.84
683.275	318.75
683.684	372.58
684.093	321.09
684.502	339.82
684.911	328.11
685.32	304.71
685.728	323.43
686.137	293.01
686.546	335.14
686.954	360.88
687.363	344.5
687.771	353.86
688.179	307.05
688.588	290.67
688.996	330.45
689.404	346.84
689.812	337.48
690.22	285.98
690.628	309.39
691.036	321.09
691.444	285.98
691.852	304.71
692.26	274.28
692.667	351.52
693.075	283.64
693.483	302.37
693.89	297.69
694.298	278.96
694.705	307.05
695.112	321.09
695.52	367.9
695.927	346.84
696.334	342.16
696.741	318.75
697.148	255.56
697.555	250.88
697.962	314.07
698.369	278.96
698.776	281.3
699.183	307.05
699.59	328.11
699.996	302.37
700.403	300.03
700.81	239.17
701.216	337.48
701.623	337.48
702.029	363.22
702.435	300.03
702.842	339.82
703.248	304.71
703.654	229.81
704.06	314.07
704.466	342.16
704.872	363.22
705.278	297.69
705.684	367.9
706.09	283.64
706.496	311.73
706.901	351.52
707.307	276.62
707.712	260.24
708.118	339.82
708.523	278.96
708.929	367.9
709.334	297.69
709.74	323.43
710.145	274.28
710.55	384.29
710.955	283.64
711.36	290.67
711.765	283.64
712.17	367.9
712.575	285.98
712.98	915.59
713.385	384.29
713.789	339.82
714.194	377.27
714.599	372.58
715.003	342.16
715.408	332.79
715.812	325.77
716.217	297.69
716.621	257.9
717.025	269.6
717.429	330.45
717.833	276.62
718.238	314.07
718.642	293.01
719.046	309.39
719.449	316.41
719.853	363.22
720.257	358.54
720.661	302.37
721.065	281.3
721.468	285.98
721.872	295.35
722.275	377.27
722.679	372.58
723.082	351.52
723.485	335.14
723.889	297.69
724.292	278.96
724.695	309.39
725.098	330.45
725.501	337.48
725.904	290.67
726.307	332.79
726.71	309.39
727.113	339.82
727.516	328.11
727.918	351.52
728.321	311.73
728.724	332.79
729.126	302.37
729.529	314.07
729.931	269.6
730.333	335.14
730.736	288.32
731.138	349.18
731.54	293.01
731.942	271.94
732.344	314.07
732.746	328.11
733.148	311.73
733.55	288.32
733.952	285.98
734.354	325.77
734.756	318.75
735.157	260.24
735.559	290.67
735.96	311.73
736.362	304.71
736.763	398.33
737.165	356.2
737.566	360.88
737.967	353.86
738.368	307.05
738.77	311.73
739.171	295.35
739.572	311.73
739.973	323.43
740.374	295.35
740.774	353.86
741.175	400.67
741.576	311.73
741.977	339.82
742.377	302.37
742.778	323.43
743.178	304.71
743.579	335.14
743.979	377.27
744.379	307.05
744.78	321.09
745.18	255.56
745.58	304.71
745.98	321.09
746.38	328.11
746.78	283.64
747.18	381.95
747.58	316.41
747.98	302.37
748.38	323.43
748.779	278.96
749.179	346.84
749.578	351.52
749.978	349.18
750.377	325.77
750.777	257.9
751.176	323.43
751.575	335.14
751.975	297.69
752.374	304.71
752.773	363.22
753.172	293.01
753.571	342.16
753.97	281.3
754.369	377.27
754.768	337.48
755.166	321.09
755.565	363.22
755.964	332.79
756.362	353.86
756.761	253.22
757.159	349.18
757.558	262.58
757.956	339.82
758.354	309.39
758.753	323.43
759.151	335.14
759.549	356.2
759.947	307.05
760.345	328.11
760.743	274.28
761.141	309.39
761.539	253.22
761.936	323.43
762.334	365.56
762.732	260.24
763.129	281.3
763.527	304.71
763.924	321.09
764.322	304.71
764.719	323.43
765.117	267.26
765.514	353.86
765.911	288.32
766.308	288.32
766.705	311.73
767.102	358.54
767.499	314.07
767.896	314.07
768.293	234.49
768.69	330.45
769.086	307.05
769.483	293.01
769.88	316.41
770.276	318.75
770.673	344.5
771.069	346.84
771.466	297.69
771.862	323.43
772.258	351.52
772.654	257.9
773.05	360.88
773.447	393.65
773.843	363.22
774.239	293.01
774.634	330.45
775.03	339.82
775.426	370.24
775.822	342.16
776.218	367.9
776.613	363.22
777.009	349.18
777.404	325.77
777.8	311.73
778.195	293.01
778.59	276.62
778.986	344.5
779.381	332.79
779.776	353.86
780.171	335.14
780.566	293.01
780.961	332.79
781.356	302.37
781.751	290.67
782.146	295.35
782.54	311.73
782.935	250.88
783.33	330.45
783.724	248.54
784.119	307.05
784.513	278.96
784.908	271.94
785.302	274.28
785.696	297.69
786.09	314.07
786.485	295.35
786.879	374.92
787.273	311.73
787.667	314.07
788.061	325.77
788.454	302.37
788.848	309.39
789.242	307.05
789.636	302.37
790.029	342.16
790.423	358.54
790.816	328.11
791.21	309.39
791.603	269.6
791.997	269.6
792.39	325.77
792.783	281.3
793.176	304.71
793.569	332.79
793.962	304.71
794.355	328.11
794.748	285.98
795.141	316.41
795.534	288.32
795.927	278.96
796.319	346.84
796.712	381.95
797.105	262.58
797.497	295.35
797.89	356.2
798.282	271.94
798.674	417.05
799.067	314.07
799.459	283.64
799.851	314.07
800.243	295.35
800.635	344.5
801.027	307.05
801.419	316.41
801.811	330.45
802.203	321.09
802.594	370.24
802.986	267.26
803.378	318.75
803.769	283.64
804.161	391.31
804.552	293.01
804.944	307.05
805.335	253.22
805.726	307.05
806.118	314.07
806.509	344.5
806.9	271.94
807.291	328.11
807.682	295.35
808.073	218.11
808.464	271.94
808.855	309.39
809.245	314.07
809.636	264.92
810.027	358.54
810.417	276.62
810.808	314.07
811.198	283.64
811.589	307.05
811.979	311.73
812.369	316.41
812.759	377.27
813.15	283.64
813.54	257.9
813.93	288.32
814.32	276.62
814.71	302.37
815.1	344.5
815.489	335.14
815.879	332.79
816.269	321.09
816.658	339.82
817.048	346.84
817.438	285.98
817.827	344.5
818.216	293.01
818.606	339.82
818.995	290.67
819.384	353.86
819.773	365.56
820.163	302.37
820.552	316.41
820.941	351.52
821.33	332.79
821.718	281.3
822.107	311.73
822.496	351.52
822.885	288.32
823.273	316.41
823.662	356.2
824.05	302.37
824.439	307.05
824.827	276.62
825.216	285.98
825.604	332.79
825.992	335.14
826.38	360.88
826.768	283.64
827.156	260.24
827.544	288.32
827.932	351.52
828.32	293.01
828.708	330.45
829.096	328.11
829.483	295.35
829.871	325.77
830.259	316.41
830.646	363.22
831.034	328.11
831.421	297.69
831.808	295.35
832.196	314.07
832.583	314.07
832.97	262.58
833.357	332.79
833.744	335.14
834.131	274.28
834.518	302.37
834.905	300.03
835.292	325.77
835.678	328.11
836.065	339.82
836.452	278.96
836.838	342.16
837.225	323.43
837.611	257.9
837.998	297.69
838.384	342.16
838.77	400.67
839.157	349.18
839.543	307.05
839.929	309.39
840.315	349.18
840.701	342.16
841.087	367.9
841.473	332.79
841.858	337.48
842.244	349.18
842.63	321.09
843.015	344.5
843.401	644.09
843.787	351.52
844.172	330.45
844.557	274.28
844.943	290.67
845.328	323.43
845.713	325.77
846.098	339.82
846.483	264.92
846.868	337.48
847.253	349.18
847.638	342.16
848.023	302.37
848.408	335.14
848.793	356.2
849.177	321.09
849.562	330.45
849.947	344.5
850.331	342.16
850.715	318.75
851.1	307.05
851.484	344.5
851.868	388.97
852.253	278.96
852.637	314.07
853.021	295.35
853.405	276.62
853.789	335.14
854.173	276.62
854.557	264.92
854.94	363.22
855.324	335.14
855.708	300.03
856.091	335.14
856.475	330.45
856.858	295.35
857.242	342.16
857.625	328.11
858.009	276.62
858.392	325.77
858.775	297.69
859.158	330.45
859.541	290.67
859.924	321.09
860.307	332.79
860.69	328.11
861.073	274.28
861.456	300.03
861.838	293.01
862.221	293.01
862.604	290.67
862.986	316.41
863.369	346.84
863.751	274.28
864.133	367.9
864.516	365.56
864.898	285.98
865.28	285.98
865.662	236.83
866.044	283.64
866.426	271.94
866.808	274.28
867.19	232.15
867.572	325.77
867.954	335.14
868.336	267.26
868.717	307.05
869.099	309.39
869.48	328.11
869.862	314.07
870.243	339.82
870.625	318.75
871.006	234.49
871.387	342.16
871.768	367.9
872.149	311.73
872.53	332.79
872.911	337.48
873.292	325.77
873.673	297.69
874.054	255.56
874.435	316.41
874.815	332.79
875.196	290.67
875.577	295.35
875.957	316.41
876.338	323.43
876.718	330.45
877.098	309.39
877.479	325.77
877.859	323.43
878.239	283.64
878.619	255.56
878.999	281.3
879.379	388.97
879.759	372.58
880.139	264.92
880.519	311.73
880.898	281.3
881.278	339.82
881.658	360.88
882.037	302.37
882.417	283.64
882.796	318.75
883.176	274.28
883.555	367.9
883.934	311.73
884.313	293.01
884.693	295.35
885.072	232.15
885.451	297.69
885.83	302.37
886.209	307.05
886.587	274.28
886.966	342.16
887.345	342.16
887.724	278.96
888.102	323.43
888.481	255.56
888.859	269.6
889.238	344.5
889.616	271.94
889.994	316.41
890.373	377.27
890.751	300.03
891.129	239.17
891.507	346.84
891.885	328.11
892.263	367.9
892.641	337.48
893.019	297.69
893.396	323.43
893.774	323.43
894.152	297.69
894.529	318.75
894.907	342.16
895.284	278.96
895.662	293.01
896.039	276.62
896.416	356.2
896.794	307.05
897.171	300.03
897.548	330.45
897.925	349.18
898.302	337.48
898.679	332.79
899.056	300.03
899.433	302.37
899.809	330.45
900.186	271.94
900.563	316.41
900.939	290.67
901.316	335.14
901.692	288.32
902.069	276.62
902.445	318.75
902.821	332.79
903.197	337.48
903.574	309.39
903.95	236.83
904.326	281.3
904.702	335.14
905.078	295.35
905.454	342.16
905.829	311.73
906.205	370.24
906.581	337.48
906.956	316.41
907.332	274.28
907.707	377.27
908.083	278.96
908.458	328.11
908.833	314.07
909.209	395.99
909.584	307.05
909.959	337.48
910.334	360.88
910.709	307.05
911.084	377.27
911.459	360.88
911.834	309.39
912.209	269.6
912.583	290.67
912.958	288.32
913.333	307.05
913.707	239.17
914.082	323.43
914.456	356.2
914.83	267.26
915.205	257.9
915.579	316.41
915.953	330.45
916.327	281.3
916.701	330.45
917.075	288.32
917.449	257.9
917.823	269.6
918.197	304.71
918.571	278.96
918.944	318.75
919.318	321.09
919.692	346.84
920.065	316.41
920.438	360.88
920.812	332.79
921.185	307.05
921.558	328.11
921.932	304.71
922.305	283.64
922.678	325.77
923.051	328.11
923.424	290.67
923.797	316.41
924.17	307.05
924.542	323.43
924.915	257.9
925.288	304.71
925.661	304.71
926.033	285.98
926.406	311.73
926.778	236.83
927.15	316.41
927.523	307.05
927.895	381.95
928.267	260.24
928.639	288.32
929.011	314.07
929.383	281.3
929.755	332.79
930.127	318.75
930.499	314.07
930.871	260.24
931.242	342.16
931.614	302.37
931.986	328.11
932.357	325.77
932.729	276.62
933.1	349.18
933.471	311.73
933.843	290.67
934.214	262.58
934.585	278.96
934.956	325.77
935.327	330.45
935.698	342.16
936.069	351.52
936.44	300.03
936.811	318.75
937.182	349.18
937.552	372.58
937.923	321.09
938.293	314.07
938.664	351.52
939.034	349.18
939.405	323.43
939.775	335.14
940.145	316.41
940.516	386.63
940.886	260.24
941.256	330.45
941.626	342.16
941.996	342.16
942.366	377.27
942.735	314.07
943.105	278.96
943.475	339.82
943.845	236.83
944.214	367.9
944.584	293.01
944.953	285.98
945.323	363.22
945.692	316.41
946.061	246.2
946.43	335.14
946.8	339.82
947.169	309.39
947.538	328.11
947.907	339.82
948.276	332.79
948.645	297.69
949.013	318.75
949.382	342.16
949.751	335.14
950.119	264.92
950.488	337.48
950.857	234.49
951.225	358.54
951.593	300.03
951.962	325.77
952.33	379.61
952.698	234.49
953.066	316.41
953.434	267.26
953.802	295.35
954.17	353.86
954.538	337.48
954.906	398.33
955.274	274.28
955.642	335.14
956.009	243.85
956.377	342.16
956.744	363.22
957.112	302.37
957.479	328.11
957.847	365.56
958.214	330.45
958.581	304.71
958.948	372.58
959.315	318.75
959.683	281.3
960.05	353.86
960.416	297.69
960.783	309.39
961.15	365.56
961.517	290.67
961.884	314.07
962.25	337.48
962.617	360.88
962.983	328.11
963.35	323.43
963.716	222.79
964.082	304.71
964.449	260.24
964.815	300.03
965.181	274.28
965.547	295.35
965.913	269.6
966.279	337.48
966.645	314.07
967.011	316.41
967.377	339.82
967.742	304.71
968.108	262.58
968.474	316.41
968.839	309.39
969.205	269.6
969.57	316.41
969.935	323.43
970.301	309.39
970.666	314.07
971.031	295.35
971.396	332.79
971.761	311.73
972.126	332.79
972.491	321.09
972.856	316.41
973.221	297.69
973.586	377.27
973.95	335.14
974.315	293.01
974.679	290.67
975.044	243.85
975.408	302.37
975.773	309.39
976.137	278.96
976.501	295.35
976.866	342.16
977.23	307.05
977.594	328.11
977.958	295.35
978.322	363.22
978.686	321.09
979.049	328.11
979.413	332.79
979.777	307.05
980.141	309.39
980.504	316.41
980.868	267.26
981.231	274.28
981.595	328.11
981.958	281.3
982.321	314.07
982.684	367.9
983.048	325.77
983.411	290.67
983.774	337.48
984.137	307.05
984.5	307.05
984.862	295.35
985.225	300.03
985.588	332.79
985.951	281.3
986.313	356.2
986.676	339.82
987.038	304.71
987.401	330.45
987.763	314.07
988.125	318.75
988.488	311.73
988.85	330.45
989.212	321.09
989.574	335.14
989.936	267.26
990.298	250.88
990.66	255.56
991.022	260.24
991.383	285.98
991.745	321.09
992.107	290.67
992.468	335.14
992.83	257.9
993.191	307.05
993.553	255.56
993.914	295.35
994.275	300.03
994.637	335.14
994.998	351.52
995.359	274.28
995.72	307.05
996.081	342.16
996.442	318.75
996.803	344.5
997.163	283.64
997.524	314.07
997.885	250.88
998.245	257.9
998.606	304.71
998.966	311.73
999.327	330.45
999.687	328.11
1000.047	307.05
1000.408	311.73
1000.768	260.24
1001.128	260.24
1001.488	314.07
1001.848	271.94
1002.208	260.24
1002.568	248.54
1002.927	309.39
1003.287	255.56
1003.647	328.11
1004.007	281.3
1004.366	255.56
1004.726	309.39
1005.085	250.88
1005.444	304.71
1005.804	290.67
1006.163	278.96
1006.522	337.48
1006.881	295.35
1007.24	307.05
1007.599	351.52
1007.958	323.43
1008.317	318.75
1008.676	325.77
1009.035	271.94
1009.393	325.77
1009.752	260.24
1010.111	271.94
1010.469	318.75
1010.828	328.11
1011.186	304.71
1011.544	276.62
1011.903	300.03
1012.261	346.84
1012.619	346.84
1012.977	232.15
1013.335	297.69
1013.693	309.39
1014.051	309.39
1014.409	304.71
1014.767	276.62
1015.124	262.58
1015.482	285.98
1015.84	346.84
1016.197	325.77
1016.555	302.37
1016.912	342.16
1017.269	335.14
1017.627	328.11
1017.984	328.11
1018.341	344.5
1018.698	269.6
1019.055	267.26
1019.412	314.07
1019.769	346.84
1020.126	314.07
1020.483	342.16
1020.84	278.96
1021.196	316.41
1021.553	243.85
1021.909	269.6
1022.266	367.9
1022.622	342.16
1022.979	393.65
1023.335	346.84
1023.691	304.71
1024.047	269.6
1024.404	241.51
1024.76	351.52
1025.116	271.94
1025.472	246.2
1025.827	276.62
1026.183	356.2
1026.539	260.24
1026.895	257.9
1027.25	330.45
1027.606	269.6
1027.961	356.2
1028.317	215.77
1028.672	344.5
1029.028	274.28
1029.383	285.98
1029.738	206.41
1030.093	332.79
1030.448	360.88
1030.803	269.6
1031.158	330.45
1031.513	271.94
1031.868	269.6
1032.223	344.5
1032.577	300.03
1032.932	344.5
1033.287	323.43
1033.641	328.11
1033.996	281.3
1034.35	314.07
1034.704	300.03
1035.059	293.01
1035.413	309.39
1035.767	309.39
1036.121	309.39
