Data from Al_FLMS009871__544__14-43-33-220.txt Node

Date: Fri Mar 08 14:43:33 CST 2024
User: pe5414po
Spectrometer: FLMS00987
Trigger mode: 0
Integration Time (sec): 1.000000E-1
Scans to average: 1
Electric dark correction enabled: true
Nonlinearity correction enabled: false
Boxcar width: 0
XAxis mode: Wavelengths
Number of Pixels in Spectrum: 2048
>>>>>Begin Spectral Data<<<<<
188.938	-57.78
189.409	-57.78
189.879	-57.78
190.349	-99.91
190.819	-88.21
191.29	-50.76
191.76	-104.59
192.23	-88.21
192.7	-99.91
193.17	-50.76
193.64	-22.67
194.109	-55.44
194.579	-60.12
195.049	40.52
195.519	47.54
195.988	19.46
196.458	3.07
196.927	56.9
197.397	73.29
197.866	129.46
198.336	162.23
198.805	157.55
199.274	180.95
199.744	159.89
200.213	206.7
200.682	176.27
201.151	286.28
201.62	180.95
202.089	241.81
202.558	274.57
203.027	192.66
203.495	262.87
203.964	321.38
204.433	300.32
204.902	330.75
205.37	276.91
205.839	274.57
206.307	288.62
206.776	274.57
207.244	255.85
207.712	333.09
208.181	297.98
208.649	272.23
209.117	321.38
209.585	316.7
210.053	319.04
210.521	333.09
210.989	297.98
211.457	288.62
211.925	290.96
212.393	340.11
212.861	286.28
213.328	248.83
213.796	286.28
214.264	349.47
214.731	297.98
215.199	319.04
215.666	258.19
216.133	309.68
216.601	251.17
217.068	305
217.535	293.3
218.003	272.23
218.47	269.89
218.937	253.51
219.404	333.09
219.871	283.94
220.338	302.66
220.805	248.83
221.271	218.4
221.738	276.91
222.205	232.44
222.671	288.62
223.138	225.42
223.605	288.62
224.071	230.1
224.538	276.91
225.004	328.41
225.47	382.24
225.937	267.55
226.403	305
226.869	276.91
227.335	293.3
227.801	319.04
228.267	314.36
228.733	272.23
229.199	262.87
229.665	335.43
230.131	269.89
230.597	253.51
231.062	246.49
231.528	302.66
231.994	248.83
232.459	328.41
232.925	269.89
233.39	297.98
233.856	255.85
234.321	290.96
234.786	288.62
235.252	267.55
235.717	253.51
236.182	283.94
236.647	307.34
237.112	319.04
237.577	314.36
238.042	269.89
238.507	227.76
238.972	300.32
239.436	283.94
239.901	253.51
240.366	258.19
240.83	218.4
241.295	223.08
241.76	307.34
242.224	251.17
242.688	281.6
243.153	344.79
243.617	281.6
244.081	290.96
244.545	314.36
245.01	265.21
245.474	314.36
245.938	302.66
246.402	288.62
246.866	337.77
247.33	302.66
247.793	361.17
248.257	283.94
248.721	309.68
249.185	279.26
249.648	316.7
250.112	262.87
250.575	279.26
251.039	330.75
251.502	239.47
251.965	281.6
252.429	279.26
252.892	239.47
253.355	293.3
253.818	351.81
254.281	358.83
254.744	281.6
255.207	281.6
255.67	344.79
256.133	267.55
256.596	297.98
257.059	260.53
257.522	302.66
257.984	262.87
258.447	319.04
258.909	309.68
259.372	290.96
259.834	269.89
260.297	302.66
260.759	293.3
261.221	297.98
261.684	279.26
262.146	314.36
262.608	316.7
263.07	302.66
263.532	328.41
263.994	290.96
264.456	276.91
264.918	281.6
265.38	307.34
265.842	279.26
266.303	316.7
266.765	305
267.227	330.75
267.688	295.64
268.15	305
268.611	351.81
269.072	309.68
269.534	340.11
269.995	314.36
270.456	281.6
270.918	290.96
271.379	246.49
271.84	269.89
272.301	361.17
272.762	312.02
273.223	288.62
273.684	354.15
274.144	333.09
274.605	314.36
275.066	246.49
275.527	314.36
275.987	300.32
276.448	361.17
276.908	262.87
277.369	316.7
277.829	319.04
278.289	283.94
278.75	248.83
279.21	354.15
279.67	286.28
280.13	358.83
280.59	283.94
281.05	290.96
281.51	267.55
281.97	333.09
282.43	316.7
282.89	349.47
283.35	312.02
283.809	319.04
284.269	333.09
284.729	253.51
285.188	297.98
285.648	349.47
286.107	223.08
286.567	295.64
287.026	279.26
287.485	295.64
287.944	269.89
288.404	272.23
288.863	290.96
289.322	248.83
289.781	323.73
290.24	276.91
290.699	307.34
291.158	297.98
291.616	370.54
292.075	333.09
292.534	351.81
292.992	276.91
293.451	305
293.91	323.73
294.368	295.64
294.827	262.87
295.285	323.73
295.743	314.36
296.202	314.36
296.66	328.41
297.118	354.15
297.576	262.87
298.034	272.23
298.492	351.81
298.95	326.07
299.408	244.15
299.866	335.43
300.324	251.17
300.781	319.04
301.239	300.32
301.697	237.13
302.154	347.13
302.612	328.41
303.069	368.2
303.527	349.47
303.984	386.92
304.441	321.38
304.899	326.07
305.356	274.57
305.813	302.66
306.27	232.44
306.727	269.89
307.184	347.13
307.641	269.89
308.098	349.47
308.555	393.94
309.012	286.28
309.468	358.83
309.925	337.77
310.382	340.11
310.838	283.94
311.295	267.55
311.751	344.79
312.208	340.11
312.664	330.75
313.12	349.47
313.577	319.04
314.033	244.15
314.489	330.75
314.945	288.62
315.401	312.02
315.857	377.56
316.313	246.49
316.769	326.07
317.225	272.23
317.681	293.3
318.136	269.89
318.592	302.66
319.048	328.41
319.503	321.38
319.959	340.11
320.414	361.17
320.869	274.57
321.325	326.07
321.78	316.7
322.235	321.38
322.691	333.09
323.146	391.6
323.601	356.49
324.056	328.41
324.511	340.11
324.966	267.55
325.421	347.13
325.875	283.94
326.33	326.07
326.785	288.62
327.24	319.04
327.694	386.92
328.149	396.28
328.603	253.51
329.058	300.32
329.512	326.07
329.966	255.85
330.421	316.7
330.875	330.75
331.329	382.24
331.783	403.3
332.237	321.38
332.691	309.68
333.145	293.3
333.599	309.68
334.053	307.34
334.507	288.62
334.96	288.62
335.414	293.3
335.868	312.02
336.321	319.04
336.775	276.91
337.228	337.77
337.682	279.26
338.135	354.15
338.588	283.94
339.042	337.77
339.495	307.34
339.948	281.6
340.401	305
340.854	279.26
341.307	335.43
341.76	351.81
342.213	274.57
342.666	323.73
343.119	337.77
343.571	356.49
344.024	295.64
344.477	297.98
344.929	323.73
345.382	344.79
345.834	354.15
346.287	276.91
346.739	361.17
347.191	319.04
347.644	361.17
348.096	319.04
348.548	356.49
349	379.9
349.452	293.3
349.904	319.04
350.356	335.43
350.808	349.47
351.26	286.28
351.711	321.38
352.163	297.98
352.615	422.03
353.066	297.98
353.518	337.77
353.969	377.56
354.421	351.81
354.872	335.43
355.324	328.41
355.775	312.02
356.226	330.75
356.677	272.23
357.128	305
357.579	349.47
358.03	316.7
358.481	377.56
358.932	321.38
359.383	337.77
359.834	321.38
360.285	328.41
360.735	302.66
361.186	316.7
361.637	344.79
362.087	297.98
362.538	354.15
362.988	344.79
363.438	379.9
363.889	356.49
364.339	356.49
364.789	323.73
365.239	319.04
365.689	351.81
366.139	335.43
366.589	293.3
367.039	323.73
367.489	330.75
367.939	342.45
368.389	370.54
368.839	293.3
369.288	295.64
369.738	377.56
370.187	309.68
370.637	356.49
371.086	354.15
371.536	276.91
371.985	354.15
372.434	340.11
372.884	312.02
373.333	328.41
373.782	342.45
374.231	220.74
374.68	265.21
375.129	274.57
375.578	297.98
376.027	234.78
376.475	262.87
376.924	358.83
377.373	344.79
377.822	305
378.27	330.75
378.719	312.02
379.167	302.66
379.616	276.91
380.064	290.96
380.512	316.7
380.961	335.43
381.409	288.62
381.857	276.91
382.305	297.98
382.753	361.17
383.201	295.64
383.649	351.81
384.097	314.36
384.545	356.49
384.992	323.73
385.44	319.04
385.888	300.32
386.335	319.04
386.783	307.34
387.231	379.9
387.678	269.89
388.125	302.66
388.573	344.79
389.02	258.19
389.467	295.64
389.914	300.32
390.362	344.79
390.809	347.13
391.256	314.36
391.703	328.41
392.15	340.11
392.596	337.77
393.043	330.75
393.49	356.49
393.937	302.66
394.383	288.62
394.83	274.57
395.276	307.34
395.723	340.11
396.169	354.15
396.616	351.81
397.062	316.7
397.508	239.47
397.954	344.79
398.401	356.49
398.847	309.68
399.293	305
399.739	351.81
400.185	431.39
400.631	335.43
401.076	269.89
401.522	295.64
401.968	375.22
402.414	372.88
402.859	356.49
403.305	290.96
403.75	328.41
404.196	307.34
404.641	328.41
405.086	326.07
405.532	279.26
405.977	326.07
406.422	290.96
406.867	288.62
407.312	328.41
407.757	328.41
408.202	295.64
408.647	297.98
409.092	300.32
409.537	288.62
409.982	340.11
410.426	337.77
410.871	347.13
411.316	297.98
411.76	342.45
412.205	330.75
412.649	307.34
413.093	312.02
413.538	342.45
413.982	314.36
414.426	330.75
414.87	295.64
415.314	246.49
415.758	305
416.202	351.81
416.646	293.3
417.09	333.09
417.534	349.47
417.978	393.94
418.421	342.45
418.865	293.3
419.309	347.13
419.752	316.7
420.196	312.02
420.639	342.45
421.083	279.26
421.526	363.51
421.969	300.32
422.412	358.83
422.856	286.28
423.299	342.45
423.742	337.77
424.185	330.75
424.628	349.47
425.071	333.09
425.513	267.55
425.956	349.47
426.399	293.3
426.842	302.66
427.284	342.45
427.727	300.32
428.169	330.75
428.612	265.21
429.054	218.4
429.497	356.49
429.939	358.83
430.381	307.34
430.823	368.2
431.265	326.07
431.707	307.34
432.149	419.69
432.591	337.77
433.033	326.07
433.475	309.68
433.917	351.81
434.359	323.73
434.8	297.98
435.242	351.81
435.684	302.66
436.125	323.73
436.567	426.71
437.008	351.81
437.449	347.13
437.891	330.75
438.332	370.54
438.773	365.85
439.214	290.96
439.656	302.66
440.097	326.07
440.538	356.49
440.978	307.34
441.419	321.38
441.86	344.79
442.301	323.73
442.742	302.66
443.182	370.54
443.623	382.24
444.063	290.96
444.504	323.73
444.944	358.83
445.385	351.81
445.825	300.32
446.265	368.2
446.706	314.36
447.146	344.79
447.586	286.28
448.026	321.38
448.466	321.38
448.906	347.13
449.346	276.91
449.786	314.36
450.225	255.85
450.665	335.43
451.105	363.51
451.544	351.81
451.984	309.68
452.424	358.83
452.863	328.41
453.302	290.96
453.742	319.04
454.181	312.02
454.62	288.62
455.059	316.7
455.499	316.7
455.938	274.57
456.377	312.02
456.816	379.9
457.254	342.45
457.693	258.19
458.132	363.51
458.571	316.7
459.01	370.54
459.448	333.09
459.887	300.32
460.325	347.13
460.764	319.04
461.202	276.91
461.641	305
462.079	279.26
462.517	363.51
462.955	377.56
463.393	328.41
463.832	328.41
464.27	333.09
464.708	314.36
465.145	344.79
465.583	344.79
466.021	354.15
466.459	300.32
466.897	398.62
467.334	323.73
467.772	290.96
468.209	328.41
468.647	302.66
469.084	281.6
469.522	333.09
469.959	391.6
470.396	307.34
470.833	372.88
471.271	326.07
471.708	370.54
472.145	300.32
472.582	286.28
473.019	314.36
473.456	351.81
473.892	276.91
474.329	307.34
474.766	305
475.202	290.96
475.639	290.96
476.076	342.45
476.512	272.23
476.949	300.32
477.385	265.21
477.821	372.88
478.258	323.73
478.694	274.57
479.13	344.79
479.566	335.43
480.002	286.28
480.438	300.32
480.874	246.49
481.31	281.6
481.746	258.19
482.181	262.87
482.617	293.3
483.053	344.79
483.488	246.49
483.924	300.32
484.36	330.75
484.795	251.17
485.23	295.64
485.666	358.83
486.101	349.47
486.536	358.83
486.971	314.36
487.407	351.81
487.842	344.79
488.277	330.75
488.712	368.2
489.146	356.49
489.581	351.81
490.016	361.17
490.451	354.15
490.885	326.07
491.32	260.53
491.755	337.77
492.189	356.49
492.624	375.22
493.058	300.32
493.492	365.85
493.927	307.34
494.361	344.79
494.795	335.43
495.229	377.56
495.663	335.43
496.097	323.73
496.531	295.64
496.965	351.81
497.399	354.15
497.833	314.36
498.266	286.28
498.7	323.73
499.134	314.36
499.567	342.45
500.001	323.73
500.434	356.49
500.868	290.96
501.301	295.64
501.734	305
502.168	314.36
502.601	377.56
503.034	283.94
503.467	314.36
503.9	361.17
504.333	351.81
504.766	297.98
505.199	312.02
505.632	272.23
506.064	351.81
506.497	384.58
506.93	384.58
507.362	293.3
507.795	358.83
508.227	347.13
508.66	321.38
509.092	312.02
509.524	302.66
509.956	307.34
510.389	326.07
510.821	321.38
511.253	326.07
511.685	326.07
512.117	248.83
512.549	305
512.981	321.38
513.412	286.28
513.844	314.36
514.276	328.41
514.707	323.73
515.139	363.51
515.571	281.6
516.002	309.68
516.433	358.83
516.865	342.45
517.296	347.13
517.727	349.47
518.159	330.75
518.59	405.64
519.021	337.77
519.452	382.24
519.883	307.34
520.314	321.38
520.744	265.21
521.175	349.47
521.606	333.09
522.037	290.96
522.467	410.33
522.898	358.83
523.328	330.75
523.759	375.22
524.189	340.11
524.62	337.77
525.05	312.02
525.48	354.15
525.91	354.15
526.341	241.81
526.771	293.3
527.201	283.94
527.631	342.45
528.061	365.85
528.49	262.87
528.92	288.62
529.35	335.43
529.78	300.32
530.209	344.79
530.639	326.07
531.068	361.17
531.498	272.23
531.927	316.7
532.357	333.09
532.786	290.96
533.215	351.81
533.644	358.83
534.074	319.04
534.503	319.04
534.932	344.79
535.361	389.26
535.79	354.15
536.218	326.07
536.647	326.07
537.076	337.77
537.505	347.13
537.933	309.68
538.362	384.58
538.79	295.64
539.219	274.57
539.647	340.11
540.076	358.83
540.504	307.34
540.932	305
541.36	377.56
541.788	312.02
542.217	330.75
542.645	356.49
543.073	342.45
543.5	283.94
543.928	335.43
544.356	316.7
544.784	382.24
545.211	295.64
545.639	321.38
546.067	309.68
546.494	342.45
546.922	407.98
547.349	342.45
547.776	368.2
548.204	335.43
548.631	281.6
549.058	319.04
549.485	361.17
549.912	326.07
550.339	295.64
550.766	274.57
551.193	326.07
551.62	333.09
552.047	290.96
552.474	314.36
552.9	330.75
553.327	361.17
553.754	375.22
554.18	307.34
554.607	319.04
555.033	307.34
555.459	361.17
555.886	340.11
556.312	286.28
556.738	344.79
557.164	323.73
557.59	365.85
558.016	279.26
558.442	347.13
558.868	328.41
559.294	286.28
559.72	297.98
560.145	379.9
560.571	340.11
560.997	283.94
561.422	328.41
561.848	309.68
562.273	351.81
562.699	326.07
563.124	316.7
563.549	316.7
563.974	326.07
564.4	305
564.825	319.04
565.25	393.94
565.675	347.13
566.1	272.23
566.525	323.73
566.95	363.51
567.374	330.75
567.799	335.43
568.224	340.11
568.648	337.77
569.073	361.17
569.497	363.51
569.922	333.09
570.346	316.7
570.771	354.15
571.195	244.15
571.619	361.17
572.043	407.98
572.467	333.09
572.891	309.68
573.315	330.75
573.739	328.41
574.163	286.28
574.587	267.55
575.011	354.15
575.435	321.38
575.858	372.88
576.282	305
576.705	319.04
577.129	300.32
577.552	335.43
577.976	347.13
578.399	347.13
578.822	307.34
579.245	372.88
579.669	290.96
580.092	340.11
580.515	307.34
580.938	347.13
581.361	384.58
581.784	297.98
582.206	316.7
582.629	286.28
583.052	307.34
583.474	326.07
583.897	333.09
584.32	295.64
584.742	286.28
585.165	319.04
585.587	347.13
586.009	365.85
586.431	295.64
586.854	309.68
587.276	302.66
587.698	302.66
588.12	293.3
588.542	361.17
588.964	283.94
589.386	363.51
589.807	349.47
590.229	321.38
590.651	319.04
591.073	358.83
591.494	276.91
591.916	354.15
592.337	368.2
592.759	340.11
593.18	368.2
593.601	319.04
594.022	300.32
594.444	363.51
594.865	307.34
595.286	344.79
595.707	326.07
596.128	330.75
596.549	375.22
596.97	305
597.39	300.32
597.811	361.17
598.232	283.94
598.652	279.26
599.073	370.54
599.494	293.3
599.914	305
600.334	358.83
600.755	342.45
601.175	333.09
601.595	340.11
602.015	323.73
602.436	269.89
602.856	431.39
603.276	347.13
603.696	326.07
604.115	286.28
604.535	379.9
604.955	368.2
605.375	382.24
605.794	295.64
606.214	365.85
606.634	309.68
607.053	335.43
607.473	361.17
607.892	389.26
608.311	349.47
608.731	358.83
609.15	272.23
609.569	342.45
609.988	370.54
610.407	283.94
610.826	293.3
611.245	349.47
611.664	319.04
612.083	290.96
612.501	363.51
612.92	368.2
613.339	279.26
613.757	297.98
614.176	354.15
614.594	365.85
615.013	293.3
615.431	319.04
615.85	342.45
616.268	309.68
616.686	288.62
617.104	297.98
617.522	307.34
617.94	342.45
618.358	344.79
618.776	314.36
619.194	370.54
619.612	347.13
620.03	389.26
620.447	314.36
620.865	319.04
621.282	337.77
621.7	363.51
622.117	337.77
622.535	370.54
622.952	358.83
623.369	297.98
623.787	351.81
624.204	344.79
624.621	398.62
625.038	288.62
625.455	347.13
625.872	370.54
626.289	393.94
626.706	351.81
627.123	309.68
627.539	302.66
627.956	309.68
628.373	321.38
628.789	323.73
629.206	283.94
629.622	377.56
630.038	330.75
630.455	363.51
630.871	328.41
631.287	302.66
631.703	354.15
632.12	344.79
632.536	305
632.952	368.2
633.368	279.26
633.783	337.77
634.199	347.13
634.615	351.81
635.031	358.83
635.446	314.36
635.862	335.43
636.277	363.51
636.693	347.13
637.108	326.07
637.524	375.22
637.939	361.17
638.354	356.49
638.77	293.3
639.185	342.45
639.6	335.43
640.015	272.23
640.43	330.75
640.845	349.47
641.259	351.81
641.674	305
642.089	335.43
642.504	349.47
642.918	344.79
643.333	365.85
643.747	337.77
644.162	309.68
644.576	297.98
644.991	337.77
645.405	382.24
645.819	307.34
646.233	283.94
646.647	276.91
647.061	363.51
647.475	314.36
647.889	319.04
648.303	293.3
648.717	398.62
649.131	347.13
649.545	314.36
649.958	363.51
650.372	391.6
650.785	295.64
651.199	279.26
651.612	361.17
652.026	328.41
652.439	351.81
652.852	281.6
653.266	361.17
653.679	361.17
654.092	330.75
654.505	333.09
654.918	312.02
655.331	328.41
655.744	384.58
656.156	368.2
656.569	323.73
656.982	344.79
657.394	335.43
657.807	321.38
658.22	340.11
658.632	276.91
659.044	253.51
659.457	351.81
659.869	321.38
660.281	349.47
660.693	403.3
661.106	316.7
661.518	319.04
661.93	326.07
662.342	288.62
662.754	349.47
663.165	337.77
663.577	349.47
663.989	370.54
664.401	384.58
664.812	372.88
665.224	330.75
665.635	344.79
666.047	379.9
666.458	326.07
666.869	314.36
667.281	307.34
667.692	328.41
668.103	281.6
668.514	286.28
668.925	286.28
669.336	319.04
669.747	335.43
670.158	354.15
670.569	375.22
670.979	361.17
671.39	312.02
671.801	319.04
672.211	333.09
672.622	363.51
673.032	342.45
673.443	246.49
673.853	354.15
674.263	323.73
674.674	323.73
675.084	281.6
675.494	344.79
675.904	337.77
676.314	365.85
676.724	342.45
677.134	251.17
677.544	337.77
677.953	335.43
678.363	312.02
678.773	365.85
679.182	300.32
679.592	415.01
680.001	309.68
680.411	297.98
680.82	293.3
681.23	293.3
681.639	288.62
682.048	326.07
682.457	267.55
682.866	349.47
683.275	349.47
683.684	351.81
684.093	239.47
684.502	319.04
684.911	344.79
685.32	386.92
685.728	356.49
686.137	305
686.546	321.38
686.954	328.41
687.363	344.79
687.771	415.01
688.179	314.36
688.588	330.75
688.996	349.47
689.404	333.09
689.812	321.38
690.22	347.13
690.628	340.11
691.036	297.98
691.444	361.17
691.852	326.07
692.26	372.88
692.667	321.38
693.075	248.83
693.483	309.68
693.89	337.77
694.298	305
694.705	321.38
695.112	384.58
695.52	274.57
695.927	330.75
696.334	309.68
696.741	340.11
697.148	354.15
697.555	344.79
697.962	358.83
698.369	321.38
698.776	283.94
699.183	328.41
699.59	314.36
699.996	326.07
700.403	410.33
700.81	344.79
701.216	340.11
701.623	314.36
702.029	347.13
702.435	333.09
702.842	356.49
703.248	321.38
703.654	281.6
704.06	321.38
704.466	361.17
704.872	330.75
705.278	349.47
705.684	312.02
706.09	344.79
706.496	323.73
706.901	330.75
707.307	363.51
707.712	326.07
708.118	365.85
708.523	379.9
708.929	316.7
709.334	333.09
709.74	375.22
710.145	344.79
710.55	356.49
710.955	323.73
711.36	305
711.765	335.43
712.17	384.58
712.575	316.7
712.98	824.6
713.385	323.73
713.789	309.68
714.194	293.3
714.599	323.73
715.003	344.79
715.408	248.83
715.812	246.49
716.217	302.66
716.621	347.13
717.025	244.15
717.429	262.87
717.833	312.02
718.238	344.79
718.642	344.79
719.046	358.83
719.449	316.7
719.853	372.88
720.257	347.13
720.661	295.64
721.065	279.26
721.468	281.6
721.872	417.35
722.275	297.98
722.679	286.28
723.082	328.41
723.485	283.94
723.889	267.55
724.292	342.45
724.695	314.36
725.098	316.7
725.501	354.15
725.904	347.13
726.307	319.04
726.71	337.77
727.113	295.64
727.516	286.28
727.918	349.47
728.321	368.2
728.724	312.02
729.126	309.68
729.529	319.04
729.931	358.83
730.333	415.01
730.736	274.57
731.138	321.38
731.54	326.07
731.942	363.51
732.344	279.26
732.746	283.94
733.148	279.26
733.55	351.81
733.952	347.13
734.354	300.32
734.756	326.07
735.157	342.45
735.559	370.54
735.96	288.62
736.362	307.34
736.763	384.58
737.165	323.73
737.566	351.81
737.967	253.51
738.368	290.96
738.77	283.94
739.171	319.04
739.572	337.77
739.973	302.66
740.374	316.7
740.774	307.34
741.175	363.51
741.576	307.34
741.977	349.47
742.377	300.32
742.778	262.87
743.178	323.73
743.579	347.13
743.979	288.62
744.379	326.07
744.78	358.83
745.18	356.49
745.58	269.89
745.98	347.13
746.38	328.41
746.78	321.38
747.18	344.79
747.58	314.36
747.98	302.66
748.38	302.66
748.779	302.66
749.179	295.64
749.578	351.81
749.978	288.62
750.377	396.28
750.777	307.34
751.176	305
751.575	370.54
751.975	333.09
752.374	312.02
752.773	333.09
753.172	375.22
753.571	337.77
753.97	333.09
754.369	293.3
754.768	290.96
755.166	330.75
755.565	363.51
755.964	370.54
756.362	307.34
756.761	283.94
757.159	344.79
757.558	333.09
757.956	351.81
758.354	389.26
758.753	316.7
759.151	351.81
759.549	328.41
759.947	309.68
760.345	314.36
760.743	290.96
761.141	295.64
761.539	358.83
761.936	297.98
762.334	253.51
762.732	312.02
763.129	356.49
763.527	283.94
763.924	323.73
764.322	288.62
764.719	335.43
765.117	354.15
765.514	316.7
765.911	319.04
766.308	328.41
766.705	389.26
767.102	347.13
767.499	319.04
767.896	321.38
768.293	326.07
768.69	305
769.086	321.38
769.483	377.56
769.88	363.51
770.276	314.36
770.673	351.81
771.069	335.43
771.466	274.57
771.862	333.09
772.258	337.77
772.654	361.17
773.05	323.73
773.447	232.44
773.843	290.96
774.239	274.57
774.634	323.73
775.03	333.09
775.426	281.6
775.822	283.94
776.218	386.92
776.613	333.09
777.009	361.17
777.404	363.51
777.8	358.83
778.195	326.07
778.59	328.41
778.986	295.64
779.381	305
779.776	312.02
780.171	295.64
780.566	340.11
780.961	361.17
781.356	286.28
781.751	340.11
782.146	276.91
782.54	288.62
782.935	389.26
783.33	253.51
783.724	297.98
784.119	337.77
784.513	342.45
784.908	361.17
785.302	316.7
785.696	379.9
786.09	363.51
786.485	305
786.879	375.22
787.273	305
787.667	342.45
788.061	365.85
788.454	319.04
788.848	312.02
789.242	295.64
789.636	333.09
790.029	302.66
790.423	349.47
790.816	321.38
791.21	365.85
791.603	379.9
791.997	316.7
792.39	293.3
792.783	288.62
793.176	354.15
793.569	347.13
793.962	295.64
794.355	321.38
794.748	319.04
795.141	319.04
795.534	391.6
795.927	281.6
796.319	340.11
796.712	340.11
797.105	363.51
797.497	333.09
797.89	307.34
798.282	288.62
798.674	386.92
799.067	323.73
799.459	314.36
799.851	375.22
800.243	314.36
800.635	335.43
801.027	319.04
801.419	356.49
801.811	312.02
802.203	300.32
802.594	337.77
802.986	363.51
803.378	330.75
803.769	297.98
804.161	363.51
804.552	274.57
804.944	319.04
805.335	354.15
805.726	267.55
806.118	286.28
806.509	316.7
806.9	302.66
807.291	370.54
807.682	290.96
808.073	328.41
808.464	309.68
808.855	265.21
809.245	300.32
809.636	302.66
810.027	279.26
810.417	288.62
810.808	302.66
811.198	255.85
811.589	279.26
811.979	337.77
812.369	351.81
812.759	368.2
813.15	293.3
813.54	342.45
813.93	340.11
814.32	323.73
814.71	288.62
815.1	349.47
815.489	286.28
815.879	293.3
816.269	286.28
816.658	365.85
817.048	354.15
817.438	328.41
817.827	283.94
818.216	281.6
818.606	354.15
818.995	379.9
819.384	321.38
819.773	307.34
820.163	321.38
820.552	300.32
820.941	342.45
821.33	335.43
821.718	309.68
822.107	330.75
822.496	283.94
822.885	314.36
823.273	281.6
823.662	312.02
824.05	330.75
824.439	326.07
824.827	295.64
825.216	288.62
825.604	269.89
825.992	363.51
826.38	309.68
826.768	305
827.156	351.81
827.544	305
827.932	375.22
828.32	349.47
828.708	286.28
829.096	375.22
829.483	319.04
829.871	335.43
830.259	274.57
830.646	314.36
831.034	307.34
831.421	316.7
831.808	356.49
832.196	330.75
832.583	389.26
832.97	323.73
833.357	323.73
833.744	363.51
834.131	274.57
834.518	309.68
834.905	361.17
835.292	347.13
835.678	337.77
836.065	335.43
836.452	382.24
836.838	258.19
837.225	349.47
837.611	283.94
837.998	319.04
838.384	328.41
838.77	337.77
839.157	307.34
839.543	330.75
839.929	344.79
840.315	354.15
840.701	288.62
841.087	319.04
841.473	307.34
841.858	323.73
842.244	347.13
842.63	314.36
843.015	335.43
843.401	674.81
843.787	319.04
844.172	321.38
844.557	319.04
844.943	305
845.328	363.51
845.713	297.98
846.098	316.7
846.483	326.07
846.868	328.41
847.253	281.6
847.638	333.09
848.023	309.68
848.408	361.17
848.793	330.75
849.177	297.98
849.562	342.45
849.947	368.2
850.331	356.49
850.715	377.56
851.1	365.85
851.484	272.23
851.868	302.66
852.253	307.34
852.637	326.07
853.021	330.75
853.405	288.62
853.789	326.07
854.173	314.36
854.557	253.51
854.94	321.38
855.324	333.09
855.708	389.26
856.091	272.23
856.475	321.38
856.858	335.43
857.242	370.54
857.625	333.09
858.009	312.02
858.392	312.02
858.775	286.28
859.158	389.26
859.541	309.68
859.924	321.38
860.307	312.02
860.69	276.91
861.073	305
861.456	405.64
861.838	312.02
862.221	274.57
862.604	286.28
862.986	276.91
863.369	354.15
863.751	340.11
864.133	307.34
864.516	300.32
864.898	323.73
865.28	347.13
865.662	363.51
866.044	295.64
866.426	363.51
866.808	314.36
867.19	340.11
867.572	295.64
867.954	300.32
868.336	286.28
868.717	323.73
869.099	326.07
869.48	267.55
869.862	349.47
870.243	342.45
870.625	361.17
871.006	305
871.387	351.81
871.768	297.98
872.149	295.64
872.53	319.04
872.911	417.35
873.292	342.45
873.673	361.17
874.054	314.36
874.435	321.38
874.815	379.9
875.196	300.32
875.577	342.45
875.957	319.04
876.338	288.62
876.718	286.28
877.098	302.66
877.479	305
877.859	386.92
878.239	295.64
878.619	319.04
878.999	349.47
879.379	276.91
879.759	274.57
880.139	347.13
880.519	293.3
880.898	344.79
881.278	375.22
881.658	255.85
882.037	316.7
882.417	330.75
882.796	323.73
883.176	312.02
883.555	354.15
883.934	295.64
884.313	316.7
884.693	295.64
885.072	321.38
885.451	309.68
885.83	319.04
886.209	295.64
886.587	286.28
886.966	307.34
887.345	274.57
887.724	340.11
888.102	328.41
888.481	356.49
888.859	333.09
889.238	326.07
889.616	302.66
889.994	349.47
890.373	321.38
890.751	328.41
891.129	314.36
891.507	344.79
891.885	326.07
892.263	368.2
892.641	410.33
893.019	412.67
893.396	323.73
893.774	351.81
894.152	335.43
894.529	305
894.907	279.26
895.284	314.36
895.662	286.28
896.039	342.45
896.416	333.09
896.794	319.04
897.171	323.73
897.548	361.17
897.925	365.85
898.302	323.73
898.679	297.98
899.056	337.77
899.433	305
899.809	335.43
900.186	258.19
900.563	305
900.939	312.02
901.316	333.09
901.692	286.28
902.069	272.23
902.445	295.64
902.821	377.56
903.197	309.68
903.574	300.32
903.95	274.57
904.326	347.13
904.702	274.57
905.078	335.43
905.454	368.2
905.829	358.83
906.205	340.11
906.581	302.66
906.956	319.04
907.332	358.83
907.707	340.11
908.083	321.38
908.458	316.7
908.833	377.56
909.209	269.89
909.584	293.3
909.959	340.11
910.334	356.49
910.709	312.02
911.084	370.54
911.459	368.2
911.834	344.79
912.209	358.83
912.583	302.66
912.958	347.13
913.333	354.15
913.707	347.13
914.082	330.75
914.456	279.26
914.83	330.75
915.205	337.77
915.579	368.2
915.953	302.66
916.327	328.41
916.701	288.62
917.075	368.2
917.449	363.51
917.823	391.6
918.197	283.94
918.571	258.19
918.944	246.49
919.318	276.91
919.692	309.68
920.065	372.88
920.438	379.9
920.812	312.02
921.185	267.55
921.558	232.44
921.932	347.13
922.305	319.04
922.678	340.11
923.051	309.68
923.424	272.23
923.797	279.26
924.17	340.11
924.542	293.3
924.915	344.79
925.288	349.47
925.661	323.73
926.033	302.66
926.406	321.38
926.778	319.04
927.15	297.98
927.523	370.54
927.895	344.79
928.267	297.98
928.639	321.38
929.011	328.41
929.383	290.96
929.755	337.77
930.127	319.04
930.499	251.17
930.871	316.7
931.242	349.47
931.614	274.57
931.986	316.7
932.357	272.23
932.729	375.22
933.1	368.2
933.471	330.75
933.843	314.36
934.214	354.15
934.585	349.47
934.956	316.7
935.327	344.79
935.698	342.45
936.069	267.55
936.44	377.56
936.811	305
937.182	305
937.552	333.09
937.923	337.77
938.293	386.92
938.664	286.28
939.034	323.73
939.405	309.68
939.775	344.79
940.145	349.47
940.516	262.87
940.886	365.85
941.256	297.98
941.626	309.68
941.996	344.79
942.366	335.43
942.735	358.83
943.105	365.85
943.475	368.2
943.845	342.45
944.214	347.13
944.584	335.43
944.953	330.75
945.323	246.49
945.692	351.81
946.061	344.79
946.43	314.36
946.8	340.11
947.169	307.34
947.538	347.13
947.907	347.13
948.276	323.73
948.645	368.2
949.013	379.9
949.382	297.98
949.751	330.75
950.119	295.64
950.488	293.3
950.857	319.04
951.225	314.36
951.593	279.26
951.962	276.91
952.33	340.11
952.698	269.89
953.066	314.36
953.434	319.04
953.802	319.04
954.17	316.7
954.538	305
954.906	276.91
955.274	293.3
955.642	297.98
956.009	309.68
956.377	300.32
956.744	328.41
957.112	326.07
957.479	281.6
957.847	330.75
958.214	321.38
958.581	335.43
958.948	337.77
959.315	312.02
959.683	335.43
960.05	344.79
960.416	323.73
960.783	312.02
961.15	293.3
961.517	337.77
961.884	314.36
962.25	375.22
962.617	307.34
962.983	344.79
963.35	363.51
963.716	319.04
964.082	279.26
964.449	281.6
964.815	342.45
965.181	370.54
965.547	349.47
965.913	403.3
966.279	279.26
966.645	351.81
967.011	328.41
967.377	321.38
967.742	321.38
968.108	323.73
968.474	286.28
968.839	391.6
969.205	344.79
969.57	316.7
969.935	305
970.301	337.77
970.666	351.81
971.031	337.77
971.396	286.28
971.761	276.91
972.126	330.75
972.491	342.45
972.856	260.53
973.221	300.32
973.586	328.41
973.95	307.34
974.315	300.32
974.679	342.45
975.044	302.66
975.408	354.15
975.773	323.73
976.137	297.98
976.501	258.19
976.866	344.79
977.23	309.68
977.594	319.04
977.958	337.77
978.322	379.9
978.686	309.68
979.049	335.43
979.413	354.15
979.777	312.02
980.141	328.41
980.504	293.3
980.868	347.13
981.231	262.87
981.595	307.34
981.958	312.02
982.321	358.83
982.684	335.43
983.048	335.43
983.411	323.73
983.774	274.57
984.137	297.98
984.5	290.96
984.862	281.6
985.225	305
985.588	326.07
985.951	267.55
986.313	297.98
986.676	321.38
987.038	351.81
987.401	262.87
987.763	337.77
988.125	333.09
988.488	297.98
988.85	337.77
989.212	302.66
989.574	316.7
989.936	300.32
990.298	281.6
990.66	377.56
991.022	297.98
991.383	361.17
991.745	307.34
992.107	302.66
992.468	344.79
992.83	403.3
993.191	384.58
993.553	286.28
993.914	288.62
994.275	290.96
994.637	288.62
994.998	312.02
995.359	389.26
995.72	328.41
996.081	349.47
996.442	305
996.803	312.02
997.163	295.64
997.524	265.21
997.885	358.83
998.245	272.23
998.606	316.7
998.966	342.45
999.327	316.7
999.687	326.07
1000.047	307.34
1000.408	300.32
1000.768	314.36
1001.128	290.96
1001.488	337.77
1001.848	370.54
1002.208	358.83
1002.568	337.77
1002.927	307.34
1003.287	326.07
1003.647	417.35
1004.007	321.38
1004.366	321.38
1004.726	272.23
1005.085	323.73
1005.444	305
1005.804	246.49
1006.163	372.88
1006.522	372.88
1006.881	305
1007.24	286.28
1007.599	255.85
1007.958	347.13
1008.317	276.91
1008.676	319.04
1009.035	342.45
1009.393	330.75
1009.752	368.2
1010.111	319.04
1010.469	358.83
1010.828	365.85
1011.186	372.88
1011.544	344.79
1011.903	307.34
1012.261	316.7
1012.619	354.15
1012.977	305
1013.335	342.45
1013.693	290.96
1014.051	281.6
1014.409	365.85
1014.767	295.64
1015.124	328.41
1015.482	279.26
1015.84	326.07
1016.197	237.13
1016.555	262.87
1016.912	326.07
1017.269	314.36
1017.627	319.04
1017.984	354.15
1018.341	330.75
1018.698	290.96
1019.055	342.45
1019.412	344.79
1019.769	417.35
1020.126	312.02
1020.483	293.3
1020.84	328.41
1021.196	356.49
1021.553	295.64
1021.909	269.89
1022.266	335.43
1022.622	307.34
1022.979	283.94
1023.335	323.73
1023.691	365.85
1024.047	319.04
1024.404	286.28
1024.76	321.38
1025.116	314.36
1025.472	368.2
1025.827	293.3
1026.183	342.45
1026.539	312.02
1026.895	272.23
1027.25	288.62
1027.606	297.98
1027.961	314.36
1028.317	297.98
1028.672	335.43
1029.028	403.3
1029.383	323.73
1029.738	314.36
1030.093	333.09
1030.448	365.85
1030.803	213.72
1031.158	290.96
1031.513	295.64
1031.868	393.94
1032.223	349.47
1032.577	365.85
1032.932	326.07
1033.287	286.28
1033.641	330.75
1033.996	312.02
1034.35	340.11
1034.704	384.58
1035.059	384.58
1035.413	354.15
1035.767	354.15
1036.121	354.15
