Data from Al_FLMS009871__558__14-43-34-620.txt Node

Date: Fri Mar 08 14:43:34 CST 2024
User: pe5414po
Spectrometer: FLMS00987
Trigger mode: 0
Integration Time (sec): 1.000000E-1
Scans to average: 1
Electric dark correction enabled: true
Nonlinearity correction enabled: false
Boxcar width: 0
XAxis mode: Wavelengths
Number of Pixels in Spectrum: 2048
>>>>>Begin Spectral Data<<<<<
188.938	-92.3
189.409	-92.3
189.879	-92.3
190.349	-167.2
190.819	-120.39
191.29	-89.96
191.76	-101.67
192.23	-92.3
192.7	-85.28
193.17	-61.88
193.64	-59.54
194.109	27.06
194.579	-71.24
195.049	13.02
195.519	52.81
195.988	34.08
196.458	69.19
196.927	34.08
197.397	94.94
197.866	99.62
198.336	137.07
198.805	94.94
199.274	179.2
199.744	162.81
200.213	174.52
200.682	193.24
201.151	139.41
201.62	237.71
202.089	221.33
202.558	268.14
203.027	244.73
203.495	204.94
203.964	216.65
204.433	249.41
204.902	249.41
205.37	321.97
205.839	251.75
206.307	303.25
206.776	333.67
207.244	258.78
207.712	263.46
208.181	265.8
208.649	296.22
209.117	305.59
209.585	291.54
210.053	247.07
210.521	282.18
210.989	282.18
211.457	272.82
211.925	247.07
212.393	305.59
212.861	261.12
213.328	317.29
213.796	242.39
214.264	244.73
214.731	263.46
215.199	289.2
215.666	270.48
216.133	251.75
216.601	275.16
217.068	190.9
217.535	261.12
218.003	261.12
218.47	303.25
218.937	258.78
219.404	151.11
219.871	307.93
220.338	228.35
220.805	244.73
221.271	277.5
221.738	279.84
222.205	270.48
222.671	216.65
223.138	247.07
223.605	328.99
224.071	261.12
224.538	303.25
225.004	228.35
225.47	249.41
225.937	275.16
226.403	247.07
226.869	263.46
227.335	263.46
227.801	230.69
228.267	207.28
228.733	249.41
229.199	279.84
229.665	247.07
230.131	216.65
230.597	256.43
231.062	277.5
231.528	223.67
231.994	235.37
232.459	275.16
232.925	235.37
233.39	282.18
233.856	247.07
234.321	237.71
234.786	230.69
235.252	307.93
235.717	317.29
236.182	258.78
236.647	277.5
237.112	254.09
237.577	307.93
238.042	256.43
238.507	314.95
238.972	197.92
239.436	289.2
239.901	317.29
240.366	235.37
240.83	216.65
241.295	275.16
241.76	237.71
242.224	289.2
242.688	247.07
243.153	228.35
243.617	240.05
244.081	240.05
244.545	251.75
245.01	263.46
245.474	338.35
245.938	310.27
246.402	324.31
246.866	251.75
247.33	228.35
247.793	223.67
248.257	350.06
248.721	272.82
249.185	303.25
249.648	319.63
250.112	289.2
250.575	268.14
251.039	256.43
251.502	235.37
251.965	261.12
252.429	275.16
252.892	202.6
253.355	230.69
253.818	251.75
254.281	172.18
254.744	310.27
255.207	272.82
255.67	300.91
256.133	275.16
256.596	338.35
257.059	265.8
257.522	261.12
257.984	195.58
258.447	244.73
258.909	326.65
259.372	263.46
259.834	261.12
260.297	265.8
260.759	303.25
261.221	261.12
261.684	275.16
262.146	364.1
262.608	324.31
263.07	300.91
263.532	251.75
263.994	244.73
264.456	247.07
264.918	300.91
265.38	275.16
265.842	251.75
266.303	251.75
266.765	286.86
267.227	251.75
267.688	300.91
268.15	275.16
268.611	261.12
269.072	230.69
269.534	331.33
269.995	359.42
270.456	338.35
270.918	298.56
271.379	277.5
271.84	314.95
272.301	282.18
272.762	298.56
273.223	289.2
273.684	305.59
274.144	263.46
274.605	298.56
275.066	247.07
275.527	298.56
275.987	207.28
276.448	284.52
276.908	303.25
277.369	249.41
277.829	321.97
278.289	293.88
278.75	249.41
279.21	244.73
279.67	305.59
280.13	272.82
280.59	272.82
281.05	272.82
281.51	228.35
281.97	254.09
282.43	275.16
282.89	233.03
283.35	242.39
283.809	347.72
284.269	293.88
284.729	305.59
285.188	303.25
285.648	321.97
286.107	368.78
286.567	296.22
287.026	310.27
287.485	291.54
287.944	305.59
288.404	324.31
288.863	258.78
289.322	289.2
289.781	284.52
290.24	291.54
290.699	240.05
291.158	319.63
291.616	270.48
292.075	277.5
292.534	289.2
292.992	328.99
293.451	284.52
293.91	326.65
294.368	300.91
294.827	307.93
295.285	336.01
295.743	277.5
296.202	275.16
296.66	340.69
297.118	289.2
297.576	279.84
298.034	324.31
298.492	310.27
298.95	291.54
299.408	233.03
299.866	265.8
300.324	310.27
300.781	326.65
301.239	317.29
301.697	312.61
302.154	324.31
302.612	303.25
303.069	312.61
303.527	312.61
303.984	249.41
304.441	286.86
304.899	300.91
305.356	240.05
305.813	319.63
306.27	300.91
306.727	207.28
307.184	270.48
307.641	272.82
308.098	321.97
308.555	303.25
309.012	265.8
309.468	307.93
309.925	251.75
310.382	343.03
310.838	296.22
311.295	272.82
311.751	270.48
312.208	289.2
312.664	226.01
313.12	240.05
313.577	303.25
314.033	275.16
314.489	209.62
314.945	289.2
315.401	305.59
315.857	310.27
316.313	314.95
316.769	282.18
317.225	331.33
317.681	277.5
318.136	251.75
318.592	328.99
319.048	298.56
319.503	263.46
319.959	263.46
320.414	303.25
320.869	307.93
321.325	265.8
321.78	251.75
322.235	336.01
322.691	352.4
323.146	307.93
323.601	319.63
324.056	317.29
324.511	340.69
324.966	235.37
325.421	265.8
325.875	242.39
326.33	298.56
326.785	338.35
327.24	326.65
327.694	305.59
328.149	284.52
328.603	326.65
329.058	289.2
329.512	256.43
329.966	380.48
330.421	300.91
330.875	284.52
331.329	298.56
331.783	300.91
332.237	277.5
332.691	340.69
333.145	277.5
333.599	293.88
334.053	317.29
334.507	291.54
334.96	277.5
335.414	319.63
335.868	300.91
336.321	209.62
336.775	298.56
337.228	314.95
337.682	270.48
338.135	345.38
338.588	352.4
339.042	317.29
339.495	314.95
339.948	279.84
340.401	275.16
340.854	230.69
341.307	223.67
341.76	277.5
342.213	237.71
342.666	263.46
343.119	310.27
343.571	237.71
344.024	300.91
344.477	310.27
344.929	331.33
345.382	247.07
345.834	296.22
346.287	340.69
346.739	293.88
347.191	319.63
347.644	319.63
348.096	296.22
348.548	286.86
349	277.5
349.452	204.94
349.904	270.48
350.356	357.08
350.808	277.5
351.26	221.33
351.711	265.8
352.163	312.61
352.615	265.8
353.066	244.73
353.518	286.86
353.969	305.59
354.421	268.14
354.872	240.05
355.324	326.65
355.775	291.54
356.226	305.59
356.677	211.96
357.128	310.27
357.579	233.03
358.03	284.52
358.481	310.27
358.932	282.18
359.383	336.01
359.834	289.2
360.285	310.27
360.735	298.56
361.186	364.1
361.637	345.38
362.087	321.97
362.538	340.69
362.988	307.93
363.438	303.25
363.889	312.61
364.339	366.44
364.789	296.22
365.239	233.03
365.689	319.63
366.139	324.31
366.589	373.46
367.039	221.33
367.489	364.1
367.939	312.61
368.389	314.95
368.839	284.52
369.288	235.37
369.738	359.42
370.187	249.41
370.637	361.76
371.086	333.67
371.536	303.25
371.985	385.16
372.434	328.99
372.884	314.95
373.333	258.78
373.782	305.59
374.231	303.25
374.68	303.25
375.129	263.46
375.578	361.76
376.027	305.59
376.475	333.67
376.924	310.27
377.373	317.29
377.822	310.27
378.27	333.67
378.719	282.18
379.167	298.56
379.616	237.71
380.064	265.8
380.512	300.91
380.961	275.16
381.409	265.8
381.857	338.35
382.305	291.54
382.753	293.88
383.201	347.72
383.649	366.44
384.097	256.43
384.545	321.97
384.992	263.46
385.44	303.25
385.888	275.16
386.335	291.54
386.783	282.18
387.231	279.84
387.678	216.65
388.125	300.91
388.573	350.06
389.02	265.8
389.467	312.61
389.914	317.29
390.362	293.88
390.809	286.86
391.256	305.59
391.703	286.86
392.15	326.65
392.596	314.95
393.043	314.95
393.49	305.59
393.937	305.59
394.383	279.84
394.83	286.86
395.276	258.78
395.723	305.59
396.169	314.95
396.616	317.29
397.062	272.82
397.508	352.4
397.954	286.86
398.401	254.09
398.847	354.74
399.293	336.01
399.739	310.27
400.185	286.86
400.631	284.52
401.076	336.01
401.522	331.33
401.968	298.56
402.414	324.31
402.859	296.22
403.305	279.84
403.75	343.03
404.196	261.12
404.641	333.67
405.086	296.22
405.532	326.65
405.977	333.67
406.422	270.48
406.867	328.99
407.312	296.22
407.757	317.29
408.202	305.59
408.647	317.29
409.092	289.2
409.537	277.5
409.982	270.48
410.426	310.27
410.871	256.43
411.316	293.88
411.76	282.18
412.205	261.12
412.649	303.25
413.093	305.59
413.538	230.69
413.982	298.56
414.426	251.75
414.87	296.22
415.314	314.95
415.758	305.59
416.202	223.67
416.646	293.88
417.09	333.67
417.534	314.95
417.978	328.99
418.421	336.01
418.865	305.59
419.309	333.67
419.752	296.22
420.196	265.8
420.639	350.06
421.083	300.91
421.526	268.14
421.969	300.91
422.412	277.5
422.856	403.89
423.299	354.74
423.742	310.27
424.185	289.2
424.628	324.31
425.071	289.2
425.513	298.56
425.956	307.93
426.399	293.88
426.842	286.86
427.284	204.94
427.727	317.29
428.169	270.48
428.612	258.78
429.054	263.46
429.497	336.01
429.939	293.88
430.381	256.43
430.823	254.09
431.265	321.97
431.707	307.93
432.149	338.35
432.591	263.46
433.033	275.16
433.475	263.46
433.917	312.61
434.359	270.48
434.8	237.71
435.242	277.5
435.684	317.29
436.125	282.18
436.567	298.56
437.008	305.59
437.449	300.91
437.891	373.46
438.332	317.29
438.773	275.16
439.214	324.31
439.656	321.97
440.097	354.74
440.538	218.99
440.978	268.14
441.419	328.99
441.86	343.03
442.301	298.56
442.742	310.27
443.182	305.59
443.623	289.2
444.063	300.91
444.504	317.29
444.944	303.25
445.385	361.76
445.825	279.84
446.265	354.74
446.706	279.84
447.146	324.31
447.586	324.31
448.026	354.74
448.466	279.84
448.906	345.38
449.346	347.72
449.786	254.09
450.225	359.42
450.665	293.88
451.105	284.52
451.544	312.61
451.984	317.29
452.424	296.22
452.863	268.14
453.302	268.14
453.742	314.95
454.181	336.01
454.62	385.16
455.059	310.27
455.499	286.86
455.938	375.8
456.377	354.74
456.816	307.93
457.254	317.29
457.693	314.95
458.132	270.48
458.571	279.84
459.01	387.5
459.448	284.52
459.887	375.8
460.325	298.56
460.764	289.2
461.202	268.14
461.641	282.18
462.079	340.69
462.517	321.97
462.955	270.48
463.393	333.67
463.832	289.2
464.27	310.27
464.708	319.63
465.145	326.65
465.583	296.22
466.021	284.52
466.459	307.93
466.897	312.61
467.334	336.01
467.772	305.59
468.209	249.41
468.647	321.97
469.084	244.73
469.522	340.69
469.959	338.35
470.396	357.08
470.833	282.18
471.271	237.71
471.708	338.35
472.145	321.97
472.582	359.42
473.019	359.42
473.456	310.27
473.892	321.97
474.329	254.09
474.766	296.22
475.202	216.65
475.639	326.65
476.076	333.67
476.512	247.07
476.949	197.92
477.385	289.2
477.821	312.61
478.258	282.18
478.694	319.63
479.13	303.25
479.566	345.38
480.002	268.14
480.438	298.56
480.874	289.2
481.31	333.67
481.746	289.2
482.181	277.5
482.617	289.2
483.053	251.75
483.488	314.95
483.924	326.65
484.36	310.27
484.795	382.82
485.23	340.69
485.666	240.05
486.101	298.56
486.536	293.88
486.971	261.12
487.407	324.31
487.842	371.12
488.277	303.25
488.712	249.41
489.146	350.06
489.581	338.35
490.016	291.54
490.451	314.95
490.885	277.5
491.32	277.5
491.755	289.2
492.189	298.56
492.624	324.31
493.058	333.67
493.492	314.95
493.927	368.78
494.361	336.01
494.795	366.44
495.229	338.35
495.663	268.14
496.097	324.31
496.531	345.38
496.965	270.48
497.399	293.88
497.833	291.54
498.266	361.76
498.7	293.88
499.134	289.2
499.567	272.82
500.001	359.42
500.434	291.54
500.868	291.54
501.301	307.93
501.734	270.48
502.168	314.95
502.601	307.93
503.034	261.12
503.467	303.25
503.9	326.65
504.333	244.73
504.766	298.56
505.199	354.74
505.632	310.27
506.064	256.43
506.497	317.29
506.93	321.97
507.362	312.61
507.795	242.39
508.227	277.5
508.66	321.97
509.092	357.08
509.524	305.59
509.956	350.06
510.389	268.14
510.821	300.91
511.253	340.69
511.685	366.44
512.117	296.22
512.549	333.67
512.981	378.14
513.412	286.86
513.844	275.16
514.276	291.54
514.707	352.4
515.139	230.69
515.571	319.63
516.002	286.86
516.433	279.84
516.865	258.78
517.296	343.03
517.727	293.88
518.159	230.69
518.59	321.97
519.021	314.95
519.452	268.14
519.883	244.73
520.314	338.35
520.744	296.22
521.175	282.18
521.606	300.91
522.037	331.33
522.467	317.29
522.898	305.59
523.328	275.16
523.759	251.75
524.189	305.59
524.62	321.97
525.05	343.03
525.48	268.14
525.91	261.12
526.341	310.27
526.771	296.22
527.201	319.63
527.631	343.03
528.061	275.16
528.49	331.33
528.92	268.14
529.35	326.65
529.78	263.46
530.209	324.31
530.639	286.86
531.068	314.95
531.498	293.88
531.927	321.97
532.357	282.18
532.786	296.22
533.215	361.76
533.644	324.31
534.074	343.03
534.503	289.2
534.932	277.5
535.361	310.27
535.79	310.27
536.218	314.95
536.647	312.61
537.076	366.44
537.505	312.61
537.933	364.1
538.362	286.86
538.79	216.65
539.219	289.2
539.647	286.86
540.076	345.38
540.504	310.27
540.932	321.97
541.36	331.33
541.788	357.08
542.217	284.52
542.645	303.25
543.073	319.63
543.5	333.67
543.928	336.01
544.356	296.22
544.784	282.18
545.211	275.16
545.639	286.86
546.067	345.38
546.494	371.12
546.922	331.33
547.349	282.18
547.776	291.54
548.204	307.93
548.631	314.95
549.058	277.5
549.485	275.16
549.912	312.61
550.339	312.61
550.766	357.08
551.193	305.59
551.62	286.86
552.047	314.95
552.474	314.95
552.9	293.88
553.327	254.09
553.754	366.44
554.18	310.27
554.607	291.54
555.033	286.86
555.459	256.43
555.886	312.61
556.312	321.97
556.738	321.97
557.164	291.54
557.59	244.73
558.016	300.91
558.442	328.99
558.868	328.99
559.294	275.16
559.72	284.52
560.145	289.2
560.571	293.88
560.997	312.61
561.422	347.72
561.848	324.31
562.273	275.16
562.699	328.99
563.124	375.8
563.549	298.56
563.974	314.95
564.4	282.18
564.825	261.12
565.25	354.74
565.675	284.52
566.1	277.5
566.525	251.75
566.95	289.2
567.374	307.93
567.799	324.31
568.224	305.59
568.648	326.65
569.073	298.56
569.497	340.69
569.922	268.14
570.346	333.67
570.771	312.61
571.195	293.88
571.619	343.03
572.043	258.78
572.467	272.82
572.891	328.99
573.315	310.27
573.739	324.31
574.163	352.4
574.587	326.65
575.011	279.84
575.435	307.93
575.858	296.22
576.282	403.89
576.705	251.75
577.129	317.29
577.552	298.56
577.976	286.86
578.399	289.2
578.822	237.71
579.245	326.65
579.669	336.01
580.092	305.59
580.515	331.33
580.938	240.05
581.361	359.42
581.784	307.93
582.206	338.35
582.629	291.54
583.052	272.82
583.474	235.37
583.897	312.61
584.32	289.2
584.742	279.84
585.165	298.56
585.587	293.88
586.009	305.59
586.431	336.01
586.854	303.25
587.276	251.75
587.698	286.86
588.12	310.27
588.542	270.48
588.964	286.86
589.386	293.88
589.807	272.82
590.229	354.74
590.651	284.52
591.073	310.27
591.494	254.09
591.916	204.94
592.337	368.78
592.759	314.95
593.18	307.93
593.601	378.14
594.022	228.35
594.444	291.54
594.865	310.27
595.286	345.38
595.707	268.14
596.128	249.41
596.549	317.29
596.97	289.2
597.39	317.29
597.811	371.12
598.232	296.22
598.652	298.56
599.073	265.8
599.494	279.84
599.914	314.95
600.334	314.95
600.755	350.06
601.175	226.01
601.595	289.2
602.015	272.82
602.436	296.22
602.856	427.29
603.276	340.69
603.696	312.61
604.115	345.38
604.535	319.63
604.955	310.27
605.375	319.63
605.794	277.5
606.214	317.29
606.634	279.84
607.053	317.29
607.473	326.65
607.892	352.4
608.311	303.25
608.731	233.03
609.15	289.2
609.569	265.8
609.988	357.08
610.407	338.35
610.826	289.2
611.245	298.56
611.664	328.99
612.083	289.2
612.501	298.56
612.92	340.69
613.339	326.65
613.757	317.29
614.176	261.12
614.594	293.88
615.013	347.72
615.431	312.61
615.85	368.78
616.268	317.29
616.686	352.4
617.104	298.56
617.522	282.18
617.94	314.95
618.358	251.75
618.776	221.33
619.194	303.25
619.612	247.07
620.03	319.63
620.447	331.33
620.865	286.86
621.282	314.95
621.7	361.76
622.117	251.75
622.535	249.41
622.952	286.86
623.369	300.91
623.787	244.73
624.204	275.16
624.621	300.91
625.038	268.14
625.455	350.06
625.872	293.88
626.289	291.54
626.706	359.42
627.123	296.22
627.539	314.95
627.956	347.72
628.373	321.97
628.789	254.09
629.206	291.54
629.622	305.59
630.038	237.71
630.455	282.18
630.871	209.62
631.287	279.84
631.703	277.5
632.12	277.5
632.536	340.69
632.952	310.27
633.368	340.69
633.783	286.86
634.199	338.35
634.615	230.69
635.031	326.65
635.446	310.27
635.862	305.59
636.277	321.97
636.693	319.63
637.108	317.29
637.524	303.25
637.939	338.35
638.354	277.5
638.77	275.16
639.185	326.65
639.6	296.22
640.015	247.07
640.43	282.18
640.845	310.27
641.259	275.16
641.674	254.09
642.089	272.82
642.504	303.25
642.918	321.97
643.333	286.86
643.747	284.52
644.162	307.93
644.576	296.22
644.991	258.78
645.405	310.27
645.819	240.05
646.233	279.84
646.647	305.59
647.061	268.14
647.475	251.75
647.889	268.14
648.303	340.69
648.717	305.59
649.131	268.14
649.545	293.88
649.958	328.99
650.372	277.5
650.785	343.03
651.199	296.22
651.612	277.5
652.026	317.29
652.439	263.46
652.852	286.86
653.266	216.65
653.679	268.14
654.092	218.99
654.505	284.52
654.918	277.5
655.331	317.29
655.744	300.91
656.156	305.59
656.569	314.95
656.982	333.67
657.394	312.61
657.807	261.12
658.22	286.86
658.632	268.14
659.044	319.63
659.457	258.78
659.869	350.06
660.281	328.99
660.693	343.03
661.106	270.48
661.518	291.54
661.93	277.5
662.342	256.43
662.754	291.54
663.165	293.88
663.577	289.2
663.989	286.86
664.401	338.35
664.812	326.65
665.224	324.31
665.635	298.56
666.047	394.53
666.458	265.8
666.869	307.93
667.281	305.59
667.692	284.52
668.103	247.07
668.514	305.59
668.925	321.97
669.336	314.95
669.747	286.86
670.158	319.63
670.569	258.78
670.979	371.12
671.39	300.91
671.801	324.31
672.211	378.14
672.622	235.37
673.032	328.99
673.443	364.1
673.853	286.86
674.263	277.5
674.674	321.97
675.084	312.61
675.494	312.61
675.904	211.96
676.314	282.18
676.724	277.5
677.134	366.44
677.544	324.31
677.953	314.95
678.363	340.69
678.773	352.4
679.182	279.84
679.592	324.31
680.001	249.41
680.411	240.05
680.82	296.22
681.23	312.61
681.639	314.95
682.048	319.63
682.457	272.82
682.866	328.99
683.275	310.27
683.684	357.08
684.093	284.52
684.502	350.06
684.911	303.25
685.32	345.38
685.728	331.33
686.137	291.54
686.546	235.37
686.954	296.22
687.363	420.27
687.771	305.59
688.179	326.65
688.588	293.88
688.996	296.22
689.404	298.56
689.812	240.05
690.22	247.07
690.628	314.95
691.036	300.91
691.444	298.56
691.852	300.91
692.26	296.22
692.667	268.14
693.075	401.55
693.483	326.65
693.89	242.39
694.298	263.46
694.705	305.59
695.112	354.74
695.52	293.88
695.927	321.97
696.334	237.71
696.741	263.46
697.148	364.1
697.555	310.27
697.962	221.33
698.369	286.86
698.776	293.88
699.183	303.25
699.59	317.29
699.996	291.54
700.403	300.91
700.81	263.46
701.216	328.99
701.623	279.84
702.029	293.88
702.435	317.29
702.842	336.01
703.248	368.78
703.654	317.29
704.06	268.14
704.466	279.84
704.872	284.52
705.278	272.82
705.684	270.48
706.09	319.63
706.496	298.56
706.901	338.35
707.307	354.74
707.712	298.56
708.118	275.16
708.523	326.65
708.929	279.84
709.334	195.58
709.74	256.43
710.145	296.22
710.55	284.52
710.955	270.48
711.36	293.88
711.765	240.05
712.17	352.4
712.575	343.03
712.98	766.67
713.385	357.08
713.789	328.99
714.194	328.99
714.599	296.22
715.003	261.12
715.408	312.61
715.812	293.88
716.217	312.61
716.621	314.95
717.025	242.39
717.429	324.31
717.833	268.14
718.238	263.46
718.642	310.27
719.046	242.39
719.449	300.91
719.853	310.27
720.257	321.97
720.661	303.25
721.065	307.93
721.468	331.33
721.872	289.2
722.275	338.35
722.679	328.99
723.082	368.78
723.485	338.35
723.889	265.8
724.292	307.93
724.695	265.8
725.098	347.72
725.501	293.88
725.904	319.63
726.307	293.88
726.71	305.59
727.113	359.42
727.516	328.99
727.918	345.38
728.321	324.31
728.724	258.78
729.126	300.91
729.529	307.93
729.931	331.33
730.333	249.41
730.736	347.72
731.138	368.78
731.54	326.65
731.942	328.99
732.344	258.78
732.746	261.12
733.148	272.82
733.55	336.01
733.952	279.84
734.354	272.82
734.756	270.48
735.157	270.48
735.559	312.61
735.96	279.84
736.362	298.56
736.763	307.93
737.165	284.52
737.566	272.82
737.967	293.88
738.368	373.46
738.77	275.16
739.171	319.63
739.572	303.25
739.973	268.14
740.374	307.93
740.774	277.5
741.175	303.25
741.576	305.59
741.977	286.86
742.377	298.56
742.778	296.22
743.178	324.31
743.579	277.5
743.979	352.4
744.379	289.2
744.78	296.22
745.18	268.14
745.58	338.35
745.98	244.73
746.38	284.52
746.78	347.72
747.18	375.8
747.58	289.2
747.98	279.84
748.38	310.27
748.779	265.8
749.179	378.14
749.578	331.33
749.978	303.25
750.377	317.29
750.777	249.41
751.176	319.63
751.575	305.59
751.975	230.69
752.374	289.2
752.773	286.86
753.172	261.12
753.571	296.22
753.97	286.86
754.369	293.88
754.768	328.99
755.166	284.52
755.565	249.41
755.964	268.14
756.362	310.27
756.761	284.52
757.159	324.31
757.558	310.27
757.956	300.91
758.354	289.2
758.753	286.86
759.151	328.99
759.549	303.25
759.947	307.93
760.345	279.84
760.743	286.86
761.141	312.61
761.539	277.5
761.936	317.29
762.334	279.84
762.732	333.67
763.129	319.63
763.527	263.46
763.924	275.16
764.322	303.25
764.719	263.46
765.117	261.12
765.514	331.33
765.911	249.41
766.308	296.22
766.705	354.74
767.102	317.29
767.499	272.82
767.896	277.5
768.293	319.63
768.69	317.29
769.086	256.43
769.483	256.43
769.88	319.63
770.276	214.31
770.673	326.65
771.069	282.18
771.466	258.78
771.862	303.25
772.258	359.42
772.654	340.69
773.05	289.2
773.447	296.22
773.843	263.46
774.239	352.4
774.634	300.91
775.03	307.93
775.426	291.54
775.822	336.01
776.218	282.18
776.613	298.56
777.009	312.61
777.404	378.14
777.8	331.33
778.195	307.93
778.59	265.8
778.986	291.54
779.381	282.18
779.776	268.14
780.171	242.39
780.566	291.54
780.961	279.84
781.356	350.06
781.751	347.72
782.146	275.16
782.54	261.12
782.935	251.75
783.33	272.82
783.724	312.61
784.119	226.01
784.513	321.97
784.908	331.33
785.302	247.07
785.696	328.99
786.09	326.65
786.485	244.73
786.879	291.54
787.273	286.86
787.667	279.84
788.061	284.52
788.454	303.25
788.848	265.8
789.242	361.76
789.636	289.2
790.029	338.35
790.423	305.59
790.816	338.35
791.21	366.44
791.603	265.8
791.997	326.65
792.39	272.82
792.783	312.61
793.176	317.29
793.569	343.03
793.962	279.84
794.355	279.84
794.748	328.99
795.141	279.84
795.534	268.14
795.927	242.39
796.319	350.06
796.712	326.65
797.105	303.25
797.497	310.27
797.89	256.43
798.282	282.18
798.674	345.38
799.067	314.95
799.459	237.71
799.851	296.22
800.243	284.52
800.635	275.16
801.027	305.59
801.419	258.78
801.811	296.22
802.203	310.27
802.594	338.35
802.986	305.59
803.378	319.63
803.769	268.14
804.161	326.65
804.552	303.25
804.944	272.82
805.335	242.39
805.726	282.18
806.118	279.84
806.509	263.46
806.9	326.65
807.291	293.88
807.682	303.25
808.073	279.84
808.464	317.29
808.855	312.61
809.245	258.78
809.636	258.78
810.027	312.61
810.417	265.8
810.808	291.54
811.198	338.35
811.589	296.22
811.979	296.22
812.369	226.01
812.759	317.29
813.15	270.48
813.54	226.01
813.93	343.03
814.32	289.2
814.71	209.62
815.1	293.88
815.489	284.52
815.879	282.18
816.269	270.48
816.658	268.14
817.048	282.18
817.438	268.14
817.827	261.12
818.216	279.84
818.606	268.14
818.995	284.52
819.384	263.46
819.773	307.93
820.163	284.52
820.552	300.91
820.941	296.22
821.33	317.29
821.718	270.48
822.107	286.86
822.496	279.84
822.885	324.31
823.273	298.56
823.662	321.97
824.05	310.27
824.439	354.74
824.827	319.63
825.216	378.14
825.604	343.03
825.992	317.29
826.38	317.29
826.768	368.78
827.156	399.21
827.544	282.18
827.932	293.88
828.32	317.29
828.708	249.41
829.096	296.22
829.483	307.93
829.871	319.63
830.259	293.88
830.646	211.96
831.034	296.22
831.421	345.38
831.808	289.2
832.196	272.82
832.583	254.09
832.97	240.05
833.357	261.12
833.744	336.01
834.131	317.29
834.518	284.52
834.905	300.91
835.292	293.88
835.678	354.74
836.065	312.61
836.452	268.14
836.838	261.12
837.225	263.46
837.611	340.69
837.998	314.95
838.384	338.35
838.77	368.78
839.157	298.56
839.543	319.63
839.929	310.27
840.315	298.56
840.701	300.91
841.087	312.61
841.473	242.39
841.858	321.97
842.244	265.8
842.63	307.93
843.015	254.09
843.401	649.64
843.787	291.54
844.172	347.72
844.557	279.84
844.943	265.8
845.328	258.78
845.713	242.39
846.098	293.88
846.483	345.38
846.868	296.22
847.253	249.41
847.638	345.38
848.023	343.03
848.408	326.65
848.793	258.78
849.177	277.5
849.562	298.56
849.947	268.14
850.331	298.56
850.715	314.95
851.1	305.59
851.484	307.93
851.868	286.86
852.253	275.16
852.637	296.22
853.021	226.01
853.405	233.03
853.789	244.73
854.173	268.14
854.557	314.95
854.94	307.93
855.324	317.29
855.708	378.14
856.091	305.59
856.475	324.31
856.858	336.01
857.242	307.93
857.625	286.86
858.009	258.78
858.392	296.22
858.775	251.75
859.158	326.65
859.541	324.31
859.924	305.59
860.307	371.12
860.69	293.88
861.073	214.31
861.456	328.99
861.838	272.82
862.221	272.82
862.604	310.27
862.986	354.74
863.369	293.88
863.751	289.2
864.133	396.87
864.516	289.2
864.898	270.48
865.28	366.44
865.662	251.75
866.044	343.03
866.426	336.01
866.808	317.29
867.19	326.65
867.572	354.74
867.954	305.59
868.336	223.67
868.717	204.94
869.099	275.16
869.48	261.12
869.862	254.09
870.243	307.93
870.625	293.88
871.006	277.5
871.387	312.61
871.768	289.2
872.149	312.61
872.53	291.54
872.911	244.73
873.292	305.59
873.673	298.56
874.054	296.22
874.435	279.84
874.815	303.25
875.196	314.95
875.577	261.12
875.957	268.14
876.338	317.29
876.718	211.96
877.098	352.4
877.479	275.16
877.859	305.59
878.239	265.8
878.619	300.91
878.999	385.16
879.379	263.46
879.759	272.82
880.139	263.46
880.519	284.52
880.898	326.65
881.278	331.33
881.658	359.42
882.037	293.88
882.417	291.54
882.796	307.93
883.176	319.63
883.555	314.95
883.934	286.86
884.313	293.88
884.693	279.84
885.072	298.56
885.451	230.69
885.83	272.82
886.209	277.5
886.587	247.07
886.966	364.1
887.345	375.8
887.724	317.29
888.102	296.22
888.481	305.59
888.859	317.29
889.238	284.52
889.616	251.75
889.994	324.31
890.373	347.72
890.751	317.29
891.129	254.09
891.507	279.84
891.885	291.54
892.263	364.1
892.641	317.29
893.019	345.38
893.396	307.93
893.774	321.97
894.152	321.97
894.529	307.93
894.907	350.06
895.284	284.52
895.662	319.63
896.039	300.91
896.416	270.48
896.794	282.18
897.171	324.31
897.548	275.16
897.925	298.56
898.302	345.38
898.679	326.65
899.056	277.5
899.433	338.35
899.809	387.5
900.186	265.8
900.563	312.61
900.939	258.78
901.316	303.25
901.692	258.78
902.069	263.46
902.445	300.91
902.821	277.5
903.197	380.48
903.574	296.22
903.95	331.33
904.326	326.65
904.702	328.99
905.078	324.31
905.454	310.27
905.829	310.27
906.205	303.25
906.581	279.84
906.956	310.27
907.332	261.12
907.707	293.88
908.083	310.27
908.458	265.8
908.833	298.56
909.209	321.97
909.584	286.86
909.959	293.88
910.334	291.54
910.709	326.65
911.084	296.22
911.459	282.18
911.834	282.18
912.209	237.71
912.583	336.01
912.958	310.27
913.333	265.8
913.707	340.69
914.082	230.69
914.456	303.25
914.83	256.43
915.205	352.4
915.579	347.72
915.953	338.35
916.327	286.86
916.701	272.82
917.075	291.54
917.449	307.93
917.823	303.25
918.197	216.65
918.571	289.2
918.944	307.93
919.318	265.8
919.692	343.03
920.065	340.69
920.438	275.16
920.812	293.88
921.185	314.95
921.558	286.86
921.932	300.91
922.305	357.08
922.678	324.31
923.051	305.59
923.424	333.67
923.797	223.67
924.17	279.84
924.542	305.59
924.915	352.4
925.288	324.31
925.661	307.93
926.033	317.29
926.406	352.4
926.778	286.86
927.15	254.09
927.523	279.84
927.895	307.93
928.267	375.8
928.639	324.31
929.011	275.16
929.383	265.8
929.755	284.52
930.127	307.93
930.499	357.08
930.871	258.78
931.242	300.91
931.614	300.91
931.986	251.75
932.357	317.29
932.729	268.14
933.1	317.29
933.471	307.93
933.843	307.93
934.214	214.31
934.585	324.31
934.956	279.84
935.327	284.52
935.698	307.93
936.069	373.46
936.44	305.59
936.811	307.93
937.182	263.46
937.552	345.38
937.923	247.07
938.293	338.35
938.664	279.84
939.034	331.33
939.405	293.88
939.775	240.05
940.145	326.65
940.516	321.97
940.886	328.99
941.256	314.95
941.626	296.22
941.996	345.38
942.366	324.31
942.735	336.01
943.105	268.14
943.475	272.82
943.845	289.2
944.214	277.5
944.584	303.25
944.953	286.86
945.323	312.61
945.692	233.03
946.061	310.27
946.43	268.14
946.8	296.22
947.169	230.69
947.538	345.38
947.907	270.48
948.276	338.35
948.645	221.33
949.013	328.99
949.382	326.65
949.751	312.61
950.119	340.69
950.488	258.78
950.857	242.39
951.225	279.84
951.593	254.09
951.962	268.14
952.33	361.76
952.698	214.31
953.066	261.12
953.434	247.07
953.802	300.91
954.17	282.18
954.538	340.69
954.906	261.12
955.274	226.01
955.642	336.01
956.009	242.39
956.377	263.46
956.744	289.2
957.112	312.61
957.479	284.52
957.847	265.8
958.214	261.12
958.581	354.74
958.948	338.35
959.315	328.99
959.683	338.35
960.05	298.56
960.416	279.84
960.783	256.43
961.15	279.84
961.517	359.42
961.884	331.33
962.25	284.52
962.617	286.86
962.983	359.42
963.35	324.31
963.716	319.63
964.082	258.78
964.449	258.78
964.815	286.86
965.181	291.54
965.547	326.65
965.913	347.72
966.279	300.91
966.645	300.91
967.011	279.84
967.377	275.16
967.742	293.88
968.108	275.16
968.474	321.97
968.839	336.01
969.205	305.59
969.57	272.82
969.935	314.95
970.301	244.73
970.666	284.52
971.031	305.59
971.396	312.61
971.761	319.63
972.126	293.88
972.491	314.95
972.856	300.91
973.221	207.28
973.586	251.75
973.95	263.46
974.315	277.5
974.679	293.88
975.044	312.61
975.408	279.84
975.773	279.84
976.137	300.91
976.501	258.78
976.866	328.99
977.23	284.52
977.594	307.93
977.958	392.19
978.322	291.54
978.686	270.48
979.049	249.41
979.413	298.56
979.777	345.38
980.141	256.43
980.504	275.16
980.868	324.31
981.231	261.12
981.595	298.56
981.958	268.14
982.321	310.27
982.684	310.27
983.048	307.93
983.411	261.12
983.774	291.54
984.137	289.2
984.5	326.65
984.862	321.97
985.225	261.12
985.588	279.84
985.951	359.42
986.313	345.38
986.676	305.59
987.038	289.2
987.401	303.25
987.763	286.86
988.125	368.78
988.488	272.82
988.85	326.65
989.212	254.09
989.574	282.18
989.936	314.95
990.298	312.61
990.66	321.97
991.022	326.65
991.383	284.52
991.745	333.67
992.107	305.59
992.468	296.22
992.83	317.29
993.191	324.31
993.553	305.59
993.914	286.86
994.275	249.41
994.637	279.84
994.998	300.91
995.359	263.46
995.72	240.05
996.081	319.63
996.442	289.2
996.803	223.67
997.163	336.01
997.524	286.86
997.885	336.01
998.245	270.48
998.606	233.03
998.966	279.84
999.327	268.14
999.687	275.16
1000.047	326.65
1000.408	256.43
1000.768	289.2
1001.128	314.95
1001.488	305.59
1001.848	317.29
1002.208	240.05
1002.568	326.65
1002.927	347.72
1003.287	328.99
1003.647	317.29
1004.007	258.78
1004.366	247.07
1004.726	298.56
1005.085	265.8
1005.444	345.38
1005.804	211.96
1006.163	277.5
1006.522	307.93
1006.881	305.59
1007.24	279.84
1007.599	272.82
1007.958	286.86
1008.317	340.69
1008.676	300.91
1009.035	307.93
1009.393	275.16
1009.752	352.4
1010.111	286.86
1010.469	298.56
1010.828	293.88
1011.186	319.63
1011.544	268.14
1011.903	226.01
1012.261	326.65
1012.619	230.69
1012.977	228.35
1013.335	338.35
1013.693	214.31
1014.051	265.8
1014.409	249.41
1014.767	268.14
1015.124	298.56
1015.482	303.25
1015.84	296.22
1016.197	310.27
1016.555	314.95
1016.912	251.75
1017.269	305.59
1017.627	272.82
1017.984	354.74
1018.341	272.82
1018.698	275.16
1019.055	254.09
1019.412	336.01
1019.769	298.56
1020.126	331.33
1020.483	277.5
1020.84	336.01
1021.196	237.71
1021.553	270.48
1021.909	249.41
1022.266	319.63
1022.622	261.12
1022.979	375.8
1023.335	359.42
1023.691	277.5
1024.047	275.16
1024.404	321.97
1024.76	270.48
1025.116	235.37
1025.472	338.35
1025.827	258.78
1026.183	338.35
1026.539	326.65
1026.895	293.88
1027.25	237.71
1027.606	263.46
1027.961	326.65
1028.317	336.01
1028.672	230.69
1029.028	343.03
1029.383	289.2
1029.738	336.01
1030.093	261.12
1030.448	277.5
1030.803	300.91
1031.158	279.84
1031.513	317.29
1031.868	279.84
1032.223	352.4
1032.577	317.29
1032.932	233.03
1033.287	233.03
1033.641	233.03
1033.996	296.22
1034.35	284.52
1034.704	321.97
1035.059	317.29
1035.413	256.43
1035.767	256.43
1036.121	256.43
