Data from Al_FLMS009871__545__14-43-33-320.txt Node

Date: Fri Mar 08 14:43:33 CST 2024
User: pe5414po
Spectrometer: FLMS00987
Trigger mode: 0
Integration Time (sec): 1.000000E-1
Scans to average: 1
Electric dark correction enabled: true
Nonlinearity correction enabled: false
Boxcar width: 0
XAxis mode: Wavelengths
Number of Pixels in Spectrum: 2048
>>>>>Begin Spectral Data<<<<<
188.938	-83.82
189.409	-83.82
189.879	-83.82
190.349	-79.14
190.819	-111.91
191.29	-97.86
191.76	-118.93
192.23	-121.27
192.7	-62.76
193.17	-51.05
193.64	-62.76
194.109	-83.82
194.579	-4.24
195.049	-32.33
195.519	-1.9
195.988	94.06
196.458	65.97
196.927	58.95
197.397	171.3
197.866	119.81
198.336	126.83
198.805	168.96
199.274	112.78
199.744	168.96
200.213	166.62
200.682	161.94
201.151	140.87
201.62	253.22
202.089	243.85
202.558	250.88
203.027	253.22
203.495	234.49
203.964	229.81
204.433	276.62
204.902	316.41
205.37	271.94
205.839	300.03
206.307	255.56
206.776	321.09
207.244	264.92
207.712	304.71
208.181	309.39
208.649	271.94
209.117	276.62
209.585	309.39
210.053	246.2
210.521	243.85
210.989	267.26
211.457	316.41
211.925	290.67
212.393	323.43
212.861	290.67
213.328	344.5
213.796	278.96
214.264	276.62
214.731	321.09
215.199	271.94
215.666	274.28
216.133	321.09
216.601	236.83
217.068	220.45
217.535	248.54
218.003	309.39
218.47	276.62
218.937	220.45
219.404	288.32
219.871	260.24
220.338	229.81
220.805	302.37
221.271	246.2
221.738	236.83
222.205	260.24
222.671	269.6
223.138	197.04
223.605	253.22
224.071	248.54
224.538	283.64
225.004	274.28
225.47	271.94
225.937	234.49
226.403	250.88
226.869	239.17
227.335	234.49
227.801	262.58
228.267	314.07
228.733	288.32
229.199	260.24
229.665	290.67
230.131	211.09
230.597	222.79
231.062	255.56
231.528	283.64
231.994	234.49
232.459	208.75
232.925	302.37
233.39	145.55
233.856	243.85
234.321	239.17
234.786	229.81
235.252	276.62
235.717	302.37
236.182	360.88
236.647	311.73
237.112	293.01
237.577	316.41
238.042	309.39
238.507	232.15
238.972	253.22
239.436	290.67
239.901	246.2
240.366	314.07
240.83	260.24
241.295	332.79
241.76	318.75
242.224	328.11
242.688	260.24
243.153	297.69
243.617	255.56
244.081	304.71
244.545	309.39
245.01	269.6
245.474	227.47
245.938	318.75
246.402	278.96
246.866	318.75
247.33	260.24
247.793	285.98
248.257	267.26
248.721	283.64
249.185	262.58
249.648	307.05
250.112	246.2
250.575	199.38
251.039	328.11
251.502	234.49
251.965	246.2
252.429	290.67
252.892	276.62
253.355	262.58
253.818	323.43
254.281	285.98
254.744	290.67
255.207	302.37
255.67	225.13
256.133	335.14
256.596	250.88
257.059	295.35
257.522	253.22
257.984	323.43
258.447	236.83
258.909	311.73
259.372	283.64
259.834	211.09
260.297	250.88
260.759	332.79
261.221	281.3
261.684	257.9
262.146	325.77
262.608	288.32
263.07	264.92
263.532	295.35
263.994	283.64
264.456	250.88
264.918	250.88
265.38	290.67
265.842	293.01
266.303	206.41
266.765	293.01
267.227	264.92
267.688	318.75
268.15	257.9
268.611	271.94
269.072	267.26
269.534	309.39
269.995	318.75
270.456	255.56
270.918	271.94
271.379	293.01
271.84	323.43
272.301	304.71
272.762	243.85
273.223	253.22
273.684	295.35
274.144	293.01
274.605	274.28
275.066	267.26
275.527	285.98
275.987	236.83
276.448	318.75
276.908	323.43
277.369	250.88
277.829	278.96
278.289	318.75
278.75	267.26
279.21	255.56
279.67	311.73
280.13	316.41
280.59	318.75
281.05	307.05
281.51	314.07
281.97	281.3
282.43	293.01
282.89	285.98
283.35	293.01
283.809	278.96
284.269	285.98
284.729	248.54
285.188	241.51
285.648	187.68
286.107	325.77
286.567	321.09
287.026	250.88
287.485	349.18
287.944	243.85
288.404	330.45
288.863	229.81
289.322	283.64
289.781	285.98
290.24	314.07
290.699	304.71
291.158	302.37
291.616	201.72
292.075	307.05
292.534	246.2
292.992	288.32
293.451	285.98
293.91	293.01
294.368	260.24
294.827	300.03
295.285	297.69
295.743	302.37
296.202	342.16
296.66	264.92
297.118	234.49
297.576	302.37
298.034	276.62
298.492	274.28
298.95	309.39
299.408	304.71
299.866	234.49
300.324	250.88
300.781	271.94
301.239	290.67
301.697	288.32
302.154	267.26
302.612	353.86
303.069	295.35
303.527	314.07
303.984	325.77
304.441	297.69
304.899	274.28
305.356	274.28
305.813	293.01
306.27	283.64
306.727	321.09
307.184	304.71
307.641	337.48
308.098	271.94
308.555	370.24
309.012	267.26
309.468	278.96
309.925	314.07
310.382	365.56
310.838	274.28
311.295	307.05
311.751	325.77
312.208	330.45
312.664	300.03
313.12	295.35
313.577	269.6
314.033	325.77
314.489	323.43
314.945	300.03
315.401	255.56
315.857	339.82
316.313	288.32
316.769	307.05
317.225	309.39
317.681	314.07
318.136	332.79
318.592	269.6
319.048	349.18
319.503	318.75
319.959	325.77
320.414	255.56
320.869	293.01
321.325	276.62
321.78	309.39
322.235	297.69
322.691	328.11
323.146	323.43
323.601	321.09
324.056	309.39
324.511	307.05
324.966	318.75
325.421	302.37
325.875	337.48
326.33	309.39
326.785	311.73
327.24	295.35
327.694	285.98
328.149	332.79
328.603	290.67
329.058	337.48
329.512	349.18
329.966	353.86
330.421	335.14
330.875	267.26
331.329	360.88
331.783	295.35
332.237	274.28
332.691	330.45
333.145	293.01
333.599	358.54
334.053	278.96
334.507	332.79
334.96	295.35
335.414	370.24
335.868	337.48
336.321	372.58
336.775	269.6
337.228	311.73
337.682	283.64
338.135	290.67
338.588	302.37
339.042	283.64
339.495	300.03
339.948	309.39
340.401	262.58
340.854	309.39
341.307	314.07
341.76	267.26
342.213	309.39
342.666	243.85
343.119	290.67
343.571	288.32
344.024	311.73
344.477	262.58
344.929	281.3
345.382	276.62
345.834	236.83
346.287	285.98
346.739	360.88
347.191	257.9
347.644	293.01
348.096	393.65
348.548	269.6
349	344.5
349.452	325.77
349.904	332.79
350.356	304.71
350.808	307.05
351.26	293.01
351.711	227.47
352.163	307.05
352.615	330.45
353.066	311.73
353.518	346.84
353.969	295.35
354.421	335.14
354.872	290.67
355.324	281.3
355.775	314.07
356.226	293.01
356.677	335.14
357.128	271.94
357.579	281.3
358.03	367.9
358.481	295.35
358.932	274.28
359.383	318.75
359.834	295.35
360.285	304.71
360.735	269.6
361.186	290.67
361.637	318.75
362.087	344.5
362.538	269.6
362.988	250.88
363.438	300.03
363.889	374.92
364.339	264.92
364.789	307.05
365.239	349.18
365.689	285.98
366.139	332.79
366.589	346.84
367.039	274.28
367.489	304.71
367.939	321.09
368.389	405.35
368.839	295.35
369.288	323.43
369.738	316.41
370.187	309.39
370.637	253.22
371.086	293.01
371.536	293.01
371.985	297.69
372.434	271.94
372.884	346.84
373.333	337.48
373.782	346.84
374.231	349.18
374.68	328.11
375.129	276.62
375.578	290.67
376.027	295.35
376.475	323.43
376.924	290.67
377.373	260.24
377.822	304.71
378.27	213.43
378.719	363.22
379.167	243.85
379.616	321.09
380.064	302.37
380.512	377.27
380.961	349.18
381.409	323.43
381.857	281.3
382.305	276.62
382.753	267.26
383.201	384.29
383.649	335.14
384.097	314.07
384.545	297.69
384.992	227.47
385.44	257.9
385.888	321.09
386.335	307.05
386.783	269.6
387.231	285.98
387.678	250.88
388.125	309.39
388.573	278.96
389.02	246.2
389.467	246.2
389.914	321.09
390.362	239.17
390.809	353.86
391.256	290.67
391.703	285.98
392.15	374.92
392.596	288.32
393.043	297.69
393.49	285.98
393.937	325.77
394.383	346.84
394.83	264.92
395.276	316.41
395.723	311.73
396.169	293.01
396.616	257.9
397.062	271.94
397.508	278.96
397.954	290.67
398.401	323.43
398.847	283.64
399.293	332.79
399.739	321.09
400.185	290.67
400.631	283.64
401.076	285.98
401.522	353.86
401.968	346.84
402.414	356.2
402.859	351.52
403.305	330.45
403.75	335.14
404.196	281.3
404.641	309.39
405.086	335.14
405.532	332.79
405.977	260.24
406.422	314.07
406.867	304.71
407.312	274.28
407.757	264.92
408.202	246.2
408.647	339.82
409.092	330.45
409.537	300.03
409.982	360.88
410.426	300.03
410.871	300.03
411.316	300.03
411.76	304.71
412.205	330.45
412.649	323.43
413.093	323.43
413.538	356.2
413.982	293.01
414.426	267.26
414.87	288.32
415.314	395.99
415.758	365.56
416.202	351.52
416.646	307.05
417.09	321.09
417.534	290.67
417.978	300.03
418.421	297.69
418.865	278.96
419.309	314.07
419.752	318.75
420.196	314.07
420.639	269.6
421.083	330.45
421.526	330.45
421.969	342.16
422.412	339.82
422.856	269.6
423.299	295.35
423.742	384.29
424.185	344.5
424.628	309.39
425.071	325.77
425.513	293.01
425.956	314.07
426.399	330.45
426.842	257.9
427.284	330.45
427.727	318.75
428.169	218.11
428.612	300.03
429.054	293.01
429.497	318.75
429.939	276.62
430.381	276.62
430.823	323.43
431.265	328.11
431.707	351.52
432.149	344.5
432.591	321.09
433.033	288.32
433.475	370.24
433.917	316.41
434.359	349.18
434.8	403.01
435.242	358.54
435.684	311.73
436.125	311.73
436.567	309.39
437.008	328.11
437.449	342.16
437.891	290.67
438.332	332.79
438.773	360.88
439.214	276.62
439.656	302.37
440.097	337.48
440.538	283.64
440.978	302.37
441.419	316.41
441.86	276.62
442.301	285.98
442.742	267.26
443.182	323.43
443.623	339.82
444.063	330.45
444.504	302.37
444.944	321.09
445.385	307.05
445.825	351.52
446.265	257.9
446.706	285.98
447.146	384.29
447.586	325.77
448.026	311.73
448.466	278.96
448.906	302.37
449.346	309.39
449.786	302.37
450.225	328.11
450.665	325.77
451.105	271.94
451.544	337.48
451.984	309.39
452.424	304.71
452.863	353.86
453.302	300.03
453.742	346.84
454.181	365.56
454.62	260.24
455.059	227.47
455.499	309.39
455.938	300.03
456.377	332.79
456.816	293.01
457.254	332.79
457.693	281.3
458.132	290.67
458.571	330.45
459.01	314.07
459.448	293.01
459.887	323.43
460.325	300.03
460.764	285.98
461.202	344.5
461.641	328.11
462.079	255.56
462.517	290.67
462.955	288.32
463.393	302.37
463.832	356.2
464.27	309.39
464.708	295.35
465.145	344.5
465.583	309.39
466.021	328.11
466.459	332.79
466.897	330.45
467.334	293.01
467.772	360.88
468.209	309.39
468.647	255.56
469.084	304.71
469.522	318.75
469.959	255.56
470.396	253.22
470.833	351.52
471.271	325.77
471.708	271.94
472.145	309.39
472.582	271.94
473.019	288.32
473.456	297.69
473.892	300.03
474.329	346.84
474.766	346.84
475.202	297.69
475.639	311.73
476.076	276.62
476.512	323.43
476.949	314.07
477.385	278.96
477.821	388.97
478.258	325.77
478.694	297.69
479.13	288.32
479.566	278.96
480.002	311.73
480.438	302.37
480.874	218.11
481.31	307.05
481.746	358.54
482.181	271.94
482.617	271.94
483.053	337.48
483.488	316.41
483.924	271.94
484.36	309.39
484.795	337.48
485.23	351.52
485.666	311.73
486.101	314.07
486.536	290.67
486.971	257.9
487.407	297.69
487.842	295.35
488.277	250.88
488.712	360.88
489.146	278.96
489.581	264.92
490.016	311.73
490.451	321.09
490.885	302.37
491.32	288.32
491.755	276.62
492.189	356.2
492.624	276.62
493.058	337.48
493.492	297.69
493.927	307.05
494.361	243.85
494.795	283.64
495.229	257.9
495.663	349.18
496.097	339.82
496.531	328.11
496.965	295.35
497.399	283.64
497.833	248.54
498.266	314.07
498.7	257.9
499.134	377.27
499.567	337.48
500.001	377.27
500.434	344.5
500.868	339.82
501.301	300.03
501.734	370.24
502.168	332.79
502.601	311.73
503.034	234.49
503.467	267.26
503.9	325.77
504.333	358.54
504.766	323.43
505.199	332.79
505.632	307.05
506.064	302.37
506.497	346.84
506.93	297.69
507.362	311.73
507.795	307.05
508.227	281.3
508.66	337.48
509.092	358.54
509.524	271.94
509.956	293.01
510.389	323.43
510.821	276.62
511.253	314.07
511.685	290.67
512.117	314.07
512.549	293.01
512.981	353.86
513.412	274.28
513.844	285.98
514.276	344.5
514.707	332.79
515.139	377.27
515.571	337.48
516.002	283.64
516.433	335.14
516.865	297.69
517.296	309.39
517.727	290.67
518.159	332.79
518.59	321.09
519.021	316.41
519.452	295.35
519.883	300.03
520.314	311.73
520.744	281.3
521.175	321.09
521.606	307.05
522.037	281.3
522.467	300.03
522.898	337.48
523.328	300.03
523.759	278.96
524.189	309.39
524.62	271.94
525.05	290.67
525.48	281.3
525.91	311.73
526.341	337.48
526.771	314.07
527.201	271.94
527.631	323.43
528.061	239.17
528.49	290.67
528.92	363.22
529.35	314.07
529.78	405.35
530.209	339.82
530.639	314.07
531.068	283.64
531.498	288.32
531.927	314.07
532.357	290.67
532.786	325.77
533.215	262.58
533.644	288.32
534.074	325.77
534.503	309.39
534.932	269.6
535.361	342.16
535.79	307.05
536.218	293.01
536.647	295.35
537.076	358.54
537.505	288.32
537.933	288.32
538.362	370.24
538.79	307.05
539.219	314.07
539.647	302.37
540.076	381.95
540.504	288.32
540.932	367.9
541.36	278.96
541.788	332.79
542.217	297.69
542.645	293.01
543.073	318.75
543.5	353.86
543.928	400.67
544.356	325.77
544.784	398.33
545.211	309.39
545.639	330.45
546.067	278.96
546.494	321.09
546.922	246.2
547.349	267.26
547.776	271.94
548.204	335.14
548.631	304.71
549.058	290.67
549.485	307.05
549.912	295.35
550.339	278.96
550.766	325.77
551.193	295.35
551.62	339.82
552.047	330.45
552.474	367.9
552.9	232.15
553.327	311.73
553.754	300.03
554.18	285.98
554.607	281.3
555.033	283.64
555.459	351.52
555.886	342.16
556.312	288.32
556.738	342.16
557.164	285.98
557.59	255.56
558.016	353.86
558.442	335.14
558.868	344.5
559.294	335.14
559.72	271.94
560.145	269.6
560.571	316.41
560.997	367.9
561.422	302.37
561.848	290.67
562.273	321.09
562.699	288.32
563.124	295.35
563.549	323.43
563.974	248.54
564.4	314.07
564.825	325.77
565.25	339.82
565.675	349.18
566.1	307.05
566.525	288.32
566.95	349.18
567.374	314.07
567.799	295.35
568.224	274.28
568.648	288.32
569.073	309.39
569.497	278.96
569.922	363.22
570.346	323.43
570.771	321.09
571.195	337.48
571.619	325.77
572.043	236.83
572.467	274.28
572.891	309.39
573.315	295.35
573.739	316.41
574.163	229.81
574.587	281.3
575.011	281.3
575.435	316.41
575.858	367.9
576.282	288.32
576.705	342.16
577.129	295.35
577.552	297.69
577.976	285.98
578.399	386.63
578.822	358.54
579.245	307.05
579.669	302.37
580.092	349.18
580.515	318.75
580.938	248.54
581.361	316.41
581.784	323.43
582.206	337.48
582.629	337.48
583.052	274.28
583.474	302.37
583.897	377.27
584.32	328.11
584.742	285.98
585.165	285.98
585.587	384.29
586.009	323.43
586.431	262.58
586.854	260.24
587.276	335.14
587.698	318.75
588.12	264.92
588.542	360.88
588.964	325.77
589.386	372.58
589.807	403.01
590.229	243.85
590.651	293.01
591.073	274.28
591.494	274.28
591.916	309.39
592.337	290.67
592.759	257.9
593.18	360.88
593.601	342.16
594.022	300.03
594.444	309.39
594.865	307.05
595.286	353.86
595.707	330.45
596.128	281.3
596.549	351.52
596.97	288.32
597.39	274.28
597.811	285.98
598.232	318.75
598.652	330.45
599.073	414.71
599.494	346.84
599.914	321.09
600.334	323.43
600.755	295.35
601.175	285.98
601.595	304.71
602.015	243.85
602.436	227.47
602.856	367.9
603.276	311.73
603.696	330.45
604.115	257.9
604.535	328.11
604.955	257.9
605.375	318.75
605.794	314.07
606.214	293.01
606.634	285.98
607.053	316.41
607.473	318.75
607.892	297.69
608.311	337.48
608.731	288.32
609.15	288.32
609.569	300.03
609.988	199.38
610.407	281.3
610.826	400.67
611.245	274.28
611.664	271.94
612.083	318.75
612.501	323.43
612.92	278.96
613.339	225.13
613.757	304.71
614.176	197.04
614.594	302.37
615.013	302.37
615.431	300.03
615.85	283.64
616.268	276.62
616.686	370.24
617.104	304.71
617.522	300.03
617.94	309.39
618.358	325.77
618.776	316.41
619.194	349.18
619.612	318.75
620.03	374.92
620.447	363.22
620.865	316.41
621.282	290.67
621.7	328.11
622.117	328.11
622.535	344.5
622.952	307.05
623.369	328.11
623.787	276.62
624.204	300.03
624.621	335.14
625.038	316.41
625.455	346.84
625.872	283.64
626.289	384.29
626.706	302.37
627.123	293.01
627.539	342.16
627.956	374.92
628.373	257.9
628.789	300.03
629.206	309.39
629.622	395.99
630.038	318.75
630.455	278.96
630.871	290.67
631.287	337.48
631.703	290.67
632.12	300.03
632.536	335.14
632.952	304.71
633.368	243.85
633.783	318.75
634.199	332.79
634.615	307.05
635.031	321.09
635.446	281.3
635.862	323.43
636.277	325.77
636.693	302.37
637.108	314.07
637.524	328.11
637.939	405.35
638.354	325.77
638.77	271.94
639.185	307.05
639.6	281.3
640.015	267.26
640.43	288.32
640.845	281.3
641.259	297.69
641.674	262.58
642.089	293.01
642.504	325.77
642.918	337.48
643.333	260.24
643.747	300.03
644.162	295.35
644.576	246.2
644.991	295.35
645.405	274.28
645.819	248.54
646.233	278.96
646.647	262.58
647.061	297.69
647.475	285.98
647.889	307.05
648.303	386.63
648.717	318.75
649.131	321.09
649.545	250.88
649.958	297.69
650.372	276.62
650.785	290.67
651.199	295.35
651.612	353.86
652.026	288.32
652.439	339.82
652.852	328.11
653.266	321.09
653.679	302.37
654.092	311.73
654.505	281.3
654.918	281.3
655.331	285.98
655.744	323.43
656.156	304.71
656.569	257.9
656.982	281.3
657.394	274.28
657.807	264.92
658.22	358.54
658.632	264.92
659.044	300.03
659.457	300.03
659.869	318.75
660.281	295.35
660.693	295.35
661.106	328.11
661.518	271.94
661.93	271.94
662.342	293.01
662.754	316.41
663.165	323.43
663.577	370.24
663.989	304.71
664.401	281.3
664.812	302.37
665.224	264.92
665.635	297.69
666.047	293.01
666.458	356.2
666.869	328.11
667.281	285.98
667.692	297.69
668.103	295.35
668.514	351.52
668.925	332.79
669.336	321.09
669.747	302.37
670.158	381.95
670.569	236.83
670.979	330.45
671.39	295.35
671.801	328.11
672.211	283.64
672.622	300.03
673.032	323.43
673.443	274.28
673.853	346.84
674.263	300.03
674.674	337.48
675.084	297.69
675.494	295.35
675.904	309.39
676.314	318.75
676.724	309.39
677.134	274.28
677.544	316.41
677.953	295.35
678.363	318.75
678.773	328.11
679.182	314.07
679.592	353.86
680.001	381.95
680.411	323.43
680.82	267.26
681.23	325.77
681.639	330.45
682.048	311.73
682.457	269.6
682.866	241.51
683.275	274.28
683.684	229.81
684.093	281.3
684.502	293.01
684.911	278.96
685.32	309.39
685.728	311.73
686.137	304.71
686.546	309.39
686.954	311.73
687.363	295.35
687.771	337.48
688.179	269.6
688.588	300.03
688.996	290.67
689.404	260.24
689.812	323.43
690.22	260.24
690.628	290.67
691.036	271.94
691.444	363.22
691.852	358.54
692.26	381.95
692.667	285.98
693.075	337.48
693.483	250.88
693.89	285.98
694.298	278.96
694.705	269.6
695.112	304.71
695.52	391.31
695.927	316.41
696.334	260.24
696.741	269.6
697.148	311.73
697.555	293.01
697.962	344.5
698.369	297.69
698.776	302.37
699.183	281.3
699.59	337.48
699.996	321.09
700.403	288.32
700.81	248.54
701.216	271.94
701.623	304.71
702.029	323.43
702.435	288.32
702.842	363.22
703.248	318.75
703.654	288.32
704.06	353.86
704.466	288.32
704.872	316.41
705.278	267.26
705.684	335.14
706.09	311.73
706.496	321.09
706.901	335.14
707.307	302.37
707.712	307.05
708.118	318.75
708.523	328.11
708.929	297.69
709.334	281.3
709.74	264.92
710.145	351.52
710.55	332.79
710.955	269.6
711.36	281.3
711.765	285.98
712.17	349.18
712.575	288.32
712.98	784.52
713.385	300.03
713.789	250.88
714.194	276.62
714.599	288.32
715.003	293.01
715.408	281.3
715.812	316.41
716.217	316.41
716.621	246.2
717.025	328.11
717.429	304.71
717.833	297.69
718.238	353.86
718.642	304.71
719.046	239.17
719.449	339.82
719.853	302.37
720.257	246.2
720.661	278.96
721.065	311.73
721.468	262.58
721.872	360.88
722.275	285.98
722.679	260.24
723.082	304.71
723.485	300.03
723.889	302.37
724.292	293.01
724.695	372.58
725.098	367.9
725.501	276.62
725.904	262.58
726.307	360.88
726.71	293.01
727.113	346.84
727.516	344.5
727.918	267.26
728.321	302.37
728.724	281.3
729.126	290.67
729.529	283.64
729.931	260.24
730.333	323.43
730.736	276.62
731.138	290.67
731.54	337.48
731.942	316.41
732.344	330.45
732.746	339.82
733.148	300.03
733.55	262.58
733.952	269.6
734.354	262.58
734.756	300.03
735.157	290.67
735.559	271.94
735.96	307.05
736.362	323.43
736.763	253.22
737.165	323.43
737.566	318.75
737.967	358.54
738.368	260.24
738.77	290.67
739.171	302.37
739.572	365.56
739.973	328.11
740.374	311.73
740.774	314.07
741.175	314.07
741.576	314.07
741.977	346.84
742.377	295.35
742.778	302.37
743.178	325.77
743.579	325.77
743.979	328.11
744.379	316.41
744.78	290.67
745.18	264.92
745.58	297.69
745.98	314.07
746.38	330.45
746.78	285.98
747.18	304.71
747.58	278.96
747.98	335.14
748.38	271.94
748.779	353.86
749.179	269.6
749.578	302.37
749.978	302.37
750.377	290.67
750.777	255.56
751.176	269.6
751.575	318.75
751.975	309.39
752.374	304.71
752.773	332.79
753.172	288.32
753.571	271.94
753.97	351.52
754.369	297.69
754.768	321.09
755.166	297.69
755.565	314.07
755.964	372.58
756.362	339.82
756.761	267.26
757.159	302.37
757.558	316.41
757.956	335.14
758.354	370.24
758.753	358.54
759.151	281.3
759.549	307.05
759.947	311.73
760.345	325.77
760.743	332.79
761.141	304.71
761.539	321.09
761.936	300.03
762.334	293.01
762.732	353.86
763.129	297.69
763.527	314.07
763.924	351.52
764.322	239.17
764.719	264.92
765.117	264.92
765.514	344.5
765.911	321.09
766.308	358.54
766.705	304.71
767.102	309.39
767.499	330.45
767.896	346.84
768.293	295.35
768.69	353.86
769.086	262.58
769.483	295.35
769.88	328.11
770.276	311.73
770.673	349.18
771.069	337.48
771.466	367.9
771.862	271.94
772.258	318.75
772.654	342.16
773.05	342.16
773.447	290.67
773.843	318.75
774.239	192.36
774.634	250.88
775.03	325.77
775.426	332.79
775.822	314.07
776.218	325.77
776.613	339.82
777.009	311.73
777.404	321.09
777.8	344.5
778.195	307.05
778.59	300.03
778.986	295.35
779.381	262.58
779.776	297.69
780.171	204.07
780.566	285.98
780.961	363.22
781.356	346.84
781.751	330.45
782.146	316.41
782.54	255.56
782.935	297.69
783.33	290.67
783.724	337.48
784.119	353.86
784.513	257.9
784.908	353.86
785.302	290.67
785.696	290.67
786.09	358.54
786.485	349.18
786.879	321.09
787.273	295.35
787.667	304.71
788.061	290.67
788.454	337.48
788.848	323.43
789.242	283.64
789.636	344.5
790.029	300.03
790.423	290.67
790.816	307.05
791.21	323.43
791.603	386.63
791.997	374.92
792.39	295.35
792.783	241.51
793.176	255.56
793.569	309.39
793.962	253.22
794.355	293.01
794.748	311.73
795.141	285.98
795.534	314.07
795.927	262.58
796.319	290.67
796.712	314.07
797.105	264.92
797.497	335.14
797.89	267.26
798.282	328.11
798.674	358.54
799.067	276.62
799.459	325.77
799.851	311.73
800.243	295.35
800.635	300.03
801.027	344.5
801.419	321.09
801.811	304.71
802.203	330.45
802.594	309.39
802.986	297.69
803.378	304.71
803.769	311.73
804.161	318.75
804.552	267.26
804.944	311.73
805.335	335.14
805.726	342.16
806.118	271.94
806.509	307.05
806.9	285.98
807.291	227.47
807.682	241.51
808.073	309.39
808.464	325.77
808.855	250.88
809.245	337.48
809.636	339.82
810.027	309.39
810.417	302.37
810.808	255.56
811.198	295.35
811.589	276.62
811.979	262.58
812.369	248.54
812.759	346.84
813.15	278.96
813.54	232.15
813.93	309.39
814.32	316.41
814.71	267.26
815.1	278.96
815.489	307.05
815.879	314.07
816.269	288.32
816.658	302.37
817.048	330.45
817.438	297.69
817.827	278.96
818.216	283.64
818.606	337.48
818.995	323.43
819.384	269.6
819.773	255.56
820.163	309.39
820.552	257.9
820.941	297.69
821.33	302.37
821.718	309.39
822.107	342.16
822.496	344.5
822.885	316.41
823.273	276.62
823.662	318.75
824.05	297.69
824.439	307.05
824.827	307.05
825.216	283.64
825.604	271.94
825.992	316.41
826.38	302.37
826.768	353.86
827.156	309.39
827.544	351.52
827.932	339.82
828.32	323.43
828.708	339.82
829.096	314.07
829.483	377.27
829.871	304.71
830.259	283.64
830.646	220.45
831.034	236.83
831.421	281.3
831.808	353.86
832.196	271.94
832.583	297.69
832.97	295.35
833.357	365.56
833.744	246.2
834.131	243.85
834.518	269.6
834.905	278.96
835.292	346.84
835.678	253.22
836.065	318.75
836.452	283.64
836.838	293.01
837.225	346.84
837.611	309.39
837.998	281.3
838.384	290.67
838.77	262.58
839.157	253.22
839.543	300.03
839.929	295.35
840.315	332.79
840.701	314.07
841.087	318.75
841.473	323.43
841.858	260.24
842.244	283.64
842.63	321.09
843.015	262.58
843.401	658.13
843.787	307.05
844.172	309.39
844.557	356.2
844.943	285.98
845.328	295.35
845.713	269.6
846.098	323.43
846.483	304.71
846.868	288.32
847.253	316.41
847.638	241.51
848.023	325.77
848.408	330.45
848.793	321.09
849.177	395.99
849.562	283.64
849.947	250.88
850.331	257.9
850.715	257.9
851.1	318.75
851.484	281.3
851.868	260.24
852.253	349.18
852.637	241.51
853.021	295.35
853.405	323.43
853.789	321.09
854.173	337.48
854.557	278.96
854.94	307.05
855.324	307.05
855.708	332.79
856.091	267.26
856.475	278.96
856.858	293.01
857.242	293.01
857.625	302.37
858.009	278.96
858.392	264.92
858.775	300.03
859.158	337.48
859.541	318.75
859.924	302.37
860.307	314.07
860.69	267.26
861.073	281.3
861.456	314.07
861.838	337.48
862.221	283.64
862.604	330.45
862.986	323.43
863.369	349.18
863.751	318.75
864.133	314.07
864.516	314.07
864.898	260.24
865.28	309.39
865.662	281.3
866.044	321.09
866.426	293.01
866.808	307.05
867.19	285.98
867.572	346.84
867.954	239.17
868.336	332.79
868.717	283.64
869.099	349.18
869.48	304.71
869.862	316.41
870.243	321.09
870.625	257.9
871.006	262.58
871.387	302.37
871.768	316.41
872.149	314.07
872.53	307.05
872.911	300.03
873.292	281.3
873.673	293.01
874.054	330.45
874.435	302.37
874.815	304.71
875.196	309.39
875.577	243.85
875.957	285.98
876.338	285.98
876.718	297.69
877.098	267.26
877.479	309.39
877.859	278.96
878.239	330.45
878.619	288.32
878.999	278.96
879.379	328.11
879.759	297.69
880.139	304.71
880.519	283.64
880.898	246.2
881.278	290.67
881.658	302.37
882.037	255.56
882.417	285.98
882.796	276.62
883.176	328.11
883.555	267.26
883.934	351.52
884.313	232.15
884.693	283.64
885.072	271.94
885.451	344.5
885.83	283.64
886.209	307.05
886.587	309.39
886.966	300.03
887.345	269.6
887.724	257.9
888.102	307.05
888.481	314.07
888.859	314.07
889.238	321.09
889.616	283.64
889.994	241.51
890.373	288.32
890.751	367.9
891.129	300.03
891.507	323.43
891.885	325.77
892.263	297.69
892.641	337.48
893.019	309.39
893.396	339.82
893.774	269.6
894.152	316.41
894.529	290.67
894.907	271.94
895.284	314.07
895.662	297.69
896.039	264.92
896.416	281.3
896.794	276.62
897.171	353.86
897.548	321.09
897.925	271.94
898.302	304.71
898.679	283.64
899.056	297.69
899.433	309.39
899.809	295.35
900.186	330.45
900.563	234.49
900.939	339.82
901.316	243.85
901.692	349.18
902.069	309.39
902.445	384.29
902.821	295.35
903.197	328.11
903.574	314.07
903.95	328.11
904.326	295.35
904.702	330.45
905.078	257.9
905.454	349.18
905.829	257.9
906.205	274.28
906.581	295.35
906.956	316.41
907.332	300.03
907.707	321.09
908.083	281.3
908.458	264.92
908.833	335.14
909.209	318.75
909.584	295.35
909.959	295.35
910.334	314.07
910.709	297.69
911.084	346.84
911.459	307.05
911.834	311.73
912.209	283.64
912.583	255.56
912.958	234.49
913.333	293.01
913.707	309.39
914.082	309.39
914.456	337.48
914.83	206.41
915.205	370.24
915.579	276.62
915.953	225.13
916.327	318.75
916.701	276.62
917.075	321.09
917.449	307.05
917.823	328.11
918.197	332.79
918.571	246.2
918.944	323.43
919.318	330.45
919.692	314.07
920.065	349.18
920.438	295.35
920.812	349.18
921.185	314.07
921.558	232.15
921.932	351.52
922.305	381.95
922.678	285.98
923.051	269.6
923.424	274.28
923.797	255.56
924.17	335.14
924.542	330.45
924.915	372.58
925.288	285.98
925.661	318.75
926.033	255.56
926.406	365.56
926.778	293.01
927.15	283.64
927.523	318.75
927.895	253.22
928.267	253.22
928.639	318.75
929.011	290.67
929.383	281.3
929.755	267.26
930.127	356.2
930.499	257.9
930.871	304.71
931.242	295.35
931.614	321.09
931.986	309.39
932.357	278.96
932.729	278.96
933.1	321.09
933.471	257.9
933.843	332.79
934.214	264.92
934.585	330.45
934.956	239.17
935.327	260.24
935.698	372.58
936.069	295.35
936.44	351.52
936.811	250.88
937.182	269.6
937.552	297.69
937.923	377.27
938.293	316.41
938.664	302.37
939.034	241.51
939.405	274.28
939.775	253.22
940.145	330.45
940.516	342.16
940.886	302.37
941.256	332.79
941.626	342.16
941.996	332.79
942.366	241.51
942.735	309.39
943.105	297.69
943.475	321.09
943.845	283.64
944.214	297.69
944.584	314.07
944.953	278.96
945.323	285.98
945.692	267.26
946.061	283.64
946.43	307.05
946.8	302.37
947.169	246.2
947.538	302.37
947.907	220.45
948.276	218.11
948.645	346.84
949.013	304.71
949.382	290.67
949.751	250.88
950.119	309.39
950.488	332.79
950.857	330.45
951.225	342.16
951.593	367.9
951.962	276.62
952.33	232.15
952.698	309.39
953.066	246.2
953.434	332.79
953.802	250.88
954.17	264.92
954.538	332.79
954.906	328.11
955.274	278.96
955.642	302.37
956.009	271.94
956.377	381.95
956.744	323.43
957.112	269.6
957.479	342.16
957.847	300.03
958.214	330.45
958.581	283.64
958.948	236.83
959.315	377.27
959.683	337.48
960.05	309.39
960.416	388.97
960.783	314.07
961.15	281.3
961.517	295.35
961.884	243.85
962.25	353.86
962.617	269.6
962.983	290.67
963.35	264.92
963.716	300.03
964.082	278.96
964.449	269.6
964.815	337.48
965.181	337.48
965.547	276.62
965.913	236.83
966.279	339.82
966.645	328.11
967.011	276.62
967.377	316.41
967.742	332.79
968.108	332.79
968.474	318.75
968.839	330.45
969.205	288.32
969.57	278.96
969.935	264.92
970.301	309.39
970.666	351.52
971.031	307.05
971.396	321.09
971.761	300.03
972.126	309.39
972.491	330.45
972.856	278.96
973.221	318.75
973.586	379.61
973.95	342.16
974.315	370.24
974.679	293.01
975.044	225.13
975.408	302.37
975.773	321.09
976.137	307.05
976.501	271.94
976.866	300.03
977.23	332.79
977.594	262.58
977.958	316.41
978.322	309.39
978.686	285.98
979.049	227.47
979.413	314.07
979.777	264.92
980.141	290.67
980.504	278.96
980.868	309.39
981.231	316.41
981.595	346.84
981.958	304.71
982.321	321.09
982.684	271.94
983.048	302.37
983.411	281.3
983.774	344.5
984.137	318.75
984.5	342.16
984.862	314.07
985.225	360.88
985.588	269.6
985.951	318.75
986.313	255.56
986.676	302.37
987.038	330.45
987.401	293.01
987.763	253.22
988.125	276.62
988.488	332.79
988.85	229.81
989.212	253.22
989.574	271.94
989.936	321.09
990.298	302.37
990.66	335.14
991.022	271.94
991.383	285.98
991.745	309.39
992.107	314.07
992.468	283.64
992.83	257.9
993.191	349.18
993.553	257.9
993.914	311.73
994.275	337.48
994.637	293.01
994.998	379.61
995.359	344.5
995.72	314.07
996.081	300.03
996.442	281.3
996.803	236.83
997.163	321.09
997.524	339.82
997.885	290.67
998.245	342.16
998.606	271.94
998.966	342.16
999.327	253.22
999.687	262.58
1000.047	255.56
1000.408	290.67
1000.768	302.37
1001.128	253.22
1001.488	328.11
1001.848	290.67
1002.208	267.26
1002.568	271.94
1002.927	262.58
1003.287	281.3
1003.647	253.22
1004.007	311.73
1004.366	281.3
1004.726	318.75
1005.085	351.52
1005.444	304.71
1005.804	323.43
1006.163	309.39
1006.522	370.24
1006.881	293.01
1007.24	293.01
1007.599	288.32
1007.958	328.11
1008.317	391.31
1008.676	323.43
1009.035	267.26
1009.393	316.41
1009.752	323.43
1010.111	367.9
1010.469	372.58
1010.828	344.5
1011.186	330.45
1011.544	325.77
1011.903	304.71
1012.261	269.6
1012.619	278.96
1012.977	281.3
1013.335	274.28
1013.693	339.82
1014.051	255.56
1014.409	307.05
1014.767	328.11
1015.124	295.35
1015.482	285.98
1015.84	267.26
1016.197	311.73
1016.555	360.88
1016.912	311.73
1017.269	260.24
1017.627	297.69
1017.984	337.48
1018.341	297.69
1018.698	248.54
1019.055	288.32
1019.412	307.05
1019.769	332.79
1020.126	302.37
1020.483	260.24
1020.84	330.45
1021.196	339.82
1021.553	283.64
1021.909	332.79
1022.266	274.28
1022.622	314.07
1022.979	365.56
1023.335	351.52
1023.691	283.64
1024.047	262.58
1024.404	344.5
1024.76	262.58
1025.116	330.45
1025.472	267.26
1025.827	304.71
1026.183	335.14
1026.539	342.16
1026.895	328.11
1027.25	278.96
1027.606	269.6
1027.961	311.73
1028.317	213.43
1028.672	300.03
1029.028	232.15
1029.383	302.37
1029.738	328.11
1030.093	269.6
1030.448	262.58
1030.803	274.28
1031.158	300.03
1031.513	253.22
1031.868	297.69
1032.223	332.79
1032.577	304.71
1032.932	257.9
1033.287	295.35
1033.641	274.28
1033.996	246.2
1034.35	307.05
1034.704	293.01
1035.059	307.05
1035.413	370.24
1035.767	370.24
1036.121	370.24
