Data from Al_FLMS009871__1155__16-36-06-290.txt Node

Date: Fri Mar 08 16:36:06 CST 2024
User: pe5414po
Spectrometer: FLMS00987
Trigger mode: 0
Integration Time (sec): 1.000000E-1
Scans to average: 1
Electric dark correction enabled: true
Nonlinearity correction enabled: false
Boxcar width: 0
XAxis mode: Wavelengths
Number of Pixels in Spectrum: 2048
>>>>>Begin Spectral Data<<<<<
188.938	-22.09
189.409	-22.09
189.879	-22.09
190.349	-115.71
190.819	-94.65
191.29	-134.43
191.76	-75.92
192.23	-104.01
192.7	-111.03
193.17	-45.49
193.64	-68.9
194.109	-45.49
194.579	-40.81
195.049	3.66
195.519	-10.39
195.988	123.02
196.458	111.32
196.927	85.58
197.397	87.92
197.866	80.89
198.336	144.09
198.805	146.43
199.274	158.13
199.744	158.13
200.213	179.2
200.682	162.81
201.151	202.6
201.62	277.5
202.089	197.92
202.558	256.43
203.027	214.31
203.495	249.41
203.964	244.73
204.433	303.25
204.902	223.67
205.37	249.41
205.839	286.86
206.307	317.29
206.776	289.2
207.244	286.86
207.712	282.18
208.181	263.46
208.649	357.08
209.117	324.31
209.585	282.18
210.053	307.93
210.521	336.01
210.989	167.49
211.457	310.27
211.925	270.48
212.393	263.46
212.861	258.78
213.328	272.82
213.796	270.48
214.264	263.46
214.731	270.48
215.199	272.82
215.666	279.84
216.133	277.5
216.601	237.71
217.068	300.91
217.535	237.71
218.003	277.5
218.47	230.69
218.937	298.56
219.404	270.48
219.871	256.43
220.338	277.5
220.805	226.01
221.271	230.69
221.738	296.22
222.205	228.35
222.671	211.96
223.138	317.29
223.605	268.14
224.071	240.05
224.538	251.75
225.004	314.95
225.47	249.41
225.937	249.41
226.403	216.65
226.869	197.92
227.335	314.95
227.801	296.22
228.267	296.22
228.733	261.12
229.199	326.65
229.665	207.28
230.131	296.22
230.597	272.82
231.062	240.05
231.528	249.41
231.994	312.61
232.459	310.27
232.925	275.16
233.39	300.91
233.856	240.05
234.321	275.16
234.786	228.35
235.252	284.52
235.717	247.07
236.182	282.18
236.647	242.39
237.112	270.48
237.577	293.88
238.042	223.67
238.507	251.75
238.972	310.27
239.436	244.73
239.901	251.75
240.366	272.82
240.83	277.5
241.295	261.12
241.76	312.61
242.224	291.54
242.688	242.39
243.153	324.31
243.617	282.18
244.081	289.2
244.545	209.62
245.01	254.09
245.474	286.86
245.938	265.8
246.402	235.37
246.866	261.12
247.33	289.2
247.793	282.18
248.257	275.16
248.721	321.97
249.185	328.99
249.648	314.95
250.112	247.07
250.575	284.52
251.039	317.29
251.502	228.35
251.965	263.46
252.429	242.39
252.892	247.07
253.355	324.31
253.818	303.25
254.281	275.16
254.744	333.67
255.207	331.33
255.67	319.63
256.133	303.25
256.596	321.97
257.059	244.73
257.522	289.2
257.984	303.25
258.447	270.48
258.909	261.12
259.372	340.69
259.834	324.31
260.297	275.16
260.759	282.18
261.221	263.46
261.684	312.61
262.146	263.46
262.608	265.8
263.07	265.8
263.532	251.75
263.994	298.56
264.456	321.97
264.918	265.8
265.38	265.8
265.842	347.72
266.303	380.48
266.765	303.25
267.227	303.25
267.688	307.93
268.15	331.33
268.611	314.95
269.072	209.62
269.534	275.16
269.995	226.01
270.456	307.93
270.918	263.46
271.379	279.84
271.84	228.35
272.301	293.88
272.762	338.35
273.223	321.97
273.684	305.59
274.144	242.39
274.605	312.61
275.066	364.1
275.527	317.29
275.987	300.91
276.448	305.59
276.908	359.42
277.369	272.82
277.829	319.63
278.289	284.52
278.75	333.67
279.21	261.12
279.67	359.42
280.13	251.75
280.59	270.48
281.05	300.91
281.51	343.03
281.97	270.48
282.43	291.54
282.89	343.03
283.35	293.88
283.809	324.31
284.269	258.78
284.729	265.8
285.188	357.08
285.648	265.8
286.107	244.73
286.567	338.35
287.026	289.2
287.485	265.8
287.944	279.84
288.404	312.61
288.863	279.84
289.322	286.86
289.781	312.61
290.24	300.91
290.699	303.25
291.158	347.72
291.616	319.63
292.075	247.07
292.534	321.97
292.992	293.88
293.451	345.38
293.91	270.48
294.368	265.8
294.827	275.16
295.285	298.56
295.743	277.5
296.202	366.44
296.66	312.61
297.118	298.56
297.576	282.18
298.034	305.59
298.492	317.29
298.95	307.93
299.408	347.72
299.866	284.52
300.324	314.95
300.781	314.95
301.239	366.44
301.697	237.71
302.154	331.33
302.612	310.27
303.069	235.37
303.527	317.29
303.984	270.48
304.441	350.06
304.899	336.01
305.356	265.8
305.813	296.22
306.27	263.46
306.727	336.01
307.184	328.99
307.641	359.42
308.098	305.59
308.555	350.06
309.012	343.03
309.468	326.65
309.925	317.29
310.382	235.37
310.838	307.93
311.295	310.27
311.751	277.5
312.208	352.4
312.664	321.97
313.12	282.18
313.577	251.75
314.033	277.5
314.489	319.63
314.945	275.16
315.401	279.84
315.857	249.41
316.313	286.86
316.769	270.48
317.225	298.56
317.681	254.09
318.136	338.35
318.592	263.46
319.048	314.95
319.503	347.72
319.959	279.84
320.414	279.84
320.869	284.52
321.325	324.31
321.78	336.01
322.235	291.54
322.691	394.53
323.146	326.65
323.601	347.72
324.056	296.22
324.511	256.43
324.966	354.74
325.421	319.63
325.875	270.48
326.33	324.31
326.785	303.25
327.24	385.16
327.694	307.93
328.149	249.41
328.603	305.59
329.058	270.48
329.512	331.33
329.966	380.48
330.421	338.35
330.875	291.54
331.329	347.72
331.783	312.61
332.237	263.46
332.691	251.75
333.145	321.97
333.599	312.61
334.053	345.38
334.507	364.1
334.96	296.22
335.414	298.56
335.868	317.29
336.321	357.08
336.775	328.99
337.228	324.31
337.682	357.08
338.135	314.95
338.588	261.12
339.042	303.25
339.495	268.14
339.948	275.16
340.401	314.95
340.854	207.28
341.307	251.75
341.76	291.54
342.213	247.07
342.666	277.5
343.119	331.33
343.571	310.27
344.024	312.61
344.477	354.74
344.929	324.31
345.382	284.52
345.834	284.52
346.287	345.38
346.739	333.67
347.191	300.91
347.644	265.8
348.096	317.29
348.548	300.91
349	310.27
349.452	293.88
349.904	392.19
350.356	314.95
350.808	270.48
351.26	307.93
351.711	307.93
352.163	385.16
352.615	300.91
353.066	328.99
353.518	328.99
353.969	333.67
354.421	382.82
354.872	279.84
355.324	284.52
355.775	298.56
356.226	272.82
356.677	286.86
357.128	282.18
357.579	326.65
358.03	357.08
358.481	359.42
358.932	338.35
359.383	307.93
359.834	314.95
360.285	289.2
360.735	373.46
361.186	331.33
361.637	291.54
362.087	286.86
362.538	343.03
362.988	314.95
363.438	350.06
363.889	261.12
364.339	324.31
364.789	352.4
365.239	314.95
365.689	350.06
366.139	277.5
366.589	305.59
367.039	268.14
367.489	324.31
367.939	420.27
368.389	385.16
368.839	296.22
369.288	314.95
369.738	305.59
370.187	352.4
370.637	265.8
371.086	296.22
371.536	343.03
371.985	338.35
372.434	324.31
372.884	326.65
373.333	202.6
373.782	366.44
374.231	340.69
374.68	305.59
375.129	244.73
375.578	352.4
376.027	284.52
376.475	284.52
376.924	343.03
377.373	293.88
377.822	263.46
378.27	289.2
378.719	284.52
379.167	310.27
379.616	317.29
380.064	275.16
380.512	305.59
380.961	247.07
381.409	331.33
381.857	366.44
382.305	350.06
382.753	244.73
383.201	317.29
383.649	317.29
384.097	289.2
384.545	331.33
384.992	321.97
385.44	314.95
385.888	286.86
386.335	300.91
386.783	237.71
387.231	237.71
387.678	263.46
388.125	300.91
388.573	350.06
389.02	265.8
389.467	340.69
389.914	331.33
390.362	307.93
390.809	289.2
391.256	340.69
391.703	307.93
392.15	331.33
392.596	291.54
393.043	305.59
393.49	289.2
393.937	333.67
394.383	242.39
394.83	307.93
395.276	310.27
395.723	314.95
396.169	375.8
396.616	305.59
397.062	314.95
397.508	359.42
397.954	328.99
398.401	284.52
398.847	300.91
399.293	319.63
399.739	378.14
400.185	345.38
400.631	354.74
401.076	265.8
401.522	359.42
401.968	382.82
402.414	291.54
402.859	310.27
403.305	326.65
403.75	289.2
404.196	328.99
404.641	293.88
405.086	317.29
405.532	347.72
405.977	296.22
406.422	279.84
406.867	368.78
407.312	300.91
407.757	336.01
408.202	286.86
408.647	328.99
409.092	321.97
409.537	359.42
409.982	296.22
410.426	314.95
410.871	303.25
411.316	270.48
411.76	340.69
412.205	328.99
412.649	291.54
413.093	312.61
413.538	324.31
413.982	331.33
414.426	270.48
414.87	331.33
415.314	321.97
415.758	314.95
416.202	331.33
416.646	310.27
417.09	336.01
417.534	368.78
417.978	343.03
418.421	321.97
418.865	298.56
419.309	371.12
419.752	307.93
420.196	333.67
420.639	340.69
421.083	300.91
421.526	343.03
421.969	375.8
422.412	296.22
422.856	284.52
423.299	270.48
423.742	347.72
424.185	354.74
424.628	343.03
425.071	331.33
425.513	338.35
425.956	312.61
426.399	347.72
426.842	300.91
427.284	350.06
427.727	336.01
428.169	354.74
428.612	307.93
429.054	340.69
429.497	345.38
429.939	328.99
430.381	343.03
430.823	305.59
431.265	293.88
431.707	366.44
432.149	354.74
432.591	286.86
433.033	314.95
433.475	345.38
433.917	354.74
434.359	300.91
434.8	272.82
435.242	314.95
435.684	277.5
436.125	338.35
436.567	312.61
437.008	312.61
437.449	305.59
437.891	268.14
438.332	345.38
438.773	298.56
439.214	331.33
439.656	361.76
440.097	361.76
440.538	357.08
440.978	347.72
441.419	270.48
441.86	328.99
442.301	352.4
442.742	364.1
443.182	303.25
443.623	291.54
444.063	382.82
444.504	296.22
444.944	385.16
445.385	326.65
445.825	312.61
446.265	314.95
446.706	286.86
447.146	317.29
447.586	296.22
448.026	326.65
448.466	328.99
448.906	296.22
449.346	328.99
449.786	291.54
450.225	338.35
450.665	364.1
451.105	226.01
451.544	368.78
451.984	289.2
452.424	331.33
452.863	328.99
453.302	289.2
453.742	312.61
454.181	277.5
454.62	340.69
455.059	303.25
455.499	277.5
455.938	279.84
456.377	282.18
456.816	345.38
457.254	303.25
457.693	300.91
458.132	389.85
458.571	265.8
459.01	296.22
459.448	228.35
459.887	345.38
460.325	352.4
460.764	303.25
461.202	347.72
461.641	350.06
462.079	347.72
462.517	272.82
462.955	321.97
463.393	312.61
463.832	317.29
464.27	364.1
464.708	312.61
465.145	312.61
465.583	279.84
466.021	300.91
466.459	300.91
466.897	233.03
467.334	331.33
467.772	328.99
468.209	321.97
468.647	345.38
469.084	314.95
469.522	307.93
469.959	321.97
470.396	321.97
470.833	324.31
471.271	380.48
471.708	328.99
472.145	378.14
472.582	312.61
473.019	244.73
473.456	324.31
473.892	279.84
474.329	284.52
474.766	354.74
475.202	293.88
475.639	338.35
476.076	319.63
476.512	321.97
476.949	338.35
477.385	331.33
477.821	336.01
478.258	345.38
478.694	336.01
479.13	345.38
479.566	326.65
480.002	333.67
480.438	319.63
480.874	361.76
481.31	328.99
481.746	324.31
482.181	361.76
482.617	331.33
483.053	296.22
483.488	336.01
483.924	328.99
484.36	328.99
484.795	392.19
485.23	310.27
485.666	305.59
486.101	293.88
486.536	303.25
486.971	338.35
487.407	345.38
487.842	314.95
488.277	298.56
488.712	368.78
489.146	303.25
489.581	310.27
490.016	305.59
490.451	300.91
490.885	289.2
491.32	279.84
491.755	303.25
492.189	328.99
492.624	340.69
493.058	338.35
493.492	328.99
493.927	382.82
494.361	340.69
494.795	275.16
495.229	326.65
495.663	298.56
496.097	319.63
496.531	382.82
496.965	317.29
497.399	277.5
497.833	296.22
498.266	382.82
498.7	249.41
499.134	314.95
499.567	314.95
500.001	319.63
500.434	389.85
500.868	347.72
501.301	328.99
501.734	361.76
502.168	336.01
502.601	328.99
503.034	378.14
503.467	364.1
503.9	347.72
504.333	347.72
504.766	340.69
505.199	336.01
505.632	347.72
506.064	331.33
506.497	284.52
506.93	270.48
507.362	328.99
507.795	312.61
508.227	331.33
508.66	340.69
509.092	300.91
509.524	336.01
509.956	265.8
510.389	326.65
510.821	265.8
511.253	312.61
511.685	296.22
512.117	340.69
512.549	333.67
512.981	303.25
513.412	359.42
513.844	357.08
514.276	279.84
514.707	417.93
515.139	340.69
515.571	350.06
516.002	354.74
516.433	352.4
516.865	328.99
517.296	331.33
517.727	261.12
518.159	310.27
518.59	272.82
519.021	279.84
519.452	284.52
519.883	333.67
520.314	326.65
520.744	331.33
521.175	366.44
521.606	284.52
522.037	305.59
522.467	305.59
522.898	265.8
523.328	317.29
523.759	279.84
524.189	305.59
524.62	300.91
525.05	307.93
525.48	319.63
525.91	296.22
526.341	300.91
526.771	270.48
527.201	300.91
527.631	340.69
528.061	319.63
528.49	293.88
528.92	272.82
529.35	289.2
529.78	359.42
530.209	321.97
530.639	336.01
531.068	345.38
531.498	268.14
531.927	251.75
532.357	359.42
532.786	328.99
533.215	357.08
533.644	305.59
534.074	333.67
534.503	321.97
534.932	317.29
535.361	279.84
535.79	333.67
536.218	305.59
536.647	336.01
537.076	328.99
537.505	286.86
537.933	347.72
538.362	300.91
538.79	324.31
539.219	378.14
539.647	310.27
540.076	331.33
540.504	336.01
540.932	324.31
541.36	303.25
541.788	298.56
542.217	326.65
542.645	296.22
543.073	314.95
543.5	298.56
543.928	347.72
544.356	319.63
544.784	310.27
545.211	314.95
545.639	338.35
546.067	368.78
546.494	317.29
546.922	247.07
547.349	286.86
547.776	321.97
548.204	293.88
548.631	347.72
549.058	340.69
549.485	352.4
549.912	336.01
550.339	401.55
550.766	312.61
551.193	350.06
551.62	319.63
552.047	343.03
552.474	272.82
552.9	331.33
553.327	345.38
553.754	326.65
554.18	343.03
554.607	326.65
555.033	275.16
555.459	300.91
555.886	263.46
556.312	310.27
556.738	277.5
557.164	261.12
557.59	284.52
558.016	307.93
558.442	303.25
558.868	371.12
559.294	380.48
559.72	345.38
560.145	286.86
560.571	345.38
560.997	314.95
561.422	314.95
561.848	328.99
562.273	310.27
562.699	272.82
563.124	343.03
563.549	324.31
563.974	368.78
564.4	270.48
564.825	279.84
565.25	314.95
565.675	272.82
566.1	326.65
566.525	314.95
566.95	300.91
567.374	347.72
567.799	354.74
568.224	296.22
568.648	244.73
569.073	307.93
569.497	340.69
569.922	310.27
570.346	338.35
570.771	303.25
571.195	296.22
571.619	326.65
572.043	279.84
572.467	289.2
572.891	279.84
573.315	272.82
573.739	328.99
574.163	263.46
574.587	380.48
575.011	343.03
575.435	303.25
575.858	321.97
576.282	340.69
576.705	361.76
577.129	328.99
577.552	307.93
577.976	293.88
578.399	340.69
578.822	305.59
579.245	359.42
579.669	296.22
580.092	247.07
580.515	261.12
580.938	343.03
581.361	317.29
581.784	319.63
582.206	321.97
582.629	333.67
583.052	333.67
583.474	305.59
583.897	307.93
584.32	298.56
584.742	385.16
585.165	286.86
585.587	389.85
586.009	389.85
586.431	263.46
586.854	354.74
587.276	380.48
587.698	300.91
588.12	328.99
588.542	247.07
588.964	314.95
589.386	343.03
589.807	251.75
590.229	350.06
590.651	326.65
591.073	343.03
591.494	305.59
591.916	282.18
592.337	326.65
592.759	277.5
593.18	291.54
593.601	282.18
594.022	382.82
594.444	347.72
594.865	310.27
595.286	307.93
595.707	307.93
596.128	272.82
596.549	293.88
596.97	284.52
597.39	296.22
597.811	314.95
598.232	345.38
598.652	317.29
599.073	307.93
599.494	371.12
599.914	291.54
600.334	319.63
600.755	305.59
601.175	314.95
601.595	310.27
602.015	368.78
602.436	247.07
602.856	446.02
603.276	300.91
603.696	293.88
604.115	303.25
604.535	275.16
604.955	314.95
605.375	284.52
605.794	336.01
606.214	326.65
606.634	401.55
607.053	305.59
607.473	364.1
607.892	366.44
608.311	319.63
608.731	282.18
609.15	343.03
609.569	305.59
609.988	321.97
610.407	354.74
610.826	284.52
611.245	314.95
611.664	324.31
612.083	317.29
612.501	338.35
612.92	256.43
613.339	371.12
613.757	310.27
614.176	305.59
614.594	359.42
615.013	326.65
615.431	319.63
615.85	354.74
616.268	310.27
616.686	312.61
617.104	333.67
617.522	336.01
617.94	268.14
618.358	270.48
618.776	317.29
619.194	328.99
619.612	291.54
620.03	371.12
620.447	333.67
620.865	347.72
621.282	420.27
621.7	270.48
622.117	296.22
622.535	357.08
622.952	293.88
623.369	305.59
623.787	286.86
624.204	333.67
624.621	279.84
625.038	326.65
625.455	286.86
625.872	328.99
626.289	310.27
626.706	361.76
627.123	296.22
627.539	310.27
627.956	256.43
628.373	261.12
628.789	324.31
629.206	300.91
629.622	345.38
630.038	331.33
630.455	300.91
630.871	319.63
631.287	242.39
631.703	343.03
632.12	270.48
632.536	350.06
632.952	298.56
633.368	343.03
633.783	300.91
634.199	282.18
634.615	331.33
635.031	333.67
635.446	333.67
635.862	312.61
636.277	317.29
636.693	303.25
637.108	305.59
637.524	357.08
637.939	307.93
638.354	347.72
638.77	303.25
639.185	286.86
639.6	303.25
640.015	305.59
640.43	261.12
640.845	326.65
641.259	343.03
641.674	326.65
642.089	291.54
642.504	282.18
642.918	338.35
643.333	324.31
643.747	343.03
644.162	354.74
644.576	326.65
644.991	378.14
645.405	300.91
645.819	324.31
646.233	352.4
646.647	352.4
647.061	307.93
647.475	326.65
647.889	291.54
648.303	226.01
648.717	328.99
649.131	371.12
649.545	310.27
649.958	326.65
650.372	275.16
650.785	256.43
651.199	380.48
651.612	317.29
652.026	314.95
652.439	401.55
652.852	289.2
653.266	305.59
653.679	310.27
654.092	268.14
654.505	324.31
654.918	375.8
655.331	324.31
655.744	354.74
656.156	338.35
656.569	347.72
656.982	270.48
657.394	324.31
657.807	305.59
658.22	326.65
658.632	275.16
659.044	296.22
659.457	333.67
659.869	300.91
660.281	319.63
660.693	307.93
661.106	286.86
661.518	310.27
661.93	312.61
662.342	293.88
662.754	324.31
663.165	282.18
663.577	312.61
663.989	321.97
664.401	359.42
664.812	319.63
665.224	284.52
665.635	345.38
666.047	284.52
666.458	364.1
666.869	326.65
667.281	331.33
667.692	333.67
668.103	293.88
668.514	300.91
668.925	300.91
669.336	345.38
669.747	328.99
670.158	326.65
670.569	284.52
670.979	279.84
671.39	268.14
671.801	307.93
672.211	310.27
672.622	331.33
673.032	286.86
673.443	300.91
673.853	291.54
674.263	256.43
674.674	298.56
675.084	319.63
675.494	364.1
675.904	275.16
676.314	312.61
676.724	310.27
677.134	298.56
677.544	319.63
677.953	317.29
678.363	336.01
678.773	387.5
679.182	240.05
679.592	317.29
680.001	286.86
680.411	254.09
680.82	298.56
681.23	286.86
681.639	286.86
682.048	319.63
682.457	265.8
682.866	338.35
683.275	333.67
683.684	352.4
684.093	331.33
684.502	279.84
684.911	307.93
685.32	319.63
685.728	324.31
686.137	270.48
686.546	300.91
686.954	296.22
687.363	331.33
687.771	347.72
688.179	319.63
688.588	378.14
688.996	314.95
689.404	364.1
689.812	321.97
690.22	312.61
690.628	270.48
691.036	324.31
691.444	343.03
691.852	336.01
692.26	326.65
692.667	333.67
693.075	300.91
693.483	310.27
693.89	310.27
694.298	347.72
694.705	319.63
695.112	284.52
695.52	275.16
695.927	331.33
696.334	307.93
696.741	303.25
697.148	307.93
697.555	321.97
697.962	289.2
698.369	305.59
698.776	331.33
699.183	333.67
699.59	321.97
699.996	240.05
700.403	286.86
700.81	331.33
701.216	328.99
701.623	312.61
702.029	268.14
702.435	286.86
702.842	336.01
703.248	312.61
703.654	321.97
704.06	366.44
704.466	319.63
704.872	310.27
705.278	317.29
705.684	331.33
706.09	317.29
706.496	345.38
706.901	298.56
707.307	328.99
707.712	321.97
708.118	310.27
708.523	277.5
708.929	333.67
709.334	331.33
709.74	265.8
710.145	317.29
710.55	324.31
710.955	333.67
711.36	289.2
711.765	307.93
712.17	296.22
712.575	333.67
712.98	895.4
713.385	291.54
713.789	282.18
714.194	249.41
714.599	282.18
715.003	314.95
715.408	331.33
715.812	354.74
716.217	305.59
716.621	382.82
717.025	277.5
717.429	326.65
717.833	286.86
718.238	291.54
718.642	286.86
719.046	347.72
719.449	258.78
719.853	314.95
720.257	247.07
720.661	328.99
721.065	350.06
721.468	263.46
721.872	282.18
722.275	336.01
722.679	298.56
723.082	284.52
723.485	312.61
723.889	298.56
724.292	314.95
724.695	361.76
725.098	387.5
725.501	251.75
725.904	338.35
726.307	272.82
726.71	300.91
727.113	336.01
727.516	366.44
727.918	279.84
728.321	289.2
728.724	312.61
729.126	310.27
729.529	354.74
729.931	296.22
730.333	282.18
730.736	331.33
731.138	307.93
731.54	333.67
731.942	366.44
732.344	298.56
732.746	321.97
733.148	352.4
733.55	249.41
733.952	354.74
734.354	291.54
734.756	317.29
735.157	375.8
735.559	277.5
735.96	286.86
736.362	331.33
736.763	286.86
737.165	284.52
737.566	300.91
737.967	333.67
738.368	293.88
738.77	258.78
739.171	350.06
739.572	326.65
739.973	347.72
740.374	307.93
740.774	375.8
741.175	293.88
741.576	324.31
741.977	354.74
742.377	328.99
742.778	307.93
743.178	279.84
743.579	319.63
743.979	314.95
744.379	298.56
744.78	328.99
745.18	291.54
745.58	293.88
745.98	249.41
746.38	263.46
746.78	312.61
747.18	340.69
747.58	317.29
747.98	305.59
748.38	326.65
748.779	307.93
749.179	270.48
749.578	202.6
749.978	347.72
750.377	310.27
750.777	305.59
751.176	291.54
751.575	366.44
751.975	321.97
752.374	340.69
752.773	357.08
753.172	275.16
753.571	293.88
753.97	373.46
754.369	270.48
754.768	279.84
755.166	340.69
755.565	256.43
755.964	389.85
756.362	305.59
756.761	286.86
757.159	354.74
757.558	378.14
757.956	357.08
758.354	300.91
758.753	268.14
759.151	324.31
759.549	293.88
759.947	331.33
760.345	265.8
760.743	343.03
761.141	291.54
761.539	303.25
761.936	368.78
762.334	293.88
762.732	343.03
763.129	326.65
763.527	298.56
763.924	354.74
764.322	307.93
764.719	347.72
765.117	314.95
765.514	324.31
765.911	328.99
766.308	333.67
766.705	307.93
767.102	305.59
767.499	258.78
767.896	345.38
768.293	357.08
768.69	305.59
769.086	296.22
769.483	268.14
769.88	347.72
770.276	312.61
770.673	389.85
771.069	319.63
771.466	305.59
771.862	251.75
772.258	373.46
772.654	272.82
773.05	312.61
773.447	305.59
773.843	310.27
774.239	272.82
774.634	265.8
775.03	378.14
775.426	328.99
775.822	373.46
776.218	350.06
776.613	284.52
777.009	307.93
777.404	331.33
777.8	272.82
778.195	279.84
778.59	345.38
778.986	314.95
779.381	359.42
779.776	368.78
780.171	286.86
780.566	310.27
780.961	296.22
781.356	279.84
781.751	317.29
782.146	272.82
782.54	321.97
782.935	272.82
783.33	324.31
783.724	338.35
784.119	312.61
784.513	354.74
784.908	293.88
785.302	272.82
785.696	321.97
786.09	293.88
786.485	338.35
786.879	265.8
787.273	261.12
787.667	289.2
788.061	307.93
788.454	354.74
788.848	378.14
789.242	291.54
789.636	277.5
790.029	300.91
790.423	333.67
790.816	336.01
791.21	326.65
791.603	268.14
791.997	336.01
792.39	263.46
792.783	300.91
793.176	300.91
793.569	282.18
793.962	319.63
794.355	251.75
794.748	359.42
795.141	350.06
795.534	321.97
795.927	336.01
796.319	314.95
796.712	326.65
797.105	350.06
797.497	364.1
797.89	314.95
798.282	263.46
798.674	338.35
799.067	317.29
799.459	338.35
799.851	361.76
800.243	331.33
800.635	303.25
801.027	380.48
801.419	307.93
801.811	277.5
802.203	275.16
802.594	340.69
802.986	352.4
803.378	338.35
803.769	366.44
804.161	354.74
804.552	336.01
804.944	305.59
805.335	345.38
805.726	317.29
806.118	300.91
806.509	300.91
806.9	347.72
807.291	343.03
807.682	300.91
808.073	293.88
808.464	345.38
808.855	354.74
809.245	319.63
809.636	368.78
810.027	345.38
810.417	314.95
810.808	389.85
811.198	317.29
811.589	265.8
811.979	263.46
812.369	263.46
812.759	319.63
813.15	296.22
813.54	382.82
813.93	303.25
814.32	284.52
814.71	270.48
815.1	305.59
815.489	333.67
815.879	336.01
816.269	340.69
816.658	319.63
817.048	310.27
817.438	296.22
817.827	328.99
818.216	410.91
818.606	293.88
818.995	289.2
819.384	324.31
819.773	275.16
820.163	249.41
820.552	336.01
820.941	286.86
821.33	328.99
821.718	326.65
822.107	343.03
822.496	328.99
822.885	333.67
823.273	275.16
823.662	314.95
824.05	343.03
824.439	275.16
824.827	333.67
825.216	336.01
825.604	324.31
825.992	305.59
826.38	256.43
826.768	305.59
827.156	343.03
827.544	296.22
827.932	254.09
828.32	331.33
828.708	328.99
829.096	244.73
829.483	286.86
829.871	354.74
830.259	368.78
830.646	312.61
831.034	321.97
831.421	357.08
831.808	324.31
832.196	289.2
832.583	321.97
832.97	312.61
833.357	331.33
833.744	319.63
834.131	324.31
834.518	312.61
834.905	317.29
835.292	387.5
835.678	359.42
836.065	361.76
836.452	298.56
836.838	343.03
837.225	336.01
837.611	247.07
837.998	268.14
838.384	286.86
838.77	291.54
839.157	352.4
839.543	298.56
839.929	291.54
840.315	277.5
840.701	298.56
841.087	310.27
841.473	324.31
841.858	289.2
842.244	310.27
842.63	361.76
843.015	321.97
843.401	417.93
843.787	352.4
844.172	387.5
844.557	347.72
844.943	345.38
845.328	258.78
845.713	328.99
846.098	354.74
846.483	293.88
846.868	357.08
847.253	338.35
847.638	321.97
848.023	366.44
848.408	350.06
848.793	378.14
849.177	340.69
849.562	303.25
849.947	303.25
850.331	312.61
850.715	312.61
851.1	303.25
851.484	336.01
851.868	317.29
852.253	284.52
852.637	275.16
853.021	373.46
853.405	263.46
853.789	305.59
854.173	331.33
854.557	340.69
854.94	277.5
855.324	359.42
855.708	305.59
856.091	368.78
856.475	256.43
856.858	263.46
857.242	312.61
857.625	291.54
858.009	247.07
858.392	275.16
858.775	284.52
859.158	359.42
859.541	321.97
859.924	298.56
860.307	270.48
860.69	368.78
861.073	270.48
861.456	265.8
861.838	291.54
862.221	240.05
862.604	261.12
862.986	319.63
863.369	350.06
863.751	284.52
864.133	314.95
864.516	305.59
864.898	350.06
865.28	298.56
865.662	303.25
866.044	357.08
866.426	300.91
866.808	312.61
867.19	366.44
867.572	293.88
867.954	350.06
868.336	336.01
868.717	345.38
869.099	284.52
869.48	321.97
869.862	345.38
870.243	272.82
870.625	272.82
871.006	345.38
871.387	312.61
871.768	314.95
872.149	317.29
872.53	364.1
872.911	268.14
873.292	331.33
873.673	319.63
874.054	314.95
874.435	263.46
874.815	324.31
875.196	359.42
875.577	321.97
875.957	319.63
876.338	284.52
876.718	361.76
877.098	307.93
877.479	293.88
877.859	261.12
878.239	284.52
878.619	272.82
878.999	310.27
879.379	406.23
879.759	272.82
880.139	307.93
880.519	293.88
880.898	317.29
881.278	237.71
881.658	298.56
882.037	361.76
882.417	284.52
882.796	291.54
883.176	289.2
883.555	221.33
883.934	347.72
884.313	317.29
884.693	321.97
885.072	380.48
885.451	305.59
885.83	340.69
886.209	300.91
886.587	307.93
886.966	328.99
887.345	305.59
887.724	312.61
888.102	331.33
888.481	333.67
888.859	331.33
889.238	343.03
889.616	354.74
889.994	354.74
890.373	310.27
890.751	303.25
891.129	296.22
891.507	338.35
891.885	352.4
892.263	303.25
892.641	293.88
893.019	333.67
893.396	364.1
893.774	328.99
894.152	312.61
894.529	279.84
894.907	319.63
895.284	254.09
895.662	289.2
896.039	298.56
896.416	366.44
896.794	303.25
897.171	303.25
897.548	324.31
897.925	328.99
898.302	307.93
898.679	307.93
899.056	289.2
899.433	375.8
899.809	331.33
900.186	324.31
900.563	314.95
900.939	394.53
901.316	284.52
901.692	326.65
902.069	300.91
902.445	343.03
902.821	284.52
903.197	331.33
903.574	338.35
903.95	303.25
904.326	333.67
904.702	265.8
905.078	279.84
905.454	336.01
905.829	298.56
906.205	310.27
906.581	364.1
906.956	291.54
907.332	277.5
907.707	296.22
908.083	373.46
908.458	310.27
908.833	307.93
909.209	319.63
909.584	333.67
909.959	338.35
910.334	293.88
910.709	314.95
911.084	326.65
911.459	375.8
911.834	289.2
912.209	331.33
912.583	286.86
912.958	357.08
913.333	326.65
913.707	272.82
914.082	298.56
914.456	324.31
914.83	331.33
915.205	277.5
915.579	326.65
915.953	272.82
916.327	305.59
916.701	279.84
917.075	272.82
917.449	277.5
917.823	289.2
918.197	296.22
918.571	310.27
918.944	293.88
919.318	371.12
919.692	291.54
920.065	282.18
920.438	345.38
920.812	270.48
921.185	324.31
921.558	326.65
921.932	317.29
922.305	277.5
922.678	300.91
923.051	282.18
923.424	300.91
923.797	357.08
924.17	319.63
924.542	331.33
924.915	303.25
925.288	321.97
925.661	321.97
926.033	378.14
926.406	298.56
926.778	364.1
927.15	298.56
927.523	312.61
927.895	284.52
928.267	357.08
928.639	272.82
929.011	314.95
929.383	354.74
929.755	284.52
930.127	340.69
930.499	284.52
930.871	296.22
931.242	314.95
931.614	270.48
931.986	331.33
932.357	256.43
932.729	319.63
933.1	282.18
933.471	310.27
933.843	247.07
934.214	359.42
934.585	298.56
934.956	326.65
935.327	336.01
935.698	233.03
936.069	307.93
936.44	258.78
936.811	357.08
937.182	352.4
937.552	371.12
937.923	357.08
938.293	333.67
938.664	289.2
939.034	296.22
939.405	286.86
939.775	307.93
940.145	361.76
940.516	305.59
940.886	324.31
941.256	282.18
941.626	254.09
941.996	338.35
942.366	291.54
942.735	389.85
943.105	345.38
943.475	354.74
943.845	350.06
944.214	228.35
944.584	291.54
944.953	296.22
945.323	272.82
945.692	331.33
946.061	340.69
946.43	340.69
946.8	300.91
947.169	345.38
947.538	293.88
947.907	293.88
948.276	312.61
948.645	359.42
949.013	291.54
949.382	279.84
949.751	279.84
950.119	289.2
950.488	331.33
950.857	382.82
951.225	343.03
951.593	314.95
951.962	324.31
952.33	345.38
952.698	240.05
953.066	305.59
953.434	291.54
953.802	291.54
954.17	305.59
954.538	319.63
954.906	310.27
955.274	251.75
955.642	303.25
956.009	338.35
956.377	270.48
956.744	284.52
957.112	338.35
957.479	326.65
957.847	270.48
958.214	230.69
958.581	307.93
958.948	293.88
959.315	357.08
959.683	258.78
960.05	300.91
960.416	263.46
960.783	359.42
961.15	321.97
961.517	324.31
961.884	307.93
962.25	247.07
962.617	350.06
962.983	312.61
963.35	282.18
963.716	328.99
964.082	293.88
964.449	312.61
964.815	256.43
965.181	303.25
965.547	340.69
965.913	251.75
966.279	307.93
966.645	321.97
967.011	326.65
967.377	298.56
967.742	347.72
968.108	291.54
968.474	340.69
968.839	277.5
969.205	254.09
969.57	289.2
969.935	326.65
970.301	340.69
970.666	286.86
971.031	307.93
971.396	291.54
971.761	272.82
972.126	340.69
972.491	328.99
972.856	291.54
973.221	321.97
973.586	200.26
973.95	336.01
974.315	336.01
974.679	265.8
975.044	312.61
975.408	293.88
975.773	272.82
976.137	296.22
976.501	326.65
976.866	336.01
977.23	284.52
977.594	289.2
977.958	263.46
978.322	319.63
978.686	385.16
979.049	312.61
979.413	328.99
979.777	354.74
980.141	298.56
980.504	340.69
980.868	350.06
981.231	331.33
981.595	310.27
981.958	324.31
982.321	336.01
982.684	331.33
983.048	298.56
983.411	336.01
983.774	338.35
984.137	408.57
984.5	270.48
984.862	221.33
985.225	268.14
985.588	303.25
985.951	314.95
986.313	319.63
986.676	296.22
987.038	300.91
987.401	284.52
987.763	352.4
988.125	307.93
988.488	385.16
988.85	298.56
989.212	298.56
989.574	375.8
989.936	314.95
990.298	354.74
990.66	328.99
991.022	310.27
991.383	303.25
991.745	310.27
992.107	319.63
992.468	284.52
992.83	336.01
993.191	293.88
993.553	345.38
993.914	275.16
994.275	298.56
994.637	296.22
994.998	317.29
995.359	310.27
995.72	275.16
996.081	249.41
996.442	244.73
996.803	300.91
997.163	293.88
997.524	321.97
997.885	338.35
998.245	331.33
998.606	293.88
998.966	364.1
999.327	326.65
999.687	237.71
1000.047	275.16
1000.408	284.52
1000.768	371.12
1001.128	319.63
1001.488	317.29
1001.848	279.84
1002.208	336.01
1002.568	300.91
1002.927	261.12
1003.287	305.59
1003.647	343.03
1004.007	375.8
1004.366	275.16
1004.726	291.54
1005.085	305.59
1005.444	272.82
1005.804	275.16
1006.163	312.61
1006.522	350.06
1006.881	333.67
1007.24	317.29
1007.599	275.16
1007.958	307.93
1008.317	354.74
1008.676	324.31
1009.035	310.27
1009.393	298.56
1009.752	328.99
1010.111	286.86
1010.469	352.4
1010.828	312.61
1011.186	291.54
1011.544	261.12
1011.903	314.95
1012.261	268.14
1012.619	289.2
1012.977	298.56
1013.335	300.91
1013.693	366.44
1014.051	286.86
1014.409	300.91
1014.767	305.59
1015.124	289.2
1015.482	293.88
1015.84	254.09
1016.197	415.59
1016.555	268.14
1016.912	268.14
1017.269	275.16
1017.627	298.56
1017.984	279.84
1018.341	244.73
1018.698	291.54
1019.055	336.01
1019.412	338.35
1019.769	268.14
1020.126	326.65
1020.483	312.61
1020.84	319.63
1021.196	289.2
1021.553	314.95
1021.909	263.46
1022.266	256.43
1022.622	354.74
1022.979	375.8
1023.335	263.46
1023.691	223.67
1024.047	354.74
1024.404	333.67
1024.76	345.38
1025.116	312.61
1025.472	328.99
1025.827	328.99
1026.183	282.18
1026.539	296.22
1026.895	303.25
1027.25	359.42
1027.606	317.29
1027.961	312.61
1028.317	272.82
1028.672	317.29
1029.028	303.25
1029.383	314.95
1029.738	275.16
1030.093	279.84
1030.448	272.82
1030.803	303.25
1031.158	235.37
1031.513	284.52
1031.868	277.5
1032.223	242.39
1032.577	312.61
1032.932	410.91
1033.287	336.01
1033.641	305.59
1033.996	272.82
1034.35	345.38
1034.704	282.18
1035.059	328.99
1035.413	310.27
1035.767	310.27
1036.121	310.27
