Data from Al_FLMS009871__1159__16-36-06-690.txt Node

Date: Fri Mar 08 16:36:06 CST 2024
User: pe5414po
Spectrometer: FLMS00987
Trigger mode: 0
Integration Time (sec): 1.000000E-1
Scans to average: 1
Electric dark correction enabled: true
Nonlinearity correction enabled: false
Boxcar width: 0
XAxis mode: Wavelengths
Number of Pixels in Spectrum: 2048
>>>>>Begin Spectral Data<<<<<
188.938	-37.3
189.409	-37.3
189.879	-37.3
190.349	-128.58
190.819	-130.92
191.29	-70.07
191.76	-175.39
192.23	-86.45
192.7	-51.35
193.17	-65.39
193.64	-44.32
194.109	32.91
194.579	-25.6
195.049	-34.96
195.519	-4.53
195.988	0.15
196.458	35.25
196.927	98.45
197.397	145.26
197.866	105.47
198.336	140.58
198.805	119.51
199.274	128.88
199.744	194.41
200.213	187.39
200.682	201.43
201.151	208.45
201.62	185.05
202.089	269.31
202.558	252.92
203.027	231.86
203.495	295.05
203.964	302.08
204.433	231.86
204.902	257.61
205.37	278.67
205.839	297.39
206.307	304.42
206.776	320.8
207.244	325.48
207.712	245.9
208.181	395.7
208.649	273.99
209.117	276.33
209.585	283.35
210.053	290.37
210.521	318.46
210.989	313.78
211.457	245.9
211.925	337.18
212.393	257.61
212.861	285.69
213.328	334.84
213.796	285.69
214.264	229.52
214.731	325.48
215.199	325.48
215.666	273.99
216.133	316.12
216.601	288.03
217.068	236.54
217.535	241.22
218.003	215.48
218.47	306.76
218.937	339.52
219.404	271.65
219.871	222.5
220.338	304.42
220.805	302.08
221.271	252.92
221.738	201.43
222.205	297.39
222.671	297.39
223.138	271.65
223.605	252.92
224.071	306.76
224.538	278.67
225.004	259.95
225.47	276.33
225.937	281.01
226.403	213.14
226.869	241.22
227.335	259.95
227.801	231.86
228.267	309.1
228.733	311.44
229.199	283.35
229.665	259.95
230.131	288.03
230.597	299.73
231.062	266.97
231.528	281.01
231.994	241.22
232.459	245.9
232.925	252.92
233.39	311.44
233.856	309.1
234.321	325.48
234.786	299.73
235.252	224.84
235.717	248.24
236.182	243.56
236.647	269.31
237.112	285.69
237.577	234.2
238.042	278.67
238.507	262.29
238.972	255.26
239.436	311.44
239.901	224.84
240.366	330.16
240.83	238.88
241.295	304.42
241.76	271.65
242.224	262.29
242.688	271.65
243.153	306.76
243.617	255.26
244.081	323.14
244.545	290.37
245.01	257.61
245.474	241.22
245.938	295.05
246.402	269.31
246.866	327.82
247.33	278.67
247.793	297.39
248.257	316.12
248.721	302.08
249.185	257.61
249.648	311.44
250.112	325.48
250.575	241.22
251.039	290.37
251.502	311.44
251.965	266.97
252.429	283.35
252.892	273.99
253.355	309.1
253.818	285.69
254.281	273.99
254.744	243.56
255.207	271.65
255.67	313.78
256.133	283.35
256.596	276.33
257.059	290.37
257.522	304.42
257.984	288.03
258.447	290.37
258.909	339.52
259.372	313.78
259.834	311.44
260.297	227.18
260.759	276.33
261.221	341.86
261.684	367.61
262.146	313.78
262.608	304.42
263.07	297.39
263.532	245.9
263.994	337.18
264.456	297.39
264.918	241.22
265.38	367.61
265.842	243.56
266.303	229.52
266.765	283.35
267.227	292.71
267.688	383.99
268.15	248.24
268.611	334.84
269.072	309.1
269.534	323.14
269.995	304.42
270.456	353.57
270.918	306.76
271.379	327.82
271.84	259.95
272.301	344.21
272.762	269.31
273.223	283.35
273.684	318.46
274.144	264.63
274.605	353.57
275.066	302.08
275.527	266.97
275.987	271.65
276.448	323.14
276.908	269.31
277.369	304.42
277.829	273.99
278.289	318.46
278.75	320.8
279.21	297.39
279.67	306.76
280.13	323.14
280.59	224.84
281.05	360.59
281.51	311.44
281.97	325.48
282.43	297.39
282.89	252.92
283.35	302.08
283.809	290.37
284.269	292.71
284.729	302.08
285.188	257.61
285.648	215.48
286.107	281.01
286.567	290.37
287.026	266.97
287.485	302.08
287.944	299.73
288.404	299.73
288.863	318.46
289.322	273.99
289.781	327.82
290.24	243.56
290.699	281.01
291.158	295.05
291.616	243.56
292.075	346.55
292.534	257.61
292.992	276.33
293.451	311.44
293.91	281.01
294.368	332.5
294.827	288.03
295.285	330.16
295.743	285.69
296.202	304.42
296.66	330.16
297.118	302.08
297.576	332.5
298.034	316.12
298.492	217.82
298.95	313.78
299.408	304.42
299.866	297.39
300.324	269.31
300.781	332.5
301.239	292.71
301.697	269.31
302.154	278.67
302.612	316.12
303.069	320.8
303.527	351.23
303.984	292.71
304.441	344.21
304.899	320.8
305.356	295.05
305.813	334.84
306.27	304.42
306.727	297.39
307.184	290.37
307.641	297.39
308.098	311.44
308.555	269.31
309.012	334.84
309.468	248.24
309.925	311.44
310.382	323.14
310.838	325.48
311.295	273.99
311.751	344.21
312.208	341.86
312.664	358.25
313.12	264.63
313.577	295.05
314.033	302.08
314.489	273.99
314.945	318.46
315.401	318.46
315.857	278.67
316.313	299.73
316.769	369.95
317.225	299.73
317.681	313.78
318.136	311.44
318.592	290.37
319.048	334.84
319.503	252.92
319.959	283.35
320.414	323.14
320.869	257.61
321.325	325.48
321.78	351.23
322.235	323.14
322.691	325.48
323.146	330.16
323.601	231.86
324.056	334.84
324.511	297.39
324.966	330.16
325.421	276.33
325.875	320.8
326.33	372.29
326.785	311.44
327.24	309.1
327.694	358.25
328.149	290.37
328.603	353.57
329.058	257.61
329.512	276.33
329.966	332.5
330.421	295.05
330.875	339.52
331.329	320.8
331.783	306.76
332.237	344.21
332.691	306.76
333.145	281.01
333.599	323.14
334.053	306.76
334.507	302.08
334.96	376.97
335.414	313.78
335.868	311.44
336.321	311.44
336.775	346.55
337.228	369.95
337.682	273.99
338.135	313.78
338.588	337.18
339.042	299.73
339.495	311.44
339.948	360.59
340.401	269.31
340.854	327.82
341.307	355.91
341.76	332.5
342.213	320.8
342.666	273.99
343.119	309.1
343.571	369.95
344.024	288.03
344.477	210.79
344.929	318.46
345.382	285.69
345.834	288.03
346.287	250.58
346.739	302.08
347.191	262.29
347.644	297.39
348.096	348.89
348.548	311.44
349	276.33
349.452	309.1
349.904	283.35
350.356	271.65
350.808	351.23
351.26	330.16
351.711	341.86
352.163	295.05
352.615	332.5
353.066	330.16
353.518	318.46
353.969	292.71
354.421	302.08
354.872	330.16
355.324	341.86
355.775	313.78
356.226	309.1
356.677	327.82
357.128	327.82
357.579	428.46
358.03	306.76
358.481	276.33
358.932	398.04
359.383	304.42
359.834	278.67
360.285	273.99
360.735	283.35
361.186	306.76
361.637	302.08
362.087	297.39
362.538	337.18
362.988	318.46
363.438	348.89
363.889	309.1
364.339	269.31
364.789	285.69
365.239	290.37
365.689	281.01
366.139	332.5
366.589	330.16
367.039	273.99
367.489	309.1
367.939	365.27
368.389	367.61
368.839	360.59
369.288	295.05
369.738	323.14
370.187	365.27
370.637	318.46
371.086	288.03
371.536	259.95
371.985	292.71
372.434	327.82
372.884	332.5
373.333	330.16
373.782	325.48
374.231	346.55
374.68	290.37
375.129	325.48
375.578	309.1
376.027	325.48
376.475	341.86
376.924	379.31
377.373	311.44
377.822	248.24
378.27	316.12
378.719	330.16
379.167	302.08
379.616	309.1
380.064	292.71
380.512	302.08
380.961	201.43
381.409	318.46
381.857	295.05
382.305	299.73
382.753	210.79
383.201	288.03
383.649	290.37
384.097	283.35
384.545	304.42
384.992	334.84
385.44	325.48
385.888	337.18
386.335	304.42
386.783	330.16
387.231	292.71
387.678	353.57
388.125	295.05
388.573	306.76
389.02	318.46
389.467	346.55
389.914	334.84
390.362	344.21
390.809	330.16
391.256	369.95
391.703	243.56
392.15	358.25
392.596	292.71
393.043	295.05
393.49	306.76
393.937	327.82
394.383	295.05
394.83	281.01
395.276	311.44
395.723	386.33
396.169	341.86
396.616	311.44
397.062	332.5
397.508	323.14
397.954	281.01
398.401	376.97
398.847	271.65
399.293	330.16
399.739	297.39
400.185	262.29
400.631	285.69
401.076	323.14
401.522	346.55
401.968	325.48
402.414	299.73
402.859	236.54
403.305	302.08
403.75	295.05
404.196	325.48
404.641	383.99
405.086	360.59
405.532	355.91
405.977	273.99
406.422	278.67
406.867	299.73
407.312	334.84
407.757	323.14
408.202	309.1
408.647	292.71
409.092	360.59
409.537	320.8
409.982	325.48
410.426	318.46
410.871	388.68
411.316	306.76
411.76	341.86
412.205	302.08
412.649	323.14
413.093	330.16
413.538	320.8
413.982	302.08
414.426	332.5
414.87	334.84
415.314	290.37
415.758	313.78
416.202	295.05
416.646	297.39
417.09	330.16
417.534	323.14
417.978	259.95
418.421	339.52
418.865	306.76
419.309	313.78
419.752	302.08
420.196	302.08
420.639	355.91
421.083	241.22
421.526	302.08
421.969	318.46
422.412	341.86
422.856	346.55
423.299	334.84
423.742	337.18
424.185	309.1
424.628	302.08
425.071	341.86
425.513	306.76
425.956	360.59
426.399	327.82
426.842	318.46
427.284	306.76
427.727	325.48
428.169	288.03
428.612	285.69
429.054	285.69
429.497	325.48
429.939	311.44
430.381	255.26
430.823	358.25
431.265	288.03
431.707	325.48
432.149	379.31
432.591	379.31
433.033	337.18
433.475	348.89
433.917	325.48
434.359	283.35
434.8	264.63
435.242	271.65
435.684	318.46
436.125	348.89
436.567	318.46
437.008	379.31
437.449	337.18
437.891	318.46
438.332	379.31
438.773	351.23
439.214	316.12
439.656	309.1
440.097	318.46
440.538	367.61
440.978	348.89
441.419	320.8
441.86	271.65
442.301	257.61
442.742	337.18
443.182	299.73
443.623	285.69
444.063	257.61
444.504	344.21
444.944	327.82
445.385	323.14
445.825	250.58
446.265	325.48
446.706	320.8
447.146	295.05
447.586	297.39
448.026	325.48
448.466	320.8
448.906	337.18
449.346	330.16
449.786	330.16
450.225	302.08
450.665	398.04
451.105	360.59
451.544	323.14
451.984	309.1
452.424	360.59
452.863	362.93
453.302	288.03
453.742	311.44
454.181	309.1
454.62	358.25
455.059	372.29
455.499	306.76
455.938	337.18
456.377	374.63
456.816	341.86
457.254	325.48
457.693	283.35
458.132	299.73
458.571	309.1
459.01	339.52
459.448	353.57
459.887	360.59
460.325	337.18
460.764	318.46
461.202	299.73
461.641	311.44
462.079	353.57
462.517	313.78
462.955	318.46
463.393	290.37
463.832	383.99
464.27	311.44
464.708	376.97
465.145	383.99
465.583	369.95
466.021	318.46
466.459	313.78
466.897	309.1
467.334	398.04
467.772	348.89
468.209	299.73
468.647	334.84
469.084	337.18
469.522	367.61
469.959	351.23
470.396	327.82
470.833	367.61
471.271	369.95
471.708	271.65
472.145	292.71
472.582	304.42
473.019	412.08
473.456	386.33
473.892	295.05
474.329	351.23
474.766	297.39
475.202	337.18
475.639	304.42
476.076	395.7
476.512	367.61
476.949	367.61
477.385	383.99
477.821	344.21
478.258	285.69
478.694	369.95
479.13	295.05
479.566	351.23
480.002	297.39
480.438	288.03
480.874	297.39
481.31	353.57
481.746	325.48
482.181	381.65
482.617	344.21
483.053	344.21
483.488	316.12
483.924	320.8
484.36	320.8
484.795	311.44
485.23	334.84
485.666	292.71
486.101	266.97
486.536	355.91
486.971	266.97
487.407	283.35
487.842	309.1
488.277	283.35
488.712	360.59
489.146	269.31
489.581	313.78
490.016	257.61
490.451	369.95
490.885	334.84
491.32	325.48
491.755	316.12
492.189	325.48
492.624	306.76
493.058	362.93
493.492	311.44
493.927	283.35
494.361	311.44
494.795	339.52
495.229	325.48
495.663	337.18
496.097	299.73
496.531	299.73
496.965	355.91
497.399	269.31
497.833	290.37
498.266	281.01
498.7	374.63
499.134	355.91
499.567	288.03
500.001	323.14
500.434	332.5
500.868	257.61
501.301	360.59
501.734	316.12
502.168	278.67
502.601	325.48
503.034	302.08
503.467	302.08
503.9	358.25
504.333	344.21
504.766	330.16
505.199	379.31
505.632	323.14
506.064	318.46
506.497	334.84
506.93	355.91
507.362	372.29
507.795	334.84
508.227	309.1
508.66	334.84
509.092	327.82
509.524	330.16
509.956	367.61
510.389	304.42
510.821	372.29
511.253	295.05
511.685	332.5
512.117	304.42
512.549	311.44
512.981	348.89
513.412	330.16
513.844	348.89
514.276	306.76
514.707	309.1
515.139	285.69
515.571	323.14
516.002	332.5
516.433	376.97
516.865	290.37
517.296	306.76
517.727	288.03
518.159	372.29
518.59	355.91
519.021	332.5
519.452	264.63
519.883	320.8
520.314	302.08
520.744	337.18
521.175	316.12
521.606	351.23
522.037	309.1
522.467	327.82
522.898	290.37
523.328	344.21
523.759	302.08
524.189	295.05
524.62	337.18
525.05	257.61
525.48	273.99
525.91	299.73
526.341	358.25
526.771	304.42
527.201	311.44
527.631	318.46
528.061	290.37
528.49	295.05
528.92	311.44
529.35	332.5
529.78	374.63
530.209	332.5
530.639	320.8
531.068	327.82
531.498	306.76
531.927	346.55
532.357	292.71
532.786	290.37
533.215	388.68
533.644	302.08
534.074	337.18
534.503	290.37
534.932	309.1
535.361	297.39
535.79	309.1
536.218	355.91
536.647	332.5
537.076	276.33
537.505	302.08
537.933	271.65
538.362	304.42
538.79	367.61
539.219	358.25
539.647	365.27
540.076	346.55
540.504	353.57
540.932	332.5
541.36	304.42
541.788	304.42
542.217	337.18
542.645	330.16
543.073	344.21
543.5	409.74
543.928	330.16
544.356	266.97
544.784	346.55
545.211	297.39
545.639	334.84
546.067	332.5
546.494	414.42
546.922	332.5
547.349	358.25
547.776	316.12
548.204	297.39
548.631	285.69
549.058	255.26
549.485	276.33
549.912	302.08
550.339	339.52
550.766	320.8
551.193	416.76
551.62	367.61
552.047	346.55
552.474	257.61
552.9	309.1
553.327	316.12
553.754	304.42
554.18	346.55
554.607	330.16
555.033	323.14
555.459	273.99
555.886	339.52
556.312	379.31
556.738	271.65
557.164	273.99
557.59	285.69
558.016	318.46
558.442	292.71
558.868	304.42
559.294	327.82
559.72	278.67
560.145	346.55
560.571	290.37
560.997	316.12
561.422	351.23
561.848	334.84
562.273	285.69
562.699	355.91
563.124	269.31
563.549	269.31
563.974	320.8
564.4	297.39
564.825	351.23
565.25	306.76
565.675	344.21
566.1	285.69
566.525	344.21
566.95	288.03
567.374	372.29
567.799	353.57
568.224	334.84
568.648	353.57
569.073	330.16
569.497	367.61
569.922	316.12
570.346	306.76
570.771	330.16
571.195	309.1
571.619	313.78
572.043	311.44
572.467	334.84
572.891	313.78
573.315	304.42
573.739	334.84
574.163	341.86
574.587	320.8
575.011	353.57
575.435	372.29
575.858	362.93
576.282	325.48
576.705	295.05
577.129	306.76
577.552	344.21
577.976	306.76
578.399	330.16
578.822	330.16
579.245	306.76
579.669	292.71
580.092	288.03
580.515	271.65
580.938	229.52
581.361	297.39
581.784	299.73
582.206	269.31
582.629	383.99
583.052	344.21
583.474	316.12
583.897	365.27
584.32	372.29
584.742	295.05
585.165	292.71
585.587	334.84
586.009	351.23
586.431	306.76
586.854	306.76
587.276	313.78
587.698	292.71
588.12	358.25
588.542	362.93
588.964	344.21
589.386	330.16
589.807	355.91
590.229	309.1
590.651	325.48
591.073	297.39
591.494	266.97
591.916	327.82
592.337	309.1
592.759	325.48
593.18	297.39
593.601	316.12
594.022	285.69
594.444	323.14
594.865	325.48
595.286	353.57
595.707	283.35
596.128	306.76
596.549	278.67
596.97	292.71
597.39	302.08
597.811	285.69
598.232	339.52
598.652	362.93
599.073	299.73
599.494	281.01
599.914	283.35
600.334	262.29
600.755	330.16
601.175	309.1
601.595	365.27
602.015	304.42
602.436	271.65
602.856	393.36
603.276	313.78
603.696	379.31
604.115	334.84
604.535	332.5
604.955	337.18
605.375	316.12
605.794	297.39
606.214	306.76
606.634	320.8
607.053	379.31
607.473	306.76
607.892	348.89
608.311	283.35
608.731	341.86
609.15	320.8
609.569	278.67
609.988	295.05
610.407	229.52
610.826	325.48
611.245	252.92
611.664	306.76
612.083	325.48
612.501	316.12
612.92	283.35
613.339	271.65
613.757	381.65
614.176	330.16
614.594	353.57
615.013	323.14
615.431	355.91
615.85	264.63
616.268	313.78
616.686	353.57
617.104	334.84
617.522	346.55
617.94	304.42
618.358	297.39
618.776	320.8
619.194	306.76
619.612	281.01
620.03	297.39
620.447	311.44
620.865	295.05
621.282	344.21
621.7	355.91
622.117	311.44
622.535	374.63
622.952	344.21
623.369	269.31
623.787	299.73
624.204	304.42
624.621	304.42
625.038	292.71
625.455	344.21
625.872	309.1
626.289	311.44
626.706	348.89
627.123	323.14
627.539	316.12
627.956	295.05
628.373	295.05
628.789	355.91
629.206	320.8
629.622	330.16
630.038	311.44
630.455	316.12
630.871	313.78
631.287	290.37
631.703	309.1
632.12	299.73
632.536	330.16
632.952	325.48
633.368	341.86
633.783	276.33
634.199	276.33
634.615	285.69
635.031	358.25
635.446	306.76
635.862	330.16
636.277	273.99
636.693	330.16
637.108	309.1
637.524	316.12
637.939	290.37
638.354	252.92
638.77	290.37
639.185	388.68
639.6	348.89
640.015	318.46
640.43	313.78
640.845	281.01
641.259	311.44
641.674	360.59
642.089	355.91
642.504	236.54
642.918	281.01
643.333	360.59
643.747	306.76
644.162	290.37
644.576	369.95
644.991	365.27
645.405	353.57
645.819	358.25
646.233	332.5
646.647	339.52
647.061	351.23
647.475	325.48
647.889	327.82
648.303	348.89
648.717	313.78
649.131	288.03
649.545	344.21
649.958	285.69
650.372	323.14
650.785	325.48
651.199	316.12
651.612	344.21
652.026	311.44
652.439	339.52
652.852	358.25
653.266	334.84
653.679	297.39
654.092	262.29
654.505	309.1
654.918	318.46
655.331	320.8
655.744	302.08
656.156	299.73
656.569	341.86
656.982	304.42
657.394	290.37
657.807	266.97
658.22	290.37
658.632	320.8
659.044	353.57
659.457	313.78
659.869	372.29
660.281	332.5
660.693	351.23
661.106	273.99
661.518	320.8
661.93	273.99
662.342	348.89
662.754	311.44
663.165	341.86
663.577	243.56
663.989	309.1
664.401	304.42
664.812	285.69
665.224	372.29
665.635	271.65
666.047	309.1
666.458	316.12
666.869	344.21
667.281	330.16
667.692	341.86
668.103	313.78
668.514	358.25
668.925	320.8
669.336	313.78
669.747	316.12
670.158	302.08
670.569	281.01
670.979	346.55
671.39	362.93
671.801	400.38
672.211	337.18
672.622	369.95
673.032	369.95
673.443	297.39
673.853	311.44
674.263	346.55
674.674	367.61
675.084	264.63
675.494	306.76
675.904	299.73
676.314	304.42
676.724	295.05
677.134	248.24
677.544	269.31
677.953	299.73
678.363	409.74
678.773	395.7
679.182	316.12
679.592	367.61
680.001	299.73
680.411	320.8
680.82	281.01
681.23	316.12
681.639	285.69
682.048	435.49
682.457	346.55
682.866	337.18
683.275	339.52
683.684	264.63
684.093	316.12
684.502	281.01
684.911	276.33
685.32	393.36
685.728	266.97
686.137	339.52
686.546	341.86
686.954	339.52
687.363	341.86
687.771	302.08
688.179	346.55
688.588	320.8
688.996	341.86
689.404	264.63
689.812	285.69
690.22	309.1
690.628	355.91
691.036	339.52
691.444	346.55
691.852	423.78
692.26	383.99
692.667	295.05
693.075	243.56
693.483	360.59
693.89	299.73
694.298	337.18
694.705	283.35
695.112	355.91
695.52	367.61
695.927	290.37
696.334	309.1
696.741	299.73
697.148	295.05
697.555	299.73
697.962	327.82
698.369	304.42
698.776	281.01
699.183	302.08
699.59	323.14
699.996	299.73
700.403	362.93
700.81	295.05
701.216	351.23
701.623	302.08
702.029	295.05
702.435	339.52
702.842	283.35
703.248	344.21
703.654	383.99
704.06	306.76
704.466	266.97
704.872	323.14
705.278	344.21
705.684	360.59
706.09	255.26
706.496	334.84
706.901	381.65
707.307	353.57
707.712	353.57
708.118	285.69
708.523	316.12
708.929	222.5
709.334	292.71
709.74	325.48
710.145	339.52
710.55	339.52
710.955	269.31
711.36	337.18
711.765	334.84
712.17	332.5
712.575	304.42
712.98	910.61
713.385	351.23
713.789	339.52
714.194	306.76
714.599	306.76
715.003	309.1
715.408	344.21
715.812	313.78
716.217	283.35
716.621	288.03
717.025	323.14
717.429	334.84
717.833	259.95
718.238	281.01
718.642	250.58
719.046	320.8
719.449	306.76
719.853	288.03
720.257	313.78
720.661	292.71
721.065	276.33
721.468	376.97
721.872	302.08
722.275	325.48
722.679	355.91
723.082	358.25
723.485	341.86
723.889	285.69
724.292	372.29
724.695	341.86
725.098	323.14
725.501	353.57
725.904	344.21
726.307	302.08
726.71	334.84
727.113	330.16
727.516	269.31
727.918	395.7
728.321	346.55
728.724	344.21
729.126	299.73
729.529	348.89
729.931	323.14
730.333	309.1
730.736	306.76
731.138	369.95
731.54	304.42
731.942	306.76
732.344	332.5
732.746	320.8
733.148	311.44
733.55	297.39
733.952	334.84
734.354	334.84
734.756	323.14
735.157	281.01
735.559	334.84
735.96	311.44
736.362	367.61
736.763	311.44
737.165	341.86
737.566	288.03
737.967	295.05
738.368	388.68
738.77	304.42
739.171	316.12
739.572	386.33
739.973	353.57
740.374	273.99
740.774	325.48
741.175	334.84
741.576	290.37
741.977	283.35
742.377	332.5
742.778	311.44
743.178	245.9
743.579	332.5
743.979	337.18
744.379	278.67
744.78	346.55
745.18	332.5
745.58	367.61
745.98	290.37
746.38	330.16
746.78	281.01
747.18	316.12
747.58	304.42
747.98	351.23
748.38	271.65
748.779	304.42
749.179	395.7
749.578	320.8
749.978	259.95
750.377	351.23
750.777	292.71
751.176	304.42
751.575	304.42
751.975	288.03
752.374	297.39
752.773	341.86
753.172	302.08
753.571	348.89
753.97	339.52
754.369	358.25
754.768	334.84
755.166	252.92
755.565	248.24
755.964	309.1
756.362	299.73
756.761	255.26
757.159	309.1
757.558	288.03
757.956	309.1
758.354	332.5
758.753	304.42
759.151	365.27
759.549	288.03
759.947	323.14
760.345	297.39
760.743	330.16
761.141	332.5
761.539	288.03
761.936	273.99
762.334	292.71
762.732	290.37
763.129	297.39
763.527	339.52
763.924	341.86
764.322	412.08
764.719	299.73
765.117	288.03
765.514	337.18
765.911	344.21
766.308	243.56
766.705	351.23
767.102	302.08
767.499	351.23
767.896	372.29
768.293	341.86
768.69	316.12
769.086	346.55
769.483	302.08
769.88	353.57
770.276	269.31
770.673	306.76
771.069	327.82
771.466	337.18
771.862	245.9
772.258	269.31
772.654	358.25
773.05	252.92
773.447	238.88
773.843	285.69
774.239	306.76
774.634	309.1
775.03	318.46
775.426	245.9
775.822	358.25
776.218	376.97
776.613	295.05
777.009	337.18
777.404	313.78
777.8	365.27
778.195	290.37
778.59	297.39
778.986	346.55
779.381	264.63
779.776	309.1
780.171	281.01
780.566	302.08
780.961	299.73
781.356	332.5
781.751	248.24
782.146	323.14
782.54	281.01
782.935	365.27
783.33	320.8
783.724	245.9
784.119	358.25
784.513	351.23
784.908	332.5
785.302	290.37
785.696	304.42
786.09	299.73
786.485	283.35
786.879	269.31
787.273	332.5
787.667	325.48
788.061	295.05
788.454	299.73
788.848	325.48
789.242	316.12
789.636	362.93
790.029	311.44
790.423	327.82
790.816	292.71
791.21	339.52
791.603	330.16
791.997	346.55
792.39	360.59
792.783	332.5
793.176	355.91
793.569	327.82
793.962	323.14
794.355	297.39
794.748	433.15
795.141	313.78
795.534	398.04
795.927	320.8
796.319	358.25
796.712	295.05
797.105	348.89
797.497	325.48
797.89	323.14
798.282	327.82
798.674	348.89
799.067	337.18
799.459	376.97
799.851	325.48
800.243	332.5
800.635	369.95
801.027	309.1
801.419	299.73
801.811	288.03
802.203	283.35
802.594	259.95
802.986	309.1
803.378	341.86
803.769	362.93
804.161	323.14
804.552	334.84
804.944	337.18
805.335	269.31
805.726	278.67
806.118	330.16
806.509	353.57
806.9	266.97
807.291	339.52
807.682	311.44
808.073	266.97
808.464	264.63
808.855	292.71
809.245	262.29
809.636	327.82
810.027	339.52
810.417	332.5
810.808	313.78
811.198	309.1
811.589	393.36
811.979	309.1
812.369	325.48
812.759	367.61
813.15	295.05
813.54	318.46
813.93	332.5
814.32	269.31
814.71	332.5
815.1	297.39
815.489	369.95
815.879	297.39
816.269	311.44
816.658	344.21
817.048	288.03
817.438	344.21
817.827	386.33
818.216	295.05
818.606	306.76
818.995	273.99
819.384	330.16
819.773	332.5
820.163	348.89
820.552	292.71
820.941	327.82
821.33	351.23
821.718	302.08
822.107	346.55
822.496	355.91
822.885	313.78
823.273	330.16
823.662	276.33
824.05	285.69
824.439	257.61
824.827	330.16
825.216	323.14
825.604	344.21
825.992	311.44
826.38	302.08
826.768	295.05
827.156	288.03
827.544	325.48
827.932	327.82
828.32	295.05
828.708	400.38
829.096	325.48
829.483	348.89
829.871	346.55
830.259	316.12
830.646	316.12
831.034	358.25
831.421	365.27
831.808	341.86
832.196	330.16
832.583	231.86
832.97	318.46
833.357	299.73
833.744	381.65
834.131	313.78
834.518	278.67
834.905	299.73
835.292	332.5
835.678	283.35
836.065	245.9
836.452	292.71
836.838	360.59
837.225	259.95
837.611	309.1
837.998	290.37
838.384	290.37
838.77	325.48
839.157	367.61
839.543	341.86
839.929	252.92
840.315	285.69
840.701	344.21
841.087	309.1
841.473	283.35
841.858	341.86
842.244	269.31
842.63	292.71
843.015	327.82
843.401	355.91
843.787	297.39
844.172	302.08
844.557	295.05
844.943	318.46
845.328	337.18
845.713	339.52
846.098	351.23
846.483	339.52
846.868	271.65
847.253	402.72
847.638	360.59
848.023	283.35
848.408	355.91
848.793	299.73
849.177	276.33
849.562	278.67
849.947	281.01
850.331	341.86
850.715	337.18
851.1	353.57
851.484	339.52
851.868	374.63
852.253	330.16
852.637	313.78
853.021	330.16
853.405	299.73
853.789	266.97
854.173	337.18
854.557	367.61
854.94	313.78
855.324	304.42
855.708	283.35
856.091	309.1
856.475	276.33
856.858	297.39
857.242	376.97
857.625	318.46
858.009	327.82
858.392	288.03
858.775	269.31
859.158	281.01
859.541	281.01
859.924	299.73
860.307	259.95
860.69	367.61
861.073	262.29
861.456	341.86
861.838	295.05
862.221	203.77
862.604	295.05
862.986	313.78
863.369	288.03
863.751	311.44
864.133	353.57
864.516	320.8
864.898	278.67
865.28	311.44
865.662	323.14
866.044	339.52
866.426	327.82
866.808	330.16
867.19	327.82
867.572	325.48
867.954	318.46
868.336	299.73
868.717	318.46
869.099	360.59
869.48	297.39
869.862	332.5
870.243	337.18
870.625	234.2
871.006	316.12
871.387	353.57
871.768	297.39
872.149	337.18
872.53	360.59
872.911	283.35
873.292	320.8
873.673	273.99
874.054	299.73
874.435	302.08
874.815	332.5
875.196	299.73
875.577	276.33
875.957	290.37
876.338	295.05
876.718	297.39
877.098	346.55
877.479	311.44
877.859	309.1
878.239	302.08
878.619	339.52
878.999	318.46
879.379	295.05
879.759	337.18
880.139	243.56
880.519	327.82
880.898	341.86
881.278	367.61
881.658	304.42
882.037	318.46
882.417	285.69
882.796	259.95
883.176	383.99
883.555	269.31
883.934	243.56
884.313	386.33
884.693	311.44
885.072	341.86
885.451	325.48
885.83	290.37
886.209	355.91
886.587	285.69
886.966	325.48
887.345	316.12
887.724	365.27
888.102	398.04
888.481	381.65
888.859	320.8
889.238	395.7
889.616	332.5
889.994	283.35
890.373	273.99
890.751	327.82
891.129	295.05
891.507	344.21
891.885	304.42
892.263	327.82
892.641	313.78
893.019	302.08
893.396	302.08
893.774	358.25
894.152	341.86
894.529	311.44
894.907	323.14
895.284	309.1
895.662	327.82
896.039	311.44
896.416	276.33
896.794	325.48
897.171	360.59
897.548	309.1
897.925	398.04
898.302	362.93
898.679	306.76
899.056	283.35
899.433	449.53
899.809	273.99
900.186	292.71
900.563	320.8
900.939	257.61
901.316	290.37
901.692	248.24
902.069	262.29
902.445	393.36
902.821	353.57
903.197	262.29
903.574	273.99
903.95	295.05
904.326	290.37
904.702	311.44
905.078	290.37
905.454	290.37
905.829	358.25
906.205	295.05
906.581	276.33
906.956	309.1
907.332	337.18
907.707	271.65
908.083	348.89
908.458	353.57
908.833	285.69
909.209	299.73
909.584	313.78
909.959	290.37
910.334	273.99
910.709	325.48
911.084	323.14
911.459	325.48
911.834	304.42
912.209	304.42
912.583	353.57
912.958	362.93
913.333	311.44
913.707	362.93
914.082	325.48
914.456	227.18
914.83	311.44
915.205	295.05
915.579	311.44
915.953	292.71
916.327	285.69
916.701	346.55
917.075	292.71
917.449	341.86
917.823	360.59
918.197	302.08
918.571	295.05
918.944	304.42
919.318	302.08
919.692	339.52
920.065	276.33
920.438	306.76
920.812	278.67
921.185	332.5
921.558	252.92
921.932	334.84
922.305	288.03
922.678	297.39
923.051	320.8
923.424	313.78
923.797	259.95
924.17	269.31
924.542	344.21
924.915	285.69
925.288	306.76
925.661	259.95
926.033	236.54
926.406	250.58
926.778	344.21
927.15	372.29
927.523	344.21
927.895	327.82
928.267	306.76
928.639	302.08
929.011	311.44
929.383	297.39
929.755	318.46
930.127	325.48
930.499	295.05
930.871	271.65
931.242	311.44
931.614	304.42
931.986	297.39
932.357	320.8
932.729	304.42
933.1	341.86
933.471	353.57
933.843	306.76
934.214	252.92
934.585	316.12
934.956	288.03
935.327	330.16
935.698	316.12
936.069	224.84
936.44	288.03
936.811	311.44
937.182	332.5
937.552	297.39
937.923	313.78
938.293	292.71
938.664	295.05
939.034	316.12
939.405	367.61
939.775	334.84
940.145	281.01
940.516	325.48
940.886	362.93
941.256	295.05
941.626	273.99
941.996	248.24
942.366	302.08
942.735	334.84
943.105	334.84
943.475	341.86
943.845	269.31
944.214	290.37
944.584	302.08
944.953	339.52
945.323	358.25
945.692	344.21
946.061	281.01
946.43	318.46
946.8	285.69
947.169	360.59
947.538	344.21
947.907	248.24
948.276	327.82
948.645	302.08
949.013	306.76
949.382	292.71
949.751	245.9
950.119	257.61
950.488	318.46
950.857	283.35
951.225	341.86
951.593	327.82
951.962	325.48
952.33	299.73
952.698	327.82
953.066	283.35
953.434	323.14
953.802	311.44
954.17	313.78
954.538	323.14
954.906	285.69
955.274	273.99
955.642	337.18
956.009	325.48
956.377	292.71
956.744	264.63
957.112	257.61
957.479	295.05
957.847	316.12
958.214	276.33
958.581	313.78
958.948	316.12
959.315	288.03
959.683	288.03
960.05	264.63
960.416	339.52
960.783	288.03
961.15	264.63
961.517	367.61
961.884	332.5
962.25	346.55
962.617	269.31
962.983	271.65
963.35	365.27
963.716	330.16
964.082	341.86
964.449	297.39
964.815	313.78
965.181	341.86
965.547	262.29
965.913	273.99
966.279	334.84
966.645	325.48
967.011	316.12
967.377	276.33
967.742	266.97
968.108	330.16
968.474	330.16
968.839	278.67
969.205	241.22
969.57	316.12
969.935	304.42
970.301	304.42
970.666	283.35
971.031	320.8
971.396	325.48
971.761	245.9
972.126	283.35
972.491	252.92
972.856	309.1
973.221	344.21
973.586	290.37
973.95	309.1
974.315	332.5
974.679	262.29
975.044	386.33
975.408	313.78
975.773	304.42
976.137	292.71
976.501	309.1
976.866	295.05
977.23	320.8
977.594	283.35
977.958	295.05
978.322	341.86
978.686	273.99
979.049	290.37
979.413	313.78
979.777	316.12
980.141	325.48
980.504	337.18
980.868	295.05
981.231	292.71
981.595	297.39
981.958	362.93
982.321	295.05
982.684	316.12
983.048	295.05
983.411	362.93
983.774	405.06
984.137	316.12
984.5	330.16
984.862	306.76
985.225	334.84
985.588	304.42
985.951	259.95
986.313	318.46
986.676	334.84
987.038	320.8
987.401	334.84
987.763	283.35
988.125	309.1
988.488	330.16
988.85	323.14
989.212	339.52
989.574	281.01
989.936	313.78
990.298	309.1
990.66	362.93
991.022	285.69
991.383	313.78
991.745	320.8
992.107	295.05
992.468	283.35
992.83	283.35
993.191	316.12
993.553	290.37
993.914	288.03
994.275	365.27
994.637	360.59
994.998	283.35
995.359	281.01
995.72	320.8
996.081	285.69
996.442	330.16
996.803	327.82
997.163	360.59
997.524	295.05
997.885	297.39
998.245	313.78
998.606	262.29
998.966	288.03
999.327	292.71
999.687	255.26
1000.047	269.31
1000.408	355.91
1000.768	269.31
1001.128	323.14
1001.488	304.42
1001.848	311.44
1002.208	309.1
1002.568	330.16
1002.927	283.35
1003.287	269.31
1003.647	318.46
1004.007	365.27
1004.366	332.5
1004.726	332.5
1005.085	306.76
1005.444	281.01
1005.804	309.1
1006.163	325.48
1006.522	330.16
1006.881	306.76
1007.24	318.46
1007.599	220.16
1007.958	334.84
1008.317	295.05
1008.676	339.52
1009.035	341.86
1009.393	311.44
1009.752	255.26
1010.111	255.26
1010.469	271.65
1010.828	278.67
1011.186	337.18
1011.544	332.5
1011.903	351.23
1012.261	313.78
1012.619	273.99
1012.977	271.65
1013.335	348.89
1013.693	292.71
1014.051	278.67
1014.409	238.88
1014.767	309.1
1015.124	346.55
1015.482	309.1
1015.84	288.03
1016.197	302.08
1016.555	318.46
1016.912	369.95
1017.269	309.1
1017.627	353.57
1017.984	346.55
1018.341	304.42
1018.698	311.44
1019.055	276.33
1019.412	264.63
1019.769	341.86
1020.126	302.08
1020.483	412.08
1020.84	311.44
1021.196	309.1
1021.553	288.03
1021.909	299.73
1022.266	327.82
1022.622	323.14
1022.979	337.18
1023.335	367.61
1023.691	243.56
1024.047	379.31
1024.404	334.84
1024.76	276.33
1025.116	304.42
1025.472	346.55
1025.827	339.52
1026.183	386.33
1026.539	311.44
1026.895	330.16
1027.25	309.1
1027.606	327.82
1027.961	327.82
1028.317	360.59
1028.672	290.37
1029.028	304.42
1029.383	290.37
1029.738	266.97
1030.093	306.76
1030.448	276.33
1030.803	316.12
1031.158	313.78
1031.513	273.99
1031.868	330.16
1032.223	292.71
1032.577	245.9
1032.932	372.29
1033.287	327.82
1033.641	365.27
1033.996	337.18
1034.35	276.33
1034.704	316.12
1035.059	332.5
1035.413	238.88
1035.767	238.88
1036.121	238.88
