Data from Al_FLMS009871__1147__16-36-05-491.txt Node

Date: Fri Mar 08 16:36:05 CST 2024
User: pe5414po
Spectrometer: FLMS00987
Trigger mode: 0
Integration Time (sec): 1.000000E-1
Scans to average: 1
Electric dark correction enabled: true
Nonlinearity correction enabled: false
Boxcar width: 0
XAxis mode: Wavelengths
Number of Pixels in Spectrum: 2048
>>>>>Begin Spectral Data<<<<<
188.938	-93.33
189.409	-93.33
189.879	-93.33
190.349	-105.03
190.819	-86.31
191.29	-109.71
191.76	-135.46
192.23	-126.1
192.7	-119.07
193.17	-6.73
193.64	-32.47
194.109	-18.43
194.579	33.06
195.049	-4.39
195.519	-27.79
195.988	47.1
196.458	40.08
196.927	61.15
197.397	126.68
197.866	124.34
198.336	147.75
198.805	93.91
199.274	136.04
199.744	159.45
200.213	206.26
200.682	217.96
201.151	194.56
201.62	285.84
202.089	278.82
202.558	232.01
203.027	276.48
203.495	208.6
203.964	239.03
204.433	306.9
204.902	264.77
205.37	332.65
205.839	239.03
206.307	253.07
206.776	255.41
207.244	281.16
207.712	309.24
208.181	276.48
208.649	306.9
209.117	290.52
209.585	264.77
210.053	274.14
210.521	220.3
210.989	349.03
211.457	274.14
211.925	281.16
212.393	234.35
212.861	276.48
213.328	229.67
213.796	234.35
214.264	241.37
214.731	334.99
215.199	257.75
215.666	248.39
216.133	232.01
216.601	269.45
217.068	264.77
217.535	262.43
218.003	248.39
218.47	311.58
218.937	246.05
219.404	276.48
219.871	339.67
220.338	206.26
220.805	224.98
221.271	257.75
221.738	220.3
222.205	262.43
222.671	260.09
223.138	246.05
223.605	234.35
224.071	267.11
224.538	297.54
225.004	250.73
225.47	290.52
225.937	297.54
226.403	239.03
226.869	222.64
227.335	264.77
227.801	311.58
228.267	278.82
228.733	285.84
229.199	241.37
229.665	229.67
230.131	210.94
230.597	250.73
231.062	262.43
231.528	199.24
231.994	224.98
232.459	267.11
232.925	260.09
233.39	189.88
233.856	239.03
234.321	213.28
234.786	281.16
235.252	246.05
235.717	234.35
236.182	267.11
236.647	260.09
237.112	255.41
237.577	309.24
238.042	283.5
238.507	276.48
238.972	302.22
239.436	290.52
239.901	278.82
240.366	285.84
240.83	239.03
241.295	215.62
241.76	292.86
242.224	330.31
242.688	271.79
243.153	281.16
243.617	222.64
244.081	332.65
244.545	248.39
245.01	222.64
245.474	302.22
245.938	292.86
246.402	243.71
246.866	337.33
247.33	269.45
247.793	262.43
248.257	234.35
248.721	283.5
249.185	288.18
249.648	278.82
250.112	334.99
250.575	264.77
251.039	299.88
251.502	339.67
251.965	264.77
252.429	274.14
252.892	304.56
253.355	269.45
253.818	253.07
254.281	309.24
254.744	253.07
255.207	285.84
255.67	227.32
256.133	311.58
256.596	217.96
257.059	213.28
257.522	309.24
257.984	295.2
258.447	257.75
258.909	271.79
259.372	255.41
259.834	292.86
260.297	299.88
260.759	243.71
261.221	264.77
261.684	327.97
262.146	342.01
262.608	241.37
263.07	349.03
263.532	290.52
263.994	250.73
264.456	309.24
264.918	292.86
265.38	234.35
265.842	194.56
266.303	297.54
266.765	292.86
267.227	215.62
267.688	269.45
268.15	339.67
268.611	316.26
269.072	267.11
269.534	264.77
269.995	283.5
270.456	267.11
270.918	250.73
271.379	267.11
271.84	295.2
272.301	281.16
272.762	309.24
273.223	334.99
273.684	290.52
274.144	276.48
274.605	232.01
275.066	269.45
275.527	302.22
275.987	274.14
276.448	281.16
276.908	316.26
277.369	217.96
277.829	295.2
278.289	229.67
278.75	283.5
279.21	250.73
279.67	276.48
280.13	262.43
280.59	295.2
281.05	309.24
281.51	330.31
281.97	285.84
282.43	246.05
282.89	271.79
283.35	241.37
283.809	276.48
284.269	327.97
284.729	257.75
285.188	255.41
285.648	246.05
286.107	281.16
286.567	274.14
287.026	215.62
287.485	295.2
287.944	299.88
288.404	297.54
288.863	342.01
289.322	288.18
289.781	295.2
290.24	306.9
290.699	250.73
291.158	309.24
291.616	278.82
292.075	304.56
292.534	278.82
292.992	316.26
293.451	325.63
293.91	320.95
294.368	248.39
294.827	250.73
295.285	274.14
295.743	316.26
296.202	309.24
296.66	229.67
297.118	316.26
297.576	187.54
298.034	316.26
298.492	302.22
298.95	332.65
299.408	274.14
299.866	232.01
300.324	222.64
300.781	257.75
301.239	299.88
301.697	257.75
302.154	325.63
302.612	330.31
303.069	267.11
303.527	278.82
303.984	281.16
304.441	297.54
304.899	239.03
305.356	257.75
305.813	306.9
306.27	302.22
306.727	292.86
307.184	239.03
307.641	248.39
308.098	250.73
308.555	206.26
309.012	299.88
309.468	271.79
309.925	309.24
310.382	278.82
310.838	274.14
311.295	283.5
311.751	325.63
312.208	297.54
312.664	232.01
313.12	276.48
313.577	276.48
314.033	288.18
314.489	297.54
314.945	241.37
315.401	309.24
315.857	267.11
316.313	264.77
316.769	236.69
317.225	278.82
317.681	283.5
318.136	271.79
318.592	309.24
319.048	318.61
319.503	330.31
319.959	323.29
320.414	311.58
320.869	260.09
321.325	325.63
321.78	313.92
322.235	337.33
322.691	309.24
323.146	232.01
323.601	316.26
324.056	304.56
324.511	297.54
324.966	306.9
325.421	255.41
325.875	250.73
326.33	290.52
326.785	316.26
327.24	260.09
327.694	285.84
328.149	278.82
328.603	283.5
329.058	297.54
329.512	269.45
329.966	374.78
330.421	297.54
330.875	309.24
331.329	344.35
331.783	302.22
332.237	302.22
332.691	292.86
333.145	278.82
333.599	330.31
334.053	281.16
334.507	332.65
334.96	295.2
335.414	311.58
335.868	276.48
336.321	292.86
336.775	243.71
337.228	313.92
337.682	271.79
338.135	267.11
338.588	281.16
339.042	334.99
339.495	351.37
339.948	316.26
340.401	285.84
340.854	236.69
341.307	320.95
341.76	215.62
342.213	269.45
342.666	318.61
343.119	281.16
343.571	267.11
344.024	334.99
344.477	316.26
344.929	339.67
345.382	363.08
345.834	313.92
346.287	274.14
346.739	269.45
347.191	267.11
347.644	288.18
348.096	281.16
348.548	299.88
349	320.95
349.452	342.01
349.904	330.31
350.356	316.26
350.808	246.05
351.26	253.07
351.711	281.16
352.163	309.24
352.615	297.54
353.066	267.11
353.518	306.9
353.969	274.14
354.421	283.5
354.872	264.77
355.324	295.2
355.775	278.82
356.226	257.75
356.677	295.2
357.128	267.11
357.579	290.52
358.03	227.32
358.481	281.16
358.932	262.43
359.383	281.16
359.834	269.45
360.285	271.79
360.735	236.69
361.186	297.54
361.637	339.67
362.087	269.45
362.538	330.31
362.988	327.97
363.438	311.58
363.889	234.35
364.339	358.39
364.789	271.79
365.239	255.41
365.689	337.33
366.139	302.22
366.589	323.29
367.039	288.18
367.489	309.24
367.939	311.58
368.389	318.61
368.839	313.92
369.288	288.18
369.738	320.95
370.187	285.84
370.637	250.73
371.086	323.29
371.536	344.35
371.985	309.24
372.434	262.43
372.884	325.63
373.333	337.33
373.782	297.54
374.231	297.54
374.68	419.25
375.129	325.63
375.578	297.54
376.027	288.18
376.475	330.31
376.924	311.58
377.373	344.35
377.822	292.86
378.27	246.05
378.719	290.52
379.167	271.79
379.616	269.45
380.064	323.29
380.512	304.56
380.961	320.95
381.409	288.18
381.857	274.14
382.305	327.97
382.753	267.11
383.201	295.2
383.649	367.76
384.097	323.29
384.545	302.22
384.992	295.2
385.44	332.65
385.888	304.56
386.335	271.79
386.783	318.61
387.231	285.84
387.678	313.92
388.125	257.75
388.573	236.69
389.02	260.09
389.467	290.52
389.914	178.17
390.362	299.88
390.809	318.61
391.256	306.9
391.703	283.5
392.15	381.8
392.596	297.54
393.043	302.22
393.49	288.18
393.937	285.84
394.383	274.14
394.83	292.86
395.276	220.3
395.723	274.14
396.169	309.24
396.616	299.88
397.062	267.11
397.508	299.88
397.954	253.07
398.401	302.22
398.847	306.9
399.293	281.16
399.739	306.9
400.185	264.77
400.631	295.2
401.076	283.5
401.522	334.99
401.968	320.95
402.414	342.01
402.859	332.65
403.305	257.75
403.75	288.18
404.196	304.56
404.641	281.16
405.086	295.2
405.532	285.84
405.977	232.01
406.422	299.88
406.867	283.5
407.312	285.84
407.757	295.2
408.202	274.14
408.647	339.67
409.092	351.37
409.537	318.61
409.982	318.61
410.426	253.07
410.871	346.69
411.316	309.24
411.76	283.5
412.205	311.58
412.649	278.82
413.093	274.14
413.538	316.26
413.982	313.92
414.426	309.24
414.87	269.45
415.314	323.29
415.758	264.77
416.202	262.43
416.646	320.95
417.09	297.54
417.534	346.69
417.978	267.11
418.421	405.21
418.865	304.56
419.309	241.37
419.752	260.09
420.196	318.61
420.639	370.1
421.083	313.92
421.526	334.99
421.969	250.73
422.412	320.95
422.856	257.75
423.299	290.52
423.742	260.09
424.185	288.18
424.628	276.48
425.071	239.03
425.513	288.18
425.956	320.95
426.399	330.31
426.842	318.61
427.284	370.1
427.727	283.5
428.169	327.97
428.612	384.14
429.054	297.54
429.497	253.07
429.939	318.61
430.381	269.45
430.823	297.54
431.265	311.58
431.707	297.54
432.149	217.96
432.591	250.73
433.033	320.95
433.475	271.79
433.917	288.18
434.359	356.05
434.8	363.08
435.242	276.48
435.684	264.77
436.125	283.5
436.567	292.86
437.008	320.95
437.449	267.11
437.891	313.92
438.332	356.05
438.773	281.16
439.214	313.92
439.656	304.56
440.097	332.65
440.538	255.41
440.978	344.35
441.419	332.65
441.86	253.07
442.301	299.88
442.742	337.33
443.182	353.71
443.623	342.01
444.063	278.82
444.504	330.31
444.944	381.8
445.385	288.18
445.825	281.16
446.265	255.41
446.706	332.65
447.146	302.22
447.586	292.86
448.026	316.26
448.466	346.69
448.906	323.29
449.346	318.61
449.786	262.43
450.225	292.86
450.665	344.35
451.105	323.29
451.544	353.71
451.984	302.22
452.424	337.33
452.863	330.31
453.302	327.97
453.742	302.22
454.181	318.61
454.62	325.63
455.059	257.75
455.499	325.63
455.938	384.14
456.377	316.26
456.816	316.26
457.254	295.2
457.693	278.82
458.132	250.73
458.571	320.95
459.01	292.86
459.448	332.65
459.887	339.67
460.325	330.31
460.764	290.52
461.202	318.61
461.641	346.69
462.079	346.69
462.517	271.79
462.955	297.54
463.393	288.18
463.832	372.44
464.27	255.41
464.708	283.5
465.145	292.86
465.583	236.69
466.021	316.26
466.459	267.11
466.897	262.43
467.334	351.37
467.772	304.56
468.209	283.5
468.647	299.88
469.084	306.9
469.522	257.75
469.959	313.92
470.396	337.33
470.833	325.63
471.271	278.82
471.708	295.2
472.145	285.84
472.582	274.14
473.019	311.58
473.456	311.58
473.892	262.43
474.329	299.88
474.766	337.33
475.202	220.3
475.639	309.24
476.076	349.03
476.512	269.45
476.949	288.18
477.385	342.01
477.821	325.63
478.258	281.16
478.694	363.08
479.13	302.22
479.566	327.97
480.002	274.14
480.438	353.71
480.874	325.63
481.31	281.16
481.746	288.18
482.181	327.97
482.617	255.41
483.053	283.5
483.488	325.63
483.924	297.54
484.36	334.99
484.795	309.24
485.23	276.48
485.666	316.26
486.101	222.64
486.536	302.22
486.971	292.86
487.407	332.65
487.842	349.03
488.277	306.9
488.712	281.16
489.146	332.65
489.581	318.61
490.016	337.33
490.451	274.14
490.885	353.71
491.32	304.56
491.755	311.58
492.189	297.54
492.624	271.79
493.058	311.58
493.492	299.88
493.927	271.79
494.361	274.14
494.795	269.45
495.229	285.84
495.663	264.77
496.097	292.86
496.531	309.24
496.965	306.9
497.399	313.92
497.833	281.16
498.266	299.88
498.7	320.95
499.134	292.86
499.567	304.56
500.001	320.95
500.434	255.41
500.868	327.97
501.301	285.84
501.734	304.56
502.168	327.97
502.601	323.29
503.034	283.5
503.467	295.2
503.9	295.2
504.333	330.31
504.766	299.88
505.199	332.65
505.632	271.79
506.064	337.33
506.497	309.24
506.93	302.22
507.362	342.01
507.795	255.41
508.227	311.58
508.66	297.54
509.092	271.79
509.524	201.58
509.956	360.74
510.389	309.24
510.821	349.03
511.253	311.58
511.685	332.65
512.117	313.92
512.549	349.03
512.981	299.88
513.412	342.01
513.844	295.2
514.276	299.88
514.707	360.74
515.139	269.45
515.571	304.56
516.002	318.61
516.433	288.18
516.865	346.69
517.296	288.18
517.727	276.48
518.159	278.82
518.59	278.82
519.021	283.5
519.452	250.73
519.883	285.84
520.314	358.39
520.744	349.03
521.175	271.79
521.606	302.22
522.037	351.37
522.467	271.79
522.898	267.11
523.328	339.67
523.759	332.65
524.189	313.92
524.62	316.26
525.05	281.16
525.48	290.52
525.91	248.39
526.341	346.69
526.771	358.39
527.201	288.18
527.631	330.31
528.061	276.48
528.49	302.22
528.92	323.29
529.35	260.09
529.78	285.84
530.209	299.88
530.639	290.52
531.068	304.56
531.498	292.86
531.927	351.37
532.357	320.95
532.786	330.31
533.215	243.71
533.644	257.75
534.074	318.61
534.503	318.61
534.932	290.52
535.361	278.82
535.79	313.92
536.218	306.9
536.647	278.82
537.076	297.54
537.505	302.22
537.933	327.97
538.362	227.32
538.79	325.63
539.219	330.31
539.647	299.88
540.076	311.58
540.504	276.48
540.932	288.18
541.36	318.61
541.788	274.14
542.217	248.39
542.645	356.05
543.073	330.31
543.5	278.82
543.928	304.56
544.356	356.05
544.784	274.14
545.211	318.61
545.639	246.05
546.067	332.65
546.494	325.63
546.922	356.05
547.349	311.58
547.776	271.79
548.204	299.88
548.631	288.18
549.058	306.9
549.485	337.33
549.912	311.58
550.339	339.67
550.766	241.37
551.193	255.41
551.62	306.9
552.047	379.46
552.474	313.92
552.9	278.82
553.327	290.52
553.754	288.18
554.18	290.52
554.607	337.33
555.033	391.16
555.459	311.58
555.886	367.76
556.312	344.35
556.738	320.95
557.164	302.22
557.59	323.29
558.016	281.16
558.442	320.95
558.868	267.11
559.294	253.07
559.72	215.62
560.145	292.86
560.571	304.56
560.997	309.24
561.422	306.9
561.848	302.22
562.273	295.2
562.699	318.61
563.124	316.26
563.549	330.31
563.974	276.48
564.4	304.56
564.825	278.82
565.25	297.54
565.675	332.65
566.1	351.37
566.525	313.92
566.95	269.45
567.374	260.09
567.799	370.1
568.224	360.74
568.648	295.2
569.073	353.71
569.497	395.84
569.922	243.71
570.346	285.84
570.771	346.69
571.195	320.95
571.619	253.07
572.043	283.5
572.467	318.61
572.891	302.22
573.315	290.52
573.739	306.9
574.163	290.52
574.587	297.54
575.011	295.2
575.435	297.54
575.858	325.63
576.282	316.26
576.705	232.01
577.129	304.56
577.552	297.54
577.976	334.99
578.399	316.26
578.822	330.31
579.245	299.88
579.669	269.45
580.092	344.35
580.515	344.35
580.938	290.52
581.361	325.63
581.784	232.01
582.206	213.28
582.629	260.09
583.052	292.86
583.474	334.99
583.897	311.58
584.32	269.45
584.742	302.22
585.165	313.92
585.587	325.63
586.009	276.48
586.431	325.63
586.854	342.01
587.276	295.2
587.698	278.82
588.12	281.16
588.542	320.95
588.964	313.92
589.386	356.05
589.807	339.67
590.229	320.95
590.651	276.48
591.073	332.65
591.494	339.67
591.916	342.01
592.337	281.16
592.759	295.2
593.18	346.69
593.601	318.61
594.022	309.24
594.444	274.14
594.865	342.01
595.286	311.58
595.707	344.35
596.128	260.09
596.549	313.92
596.97	304.56
597.39	318.61
597.811	264.77
598.232	278.82
598.652	257.75
599.073	313.92
599.494	330.31
599.914	290.52
600.334	255.41
600.755	332.65
601.175	304.56
601.595	318.61
602.015	264.77
602.436	299.88
602.856	463.72
603.276	365.42
603.696	269.45
604.115	309.24
604.535	344.35
604.955	309.24
605.375	297.54
605.794	302.22
606.214	353.71
606.634	339.67
607.053	320.95
607.473	344.35
607.892	337.33
608.311	302.22
608.731	318.61
609.15	243.71
609.569	283.5
609.988	320.95
610.407	346.69
610.826	278.82
611.245	358.39
611.664	346.69
612.083	299.88
612.501	269.45
612.92	292.86
613.339	309.24
613.757	349.03
614.176	377.12
614.594	264.77
615.013	271.79
615.431	264.77
615.85	243.71
616.268	323.29
616.686	295.2
617.104	222.64
617.522	267.11
617.94	311.58
618.358	276.48
618.776	229.67
619.194	297.54
619.612	351.37
620.03	318.61
620.447	351.37
620.865	370.1
621.282	264.77
621.7	271.79
622.117	288.18
622.535	239.03
622.952	346.69
623.369	285.84
623.787	269.45
624.204	297.54
624.621	295.2
625.038	278.82
625.455	309.24
625.872	302.22
626.289	292.86
626.706	360.74
627.123	292.86
627.539	316.26
627.956	304.56
628.373	253.07
628.789	332.65
629.206	262.43
629.622	344.35
630.038	267.11
630.455	306.9
630.871	281.16
631.287	306.9
631.703	311.58
632.12	304.56
632.536	325.63
632.952	297.54
633.368	283.5
633.783	304.56
634.199	248.39
634.615	274.14
635.031	311.58
635.446	356.05
635.862	299.88
636.277	304.56
636.693	281.16
637.108	342.01
637.524	316.26
637.939	353.71
638.354	224.98
638.77	367.76
639.185	332.65
639.6	292.86
640.015	302.22
640.43	344.35
640.845	299.88
641.259	318.61
641.674	342.01
642.089	327.97
642.504	339.67
642.918	344.35
643.333	269.45
643.747	267.11
644.162	395.84
644.576	327.97
644.991	297.54
645.405	302.22
645.819	332.65
646.233	262.43
646.647	213.28
647.061	246.05
647.475	327.97
647.889	271.79
648.303	297.54
648.717	278.82
649.131	304.56
649.545	297.54
649.958	297.54
650.372	288.18
650.785	325.63
651.199	313.92
651.612	372.44
652.026	297.54
652.439	330.31
652.852	311.58
653.266	346.69
653.679	264.77
654.092	344.35
654.505	342.01
654.918	290.52
655.331	292.86
655.744	309.24
656.156	311.58
656.569	276.48
656.982	264.77
657.394	356.05
657.807	330.31
658.22	346.69
658.632	257.75
659.044	370.1
659.457	334.99
659.869	313.92
660.281	278.82
660.693	239.03
661.106	332.65
661.518	311.58
661.93	327.97
662.342	320.95
662.754	313.92
663.165	243.71
663.577	309.24
663.989	419.25
664.401	234.35
664.812	290.52
665.224	316.26
665.635	246.05
666.047	297.54
666.458	288.18
666.869	311.58
667.281	297.54
667.692	393.5
668.103	311.58
668.514	311.58
668.925	267.11
669.336	316.26
669.747	269.45
670.158	313.92
670.569	309.24
670.979	281.16
671.39	302.22
671.801	302.22
672.211	351.37
672.622	232.01
673.032	334.99
673.443	360.74
673.853	304.56
674.263	276.48
674.674	241.37
675.084	330.31
675.494	388.82
675.904	248.39
676.314	332.65
676.724	292.86
677.134	248.39
677.544	318.61
677.953	346.69
678.363	337.33
678.773	346.69
679.182	285.84
679.592	246.05
680.001	302.22
680.411	320.95
680.82	344.35
681.23	271.79
681.639	281.16
682.048	337.33
682.457	323.29
682.866	288.18
683.275	306.9
683.684	325.63
684.093	274.14
684.502	276.48
684.911	278.82
685.32	217.96
685.728	302.22
686.137	295.2
686.546	318.61
686.954	306.9
687.363	299.88
687.771	276.48
688.179	309.24
688.588	334.99
688.996	306.9
689.404	283.5
689.812	365.42
690.22	334.99
690.628	316.26
691.036	283.5
691.444	318.61
691.852	311.58
692.26	283.5
692.667	297.54
693.075	196.9
693.483	325.63
693.89	323.29
694.298	351.37
694.705	339.67
695.112	260.09
695.52	222.64
695.927	309.24
696.334	299.88
696.741	309.24
697.148	274.14
697.555	320.95
697.962	278.82
698.369	297.54
698.776	246.05
699.183	285.84
699.59	337.33
699.996	306.9
700.403	349.03
700.81	309.24
701.216	285.84
701.623	349.03
702.029	278.82
702.435	253.07
702.842	306.9
703.248	299.88
703.654	309.24
704.06	278.82
704.466	297.54
704.872	297.54
705.278	320.95
705.684	246.05
706.09	344.35
706.496	334.99
706.901	283.5
707.307	356.05
707.712	304.56
708.118	288.18
708.523	358.39
708.929	281.16
709.334	377.12
709.74	285.84
710.145	213.28
710.55	323.29
710.955	311.58
711.36	346.69
711.765	290.52
712.17	292.86
712.575	239.03
712.98	810.12
713.385	330.31
713.789	264.77
714.194	299.88
714.599	290.52
715.003	351.37
715.408	224.98
715.812	276.48
716.217	330.31
716.621	250.73
717.025	271.79
717.429	269.45
717.833	243.71
718.238	271.79
718.642	264.77
719.046	330.31
719.449	236.69
719.853	292.86
720.257	255.41
720.661	262.43
721.065	342.01
721.468	243.71
721.872	299.88
722.275	342.01
722.679	349.03
723.082	271.79
723.485	297.54
723.889	311.58
724.292	360.74
724.695	309.24
725.098	311.58
725.501	330.31
725.904	337.33
726.307	290.52
726.71	283.5
727.113	295.2
727.516	290.52
727.918	306.9
728.321	316.26
728.724	285.84
729.126	257.75
729.529	334.99
729.931	311.58
730.333	316.26
730.736	360.74
731.138	248.39
731.54	344.35
731.942	276.48
732.344	325.63
732.746	323.29
733.148	290.52
733.55	330.31
733.952	285.84
734.354	255.41
734.756	285.84
735.157	297.54
735.559	276.48
735.96	299.88
736.362	229.67
736.763	346.69
737.165	363.08
737.566	356.05
737.967	306.9
738.368	295.2
738.77	208.6
739.171	344.35
739.572	250.73
739.973	349.03
740.374	295.2
740.774	323.29
741.175	306.9
741.576	232.01
741.977	337.33
742.377	281.16
742.778	285.84
743.178	278.82
743.579	283.5
743.979	269.45
744.379	311.58
744.78	318.61
745.18	372.44
745.58	309.24
745.98	274.14
746.38	290.52
746.78	330.31
747.18	297.54
747.58	288.18
747.98	332.65
748.38	288.18
748.779	332.65
749.179	260.09
749.578	269.45
749.978	290.52
750.377	316.26
750.777	262.43
751.176	292.86
751.575	250.73
751.975	320.95
752.374	316.26
752.773	213.28
753.172	281.16
753.571	269.45
753.97	295.2
754.369	250.73
754.768	325.63
755.166	274.14
755.565	288.18
755.964	290.52
756.362	292.86
756.761	330.31
757.159	323.29
757.558	260.09
757.956	306.9
758.354	313.92
758.753	234.35
759.151	257.75
759.549	311.58
759.947	288.18
760.345	313.92
760.743	297.54
761.141	327.97
761.539	351.37
761.936	297.54
762.334	398.18
762.732	334.99
763.129	320.95
763.527	248.39
763.924	292.86
764.322	295.2
764.719	264.77
765.117	313.92
765.514	299.88
765.911	318.61
766.308	309.24
766.705	318.61
767.102	332.65
767.499	311.58
767.896	260.09
768.293	264.77
768.69	311.58
769.086	313.92
769.483	318.61
769.88	255.41
770.276	332.65
770.673	332.65
771.069	337.33
771.466	306.9
771.862	327.97
772.258	360.74
772.654	346.69
773.05	349.03
773.447	264.77
773.843	339.67
774.239	299.88
774.634	241.37
775.03	253.07
775.426	267.11
775.822	290.52
776.218	372.44
776.613	311.58
777.009	246.05
777.404	285.84
777.8	297.54
778.195	278.82
778.59	323.29
778.986	267.11
779.381	281.16
779.776	288.18
780.171	316.26
780.566	262.43
780.961	290.52
781.356	320.95
781.751	306.9
782.146	302.22
782.54	316.26
782.935	316.26
783.33	234.35
783.724	250.73
784.119	299.88
784.513	377.12
784.908	283.5
785.302	246.05
785.696	278.82
786.09	278.82
786.485	253.07
786.879	234.35
787.273	342.01
787.667	260.09
788.061	330.31
788.454	278.82
788.848	250.73
789.242	285.84
789.636	320.95
790.029	318.61
790.423	320.95
790.816	306.9
791.21	262.43
791.603	313.92
791.997	325.63
792.39	248.39
792.783	255.41
793.176	278.82
793.569	337.33
793.962	325.63
794.355	309.24
794.748	299.88
795.141	325.63
795.534	339.67
795.927	278.82
796.319	339.67
796.712	306.9
797.105	325.63
797.497	276.48
797.89	255.41
798.282	346.69
798.674	339.67
799.067	311.58
799.459	271.79
799.851	295.2
800.243	349.03
800.635	267.11
801.027	253.07
801.419	320.95
801.811	285.84
802.203	271.79
802.594	356.05
802.986	227.32
803.378	276.48
803.769	257.75
804.161	306.9
804.552	264.77
804.944	299.88
805.335	271.79
805.726	257.75
806.118	320.95
806.509	281.16
806.9	274.14
807.291	302.22
807.682	267.11
808.073	351.37
808.464	320.95
808.855	313.92
809.245	224.98
809.636	281.16
810.027	295.2
810.417	370.1
810.808	304.56
811.198	222.64
811.589	292.86
811.979	271.79
812.369	299.88
812.759	327.97
813.15	320.95
813.54	290.52
813.93	349.03
814.32	302.22
814.71	306.9
815.1	323.29
815.489	292.86
815.879	248.39
816.269	309.24
816.658	320.95
817.048	304.56
817.438	332.65
817.827	253.07
818.216	260.09
818.606	276.48
818.995	327.97
819.384	271.79
819.773	269.45
820.163	367.76
820.552	262.43
820.941	311.58
821.33	288.18
821.718	260.09
822.107	295.2
822.496	297.54
822.885	267.11
823.273	283.5
823.662	264.77
824.05	276.48
824.439	232.01
824.827	318.61
825.216	295.2
825.604	229.67
825.992	262.43
826.38	353.71
826.768	278.82
827.156	295.2
827.544	332.65
827.932	330.31
828.32	269.45
828.708	297.54
829.096	342.01
829.483	327.97
829.871	299.88
830.259	330.31
830.646	330.31
831.034	257.75
831.421	288.18
831.808	311.58
832.196	299.88
832.583	257.75
832.97	299.88
833.357	297.54
833.744	304.56
834.131	278.82
834.518	285.84
834.905	306.9
835.292	334.99
835.678	234.35
836.065	278.82
836.452	327.97
836.838	278.82
837.225	269.45
837.611	311.58
837.998	292.86
838.384	358.39
838.77	311.58
839.157	297.54
839.543	318.61
839.929	253.07
840.315	351.37
840.701	290.52
841.087	288.18
841.473	278.82
841.858	320.95
842.244	360.74
842.63	311.58
843.015	334.99
843.401	344.35
843.787	342.01
844.172	215.62
844.557	276.48
844.943	283.5
845.328	255.41
845.713	323.29
846.098	306.9
846.483	299.88
846.868	299.88
847.253	276.48
847.638	299.88
848.023	316.26
848.408	250.73
848.793	306.9
849.177	295.2
849.562	320.95
849.947	194.56
850.331	344.35
850.715	334.99
851.1	337.33
851.484	290.52
851.868	250.73
852.253	264.77
852.637	255.41
853.021	278.82
853.405	246.05
853.789	297.54
854.173	323.29
854.557	290.52
854.94	316.26
855.324	309.24
855.708	278.82
856.091	248.39
856.475	292.86
856.858	241.37
857.242	292.86
857.625	297.54
858.009	309.24
858.392	276.48
858.775	334.99
859.158	281.16
859.541	302.22
859.924	264.77
860.307	342.01
860.69	344.35
861.073	288.18
861.456	276.48
861.838	295.2
862.221	365.42
862.604	250.73
862.986	316.26
863.369	267.11
863.751	290.52
864.133	302.22
864.516	297.54
864.898	316.26
865.28	370.1
865.662	358.39
866.044	271.79
866.426	283.5
866.808	264.77
867.19	323.29
867.572	285.84
867.954	283.5
868.336	290.52
868.717	281.16
869.099	234.35
869.48	337.33
869.862	257.75
870.243	297.54
870.625	274.14
871.006	278.82
871.387	325.63
871.768	290.52
872.149	264.77
872.53	290.52
872.911	269.45
873.292	283.5
873.673	264.77
874.054	327.97
874.435	283.5
874.815	320.95
875.196	295.2
875.577	299.88
875.957	292.86
876.338	267.11
876.718	290.52
877.098	271.79
877.479	241.37
877.859	304.56
878.239	318.61
878.619	264.77
878.999	278.82
879.379	316.26
879.759	257.75
880.139	325.63
880.519	327.97
880.898	292.86
881.278	264.77
881.658	323.29
882.037	222.64
882.417	330.31
882.796	304.56
883.176	304.56
883.555	290.52
883.934	288.18
884.313	229.67
884.693	257.75
885.072	285.84
885.451	269.45
885.83	269.45
886.209	318.61
886.587	323.29
886.966	384.14
887.345	306.9
887.724	264.77
888.102	311.58
888.481	267.11
888.859	302.22
889.238	264.77
889.616	253.07
889.994	290.52
890.373	318.61
890.751	323.29
891.129	304.56
891.507	213.28
891.885	334.99
892.263	316.26
892.641	323.29
893.019	243.71
893.396	297.54
893.774	260.09
894.152	269.45
894.529	299.88
894.907	288.18
895.284	274.14
895.662	283.5
896.039	283.5
896.416	297.54
896.794	241.37
897.171	267.11
897.548	285.84
897.925	309.24
898.302	260.09
898.679	260.09
899.056	290.52
899.433	224.98
899.809	283.5
900.186	334.99
900.563	316.26
900.939	288.18
901.316	320.95
901.692	295.2
902.069	278.82
902.445	339.67
902.821	264.77
903.197	267.11
903.574	299.88
903.95	344.35
904.326	253.07
904.702	290.52
905.078	309.24
905.454	320.95
905.829	288.18
906.205	302.22
906.581	269.45
906.956	306.9
907.332	267.11
907.707	311.58
908.083	318.61
908.458	246.05
908.833	255.41
909.209	309.24
909.584	281.16
909.959	250.73
910.334	285.84
910.709	323.29
911.084	302.22
911.459	325.63
911.834	278.82
912.209	309.24
912.583	290.52
912.958	276.48
913.333	292.86
913.707	269.45
914.082	349.03
914.456	278.82
914.83	262.43
915.205	295.2
915.579	292.86
915.953	262.43
916.327	227.32
916.701	274.14
917.075	239.03
917.449	313.92
917.823	260.09
918.197	346.69
918.571	356.05
918.944	290.52
919.318	271.79
919.692	316.26
920.065	297.54
920.438	297.54
920.812	274.14
921.185	288.18
921.558	260.09
921.932	320.95
922.305	274.14
922.678	309.24
923.051	292.86
923.424	292.86
923.797	271.79
924.17	285.84
924.542	320.95
924.915	248.39
925.288	271.79
925.661	255.41
926.033	262.43
926.406	271.79
926.778	243.71
927.15	292.86
927.523	276.48
927.895	292.86
928.267	274.14
928.639	330.31
929.011	299.88
929.383	248.39
929.755	323.29
930.127	295.2
930.499	243.71
930.871	274.14
931.242	370.1
931.614	267.11
931.986	323.29
932.357	320.95
932.729	229.67
933.1	281.16
933.471	271.79
933.843	267.11
934.214	271.79
934.585	332.65
934.956	260.09
935.327	288.18
935.698	318.61
936.069	278.82
936.44	304.56
936.811	227.32
937.182	306.9
937.552	255.41
937.923	227.32
938.293	262.43
938.664	299.88
939.034	339.67
939.405	248.39
939.775	318.61
940.145	292.86
940.516	189.88
940.886	342.01
941.256	281.16
941.626	288.18
941.996	351.37
942.366	304.56
942.735	262.43
943.105	316.26
943.475	292.86
943.845	243.71
944.214	332.65
944.584	241.37
944.953	250.73
945.323	295.2
945.692	227.32
946.061	295.2
946.43	283.5
946.8	353.71
947.169	257.75
947.538	290.52
947.907	323.29
948.276	304.56
948.645	377.12
949.013	299.88
949.382	278.82
949.751	271.79
950.119	323.29
950.488	271.79
950.857	302.22
951.225	297.54
951.593	274.14
951.962	285.84
952.33	288.18
952.698	327.97
953.066	255.41
953.434	313.92
953.802	271.79
954.17	250.73
954.538	330.31
954.906	327.97
955.274	295.2
955.642	325.63
956.009	297.54
956.377	323.29
956.744	269.45
957.112	309.24
957.479	325.63
957.847	278.82
958.214	309.24
958.581	283.5
958.948	260.09
959.315	250.73
959.683	269.45
960.05	264.77
960.416	257.75
960.783	260.09
961.15	264.77
961.517	316.26
961.884	313.92
962.25	281.16
962.617	311.58
962.983	332.65
963.35	297.54
963.716	318.61
964.082	349.03
964.449	295.2
964.815	295.2
965.181	292.86
965.547	353.71
965.913	248.39
966.279	295.2
966.645	206.26
967.011	295.2
967.377	283.5
967.742	271.79
968.108	262.43
968.474	288.18
968.839	267.11
969.205	285.84
969.57	269.45
969.935	260.09
970.301	297.54
970.666	309.24
971.031	276.48
971.396	339.67
971.761	250.73
972.126	292.86
972.491	306.9
972.856	262.43
973.221	276.48
973.586	278.82
973.95	276.48
974.315	264.77
974.679	292.86
975.044	313.92
975.408	311.58
975.773	239.03
976.137	253.07
976.501	224.98
976.866	281.16
977.23	346.69
977.594	295.2
977.958	325.63
978.322	288.18
978.686	330.31
979.049	260.09
979.413	281.16
979.777	311.58
980.141	283.5
980.504	318.61
980.868	274.14
981.231	264.77
981.595	248.39
981.958	290.52
982.321	349.03
982.684	224.98
983.048	276.48
983.411	285.84
983.774	320.95
984.137	271.79
984.5	278.82
984.862	309.24
985.225	379.46
985.588	243.71
985.951	283.5
986.313	349.03
986.676	311.58
987.038	342.01
987.401	302.22
987.763	285.84
988.125	318.61
988.488	210.94
988.85	267.11
989.212	267.11
989.574	290.52
989.936	278.82
990.298	313.92
990.66	299.88
991.022	243.71
991.383	358.39
991.745	325.63
992.107	262.43
992.468	288.18
992.83	381.8
993.191	318.61
993.553	358.39
993.914	260.09
994.275	320.95
994.637	260.09
994.998	264.77
995.359	304.56
995.72	302.22
996.081	281.16
996.442	283.5
996.803	276.48
997.163	281.16
997.524	337.33
997.885	353.71
998.245	267.11
998.606	248.39
998.966	283.5
999.327	311.58
999.687	292.86
1000.047	313.92
1000.408	281.16
1000.768	276.48
1001.128	267.11
1001.488	299.88
1001.848	295.2
1002.208	306.9
1002.568	271.79
1002.927	271.79
1003.287	292.86
1003.647	337.33
1004.007	306.9
1004.366	283.5
1004.726	264.77
1005.085	295.2
1005.444	306.9
1005.804	269.45
1006.163	234.35
1006.522	281.16
1006.881	309.24
1007.24	274.14
1007.599	283.5
1007.958	292.86
1008.317	306.9
1008.676	320.95
1009.035	295.2
1009.393	267.11
1009.752	351.37
1010.111	250.73
1010.469	342.01
1010.828	281.16
1011.186	271.79
1011.544	267.11
1011.903	217.96
1012.261	257.75
1012.619	316.26
1012.977	278.82
1013.335	299.88
1013.693	299.88
1014.051	299.88
1014.409	292.86
1014.767	292.86
1015.124	372.44
1015.482	325.63
1015.84	325.63
1016.197	243.71
1016.555	285.84
1016.912	302.22
1017.269	297.54
1017.627	292.86
1017.984	288.18
1018.341	370.1
1018.698	299.88
1019.055	330.31
1019.412	276.48
1019.769	306.9
1020.126	262.43
1020.483	334.99
1020.84	299.88
1021.196	299.88
1021.553	264.77
1021.909	283.5
1022.266	278.82
1022.622	325.63
1022.979	311.58
1023.335	309.24
1023.691	327.97
1024.047	246.05
1024.404	232.01
1024.76	281.16
1025.116	274.14
1025.472	320.95
1025.827	309.24
1026.183	325.63
1026.539	250.73
1026.895	290.52
1027.25	285.84
1027.606	302.22
1027.961	325.63
1028.317	250.73
1028.672	283.5
1029.028	295.2
1029.383	327.97
1029.738	278.82
1030.093	311.58
1030.448	327.97
1030.803	276.48
1031.158	320.95
1031.513	292.86
1031.868	313.92
1032.223	208.6
1032.577	313.92
1032.932	220.3
1033.287	327.97
1033.641	304.56
1033.996	234.35
1034.35	271.79
1034.704	285.84
1035.059	325.63
1035.413	327.97
1035.767	327.97
1036.121	327.97
