Data from Al_FLMS009871__1156__16-36-06-391.txt Node

Date: Fri Mar 08 16:36:06 CST 2024
User: pe5414po
Spectrometer: FLMS00987
Trigger mode: 0
Integration Time (sec): 1.000000E-1
Scans to average: 1
Electric dark correction enabled: true
Nonlinearity correction enabled: false
Boxcar width: 0
XAxis mode: Wavelengths
Number of Pixels in Spectrum: 2048
>>>>>Begin Spectral Data<<<<<
188.938	-123.46
189.409	-123.46
189.879	-123.46
190.349	-137.51
190.819	-144.53
191.29	-102.4
191.76	-118.78
192.23	-69.63
192.7	-67.29
193.17	-62.61
193.64	-41.54
194.109	-25.16
194.579	-1.76
195.049	5.27
195.519	21.65
195.988	91.87
196.458	49.74
196.927	56.76
197.397	40.37
197.866	166.76
198.336	56.76
198.805	129.31
199.274	126.97
199.744	129.31
200.213	150.38
200.682	173.78
201.151	206.55
201.62	241.66
202.089	253.36
202.558	244
203.027	222.94
203.495	225.28
203.964	272.09
204.433	258.04
204.902	314.22
205.37	346.98
205.839	309.54
206.307	281.45
206.776	297.83
207.244	358.69
207.712	286.13
208.181	267.41
208.649	290.81
209.117	267.41
209.585	302.51
210.053	279.11
210.521	241.66
210.989	206.55
211.457	297.83
211.925	241.66
212.393	276.77
212.861	244
213.328	234.64
213.796	244
214.264	300.17
214.731	283.79
215.199	295.49
215.666	244
216.133	276.77
216.601	229.96
217.068	222.94
217.535	265.07
218.003	192.51
218.47	218.25
218.937	283.79
219.404	206.55
219.871	269.75
220.338	288.47
220.805	265.07
221.271	302.51
221.738	253.36
222.205	281.45
222.671	304.85
223.138	251.02
223.605	222.94
224.071	248.68
224.538	281.45
225.004	283.79
225.47	295.49
225.937	253.36
226.403	251.02
226.869	262.73
227.335	279.11
227.801	251.02
228.267	281.45
228.733	220.6
229.199	234.64
229.665	267.41
230.131	295.49
230.597	258.04
231.062	265.07
231.528	295.49
231.994	251.02
232.459	330.6
232.925	260.38
233.39	213.57
233.856	297.83
234.321	244
234.786	269.75
235.252	276.77
235.717	253.36
236.182	225.28
236.647	211.23
237.112	332.94
237.577	279.11
238.042	290.81
238.507	290.81
238.972	330.6
239.436	288.47
239.901	286.13
240.366	244
240.83	323.58
241.295	297.83
241.76	328.26
242.224	339.96
242.688	215.91
243.153	199.53
243.617	281.45
244.081	314.22
244.545	269.75
245.01	281.45
245.474	265.07
245.938	262.73
246.402	251.02
246.866	253.36
247.33	304.85
247.793	232.3
248.257	304.85
248.721	258.04
249.185	286.13
249.648	297.83
250.112	304.85
250.575	255.7
251.039	293.15
251.502	255.7
251.965	272.09
252.429	288.47
252.892	269.75
253.355	255.7
253.818	311.88
254.281	248.68
254.744	220.6
255.207	309.54
255.67	251.02
256.133	241.66
256.596	297.83
257.059	265.07
257.522	267.41
257.984	281.45
258.447	248.68
258.909	328.26
259.372	330.6
259.834	265.07
260.297	253.36
260.759	354.01
261.221	276.77
261.684	241.66
262.146	274.43
262.608	258.04
263.07	248.68
263.532	255.7
263.994	267.41
264.456	265.07
264.918	232.3
265.38	265.07
265.842	218.25
266.303	302.51
266.765	260.38
267.227	258.04
267.688	293.15
268.15	297.83
268.611	335.28
269.072	192.51
269.534	246.34
269.995	335.28
270.456	262.73
270.918	258.04
271.379	363.37
271.84	269.75
272.301	295.49
272.762	318.9
273.223	246.34
273.684	281.45
274.144	309.54
274.605	325.92
275.066	323.58
275.527	297.83
275.987	309.54
276.448	295.49
276.908	295.49
277.369	185.49
277.829	272.09
278.289	272.09
278.75	302.51
279.21	325.92
279.67	361.03
280.13	300.17
280.59	361.03
281.05	269.75
281.51	290.81
281.97	204.21
282.43	300.17
282.89	251.02
283.35	295.49
283.809	239.32
284.269	318.9
284.729	248.68
285.188	276.77
285.648	269.75
286.107	288.47
286.567	206.55
287.026	321.24
287.485	279.11
287.944	295.49
288.404	239.32
288.863	258.04
289.322	363.37
289.781	304.85
290.24	274.43
290.699	246.34
291.158	321.24
291.616	309.54
292.075	311.88
292.534	269.75
292.992	288.47
293.451	283.79
293.91	258.04
294.368	213.57
294.827	272.09
295.285	328.26
295.743	260.38
296.202	274.43
296.66	304.85
297.118	229.96
297.576	272.09
298.034	220.6
298.492	269.75
298.95	274.43
299.408	265.07
299.866	290.81
300.324	307.2
300.781	332.94
301.239	307.2
301.697	236.98
302.154	290.81
302.612	304.85
303.069	307.2
303.527	328.26
303.984	236.98
304.441	309.54
304.899	265.07
305.356	314.22
305.813	281.45
306.27	349.32
306.727	239.32
307.184	358.69
307.641	274.43
308.098	272.09
308.555	265.07
309.012	227.62
309.468	335.28
309.925	297.83
310.382	304.85
310.838	297.83
311.295	335.28
311.751	342.3
312.208	304.85
312.664	311.88
313.12	286.13
313.577	215.91
314.033	335.28
314.489	316.56
314.945	255.7
315.401	279.11
315.857	206.55
316.313	365.71
316.769	206.55
317.225	246.34
317.681	290.81
318.136	267.41
318.592	337.62
319.048	290.81
319.503	279.11
319.959	323.58
320.414	251.02
320.869	262.73
321.325	262.73
321.78	309.54
322.235	311.88
322.691	267.41
323.146	272.09
323.601	267.41
324.056	267.41
324.511	302.51
324.966	302.51
325.421	262.73
325.875	316.56
326.33	302.51
326.785	260.38
327.24	246.34
327.694	244
328.149	229.96
328.603	283.79
329.058	272.09
329.512	302.51
329.966	361.03
330.421	260.38
330.875	297.83
331.329	314.22
331.783	251.02
332.237	302.51
332.691	304.85
333.145	309.54
333.599	269.75
334.053	318.9
334.507	321.24
334.96	297.83
335.414	229.96
335.868	267.41
336.321	272.09
336.775	251.02
337.228	267.41
337.682	302.51
338.135	339.96
338.588	356.35
339.042	346.98
339.495	307.2
339.948	297.83
340.401	222.94
340.854	267.41
341.307	318.9
341.76	262.73
342.213	276.77
342.666	365.71
343.119	335.28
343.571	351.67
344.024	370.39
344.477	330.6
344.929	328.26
345.382	332.94
345.834	335.28
346.287	297.83
346.739	293.15
347.191	328.26
347.644	283.79
348.096	267.41
348.548	304.85
349	255.7
349.452	304.85
349.904	363.37
350.356	297.83
350.808	283.79
351.26	307.2
351.711	325.92
352.163	262.73
352.615	318.9
353.066	288.47
353.518	300.17
353.969	295.49
354.421	295.49
354.872	248.68
355.324	309.54
355.775	276.77
356.226	288.47
356.677	279.11
357.128	260.38
357.579	351.67
358.03	335.28
358.481	323.58
358.932	309.54
359.383	244
359.834	236.98
360.285	332.94
360.735	297.83
361.186	253.36
361.637	346.98
362.087	330.6
362.538	363.37
362.988	300.17
363.438	318.9
363.889	267.41
364.339	265.07
364.789	342.3
365.239	276.77
365.689	300.17
366.139	255.7
366.589	288.47
367.039	311.88
367.489	339.96
367.939	281.45
368.389	358.69
368.839	276.77
369.288	241.66
369.738	363.37
370.187	248.68
370.637	307.2
371.086	283.79
371.536	351.67
371.985	276.77
372.434	241.66
372.884	262.73
373.333	265.07
373.782	265.07
374.231	293.15
374.68	323.58
375.129	318.9
375.578	311.88
376.027	222.94
376.475	274.43
376.924	293.15
377.373	328.26
377.822	297.83
378.27	318.9
378.719	307.2
379.167	279.11
379.616	286.13
380.064	300.17
380.512	300.17
380.961	276.77
381.409	253.36
381.857	283.79
382.305	286.13
382.753	314.22
383.201	307.2
383.649	323.58
384.097	283.79
384.545	279.11
384.992	311.88
385.44	356.35
385.888	293.15
386.335	255.7
386.783	290.81
387.231	325.92
387.678	295.49
388.125	330.6
388.573	307.2
389.02	318.9
389.467	248.68
389.914	382.09
390.362	288.47
390.809	281.45
391.256	300.17
391.703	302.51
392.15	290.81
392.596	304.85
393.043	295.49
393.49	328.26
393.937	297.83
394.383	356.35
394.83	213.57
395.276	293.15
395.723	304.85
396.169	300.17
396.616	234.64
397.062	248.68
397.508	325.92
397.954	311.88
398.401	318.9
398.847	314.22
399.293	269.75
399.739	290.81
400.185	297.83
400.631	314.22
401.076	241.66
401.522	323.58
401.968	328.26
402.414	389.11
402.859	288.47
403.305	318.9
403.75	311.88
404.196	314.22
404.641	354.01
405.086	295.49
405.532	286.13
405.977	344.64
406.422	246.34
406.867	328.26
407.312	325.92
407.757	302.51
408.202	351.67
408.647	339.96
409.092	323.58
409.537	337.62
409.982	321.24
410.426	358.69
410.871	269.75
411.316	368.05
411.76	239.32
412.205	274.43
412.649	274.43
413.093	356.35
413.538	344.64
413.982	293.15
414.426	288.47
414.87	325.92
415.314	290.81
415.758	290.81
416.202	297.83
416.646	286.13
417.09	300.17
417.534	290.81
417.978	314.22
418.421	304.85
418.865	232.3
419.309	351.67
419.752	300.17
420.196	288.47
420.639	288.47
421.083	309.54
421.526	344.64
421.969	351.67
422.412	281.45
422.856	304.85
423.299	304.85
423.742	253.36
424.185	325.92
424.628	318.9
425.071	293.15
425.513	307.2
425.956	346.98
426.399	332.94
426.842	262.73
427.284	307.2
427.727	337.62
428.169	370.39
428.612	222.94
429.054	281.45
429.497	248.68
429.939	356.35
430.381	293.15
430.823	262.73
431.265	300.17
431.707	302.51
432.149	337.62
432.591	311.88
433.033	225.28
433.475	281.45
433.917	293.15
434.359	361.03
434.8	236.98
435.242	384.43
435.684	309.54
436.125	260.38
436.567	232.3
437.008	288.47
437.449	248.68
437.891	351.67
438.332	318.9
438.773	309.54
439.214	318.9
439.656	279.11
440.097	293.15
440.538	332.94
440.978	244
441.419	300.17
441.86	300.17
442.301	283.79
442.742	283.79
443.182	281.45
443.623	281.45
444.063	342.3
444.504	321.24
444.944	283.79
445.385	295.49
445.825	295.49
446.265	307.2
446.706	325.92
447.146	302.51
447.586	386.77
448.026	316.56
448.466	314.22
448.906	332.94
449.346	307.2
449.786	321.24
450.225	323.58
450.665	232.3
451.105	311.88
451.544	314.22
451.984	274.43
452.424	349.32
452.863	281.45
453.302	246.34
453.742	316.56
454.181	283.79
454.62	274.43
455.059	290.81
455.499	297.83
455.938	304.85
456.377	274.43
456.816	279.11
457.254	267.41
457.693	281.45
458.132	344.64
458.571	269.75
459.01	337.62
459.448	307.2
459.887	253.36
460.325	431.24
460.764	318.9
461.202	318.9
461.641	342.3
462.079	300.17
462.517	295.49
462.955	318.9
463.393	332.94
463.832	330.6
464.27	234.64
464.708	335.28
465.145	323.58
465.583	335.28
466.021	302.51
466.459	262.73
466.897	375.07
467.334	274.43
467.772	309.54
468.209	349.32
468.647	253.36
469.084	328.26
469.522	335.28
469.959	262.73
470.396	269.75
470.833	262.73
471.271	314.22
471.708	281.45
472.145	323.58
472.582	304.85
473.019	323.58
473.456	251.02
473.892	290.81
474.329	330.6
474.766	335.28
475.202	260.38
475.639	370.39
476.076	258.04
476.512	391.45
476.949	337.62
477.385	337.62
477.821	255.7
478.258	358.69
478.694	290.81
479.13	314.22
479.566	300.17
480.002	307.2
480.438	363.37
480.874	332.94
481.31	288.47
481.746	361.03
482.181	309.54
482.617	304.85
483.053	293.15
483.488	314.22
483.924	316.56
484.36	300.17
484.795	382.09
485.23	288.47
485.666	339.96
486.101	328.26
486.536	323.58
486.971	379.75
487.407	342.3
487.842	339.96
488.277	281.45
488.712	251.02
489.146	302.51
489.581	316.56
490.016	283.79
490.451	295.49
490.885	309.54
491.32	283.79
491.755	295.49
492.189	311.88
492.624	269.75
493.058	295.49
493.492	302.51
493.927	321.24
494.361	311.88
494.795	290.81
495.229	330.6
495.663	325.92
496.097	293.15
496.531	316.56
496.965	258.04
497.399	297.83
497.833	332.94
498.266	265.07
498.7	328.26
499.134	316.56
499.567	323.58
500.001	316.56
500.434	269.75
500.868	318.9
501.301	272.09
501.734	321.24
502.168	286.13
502.601	328.26
503.034	309.54
503.467	276.77
503.9	269.75
504.333	330.6
504.766	328.26
505.199	276.77
505.632	330.6
506.064	314.22
506.497	283.79
506.93	314.22
507.362	321.24
507.795	297.83
508.227	354.01
508.66	311.88
509.092	363.37
509.524	354.01
509.956	337.62
510.389	239.32
510.821	288.47
511.253	323.58
511.685	342.3
512.117	346.98
512.549	302.51
512.981	346.98
513.412	297.83
513.844	293.15
514.276	332.94
514.707	283.79
515.139	318.9
515.571	286.13
516.002	279.11
516.433	354.01
516.865	307.2
517.296	286.13
517.727	321.24
518.159	318.9
518.59	290.81
519.021	309.54
519.452	321.24
519.883	265.07
520.314	281.45
520.744	267.41
521.175	262.73
521.606	335.28
522.037	297.83
522.467	239.32
522.898	260.38
523.328	234.64
523.759	211.23
524.189	332.94
524.62	321.24
525.05	300.17
525.48	323.58
525.91	288.47
526.341	246.34
526.771	246.34
527.201	258.04
527.631	354.01
528.061	332.94
528.49	283.79
528.92	358.69
529.35	358.69
529.78	309.54
530.209	344.64
530.639	311.88
531.068	316.56
531.498	293.15
531.927	295.49
532.357	290.81
532.786	297.83
533.215	281.45
533.644	265.07
534.074	321.24
534.503	361.03
534.932	356.35
535.361	323.58
535.79	321.24
536.218	288.47
536.647	330.6
537.076	295.49
537.505	269.75
537.933	279.11
538.362	258.04
538.79	269.75
539.219	377.41
539.647	323.58
540.076	272.09
540.504	363.37
540.932	332.94
541.36	279.11
541.788	354.01
542.217	258.04
542.645	295.49
543.073	349.32
543.5	267.41
543.928	332.94
544.356	246.34
544.784	335.28
545.211	269.75
545.639	288.47
546.067	288.47
546.494	382.09
546.922	328.26
547.349	248.68
547.776	337.62
548.204	337.62
548.631	342.3
549.058	309.54
549.485	316.56
549.912	286.13
550.339	328.26
550.766	279.11
551.193	262.73
551.62	384.43
552.047	311.88
552.474	323.58
552.9	244
553.327	309.54
553.754	337.62
554.18	283.79
554.607	358.69
555.033	267.41
555.459	290.81
555.886	272.09
556.312	363.37
556.738	339.96
557.164	325.92
557.59	300.17
558.016	281.45
558.442	281.45
558.868	232.3
559.294	328.26
559.72	215.91
560.145	337.62
560.571	314.22
560.997	309.54
561.422	323.58
561.848	351.67
562.273	309.54
562.699	293.15
563.124	332.94
563.549	368.05
563.974	311.88
564.4	295.49
564.825	330.6
565.25	321.24
565.675	321.24
566.1	321.24
566.525	382.09
566.95	297.83
567.374	339.96
567.799	279.11
568.224	251.02
568.648	346.98
569.073	244
569.497	297.83
569.922	258.04
570.346	300.17
570.771	361.03
571.195	337.62
571.619	346.98
572.043	307.2
572.467	244
572.891	339.96
573.315	328.26
573.739	375.07
574.163	309.54
574.587	253.36
575.011	269.75
575.435	309.54
575.858	314.22
576.282	323.58
576.705	328.26
577.129	393.8
577.552	253.36
577.976	349.32
578.399	325.92
578.822	262.73
579.245	258.04
579.669	318.9
580.092	265.07
580.515	286.13
580.938	281.45
581.361	302.51
581.784	309.54
582.206	293.15
582.629	316.56
583.052	300.17
583.474	255.7
583.897	356.35
584.32	288.47
584.742	253.36
585.165	304.85
585.587	265.07
586.009	281.45
586.431	258.04
586.854	332.94
587.276	293.15
587.698	288.47
588.12	244
588.542	260.38
588.964	279.11
589.386	293.15
589.807	262.73
590.229	337.62
590.651	244
591.073	248.68
591.494	321.24
591.916	342.3
592.337	300.17
592.759	346.98
593.18	297.83
593.601	335.28
594.022	386.77
594.444	407.84
594.865	295.49
595.286	337.62
595.707	356.35
596.128	232.3
596.549	283.79
596.97	349.32
597.39	314.22
597.811	276.77
598.232	309.54
598.652	311.88
599.073	316.56
599.494	269.75
599.914	293.15
600.334	361.03
600.755	339.96
601.175	379.75
601.595	276.77
602.015	283.79
602.436	246.34
602.856	363.37
603.276	377.41
603.696	255.7
604.115	265.07
604.535	293.15
604.955	276.77
605.375	274.43
605.794	293.15
606.214	311.88
606.634	321.24
607.053	288.47
607.473	349.32
607.892	316.56
608.311	358.69
608.731	316.56
609.15	290.81
609.569	386.77
609.988	314.22
610.407	335.28
610.826	346.98
611.245	290.81
611.664	307.2
612.083	302.51
612.501	318.9
612.92	272.09
613.339	295.49
613.757	309.54
614.176	316.56
614.594	318.9
615.013	290.81
615.431	307.2
615.85	281.45
616.268	314.22
616.686	290.81
617.104	267.41
617.522	304.85
617.94	314.22
618.358	279.11
618.776	290.81
619.194	330.6
619.612	279.11
620.03	293.15
620.447	267.41
620.865	328.26
621.282	246.34
621.7	375.07
622.117	335.28
622.535	288.47
622.952	309.54
623.369	325.92
623.787	389.11
624.204	290.81
624.621	337.62
625.038	300.17
625.455	361.03
625.872	269.75
626.289	304.85
626.706	272.09
627.123	267.41
627.539	321.24
627.956	370.39
628.373	316.56
628.789	337.62
629.206	302.51
629.622	232.3
630.038	297.83
630.455	300.17
630.871	267.41
631.287	297.83
631.703	314.22
632.12	272.09
632.536	272.09
632.952	321.24
633.368	318.9
633.783	316.56
634.199	304.85
634.615	295.49
635.031	279.11
635.446	332.94
635.862	332.94
636.277	321.24
636.693	241.66
637.108	304.85
637.524	311.88
637.939	339.96
638.354	325.92
638.77	318.9
639.185	297.83
639.6	311.88
640.015	255.7
640.43	281.45
640.845	323.58
641.259	258.04
641.674	260.38
642.089	316.56
642.504	337.62
642.918	297.83
643.333	325.92
643.747	286.13
644.162	290.81
644.576	309.54
644.991	272.09
645.405	295.49
645.819	302.51
646.233	318.9
646.647	290.81
647.061	342.3
647.475	321.24
647.889	255.7
648.303	295.49
648.717	295.49
649.131	246.34
649.545	260.38
649.958	279.11
650.372	260.38
650.785	325.92
651.199	377.41
651.612	304.85
652.026	300.17
652.439	272.09
652.852	286.13
653.266	269.75
653.679	382.09
654.092	286.13
654.505	239.32
654.918	255.7
655.331	309.54
655.744	248.68
656.156	297.83
656.569	339.96
656.982	283.79
657.394	225.28
657.807	335.28
658.22	346.98
658.632	330.6
659.044	293.15
659.457	361.03
659.869	281.45
660.281	304.85
660.693	293.15
661.106	335.28
661.518	302.51
661.93	281.45
662.342	325.92
662.754	279.11
663.165	309.54
663.577	293.15
663.989	248.68
664.401	323.58
664.812	300.17
665.224	314.22
665.635	293.15
666.047	335.28
666.458	307.2
666.869	332.94
667.281	330.6
667.692	321.24
668.103	323.58
668.514	286.13
668.925	293.15
669.336	297.83
669.747	269.75
670.158	260.38
670.569	260.38
670.979	302.51
671.39	300.17
671.801	332.94
672.211	356.35
672.622	332.94
673.032	368.05
673.443	276.77
673.853	358.69
674.263	300.17
674.674	344.64
675.084	288.47
675.494	255.7
675.904	344.64
676.314	295.49
676.724	332.94
677.134	309.54
677.544	316.56
677.953	318.9
678.363	330.6
678.773	311.88
679.182	276.77
679.592	318.9
680.001	314.22
680.411	316.56
680.82	311.88
681.23	321.24
681.639	314.22
682.048	279.11
682.457	276.77
682.866	307.2
683.275	339.96
683.684	302.51
684.093	342.3
684.502	283.79
684.911	272.09
685.32	293.15
685.728	307.2
686.137	307.2
686.546	274.43
686.954	323.58
687.363	321.24
687.771	276.77
688.179	286.13
688.588	274.43
688.996	307.2
689.404	321.24
689.812	311.88
690.22	344.64
690.628	302.51
691.036	398.48
691.444	297.83
691.852	330.6
692.26	332.94
692.667	325.92
693.075	311.88
693.483	253.36
693.89	321.24
694.298	344.64
694.705	276.77
695.112	363.37
695.52	318.9
695.927	265.07
696.334	332.94
696.741	269.75
697.148	272.09
697.555	281.45
697.962	321.24
698.369	335.28
698.776	328.26
699.183	290.81
699.59	234.64
699.996	363.37
700.403	346.98
700.81	300.17
701.216	300.17
701.623	337.62
702.029	262.73
702.435	295.49
702.842	332.94
703.248	314.22
703.654	295.49
704.06	239.32
704.466	297.83
704.872	241.66
705.278	368.05
705.684	241.66
706.09	283.79
706.496	248.68
706.901	295.49
707.307	354.01
707.712	290.81
708.118	293.15
708.523	297.83
708.929	325.92
709.334	328.26
709.74	281.45
710.145	307.2
710.55	328.26
710.955	384.43
711.36	267.41
711.765	267.41
712.17	295.49
712.575	356.35
712.98	889.99
713.385	386.77
713.789	293.15
714.194	269.75
714.599	290.81
715.003	323.58
715.408	288.47
715.812	180.81
716.217	295.49
716.621	286.13
717.025	335.28
717.429	272.09
717.833	279.11
718.238	339.96
718.642	307.2
719.046	318.9
719.449	318.9
719.853	253.36
720.257	321.24
720.661	314.22
721.065	267.41
721.468	323.58
721.872	295.49
722.275	354.01
722.679	283.79
723.082	288.47
723.485	293.15
723.889	335.28
724.292	234.64
724.695	274.43
725.098	356.35
725.501	283.79
725.904	286.13
726.307	323.58
726.71	265.07
727.113	342.3
727.516	316.56
727.918	279.11
728.321	349.32
728.724	307.2
729.126	311.88
729.529	286.13
729.931	295.49
730.333	297.83
730.736	318.9
731.138	227.62
731.54	288.47
731.942	330.6
732.344	351.67
732.746	295.49
733.148	279.11
733.55	328.26
733.952	316.56
734.354	358.69
734.756	316.56
735.157	286.13
735.559	309.54
735.96	272.09
736.362	358.69
736.763	342.3
737.165	307.2
737.566	262.73
737.967	351.67
738.368	325.92
738.77	283.79
739.171	211.23
739.572	314.22
739.973	288.47
740.374	300.17
740.774	349.32
741.175	297.83
741.576	227.62
741.977	258.04
742.377	342.3
742.778	283.79
743.178	248.68
743.579	269.75
743.979	255.7
744.379	302.51
744.78	335.28
745.18	335.28
745.58	332.94
745.98	241.66
746.38	311.88
746.78	309.54
747.18	328.26
747.58	311.88
747.98	300.17
748.38	283.79
748.779	351.67
749.179	248.68
749.578	297.83
749.978	346.98
750.377	330.6
750.777	316.56
751.176	311.88
751.575	281.45
751.975	337.62
752.374	283.79
752.773	290.81
753.172	335.28
753.571	346.98
753.97	276.77
754.369	297.83
754.768	356.35
755.166	351.67
755.565	295.49
755.964	279.11
756.362	300.17
756.761	309.54
757.159	302.51
757.558	241.66
757.956	323.58
758.354	323.58
758.753	304.85
759.151	297.83
759.549	375.07
759.947	321.24
760.345	274.43
760.743	325.92
761.141	393.8
761.539	365.71
761.936	251.02
762.334	208.89
762.732	304.85
763.129	309.54
763.527	262.73
763.924	318.9
764.322	283.79
764.719	194.85
765.117	220.6
765.514	295.49
765.911	258.04
766.308	316.56
766.705	295.49
767.102	354.01
767.499	311.88
767.896	330.6
768.293	351.67
768.69	251.02
769.086	342.3
769.483	307.2
769.88	321.24
770.276	302.51
770.673	290.81
771.069	293.15
771.466	276.77
771.862	335.28
772.258	377.41
772.654	286.13
773.05	274.43
773.447	335.28
773.843	323.58
774.239	288.47
774.634	265.07
775.03	311.88
775.426	318.9
775.822	311.88
776.218	304.85
776.613	316.56
777.009	349.32
777.404	248.68
777.8	316.56
778.195	330.6
778.59	286.13
778.986	269.75
779.381	232.3
779.776	328.26
780.171	297.83
780.566	325.92
780.961	346.98
781.356	346.98
781.751	361.03
782.146	323.58
782.54	253.36
782.935	361.03
783.33	332.94
783.724	269.75
784.119	400.82
784.513	318.9
784.908	288.47
785.302	222.94
785.696	262.73
786.09	328.26
786.485	272.09
786.879	253.36
787.273	290.81
787.667	215.91
788.061	351.67
788.454	361.03
788.848	328.26
789.242	356.35
789.636	300.17
790.029	297.83
790.423	302.51
790.816	276.77
791.21	365.71
791.603	318.9
791.997	300.17
792.39	307.2
792.783	302.51
793.176	276.77
793.569	262.73
793.962	328.26
794.355	300.17
794.748	316.56
795.141	335.28
795.534	281.45
795.927	328.26
796.319	328.26
796.712	314.22
797.105	276.77
797.497	272.09
797.89	332.94
798.282	389.11
798.674	354.01
799.067	293.15
799.459	239.32
799.851	269.75
800.243	330.6
800.635	258.04
801.027	354.01
801.419	283.79
801.811	304.85
802.203	335.28
802.594	283.79
802.986	342.3
803.378	260.38
803.769	279.11
804.161	300.17
804.552	297.83
804.944	288.47
805.335	295.49
805.726	323.58
806.118	234.64
806.509	281.45
806.9	309.54
807.291	279.11
807.682	251.02
808.073	272.09
808.464	300.17
808.855	337.62
809.245	300.17
809.636	346.98
810.027	309.54
810.417	337.62
810.808	356.35
811.198	262.73
811.589	290.81
811.979	281.45
812.369	314.22
812.759	295.49
813.15	309.54
813.54	309.54
813.93	370.39
814.32	330.6
814.71	297.83
815.1	286.13
815.489	323.58
815.879	316.56
816.269	344.64
816.658	328.26
817.048	325.92
817.438	279.11
817.827	300.17
818.216	337.62
818.606	290.81
818.995	365.71
819.384	244
819.773	318.9
820.163	300.17
820.552	346.98
820.941	220.6
821.33	267.41
821.718	290.81
822.107	295.49
822.496	328.26
822.885	227.62
823.273	344.64
823.662	253.36
824.05	335.28
824.439	262.73
824.827	358.69
825.216	314.22
825.604	309.54
825.992	300.17
826.38	309.54
826.768	316.56
827.156	288.47
827.544	309.54
827.932	281.45
828.32	281.45
828.708	346.98
829.096	356.35
829.483	295.49
829.871	258.04
830.259	318.9
830.646	337.62
831.034	220.6
831.421	265.07
831.808	330.6
832.196	281.45
832.583	286.13
832.97	307.2
833.357	302.51
833.744	321.24
834.131	309.54
834.518	293.15
834.905	304.85
835.292	344.64
835.678	325.92
836.065	253.36
836.452	335.28
836.838	260.38
837.225	244
837.611	328.26
837.998	304.85
838.384	286.13
838.77	300.17
839.157	314.22
839.543	272.09
839.929	330.6
840.315	255.7
840.701	332.94
841.087	335.28
841.473	342.3
841.858	339.96
842.244	307.2
842.63	260.38
843.015	272.09
843.401	400.82
843.787	297.83
844.172	332.94
844.557	239.32
844.943	300.17
845.328	300.17
845.713	318.9
846.098	260.38
846.483	302.51
846.868	286.13
847.253	384.43
847.638	290.81
848.023	276.77
848.408	358.69
848.793	307.2
849.177	267.41
849.562	239.32
849.947	363.37
850.331	325.92
850.715	300.17
851.1	302.51
851.484	293.15
851.868	290.81
852.253	281.45
852.637	323.58
853.021	321.24
853.405	316.56
853.789	314.22
854.173	323.58
854.557	307.2
854.94	330.6
855.324	314.22
855.708	279.11
856.091	311.88
856.475	272.09
856.858	274.43
857.242	269.75
857.625	290.81
858.009	344.64
858.392	253.36
858.775	246.34
859.158	276.77
859.541	248.68
859.924	192.51
860.307	328.26
860.69	339.96
861.073	307.2
861.456	321.24
861.838	260.38
862.221	309.54
862.604	297.83
862.986	281.45
863.369	279.11
863.751	318.9
864.133	309.54
864.516	328.26
864.898	295.49
865.28	342.3
865.662	286.13
866.044	346.98
866.426	258.04
866.808	288.47
867.19	349.32
867.572	283.79
867.954	276.77
868.336	241.66
868.717	314.22
869.099	251.02
869.48	302.51
869.862	339.96
870.243	267.41
870.625	307.2
871.006	267.41
871.387	260.38
871.768	260.38
872.149	269.75
872.53	281.45
872.911	316.56
873.292	267.41
873.673	286.13
874.054	351.67
874.435	314.22
874.815	309.54
875.196	274.43
875.577	311.88
875.957	307.2
876.338	321.24
876.718	258.04
877.098	241.66
877.479	236.98
877.859	304.85
878.239	194.85
878.619	302.51
878.999	295.49
879.379	354.01
879.759	321.24
880.139	290.81
880.519	339.96
880.898	260.38
881.278	253.36
881.658	274.43
882.037	248.68
882.417	283.79
882.796	290.81
883.176	267.41
883.555	297.83
883.934	297.83
884.313	325.92
884.693	225.28
885.072	325.92
885.451	318.9
885.83	262.73
886.209	290.81
886.587	318.9
886.966	272.09
887.345	272.09
887.724	384.43
888.102	309.54
888.481	342.3
888.859	342.3
889.238	323.58
889.616	328.26
889.994	300.17
890.373	293.15
890.751	265.07
891.129	283.79
891.507	300.17
891.885	229.96
892.263	307.2
892.641	302.51
893.019	316.56
893.396	318.9
893.774	344.64
894.152	272.09
894.529	325.92
894.907	300.17
895.284	337.62
895.662	272.09
896.039	281.45
896.416	346.98
896.794	276.77
897.171	361.03
897.548	295.49
897.925	304.85
898.302	323.58
898.679	335.28
899.056	302.51
899.433	274.43
899.809	265.07
900.186	260.38
900.563	295.49
900.939	265.07
901.316	311.88
901.692	297.83
902.069	314.22
902.445	297.83
902.821	288.47
903.197	269.75
903.574	290.81
903.95	316.56
904.326	309.54
904.702	318.9
905.078	267.41
905.454	286.13
905.829	314.22
906.205	281.45
906.581	318.9
906.956	293.15
907.332	325.92
907.707	279.11
908.083	248.68
908.458	276.77
908.833	297.83
909.209	262.73
909.584	286.13
909.959	274.43
910.334	335.28
910.709	258.04
911.084	244
911.459	311.88
911.834	260.38
912.209	328.26
912.583	279.11
912.958	328.26
913.333	246.34
913.707	267.41
914.082	342.3
914.456	332.94
914.83	323.58
915.205	279.11
915.579	269.75
915.953	316.56
916.327	297.83
916.701	265.07
917.075	253.36
917.449	389.11
917.823	272.09
918.197	342.3
918.571	297.83
918.944	337.62
919.318	218.25
919.692	248.68
920.065	302.51
920.438	290.81
920.812	248.68
921.185	325.92
921.558	311.88
921.932	311.88
922.305	304.85
922.678	316.56
923.051	262.73
923.424	339.96
923.797	199.53
924.17	311.88
924.542	272.09
924.915	276.77
925.288	279.11
925.661	302.51
926.033	265.07
926.406	314.22
926.778	293.15
927.15	272.09
927.523	279.11
927.895	274.43
928.267	349.32
928.639	283.79
929.011	309.54
929.383	370.39
929.755	311.88
930.127	372.73
930.499	283.79
930.871	314.22
931.242	246.34
931.614	354.01
931.986	286.13
932.357	358.69
932.729	283.79
933.1	325.92
933.471	286.13
933.843	255.7
934.214	213.57
934.585	274.43
934.956	346.98
935.327	311.88
935.698	339.96
936.069	300.17
936.44	293.15
936.811	258.04
937.182	293.15
937.552	344.64
937.923	356.35
938.293	297.83
938.664	260.38
939.034	297.83
939.405	286.13
939.775	276.77
940.145	290.81
940.516	328.26
940.886	276.77
941.256	265.07
941.626	269.75
941.996	272.09
942.366	281.45
942.735	335.28
943.105	339.96
943.475	314.22
943.845	253.36
944.214	272.09
944.584	215.91
944.953	269.75
945.323	236.98
945.692	276.77
946.061	323.58
946.43	332.94
946.8	300.17
947.169	297.83
947.538	274.43
947.907	274.43
948.276	316.56
948.645	304.85
949.013	300.17
949.382	302.51
949.751	344.64
950.119	342.3
950.488	311.88
950.857	262.73
951.225	311.88
951.593	314.22
951.962	269.75
952.33	330.6
952.698	323.58
953.066	241.66
953.434	302.51
953.802	211.23
954.17	349.32
954.538	297.83
954.906	267.41
955.274	283.79
955.642	288.47
956.009	321.24
956.377	281.45
956.744	335.28
957.112	265.07
957.479	314.22
957.847	265.07
958.214	286.13
958.581	309.54
958.948	316.56
959.315	297.83
959.683	279.11
960.05	213.57
960.416	290.81
960.783	300.17
961.15	300.17
961.517	290.81
961.884	365.71
962.25	314.22
962.617	332.94
962.983	328.26
963.35	318.9
963.716	253.36
964.082	222.94
964.449	321.24
964.815	290.81
965.181	328.26
965.547	295.49
965.913	295.49
966.279	325.92
966.645	304.85
967.011	314.22
967.377	293.15
967.742	344.64
968.108	328.26
968.474	325.92
968.839	307.2
969.205	316.56
969.57	309.54
969.935	253.36
970.301	276.77
970.666	286.13
971.031	262.73
971.396	220.6
971.761	314.22
972.126	251.02
972.491	349.32
972.856	328.26
973.221	297.83
973.586	335.28
973.95	304.85
974.315	363.37
974.679	290.81
975.044	272.09
975.408	323.58
975.773	283.79
976.137	342.3
976.501	295.49
976.866	290.81
977.23	307.2
977.594	307.2
977.958	260.38
978.322	311.88
978.686	267.41
979.049	262.73
979.413	262.73
979.777	215.91
980.141	307.2
980.504	325.92
980.868	286.13
981.231	262.73
981.595	276.77
981.958	332.94
982.321	300.17
982.684	251.02
983.048	332.94
983.411	274.43
983.774	274.43
984.137	267.41
984.5	300.17
984.862	349.32
985.225	274.43
985.588	302.51
985.951	391.45
986.313	276.77
986.676	321.24
987.038	269.75
987.401	339.96
987.763	314.22
988.125	307.2
988.488	251.02
988.85	295.49
989.212	316.56
989.574	302.51
989.936	328.26
990.298	318.9
990.66	321.24
991.022	290.81
991.383	246.34
991.745	286.13
992.107	253.36
992.468	246.34
992.83	253.36
993.191	344.64
993.553	265.07
993.914	276.77
994.275	307.2
994.637	290.81
994.998	253.36
995.359	325.92
995.72	288.47
996.081	281.45
996.442	323.58
996.803	309.54
997.163	300.17
997.524	323.58
997.885	332.94
998.245	269.75
998.606	234.64
998.966	262.73
999.327	302.51
999.687	307.2
1000.047	290.81
1000.408	234.64
1000.768	314.22
1001.128	251.02
1001.488	290.81
1001.848	304.85
1002.208	244
1002.568	302.51
1002.927	276.77
1003.287	346.98
1003.647	307.2
1004.007	262.73
1004.366	330.6
1004.726	297.83
1005.085	318.9
1005.444	318.9
1005.804	295.49
1006.163	354.01
1006.522	304.85
1006.881	267.41
1007.24	267.41
1007.599	251.02
1007.958	346.98
1008.317	330.6
1008.676	293.15
1009.035	297.83
1009.393	328.26
1009.752	253.36
1010.111	325.92
1010.469	274.43
1010.828	300.17
1011.186	290.81
1011.544	351.67
1011.903	248.68
1012.261	349.32
1012.619	300.17
1012.977	272.09
1013.335	321.24
1013.693	321.24
1014.051	279.11
1014.409	304.85
1014.767	309.54
1015.124	255.7
1015.482	302.51
1015.84	304.85
1016.197	251.02
1016.555	323.58
1016.912	307.2
1017.269	311.88
1017.627	246.34
1017.984	328.26
1018.341	274.43
1018.698	272.09
1019.055	279.11
1019.412	335.28
1019.769	304.85
1020.126	302.51
1020.483	267.41
1020.84	267.41
1021.196	309.54
1021.553	311.88
1021.909	279.11
1022.266	288.47
1022.622	218.25
1022.979	295.49
1023.335	372.73
1023.691	304.85
1024.047	276.77
1024.404	325.92
1024.76	368.05
1025.116	314.22
1025.472	335.28
1025.827	288.47
1026.183	309.54
1026.539	311.88
1026.895	297.83
1027.25	295.49
1027.606	258.04
1027.961	304.85
1028.317	330.6
1028.672	337.62
1029.028	293.15
1029.383	307.2
1029.738	274.43
1030.093	269.75
1030.448	300.17
1030.803	321.24
1031.158	262.73
1031.513	325.92
1031.868	253.36
1032.223	272.09
1032.577	251.02
1032.932	187.83
1033.287	234.64
1033.641	304.85
1033.996	286.13
1034.35	314.22
1034.704	281.45
1035.059	258.04
1035.413	279.11
1035.767	279.11
1036.121	279.11
