Data from Al_FLMS009871__1144__16-36-05-191.txt Node

Date: Fri Mar 08 16:36:05 CST 2024
User: pe5414po
Spectrometer: FLMS00987
Trigger mode: 0
Integration Time (sec): 1.000000E-1
Scans to average: 1
Electric dark correction enabled: true
Nonlinearity correction enabled: false
Boxcar width: 0
XAxis mode: Wavelengths
Number of Pixels in Spectrum: 2048
>>>>>Begin Spectral Data<<<<<
188.938	-93.77
189.409	-93.77
189.879	-93.77
190.349	-114.83
190.819	-110.15
191.29	-149.94
191.76	-89.09
192.23	-21.21
192.7	-14.19
193.17	-25.89
193.64	-56.32
194.109	2.19
194.579	-79.72
195.049	-25.89
195.519	63.05
195.988	32.62
196.458	30.28
196.927	81.77
197.397	100.5
197.866	56.03
198.336	95.82
198.805	151.99
199.274	121.56
199.744	126.24
200.213	177.73
200.682	222.2
201.151	226.89
201.62	126.24
202.089	180.07
202.558	229.23
203.027	229.23
203.495	212.84
203.964	269.02
204.433	250.29
204.902	269.02
205.37	301.78
205.839	294.76
206.307	290.08
206.776	215.18
207.244	280.72
207.712	311.14
208.181	301.78
208.649	313.49
209.117	238.59
209.585	205.82
210.053	278.38
210.521	339.23
210.989	343.91
211.457	269.02
211.925	247.95
212.393	285.4
212.861	297.1
213.328	271.36
213.796	266.67
214.264	292.42
214.731	236.25
215.199	224.55
215.666	276.04
216.133	283.06
216.601	240.93
217.068	245.61
217.535	182.42
218.003	245.61
218.47	264.33
218.937	257.31
219.404	269.02
219.871	283.06
220.338	245.61
220.805	259.65
221.271	250.29
221.738	261.99
222.205	250.29
222.671	329.87
223.138	290.08
223.605	219.86
224.071	280.72
224.538	285.4
225.004	245.61
225.47	266.67
225.937	194.12
226.403	280.72
226.869	269.02
227.335	259.65
227.801	269.02
228.267	247.95
228.733	252.63
229.199	261.99
229.665	173.05
230.131	261.99
230.597	203.48
231.062	261.99
231.528	276.04
231.994	254.97
232.459	261.99
232.925	257.31
233.39	261.99
233.856	273.7
234.321	311.14
234.786	201.14
235.252	269.02
235.717	322.85
236.182	320.51
236.647	226.89
237.112	226.89
237.577	290.08
238.042	231.57
238.507	254.97
238.972	259.65
239.436	306.46
239.901	243.27
240.366	252.63
240.83	194.12
241.295	191.78
241.76	276.04
242.224	238.59
242.688	252.63
243.153	290.08
243.617	264.33
244.081	273.7
244.545	306.46
245.01	201.14
245.474	322.85
245.938	269.02
246.402	259.65
246.866	294.76
247.33	315.83
247.793	254.97
248.257	247.95
248.721	261.99
249.185	212.84
249.648	252.63
250.112	245.61
250.575	240.93
251.039	271.36
251.502	266.67
251.965	191.78
252.429	217.52
252.892	294.76
253.355	322.85
253.818	231.57
254.281	292.42
254.744	297.1
255.207	240.93
255.67	278.38
256.133	233.91
256.596	236.25
257.059	261.99
257.522	261.99
257.984	304.12
258.447	252.63
258.909	250.29
259.372	322.85
259.834	266.67
260.297	292.42
260.759	271.36
261.221	271.36
261.684	212.84
262.146	367.32
262.608	273.7
263.07	271.36
263.532	215.18
263.994	294.76
264.456	325.19
264.918	264.33
265.38	318.17
265.842	294.76
266.303	325.19
266.765	285.4
267.227	269.02
267.688	280.72
268.15	287.74
268.611	233.91
269.072	353.27
269.534	271.36
269.995	294.76
270.456	313.49
270.918	341.57
271.379	238.59
271.84	266.67
272.301	245.61
272.762	283.06
273.223	287.74
273.684	283.06
274.144	297.1
274.605	287.74
275.066	339.23
275.527	276.04
275.987	245.61
276.448	229.23
276.908	257.31
277.369	348.59
277.829	250.29
278.289	339.23
278.75	240.93
279.21	325.19
279.67	287.74
280.13	276.04
280.59	329.87
281.05	266.67
281.51	243.27
281.97	290.08
282.43	306.46
282.89	269.02
283.35	348.59
283.809	327.53
284.269	294.76
284.729	224.55
285.188	280.72
285.648	283.06
286.107	294.76
286.567	278.38
287.026	308.8
287.485	252.63
287.944	339.23
288.404	240.93
288.863	285.4
289.322	299.44
289.781	247.95
290.24	311.14
290.699	304.12
291.158	301.78
291.616	229.23
292.075	264.33
292.534	292.42
292.992	184.76
293.451	273.7
293.91	297.1
294.368	273.7
294.827	367.32
295.285	205.82
295.743	306.46
296.202	294.76
296.66	269.02
297.118	311.14
297.576	266.67
298.034	257.31
298.492	278.38
298.95	219.86
299.408	339.23
299.866	273.7
300.324	269.02
300.781	276.04
301.239	287.74
301.697	269.02
302.154	250.29
302.612	271.36
303.069	292.42
303.527	327.53
303.984	276.04
304.441	247.95
304.899	290.08
305.356	278.38
305.813	219.86
306.27	259.65
306.727	278.38
307.184	266.67
307.641	271.36
308.098	320.51
308.555	322.85
309.012	261.99
309.468	269.02
309.925	257.31
310.382	273.7
310.838	315.83
311.295	247.95
311.751	261.99
312.208	292.42
312.664	325.19
313.12	285.4
313.577	278.38
314.033	276.04
314.489	353.27
314.945	280.72
315.401	311.14
315.857	261.99
316.313	240.93
316.769	252.63
317.225	280.72
317.681	240.93
318.136	350.93
318.592	271.36
319.048	215.18
319.503	247.95
319.959	261.99
320.414	254.97
320.869	308.8
321.325	318.17
321.78	311.14
322.235	285.4
322.691	311.14
323.146	285.4
323.601	313.49
324.056	264.33
324.511	329.87
324.966	250.29
325.421	343.91
325.875	259.65
326.33	306.46
326.785	217.52
327.24	271.36
327.694	280.72
328.149	304.12
328.603	318.17
329.058	372
329.512	308.8
329.966	308.8
330.421	292.42
330.875	294.76
331.329	346.25
331.783	280.72
332.237	294.76
332.691	245.61
333.145	362.64
333.599	252.63
334.053	280.72
334.507	250.29
334.96	329.87
335.414	285.4
335.868	332.21
336.321	252.63
336.775	285.4
337.228	297.1
337.682	250.29
338.135	250.29
338.588	327.53
339.042	325.19
339.495	266.67
339.948	327.53
340.401	322.85
340.854	304.12
341.307	290.08
341.76	283.06
342.213	261.99
342.666	329.87
343.119	231.57
343.571	210.5
344.024	311.14
344.477	327.53
344.929	320.51
345.382	219.86
345.834	245.61
346.287	339.23
346.739	271.36
347.191	264.33
347.644	287.74
348.096	283.06
348.548	334.55
349	346.25
349.452	254.97
349.904	346.25
350.356	301.78
350.808	280.72
351.26	308.8
351.711	315.83
352.163	341.57
352.615	329.87
353.066	341.57
353.518	341.57
353.969	318.17
354.421	306.46
354.872	306.46
355.324	259.65
355.775	348.59
356.226	318.17
356.677	294.76
357.128	327.53
357.579	266.67
358.03	254.97
358.481	322.85
358.932	325.19
359.383	318.17
359.834	278.38
360.285	283.06
360.735	273.7
361.186	299.44
361.637	285.4
362.087	350.93
362.538	311.14
362.988	311.14
363.438	280.72
363.889	292.42
364.339	301.78
364.789	226.89
365.239	306.46
365.689	322.85
366.139	231.57
366.589	339.23
367.039	226.89
367.489	304.12
367.939	287.74
368.389	322.85
368.839	301.78
369.288	301.78
369.738	264.33
370.187	304.12
370.637	273.7
371.086	269.02
371.536	297.1
371.985	306.46
372.434	320.51
372.884	334.55
373.333	285.4
373.782	261.99
374.231	271.36
374.68	320.51
375.129	304.12
375.578	297.1
376.027	322.85
376.475	322.85
376.924	278.38
377.373	348.59
377.822	304.12
378.27	343.91
378.719	306.46
379.167	285.4
379.616	325.19
380.064	278.38
380.512	318.17
380.961	341.57
381.409	301.78
381.857	266.67
382.305	285.4
382.753	261.99
383.201	357.96
383.649	320.51
384.097	269.02
384.545	334.55
384.992	304.12
385.44	315.83
385.888	334.55
386.335	336.89
386.783	327.53
387.231	315.83
387.678	233.91
388.125	290.08
388.573	341.57
389.02	261.99
389.467	290.08
389.914	364.98
390.362	294.76
390.809	301.78
391.256	219.86
391.703	332.21
392.15	346.25
392.596	311.14
393.043	250.29
393.49	278.38
393.937	325.19
394.383	332.21
394.83	240.93
395.276	318.17
395.723	261.99
396.169	304.12
396.616	297.1
397.062	271.36
397.508	346.25
397.954	308.8
398.401	283.06
398.847	280.72
399.293	205.82
399.739	350.93
400.185	360.3
400.631	357.96
401.076	304.12
401.522	280.72
401.968	273.7
402.414	297.1
402.859	348.59
403.305	287.74
403.75	322.85
404.196	311.14
404.641	327.53
405.086	315.83
405.532	313.49
405.977	329.87
406.422	334.55
406.867	299.44
407.312	313.49
407.757	381.36
408.202	311.14
408.647	271.36
409.092	299.44
409.537	278.38
409.982	304.12
410.426	311.14
410.871	393.06
411.316	360.3
411.76	290.08
412.205	329.87
412.649	273.7
413.093	276.04
413.538	339.23
413.982	299.44
414.426	297.1
414.87	273.7
415.314	297.1
415.758	329.87
416.202	299.44
416.646	294.76
417.09	297.1
417.534	355.62
417.978	311.14
418.421	304.12
418.865	306.46
419.309	332.21
419.752	276.04
420.196	357.96
420.639	278.38
421.083	299.44
421.526	301.78
421.969	329.87
422.412	278.38
422.856	332.21
423.299	299.44
423.742	301.78
424.185	301.78
424.628	327.53
425.071	297.1
425.513	341.57
425.956	301.78
426.399	329.87
426.842	313.49
427.284	299.44
427.727	315.83
428.169	254.97
428.612	250.29
429.054	297.1
429.497	290.08
429.939	322.85
430.381	254.97
430.823	219.86
431.265	308.8
431.707	341.57
432.149	259.65
432.591	212.84
433.033	245.61
433.475	266.67
433.917	334.55
434.359	308.8
434.8	285.4
435.242	287.74
435.684	283.06
436.125	276.04
436.567	290.08
437.008	320.51
437.449	313.49
437.891	334.55
438.332	297.1
438.773	280.72
439.214	320.51
439.656	367.32
440.097	276.04
440.538	304.12
440.978	294.76
441.419	362.64
441.86	320.51
442.301	269.02
442.742	269.02
443.182	301.78
443.623	290.08
444.063	264.33
444.504	346.25
444.944	271.36
445.385	320.51
445.825	290.08
446.265	306.46
446.706	271.36
447.146	252.63
447.586	297.1
448.026	285.4
448.466	350.93
448.906	332.21
449.346	341.57
449.786	266.67
450.225	278.38
450.665	334.55
451.105	311.14
451.544	315.83
451.984	283.06
452.424	299.44
452.863	318.17
453.302	381.36
453.742	238.59
454.181	367.32
454.62	308.8
455.059	308.8
455.499	290.08
455.938	325.19
456.377	320.51
456.816	318.17
457.254	336.89
457.693	285.4
458.132	294.76
458.571	292.42
459.01	299.44
459.448	308.8
459.887	311.14
460.325	311.14
460.764	315.83
461.202	355.62
461.641	341.57
462.079	264.33
462.517	334.55
462.955	360.3
463.393	332.21
463.832	357.96
464.27	259.65
464.708	276.04
465.145	273.7
465.583	287.74
466.021	329.87
466.459	327.53
466.897	315.83
467.334	372
467.772	257.31
468.209	357.96
468.647	341.57
469.084	257.31
469.522	280.72
469.959	357.96
470.396	306.46
470.833	283.06
471.271	334.55
471.708	332.21
472.145	343.91
472.582	308.8
473.019	287.74
473.456	322.85
473.892	264.33
474.329	346.25
474.766	308.8
475.202	271.36
475.639	278.38
476.076	311.14
476.512	299.44
476.949	369.66
477.385	350.93
477.821	276.04
478.258	320.51
478.694	271.36
479.13	320.51
479.566	334.55
480.002	348.59
480.438	348.59
480.874	350.93
481.31	254.97
481.746	276.04
482.181	297.1
482.617	339.23
483.053	311.14
483.488	273.7
483.924	306.46
484.36	313.49
484.795	273.7
485.23	353.27
485.666	376.68
486.101	290.08
486.536	357.96
486.971	306.46
487.407	350.93
487.842	362.64
488.277	257.31
488.712	325.19
489.146	304.12
489.581	301.78
490.016	308.8
490.451	329.87
490.885	308.8
491.32	315.83
491.755	236.25
492.189	271.36
492.624	278.38
493.058	407.11
493.492	369.66
493.927	306.46
494.361	327.53
494.795	346.25
495.229	315.83
495.663	301.78
496.097	266.67
496.531	276.04
496.965	369.66
497.399	332.21
497.833	273.7
498.266	320.51
498.7	311.14
499.134	334.55
499.567	269.02
500.001	315.83
500.434	311.14
500.868	353.27
501.301	280.72
501.734	308.8
502.168	327.53
502.601	334.55
503.034	341.57
503.467	271.36
503.9	313.49
504.333	332.21
504.766	364.98
505.199	301.78
505.632	360.3
506.064	329.87
506.497	278.38
506.93	280.72
507.362	315.83
507.795	269.02
508.227	334.55
508.66	294.76
509.092	322.85
509.524	322.85
509.956	322.85
510.389	271.36
510.821	315.83
511.253	329.87
511.685	259.65
512.117	306.46
512.549	332.21
512.981	336.89
513.412	311.14
513.844	308.8
514.276	252.63
514.707	334.55
515.139	299.44
515.571	283.06
516.002	379.02
516.433	285.4
516.865	332.21
517.296	299.44
517.727	278.38
518.159	301.78
518.59	264.33
519.021	311.14
519.452	308.8
519.883	322.85
520.314	283.06
520.744	278.38
521.175	315.83
521.606	290.08
522.037	287.74
522.467	325.19
522.898	257.31
523.328	285.4
523.759	336.89
524.189	322.85
524.62	355.62
525.05	320.51
525.48	320.51
525.91	247.95
526.341	353.27
526.771	294.76
527.201	320.51
527.631	287.74
528.061	292.42
528.49	350.93
528.92	311.14
529.35	259.65
529.78	327.53
530.209	315.83
530.639	339.23
531.068	301.78
531.498	346.25
531.927	252.63
532.357	276.04
532.786	273.7
533.215	306.46
533.644	327.53
534.074	341.57
534.503	283.06
534.932	259.65
535.361	304.12
535.79	285.4
536.218	287.74
536.647	306.46
537.076	271.36
537.505	231.57
537.933	297.1
538.362	332.21
538.79	229.23
539.219	304.12
539.647	276.04
540.076	294.76
540.504	329.87
540.932	269.02
541.36	292.42
541.788	306.46
542.217	320.51
542.645	353.27
543.073	379.02
543.5	222.2
543.928	313.49
544.356	343.91
544.784	252.63
545.211	325.19
545.639	299.44
546.067	301.78
546.494	332.21
546.922	243.27
547.349	299.44
547.776	322.85
548.204	339.23
548.631	357.96
549.058	261.99
549.485	290.08
549.912	381.36
550.339	348.59
550.766	334.55
551.193	276.04
551.62	388.38
552.047	238.59
552.474	311.14
552.9	276.04
553.327	311.14
553.754	320.51
554.18	278.38
554.607	301.78
555.033	297.1
555.459	273.7
555.886	264.33
556.312	280.72
556.738	292.42
557.164	308.8
557.59	283.06
558.016	283.06
558.442	332.21
558.868	301.78
559.294	247.95
559.72	254.97
560.145	269.02
560.571	301.78
560.997	278.38
561.422	348.59
561.848	306.46
562.273	280.72
562.699	269.02
563.124	271.36
563.549	273.7
563.974	280.72
564.4	332.21
564.825	247.95
565.25	299.44
565.675	315.83
566.1	308.8
566.525	264.33
566.95	273.7
567.374	336.89
567.799	341.57
568.224	280.72
568.648	287.74
569.073	325.19
569.497	285.4
569.922	306.46
570.346	304.12
570.771	322.85
571.195	191.78
571.619	315.83
572.043	360.3
572.467	306.46
572.891	348.59
573.315	287.74
573.739	369.66
574.163	297.1
574.587	299.44
575.011	339.23
575.435	350.93
575.858	264.33
576.282	313.49
576.705	271.36
577.129	297.1
577.552	357.96
577.976	297.1
578.399	357.96
578.822	285.4
579.245	355.62
579.669	357.96
580.092	290.08
580.515	217.52
580.938	283.06
581.361	261.99
581.784	264.33
582.206	304.12
582.629	329.87
583.052	292.42
583.474	294.76
583.897	287.74
584.32	297.1
584.742	339.23
585.165	311.14
585.587	372
586.009	341.57
586.431	341.57
586.854	306.46
587.276	306.46
587.698	322.85
588.12	325.19
588.542	306.46
588.964	327.53
589.386	276.04
589.807	292.42
590.229	290.08
590.651	299.44
591.073	299.44
591.494	343.91
591.916	283.06
592.337	308.8
592.759	355.62
593.18	313.49
593.601	360.3
594.022	315.83
594.444	229.23
594.865	299.44
595.286	259.65
595.707	297.1
596.128	336.89
596.549	283.06
596.97	299.44
597.39	308.8
597.811	261.99
598.232	266.67
598.652	264.33
599.073	266.67
599.494	252.63
599.914	313.49
600.334	320.51
600.755	334.55
601.175	301.78
601.595	308.8
602.015	315.83
602.436	287.74
602.856	416.47
603.276	325.19
603.696	355.62
604.115	304.12
604.535	336.89
604.955	273.7
605.375	327.53
605.794	341.57
606.214	269.02
606.634	336.89
607.053	292.42
607.473	332.21
607.892	301.78
608.311	388.38
608.731	304.12
609.15	315.83
609.569	325.19
609.988	297.1
610.407	287.74
610.826	283.06
611.245	355.62
611.664	294.76
612.083	247.95
612.501	308.8
612.92	325.19
613.339	346.25
613.757	306.46
614.176	348.59
614.594	285.4
615.013	294.76
615.431	322.85
615.85	336.89
616.268	278.38
616.686	273.7
617.104	329.87
617.522	278.38
617.94	336.89
618.358	360.3
618.776	301.78
619.194	273.7
619.612	336.89
620.03	322.85
620.447	353.27
620.865	311.14
621.282	343.91
621.7	318.17
622.117	301.78
622.535	313.49
622.952	334.55
623.369	360.3
623.787	276.04
624.204	329.87
624.621	362.64
625.038	341.57
625.455	339.23
625.872	343.91
626.289	329.87
626.706	252.63
627.123	292.42
627.539	250.29
627.956	341.57
628.373	386.04
628.789	341.57
629.206	315.83
629.622	247.95
630.038	311.14
630.455	273.7
630.871	306.46
631.287	308.8
631.703	348.59
632.12	306.46
632.536	278.38
632.952	280.72
633.368	313.49
633.783	292.42
634.199	280.72
634.615	271.36
635.031	327.53
635.446	315.83
635.862	283.06
636.277	322.85
636.693	276.04
637.108	285.4
637.524	336.89
637.939	311.14
638.354	283.06
638.77	297.1
639.185	353.27
639.6	294.76
640.015	329.87
640.43	254.97
640.845	299.44
641.259	271.36
641.674	250.29
642.089	283.06
642.504	320.51
642.918	285.4
643.333	261.99
643.747	304.12
644.162	292.42
644.576	287.74
644.991	292.42
645.405	397.74
645.819	236.25
646.233	306.46
646.647	304.12
647.061	278.38
647.475	287.74
647.889	175.39
648.303	360.3
648.717	278.38
649.131	294.76
649.545	294.76
649.958	238.59
650.372	329.87
650.785	276.04
651.199	292.42
651.612	329.87
652.026	301.78
652.439	339.23
652.852	325.19
653.266	297.1
653.679	278.38
654.092	269.02
654.505	278.38
654.918	313.49
655.331	322.85
655.744	336.89
656.156	304.12
656.569	299.44
656.982	339.23
657.394	273.7
657.807	318.17
658.22	254.97
658.632	290.08
659.044	329.87
659.457	343.91
659.869	364.98
660.281	297.1
660.693	299.44
661.106	278.38
661.518	271.36
661.93	322.85
662.342	322.85
662.754	350.93
663.165	299.44
663.577	318.17
663.989	254.97
664.401	329.87
664.812	325.19
665.224	308.8
665.635	360.3
666.047	301.78
666.458	353.27
666.869	243.27
667.281	318.17
667.692	301.78
668.103	264.33
668.514	285.4
668.925	271.36
669.336	229.23
669.747	325.19
670.158	325.19
670.569	306.46
670.979	379.02
671.39	264.33
671.801	350.93
672.211	313.49
672.622	266.67
673.032	325.19
673.443	367.32
673.853	315.83
674.263	301.78
674.674	343.91
675.084	350.93
675.494	278.38
675.904	313.49
676.314	311.14
676.724	276.04
677.134	292.42
677.544	332.21
677.953	320.51
678.363	269.02
678.773	283.06
679.182	325.19
679.592	348.59
680.001	273.7
680.411	360.3
680.82	254.97
681.23	327.53
681.639	334.55
682.048	329.87
682.457	343.91
682.866	283.06
683.275	304.12
683.684	266.67
684.093	273.7
684.502	313.49
684.911	301.78
685.32	325.19
685.728	348.59
686.137	306.46
686.546	362.64
686.954	259.65
687.363	313.49
687.771	297.1
688.179	276.04
688.588	360.3
688.996	299.44
689.404	245.61
689.812	261.99
690.22	339.23
690.628	273.7
691.036	280.72
691.444	306.46
691.852	350.93
692.26	372
692.667	329.87
693.075	290.08
693.483	318.17
693.89	287.74
694.298	360.3
694.705	306.46
695.112	257.31
695.52	308.8
695.927	266.67
696.334	339.23
696.741	299.44
697.148	292.42
697.555	336.89
697.962	250.29
698.369	306.46
698.776	304.12
699.183	348.59
699.59	280.72
699.996	290.08
700.403	257.31
700.81	278.38
701.216	306.46
701.623	332.21
702.029	313.49
702.435	334.55
702.842	322.85
703.248	304.12
703.654	315.83
704.06	320.51
704.466	332.21
704.872	320.51
705.278	250.29
705.684	318.17
706.09	278.38
706.496	329.87
706.901	353.27
707.307	266.67
707.712	322.85
708.118	266.67
708.523	334.55
708.929	332.21
709.334	287.74
709.74	334.55
710.145	269.02
710.55	261.99
710.955	329.87
711.36	280.72
711.765	280.72
712.17	336.89
712.575	327.53
712.98	858.83
713.385	318.17
713.789	304.12
714.194	285.4
714.599	304.12
715.003	304.12
715.408	285.4
715.812	287.74
716.217	329.87
716.621	315.83
717.025	301.78
717.429	320.51
717.833	336.89
718.238	273.7
718.642	308.8
719.046	320.51
719.449	334.55
719.853	369.66
720.257	306.46
720.661	308.8
721.065	273.7
721.468	252.63
721.872	343.91
722.275	261.99
722.679	276.04
723.082	273.7
723.485	294.76
723.889	280.72
724.292	336.89
724.695	329.87
725.098	269.02
725.501	283.06
725.904	360.3
726.307	327.53
726.71	306.46
727.113	318.17
727.516	292.42
727.918	283.06
728.321	313.49
728.724	360.3
729.126	266.67
729.529	353.27
729.931	306.46
730.333	287.74
730.736	269.02
731.138	311.14
731.54	276.04
731.942	266.67
732.344	257.31
732.746	332.21
733.148	273.7
733.55	409.45
733.952	287.74
734.354	254.97
734.756	343.91
735.157	315.83
735.559	285.4
735.96	257.31
736.362	357.96
736.763	266.67
737.165	294.76
737.566	297.1
737.967	306.46
738.368	311.14
738.77	311.14
739.171	301.78
739.572	308.8
739.973	294.76
740.374	320.51
740.774	292.42
741.175	315.83
741.576	299.44
741.977	278.38
742.377	320.51
742.778	348.59
743.178	364.98
743.579	290.08
743.979	271.36
744.379	269.02
744.78	283.06
745.18	350.93
745.58	299.44
745.98	308.8
746.38	341.57
746.78	292.42
747.18	287.74
747.58	276.04
747.98	266.67
748.38	273.7
748.779	306.46
749.179	336.89
749.578	292.42
749.978	273.7
750.377	254.97
750.777	294.76
751.176	285.4
751.575	339.23
751.975	287.74
752.374	301.78
752.773	264.33
753.172	269.02
753.571	311.14
753.97	229.23
754.369	278.38
754.768	320.51
755.166	261.99
755.565	311.14
755.964	343.91
756.362	308.8
756.761	297.1
757.159	257.31
757.558	292.42
757.956	191.78
758.354	346.25
758.753	247.95
759.151	311.14
759.549	269.02
759.947	269.02
760.345	290.08
760.743	283.06
761.141	269.02
761.539	243.27
761.936	327.53
762.334	271.36
762.732	287.74
763.129	318.17
763.527	299.44
763.924	294.76
764.322	313.49
764.719	285.4
765.117	346.25
765.514	332.21
765.911	320.51
766.308	339.23
766.705	348.59
767.102	294.76
767.499	315.83
767.896	259.65
768.293	381.36
768.69	264.33
769.086	264.33
769.483	332.21
769.88	290.08
770.276	346.25
770.673	254.97
771.069	278.38
771.466	306.46
771.862	299.44
772.258	280.72
772.654	386.04
773.05	294.76
773.447	350.93
773.843	304.12
774.239	318.17
774.634	306.46
775.03	292.42
775.426	278.38
775.822	334.55
776.218	313.49
776.613	294.76
777.009	348.59
777.404	341.57
777.8	285.4
778.195	320.51
778.59	245.61
778.986	320.51
779.381	343.91
779.776	306.46
780.171	306.46
780.566	292.42
780.961	278.38
781.356	294.76
781.751	257.31
782.146	304.12
782.54	278.38
782.935	304.12
783.33	292.42
783.724	269.02
784.119	343.91
784.513	308.8
784.908	269.02
785.302	320.51
785.696	247.95
786.09	318.17
786.485	346.25
786.879	318.17
787.273	240.93
787.667	334.55
788.061	350.93
788.454	294.76
788.848	266.67
789.242	313.49
789.636	355.62
790.029	283.06
790.423	325.19
790.816	301.78
791.21	236.25
791.603	299.44
791.997	231.57
792.39	290.08
792.783	320.51
793.176	301.78
793.569	327.53
793.962	341.57
794.355	285.4
794.748	259.65
795.141	404.77
795.534	304.12
795.927	278.38
796.319	334.55
796.712	313.49
797.105	320.51
797.497	264.33
797.89	318.17
798.282	229.23
798.674	325.19
799.067	245.61
799.459	329.87
799.851	318.17
800.243	325.19
800.635	285.4
801.027	292.42
801.419	292.42
801.811	285.4
802.203	364.98
802.594	297.1
802.986	362.64
803.378	334.55
803.769	325.19
804.161	233.91
804.552	299.44
804.944	322.85
805.335	318.17
805.726	313.49
806.118	266.67
806.509	332.21
806.9	297.1
807.291	369.66
807.682	264.33
808.073	287.74
808.464	287.74
808.855	360.3
809.245	287.74
809.636	311.14
810.027	313.49
810.417	261.99
810.808	292.42
811.198	369.66
811.589	320.51
811.979	325.19
812.369	299.44
812.759	297.1
813.15	343.91
813.54	311.14
813.93	280.72
814.32	332.21
814.71	261.99
815.1	257.31
815.489	283.06
815.879	318.17
816.269	259.65
816.658	290.08
817.048	311.14
817.438	278.38
817.827	308.8
818.216	350.93
818.606	336.89
818.995	334.55
819.384	196.46
819.773	252.63
820.163	292.42
820.552	276.04
820.941	276.04
821.33	304.12
821.718	336.89
822.107	320.51
822.496	353.27
822.885	264.33
823.273	245.61
823.662	285.4
824.05	297.1
824.439	308.8
824.827	273.7
825.216	414.13
825.604	339.23
825.992	290.08
826.38	299.44
826.768	278.38
827.156	297.1
827.544	269.02
827.932	276.04
828.32	308.8
828.708	294.76
829.096	266.67
829.483	266.67
829.871	259.65
830.259	304.12
830.646	240.93
831.034	301.78
831.421	311.14
831.808	271.36
832.196	254.97
832.583	313.49
832.97	339.23
833.357	306.46
833.744	285.4
834.131	273.7
834.518	357.96
834.905	292.42
835.292	313.49
835.678	306.46
836.065	278.38
836.452	301.78
836.838	259.65
837.225	301.78
837.611	318.17
837.998	276.04
838.384	283.06
838.77	280.72
839.157	357.96
839.543	322.85
839.929	269.02
840.315	306.46
840.701	261.99
841.087	222.2
841.473	292.42
841.858	332.21
842.244	261.99
842.63	299.44
843.015	276.04
843.401	381.36
843.787	343.91
844.172	332.21
844.557	304.12
844.943	334.55
845.328	299.44
845.713	369.66
846.098	348.59
846.483	339.23
846.868	280.72
847.253	336.89
847.638	297.1
848.023	297.1
848.408	306.46
848.793	276.04
849.177	332.21
849.562	271.36
849.947	313.49
850.331	332.21
850.715	325.19
851.1	311.14
851.484	290.08
851.868	306.46
852.253	259.65
852.637	336.89
853.021	329.87
853.405	346.25
853.789	332.21
854.173	290.08
854.557	322.85
854.94	273.7
855.324	341.57
855.708	301.78
856.091	313.49
856.475	297.1
856.858	269.02
857.242	273.7
857.625	283.06
858.009	240.93
858.392	299.44
858.775	261.99
859.158	240.93
859.541	287.74
859.924	238.59
860.307	308.8
860.69	294.76
861.073	299.44
861.456	322.85
861.838	306.46
862.221	276.04
862.604	283.06
862.986	313.49
863.369	250.29
863.751	294.76
864.133	287.74
864.516	278.38
864.898	386.04
865.28	294.76
865.662	297.1
866.044	313.49
866.426	299.44
866.808	301.78
867.19	283.06
867.572	336.89
867.954	297.1
868.336	360.3
868.717	325.19
869.099	311.14
869.48	341.57
869.862	332.21
870.243	339.23
870.625	276.04
871.006	306.46
871.387	292.42
871.768	292.42
872.149	306.46
872.53	311.14
872.911	261.99
873.292	325.19
873.673	339.23
874.054	290.08
874.435	278.38
874.815	360.3
875.196	313.49
875.577	287.74
875.957	243.27
876.338	322.85
876.718	390.72
877.098	315.83
877.479	313.49
877.859	261.99
878.239	339.23
878.619	308.8
878.999	336.89
879.379	273.7
879.759	261.99
880.139	297.1
880.519	308.8
880.898	327.53
881.278	254.97
881.658	261.99
882.037	327.53
882.417	318.17
882.796	233.91
883.176	325.19
883.555	276.04
883.934	261.99
884.313	304.12
884.693	290.08
885.072	299.44
885.451	315.83
885.83	299.44
886.209	325.19
886.587	285.4
886.966	276.04
887.345	364.98
887.724	290.08
888.102	280.72
888.481	269.02
888.859	301.78
889.238	318.17
889.616	247.95
889.994	364.98
890.373	224.55
890.751	292.42
891.129	261.99
891.507	297.1
891.885	350.93
892.263	290.08
892.641	320.51
893.019	304.12
893.396	308.8
893.774	311.14
894.152	318.17
894.529	325.19
894.907	283.06
895.284	322.85
895.662	306.46
896.039	276.04
896.416	276.04
896.794	287.74
897.171	301.78
897.548	346.25
897.925	301.78
898.302	311.14
898.679	299.44
899.056	297.1
899.433	327.53
899.809	287.74
900.186	297.1
900.563	299.44
900.939	294.76
901.316	346.25
901.692	355.62
902.069	252.63
902.445	266.67
902.821	269.02
903.197	261.99
903.574	257.31
903.95	308.8
904.326	278.38
904.702	336.89
905.078	318.17
905.454	297.1
905.829	332.21
906.205	257.31
906.581	280.72
906.956	327.53
907.332	285.4
907.707	283.06
908.083	297.1
908.458	299.44
908.833	299.44
909.209	329.87
909.584	297.1
909.959	336.89
910.334	313.49
910.709	332.21
911.084	297.1
911.459	346.25
911.834	280.72
912.209	315.83
912.583	287.74
912.958	332.21
913.333	308.8
913.707	346.25
914.082	322.85
914.456	350.93
914.83	325.19
915.205	322.85
915.579	346.25
915.953	311.14
916.327	343.91
916.701	266.67
917.075	283.06
917.449	332.21
917.823	287.74
918.197	271.36
918.571	269.02
918.944	292.42
919.318	306.46
919.692	304.12
920.065	332.21
920.438	308.8
920.812	306.46
921.185	397.74
921.558	278.38
921.932	269.02
922.305	355.62
922.678	341.57
923.051	343.91
923.424	261.99
923.797	285.4
924.17	341.57
924.542	292.42
924.915	341.57
925.288	299.44
925.661	320.51
926.033	311.14
926.406	367.32
926.778	292.42
927.15	257.31
927.523	325.19
927.895	311.14
928.267	306.46
928.639	325.19
929.011	292.42
929.383	290.08
929.755	334.55
930.127	224.55
930.499	294.76
930.871	283.06
931.242	280.72
931.614	346.25
931.986	252.63
932.357	301.78
932.729	320.51
933.1	355.62
933.471	238.59
933.843	280.72
934.214	278.38
934.585	320.51
934.956	308.8
935.327	278.38
935.698	229.23
936.069	336.89
936.44	320.51
936.811	308.8
937.182	252.63
937.552	306.46
937.923	290.08
938.293	273.7
938.664	266.67
939.034	360.3
939.405	318.17
939.775	294.76
940.145	311.14
940.516	283.06
940.886	376.68
941.256	327.53
941.626	306.46
941.996	311.14
942.366	250.29
942.735	278.38
943.105	299.44
943.475	243.27
943.845	240.93
944.214	327.53
944.584	276.04
944.953	304.12
945.323	261.99
945.692	360.3
946.061	346.25
946.43	414.13
946.8	283.06
947.169	304.12
947.538	264.33
947.907	327.53
948.276	287.74
948.645	292.42
949.013	315.83
949.382	311.14
949.751	322.85
950.119	336.89
950.488	306.46
950.857	280.72
951.225	292.42
951.593	353.27
951.962	308.8
952.33	271.36
952.698	276.04
953.066	292.42
953.434	271.36
953.802	318.17
954.17	304.12
954.538	320.51
954.906	315.83
955.274	238.59
955.642	299.44
956.009	329.87
956.377	329.87
956.744	318.17
957.112	269.02
957.479	294.76
957.847	343.91
958.214	306.46
958.581	322.85
958.948	322.85
959.315	301.78
959.683	327.53
960.05	374.34
960.416	264.33
960.783	264.33
961.15	320.51
961.517	318.17
961.884	294.76
962.25	306.46
962.617	339.23
962.983	278.38
963.35	299.44
963.716	264.33
964.082	304.12
964.449	315.83
964.815	252.63
965.181	332.21
965.547	306.46
965.913	259.65
966.279	327.53
966.645	261.99
967.011	301.78
967.377	341.57
967.742	276.04
968.108	332.21
968.474	346.25
968.839	283.06
969.205	292.42
969.57	320.51
969.935	278.38
970.301	294.76
970.666	292.42
971.031	301.78
971.396	297.1
971.761	261.99
972.126	357.96
972.491	269.02
972.856	320.51
973.221	280.72
973.586	299.44
973.95	334.55
974.315	219.86
974.679	306.46
975.044	313.49
975.408	360.3
975.773	332.21
976.137	278.38
976.501	304.12
976.866	315.83
977.23	269.02
977.594	292.42
977.958	313.49
978.322	325.19
978.686	280.72
979.049	341.57
979.413	311.14
979.777	320.51
980.141	233.91
980.504	280.72
980.868	339.23
981.231	283.06
981.595	231.57
981.958	276.04
982.321	294.76
982.684	306.46
983.048	339.23
983.411	336.89
983.774	301.78
984.137	236.25
984.5	271.36
984.862	301.78
985.225	252.63
985.588	297.1
985.951	329.87
986.313	327.53
986.676	311.14
987.038	308.8
987.401	322.85
987.763	339.23
988.125	304.12
988.488	301.78
988.85	224.55
989.212	283.06
989.574	240.93
989.936	325.19
990.298	269.02
990.66	290.08
991.022	315.83
991.383	350.93
991.745	257.31
992.107	271.36
992.468	290.08
992.83	280.72
993.191	348.59
993.553	287.74
993.914	299.44
994.275	346.25
994.637	276.04
994.998	273.7
995.359	304.12
995.72	271.36
996.081	285.4
996.442	306.46
996.803	301.78
997.163	315.83
997.524	360.3
997.885	259.65
998.245	247.95
998.606	269.02
998.966	327.53
999.327	311.14
999.687	285.4
1000.047	306.46
1000.408	285.4
1000.768	294.76
1001.128	292.42
1001.488	325.19
1001.848	271.36
1002.208	320.51
1002.568	264.33
1002.927	292.42
1003.287	341.57
1003.647	285.4
1004.007	297.1
1004.366	292.42
1004.726	292.42
1005.085	311.14
1005.444	301.78
1005.804	285.4
1006.163	329.87
1006.522	254.97
1006.881	353.27
1007.24	315.83
1007.599	301.78
1007.958	250.29
1008.317	334.55
1008.676	318.17
1009.035	285.4
1009.393	283.06
1009.752	294.76
1010.111	327.53
1010.469	313.49
1010.828	273.7
1011.186	250.29
1011.544	315.83
1011.903	219.86
1012.261	306.46
1012.619	278.38
1012.977	276.04
1013.335	318.17
1013.693	278.38
1014.051	261.99
1014.409	224.55
1014.767	273.7
1015.124	285.4
1015.482	252.63
1015.84	346.25
1016.197	318.17
1016.555	217.52
1016.912	254.97
1017.269	304.12
1017.627	257.31
1017.984	322.85
1018.341	250.29
1018.698	269.02
1019.055	306.46
1019.412	264.33
1019.769	315.83
1020.126	261.99
1020.483	318.17
1020.84	299.44
1021.196	222.2
1021.553	290.08
1021.909	247.95
1022.266	308.8
1022.622	341.57
1022.979	388.38
1023.335	336.89
1023.691	283.06
1024.047	322.85
1024.404	311.14
1024.76	283.06
1025.116	294.76
1025.472	372
1025.827	278.38
1026.183	320.51
1026.539	273.7
1026.895	273.7
1027.25	313.49
1027.606	271.36
1027.961	306.46
1028.317	283.06
1028.672	287.74
1029.028	297.1
1029.383	327.53
1029.738	304.12
1030.093	240.93
1030.448	294.76
1030.803	318.17
1031.158	243.27
1031.513	287.74
1031.868	346.25
1032.223	254.97
1032.577	280.72
1032.932	252.63
1033.287	294.76
1033.641	332.21
1033.996	259.65
1034.35	313.49
1034.704	266.67
1035.059	278.38
1035.413	311.14
1035.767	311.14
1036.121	311.14
