Data from Al_FLMS009871__1140__16-36-04-791.txt Node

Date: Fri Mar 08 16:36:04 CST 2024
User: pe5414po
Spectrometer: FLMS00987
Trigger mode: 0
Integration Time (sec): 1.000000E-1
Scans to average: 1
Electric dark correction enabled: true
Nonlinearity correction enabled: false
Boxcar width: 0
XAxis mode: Wavelengths
Number of Pixels in Spectrum: 2048
>>>>>Begin Spectral Data<<<<<
188.938	-109.86
189.409	-109.86
189.879	-109.86
190.349	-88.79
190.819	-151.99
191.29	-102.84
191.76	-100.5
192.23	-102.84
192.7	-65.39
193.17	-105.18
193.64	-72.41
194.109	-41.98
194.579	-16.24
195.049	-11.56
195.519	11.85
195.988	79.72
196.458	65.68
196.927	121.85
197.397	82.07
197.866	79.72
198.336	178.03
198.805	142.92
199.274	147.6
199.744	100.79
200.213	159.3
200.682	171.01
201.151	220.16
201.62	222.5
202.089	208.45
202.558	217.82
203.027	192.07
203.495	215.48
203.964	194.41
204.433	252.92
204.902	224.84
205.37	196.75
205.839	208.45
206.307	302.08
206.776	208.45
207.244	269.31
207.712	278.67
208.181	262.29
208.649	248.24
209.117	290.37
209.585	344.21
210.053	208.45
210.521	222.5
210.989	290.37
211.457	297.39
211.925	302.08
212.393	276.33
212.861	302.08
213.328	213.14
213.796	241.22
214.264	309.1
214.731	252.92
215.199	295.05
215.666	255.26
216.133	231.86
216.601	250.58
217.068	316.12
217.535	299.73
218.003	262.29
218.47	297.39
218.937	194.41
219.404	189.73
219.871	320.8
220.338	264.63
220.805	302.08
221.271	236.54
221.738	281.01
222.205	262.29
222.671	178.03
223.138	224.84
223.605	243.56
224.071	241.22
224.538	288.03
225.004	245.9
225.47	213.14
225.937	278.67
226.403	320.8
226.869	259.95
227.335	262.29
227.801	264.63
228.267	255.26
228.733	248.24
229.199	273.99
229.665	278.67
230.131	318.46
230.597	224.84
231.062	266.97
231.528	332.5
231.994	325.48
232.459	344.21
232.925	306.76
233.39	257.61
233.856	304.42
234.321	283.35
234.786	292.71
235.252	316.12
235.717	266.97
236.182	285.69
236.647	313.78
237.112	201.43
237.577	255.26
238.042	266.97
238.507	271.65
238.972	252.92
239.436	295.05
239.901	234.2
240.366	299.73
240.83	334.84
241.295	259.95
241.76	299.73
242.224	217.82
242.688	288.03
243.153	316.12
243.617	231.86
244.081	222.5
244.545	290.37
245.01	283.35
245.474	288.03
245.938	264.63
246.402	302.08
246.866	297.39
247.33	248.24
247.793	227.18
248.257	248.24
248.721	262.29
249.185	278.67
249.648	266.97
250.112	248.24
250.575	351.23
251.039	259.95
251.502	245.9
251.965	295.05
252.429	271.65
252.892	248.24
253.355	208.45
253.818	281.01
254.281	257.61
254.744	227.18
255.207	281.01
255.67	248.24
256.133	278.67
256.596	360.59
257.059	313.78
257.522	292.71
257.984	220.16
258.447	231.86
258.909	318.46
259.372	290.37
259.834	266.97
260.297	318.46
260.759	222.5
261.221	269.31
261.684	339.52
262.146	266.97
262.608	227.18
263.07	339.52
263.532	273.99
263.994	304.42
264.456	313.78
264.918	266.97
265.38	276.33
265.842	248.24
266.303	271.65
266.765	281.01
267.227	304.42
267.688	374.63
268.15	323.14
268.611	250.58
269.072	259.95
269.534	281.01
269.995	222.5
270.456	323.14
270.918	273.99
271.379	297.39
271.84	297.39
272.301	297.39
272.762	281.01
273.223	276.33
273.684	255.26
274.144	311.44
274.605	283.35
275.066	330.16
275.527	276.33
275.987	332.5
276.448	355.91
276.908	309.1
277.369	285.69
277.829	313.78
278.289	252.92
278.75	372.29
279.21	273.99
279.67	262.29
280.13	313.78
280.59	306.76
281.05	241.22
281.51	323.14
281.97	344.21
282.43	243.56
282.89	264.63
283.35	259.95
283.809	271.65
284.269	297.39
284.729	264.63
285.188	332.5
285.648	302.08
286.107	311.44
286.567	316.12
287.026	243.56
287.485	313.78
287.944	299.73
288.404	332.5
288.863	316.12
289.322	311.44
289.781	304.42
290.24	353.57
290.699	281.01
291.158	292.71
291.616	285.69
292.075	295.05
292.534	236.54
292.992	245.9
293.451	313.78
293.91	332.5
294.368	309.1
294.827	281.01
295.285	290.37
295.743	252.92
296.202	313.78
296.66	316.12
297.118	156.96
297.576	283.35
298.034	330.16
298.492	299.73
298.95	278.67
299.408	278.67
299.866	313.78
300.324	295.05
300.781	353.57
301.239	302.08
301.697	278.67
302.154	243.56
302.612	313.78
303.069	236.54
303.527	351.23
303.984	311.44
304.441	316.12
304.899	281.01
305.356	346.55
305.813	313.78
306.27	309.1
306.727	255.26
307.184	273.99
307.641	236.54
308.098	318.46
308.555	302.08
309.012	327.82
309.468	224.84
309.925	271.65
310.382	259.95
310.838	285.69
311.295	320.8
311.751	213.14
312.208	320.8
312.664	264.63
313.12	299.73
313.577	309.1
314.033	245.9
314.489	318.46
314.945	271.65
315.401	250.58
315.857	269.31
316.313	295.05
316.769	297.39
317.225	348.89
317.681	297.39
318.136	288.03
318.592	332.5
319.048	194.41
319.503	304.42
319.959	288.03
320.414	330.16
320.869	299.73
321.325	306.76
321.78	323.14
322.235	292.71
322.691	332.5
323.146	348.89
323.601	306.76
324.056	257.61
324.511	323.14
324.966	304.42
325.421	271.65
325.875	245.9
326.33	309.1
326.785	266.97
327.24	355.91
327.694	250.58
328.149	266.97
328.603	283.35
329.058	257.61
329.512	353.57
329.966	372.29
330.421	318.46
330.875	215.48
331.329	341.86
331.783	283.35
332.237	306.76
332.691	306.76
333.145	311.44
333.599	290.37
334.053	266.97
334.507	302.08
334.96	372.29
335.414	271.65
335.868	339.52
336.321	299.73
336.775	271.65
337.228	362.93
337.682	358.25
338.135	323.14
338.588	353.57
339.042	344.21
339.495	334.84
339.948	337.18
340.401	309.1
340.854	330.16
341.307	297.39
341.76	316.12
342.213	292.71
342.666	306.76
343.119	313.78
343.571	348.89
344.024	288.03
344.477	341.86
344.929	292.71
345.382	355.91
345.834	323.14
346.287	320.8
346.739	285.69
347.191	402.72
347.644	353.57
348.096	318.46
348.548	285.69
349	234.2
349.452	231.86
349.904	339.52
350.356	367.61
350.808	309.1
351.26	330.16
351.711	292.71
352.163	295.05
352.615	360.59
353.066	269.31
353.518	369.95
353.969	313.78
354.421	360.59
354.872	323.14
355.324	292.71
355.775	285.69
356.226	276.33
356.677	262.29
357.128	374.63
357.579	355.91
358.03	290.37
358.481	309.1
358.932	311.44
359.383	395.7
359.834	320.8
360.285	278.67
360.735	245.9
361.186	313.78
361.637	332.5
362.087	290.37
362.538	330.16
362.988	299.73
363.438	313.78
363.889	323.14
364.339	259.95
364.789	379.31
365.239	320.8
365.689	332.5
366.139	285.69
366.589	278.67
367.039	309.1
367.489	346.55
367.939	295.05
368.389	313.78
368.839	269.31
369.288	334.84
369.738	259.95
370.187	290.37
370.637	341.86
371.086	292.71
371.536	250.58
371.985	297.39
372.434	311.44
372.884	337.18
373.333	290.37
373.782	348.89
374.231	358.25
374.68	266.97
375.129	367.61
375.578	334.84
376.027	332.5
376.475	262.29
376.924	355.91
377.373	327.82
377.822	241.22
378.27	327.82
378.719	292.71
379.167	334.84
379.616	306.76
380.064	330.16
380.512	353.57
380.961	290.37
381.409	292.71
381.857	288.03
382.305	341.86
382.753	283.35
383.201	302.08
383.649	285.69
384.097	306.76
384.545	252.92
384.992	295.05
385.44	281.01
385.888	248.24
386.335	278.67
386.783	236.54
387.231	290.37
387.678	273.99
388.125	295.05
388.573	353.57
389.02	276.33
389.467	386.33
389.914	332.5
390.362	360.59
390.809	330.16
391.256	341.86
391.703	332.5
392.15	299.73
392.596	285.69
393.043	281.01
393.49	313.78
393.937	309.1
394.383	306.76
394.83	313.78
395.276	339.52
395.723	374.63
396.169	297.39
396.616	334.84
397.062	309.1
397.508	309.1
397.954	264.63
398.401	367.61
398.847	292.71
399.293	292.71
399.739	306.76
400.185	276.33
400.631	285.69
401.076	379.31
401.522	295.05
401.968	316.12
402.414	360.59
402.859	271.65
403.305	281.01
403.75	281.01
404.196	292.71
404.641	323.14
405.086	372.29
405.532	264.63
405.977	362.93
406.422	309.1
406.867	323.14
407.312	292.71
407.757	290.37
408.202	344.21
408.647	334.84
409.092	332.5
409.537	252.92
409.982	273.99
410.426	405.06
410.871	334.84
411.316	351.23
411.76	288.03
412.205	323.14
412.649	281.01
413.093	292.71
413.538	281.01
413.982	306.76
414.426	299.73
414.87	311.44
415.314	257.61
415.758	288.03
416.202	245.9
416.646	302.08
417.09	281.01
417.534	351.23
417.978	325.48
418.421	299.73
418.865	243.56
419.309	273.99
419.752	281.01
420.196	292.71
420.639	339.52
421.083	330.16
421.526	309.1
421.969	306.76
422.412	318.46
422.856	299.73
423.299	309.1
423.742	367.61
424.185	391.02
424.628	306.76
425.071	362.93
425.513	320.8
425.956	351.23
426.399	302.08
426.842	273.99
427.284	283.35
427.727	374.63
428.169	285.69
428.612	299.73
429.054	365.27
429.497	295.05
429.939	288.03
430.381	332.5
430.823	259.95
431.265	325.48
431.707	318.46
432.149	213.14
432.591	304.42
433.033	320.8
433.475	325.48
433.917	302.08
434.359	245.9
434.8	393.36
435.242	327.82
435.684	334.84
436.125	365.27
436.567	341.86
437.008	302.08
437.449	269.31
437.891	292.71
438.332	316.12
438.773	360.59
439.214	332.5
439.656	330.16
440.097	327.82
440.538	344.21
440.978	341.86
441.419	290.37
441.86	295.05
442.301	288.03
442.742	306.76
443.182	332.5
443.623	302.08
444.063	313.78
444.504	302.08
444.944	325.48
445.385	281.01
445.825	323.14
446.265	327.82
446.706	290.37
447.146	292.71
447.586	358.25
448.026	365.27
448.466	316.12
448.906	320.8
449.346	327.82
449.786	252.92
450.225	334.84
450.665	255.26
451.105	323.14
451.544	288.03
451.984	297.39
452.424	273.99
452.863	285.69
453.302	365.27
453.742	381.65
454.181	311.44
454.62	299.73
455.059	327.82
455.499	292.71
455.938	283.35
456.377	313.78
456.816	330.16
457.254	306.76
457.693	313.78
458.132	281.01
458.571	313.78
459.01	276.33
459.448	320.8
459.887	299.73
460.325	409.74
460.764	309.1
461.202	351.23
461.641	365.27
462.079	292.71
462.517	353.57
462.955	320.8
463.393	374.63
463.832	264.63
464.27	266.97
464.708	339.52
465.145	313.78
465.583	297.39
466.021	355.91
466.459	323.14
466.897	355.91
467.334	295.05
467.772	316.12
468.209	259.95
468.647	285.69
469.084	269.31
469.522	290.37
469.959	297.39
470.396	316.12
470.833	346.55
471.271	339.52
471.708	316.12
472.145	316.12
472.582	306.76
473.019	316.12
473.456	393.36
473.892	348.89
474.329	306.76
474.766	302.08
475.202	297.39
475.639	316.12
476.076	332.5
476.512	302.08
476.949	281.01
477.385	334.84
477.821	339.52
478.258	276.33
478.694	266.97
479.13	264.63
479.566	325.48
480.002	238.88
480.438	351.23
480.874	355.91
481.31	360.59
481.746	302.08
482.181	355.91
482.617	295.05
483.053	320.8
483.488	318.46
483.924	323.14
484.36	316.12
484.795	346.55
485.23	341.86
485.666	311.44
486.101	355.91
486.536	339.52
486.971	325.48
487.407	341.86
487.842	327.82
488.277	278.67
488.712	229.52
489.146	297.39
489.581	304.42
490.016	339.52
490.451	330.16
490.885	351.23
491.32	330.16
491.755	295.05
492.189	398.04
492.624	304.42
493.058	398.04
493.492	313.78
493.927	337.18
494.361	285.69
494.795	304.42
495.229	271.65
495.663	351.23
496.097	264.63
496.531	299.73
496.965	318.46
497.399	250.58
497.833	313.78
498.266	285.69
498.7	311.44
499.134	306.76
499.567	330.16
500.001	299.73
500.434	332.5
500.868	323.14
501.301	283.35
501.734	304.42
502.168	273.99
502.601	341.86
503.034	285.69
503.467	290.37
503.9	369.95
504.333	323.14
504.766	351.23
505.199	341.86
505.632	302.08
506.064	323.14
506.497	337.18
506.93	262.29
507.362	327.82
507.795	290.37
508.227	271.65
508.66	288.03
509.092	236.54
509.524	353.57
509.956	334.84
510.389	320.8
510.821	316.12
511.253	379.31
511.685	311.44
512.117	367.61
512.549	257.61
512.981	250.58
513.412	295.05
513.844	351.23
514.276	309.1
514.707	351.23
515.139	311.44
515.571	313.78
516.002	355.91
516.433	325.48
516.865	318.46
517.296	341.86
517.727	341.86
518.159	358.25
518.59	306.76
519.021	273.99
519.452	295.05
519.883	295.05
520.314	266.97
520.744	362.93
521.175	360.59
521.606	337.18
522.037	360.59
522.467	271.65
522.898	358.25
523.328	351.23
523.759	311.44
524.189	313.78
524.62	320.8
525.05	337.18
525.48	309.1
525.91	337.18
526.341	346.55
526.771	299.73
527.201	334.84
527.631	316.12
528.061	325.48
528.49	292.71
528.92	283.35
529.35	353.57
529.78	330.16
530.209	344.21
530.639	360.59
531.068	318.46
531.498	344.21
531.927	337.18
532.357	269.31
532.786	276.33
533.215	288.03
533.644	302.08
534.074	320.8
534.503	306.76
534.932	309.1
535.361	297.39
535.79	285.69
536.218	341.86
536.647	311.44
537.076	302.08
537.505	330.16
537.933	393.36
538.362	299.73
538.79	304.42
539.219	341.86
539.647	337.18
540.076	250.58
540.504	334.84
540.932	248.24
541.36	309.1
541.788	292.71
542.217	306.76
542.645	302.08
543.073	346.55
543.5	376.97
543.928	341.86
544.356	297.39
544.784	290.37
545.211	278.67
545.639	281.01
546.067	290.37
546.494	302.08
546.922	348.89
547.349	297.39
547.776	297.39
548.204	358.25
548.631	243.56
549.058	248.24
549.485	316.12
549.912	259.95
550.339	383.99
550.766	302.08
551.193	412.08
551.62	297.39
552.047	306.76
552.474	297.39
552.9	309.1
553.327	320.8
553.754	302.08
554.18	278.67
554.607	269.31
555.033	330.16
555.459	332.5
555.886	365.27
556.312	334.84
556.738	330.16
557.164	346.55
557.59	248.24
558.016	320.8
558.442	316.12
558.868	318.46
559.294	273.99
559.72	309.1
560.145	309.1
560.571	386.33
560.997	320.8
561.422	327.82
561.848	358.25
562.273	348.89
562.699	327.82
563.124	299.73
563.549	311.44
563.974	290.37
564.4	388.68
564.825	372.29
565.25	339.52
565.675	271.65
566.1	311.44
566.525	360.59
566.95	316.12
567.374	266.97
567.799	311.44
568.224	309.1
568.648	351.23
569.073	339.52
569.497	276.33
569.922	313.78
570.346	288.03
570.771	295.05
571.195	313.78
571.619	323.14
572.043	229.52
572.467	334.84
572.891	332.5
573.315	313.78
573.739	309.1
574.163	309.1
574.587	297.39
575.011	290.37
575.435	234.2
575.858	311.44
576.282	339.52
576.705	330.16
577.129	311.44
577.552	245.9
577.976	285.69
578.399	257.61
578.822	299.73
579.245	313.78
579.669	299.73
580.092	266.97
580.515	266.97
580.938	288.03
581.361	285.69
581.784	306.76
582.206	313.78
582.629	285.69
583.052	302.08
583.474	262.29
583.897	362.93
584.32	276.33
584.742	351.23
585.165	290.37
585.587	241.22
586.009	316.12
586.431	266.97
586.854	369.95
587.276	376.97
587.698	273.99
588.12	288.03
588.542	276.33
588.964	271.65
589.386	337.18
589.807	313.78
590.229	311.44
590.651	295.05
591.073	288.03
591.494	306.76
591.916	266.97
592.337	318.46
592.759	262.29
593.18	269.31
593.601	273.99
594.022	337.18
594.444	320.8
594.865	306.76
595.286	316.12
595.707	327.82
596.128	381.65
596.549	318.46
596.97	264.63
597.39	288.03
597.811	302.08
598.232	241.22
598.652	283.35
599.073	276.33
599.494	381.65
599.914	318.46
600.334	316.12
600.755	271.65
601.175	313.78
601.595	283.35
602.015	311.44
602.436	353.57
602.856	437.83
603.276	341.86
603.696	309.1
604.115	299.73
604.535	236.54
604.955	334.84
605.375	276.33
605.794	358.25
606.214	297.39
606.634	313.78
607.053	250.58
607.473	393.36
607.892	281.01
608.311	330.16
608.731	313.78
609.15	325.48
609.569	278.67
609.988	339.52
610.407	327.82
610.826	290.37
611.245	269.31
611.664	269.31
612.083	318.46
612.501	358.25
612.92	292.71
613.339	255.26
613.757	292.71
614.176	348.89
614.594	346.55
615.013	304.42
615.431	351.23
615.85	341.86
616.268	299.73
616.686	264.63
617.104	262.29
617.522	318.46
617.94	290.37
618.358	320.8
618.776	346.55
619.194	358.25
619.612	348.89
620.03	367.61
620.447	327.82
620.865	376.97
621.282	257.61
621.7	309.1
622.117	318.46
622.535	306.76
622.952	323.14
623.369	369.95
623.787	306.76
624.204	320.8
624.621	339.52
625.038	318.46
625.455	309.1
625.872	264.63
626.289	365.27
626.706	276.33
627.123	306.76
627.539	325.48
627.956	238.88
628.373	344.21
628.789	332.5
629.206	306.76
629.622	269.31
630.038	266.97
630.455	255.26
630.871	313.78
631.287	241.22
631.703	325.48
632.12	337.18
632.536	374.63
632.952	313.78
633.368	339.52
633.783	330.16
634.199	292.71
634.615	344.21
635.031	276.33
635.446	351.23
635.862	271.65
636.277	393.36
636.693	245.9
637.108	323.14
637.524	313.78
637.939	306.76
638.354	297.39
638.77	285.69
639.185	379.31
639.6	290.37
640.015	344.21
640.43	334.84
640.845	327.82
641.259	337.18
641.674	302.08
642.089	250.58
642.504	222.5
642.918	269.31
643.333	311.44
643.747	281.01
644.162	245.9
644.576	311.44
644.991	320.8
645.405	346.55
645.819	330.16
646.233	327.82
646.647	327.82
647.061	365.27
647.475	316.12
647.889	323.14
648.303	344.21
648.717	292.71
649.131	316.12
649.545	297.39
649.958	341.86
650.372	320.8
650.785	290.37
651.199	348.89
651.612	311.44
652.026	309.1
652.439	252.92
652.852	255.26
653.266	318.46
653.679	295.05
654.092	344.21
654.505	306.76
654.918	332.5
655.331	325.48
655.744	332.5
656.156	278.67
656.569	405.06
656.982	281.01
657.394	320.8
657.807	309.1
658.22	316.12
658.632	323.14
659.044	320.8
659.457	252.92
659.869	358.25
660.281	320.8
660.693	266.97
661.106	332.5
661.518	250.58
661.93	295.05
662.342	313.78
662.754	327.82
663.165	215.48
663.577	302.08
663.989	332.5
664.401	295.05
664.812	325.48
665.224	316.12
665.635	318.46
666.047	271.65
666.458	299.73
666.869	297.39
667.281	348.89
667.692	320.8
668.103	278.67
668.514	348.89
668.925	358.25
669.336	266.97
669.747	318.46
670.158	292.71
670.569	252.92
670.979	332.5
671.39	388.68
671.801	330.16
672.211	271.65
672.622	311.44
673.032	337.18
673.443	290.37
673.853	374.63
674.263	288.03
674.674	318.46
675.084	302.08
675.494	376.97
675.904	339.52
676.314	316.12
676.724	288.03
677.134	313.78
677.544	332.5
677.953	323.14
678.363	316.12
678.773	334.84
679.182	276.33
679.592	327.82
680.001	318.46
680.411	339.52
680.82	269.31
681.23	318.46
681.639	292.71
682.048	297.39
682.457	332.5
682.866	288.03
683.275	320.8
683.684	313.78
684.093	353.57
684.502	224.84
684.911	325.48
685.32	309.1
685.728	309.1
686.137	348.89
686.546	306.76
686.954	278.67
687.363	306.76
687.771	306.76
688.179	332.5
688.588	339.52
688.996	348.89
689.404	339.52
689.812	348.89
690.22	295.05
690.628	323.14
691.036	229.52
691.444	309.1
691.852	309.1
692.26	337.18
692.667	285.69
693.075	351.23
693.483	316.12
693.89	297.39
694.298	367.61
694.705	276.33
695.112	271.65
695.52	273.99
695.927	302.08
696.334	365.27
696.741	295.05
697.148	344.21
697.555	337.18
697.962	290.37
698.369	339.52
698.776	341.86
699.183	311.44
699.59	386.33
699.996	358.25
700.403	365.27
700.81	271.65
701.216	309.1
701.623	346.55
702.029	281.01
702.435	320.8
702.842	344.21
703.248	302.08
703.654	269.31
704.06	311.44
704.466	295.05
704.872	292.71
705.278	332.5
705.684	302.08
706.09	299.73
706.496	313.78
706.901	337.18
707.307	290.37
707.712	318.46
708.118	297.39
708.523	238.88
708.929	330.16
709.334	250.58
709.74	362.93
710.145	306.76
710.55	351.23
710.955	248.24
711.36	288.03
711.765	320.8
712.17	278.67
712.575	337.18
712.98	870.83
713.385	330.16
713.789	346.55
714.194	273.99
714.599	311.44
715.003	278.67
715.408	313.78
715.812	278.67
716.217	341.86
716.621	337.18
717.025	330.16
717.429	252.92
717.833	325.48
718.238	304.42
718.642	269.31
719.046	355.91
719.449	297.39
719.853	288.03
720.257	323.14
720.661	339.52
721.065	288.03
721.468	292.71
721.872	278.67
722.275	243.56
722.679	304.42
723.082	306.76
723.485	304.42
723.889	330.16
724.292	330.16
724.695	252.92
725.098	278.67
725.501	309.1
725.904	309.1
726.307	355.91
726.71	320.8
727.113	292.71
727.516	311.44
727.918	330.16
728.321	306.76
728.724	351.23
729.126	337.18
729.529	318.46
729.931	295.05
730.333	273.99
730.736	318.46
731.138	273.99
731.54	358.25
731.942	304.42
732.344	327.82
732.746	273.99
733.148	309.1
733.55	346.55
733.952	271.65
734.354	297.39
734.756	341.86
735.157	255.26
735.559	288.03
735.96	278.67
736.362	297.39
736.763	360.59
737.165	281.01
737.566	264.63
737.967	306.76
738.368	330.16
738.77	276.33
739.171	316.12
739.572	313.78
739.973	273.99
740.374	313.78
740.774	318.46
741.175	213.14
741.576	304.42
741.977	318.46
742.377	313.78
742.778	334.84
743.178	320.8
743.579	290.37
743.979	316.12
744.379	360.59
744.78	306.76
745.18	365.27
745.58	353.57
745.98	302.08
746.38	318.46
746.78	344.21
747.18	316.12
747.58	376.97
747.98	285.69
748.38	376.97
748.779	245.9
749.179	259.95
749.578	318.46
749.978	327.82
750.377	323.14
750.777	313.78
751.176	353.57
751.575	278.67
751.975	288.03
752.374	243.56
752.773	266.97
753.172	311.44
753.571	302.08
753.97	245.9
754.369	362.93
754.768	281.01
755.166	313.78
755.565	266.97
755.964	337.18
756.362	316.12
756.761	306.76
757.159	383.99
757.558	295.05
757.956	278.67
758.354	306.76
758.753	288.03
759.151	353.57
759.549	262.29
759.947	348.89
760.345	259.95
760.743	297.39
761.141	302.08
761.539	297.39
761.936	290.37
762.334	278.67
762.732	320.8
763.129	290.37
763.527	325.48
763.924	330.16
764.322	353.57
764.719	276.33
765.117	362.93
765.514	259.95
765.911	295.05
766.308	269.31
766.705	313.78
767.102	227.18
767.499	278.67
767.896	323.14
768.293	311.44
768.69	374.63
769.086	351.23
769.483	292.71
769.88	323.14
770.276	341.86
770.673	330.16
771.069	318.46
771.466	309.1
771.862	295.05
772.258	323.14
772.654	295.05
773.05	283.35
773.447	325.48
773.843	281.01
774.239	313.78
774.634	341.86
775.03	360.59
775.426	297.39
775.822	320.8
776.218	304.42
776.613	388.68
777.009	351.23
777.404	292.71
777.8	276.33
778.195	295.05
778.59	299.73
778.986	266.97
779.381	388.68
779.776	281.01
780.171	262.29
780.566	320.8
780.961	337.18
781.356	281.01
781.751	348.89
782.146	259.95
782.54	327.82
782.935	320.8
783.33	259.95
783.724	327.82
784.119	316.12
784.513	339.52
784.908	295.05
785.302	306.76
785.696	292.71
786.09	311.44
786.485	323.14
786.879	313.78
787.273	306.76
787.667	304.42
788.061	379.31
788.454	332.5
788.848	281.01
789.242	302.08
789.636	341.86
790.029	323.14
790.423	360.59
790.816	311.44
791.21	295.05
791.603	257.61
791.997	238.88
792.39	304.42
792.783	281.01
793.176	271.65
793.569	262.29
793.962	313.78
794.355	285.69
794.748	292.71
795.141	344.21
795.534	302.08
795.927	309.1
796.319	360.59
796.712	229.52
797.105	334.84
797.497	337.18
797.89	311.44
798.282	351.23
798.674	309.1
799.067	330.16
799.459	292.71
799.851	295.05
800.243	295.05
800.635	320.8
801.027	276.33
801.419	271.65
801.811	318.46
802.203	290.37
802.594	327.82
802.986	327.82
803.378	353.57
803.769	325.48
804.161	311.44
804.552	325.48
804.944	316.12
805.335	339.52
805.726	320.8
806.118	281.01
806.509	283.35
806.9	222.5
807.291	341.86
807.682	276.33
808.073	311.44
808.464	290.37
808.855	376.97
809.245	323.14
809.636	332.5
810.027	262.29
810.417	306.76
810.808	299.73
811.198	341.86
811.589	295.05
811.979	376.97
812.369	236.54
812.759	250.58
813.15	341.86
813.54	266.97
813.93	313.78
814.32	383.99
814.71	302.08
815.1	276.33
815.489	299.73
815.879	327.82
816.269	245.9
816.658	365.27
817.048	299.73
817.438	283.35
817.827	339.52
818.216	327.82
818.606	306.76
818.995	269.31
819.384	271.65
819.773	337.18
820.163	316.12
820.552	334.84
820.941	320.8
821.33	278.67
821.718	273.99
822.107	283.35
822.496	325.48
822.885	290.37
823.273	264.63
823.662	323.14
824.05	313.78
824.439	306.76
824.827	283.35
825.216	285.69
825.604	304.42
825.992	341.86
826.38	306.76
826.768	313.78
827.156	299.73
827.544	337.18
827.932	304.42
828.32	227.18
828.708	332.5
829.096	376.97
829.483	288.03
829.871	285.69
830.259	318.46
830.646	257.61
831.034	341.86
831.421	316.12
831.808	295.05
832.196	353.57
832.583	281.01
832.97	337.18
833.357	348.89
833.744	341.86
834.131	325.48
834.518	348.89
834.905	316.12
835.292	276.33
835.678	383.99
836.065	273.99
836.452	285.69
836.838	278.67
837.225	309.1
837.611	311.44
837.998	299.73
838.384	304.42
838.77	269.31
839.157	288.03
839.543	388.68
839.929	302.08
840.315	332.5
840.701	288.03
841.087	245.9
841.473	337.18
841.858	318.46
842.244	337.18
842.63	358.25
843.015	285.69
843.401	325.48
843.787	334.84
844.172	372.29
844.557	234.2
844.943	313.78
845.328	264.63
845.713	297.39
846.098	311.44
846.483	311.44
846.868	243.56
847.253	346.55
847.638	283.35
848.023	341.86
848.408	365.27
848.793	306.76
849.177	316.12
849.562	238.88
849.947	299.73
850.331	367.61
850.715	325.48
851.1	306.76
851.484	262.29
851.868	330.16
852.253	299.73
852.637	288.03
853.021	311.44
853.405	334.84
853.789	337.18
854.173	358.25
854.557	264.63
854.94	266.97
855.324	302.08
855.708	325.48
856.091	295.05
856.475	337.18
856.858	313.78
857.242	271.65
857.625	269.31
858.009	337.18
858.392	330.16
858.775	299.73
859.158	316.12
859.541	292.71
859.924	353.57
860.307	327.82
860.69	367.61
861.073	292.71
861.456	276.33
861.838	376.97
862.221	292.71
862.604	295.05
862.986	327.82
863.369	243.56
863.751	332.5
864.133	365.27
864.516	323.14
864.898	306.76
865.28	353.57
865.662	262.29
866.044	311.44
866.426	337.18
866.808	241.22
867.19	255.26
867.572	236.54
867.954	313.78
868.336	358.25
868.717	264.63
869.099	285.69
869.48	271.65
869.862	281.01
870.243	360.59
870.625	304.42
871.006	285.69
871.387	297.39
871.768	316.12
872.149	248.24
872.53	229.52
872.911	215.48
873.292	334.84
873.673	283.35
874.054	346.55
874.435	355.91
874.815	283.35
875.196	264.63
875.577	323.14
875.957	334.84
876.338	297.39
876.718	285.69
877.098	341.86
877.479	323.14
877.859	316.12
878.239	297.39
878.619	276.33
878.999	365.27
879.379	318.46
879.759	372.29
880.139	306.76
880.519	295.05
880.898	288.03
881.278	273.99
881.658	288.03
882.037	339.52
882.417	304.42
882.796	302.08
883.176	360.59
883.555	325.48
883.934	337.18
884.313	383.99
884.693	327.82
885.072	313.78
885.451	362.93
885.83	259.95
886.209	297.39
886.587	362.93
886.966	341.86
887.345	320.8
887.724	339.52
888.102	306.76
888.481	330.16
888.859	346.55
889.238	379.31
889.616	290.37
889.994	325.48
890.373	299.73
890.751	283.35
891.129	355.91
891.507	330.16
891.885	334.84
892.263	288.03
892.641	271.65
893.019	311.44
893.396	252.92
893.774	302.08
894.152	292.71
894.529	306.76
894.907	360.59
895.284	353.57
895.662	346.55
896.039	262.29
896.416	222.5
896.794	295.05
897.171	288.03
897.548	297.39
897.925	250.58
898.302	283.35
898.679	299.73
899.056	241.22
899.433	255.26
899.809	316.12
900.186	271.65
900.563	330.16
900.939	288.03
901.316	346.55
901.692	292.71
902.069	278.67
902.445	238.88
902.821	283.35
903.197	217.82
903.574	355.91
903.95	348.89
904.326	281.01
904.702	276.33
905.078	271.65
905.454	367.61
905.829	323.14
906.205	316.12
906.581	309.1
906.956	302.08
907.332	323.14
907.707	276.33
908.083	311.44
908.458	302.08
908.833	360.59
909.209	295.05
909.584	341.86
909.959	295.05
910.334	369.95
910.709	299.73
911.084	285.69
911.459	309.1
911.834	234.2
912.209	266.97
912.583	334.84
912.958	383.99
913.333	316.12
913.707	250.58
914.082	295.05
914.456	358.25
914.83	269.31
915.205	292.71
915.579	297.39
915.953	318.46
916.327	295.05
916.701	292.71
917.075	295.05
917.449	302.08
917.823	283.35
918.197	360.59
918.571	266.97
918.944	234.2
919.318	295.05
919.692	327.82
920.065	257.61
920.438	285.69
920.812	302.08
921.185	266.97
921.558	278.67
921.932	295.05
922.305	271.65
922.678	299.73
923.051	276.33
923.424	227.18
923.797	271.65
924.17	330.16
924.542	283.35
924.915	318.46
925.288	271.65
925.661	292.71
926.033	248.24
926.406	323.14
926.778	302.08
927.15	288.03
927.523	341.86
927.895	309.1
928.267	281.01
928.639	229.52
929.011	269.31
929.383	276.33
929.755	306.76
930.127	264.63
930.499	318.46
930.871	330.16
931.242	341.86
931.614	269.31
931.986	295.05
932.357	264.63
932.729	304.42
933.1	332.5
933.471	316.12
933.843	332.5
934.214	355.91
934.585	309.1
934.956	341.86
935.327	344.21
935.698	304.42
936.069	334.84
936.44	264.63
936.811	248.24
937.182	348.89
937.552	318.46
937.923	344.21
938.293	337.18
938.664	309.1
939.034	337.18
939.405	320.8
939.775	273.99
940.145	245.9
940.516	302.08
940.886	325.48
941.256	313.78
941.626	318.46
941.996	285.69
942.366	327.82
942.735	264.63
943.105	295.05
943.475	320.8
943.845	252.92
944.214	278.67
944.584	337.18
944.953	351.23
945.323	346.55
945.692	306.76
946.061	316.12
946.43	288.03
946.8	257.61
947.169	283.35
947.538	250.58
947.907	334.84
948.276	325.48
948.645	304.42
949.013	290.37
949.382	320.8
949.751	278.67
950.119	278.67
950.488	243.56
950.857	259.95
951.225	276.33
951.593	250.58
951.962	269.31
952.33	344.21
952.698	325.48
953.066	318.46
953.434	311.44
953.802	311.44
954.17	259.95
954.538	330.16
954.906	325.48
955.274	355.91
955.642	323.14
956.009	288.03
956.377	299.73
956.744	278.67
957.112	348.89
957.479	337.18
957.847	278.67
958.214	292.71
958.581	334.84
958.948	238.88
959.315	316.12
959.683	302.08
960.05	323.14
960.416	288.03
960.783	257.61
961.15	273.99
961.517	318.46
961.884	262.29
962.25	311.44
962.617	276.33
962.983	243.56
963.35	302.08
963.716	348.89
964.082	351.23
964.449	369.95
964.815	334.84
965.181	318.46
965.547	341.86
965.913	266.97
966.279	257.61
966.645	311.44
967.011	288.03
967.377	318.46
967.742	327.82
968.108	323.14
968.474	351.23
968.839	236.54
969.205	348.89
969.57	302.08
969.935	271.65
970.301	285.69
970.666	309.1
971.031	313.78
971.396	295.05
971.761	320.8
972.126	309.1
972.491	302.08
972.856	290.37
973.221	337.18
973.586	304.42
973.95	241.22
974.315	271.65
974.679	245.9
975.044	353.57
975.408	309.1
975.773	353.57
976.137	269.31
976.501	327.82
976.866	278.67
977.23	311.44
977.594	302.08
977.958	288.03
978.322	302.08
978.686	325.48
979.049	318.46
979.413	332.5
979.777	278.67
980.141	299.73
980.504	348.89
980.868	259.95
981.231	276.33
981.595	311.44
981.958	273.99
982.321	332.5
982.684	330.16
983.048	304.42
983.411	313.78
983.774	262.29
984.137	304.42
984.5	266.97
984.862	313.78
985.225	271.65
985.588	278.67
985.951	295.05
986.313	248.24
986.676	337.18
987.038	273.99
987.401	283.35
987.763	351.23
988.125	266.97
988.488	292.71
988.85	295.05
989.212	318.46
989.574	266.97
989.936	299.73
990.298	248.24
990.66	285.69
991.022	320.8
991.383	285.69
991.745	306.76
992.107	332.5
992.468	276.33
992.83	281.01
993.191	355.91
993.553	306.76
993.914	341.86
994.275	393.36
994.637	264.63
994.998	302.08
995.359	330.16
995.72	196.75
996.081	217.82
996.442	323.14
996.803	332.5
997.163	299.73
997.524	227.18
997.885	374.63
998.245	224.84
998.606	276.33
998.966	288.03
999.327	332.5
999.687	353.57
1000.047	320.8
1000.408	229.52
1000.768	273.99
1001.128	243.56
1001.488	325.48
1001.848	327.82
1002.208	313.78
1002.568	337.18
1002.927	348.89
1003.287	344.21
1003.647	344.21
1004.007	295.05
1004.366	348.89
1004.726	346.55
1005.085	334.84
1005.444	264.63
1005.804	318.46
1006.163	313.78
1006.522	302.08
1006.881	255.26
1007.24	318.46
1007.599	316.12
1007.958	318.46
1008.317	304.42
1008.676	309.1
1009.035	391.02
1009.393	288.03
1009.752	306.76
1010.111	299.73
1010.469	273.99
1010.828	250.58
1011.186	334.84
1011.544	264.63
1011.903	283.35
1012.261	318.46
1012.619	264.63
1012.977	325.48
1013.335	351.23
1013.693	304.42
1014.051	306.76
1014.409	313.78
1014.767	278.67
1015.124	309.1
1015.482	327.82
1015.84	222.5
1016.197	281.01
1016.555	367.61
1016.912	236.54
1017.269	316.12
1017.627	283.35
1017.984	283.35
1018.341	299.73
1018.698	266.97
1019.055	320.8
1019.412	313.78
1019.769	318.46
1020.126	302.08
1020.483	295.05
1020.84	346.55
1021.196	290.37
1021.553	292.71
1021.909	248.24
1022.266	285.69
1022.622	334.84
1022.979	320.8
1023.335	299.73
1023.691	276.33
1024.047	313.78
1024.404	344.21
1024.76	215.48
1025.116	302.08
1025.472	257.61
1025.827	304.42
1026.183	358.25
1026.539	292.71
1026.895	276.33
1027.25	365.27
1027.606	309.1
1027.961	313.78
1028.317	295.05
1028.672	238.88
1029.028	306.76
1029.383	311.44
1029.738	290.37
1030.093	290.37
1030.448	309.1
1030.803	311.44
1031.158	290.37
1031.513	278.67
1031.868	302.08
1032.223	302.08
1032.577	327.82
1032.932	292.71
1033.287	278.67
1033.641	290.37
1033.996	295.05
1034.35	245.9
1034.704	332.5
1035.059	269.31
1035.413	241.22
1035.767	241.22
1036.121	241.22
