Data from Al_FLMS009871__1146__16-36-05-391.txt Node

Date: Fri Mar 08 16:36:05 CST 2024
User: pe5414po
Spectrometer: FLMS00987
Trigger mode: 0
Integration Time (sec): 1.000000E-1
Scans to average: 1
Electric dark correction enabled: true
Nonlinearity correction enabled: false
Boxcar width: 0
XAxis mode: Wavelengths
Number of Pixels in Spectrum: 2048
>>>>>Begin Spectral Data<<<<<
188.938	-62.02
189.409	-62.02
189.879	-62.02
190.349	-104.15
190.819	-127.56
191.29	-94.79
191.76	-69.05
192.23	-76.07
192.7	-40.96
193.17	-80.75
193.64	-78.41
194.109	-12.87
194.579	-12.87
195.049	52.66
195.519	-43.3
195.988	-26.92
196.458	47.98
196.927	104.15
197.397	99.47
197.866	87.77
198.336	143.94
198.805	204.8
199.274	167.35
199.744	211.82
200.213	265.65
200.682	251.61
201.151	342.89
201.62	370.97
202.089	441.19
202.558	448.21
203.027	450.55
203.495	417.79
203.964	450.55
204.433	462.26
204.902	464.6
205.37	396.72
205.839	483.32
206.307	476.3
206.776	523.11
207.244	506.73
207.712	579.28
208.181	619.07
208.649	619.07
209.117	665.88
209.585	616.73
210.053	633.11
210.521	672.9
210.989	658.86
211.457	855.47
211.925	857.81
212.393	970.15
212.861	965.47
213.328	775.89
213.796	663.54
214.264	670.56
214.731	628.43
215.199	621.41
215.666	609.71
216.133	717.37
216.601	909.3
217.068	1084.84
217.535	1056.75
218.003	1379.75
218.47	1503.79
218.937	1417.19
219.404	1241.65
219.871	1148.03
220.338	1253.36
220.805	1204.21
221.271	1028.67
221.738	970.15
222.205	862.49
222.671	885.89
223.138	1115.27
223.605	1274.42
224.071	1293.15
224.538	1094.2
225.004	895.25
225.47	1066.11
225.937	1356.34
226.403	1328.25
226.869	1124.63
227.335	801.63
227.801	590.99
228.267	600.35
228.733	581.62
229.199	607.37
229.665	548.86
230.131	480.98
230.597	607.37
231.062	649.5
231.528	619.07
231.994	637.8
232.459	523.11
232.925	506.73
233.39	485.66
233.856	518.43
234.321	569.92
234.786	708.01
235.252	1150.37
235.717	1915.73
236.182	2718.53
236.647	3100.04
237.112	2486.82
237.577	1536.56
238.042	904.62
238.507	668.22
238.972	560.56
239.436	633.11
239.901	635.46
240.366	525.45
240.83	537.15
241.295	502.04
241.76	534.81
242.224	492.68
242.688	476.3
243.153	471.62
243.617	483.32
244.081	457.57
244.545	464.6
245.01	534.81
245.474	588.64
245.938	497.36
246.402	633.11
246.866	726.74
247.33	658.86
247.793	619.07
248.257	569.92
248.721	511.41
249.185	511.41
249.648	537.15
250.112	560.56
250.575	605.03
251.039	661.2
251.502	647.16
251.965	612.05
252.429	586.3
252.892	647.16
253.355	637.8
253.818	593.33
254.281	612.05
254.744	642.48
255.207	850.78
255.67	1117.61
256.133	1693.38
256.596	2330
257.059	2435.33
257.522	2154.46
257.984	1375.06
258.447	1049.73
258.909	1148.03
259.372	1178.46
259.834	1122.29
260.297	1040.37
260.759	986.54
261.221	857.81
261.684	1119.95
262.146	1812.74
262.608	2250.43
263.07	1988.29
263.532	1414.85
263.994	1026.32
264.456	974.83
264.918	1122.29
265.38	1309.53
265.842	1192.5
266.303	984.2
266.765	705.67
267.227	590.99
267.688	539.49
268.15	640.14
268.611	593.33
269.072	476.3
269.534	640.14
269.995	623.75
270.456	738.44
270.918	579.28
271.379	609.71
271.84	588.64
272.301	539.49
272.762	642.48
273.223	567.58
273.684	523.11
274.144	679.93
274.605	684.61
275.066	764.18
275.527	731.42
275.987	675.24
276.448	773.55
276.908	916.32
277.369	1096.54
277.829	1637.2
278.289	3298.99
278.75	6170.82
279.21	8352.2
279.67	8560.51
280.13	6381.47
280.59	4310.1
281.05	3500.27
281.51	3125.79
281.97	2044.46
282.43	1012.28
282.89	672.9
283.35	675.24
283.809	712.69
284.269	911.64
284.729	1150.37
285.188	1096.54
285.648	888.23
286.107	677.59
286.567	583.96
287.026	586.3
287.485	668.22
287.944	600.35
288.404	644.82
288.863	640.14
289.322	689.29
289.781	668.22
290.24	635.46
290.699	693.97
291.158	672.9
291.616	693.97
292.075	883.55
292.534	942.07
292.992	1183.14
293.451	1096.54
293.91	930.36
294.368	860.15
294.827	764.18
295.285	621.41
295.743	598.01
296.202	485.66
296.66	497.36
297.118	534.81
297.576	499.7
298.034	459.92
298.492	516.09
298.95	490.34
299.408	410.76
299.866	504.39
300.324	485.66
300.781	532.47
301.239	457.57
301.697	473.96
302.154	488
302.612	459.92
303.069	506.73
303.527	544.17
303.984	586.3
304.441	644.82
304.899	775.89
305.356	995.9
305.813	995.9
306.27	1049.73
306.727	1218.25
307.184	1915.73
307.641	3687.51
308.098	5555.26
308.555	7090.65
309.012	7212.36
309.468	6119.33
309.925	3207.7
310.382	1187.82
310.838	761.84
311.295	565.24
311.751	506.73
312.208	530.13
312.664	520.77
313.12	551.2
313.577	509.07
314.033	569.92
314.489	576.94
314.945	511.41
315.401	558.22
315.857	607.37
316.313	586.3
316.769	422.47
317.225	492.68
317.681	417.79
318.136	478.64
318.592	370.97
319.048	466.94
319.503	427.15
319.959	427.15
320.414	392.04
320.869	380.34
321.325	483.32
321.78	445.87
322.235	464.6
322.691	473.96
323.146	511.41
323.601	520.77
324.056	684.61
324.511	1002.92
324.966	1110.58
325.421	928.02
325.875	609.71
326.33	583.96
326.785	682.27
327.24	1031.01
327.694	949.09
328.149	743.12
328.603	509.07
329.058	413.1
329.512	401.4
329.966	443.53
330.421	462.26
330.875	452.89
331.329	452.89
331.783	469.28
332.237	443.53
332.691	499.7
333.145	565.24
333.599	555.88
334.053	532.47
334.507	598.01
334.96	668.22
335.414	668.22
335.868	686.95
336.321	698.65
336.775	773.55
337.228	761.84
337.682	621.41
338.135	513.75
338.588	525.45
339.042	478.64
339.495	466.94
339.948	443.53
340.401	394.38
340.854	438.85
341.307	480.98
341.76	385.02
342.213	462.26
342.666	452.89
343.119	534.81
343.571	518.43
344.024	485.66
344.477	523.11
344.929	490.34
345.382	476.3
345.834	504.39
346.287	455.23
346.739	436.51
347.191	452.89
347.644	427.15
348.096	534.81
348.548	431.83
349	516.09
349.452	490.34
349.904	497.36
350.356	518.43
350.808	443.53
351.26	499.7
351.711	499.7
352.163	466.94
352.615	546.52
353.066	621.41
353.518	593.33
353.969	579.28
354.421	558.22
354.872	574.6
355.324	546.52
355.775	565.24
356.226	726.74
356.677	796.95
357.128	1084.84
357.579	1641.89
358.03	2835.56
358.481	4785.23
358.932	5428.87
359.383	4064.34
359.834	3027.48
360.285	2978.33
360.735	2681.08
361.186	2229.36
361.637	1679.33
362.087	1112.92
362.538	752.48
362.988	574.6
363.438	569.92
363.889	504.39
364.339	558.22
364.789	565.24
365.239	513.75
365.689	576.94
366.139	539.49
366.589	478.64
367.039	532.47
367.489	502.04
367.939	502.04
368.389	473.96
368.839	513.75
369.288	576.94
369.738	665.88
370.187	754.82
370.637	871.85
371.086	956.11
371.536	974.83
371.985	860.15
372.434	656.52
372.884	649.5
373.333	565.24
373.782	541.83
374.231	586.3
374.68	579.28
375.129	602.69
375.578	565.24
376.027	520.77
376.475	436.51
376.924	497.36
377.373	424.81
377.822	448.21
378.27	497.36
378.719	488
379.167	415.45
379.616	485.66
380.064	590.99
380.512	523.11
380.961	518.43
381.409	495.02
381.857	520.77
382.305	649.5
382.753	703.33
383.201	869.51
383.649	1007.6
384.097	932.7
384.545	794.61
384.992	588.64
385.44	614.39
385.888	562.9
386.335	576.94
386.783	628.43
387.231	605.03
387.678	562.9
388.125	640.14
388.573	534.81
389.02	588.64
389.467	530.13
389.914	555.88
390.362	551.2
390.809	579.28
391.256	642.48
391.703	609.71
392.15	677.59
392.596	689.29
393.043	1040.37
393.49	1691.04
393.937	3060.25
394.383	4974.81
394.83	6077.2
395.276	4796.93
395.723	4612.03
396.169	6975.97
396.616	7348.11
397.062	4389.67
397.508	1768.27
397.954	768.87
398.401	598.01
398.847	567.58
399.293	567.58
399.739	712.69
400.185	668.22
400.631	590.99
401.076	502.04
401.522	511.41
401.968	579.28
402.414	565.24
402.859	612.05
403.305	661.2
403.75	722.06
404.196	740.78
404.641	700.99
405.086	644.82
405.532	605.03
405.977	668.22
406.422	663.54
406.867	581.62
407.312	633.11
407.757	633.11
408.202	593.33
408.647	506.73
409.092	616.73
409.537	633.11
409.982	670.56
410.426	607.37
410.871	644.82
411.316	679.93
411.76	595.67
412.205	651.84
412.649	708.01
413.093	637.8
413.538	693.97
413.982	768.87
414.426	722.06
414.87	895.25
415.314	972.49
415.758	972.49
416.202	921
416.646	850.78
417.09	857.81
417.534	759.5
417.978	778.23
418.421	663.54
418.865	534.81
419.309	642.48
419.752	607.37
420.196	565.24
420.639	516.09
421.083	565.24
421.526	525.45
421.969	581.62
422.412	537.15
422.856	598.01
423.299	626.09
423.742	644.82
424.185	640.14
424.628	588.64
425.071	558.22
425.513	520.77
425.956	492.68
426.399	490.34
426.842	516.09
427.284	590.99
427.727	520.77
428.169	525.45
428.612	546.52
429.054	495.02
429.497	499.7
429.939	450.55
430.381	476.3
430.823	429.49
431.265	516.09
431.707	518.43
432.149	527.79
432.591	530.13
433.033	511.41
433.475	476.3
433.917	532.47
434.359	490.34
434.8	525.45
435.242	511.41
435.684	516.09
436.125	502.04
436.567	485.66
437.008	485.66
437.449	548.86
437.891	471.62
438.332	572.26
438.773	488
439.214	478.64
439.656	544.17
440.097	565.24
440.538	476.3
440.978	490.34
441.419	513.75
441.86	579.28
442.301	579.28
442.742	633.11
443.182	569.92
443.623	665.88
444.063	586.3
444.504	605.03
444.944	665.88
445.385	750.14
445.825	747.8
446.265	834.4
446.706	913.98
447.146	1042.71
447.586	1309.53
448.026	1662.95
448.466	1693.38
448.906	1639.55
449.346	1295.49
449.786	1040.37
450.225	970.15
450.665	993.56
451.105	1178.46
451.544	1576.35
451.984	1684.02
452.424	1602.1
452.863	1735.51
453.302	2149.78
453.742	2138.08
454.181	1555.29
454.62	1023.98
455.059	775.89
455.499	628.43
455.938	602.69
456.377	607.37
456.816	532.47
457.254	530.13
457.693	574.6
458.132	495.02
458.571	455.23
459.01	511.41
459.448	464.6
459.887	588.64
460.325	516.09
460.764	558.22
461.202	530.13
461.641	576.94
462.079	464.6
462.517	527.79
462.955	590.99
463.393	637.8
463.832	619.07
464.27	661.2
464.708	616.73
465.145	658.86
465.583	621.41
466.021	715.03
466.459	895.25
466.897	1148.03
467.334	953.77
467.772	705.67
468.209	612.05
468.647	511.41
469.084	525.45
469.522	525.45
469.959	476.3
470.396	555.88
470.833	469.28
471.271	541.83
471.708	527.79
472.145	558.22
472.582	560.56
473.019	392.04
473.456	450.55
473.892	513.75
474.329	436.51
474.766	450.55
475.202	473.96
475.639	466.94
476.076	464.6
476.512	427.15
476.949	495.02
477.385	436.51
477.821	492.68
478.258	506.73
478.694	450.55
479.13	488
479.566	525.45
480.002	459.92
480.438	499.7
480.874	537.15
481.31	546.52
481.746	495.02
482.181	518.43
482.617	523.11
483.053	541.83
483.488	490.34
483.924	506.73
484.36	499.7
484.795	544.17
485.23	553.54
485.666	654.18
486.101	686.95
486.536	686.95
486.971	743.12
487.407	649.5
487.842	595.67
488.277	598.01
488.712	598.01
489.146	555.88
489.581	555.88
490.016	572.26
490.451	562.9
490.885	534.81
491.32	551.2
491.755	546.52
492.189	588.64
492.624	555.88
493.058	518.43
493.492	511.41
493.927	504.39
494.361	562.9
494.795	490.34
495.229	598.01
495.663	525.45
496.097	497.36
496.531	495.02
496.965	490.34
497.399	417.79
497.833	476.3
498.266	532.47
498.7	502.04
499.134	635.46
499.567	651.84
500.001	731.42
500.434	768.87
500.868	932.7
501.301	928.02
501.734	839.08
502.168	700.99
502.601	621.41
503.034	553.54
503.467	551.2
503.9	506.73
504.333	492.68
504.766	518.43
505.199	593.33
505.632	553.54
506.064	546.52
506.497	553.54
506.93	495.02
507.362	509.07
507.795	523.11
508.227	499.7
508.66	583.96
509.092	516.09
509.524	532.47
509.956	492.68
510.389	527.79
510.821	546.52
511.253	598.01
511.685	628.43
512.117	553.54
512.549	523.11
512.981	499.7
513.412	600.35
513.844	551.2
514.276	513.75
514.707	516.09
515.139	579.28
515.571	668.22
516.002	675.24
516.433	679.93
516.865	658.86
517.296	661.2
517.727	841.42
518.159	808.66
518.59	913.98
519.021	794.61
519.452	764.18
519.883	628.43
520.314	579.28
520.744	637.8
521.175	609.71
521.606	600.35
522.037	668.22
522.467	759.5
522.898	649.5
523.328	640.14
523.759	616.73
524.189	583.96
524.62	593.33
525.05	551.2
525.48	649.5
525.91	628.43
526.341	602.69
526.771	672.9
527.201	768.87
527.631	715.03
528.061	799.29
528.49	958.45
528.92	1016.96
529.35	1300.17
529.78	2765.34
530.209	12693.9
530.639	31263.71
531.068	48726.44
531.498	63034.14
531.927	63034.14
532.357	63034.14
532.786	63034.14
533.215	63034.14
533.644	40073.48
534.074	14842.51
534.503	6060.82
534.932	2821.52
535.361	1620.82
535.79	1084.84
536.218	841.42
536.647	752.48
537.076	677.59
537.505	635.46
537.933	600.35
538.362	670.56
538.79	504.39
539.219	452.89
539.647	544.17
540.076	569.92
540.504	520.77
540.932	483.32
541.36	471.62
541.788	513.75
542.217	441.19
542.645	445.87
543.073	534.81
543.5	490.34
543.928	455.23
544.356	490.34
544.784	459.92
545.211	466.94
545.639	504.39
546.067	488
546.494	476.3
546.922	387.36
547.349	422.47
547.776	548.86
548.204	368.63
548.631	441.19
549.058	476.3
549.485	443.53
549.912	473.96
550.339	485.66
550.766	420.13
551.193	459.92
551.62	457.57
552.047	436.51
552.474	502.04
552.9	450.55
553.327	499.7
553.754	403.74
554.18	478.64
554.607	534.81
555.033	429.49
555.459	443.53
555.886	396.72
556.312	448.21
556.738	396.72
557.164	506.73
557.59	471.62
558.016	480.98
558.442	516.09
558.868	509.07
559.294	579.28
559.72	630.77
560.145	813.34
560.571	813.34
560.997	612.05
561.422	506.73
561.848	466.94
562.273	492.68
562.699	455.23
563.124	410.76
563.549	537.15
563.974	478.64
564.4	417.79
564.825	478.64
565.25	385.02
565.675	509.07
566.1	462.26
566.525	488
566.95	588.64
567.374	612.05
567.799	574.6
568.224	686.95
568.648	841.42
569.073	815.68
569.497	981.85
569.922	1342.3
570.346	1735.51
570.771	1428.9
571.195	1014.62
571.619	792.27
572.043	729.08
572.467	818.02
572.891	1138.67
573.315	1047.39
573.739	740.78
574.163	534.81
574.587	434.17
575.011	399.06
575.435	394.38
575.858	396.72
576.282	392.04
576.705	406.08
577.129	403.74
577.552	401.4
577.976	429.49
578.399	422.47
578.822	429.49
579.245	410.76
579.669	413.1
580.092	413.1
580.515	424.81
580.938	352.25
581.361	366.29
581.784	396.72
582.206	452.89
582.629	378
583.052	394.38
583.474	354.59
583.897	401.4
584.32	401.4
584.742	415.45
585.165	424.81
585.587	356.93
586.009	422.47
586.431	394.38
586.854	415.45
587.276	438.85
587.698	434.17
588.12	443.53
588.542	452.89
588.964	462.26
589.386	464.6
589.807	438.85
590.229	504.39
590.651	415.45
591.073	406.08
591.494	417.79
591.916	431.83
592.337	450.55
592.759	466.94
593.18	420.13
593.601	408.42
594.022	420.13
594.444	504.39
594.865	417.79
595.286	394.38
595.707	441.19
596.128	469.28
596.549	408.42
596.97	431.83
597.39	387.36
597.811	429.49
598.232	359.27
598.652	408.42
599.073	392.04
599.494	335.87
599.914	389.7
600.334	354.59
600.755	422.47
601.175	385.02
601.595	394.38
602.015	338.21
602.436	380.34
602.856	504.39
603.276	415.45
603.696	359.27
604.115	387.36
604.535	333.53
604.955	427.15
605.375	401.4
605.794	326.5
606.214	359.27
606.634	375.66
607.053	422.47
607.473	422.47
607.892	399.06
608.311	396.72
608.731	382.68
609.15	387.36
609.569	415.45
609.988	408.42
610.407	438.85
610.826	352.25
611.245	340.55
611.664	363.95
612.083	389.7
612.501	375.66
612.92	342.89
613.339	392.04
613.757	399.06
614.176	408.42
614.594	354.59
615.013	431.83
615.431	408.42
615.85	445.87
616.268	436.51
616.686	356.93
617.104	373.32
617.522	403.74
617.94	370.97
618.358	455.23
618.776	434.17
619.194	422.47
619.612	401.4
620.03	427.15
620.447	408.42
620.865	424.81
621.282	415.45
621.7	497.36
622.117	516.09
622.535	488
622.952	626.09
623.369	799.29
623.787	911.64
624.204	935.04
624.621	977.17
625.038	1162.08
625.455	1103.56
625.872	869.51
626.289	693.97
626.706	560.56
627.123	476.3
627.539	413.1
627.956	413.1
628.373	401.4
628.789	394.38
629.206	361.61
629.622	448.21
630.038	345.23
630.455	427.15
630.871	335.87
631.287	413.1
631.703	394.38
632.12	399.06
632.536	385.02
632.952	385.02
633.368	396.72
633.783	443.53
634.199	366.29
634.615	396.72
635.031	429.49
635.446	303.1
635.862	387.36
636.277	443.53
636.693	340.55
637.108	324.16
637.524	396.72
637.939	321.82
638.354	401.4
638.77	293.74
639.185	333.53
639.6	443.53
640.015	321.82
640.43	417.79
640.845	401.4
641.259	385.02
641.674	406.08
642.089	349.91
642.504	314.8
642.918	394.38
643.333	378
643.747	312.46
644.162	307.78
644.576	394.38
644.991	396.72
645.405	354.59
645.819	396.72
646.233	361.61
646.647	462.26
647.061	331.19
647.475	441.19
647.889	387.36
648.303	399.06
648.717	363.95
649.131	424.81
649.545	396.72
649.958	401.4
650.372	385.02
650.785	389.7
651.199	410.76
651.612	429.49
652.026	347.57
652.439	368.63
652.852	361.61
653.266	399.06
653.679	422.47
654.092	471.62
654.505	415.45
654.918	403.74
655.331	464.6
655.744	551.2
656.156	630.77
656.569	794.61
656.982	911.64
657.394	792.27
657.807	698.65
658.22	471.62
658.632	539.49
659.044	424.81
659.457	422.47
659.869	436.51
660.281	406.08
660.693	370.97
661.106	410.76
661.518	326.5
661.93	450.55
662.342	382.68
662.754	385.02
663.165	352.25
663.577	333.53
663.989	359.27
664.401	380.34
664.812	363.95
665.224	338.21
665.635	385.02
666.047	307.78
666.458	417.79
666.869	366.29
667.281	321.82
667.692	321.82
668.103	342.89
668.514	347.57
668.925	312.46
669.336	406.08
669.747	401.4
670.158	394.38
670.569	401.4
670.979	345.23
671.39	331.19
671.801	417.79
672.211	401.4
672.622	347.57
673.032	375.66
673.443	331.19
673.853	375.66
674.263	347.57
674.674	345.23
675.084	331.19
675.494	345.23
675.904	340.55
676.314	363.95
676.724	370.97
677.134	363.95
677.544	385.02
677.953	359.27
678.363	361.61
678.773	370.97
679.182	403.74
679.592	345.23
680.001	368.63
680.411	338.21
680.82	347.57
681.23	396.72
681.639	375.66
682.048	392.04
682.457	335.87
682.866	387.36
683.275	396.72
683.684	392.04
684.093	394.38
684.502	436.51
684.911	420.13
685.32	373.32
685.728	375.66
686.137	354.59
686.546	314.8
686.954	305.44
687.363	366.29
687.771	354.59
688.179	356.93
688.588	366.29
688.996	342.89
689.404	331.19
689.812	333.53
690.22	331.19
690.628	331.19
691.036	342.89
691.444	373.32
691.852	356.93
692.26	354.59
692.667	387.36
693.075	347.57
693.483	445.87
693.89	368.63
694.298	342.89
694.705	363.95
695.112	396.72
695.52	394.38
695.927	363.95
696.334	333.53
696.741	403.74
697.148	317.14
697.555	321.82
697.962	319.48
698.369	356.93
698.776	354.59
699.183	314.8
699.59	340.55
699.996	359.27
700.403	382.68
700.81	375.66
701.216	310.12
701.623	307.78
702.029	340.55
702.435	366.29
702.842	406.08
703.248	401.4
703.654	459.92
704.06	434.17
704.466	579.28
704.872	630.77
705.278	586.3
705.684	555.88
706.09	630.77
706.496	520.77
706.901	443.53
707.307	492.68
707.712	363.95
708.118	317.14
708.523	366.29
708.929	382.68
709.334	310.12
709.74	375.66
710.145	385.02
710.55	303.1
710.955	356.93
711.36	368.63
711.765	363.95
712.17	345.23
712.575	424.81
712.98	874.19
713.385	387.36
713.789	328.85
714.194	342.89
714.599	373.32
715.003	303.1
715.408	359.27
715.812	312.46
716.217	324.16
716.621	319.48
717.025	373.32
717.429	289.06
717.833	284.38
718.238	352.25
718.642	340.55
719.046	380.34
719.449	366.29
719.853	359.27
720.257	356.93
720.661	298.42
721.065	258.63
721.468	396.72
721.872	289.06
722.275	326.5
722.679	356.93
723.082	333.53
723.485	335.87
723.889	356.93
724.292	333.53
724.695	335.87
725.098	305.44
725.501	300.76
725.904	345.23
726.307	300.76
726.71	347.57
727.113	356.93
727.516	382.68
727.918	389.7
728.321	335.87
728.724	321.82
729.126	307.78
729.529	267.99
729.931	361.61
730.333	385.02
730.736	340.55
731.138	300.76
731.54	347.57
731.942	338.21
732.344	284.38
732.746	312.46
733.148	359.27
733.55	312.46
733.952	317.14
734.354	354.59
734.756	312.46
735.157	298.42
735.559	378
735.96	380.34
736.362	333.53
736.763	363.95
737.165	342.89
737.566	373.32
737.967	319.48
738.368	319.48
738.77	324.16
739.171	342.89
739.572	314.8
739.973	335.87
740.374	293.74
740.774	338.21
741.175	375.66
741.576	338.21
741.977	310.12
742.377	349.91
742.778	335.87
743.178	307.78
743.579	321.82
743.979	284.38
744.379	363.95
744.78	389.7
745.18	356.93
745.58	345.23
745.98	359.27
746.38	356.93
746.78	389.7
747.18	382.68
747.58	422.47
747.98	289.06
748.38	326.5
748.779	319.48
749.179	324.16
749.578	335.87
749.978	408.42
750.377	310.12
750.777	303.1
751.176	310.12
751.575	296.08
751.975	333.53
752.374	331.19
752.773	410.76
753.172	284.38
753.571	305.44
753.97	328.85
754.369	387.36
754.768	305.44
755.166	293.74
755.565	385.02
755.964	363.95
756.362	312.46
756.761	403.74
757.159	303.1
757.558	331.19
757.956	347.57
758.354	424.81
758.753	307.78
759.151	326.5
759.549	289.06
759.947	298.42
760.345	373.32
760.743	314.8
761.141	328.85
761.539	272.67
761.936	342.89
762.334	305.44
762.732	333.53
763.129	359.27
763.527	312.46
763.924	328.85
764.322	356.93
764.719	450.55
765.117	349.91
765.514	340.55
765.911	335.87
766.308	284.38
766.705	321.82
767.102	349.91
767.499	298.42
767.896	361.61
768.293	307.78
768.69	359.27
769.086	368.63
769.483	310.12
769.88	314.8
770.276	333.53
770.673	312.46
771.069	260.97
771.466	270.33
771.862	314.8
772.258	324.16
772.654	354.59
773.05	338.21
773.447	338.21
773.843	328.85
774.239	366.29
774.634	370.97
775.03	359.27
775.426	349.91
775.822	326.5
776.218	354.59
776.613	389.7
777.009	429.49
777.404	392.04
777.8	436.51
778.195	436.51
778.59	361.61
778.986	324.16
779.381	310.12
779.776	338.21
780.171	319.48
780.566	342.89
780.961	282.03
781.356	293.74
781.751	279.69
782.146	326.5
782.54	324.16
782.935	349.91
783.33	373.32
783.724	385.02
784.119	338.21
784.513	291.4
784.908	317.14
785.302	333.53
785.696	378
786.09	321.82
786.485	340.55
786.879	328.85
787.273	310.12
787.667	312.46
788.061	298.42
788.454	345.23
788.848	242.25
789.242	307.78
789.636	340.55
790.029	272.67
790.423	272.67
790.816	352.25
791.21	361.61
791.603	363.95
791.997	349.91
792.39	307.78
792.783	375.66
793.176	324.16
793.569	324.16
793.962	326.5
794.355	347.57
794.748	345.23
795.141	324.16
795.534	235.22
795.927	319.48
796.319	359.27
796.712	370.97
797.105	305.44
797.497	279.69
797.89	331.19
798.282	382.68
798.674	342.89
799.067	286.72
799.459	342.89
799.851	382.68
800.243	314.8
800.635	286.72
801.027	347.57
801.419	352.25
801.811	314.8
802.203	338.21
802.594	342.89
802.986	326.5
803.378	319.48
803.769	328.85
804.161	303.1
804.552	277.35
804.944	314.8
805.335	326.5
805.726	307.78
806.118	326.5
806.509	305.44
806.9	282.03
807.291	272.67
807.682	370.97
808.073	338.21
808.464	338.21
808.855	340.55
809.245	275.01
809.636	342.89
810.027	293.74
810.417	312.46
810.808	321.82
811.198	275.01
811.589	338.21
811.979	340.55
812.369	345.23
812.759	289.06
813.15	279.69
813.54	242.25
813.93	289.06
814.32	319.48
814.71	338.21
815.1	291.4
815.489	296.08
815.879	352.25
816.269	378
816.658	378
817.048	340.55
817.438	314.8
817.827	375.66
818.216	392.04
818.606	303.1
818.995	359.27
819.384	296.08
819.773	312.46
820.163	244.59
820.552	331.19
820.941	345.23
821.33	296.08
821.718	317.14
822.107	284.38
822.496	312.46
822.885	333.53
823.273	389.7
823.662	296.08
824.05	345.23
824.439	298.42
824.827	310.12
825.216	352.25
825.604	314.8
825.992	427.15
826.38	291.4
826.768	317.14
827.156	286.72
827.544	291.4
827.932	310.12
828.32	321.82
828.708	328.85
829.096	305.44
829.483	345.23
829.871	317.14
830.259	335.87
830.646	354.59
831.034	324.16
831.421	300.76
831.808	370.97
832.196	342.89
832.583	272.67
832.97	319.48
833.357	373.32
833.744	263.31
834.131	244.59
834.518	317.14
834.905	335.87
835.292	310.12
835.678	265.65
836.065	284.38
836.452	296.08
836.838	258.63
837.225	321.82
837.611	298.42
837.998	373.32
838.384	267.99
838.77	310.12
839.157	303.1
839.543	319.48
839.929	314.8
840.315	282.03
840.701	331.19
841.087	359.27
841.473	307.78
841.858	328.85
842.244	340.55
842.63	237.56
843.015	293.74
843.401	352.25
843.787	293.74
844.172	307.78
844.557	326.5
844.943	317.14
845.328	333.53
845.713	284.38
846.098	347.57
846.483	356.93
846.868	342.89
847.253	286.72
847.638	335.87
848.023	317.14
848.408	354.59
848.793	347.57
849.177	319.48
849.562	342.89
849.947	324.16
850.331	272.67
850.715	359.27
851.1	363.95
851.484	282.03
851.868	361.61
852.253	349.91
852.637	270.33
853.021	319.48
853.405	354.59
853.789	244.59
854.173	279.69
854.557	258.63
854.94	260.97
855.324	352.25
855.708	382.68
856.091	258.63
856.475	291.4
856.858	244.59
857.242	352.25
857.625	286.72
858.009	300.76
858.392	279.69
858.775	349.91
859.158	333.53
859.541	272.67
859.924	265.65
860.307	352.25
860.69	317.14
861.073	314.8
861.456	307.78
861.838	298.42
862.221	296.08
862.604	342.89
862.986	291.4
863.369	370.97
863.751	310.12
864.133	319.48
864.516	263.31
864.898	307.78
865.28	333.53
865.662	340.55
866.044	298.42
866.426	340.55
866.808	300.76
867.19	314.8
867.572	345.23
867.954	249.27
868.336	275.01
868.717	246.93
869.099	286.72
869.48	314.8
869.862	319.48
870.243	321.82
870.625	246.93
871.006	310.12
871.387	267.99
871.768	275.01
872.149	307.78
872.53	293.74
872.911	307.78
873.292	324.16
873.673	363.95
874.054	328.85
874.435	312.46
874.815	296.08
875.196	282.03
875.577	300.76
875.957	307.78
876.338	260.97
876.718	296.08
877.098	335.87
877.479	303.1
877.859	324.16
878.239	300.76
878.619	342.89
878.999	361.61
879.379	312.46
879.759	305.44
880.139	312.46
880.519	370.97
880.898	277.35
881.278	289.06
881.658	338.21
882.037	363.95
882.417	342.89
882.796	342.89
883.176	328.85
883.555	368.63
883.934	338.21
884.313	328.85
884.693	314.8
885.072	326.5
885.451	303.1
885.83	260.97
886.209	275.01
886.587	314.8
886.966	324.16
887.345	303.1
887.724	422.47
888.102	340.55
888.481	333.53
888.859	324.16
889.238	312.46
889.616	279.69
889.994	260.97
890.373	328.85
890.751	319.48
891.129	326.5
891.507	267.99
891.885	267.99
892.263	298.42
892.641	349.91
893.019	305.44
893.396	267.99
893.774	263.31
894.152	272.67
894.529	289.06
894.907	286.72
895.284	328.85
895.662	275.01
896.039	298.42
896.416	342.89
896.794	324.16
897.171	289.06
897.548	321.82
897.925	338.21
898.302	319.48
898.679	310.12
899.056	239.9
899.433	331.19
899.809	289.06
900.186	345.23
900.563	284.38
900.939	296.08
901.316	293.74
901.692	291.4
902.069	291.4
902.445	363.95
902.821	338.21
903.197	345.23
903.574	303.1
903.95	298.42
904.326	282.03
904.702	317.14
905.078	305.44
905.454	340.55
905.829	324.16
906.205	317.14
906.581	314.8
906.956	291.4
907.332	326.5
907.707	394.38
908.083	333.53
908.458	253.95
908.833	331.19
909.209	356.93
909.584	373.32
909.959	347.57
910.334	307.78
910.709	354.59
911.084	293.74
911.459	296.08
911.834	279.69
912.209	267.99
912.583	314.8
912.958	317.14
913.333	310.12
913.707	319.48
914.082	319.48
914.456	347.57
914.83	286.72
915.205	298.42
915.579	275.01
915.953	270.33
916.327	270.33
916.701	286.72
917.075	300.76
917.449	317.14
917.823	277.35
918.197	263.31
918.571	286.72
918.944	331.19
919.318	319.48
919.692	328.85
920.065	331.19
920.438	286.72
920.812	293.74
921.185	359.27
921.558	354.59
921.932	317.14
922.305	286.72
922.678	275.01
923.051	326.5
923.424	286.72
923.797	328.85
924.17	328.85
924.542	321.82
924.915	286.72
925.288	352.25
925.661	284.38
926.033	265.65
926.406	284.38
926.778	338.21
927.15	324.16
927.523	312.46
927.895	392.04
928.267	293.74
928.639	298.42
929.011	310.12
929.383	284.38
929.755	282.03
930.127	354.59
930.499	361.61
930.871	289.06
931.242	284.38
931.614	349.91
931.986	347.57
932.357	352.25
932.729	370.97
933.1	279.69
933.471	307.78
933.843	284.38
934.214	296.08
934.585	342.89
934.956	272.67
935.327	333.53
935.698	237.56
936.069	305.44
936.44	333.53
936.811	298.42
937.182	324.16
937.552	275.01
937.923	286.72
938.293	333.53
938.664	314.8
939.034	370.97
939.405	335.87
939.775	352.25
940.145	277.35
940.516	277.35
940.886	258.63
941.256	296.08
941.626	282.03
941.996	361.61
942.366	328.85
942.735	282.03
943.105	328.85
943.475	284.38
943.845	370.97
944.214	335.87
944.584	303.1
944.953	232.88
945.323	246.93
945.692	296.08
946.061	282.03
946.43	331.19
946.8	305.44
947.169	359.27
947.538	282.03
947.907	303.1
948.276	275.01
948.645	300.76
949.013	293.74
949.382	293.74
949.751	307.78
950.119	293.74
950.488	298.42
950.857	321.82
951.225	326.5
951.593	300.76
951.962	307.78
952.33	305.44
952.698	256.29
953.066	319.48
953.434	345.23
953.802	249.27
954.17	277.35
954.538	293.74
954.906	312.46
955.274	282.03
955.642	319.48
956.009	230.54
956.377	312.46
956.744	331.19
957.112	340.55
957.479	331.19
957.847	305.44
958.214	303.1
958.581	279.69
958.948	298.42
959.315	289.06
959.683	352.25
960.05	298.42
960.416	263.31
960.783	310.12
961.15	352.25
961.517	272.67
961.884	342.89
962.25	289.06
962.617	289.06
962.983	324.16
963.35	363.95
963.716	319.48
964.082	305.44
964.449	300.76
964.815	375.66
965.181	305.44
965.547	275.01
965.913	277.35
966.279	284.38
966.645	317.14
967.011	310.12
967.377	345.23
967.742	347.57
968.108	246.93
968.474	305.44
968.839	270.33
969.205	310.12
969.57	293.74
969.935	317.14
970.301	272.67
970.666	352.25
971.031	368.63
971.396	303.1
971.761	305.44
972.126	378
972.491	258.63
972.856	256.29
973.221	331.19
973.586	282.03
973.95	279.69
974.315	380.34
974.679	279.69
975.044	260.97
975.408	345.23
975.773	342.89
976.137	291.4
976.501	310.12
976.866	258.63
977.23	319.48
977.594	296.08
977.958	312.46
978.322	321.82
978.686	249.27
979.049	307.78
979.413	310.12
979.777	275.01
980.141	368.63
980.504	314.8
980.868	286.72
981.231	275.01
981.595	326.5
981.958	298.42
982.321	277.35
982.684	296.08
983.048	303.1
983.411	356.93
983.774	282.03
984.137	296.08
984.5	324.16
984.862	284.38
985.225	340.55
985.588	289.06
985.951	267.99
986.313	253.95
986.676	321.82
987.038	307.78
987.401	328.85
987.763	352.25
988.125	251.61
988.488	317.14
988.85	324.16
989.212	275.01
989.574	319.48
989.936	356.93
990.298	267.99
990.66	291.4
991.022	307.78
991.383	345.23
991.745	232.88
992.107	286.72
992.468	195.43
992.83	253.95
993.191	314.8
993.553	328.85
993.914	286.72
994.275	300.76
994.637	317.14
994.998	235.22
995.359	340.55
995.72	361.61
996.081	331.19
996.442	370.97
996.803	284.38
997.163	373.32
997.524	314.8
997.885	317.14
998.245	277.35
998.606	303.1
998.966	342.89
999.327	347.57
999.687	399.06
1000.047	263.31
1000.408	303.1
1000.768	333.53
1001.128	265.65
1001.488	305.44
1001.848	279.69
1002.208	307.78
1002.568	314.8
1002.927	289.06
1003.287	319.48
1003.647	338.21
1004.007	300.76
1004.366	286.72
1004.726	305.44
1005.085	298.42
1005.444	321.82
1005.804	279.69
1006.163	356.93
1006.522	305.44
1006.881	244.59
1007.24	298.42
1007.599	361.61
1007.958	242.25
1008.317	235.22
1008.676	275.01
1009.035	338.21
1009.393	314.8
1009.752	263.31
1010.111	335.87
1010.469	331.19
1010.828	321.82
1011.186	296.08
1011.544	317.14
1011.903	296.08
1012.261	260.97
1012.619	289.06
1012.977	258.63
1013.335	324.16
1013.693	375.66
1014.051	286.72
1014.409	380.34
1014.767	305.44
1015.124	296.08
1015.482	303.1
1015.84	333.53
1016.197	361.61
1016.555	333.53
1016.912	324.16
1017.269	307.78
1017.627	300.76
1017.984	314.8
1018.341	324.16
1018.698	310.12
1019.055	291.4
1019.412	307.78
1019.769	342.89
1020.126	310.12
1020.483	340.55
1020.84	321.82
1021.196	253.95
1021.553	352.25
1021.909	349.91
1022.266	321.82
1022.622	298.42
1022.979	312.46
1023.335	324.16
1023.691	284.38
1024.047	321.82
1024.404	239.9
1024.76	303.1
1025.116	319.48
1025.472	326.5
1025.827	331.19
1026.183	253.95
1026.539	303.1
1026.895	326.5
1027.25	272.67
1027.606	279.69
1027.961	312.46
1028.317	232.88
1028.672	305.44
1029.028	293.74
1029.383	221.18
1029.738	293.74
1030.093	338.21
1030.448	282.03
1030.803	303.1
1031.158	249.27
1031.513	345.23
1031.868	321.82
1032.223	312.46
1032.577	387.36
1032.932	319.48
1033.287	272.67
1033.641	321.82
1033.996	359.27
1034.35	326.5
1034.704	317.14
1035.059	312.46
1035.413	307.78
1035.767	307.78
1036.121	307.78
