Data from Al_FLMS009871__1014__16-22-55-317.txt Node

Date: Fri Mar 08 16:22:55 CST 2024
User: pe5414po
Spectrometer: FLMS00987
Trigger mode: 0
Integration Time (sec): 1.000000E-1
Scans to average: 1
Electric dark correction enabled: true
Nonlinearity correction enabled: false
Boxcar width: 0
XAxis mode: Wavelengths
Number of Pixels in Spectrum: 2048
>>>>>Begin Spectral Data<<<<<
188.938	-79.14
189.409	-79.14
189.879	-79.14
190.349	-67.44
190.819	-95.52
191.29	-151.7
191.76	-95.52
192.23	-149.36
192.7	-90.84
193.17	-100.2
193.64	-72.12
194.109	-25.31
194.579	5.12
195.049	37.89
195.519	23.84
195.988	98.74
196.458	56.61
196.927	35.55
197.397	122.15
197.866	124.49
198.336	180.66
198.805	215.77
199.274	115.13
199.744	192.36
200.213	206.41
200.682	229.81
201.151	154.91
201.62	225.13
202.089	232.15
202.558	206.41
203.027	283.64
203.495	255.56
203.964	295.35
204.433	307.05
204.902	290.67
205.37	304.71
205.839	253.22
206.307	325.77
206.776	297.69
207.244	248.54
207.712	293.01
208.181	267.26
208.649	255.56
209.117	353.86
209.585	269.6
210.053	281.3
210.521	344.5
210.989	309.39
211.457	288.32
211.925	344.5
212.393	332.79
212.861	321.09
213.328	267.26
213.796	264.92
214.264	293.01
214.731	311.73
215.199	267.26
215.666	250.88
216.133	281.3
216.601	271.94
217.068	295.35
217.535	264.92
218.003	255.56
218.47	304.71
218.937	309.39
219.404	208.75
219.871	239.17
220.338	248.54
220.805	297.69
221.271	262.58
221.738	225.13
222.205	316.41
222.671	218.11
223.138	321.09
223.605	267.26
224.071	309.39
224.538	250.88
225.004	253.22
225.47	290.67
225.937	311.73
226.403	295.35
226.869	274.28
227.335	285.98
227.801	295.35
228.267	314.07
228.733	288.32
229.199	248.54
229.665	288.32
230.131	204.07
230.597	236.83
231.062	255.56
231.528	218.11
231.994	264.92
232.459	297.69
232.925	304.71
233.39	304.71
233.856	323.43
234.321	276.62
234.786	255.56
235.252	283.64
235.717	241.51
236.182	274.28
236.647	283.64
237.112	257.9
237.577	309.39
238.042	278.96
238.507	300.03
238.972	304.71
239.436	288.32
239.901	304.71
240.366	278.96
240.83	300.03
241.295	283.64
241.76	367.9
242.224	260.24
242.688	255.56
243.153	262.58
243.617	300.03
244.081	257.9
244.545	250.88
245.01	253.22
245.474	281.3
245.938	304.71
246.402	222.79
246.866	307.05
247.33	257.9
247.793	229.81
248.257	293.01
248.721	208.75
249.185	293.01
249.648	213.43
250.112	227.47
250.575	295.35
251.039	300.03
251.502	290.67
251.965	283.64
252.429	271.94
252.892	260.24
253.355	285.98
253.818	281.3
254.281	290.67
254.744	225.13
255.207	363.22
255.67	264.92
256.133	342.16
256.596	309.39
257.059	262.58
257.522	297.69
257.984	239.17
258.447	246.2
258.909	281.3
259.372	271.94
259.834	311.73
260.297	269.6
260.759	290.67
261.221	271.94
261.684	304.71
262.146	243.85
262.608	288.32
263.07	300.03
263.532	253.22
263.994	325.77
264.456	309.39
264.918	236.83
265.38	281.3
265.842	248.54
266.303	302.37
266.765	271.94
267.227	295.35
267.688	323.43
268.15	208.75
268.611	257.9
269.072	253.22
269.534	302.37
269.995	297.69
270.456	290.67
270.918	391.31
271.379	332.79
271.84	257.9
272.301	297.69
272.762	290.67
273.223	302.37
273.684	269.6
274.144	269.6
274.605	278.96
275.066	276.62
275.527	356.2
275.987	283.64
276.448	269.6
276.908	325.77
277.369	325.77
277.829	290.67
278.289	257.9
278.75	297.69
279.21	218.11
279.67	307.05
280.13	285.98
280.59	232.15
281.05	302.37
281.51	276.62
281.97	293.01
282.43	297.69
282.89	311.73
283.35	393.65
283.809	288.32
284.269	300.03
284.729	264.92
285.188	295.35
285.648	253.22
286.107	339.82
286.567	276.62
287.026	328.11
287.485	311.73
287.944	262.58
288.404	248.54
288.863	297.69
289.322	295.35
289.781	257.9
290.24	295.35
290.699	264.92
291.158	236.83
291.616	278.96
292.075	264.92
292.534	321.09
292.992	318.75
293.451	295.35
293.91	307.05
294.368	295.35
294.827	257.9
295.285	314.07
295.743	316.41
296.202	269.6
296.66	288.32
297.118	269.6
297.576	316.41
298.034	274.28
298.492	302.37
298.95	302.37
299.408	246.2
299.866	325.77
300.324	304.71
300.781	290.67
301.239	365.56
301.697	323.43
302.154	335.14
302.612	307.05
303.069	346.84
303.527	300.03
303.984	311.73
304.441	255.56
304.899	260.24
305.356	257.9
305.813	295.35
306.27	314.07
306.727	323.43
307.184	325.77
307.641	316.41
308.098	246.2
308.555	358.54
309.012	339.82
309.468	278.96
309.925	311.73
310.382	281.3
310.838	285.98
311.295	384.29
311.751	325.77
312.208	271.94
312.664	300.03
313.12	311.73
313.577	290.67
314.033	339.82
314.489	370.24
314.945	243.85
315.401	346.84
315.857	365.56
316.313	314.07
316.769	307.05
317.225	285.98
317.681	314.07
318.136	309.39
318.592	293.01
319.048	330.45
319.503	311.73
319.959	307.05
320.414	295.35
320.869	360.88
321.325	285.98
321.78	346.84
322.235	330.45
322.691	335.14
323.146	302.37
323.601	335.14
324.056	332.79
324.511	271.94
324.966	344.5
325.421	257.9
325.875	236.83
326.33	283.64
326.785	271.94
327.24	302.37
327.694	260.24
328.149	234.49
328.603	328.11
329.058	290.67
329.512	314.07
329.966	302.37
330.421	300.03
330.875	290.67
331.329	332.79
331.783	321.09
332.237	318.75
332.691	342.16
333.145	295.35
333.599	302.37
334.053	295.35
334.507	323.43
334.96	260.24
335.414	232.15
335.868	295.35
336.321	339.82
336.775	302.37
337.228	297.69
337.682	208.75
338.135	335.14
338.588	295.35
339.042	262.58
339.495	283.64
339.948	342.16
340.401	297.69
340.854	302.37
341.307	271.94
341.76	257.9
342.213	278.96
342.666	344.5
343.119	300.03
343.571	304.71
344.024	344.5
344.477	372.58
344.929	339.82
345.382	276.62
345.834	288.32
346.287	274.28
346.739	349.18
347.191	314.07
347.644	344.5
348.096	358.54
348.548	314.07
349	304.71
349.452	274.28
349.904	297.69
350.356	300.03
350.808	288.32
351.26	330.45
351.711	304.71
352.163	339.82
352.615	318.75
353.066	302.37
353.518	342.16
353.969	325.77
354.421	318.75
354.872	337.48
355.324	360.88
355.775	325.77
356.226	250.88
356.677	328.11
357.128	276.62
357.579	349.18
358.03	316.41
358.481	307.05
358.932	304.71
359.383	307.05
359.834	314.07
360.285	321.09
360.735	367.9
361.186	339.82
361.637	311.73
362.087	330.45
362.538	360.88
362.988	328.11
363.438	290.67
363.889	253.22
364.339	276.62
364.789	293.01
365.239	285.98
365.689	318.75
366.139	290.67
366.589	283.64
367.039	332.79
367.489	321.09
367.939	281.3
368.389	351.52
368.839	337.48
369.288	269.6
369.738	285.98
370.187	262.58
370.637	330.45
371.086	243.85
371.536	288.32
371.985	307.05
372.434	309.39
372.884	304.71
373.333	323.43
373.782	330.45
374.231	302.37
374.68	257.9
375.129	264.92
375.578	302.37
376.027	239.17
376.475	328.11
376.924	293.01
377.373	314.07
377.822	267.26
378.27	297.69
378.719	323.43
379.167	356.2
379.616	363.22
380.064	353.86
380.512	302.37
380.961	386.63
381.409	346.84
381.857	302.37
382.305	372.58
382.753	257.9
383.201	360.88
383.649	276.62
384.097	318.75
384.545	325.77
384.992	363.22
385.44	307.05
385.888	297.69
386.335	295.35
386.783	250.88
387.231	288.32
387.678	255.56
388.125	302.37
388.573	307.05
389.02	321.09
389.467	316.41
389.914	304.71
390.362	360.88
390.809	349.18
391.256	309.39
391.703	400.67
392.15	311.73
392.596	264.92
393.043	309.39
393.49	351.52
393.937	311.73
394.383	314.07
394.83	276.62
395.276	309.39
395.723	307.05
396.169	342.16
396.616	278.96
397.062	307.05
397.508	318.75
397.954	311.73
398.401	316.41
398.847	344.5
399.293	386.63
399.739	342.16
400.185	300.03
400.631	367.9
401.076	302.37
401.522	314.07
401.968	381.95
402.414	332.79
402.859	290.67
403.305	374.92
403.75	363.22
404.196	321.09
404.641	297.69
405.086	314.07
405.532	304.71
405.977	250.88
406.422	328.11
406.867	241.51
407.312	255.56
407.757	283.64
408.202	335.14
408.647	318.75
409.092	307.05
409.537	276.62
409.982	365.56
410.426	297.69
410.871	346.84
411.316	274.28
411.76	255.56
412.205	384.29
412.649	321.09
413.093	281.3
413.538	304.71
413.982	314.07
414.426	318.75
414.87	314.07
415.314	300.03
415.758	344.5
416.202	264.92
416.646	276.62
417.09	283.64
417.534	332.79
417.978	297.69
418.421	323.43
418.865	264.92
419.309	342.16
419.752	260.24
420.196	288.32
420.639	302.37
421.083	332.79
421.526	302.37
421.969	344.5
422.412	353.86
422.856	388.97
423.299	358.54
423.742	300.03
424.185	335.14
424.628	278.96
425.071	302.37
425.513	225.13
425.956	290.67
426.399	321.09
426.842	321.09
427.284	384.29
427.727	323.43
428.169	328.11
428.612	337.48
429.054	351.52
429.497	342.16
429.939	264.92
430.381	309.39
430.823	314.07
431.265	339.82
431.707	321.09
432.149	323.43
432.591	281.3
433.033	321.09
433.475	290.67
433.917	332.79
434.359	302.37
434.8	295.35
435.242	356.2
435.684	365.56
436.125	344.5
436.567	285.98
437.008	316.41
437.449	290.67
437.891	314.07
438.332	325.77
438.773	335.14
439.214	274.28
439.656	285.98
440.097	330.45
440.538	335.14
440.978	325.77
441.419	351.52
441.86	297.69
442.301	332.79
442.742	288.32
443.182	321.09
443.623	321.09
444.063	288.32
444.504	321.09
444.944	339.82
445.385	304.71
445.825	267.26
446.265	274.28
446.706	393.65
447.146	346.84
447.586	269.6
448.026	297.69
448.466	253.22
448.906	337.48
449.346	285.98
449.786	302.37
450.225	274.28
450.665	360.88
451.105	309.39
451.544	325.77
451.984	407.69
452.424	351.52
452.863	283.64
453.302	337.48
453.742	381.95
454.181	344.5
454.62	307.05
455.059	304.71
455.499	365.56
455.938	307.05
456.377	321.09
456.816	339.82
457.254	339.82
457.693	300.03
458.132	391.31
458.571	290.67
459.01	267.26
459.448	351.52
459.887	285.98
460.325	335.14
460.764	323.43
461.202	283.64
461.641	363.22
462.079	367.9
462.517	321.09
462.955	283.64
463.393	342.16
463.832	330.45
464.27	290.67
464.708	417.05
465.145	356.2
465.583	344.5
466.021	309.39
466.459	323.43
466.897	339.82
467.334	323.43
467.772	339.82
468.209	351.52
468.647	293.01
469.084	304.71
469.522	367.9
469.959	332.79
470.396	372.58
470.833	271.94
471.271	316.41
471.708	318.75
472.145	353.86
472.582	349.18
473.019	290.67
473.456	316.41
473.892	314.07
474.329	307.05
474.766	314.07
475.202	300.03
475.639	321.09
476.076	293.01
476.512	283.64
476.949	349.18
477.385	318.75
477.821	365.56
478.258	243.85
478.694	300.03
479.13	281.3
479.566	337.48
480.002	323.43
480.438	332.79
480.874	285.98
481.31	337.48
481.746	374.92
482.181	358.54
482.617	363.22
483.053	325.77
483.488	309.39
483.924	337.48
484.36	285.98
484.795	321.09
485.23	293.01
485.666	328.11
486.101	314.07
486.536	335.14
486.971	257.9
487.407	239.17
487.842	342.16
488.277	335.14
488.712	307.05
489.146	344.5
489.581	367.9
490.016	293.01
490.451	293.01
490.885	330.45
491.32	293.01
491.755	356.2
492.189	318.75
492.624	281.3
493.058	398.33
493.492	365.56
493.927	323.43
494.361	379.61
494.795	351.52
495.229	283.64
495.663	290.67
496.097	339.82
496.531	311.73
496.965	288.32
497.399	295.35
497.833	323.43
498.266	267.26
498.7	407.69
499.134	274.28
499.567	395.99
500.001	349.18
500.434	363.22
500.868	307.05
501.301	323.43
501.734	314.07
502.168	323.43
502.601	377.27
503.034	278.96
503.467	358.54
503.9	241.51
504.333	339.82
504.766	262.58
505.199	264.92
505.632	300.03
506.064	325.77
506.497	337.48
506.93	328.11
507.362	300.03
507.795	323.43
508.227	325.77
508.66	328.11
509.092	356.2
509.524	356.2
509.956	311.73
510.389	283.64
510.821	318.75
511.253	323.43
511.685	314.07
512.117	346.84
512.549	342.16
512.981	271.94
513.412	377.27
513.844	293.01
514.276	332.79
514.707	330.45
515.139	323.43
515.571	300.03
516.002	285.98
516.433	316.41
516.865	346.84
517.296	302.37
517.727	309.39
518.159	288.32
518.59	302.37
519.021	346.84
519.452	323.43
519.883	304.71
520.314	353.86
520.744	271.94
521.175	346.84
521.606	372.58
522.037	344.5
522.467	330.45
522.898	351.52
523.328	328.11
523.759	349.18
524.189	288.32
524.62	300.03
525.05	293.01
525.48	337.48
525.91	276.62
526.341	381.95
526.771	309.39
527.201	374.92
527.631	309.39
528.061	307.05
528.49	260.24
528.92	332.79
529.35	337.48
529.78	309.39
530.209	321.09
530.639	339.82
531.068	307.05
531.498	309.39
531.927	342.16
532.357	295.35
532.786	281.3
533.215	325.77
533.644	285.98
534.074	316.41
534.503	307.05
534.932	365.56
535.361	274.28
535.79	293.01
536.218	372.58
536.647	302.37
537.076	346.84
537.505	346.84
537.933	290.67
538.362	321.09
538.79	309.39
539.219	337.48
539.647	300.03
540.076	314.07
540.504	243.85
540.932	323.43
541.36	374.92
541.788	304.71
542.217	316.41
542.645	304.71
543.073	269.6
543.5	365.56
543.928	307.05
544.356	321.09
544.784	358.54
545.211	293.01
545.639	328.11
546.067	307.05
546.494	304.71
546.922	337.48
547.349	285.98
547.776	314.07
548.204	297.69
548.631	269.6
549.058	248.54
549.485	377.27
549.912	297.69
550.339	255.56
550.766	339.82
551.193	330.45
551.62	295.35
552.047	349.18
552.474	332.79
552.9	290.67
553.327	285.98
553.754	311.73
554.18	285.98
554.607	311.73
555.033	332.79
555.459	283.64
555.886	243.85
556.312	335.14
556.738	332.79
557.164	288.32
557.59	309.39
558.016	370.24
558.442	297.69
558.868	349.18
559.294	316.41
559.72	262.58
560.145	381.95
560.571	321.09
560.997	374.92
561.422	325.77
561.848	300.03
562.273	302.37
562.699	309.39
563.124	328.11
563.549	302.37
563.974	290.67
564.4	318.75
564.825	281.3
565.25	323.43
565.675	314.07
566.1	356.2
566.525	300.03
566.95	300.03
567.374	335.14
567.799	297.69
568.224	332.79
568.648	276.62
569.073	300.03
569.497	330.45
569.922	367.9
570.346	307.05
570.771	344.5
571.195	351.52
571.619	370.24
572.043	309.39
572.467	363.22
572.891	363.22
573.315	353.86
573.739	316.41
574.163	360.88
574.587	321.09
575.011	283.64
575.435	325.77
575.858	358.54
576.282	311.73
576.705	309.39
577.129	346.84
577.552	293.01
577.976	295.35
578.399	346.84
578.822	318.75
579.245	365.56
579.669	300.03
580.092	264.92
580.515	318.75
580.938	323.43
581.361	290.67
581.784	332.79
582.206	248.54
582.629	356.2
583.052	325.77
583.474	314.07
583.897	321.09
584.32	330.45
584.742	276.62
585.165	297.69
585.587	250.88
586.009	309.39
586.431	332.79
586.854	297.69
587.276	274.28
587.698	307.05
588.12	360.88
588.542	321.09
588.964	297.69
589.386	285.98
589.807	325.77
590.229	321.09
590.651	370.24
591.073	302.37
591.494	335.14
591.916	307.05
592.337	370.24
592.759	344.5
593.18	360.88
593.601	293.01
594.022	325.77
594.444	311.73
594.865	302.37
595.286	302.37
595.707	304.71
596.128	344.5
596.549	323.43
596.97	314.07
597.39	370.24
597.811	381.95
598.232	381.95
598.652	344.5
599.073	274.28
599.494	246.2
599.914	353.86
600.334	283.64
600.755	293.01
601.175	257.9
601.595	253.22
602.015	297.69
602.436	314.07
602.856	421.74
603.276	344.5
603.696	290.67
604.115	316.41
604.535	330.45
604.955	346.84
605.375	349.18
605.794	374.92
606.214	297.69
606.634	332.79
607.053	304.71
607.473	248.54
607.892	351.52
608.311	321.09
608.731	302.37
609.15	307.05
609.569	335.14
609.988	316.41
610.407	351.52
610.826	379.61
611.245	302.37
611.664	250.88
612.083	353.86
612.501	307.05
612.92	321.09
613.339	262.58
613.757	377.27
614.176	325.77
614.594	255.56
615.013	304.71
615.431	290.67
615.85	328.11
616.268	255.56
616.686	285.98
617.104	325.77
617.522	300.03
617.94	300.03
618.358	332.79
618.776	349.18
619.194	339.82
619.612	304.71
620.03	379.61
620.447	293.01
620.865	304.71
621.282	304.71
621.7	283.64
622.117	330.45
622.535	300.03
622.952	264.92
623.369	293.01
623.787	295.35
624.204	281.3
624.621	300.03
625.038	295.35
625.455	374.92
625.872	283.64
626.289	290.67
626.706	342.16
627.123	283.64
627.539	342.16
627.956	370.24
628.373	295.35
628.789	269.6
629.206	328.11
629.622	335.14
630.038	269.6
630.455	307.05
630.871	316.41
631.287	309.39
631.703	321.09
632.12	325.77
632.536	297.69
632.952	274.28
633.368	351.52
633.783	304.71
634.199	260.24
634.615	316.41
635.031	351.52
635.446	339.82
635.862	358.54
636.277	372.58
636.693	264.92
637.108	316.41
637.524	337.48
637.939	304.71
638.354	321.09
638.77	332.79
639.185	353.86
639.6	300.03
640.015	325.77
640.43	300.03
640.845	283.64
641.259	288.32
641.674	300.03
642.089	269.6
642.504	248.54
642.918	304.71
643.333	339.82
643.747	304.71
644.162	325.77
644.576	274.28
644.991	339.82
645.405	295.35
645.819	307.05
646.233	274.28
646.647	384.29
647.061	346.84
647.475	274.28
647.889	358.54
648.303	360.88
648.717	314.07
649.131	304.71
649.545	393.65
649.958	323.43
650.372	372.58
650.785	344.5
651.199	377.27
651.612	323.43
652.026	339.82
652.439	293.01
652.852	363.22
653.266	285.98
653.679	344.5
654.092	309.39
654.505	370.24
654.918	293.01
655.331	278.96
655.744	330.45
656.156	290.67
656.569	297.69
656.982	323.43
657.394	311.73
657.807	309.39
658.22	365.56
658.632	302.37
659.044	250.88
659.457	257.9
659.869	281.3
660.281	271.94
660.693	267.26
661.106	321.09
661.518	297.69
661.93	323.43
662.342	271.94
662.754	293.01
663.165	318.75
663.577	325.77
663.989	321.09
664.401	337.48
664.812	309.39
665.224	398.33
665.635	335.14
666.047	365.56
666.458	398.33
666.869	384.29
667.281	386.63
667.692	297.69
668.103	309.39
668.514	321.09
668.925	285.98
669.336	328.11
669.747	344.5
670.158	379.61
670.569	309.39
670.979	278.96
671.39	360.88
671.801	302.37
672.211	293.01
672.622	346.84
673.032	335.14
673.443	260.24
673.853	300.03
674.263	253.22
674.674	281.3
675.084	250.88
675.494	353.86
675.904	290.67
676.314	295.35
676.724	285.98
677.134	307.05
677.544	353.86
677.953	351.52
678.363	316.41
678.773	330.45
679.182	222.79
679.592	335.14
680.001	344.5
680.411	335.14
680.82	379.61
681.23	395.99
681.639	358.54
682.048	339.82
682.457	339.82
682.866	278.96
683.275	346.84
683.684	271.94
684.093	281.3
684.502	300.03
684.911	278.96
685.32	342.16
685.728	257.9
686.137	328.11
686.546	304.71
686.954	335.14
687.363	297.69
687.771	321.09
688.179	295.35
688.588	335.14
688.996	358.54
689.404	307.05
689.812	276.62
690.22	330.45
690.628	358.54
691.036	318.75
691.444	344.5
691.852	330.45
692.26	360.88
692.667	323.43
693.075	300.03
693.483	297.69
693.89	253.22
694.298	283.64
694.705	339.82
695.112	318.75
695.52	325.77
695.927	323.43
696.334	365.56
696.741	346.84
697.148	398.33
697.555	288.32
697.962	297.69
698.369	314.07
698.776	323.43
699.183	297.69
699.59	358.54
699.996	330.45
700.403	321.09
700.81	325.77
701.216	367.9
701.623	276.62
702.029	285.98
702.435	323.43
702.842	386.63
703.248	351.52
703.654	367.9
704.06	353.86
704.466	358.54
704.872	318.75
705.278	269.6
705.684	300.03
706.09	307.05
706.496	318.75
706.901	290.67
707.307	307.05
707.712	276.62
708.118	344.5
708.523	309.39
708.929	300.03
709.334	386.63
709.74	255.56
710.145	316.41
710.55	431.1
710.955	342.16
711.36	328.11
711.765	337.48
712.17	325.77
712.575	346.84
712.98	807.92
713.385	365.56
713.789	267.26
714.194	325.77
714.599	398.33
715.003	337.48
715.408	318.75
715.812	316.41
716.217	297.69
716.621	302.37
717.025	290.67
717.429	262.58
717.833	283.64
718.238	377.27
718.642	351.52
719.046	309.39
719.449	304.71
719.853	290.67
720.257	356.2
720.661	297.69
721.065	332.79
721.468	316.41
721.872	285.98
722.275	328.11
722.679	293.01
723.082	330.45
723.485	339.82
723.889	302.37
724.292	300.03
724.695	267.26
725.098	337.48
725.501	323.43
725.904	271.94
726.307	328.11
726.71	325.77
727.113	342.16
727.516	377.27
727.918	314.07
728.321	309.39
728.724	321.09
729.126	269.6
729.529	323.43
729.931	405.35
730.333	328.11
730.736	332.79
731.138	386.63
731.54	302.37
731.942	309.39
732.344	285.98
732.746	297.69
733.148	295.35
733.55	281.3
733.952	332.79
734.354	367.9
734.756	274.28
735.157	353.86
735.559	332.79
735.96	302.37
736.362	285.98
736.763	285.98
737.165	302.37
737.566	307.05
737.967	304.71
738.368	293.01
738.77	260.24
739.171	309.39
739.572	278.96
739.973	288.32
740.374	314.07
740.774	377.27
741.175	337.48
741.576	302.37
741.977	358.54
742.377	321.09
742.778	332.79
743.178	346.84
743.579	304.71
743.979	351.52
744.379	253.22
744.78	335.14
745.18	342.16
745.58	307.05
745.98	288.32
746.38	351.52
746.78	325.77
747.18	344.5
747.58	297.69
747.98	302.37
748.38	293.01
748.779	316.41
749.179	274.28
749.578	274.28
749.978	309.39
750.377	328.11
750.777	278.96
751.176	332.79
751.575	300.03
751.975	267.26
752.374	346.84
752.773	316.41
753.172	307.05
753.571	351.52
753.97	269.6
754.369	356.2
754.768	250.88
755.166	307.05
755.565	344.5
755.964	335.14
756.362	276.62
756.761	349.18
757.159	274.28
757.558	278.96
757.956	288.32
758.354	288.32
758.753	318.75
759.151	342.16
759.549	339.82
759.947	311.73
760.345	344.5
760.743	295.35
761.141	302.37
761.539	309.39
761.936	351.52
762.334	302.37
762.732	316.41
763.129	300.03
763.527	342.16
763.924	297.69
764.322	403.01
764.719	297.69
765.117	304.71
765.514	311.73
765.911	283.64
766.308	276.62
766.705	264.92
767.102	283.64
767.499	262.58
767.896	323.43
768.293	395.99
768.69	370.24
769.086	285.98
769.483	328.11
769.88	307.05
770.276	309.39
770.673	316.41
771.069	278.96
771.466	309.39
771.862	302.37
772.258	412.37
772.654	288.32
773.05	325.77
773.447	304.71
773.843	332.79
774.239	351.52
774.634	377.27
775.03	307.05
775.426	372.58
775.822	363.22
776.218	349.18
776.613	300.03
777.009	325.77
777.404	311.73
777.8	353.86
778.195	314.07
778.59	304.71
778.986	321.09
779.381	356.2
779.776	325.77
780.171	325.77
780.566	255.56
780.961	281.3
781.356	309.39
781.751	302.37
782.146	311.73
782.54	285.98
782.935	229.81
783.33	281.3
783.724	323.43
784.119	332.79
784.513	358.54
784.908	349.18
785.302	318.75
785.696	316.41
786.09	316.41
786.485	328.11
786.879	304.71
787.273	337.48
787.667	321.09
788.061	321.09
788.454	304.71
788.848	283.64
789.242	370.24
789.636	328.11
790.029	337.48
790.423	335.14
790.816	276.62
791.21	405.35
791.603	328.11
791.997	323.43
792.39	278.96
792.783	344.5
793.176	257.9
793.569	271.94
793.962	283.64
794.355	293.01
794.748	311.73
795.141	325.77
795.534	239.17
795.927	318.75
796.319	304.71
796.712	346.84
797.105	274.28
797.497	278.96
797.89	337.48
798.282	302.37
798.674	360.88
799.067	285.98
799.459	274.28
799.851	276.62
800.243	328.11
800.635	288.32
801.027	293.01
801.419	309.39
801.811	288.32
802.203	318.75
802.594	330.45
802.986	356.2
803.378	285.98
803.769	339.82
804.161	253.22
804.552	304.71
804.944	370.24
805.335	349.18
805.726	323.43
806.118	314.07
806.509	288.32
806.9	316.41
807.291	285.98
807.682	349.18
808.073	325.77
808.464	307.05
808.855	330.45
809.245	302.37
809.636	328.11
810.027	335.14
810.417	297.69
810.808	360.88
811.198	295.35
811.589	318.75
811.979	321.09
812.369	325.77
812.759	391.31
813.15	344.5
813.54	290.67
813.93	332.79
814.32	363.22
814.71	335.14
815.1	349.18
815.489	295.35
815.879	353.86
816.269	386.63
816.658	307.05
817.048	304.71
817.438	325.77
817.827	386.63
818.216	234.49
818.606	339.82
818.995	321.09
819.384	283.64
819.773	314.07
820.163	309.39
820.552	290.67
820.941	295.35
821.33	290.67
821.718	339.82
822.107	309.39
822.496	332.79
822.885	297.69
823.273	374.92
823.662	309.39
824.05	342.16
824.439	278.96
824.827	269.6
825.216	285.98
825.604	285.98
825.992	255.56
826.38	311.73
826.768	311.73
827.156	274.28
827.544	353.86
827.932	257.9
828.32	271.94
828.708	276.62
829.096	332.79
829.483	307.05
829.871	335.14
830.259	370.24
830.646	311.73
831.034	274.28
831.421	339.82
831.808	372.58
832.196	330.45
832.583	323.43
832.97	253.22
833.357	365.56
833.744	335.14
834.131	285.98
834.518	246.2
834.905	374.92
835.292	300.03
835.678	344.5
836.065	358.54
836.452	253.22
836.838	370.24
837.225	370.24
837.611	325.77
837.998	346.84
838.384	351.52
838.77	288.32
839.157	274.28
839.543	246.2
839.929	300.03
840.315	293.01
840.701	335.14
841.087	300.03
841.473	309.39
841.858	276.62
842.244	304.71
842.63	311.73
843.015	342.16
843.401	580.89
843.787	283.64
844.172	302.37
844.557	323.43
844.943	269.6
845.328	332.79
845.713	290.67
846.098	309.39
846.483	339.82
846.868	325.77
847.253	363.22
847.638	267.26
848.023	318.75
848.408	271.94
848.793	307.05
849.177	264.92
849.562	288.32
849.947	351.52
850.331	285.98
850.715	311.73
851.1	248.54
851.484	297.69
851.868	311.73
852.253	307.05
852.637	365.56
853.021	311.73
853.405	255.56
853.789	318.75
854.173	367.9
854.557	374.92
854.94	290.67
855.324	337.48
855.708	309.39
856.091	421.74
856.475	384.29
856.858	290.67
857.242	248.54
857.625	295.35
858.009	300.03
858.392	342.16
858.775	243.85
859.158	302.37
859.541	335.14
859.924	267.26
860.307	335.14
860.69	276.62
861.073	309.39
861.456	307.05
861.838	311.73
862.221	353.86
862.604	335.14
862.986	370.24
863.369	269.6
863.751	314.07
864.133	297.69
864.516	288.32
864.898	316.41
865.28	316.41
865.662	321.09
866.044	283.64
866.426	335.14
866.808	363.22
867.19	302.37
867.572	295.35
867.954	314.07
868.336	311.73
868.717	321.09
869.099	323.43
869.48	311.73
869.862	297.69
870.243	328.11
870.625	262.58
871.006	269.6
871.387	262.58
871.768	325.77
872.149	351.52
872.53	314.07
872.911	325.77
873.292	323.43
873.673	307.05
874.054	330.45
874.435	293.01
874.815	297.69
875.196	255.56
875.577	316.41
875.957	285.98
876.338	285.98
876.718	325.77
877.098	318.75
877.479	353.86
877.859	288.32
878.239	293.01
878.619	264.92
878.999	239.17
879.379	325.77
879.759	325.77
880.139	309.39
880.519	360.88
880.898	367.9
881.278	278.96
881.658	325.77
882.037	267.26
882.417	302.37
882.796	337.48
883.176	391.31
883.555	325.77
883.934	274.28
884.313	332.79
884.693	318.75
885.072	288.32
885.451	311.73
885.83	323.43
886.209	213.43
886.587	360.88
886.966	321.09
887.345	332.79
887.724	339.82
888.102	302.37
888.481	339.82
888.859	257.9
889.238	386.63
889.616	300.03
889.994	248.54
890.373	318.75
890.751	246.2
891.129	346.84
891.507	248.54
891.885	321.09
892.263	314.07
892.641	370.24
893.019	318.75
893.396	274.28
893.774	337.48
894.152	283.64
894.529	278.96
894.907	262.58
895.284	262.58
895.662	276.62
896.039	309.39
896.416	307.05
896.794	300.03
897.171	328.11
897.548	278.96
897.925	304.71
898.302	307.05
898.679	267.26
899.056	285.98
899.433	321.09
899.809	311.73
900.186	222.79
900.563	339.82
900.939	288.32
901.316	360.88
901.692	356.2
902.069	302.37
902.445	342.16
902.821	339.82
903.197	307.05
903.574	342.16
903.95	323.43
904.326	325.77
904.702	300.03
905.078	283.64
905.454	269.6
905.829	344.5
906.205	311.73
906.581	290.67
906.956	314.07
907.332	316.41
907.707	302.37
908.083	328.11
908.458	332.79
908.833	335.14
909.209	358.54
909.584	304.71
909.959	332.79
910.334	339.82
910.709	288.32
911.084	257.9
911.459	283.64
911.834	325.77
912.209	309.39
912.583	278.96
912.958	264.92
913.333	328.11
913.707	307.05
914.082	328.11
914.456	325.77
914.83	365.56
915.205	314.07
915.579	349.18
915.953	257.9
916.327	302.37
916.701	314.07
917.075	358.54
917.449	285.98
917.823	372.58
918.197	276.62
918.571	316.41
918.944	304.71
919.318	344.5
919.692	316.41
920.065	222.79
920.438	311.73
920.812	302.37
921.185	358.54
921.558	241.51
921.932	278.96
922.305	295.35
922.678	300.03
923.051	271.94
923.424	302.37
923.797	274.28
924.17	274.28
924.542	262.58
924.915	309.39
925.288	328.11
925.661	318.75
926.033	332.79
926.406	365.56
926.778	370.24
927.15	323.43
927.523	285.98
927.895	344.5
928.267	304.71
928.639	283.64
929.011	349.18
929.383	283.64
929.755	386.63
930.127	311.73
930.499	346.84
930.871	337.48
931.242	318.75
931.614	281.3
931.986	351.52
932.357	332.79
932.729	276.62
933.1	267.26
933.471	295.35
933.843	307.05
934.214	349.18
934.585	335.14
934.956	283.64
935.327	297.69
935.698	302.37
936.069	304.71
936.44	269.6
936.811	365.56
937.182	264.92
937.552	309.39
937.923	297.69
938.293	325.77
938.664	248.54
939.034	295.35
939.405	323.43
939.775	316.41
940.145	349.18
940.516	339.82
940.886	255.56
941.256	297.69
941.626	325.77
941.996	285.98
942.366	262.58
942.735	314.07
943.105	358.54
943.475	349.18
943.845	227.47
944.214	346.84
944.584	316.41
944.953	379.61
945.323	290.67
945.692	374.92
946.061	309.39
946.43	321.09
946.8	255.56
947.169	379.61
947.538	332.79
947.907	248.54
948.276	318.75
948.645	337.48
949.013	255.56
949.382	293.01
949.751	330.45
950.119	337.48
950.488	356.2
950.857	323.43
951.225	337.48
951.593	257.9
951.962	271.94
952.33	342.16
952.698	264.92
953.066	365.56
953.434	325.77
953.802	346.84
954.17	293.01
954.538	276.62
954.906	332.79
955.274	246.2
955.642	309.39
956.009	300.03
956.377	349.18
956.744	367.9
957.112	356.2
957.479	257.9
957.847	342.16
958.214	314.07
958.581	332.79
958.948	281.3
959.315	325.77
959.683	321.09
960.05	264.92
960.416	227.47
960.783	281.3
961.15	288.32
961.517	323.43
961.884	332.79
962.25	304.71
962.617	323.43
962.983	199.38
963.35	250.88
963.716	293.01
964.082	255.56
964.449	278.96
964.815	360.88
965.181	269.6
965.547	290.67
965.913	346.84
966.279	283.64
966.645	316.41
967.011	330.45
967.377	276.62
967.742	309.39
968.108	342.16
968.474	367.9
968.839	295.35
969.205	283.64
969.57	337.48
969.935	274.28
970.301	314.07
970.666	325.77
971.031	300.03
971.396	267.26
971.761	356.2
972.126	344.5
972.491	316.41
972.856	290.67
973.221	339.82
973.586	328.11
973.95	274.28
974.315	311.73
974.679	253.22
975.044	342.16
975.408	271.94
975.773	318.75
976.137	365.56
976.501	309.39
976.866	330.45
977.23	346.84
977.594	323.43
977.958	262.58
978.322	318.75
978.686	281.3
979.049	295.35
979.413	363.22
979.777	253.22
980.141	281.3
980.504	314.07
980.868	344.5
981.231	293.01
981.595	328.11
981.958	323.43
982.321	288.32
982.684	335.14
983.048	318.75
983.411	323.43
983.774	297.69
984.137	283.64
984.5	363.22
984.862	276.62
985.225	288.32
985.588	255.56
985.951	276.62
986.313	307.05
986.676	302.37
987.038	311.73
987.401	356.2
987.763	307.05
988.125	302.37
988.488	285.98
988.85	300.03
989.212	314.07
989.574	321.09
989.936	342.16
990.298	349.18
990.66	309.39
991.022	311.73
991.383	351.52
991.745	232.15
992.107	323.43
992.468	285.98
992.83	304.71
993.191	349.18
993.553	274.28
993.914	260.24
994.275	307.05
994.637	353.86
994.998	234.49
995.359	300.03
995.72	302.37
996.081	269.6
996.442	339.82
996.803	243.85
997.163	356.2
997.524	281.3
997.885	283.64
998.245	328.11
998.606	285.98
998.966	337.48
999.327	337.48
999.687	309.39
1000.047	309.39
1000.408	288.32
1000.768	285.98
1001.128	281.3
1001.488	318.75
1001.848	276.62
1002.208	321.09
1002.568	330.45
1002.927	309.39
1003.287	309.39
1003.647	330.45
1004.007	309.39
1004.366	360.88
1004.726	304.71
1005.085	300.03
1005.444	351.52
1005.804	285.98
1006.163	297.69
1006.522	311.73
1006.881	314.07
1007.24	232.15
1007.599	311.73
1007.958	307.05
1008.317	384.29
1008.676	330.45
1009.035	307.05
1009.393	374.92
1009.752	325.77
1010.111	304.71
1010.469	304.71
1010.828	321.09
1011.186	276.62
1011.544	269.6
1011.903	288.32
1012.261	358.54
1012.619	290.67
1012.977	316.41
1013.335	344.5
1013.693	297.69
1014.051	262.58
1014.409	337.48
1014.767	325.77
1015.124	288.32
1015.482	363.22
1015.84	267.26
1016.197	309.39
1016.555	288.32
1016.912	363.22
1017.269	260.24
1017.627	264.92
1017.984	304.71
1018.341	349.18
1018.698	293.01
1019.055	260.24
1019.412	314.07
1019.769	330.45
1020.126	281.3
1020.483	318.75
1020.84	250.88
1021.196	311.73
1021.553	290.67
1021.909	337.48
1022.266	328.11
1022.622	325.77
1022.979	290.67
1023.335	374.92
1023.691	304.71
1024.047	271.94
1024.404	344.5
1024.76	276.62
1025.116	271.94
1025.472	311.73
1025.827	323.43
1026.183	264.92
1026.539	297.69
1026.895	351.52
1027.25	309.39
1027.606	344.5
1027.961	337.48
1028.317	283.64
1028.672	274.28
1029.028	276.62
1029.383	325.77
1029.738	309.39
1030.093	351.52
1030.448	271.94
1030.803	307.05
1031.158	316.41
1031.513	285.98
1031.868	307.05
1032.223	300.03
1032.577	307.05
1032.932	344.5
1033.287	246.2
1033.641	344.5
1033.996	276.62
1034.35	302.37
1034.704	316.41
1035.059	276.62
1035.413	363.22
1035.767	363.22
1036.121	363.22
