Data from Al_FLMS009871__1010__16-22-54-919.txt Node

Date: Fri Mar 08 16:22:54 CST 2024
User: pe5414po
Spectrometer: FLMS00987
Trigger mode: 0
Integration Time (sec): 1.000000E-1
Scans to average: 1
Electric dark correction enabled: true
Nonlinearity correction enabled: false
Boxcar width: 0
XAxis mode: Wavelengths
Number of Pixels in Spectrum: 2048
>>>>>Begin Spectral Data<<<<<
188.938	-100.2
189.409	-100.2
189.879	-100.2
190.349	-114.25
190.819	-130.63
191.29	-72.12
191.76	-165.74
192.23	-118.93
192.7	-97.86
193.17	-41.69
193.64	30.87
194.109	-25.31
194.579	-6.58
195.049	26.18
195.519	35.55
195.988	-29.99
196.458	49.59
196.927	68.31
197.397	131.51
197.866	103.42
198.336	112.78
198.805	204.07
199.274	119.81
199.744	168.96
200.213	183
200.682	229.81
201.151	211.09
201.62	253.22
202.089	267.26
202.558	199.38
203.027	278.96
203.495	232.15
203.964	271.94
204.433	232.15
204.902	307.05
205.37	285.98
205.839	248.54
206.307	314.07
206.776	276.62
207.244	257.9
207.712	232.15
208.181	264.92
208.649	227.47
209.117	335.14
209.585	307.05
210.053	309.39
210.521	236.83
210.989	293.01
211.457	295.35
211.925	276.62
212.393	309.39
212.861	269.6
213.328	288.32
213.796	302.37
214.264	208.75
214.731	281.3
215.199	234.49
215.666	304.71
216.133	293.01
216.601	236.83
217.068	318.75
217.535	225.13
218.003	227.47
218.47	260.24
218.937	232.15
219.404	281.3
219.871	267.26
220.338	264.92
220.805	192.36
221.271	276.62
221.738	276.62
222.205	213.43
222.671	321.09
223.138	264.92
223.605	208.75
224.071	264.92
224.538	248.54
225.004	269.6
225.47	264.92
225.937	241.51
226.403	190.02
226.869	255.56
227.335	229.81
227.801	255.56
228.267	271.94
228.733	278.96
229.199	269.6
229.665	274.28
230.131	264.92
230.597	257.9
231.062	285.98
231.528	318.75
231.994	269.6
232.459	264.92
232.925	241.51
233.39	222.79
233.856	229.81
234.321	309.39
234.786	288.32
235.252	323.43
235.717	253.22
236.182	321.09
236.647	229.81
237.112	328.11
237.577	227.47
238.042	309.39
238.507	227.47
238.972	283.64
239.436	276.62
239.901	255.56
240.366	267.26
240.83	339.82
241.295	222.79
241.76	264.92
242.224	264.92
242.688	241.51
243.153	213.43
243.617	243.85
244.081	241.51
244.545	278.96
245.01	290.67
245.474	271.94
245.938	300.03
246.402	276.62
246.866	159.6
247.33	243.85
247.793	206.41
248.257	295.35
248.721	293.01
249.185	234.49
249.648	248.54
250.112	281.3
250.575	260.24
251.039	316.41
251.502	229.81
251.965	260.24
252.429	271.94
252.892	281.3
253.355	314.07
253.818	283.64
254.281	309.39
254.744	234.49
255.207	253.22
255.67	250.88
256.133	278.96
256.596	323.43
257.059	225.13
257.522	309.39
257.984	295.35
258.447	229.81
258.909	302.37
259.372	290.67
259.834	271.94
260.297	321.09
260.759	297.69
261.221	264.92
261.684	248.54
262.146	290.67
262.608	232.15
263.07	267.26
263.532	311.73
263.994	274.28
264.456	309.39
264.918	248.54
265.38	264.92
265.842	250.88
266.303	307.05
266.765	351.52
267.227	269.6
267.688	269.6
268.15	262.58
268.611	295.35
269.072	302.37
269.534	267.26
269.995	276.62
270.456	300.03
270.918	307.05
271.379	311.73
271.84	288.32
272.301	204.07
272.762	351.52
273.223	281.3
273.684	339.82
274.144	267.26
274.605	285.98
275.066	269.6
275.527	253.22
275.987	307.05
276.448	274.28
276.908	260.24
277.369	281.3
277.829	365.56
278.289	276.62
278.75	349.18
279.21	267.26
279.67	332.79
280.13	271.94
280.59	274.28
281.05	283.64
281.51	307.05
281.97	307.05
282.43	318.75
282.89	269.6
283.35	288.32
283.809	295.35
284.269	243.85
284.729	285.98
285.188	285.98
285.648	257.9
286.107	246.2
286.567	314.07
287.026	241.51
287.485	316.41
287.944	255.56
288.404	321.09
288.863	274.28
289.322	248.54
289.781	290.67
290.24	218.11
290.699	297.69
291.158	344.5
291.616	353.86
292.075	285.98
292.534	311.73
292.992	328.11
293.451	271.94
293.91	267.26
294.368	307.05
294.827	274.28
295.285	290.67
295.743	314.07
296.202	297.69
296.66	225.13
297.118	293.01
297.576	323.43
298.034	278.96
298.492	332.79
298.95	276.62
299.408	250.88
299.866	274.28
300.324	309.39
300.781	264.92
301.239	325.77
301.697	276.62
302.154	227.47
302.612	323.43
303.069	269.6
303.527	267.26
303.984	269.6
304.441	316.41
304.899	311.73
305.356	248.54
305.813	274.28
306.27	295.35
306.727	271.94
307.184	335.14
307.641	321.09
308.098	353.86
308.555	278.96
309.012	253.22
309.468	225.13
309.925	316.41
310.382	285.98
310.838	248.54
311.295	276.62
311.751	314.07
312.208	346.84
312.664	321.09
313.12	274.28
313.577	344.5
314.033	274.28
314.489	318.75
314.945	297.69
315.401	264.92
315.857	304.71
316.313	335.14
316.769	342.16
317.225	342.16
317.681	260.24
318.136	260.24
318.592	318.75
319.048	311.73
319.503	307.05
319.959	281.3
320.414	257.9
320.869	323.43
321.325	293.01
321.78	281.3
322.235	360.88
322.691	297.69
323.146	325.77
323.601	250.88
324.056	262.58
324.511	349.18
324.966	346.84
325.421	290.67
325.875	314.07
326.33	271.94
326.785	381.95
327.24	318.75
327.694	318.75
328.149	330.45
328.603	267.26
329.058	257.9
329.512	281.3
329.966	234.49
330.421	260.24
330.875	321.09
331.329	302.37
331.783	229.81
332.237	281.3
332.691	304.71
333.145	297.69
333.599	311.73
334.053	335.14
334.507	220.45
334.96	316.41
335.414	356.2
335.868	213.43
336.321	243.85
336.775	222.79
337.228	351.52
337.682	356.2
338.135	285.98
338.588	370.24
339.042	314.07
339.495	274.28
339.948	276.62
340.401	311.73
340.854	302.37
341.307	255.56
341.76	302.37
342.213	246.2
342.666	260.24
343.119	321.09
343.571	255.56
344.024	339.82
344.477	311.73
344.929	379.61
345.382	316.41
345.834	302.37
346.287	307.05
346.739	307.05
347.191	283.64
347.644	356.2
348.096	386.63
348.548	253.22
349	295.35
349.452	260.24
349.904	328.11
350.356	325.77
350.808	300.03
351.26	325.77
351.711	328.11
352.163	253.22
352.615	323.43
353.066	290.67
353.518	309.39
353.969	314.07
354.421	290.67
354.872	297.69
355.324	332.79
355.775	309.39
356.226	293.01
356.677	346.84
357.128	281.3
357.579	316.41
358.03	304.71
358.481	367.9
358.932	323.43
359.383	276.62
359.834	262.58
360.285	264.92
360.735	363.22
361.186	353.86
361.637	297.69
362.087	309.39
362.538	339.82
362.988	328.11
363.438	337.48
363.889	356.2
364.339	253.22
364.789	353.86
365.239	337.48
365.689	309.39
366.139	295.35
366.589	304.71
367.039	300.03
367.489	314.07
367.939	314.07
368.389	255.56
368.839	293.01
369.288	346.84
369.738	293.01
370.187	325.77
370.637	386.63
371.086	278.96
371.536	295.35
371.985	307.05
372.434	351.52
372.884	325.77
373.333	290.67
373.782	302.37
374.231	281.3
374.68	288.32
375.129	253.22
375.578	290.67
376.027	311.73
376.475	351.52
376.924	281.3
377.373	281.3
377.822	262.58
378.27	302.37
378.719	335.14
379.167	295.35
379.616	318.75
380.064	342.16
380.512	311.73
380.961	323.43
381.409	293.01
381.857	323.43
382.305	311.73
382.753	321.09
383.201	260.24
383.649	307.05
384.097	307.05
384.545	316.41
384.992	293.01
385.44	328.11
385.888	285.98
386.335	314.07
386.783	281.3
387.231	339.82
387.678	304.71
388.125	274.28
388.573	288.32
389.02	295.35
389.467	218.11
389.914	255.56
390.362	344.5
390.809	285.98
391.256	288.32
391.703	297.69
392.15	307.05
392.596	290.67
393.043	274.28
393.49	314.07
393.937	285.98
394.383	234.49
394.83	323.43
395.276	325.77
395.723	283.64
396.169	297.69
396.616	290.67
397.062	307.05
397.508	309.39
397.954	358.54
398.401	398.33
398.847	290.67
399.293	346.84
399.739	248.54
400.185	293.01
400.631	297.69
401.076	342.16
401.522	300.03
401.968	255.56
402.414	353.86
402.859	323.43
403.305	330.45
403.75	332.79
404.196	349.18
404.641	309.39
405.086	293.01
405.532	302.37
405.977	358.54
406.422	344.5
406.867	379.61
407.312	250.88
407.757	274.28
408.202	293.01
408.647	356.2
409.092	302.37
409.537	271.94
409.982	349.18
410.426	325.77
410.871	384.29
411.316	311.73
411.76	323.43
412.205	349.18
412.649	342.16
413.093	281.3
413.538	349.18
413.982	288.32
414.426	321.09
414.87	204.07
415.314	243.85
415.758	311.73
416.202	351.52
416.646	372.58
417.09	304.71
417.534	276.62
417.978	325.77
418.421	363.22
418.865	318.75
419.309	349.18
419.752	321.09
420.196	314.07
420.639	328.11
421.083	243.85
421.526	283.64
421.969	311.73
422.412	344.5
422.856	276.62
423.299	356.2
423.742	283.64
424.185	330.45
424.628	323.43
425.071	297.69
425.513	346.84
425.956	283.64
426.399	260.24
426.842	288.32
427.284	290.67
427.727	328.11
428.169	321.09
428.612	351.52
429.054	314.07
429.497	267.26
429.939	285.98
430.381	311.73
430.823	302.37
431.265	353.86
431.707	330.45
432.149	325.77
432.591	288.32
433.033	283.64
433.475	276.62
433.917	344.5
434.359	314.07
434.8	314.07
435.242	321.09
435.684	325.77
436.125	337.48
436.567	307.05
437.008	293.01
437.449	213.43
437.891	285.98
438.332	276.62
438.773	342.16
439.214	278.96
439.656	290.67
440.097	344.5
440.538	307.05
440.978	293.01
441.419	262.58
441.86	314.07
442.301	318.75
442.742	318.75
443.182	330.45
443.623	328.11
444.063	381.95
444.504	300.03
444.944	285.98
445.385	321.09
445.825	323.43
446.265	342.16
446.706	332.79
447.146	288.32
447.586	311.73
448.026	297.69
448.466	283.64
448.906	311.73
449.346	285.98
449.786	349.18
450.225	318.75
450.665	302.37
451.105	307.05
451.544	330.45
451.984	311.73
452.424	374.92
452.863	316.41
453.302	309.39
453.742	325.77
454.181	321.09
454.62	332.79
455.059	314.07
455.499	276.62
455.938	384.29
456.377	335.14
456.816	302.37
457.254	260.24
457.693	255.56
458.132	379.61
458.571	290.67
459.01	349.18
459.448	243.85
459.887	227.47
460.325	297.69
460.764	314.07
461.202	302.37
461.641	328.11
462.079	325.77
462.517	285.98
462.955	358.54
463.393	269.6
463.832	351.52
464.27	332.79
464.708	311.73
465.145	344.5
465.583	360.88
466.021	321.09
466.459	269.6
466.897	297.69
467.334	342.16
467.772	278.96
468.209	297.69
468.647	309.39
469.084	323.43
469.522	311.73
469.959	332.79
470.396	285.98
470.833	328.11
471.271	400.67
471.708	274.28
472.145	288.32
472.582	302.37
473.019	281.3
473.456	290.67
473.892	335.14
474.329	304.71
474.766	321.09
475.202	300.03
475.639	365.56
476.076	309.39
476.512	377.27
476.949	307.05
477.385	365.56
477.821	346.84
478.258	239.17
478.694	339.82
479.13	295.35
479.566	285.98
480.002	337.48
480.438	274.28
480.874	302.37
481.31	250.88
481.746	316.41
482.181	332.79
482.617	321.09
483.053	316.41
483.488	295.35
483.924	257.9
484.36	283.64
484.795	278.96
485.23	295.35
485.666	321.09
486.101	339.82
486.536	325.77
486.971	309.39
487.407	339.82
487.842	283.64
488.277	349.18
488.712	257.9
489.146	262.58
489.581	264.92
490.016	363.22
490.451	288.32
490.885	353.86
491.32	304.71
491.755	316.41
492.189	379.61
492.624	318.75
493.058	309.39
493.492	316.41
493.927	276.62
494.361	349.18
494.795	337.48
495.229	309.39
495.663	332.79
496.097	358.54
496.531	377.27
496.965	318.75
497.399	295.35
497.833	283.64
498.266	325.77
498.7	302.37
499.134	300.03
499.567	302.37
500.001	363.22
500.434	276.62
500.868	339.82
501.301	309.39
501.734	274.28
502.168	314.07
502.601	288.32
503.034	283.64
503.467	314.07
503.9	349.18
504.333	307.05
504.766	295.35
505.199	363.22
505.632	330.45
506.064	264.92
506.497	285.98
506.93	363.22
507.362	290.67
507.795	381.95
508.227	307.05
508.66	246.2
509.092	257.9
509.524	285.98
509.956	360.88
510.389	281.3
510.821	297.69
511.253	297.69
511.685	335.14
512.117	297.69
512.549	290.67
512.981	309.39
513.412	323.43
513.844	267.26
514.276	346.84
514.707	332.79
515.139	314.07
515.571	297.69
516.002	264.92
516.433	360.88
516.865	283.64
517.296	302.37
517.727	337.48
518.159	302.37
518.59	349.18
519.021	302.37
519.452	307.05
519.883	239.17
520.314	330.45
520.744	274.28
521.175	316.41
521.606	337.48
522.037	241.51
522.467	260.24
522.898	339.82
523.328	332.79
523.759	328.11
524.189	346.84
524.62	318.75
525.05	278.96
525.48	363.22
525.91	290.67
526.341	323.43
526.771	337.48
527.201	295.35
527.631	225.13
528.061	262.58
528.49	339.82
528.92	323.43
529.35	316.41
529.78	328.11
530.209	220.45
530.639	330.45
531.068	293.01
531.498	323.43
531.927	300.03
532.357	321.09
532.786	311.73
533.215	269.6
533.644	358.54
534.074	276.62
534.503	344.5
534.932	391.31
535.361	271.94
535.79	330.45
536.218	288.32
536.647	304.71
537.076	304.71
537.505	290.67
537.933	297.69
538.362	276.62
538.79	269.6
539.219	367.9
539.647	337.48
540.076	285.98
540.504	367.9
540.932	337.48
541.36	358.54
541.788	300.03
542.217	307.05
542.645	269.6
543.073	318.75
543.5	335.14
543.928	290.67
544.356	295.35
544.784	351.52
545.211	304.71
545.639	300.03
546.067	314.07
546.494	353.86
546.922	297.69
547.349	311.73
547.776	300.03
548.204	335.14
548.631	276.62
549.058	323.43
549.485	293.01
549.912	300.03
550.339	318.75
550.766	269.6
551.193	367.9
551.62	344.5
552.047	304.71
552.474	318.75
552.9	300.03
553.327	307.05
553.754	295.35
554.18	321.09
554.607	323.43
555.033	314.07
555.459	300.03
555.886	264.92
556.312	335.14
556.738	269.6
557.164	269.6
557.59	318.75
558.016	363.22
558.442	314.07
558.868	314.07
559.294	314.07
559.72	304.71
560.145	304.71
560.571	311.73
560.997	278.96
561.422	283.64
561.848	330.45
562.273	325.77
562.699	330.45
563.124	295.35
563.549	358.54
563.974	227.47
564.4	290.67
564.825	349.18
565.25	372.58
565.675	302.37
566.1	278.96
566.525	314.07
566.95	381.95
567.374	300.03
567.799	349.18
568.224	295.35
568.648	367.9
569.073	328.11
569.497	253.22
569.922	344.5
570.346	311.73
570.771	335.14
571.195	337.48
571.619	309.39
572.043	243.85
572.467	344.5
572.891	323.43
573.315	281.3
573.739	285.98
574.163	337.48
574.587	257.9
575.011	293.01
575.435	323.43
575.858	293.01
576.282	314.07
576.705	335.14
577.129	335.14
577.552	293.01
577.976	236.83
578.399	321.09
578.822	332.79
579.245	351.52
579.669	302.37
580.092	325.77
580.515	278.96
580.938	349.18
581.361	344.5
581.784	344.5
582.206	342.16
582.629	328.11
583.052	311.73
583.474	295.35
583.897	295.35
584.32	288.32
584.742	332.79
585.165	353.86
585.587	410.03
586.009	339.82
586.431	285.98
586.854	260.24
587.276	295.35
587.698	276.62
588.12	316.41
588.542	372.58
588.964	281.3
589.386	321.09
589.807	293.01
590.229	262.58
590.651	337.48
591.073	318.75
591.494	325.77
591.916	278.96
592.337	295.35
592.759	337.48
593.18	295.35
593.601	360.88
594.022	337.48
594.444	311.73
594.865	328.11
595.286	363.22
595.707	311.73
596.128	271.94
596.549	316.41
596.97	346.84
597.39	374.92
597.811	302.37
598.232	323.43
598.652	342.16
599.073	342.16
599.494	337.48
599.914	330.45
600.334	293.01
600.755	316.41
601.175	288.32
601.595	314.07
602.015	325.77
602.436	293.01
602.856	459.18
603.276	309.39
603.696	307.05
604.115	285.98
604.535	316.41
604.955	309.39
605.375	318.75
605.794	328.11
606.214	283.64
606.634	281.3
607.053	314.07
607.473	351.52
607.892	342.16
608.311	353.86
608.731	276.62
609.15	325.77
609.569	213.43
609.988	269.6
610.407	239.17
610.826	363.22
611.245	337.48
611.664	276.62
612.083	285.98
612.501	297.69
612.92	285.98
613.339	388.97
613.757	325.77
614.176	344.5
614.594	295.35
615.013	307.05
615.431	311.73
615.85	337.48
616.268	351.52
616.686	288.32
617.104	314.07
617.522	367.9
617.94	290.67
618.358	293.01
618.776	262.58
619.194	274.28
619.612	321.09
620.03	346.84
620.447	269.6
620.865	356.2
621.282	349.18
621.7	363.22
622.117	318.75
622.535	300.03
622.952	253.22
623.369	302.37
623.787	300.03
624.204	356.2
624.621	360.88
625.038	314.07
625.455	339.82
625.872	267.26
626.289	285.98
626.706	307.05
627.123	250.88
627.539	344.5
627.956	321.09
628.373	330.45
628.789	262.58
629.206	365.56
629.622	257.9
630.038	311.73
630.455	330.45
630.871	318.75
631.287	356.2
631.703	386.63
632.12	316.41
632.536	321.09
632.952	253.22
633.368	271.94
633.783	363.22
634.199	323.43
634.615	321.09
635.031	262.58
635.446	290.67
635.862	332.79
636.277	367.9
636.693	302.37
637.108	304.71
637.524	360.88
637.939	297.69
638.354	274.28
638.77	335.14
639.185	339.82
639.6	367.9
640.015	360.88
640.43	311.73
640.845	328.11
641.259	260.24
641.674	302.37
642.089	367.9
642.504	297.69
642.918	276.62
643.333	304.71
643.747	283.64
644.162	363.22
644.576	295.35
644.991	278.96
645.405	293.01
645.819	302.37
646.233	300.03
646.647	307.05
647.061	314.07
647.475	335.14
647.889	302.37
648.303	314.07
648.717	290.67
649.131	302.37
649.545	346.84
649.958	302.37
650.372	311.73
650.785	262.58
651.199	283.64
651.612	300.03
652.026	288.32
652.439	278.96
652.852	285.98
653.266	349.18
653.679	328.11
654.092	304.71
654.505	314.07
654.918	260.24
655.331	288.32
655.744	285.98
656.156	325.77
656.569	269.6
656.982	342.16
657.394	328.11
657.807	278.96
658.22	318.75
658.632	248.54
659.044	321.09
659.457	346.84
659.869	318.75
660.281	328.11
660.693	377.27
661.106	344.5
661.518	314.07
661.93	342.16
662.342	285.98
662.754	325.77
663.165	300.03
663.577	307.05
663.989	325.77
664.401	246.2
664.812	253.22
665.224	309.39
665.635	243.85
666.047	318.75
666.458	325.77
666.869	225.13
667.281	342.16
667.692	267.26
668.103	304.71
668.514	300.03
668.925	257.9
669.336	283.64
669.747	264.92
670.158	278.96
670.569	295.35
670.979	353.86
671.39	321.09
671.801	330.45
672.211	351.52
672.622	293.01
673.032	271.94
673.443	302.37
673.853	316.41
674.263	307.05
674.674	330.45
675.084	300.03
675.494	325.77
675.904	300.03
676.314	360.88
676.724	293.01
677.134	276.62
677.544	332.79
677.953	374.92
678.363	372.58
678.773	405.35
679.182	349.18
679.592	269.6
680.001	342.16
680.411	314.07
680.82	363.22
681.23	274.28
681.639	309.39
682.048	311.73
682.457	325.77
682.866	323.43
683.275	363.22
683.684	281.3
684.093	297.69
684.502	309.39
684.911	330.45
685.32	304.71
685.728	370.24
686.137	267.26
686.546	337.48
686.954	339.82
687.363	302.37
687.771	344.5
688.179	339.82
688.588	300.03
688.996	260.24
689.404	325.77
689.812	300.03
690.22	278.96
690.628	211.09
691.036	295.35
691.444	276.62
691.852	342.16
692.26	332.79
692.667	297.69
693.075	264.92
693.483	278.96
693.89	246.2
694.298	321.09
694.705	314.07
695.112	344.5
695.52	295.35
695.927	288.32
696.334	335.14
696.741	307.05
697.148	365.56
697.555	302.37
697.962	243.85
698.369	295.35
698.776	300.03
699.183	253.22
699.59	274.28
699.996	276.62
700.403	339.82
700.81	262.58
701.216	309.39
701.623	321.09
702.029	344.5
702.435	358.54
702.842	295.35
703.248	300.03
703.654	302.37
704.06	295.35
704.466	307.05
704.872	321.09
705.278	337.48
705.684	339.82
706.09	288.32
706.496	332.79
706.901	344.5
707.307	295.35
707.712	293.01
708.118	318.75
708.523	353.86
708.929	323.43
709.334	349.18
709.74	367.9
710.145	295.35
710.55	337.48
710.955	241.51
711.36	255.56
711.765	250.88
712.17	363.22
712.575	318.75
712.98	814.95
713.385	344.5
713.789	271.94
714.194	314.07
714.599	314.07
715.003	351.52
715.408	332.79
715.812	370.24
716.217	283.64
716.621	307.05
717.025	307.05
717.429	349.18
717.833	269.6
718.238	311.73
718.642	314.07
719.046	243.85
719.449	283.64
719.853	229.81
720.257	325.77
720.661	316.41
721.065	328.11
721.468	321.09
721.872	232.15
722.275	337.48
722.679	318.75
723.082	314.07
723.485	330.45
723.889	314.07
724.292	290.67
724.695	281.3
725.098	288.32
725.501	339.82
725.904	330.45
726.307	281.3
726.71	281.3
727.113	332.79
727.516	278.96
727.918	288.32
728.321	290.67
728.724	290.67
729.126	260.24
729.529	295.35
729.931	304.71
730.333	314.07
730.736	290.67
731.138	281.3
731.54	358.54
731.942	283.64
732.344	311.73
732.746	370.24
733.148	285.98
733.55	293.01
733.952	264.92
734.354	330.45
734.756	386.63
735.157	288.32
735.559	311.73
735.96	344.5
736.362	316.41
736.763	325.77
737.165	314.07
737.566	269.6
737.967	337.48
738.368	295.35
738.77	285.98
739.171	255.56
739.572	239.17
739.973	323.43
740.374	363.22
740.774	377.27
741.175	293.01
741.576	297.69
741.977	325.77
742.377	309.39
742.778	307.05
743.178	278.96
743.579	271.94
743.979	314.07
744.379	365.56
744.78	295.35
745.18	281.3
745.58	332.79
745.98	293.01
746.38	309.39
746.78	316.41
747.18	328.11
747.58	330.45
747.98	293.01
748.38	328.11
748.779	328.11
749.179	257.9
749.578	353.86
749.978	325.77
750.377	328.11
750.777	342.16
751.176	264.92
751.575	300.03
751.975	318.75
752.374	290.67
752.773	349.18
753.172	307.05
753.571	379.61
753.97	276.62
754.369	295.35
754.768	278.96
755.166	281.3
755.565	367.9
755.964	321.09
756.362	339.82
756.761	323.43
757.159	290.67
757.558	349.18
757.956	288.32
758.354	260.24
758.753	297.69
759.151	295.35
759.549	255.56
759.947	267.26
760.345	318.75
760.743	257.9
761.141	414.71
761.539	283.64
761.936	250.88
762.334	257.9
762.732	297.69
763.129	311.73
763.527	283.64
763.924	351.52
764.322	325.77
764.719	314.07
765.117	274.28
765.514	363.22
765.911	339.82
766.308	346.84
766.705	283.64
767.102	316.41
767.499	276.62
767.896	274.28
768.293	342.16
768.69	405.35
769.086	360.88
769.483	307.05
769.88	344.5
770.276	283.64
770.673	311.73
771.069	316.41
771.466	342.16
771.862	295.35
772.258	316.41
772.654	283.64
773.05	370.24
773.447	353.86
773.843	297.69
774.239	262.58
774.634	288.32
775.03	311.73
775.426	332.79
775.822	323.43
776.218	323.43
776.613	346.84
777.009	302.37
777.404	241.51
777.8	325.77
778.195	293.01
778.59	370.24
778.986	307.05
779.381	314.07
779.776	328.11
780.171	325.77
780.566	307.05
780.961	309.39
781.356	307.05
781.751	290.67
782.146	309.39
782.54	304.71
782.935	276.62
783.33	290.67
783.724	295.35
784.119	351.52
784.513	349.18
784.908	325.77
785.302	323.43
785.696	344.5
786.09	302.37
786.485	316.41
786.879	337.48
787.273	321.09
787.667	337.48
788.061	241.51
788.454	276.62
788.848	253.22
789.242	349.18
789.636	309.39
790.029	262.58
790.423	344.5
790.816	346.84
791.21	274.28
791.603	211.09
791.997	271.94
792.39	309.39
792.783	309.39
793.176	283.64
793.569	321.09
793.962	253.22
794.355	276.62
794.748	257.9
795.141	321.09
795.534	269.6
795.927	300.03
796.319	325.77
796.712	288.32
797.105	372.58
797.497	318.75
797.89	351.52
798.282	295.35
798.674	328.11
799.067	295.35
799.459	290.67
799.851	283.64
800.243	349.18
800.635	253.22
801.027	302.37
801.419	323.43
801.811	293.01
802.203	330.45
802.594	309.39
802.986	297.69
803.378	316.41
803.769	283.64
804.161	302.37
804.552	332.79
804.944	351.52
805.335	281.3
805.726	278.96
806.118	325.77
806.509	321.09
806.9	377.27
807.291	281.3
807.682	309.39
808.073	342.16
808.464	255.56
808.855	307.05
809.245	253.22
809.636	206.41
810.027	307.05
810.417	321.09
810.808	271.94
811.198	379.61
811.589	370.24
811.979	360.88
812.369	395.99
812.759	267.26
813.15	330.45
813.54	344.5
813.93	293.01
814.32	321.09
814.71	302.37
815.1	293.01
815.489	351.52
815.879	307.05
816.269	339.82
816.658	297.69
817.048	283.64
817.438	288.32
817.827	351.52
818.216	339.82
818.606	309.39
818.995	293.01
819.384	300.03
819.773	302.37
820.163	260.24
820.552	276.62
820.941	307.05
821.33	290.67
821.718	335.14
822.107	323.43
822.496	260.24
822.885	281.3
823.273	304.71
823.662	328.11
824.05	297.69
824.439	276.62
824.827	328.11
825.216	302.37
825.604	285.98
825.992	285.98
826.38	293.01
826.768	309.39
827.156	278.96
827.544	344.5
827.932	293.01
828.32	283.64
828.708	342.16
829.096	323.43
829.483	295.35
829.871	297.69
830.259	302.37
830.646	358.54
831.034	297.69
831.421	363.22
831.808	290.67
832.196	278.96
832.583	278.96
832.97	300.03
833.357	290.67
833.744	314.07
834.131	271.94
834.518	304.71
834.905	328.11
835.292	295.35
835.678	246.2
836.065	257.9
836.452	311.73
836.838	304.71
837.225	321.09
837.611	269.6
837.998	316.41
838.384	339.82
838.77	260.24
839.157	297.69
839.543	262.58
839.929	323.43
840.315	311.73
840.701	318.75
841.087	309.39
841.473	300.03
841.858	325.77
842.244	349.18
842.63	300.03
843.015	332.79
843.401	548.12
843.787	267.26
844.172	260.24
844.557	248.54
844.943	297.69
845.328	353.86
845.713	325.77
846.098	351.52
846.483	367.9
846.868	243.85
847.253	337.48
847.638	215.77
848.023	293.01
848.408	321.09
848.793	360.88
849.177	309.39
849.562	267.26
849.947	311.73
850.331	363.22
850.715	264.92
851.1	318.75
851.484	321.09
851.868	241.51
852.253	239.17
852.637	246.2
853.021	328.11
853.405	264.92
853.789	328.11
854.173	236.83
854.557	246.2
854.94	276.62
855.324	232.15
855.708	295.35
856.091	321.09
856.475	293.01
856.858	264.92
857.242	314.07
857.625	293.01
858.009	250.88
858.392	316.41
858.775	353.86
859.158	344.5
859.541	311.73
859.924	332.79
860.307	314.07
860.69	304.71
861.073	300.03
861.456	325.77
861.838	335.14
862.221	293.01
862.604	339.82
862.986	300.03
863.369	285.98
863.751	295.35
864.133	325.77
864.516	297.69
864.898	257.9
865.28	260.24
865.662	325.77
866.044	262.58
866.426	285.98
866.808	349.18
867.19	276.62
867.572	290.67
867.954	332.79
868.336	321.09
868.717	302.37
869.099	232.15
869.48	239.17
869.862	293.01
870.243	293.01
870.625	293.01
871.006	285.98
871.387	269.6
871.768	316.41
872.149	278.96
872.53	335.14
872.911	274.28
873.292	309.39
873.673	234.49
874.054	328.11
874.435	351.52
874.815	293.01
875.196	276.62
875.577	267.26
875.957	332.79
876.338	335.14
876.718	269.6
877.098	302.37
877.479	311.73
877.859	278.96
878.239	309.39
878.619	248.54
878.999	297.69
879.379	391.31
879.759	267.26
880.139	314.07
880.519	274.28
880.898	262.58
881.278	332.79
881.658	297.69
882.037	335.14
882.417	302.37
882.796	323.43
883.176	339.82
883.555	304.71
883.934	328.11
884.313	297.69
884.693	293.01
885.072	274.28
885.451	316.41
885.83	276.62
886.209	271.94
886.587	330.45
886.966	307.05
887.345	384.29
887.724	260.24
888.102	300.03
888.481	367.9
888.859	314.07
889.238	295.35
889.616	300.03
889.994	332.79
890.373	307.05
890.751	316.41
891.129	302.37
891.507	314.07
891.885	297.69
892.263	285.98
892.641	248.54
893.019	260.24
893.396	302.37
893.774	328.11
894.152	363.22
894.529	274.28
894.907	295.35
895.284	349.18
895.662	318.75
896.039	314.07
896.416	278.96
896.794	377.27
897.171	246.2
897.548	304.71
897.925	255.56
898.302	318.75
898.679	283.64
899.056	278.96
899.433	260.24
899.809	302.37
900.186	215.77
900.563	269.6
900.939	290.67
901.316	318.75
901.692	278.96
902.069	314.07
902.445	356.2
902.821	309.39
903.197	323.43
903.574	314.07
903.95	367.9
904.326	262.58
904.702	304.71
905.078	339.82
905.454	297.69
905.829	311.73
906.205	253.22
906.581	339.82
906.956	288.32
907.332	276.62
907.707	344.5
908.083	300.03
908.458	269.6
908.833	290.67
909.209	246.2
909.584	243.85
909.959	309.39
910.334	323.43
910.709	262.58
911.084	278.96
911.459	300.03
911.834	314.07
912.209	264.92
912.583	351.52
912.958	346.84
913.333	318.75
913.707	269.6
914.082	250.88
914.456	339.82
914.83	342.16
915.205	360.88
915.579	220.45
915.953	360.88
916.327	307.05
916.701	274.28
917.075	307.05
917.449	367.9
917.823	307.05
918.197	318.75
918.571	391.31
918.944	243.85
919.318	213.43
919.692	323.43
920.065	276.62
920.438	267.26
920.812	285.98
921.185	257.9
921.558	321.09
921.932	255.56
922.305	297.69
922.678	321.09
923.051	274.28
923.424	274.28
923.797	297.69
924.17	365.56
924.542	330.45
924.915	297.69
925.288	358.54
925.661	257.9
926.033	314.07
926.406	325.77
926.778	239.17
927.15	307.05
927.523	288.32
927.895	339.82
928.267	304.71
928.639	264.92
929.011	290.67
929.383	337.48
929.755	325.77
930.127	278.96
930.499	339.82
930.871	309.39
931.242	374.92
931.614	267.26
931.986	332.79
932.357	255.56
932.729	262.58
933.1	300.03
933.471	358.54
933.843	372.58
934.214	246.2
934.585	267.26
934.956	309.39
935.327	302.37
935.698	337.48
936.069	344.5
936.44	302.37
936.811	323.43
937.182	274.28
937.552	351.52
937.923	314.07
938.293	363.22
938.664	246.2
939.034	335.14
939.405	260.24
939.775	250.88
940.145	276.62
940.516	330.45
940.886	267.26
941.256	267.26
941.626	318.75
941.996	316.41
942.366	339.82
942.735	335.14
943.105	307.05
943.475	290.67
943.845	379.61
944.214	278.96
944.584	309.39
944.953	314.07
945.323	267.26
945.692	344.5
946.061	328.11
946.43	332.79
946.8	260.24
947.169	264.92
947.538	262.58
947.907	295.35
948.276	330.45
948.645	295.35
949.013	274.28
949.382	318.75
949.751	330.45
950.119	293.01
950.488	297.69
950.857	278.96
951.225	281.3
951.593	274.28
951.962	274.28
952.33	309.39
952.698	337.48
953.066	281.3
953.434	339.82
953.802	353.86
954.17	304.71
954.538	281.3
954.906	281.3
955.274	311.73
955.642	332.79
956.009	264.92
956.377	281.3
956.744	304.71
957.112	241.51
957.479	264.92
957.847	297.69
958.214	346.84
958.581	344.5
958.948	332.79
959.315	274.28
959.683	332.79
960.05	323.43
960.416	300.03
960.783	293.01
961.15	255.56
961.517	283.64
961.884	307.05
962.25	304.71
962.617	386.63
962.983	307.05
963.35	344.5
963.716	332.79
964.082	321.09
964.449	274.28
964.815	300.03
965.181	267.26
965.547	311.73
965.913	302.37
966.279	250.88
966.645	257.9
967.011	274.28
967.377	236.83
967.742	302.37
968.108	337.48
968.474	255.56
968.839	325.77
969.205	241.51
969.57	311.73
969.935	267.26
970.301	241.51
970.666	356.2
971.031	243.85
971.396	302.37
971.761	269.6
972.126	360.88
972.491	351.52
972.856	342.16
973.221	325.77
973.586	337.48
973.95	264.92
974.315	274.28
974.679	241.51
975.044	300.03
975.408	314.07
975.773	260.24
976.137	274.28
976.501	337.48
976.866	314.07
977.23	288.32
977.594	337.48
977.958	302.37
978.322	318.75
978.686	302.37
979.049	295.35
979.413	332.79
979.777	325.77
980.141	314.07
980.504	260.24
980.868	349.18
981.231	349.18
981.595	267.26
981.958	278.96
982.321	314.07
982.684	307.05
983.048	405.35
983.411	288.32
983.774	318.75
984.137	302.37
984.5	257.9
984.862	274.28
985.225	342.16
985.588	309.39
985.951	288.32
986.313	372.58
986.676	377.27
987.038	307.05
987.401	239.17
987.763	314.07
988.125	281.3
988.488	274.28
988.85	285.98
989.212	297.69
989.574	283.64
989.936	323.43
990.298	278.96
990.66	274.28
991.022	239.17
991.383	349.18
991.745	335.14
992.107	346.84
992.468	293.01
992.83	302.37
993.191	269.6
993.553	248.54
993.914	248.54
994.275	339.82
994.637	330.45
994.998	290.67
995.359	255.56
995.72	325.77
996.081	241.51
996.442	335.14
996.803	309.39
997.163	307.05
997.524	300.03
997.885	337.48
998.245	271.94
998.606	328.11
998.966	309.39
999.327	314.07
999.687	332.79
1000.047	267.26
1000.408	300.03
1000.768	285.98
1001.128	316.41
1001.488	278.96
1001.848	213.43
1002.208	304.71
1002.568	325.77
1002.927	239.17
1003.287	281.3
1003.647	351.52
1004.007	307.05
1004.366	342.16
1004.726	297.69
1005.085	337.48
1005.444	307.05
1005.804	290.67
1006.163	278.96
1006.522	234.49
1006.881	281.3
1007.24	304.71
1007.599	295.35
1007.958	285.98
1008.317	323.43
1008.676	262.58
1009.035	302.37
1009.393	278.96
1009.752	358.54
1010.111	330.45
1010.469	309.39
1010.828	339.82
1011.186	276.62
1011.544	264.92
1011.903	311.73
1012.261	360.88
1012.619	311.73
1012.977	297.69
1013.335	330.45
1013.693	278.96
1014.051	325.77
1014.409	353.86
1014.767	290.67
1015.124	330.45
1015.482	257.9
1015.84	276.62
1016.197	318.75
1016.555	398.33
1016.912	269.6
1017.269	255.56
1017.627	293.01
1017.984	346.84
1018.341	297.69
1018.698	281.3
1019.055	269.6
1019.412	339.82
1019.769	318.75
1020.126	356.2
1020.483	300.03
1020.84	342.16
1021.196	288.32
1021.553	360.88
1021.909	309.39
1022.266	229.81
1022.622	278.96
1022.979	304.71
1023.335	358.54
1023.691	314.07
1024.047	283.64
1024.404	309.39
1024.76	321.09
1025.116	386.63
1025.472	297.69
1025.827	307.05
1026.183	314.07
1026.539	274.28
1026.895	250.88
1027.25	304.71
1027.606	337.48
1027.961	278.96
1028.317	386.63
1028.672	276.62
1029.028	307.05
1029.383	304.71
1029.738	342.16
1030.093	339.82
1030.448	302.37
1030.803	304.71
1031.158	381.95
1031.513	311.73
1031.868	232.15
1032.223	283.64
1032.577	278.96
1032.932	281.3
1033.287	316.41
1033.641	276.62
1033.996	307.05
1034.35	304.71
1034.704	337.48
1035.059	346.84
1035.413	302.37
1035.767	302.37
1036.121	302.37
