Data from Al_FLMS009871__1004__16-22-54-317.txt Node

Date: Fri Mar 08 16:22:54 CST 2024
User: pe5414po
Spectrometer: FLMS00987
Trigger mode: 0
Integration Time (sec): 1.000000E-1
Scans to average: 1
Electric dark correction enabled: true
Nonlinearity correction enabled: false
Boxcar width: 0
XAxis mode: Wavelengths
Number of Pixels in Spectrum: 2048
>>>>>Begin Spectral Data<<<<<
188.938	-139.55
189.409	-139.55
189.879	-139.55
190.349	-134.87
190.819	-78.7
191.29	-113.81
191.76	-102.11
192.23	-52.95
192.7	-69.34
193.17	-102.11
193.64	-52.95
194.109	-43.59
194.579	-22.53
195.049	33.65
195.519	40.67
195.988	57.05
196.458	89.82
196.927	52.37
197.397	117.9
197.866	127.27
198.336	40.67
198.805	192.8
199.274	188.12
199.744	220.89
200.213	272.38
200.682	206.84
201.151	174.08
201.62	190.46
202.089	225.57
202.558	246.63
203.027	288.76
203.495	248.97
203.964	258.34
204.433	302.81
204.902	319.19
205.37	293.44
205.839	295.79
206.307	300.47
206.776	277.06
207.244	284.08
207.712	234.93
208.181	286.42
208.649	274.72
209.117	314.51
209.585	309.83
210.053	284.08
210.521	234.93
210.989	305.15
211.457	248.97
211.925	298.13
212.393	230.25
212.861	387.07
213.328	169.4
213.796	272.38
214.264	302.81
214.731	272.38
215.199	291.1
215.666	256
216.133	199.82
216.601	230.25
217.068	246.63
217.535	274.72
218.003	258.34
218.47	323.87
218.937	277.06
219.404	253.66
219.871	272.38
220.338	267.7
220.805	244.29
221.271	272.38
221.738	218.55
222.205	265.36
222.671	277.06
223.138	218.55
223.605	256
224.071	234.93
224.538	305.15
225.004	202.16
225.47	230.25
225.937	286.42
226.403	241.95
226.869	244.29
227.335	342.6
227.801	267.7
228.267	305.15
228.733	312.17
229.199	256
229.665	337.91
230.131	263.02
230.597	295.79
231.062	239.61
231.528	277.06
231.994	274.72
232.459	241.95
232.925	263.02
233.39	286.42
233.856	267.7
234.321	253.66
234.786	246.63
235.252	293.44
235.717	281.74
236.182	230.25
236.647	298.13
237.112	291.1
237.577	220.89
238.042	241.95
238.507	253.66
238.972	274.72
239.436	293.44
239.901	244.29
240.366	260.68
240.83	302.81
241.295	300.47
241.76	309.83
242.224	237.27
242.688	241.95
243.153	375.36
243.617	237.27
244.081	232.59
244.545	258.34
245.01	256
245.474	265.36
245.938	248.97
246.402	227.91
246.866	253.66
247.33	305.15
247.793	230.25
248.257	314.51
248.721	323.87
249.185	256
249.648	319.19
250.112	267.7
250.575	291.1
251.039	267.7
251.502	277.06
251.965	302.81
252.429	295.79
252.892	274.72
253.355	314.51
253.818	239.61
254.281	295.79
254.744	328.55
255.207	286.42
255.67	347.28
256.133	314.51
256.596	248.97
257.059	241.95
257.522	305.15
257.984	330.89
258.447	263.02
258.909	286.42
259.372	274.72
259.834	281.74
260.297	211.53
260.759	260.68
261.221	300.47
261.684	211.53
262.146	288.76
262.608	267.7
263.07	284.08
263.532	340.26
263.994	295.79
264.456	321.53
264.918	234.93
265.38	286.42
265.842	291.1
266.303	291.1
266.765	267.7
267.227	256
267.688	277.06
268.15	265.36
268.611	284.08
269.072	267.7
269.534	323.87
269.995	277.06
270.456	248.97
270.918	337.91
271.379	258.34
271.84	323.87
272.301	323.87
272.762	300.47
273.223	302.81
273.684	291.1
274.144	286.42
274.605	305.15
275.066	270.04
275.527	361.32
275.987	307.49
276.448	295.79
276.908	380.04
277.369	288.76
277.829	300.47
278.289	330.89
278.75	295.79
279.21	361.32
279.67	321.53
280.13	284.08
280.59	267.7
281.05	328.55
281.51	267.7
281.97	295.79
282.43	263.02
282.89	300.47
283.35	274.72
283.809	337.91
284.269	337.91
284.729	274.72
285.188	302.81
285.648	239.61
286.107	288.76
286.567	298.13
287.026	351.96
287.485	314.51
287.944	253.66
288.404	321.53
288.863	279.4
289.322	337.91
289.781	248.97
290.24	321.53
290.699	267.7
291.158	363.66
291.616	358.98
292.075	267.7
292.534	295.79
292.992	300.47
293.451	274.72
293.91	305.15
294.368	277.06
294.827	286.42
295.285	270.04
295.743	281.74
296.202	291.1
296.66	291.1
297.118	295.79
297.576	316.85
298.034	321.53
298.492	302.81
298.95	335.57
299.408	314.51
299.866	368.34
300.324	253.66
300.781	291.1
301.239	260.68
301.697	305.15
302.154	267.7
302.612	326.21
303.069	316.85
303.527	256
303.984	277.06
304.441	244.29
304.899	387.07
305.356	288.76
305.813	244.29
306.27	281.74
306.727	302.81
307.184	291.1
307.641	293.44
308.098	326.21
308.555	265.36
309.012	314.51
309.468	302.81
309.925	333.23
310.382	265.36
310.838	347.28
311.295	281.74
311.751	319.19
312.208	337.91
312.664	192.8
313.12	232.59
313.577	265.36
314.033	391.75
314.489	256
314.945	295.79
315.401	298.13
315.857	323.87
316.313	307.49
316.769	300.47
317.225	258.34
317.681	326.21
318.136	328.55
318.592	307.49
319.048	274.72
319.503	272.38
319.959	302.81
320.414	274.72
320.869	288.76
321.325	328.55
321.78	298.13
322.235	305.15
322.691	300.47
323.146	312.17
323.601	335.57
324.056	279.4
324.511	281.74
324.966	265.36
325.421	398.77
325.875	265.36
326.33	363.66
326.785	293.44
327.24	361.32
327.694	323.87
328.149	230.25
328.603	307.49
329.058	272.38
329.512	267.7
329.966	356.64
330.421	277.06
330.875	321.53
331.329	335.57
331.783	366
332.237	316.85
332.691	361.32
333.145	291.1
333.599	344.94
334.053	256
334.507	307.49
334.96	328.55
335.414	326.21
335.868	232.59
336.321	319.19
336.775	358.98
337.228	358.98
337.682	307.49
338.135	321.53
338.588	270.04
339.042	366
339.495	305.15
339.948	387.07
340.401	281.74
340.854	358.98
341.307	321.53
341.76	337.91
342.213	328.55
342.666	326.21
343.119	286.42
343.571	286.42
344.024	321.53
344.477	321.53
344.929	312.17
345.382	309.83
345.834	295.79
346.287	295.79
346.739	300.47
347.191	337.91
347.644	293.44
348.096	295.79
348.548	366
349	302.81
349.452	302.81
349.904	347.28
350.356	333.23
350.808	274.72
351.26	342.6
351.711	295.79
352.163	298.13
352.615	300.47
353.066	328.55
353.518	291.1
353.969	319.19
354.421	274.72
354.872	302.81
355.324	354.3
355.775	302.81
356.226	302.81
356.677	323.87
357.128	300.47
357.579	274.72
358.03	300.47
358.481	333.23
358.932	286.42
359.383	312.17
359.834	258.34
360.285	293.44
360.735	277.06
361.186	291.1
361.637	305.15
362.087	300.47
362.538	300.47
362.988	337.91
363.438	358.98
363.889	277.06
364.339	288.76
364.789	373.02
365.239	330.89
365.689	370.68
366.139	314.51
366.589	316.85
367.039	316.85
367.489	333.23
367.939	272.38
368.389	319.19
368.839	293.44
369.288	363.66
369.738	351.96
370.187	265.36
370.637	330.89
371.086	291.1
371.536	265.36
371.985	347.28
372.434	305.15
372.884	281.74
373.333	288.76
373.782	281.74
374.231	312.17
374.68	281.74
375.129	302.81
375.578	335.57
376.027	335.57
376.475	403.45
376.924	307.49
377.373	323.87
377.822	321.53
378.27	284.08
378.719	330.89
379.167	302.81
379.616	309.83
380.064	314.51
380.512	337.91
380.961	337.91
381.409	333.23
381.857	344.94
382.305	347.28
382.753	270.04
383.201	321.53
383.649	281.74
384.097	251.32
384.545	274.72
384.992	298.13
385.44	319.19
385.888	321.53
386.335	316.85
386.783	351.96
387.231	373.02
387.678	279.4
388.125	253.66
388.573	349.62
389.02	258.34
389.467	335.57
389.914	321.53
390.362	316.85
390.809	314.51
391.256	370.68
391.703	265.36
392.15	305.15
392.596	307.49
393.043	291.1
393.49	333.23
393.937	342.6
394.383	333.23
394.83	256
395.276	312.17
395.723	342.6
396.169	277.06
396.616	309.83
397.062	384.73
397.508	286.42
397.954	272.38
398.401	300.47
398.847	316.85
399.293	284.08
399.739	305.15
400.185	298.13
400.631	279.4
401.076	312.17
401.522	337.91
401.968	389.41
402.414	316.85
402.859	279.4
403.305	351.96
403.75	270.04
404.196	337.91
404.641	312.17
405.086	274.72
405.532	351.96
405.977	265.36
406.422	298.13
406.867	337.91
407.312	258.34
407.757	314.51
408.202	323.87
408.647	288.76
409.092	260.68
409.537	337.91
409.982	314.51
410.426	300.47
410.871	302.81
411.316	302.81
411.76	279.4
412.205	319.19
412.649	256
413.093	305.15
413.538	286.42
413.982	302.81
414.426	358.98
414.87	300.47
415.314	300.47
415.758	314.51
416.202	347.28
416.646	272.38
417.09	284.08
417.534	326.21
417.978	291.1
418.421	298.13
418.865	335.57
419.309	337.91
419.752	363.66
420.196	368.34
420.639	335.57
421.083	302.81
421.526	349.62
421.969	382.39
422.412	333.23
422.856	354.3
423.299	356.64
423.742	361.32
424.185	312.17
424.628	281.74
425.071	316.85
425.513	387.07
425.956	305.15
426.399	361.32
426.842	274.72
427.284	330.89
427.727	314.51
428.169	281.74
428.612	314.51
429.054	342.6
429.497	314.51
429.939	309.83
430.381	293.44
430.823	300.47
431.265	305.15
431.707	286.42
432.149	284.08
432.591	309.83
433.033	340.26
433.475	323.87
433.917	328.55
434.359	323.87
434.8	335.57
435.242	314.51
435.684	319.19
436.125	391.75
436.567	323.87
437.008	302.81
437.449	295.79
437.891	373.02
438.332	312.17
438.773	248.97
439.214	291.1
439.656	319.19
440.097	302.81
440.538	234.93
440.978	253.66
441.419	330.89
441.86	326.21
442.301	281.74
442.742	284.08
443.182	349.62
443.623	398.77
444.063	330.89
444.504	326.21
444.944	309.83
445.385	347.28
445.825	380.04
446.265	295.79
446.706	326.21
447.146	316.85
447.586	307.49
448.026	314.51
448.466	361.32
448.906	312.17
449.346	288.76
449.786	265.36
450.225	323.87
450.665	277.06
451.105	305.15
451.544	358.98
451.984	351.96
452.424	342.6
452.863	337.91
453.302	281.74
453.742	314.51
454.181	337.91
454.62	281.74
455.059	288.76
455.499	326.21
455.938	309.83
456.377	293.44
456.816	354.3
457.254	298.13
457.693	354.3
458.132	344.94
458.571	300.47
459.01	288.76
459.448	302.81
459.887	265.36
460.325	307.49
460.764	340.26
461.202	368.34
461.641	333.23
462.079	351.96
462.517	298.13
462.955	319.19
463.393	295.79
463.832	342.6
464.27	333.23
464.708	363.66
465.145	443.24
465.583	342.6
466.021	337.91
466.459	258.34
466.897	312.17
467.334	356.64
467.772	286.42
468.209	340.26
468.647	305.15
469.084	272.38
469.522	307.49
469.959	277.06
470.396	323.87
470.833	342.6
471.271	344.94
471.708	330.89
472.145	319.19
472.582	309.83
473.019	314.51
473.456	316.85
473.892	328.55
474.329	401.11
474.766	312.17
475.202	333.23
475.639	358.98
476.076	293.44
476.512	330.89
476.949	351.96
477.385	286.42
477.821	333.23
478.258	272.38
478.694	309.83
479.13	309.83
479.566	314.51
480.002	328.55
480.438	260.68
480.874	316.85
481.31	387.07
481.746	366
482.181	330.89
482.617	312.17
483.053	265.36
483.488	389.41
483.924	344.94
484.36	309.83
484.795	309.83
485.23	291.1
485.666	333.23
486.101	340.26
486.536	284.08
486.971	330.89
487.407	284.08
487.842	356.64
488.277	291.1
488.712	291.1
489.146	253.66
489.581	323.87
490.016	340.26
490.451	326.21
490.885	335.57
491.32	340.26
491.755	328.55
492.189	267.7
492.624	298.13
493.058	293.44
493.492	356.64
493.927	316.85
494.361	263.02
494.795	284.08
495.229	319.19
495.663	344.94
496.097	241.95
496.531	340.26
496.965	361.32
497.399	307.49
497.833	326.21
498.266	307.49
498.7	323.87
499.134	356.64
499.567	316.85
500.001	387.07
500.434	316.85
500.868	295.79
501.301	265.36
501.734	270.04
502.168	263.02
502.601	279.4
503.034	319.19
503.467	305.15
503.9	307.49
504.333	344.94
504.766	321.53
505.199	358.98
505.632	300.47
506.064	307.49
506.497	335.57
506.93	314.51
507.362	300.47
507.795	335.57
508.227	354.3
508.66	284.08
509.092	351.96
509.524	293.44
509.956	349.62
510.389	316.85
510.821	295.79
511.253	258.34
511.685	375.36
512.117	328.55
512.549	265.36
512.981	337.91
513.412	295.79
513.844	321.53
514.276	349.62
514.707	281.74
515.139	368.34
515.571	272.38
516.002	328.55
516.433	272.38
516.865	256
517.296	351.96
517.727	307.49
518.159	344.94
518.59	335.57
519.021	319.19
519.452	323.87
519.883	260.68
520.314	265.36
520.744	302.81
521.175	340.26
521.606	281.74
522.037	349.62
522.467	342.6
522.898	309.83
523.328	286.42
523.759	326.21
524.189	319.19
524.62	342.6
525.05	326.21
525.48	295.79
525.91	241.95
526.341	307.49
526.771	281.74
527.201	302.81
527.631	309.83
528.061	316.85
528.49	312.17
528.92	279.4
529.35	314.51
529.78	363.66
530.209	321.53
530.639	356.64
531.068	316.85
531.498	277.06
531.927	377.7
532.357	248.97
532.786	293.44
533.215	307.49
533.644	295.79
534.074	323.87
534.503	323.87
534.932	347.28
535.361	260.68
535.79	314.51
536.218	263.02
536.647	309.83
537.076	340.26
537.505	387.07
537.933	323.87
538.362	256
538.79	316.85
539.219	300.47
539.647	347.28
540.076	319.19
540.504	361.32
540.932	274.72
541.36	344.94
541.788	316.85
542.217	312.17
542.645	366
543.073	333.23
543.5	302.81
543.928	363.66
544.356	300.47
544.784	279.4
545.211	295.79
545.639	342.6
546.067	312.17
546.494	302.81
546.922	307.49
547.349	356.64
547.776	314.51
548.204	263.02
548.631	300.47
549.058	391.75
549.485	405.79
549.912	347.28
550.339	316.85
550.766	349.62
551.193	307.49
551.62	398.77
552.047	349.62
552.474	288.76
552.9	323.87
553.327	312.17
553.754	319.19
554.18	263.02
554.607	326.21
555.033	300.47
555.459	309.83
555.886	312.17
556.312	326.21
556.738	270.04
557.164	312.17
557.59	368.34
558.016	351.96
558.442	288.76
558.868	270.04
559.294	342.6
559.72	267.7
560.145	333.23
560.571	312.17
560.997	307.49
561.422	295.79
561.848	342.6
562.273	314.51
562.699	314.51
563.124	321.53
563.549	272.38
563.974	300.47
564.4	370.68
564.825	267.7
565.25	375.36
565.675	330.89
566.1	321.53
566.525	258.34
566.95	309.83
567.374	270.04
567.799	309.83
568.224	253.66
568.648	323.87
569.073	335.57
569.497	307.49
569.922	246.63
570.346	307.49
570.771	314.51
571.195	330.89
571.619	307.49
572.043	248.97
572.467	237.27
572.891	384.73
573.315	366
573.739	349.62
574.163	347.28
574.587	361.32
575.011	321.53
575.435	302.81
575.858	281.74
576.282	307.49
576.705	309.83
577.129	347.28
577.552	323.87
577.976	260.68
578.399	349.62
578.822	293.44
579.245	340.26
579.669	361.32
580.092	307.49
580.515	323.87
580.938	295.79
581.361	370.68
581.784	267.7
582.206	330.89
582.629	337.91
583.052	277.06
583.474	314.51
583.897	356.64
584.32	267.7
584.742	326.21
585.165	319.19
585.587	216.21
586.009	344.94
586.431	295.79
586.854	316.85
587.276	321.53
587.698	270.04
588.12	330.89
588.542	337.91
588.964	330.89
589.386	366
589.807	368.34
590.229	305.15
590.651	251.32
591.073	267.7
591.494	284.08
591.916	309.83
592.337	333.23
592.759	312.17
593.18	342.6
593.601	286.42
594.022	354.3
594.444	333.23
594.865	309.83
595.286	333.23
595.707	347.28
596.128	349.62
596.549	375.36
596.97	326.21
597.39	319.19
597.811	270.04
598.232	347.28
598.652	270.04
599.073	344.94
599.494	349.62
599.914	330.89
600.334	321.53
600.755	377.7
601.175	302.81
601.595	277.06
602.015	277.06
602.436	309.83
602.856	361.32
603.276	281.74
603.696	351.96
604.115	319.19
604.535	298.13
604.955	328.55
605.375	344.94
605.794	375.36
606.214	349.62
606.634	335.57
607.053	340.26
607.473	293.44
607.892	274.72
608.311	351.96
608.731	335.57
609.15	319.19
609.569	300.47
609.988	295.79
610.407	389.41
610.826	312.17
611.245	368.34
611.664	288.76
612.083	277.06
612.501	300.47
612.92	272.38
613.339	366
613.757	321.53
614.176	319.19
614.594	284.08
615.013	387.07
615.431	335.57
615.85	333.23
616.268	382.39
616.686	351.96
617.104	319.19
617.522	321.53
617.94	300.47
618.358	307.49
618.776	319.19
619.194	270.04
619.612	272.38
620.03	335.57
620.447	321.53
620.865	326.21
621.282	358.98
621.7	316.85
622.117	293.44
622.535	319.19
622.952	279.4
623.369	323.87
623.787	316.85
624.204	361.32
624.621	358.98
625.038	293.44
625.455	319.19
625.872	270.04
626.289	263.02
626.706	272.38
627.123	375.36
627.539	293.44
627.956	260.68
628.373	312.17
628.789	340.26
629.206	293.44
629.622	337.91
630.038	265.36
630.455	300.47
630.871	319.19
631.287	319.19
631.703	326.21
632.12	305.15
632.536	312.17
632.952	358.98
633.368	298.13
633.783	340.26
634.199	337.91
634.615	281.74
635.031	300.47
635.446	279.4
635.862	314.51
636.277	340.26
636.693	307.49
637.108	293.44
637.524	382.39
637.939	342.6
638.354	309.83
638.77	316.85
639.185	286.42
639.6	307.49
640.015	305.15
640.43	251.32
640.845	293.44
641.259	328.55
641.674	270.04
642.089	291.1
642.504	335.57
642.918	323.87
643.333	298.13
643.747	274.72
644.162	316.85
644.576	349.62
644.991	281.74
645.405	354.3
645.819	333.23
646.233	312.17
646.647	337.91
647.061	288.76
647.475	260.68
647.889	277.06
648.303	286.42
648.717	312.17
649.131	344.94
649.545	344.94
649.958	300.47
650.372	300.47
650.785	342.6
651.199	335.57
651.612	358.98
652.026	251.32
652.439	284.08
652.852	366
653.266	344.94
653.679	300.47
654.092	288.76
654.505	314.51
654.918	312.17
655.331	260.68
655.744	377.7
656.156	316.85
656.569	375.36
656.982	337.91
657.394	344.94
657.807	356.64
658.22	382.39
658.632	316.85
659.044	279.4
659.457	237.27
659.869	298.13
660.281	312.17
660.693	335.57
661.106	316.85
661.518	291.1
661.93	298.13
662.342	286.42
662.754	316.85
663.165	321.53
663.577	298.13
663.989	298.13
664.401	305.15
664.812	330.89
665.224	337.91
665.635	387.07
666.047	279.4
666.458	314.51
666.869	305.15
667.281	284.08
667.692	258.34
668.103	293.44
668.514	234.93
668.925	230.25
669.336	337.91
669.747	300.47
670.158	277.06
670.569	316.85
670.979	305.15
671.39	335.57
671.801	396.43
672.211	337.91
672.622	382.39
673.032	239.61
673.443	321.53
673.853	319.19
674.263	256
674.674	330.89
675.084	337.91
675.494	375.36
675.904	312.17
676.314	272.38
676.724	295.79
677.134	377.7
677.544	316.85
677.953	323.87
678.363	307.49
678.773	408.13
679.182	342.6
679.592	330.89
680.001	337.91
680.411	335.57
680.82	272.38
681.23	244.29
681.639	361.32
682.048	340.26
682.457	326.21
682.866	312.17
683.275	321.53
683.684	286.42
684.093	267.7
684.502	335.57
684.911	305.15
685.32	342.6
685.728	347.28
686.137	277.06
686.546	330.89
686.954	323.87
687.363	337.91
687.771	335.57
688.179	323.87
688.588	347.28
688.996	272.38
689.404	373.02
689.812	326.21
690.22	295.79
690.628	279.4
691.036	298.13
691.444	256
691.852	340.26
692.26	370.68
692.667	307.49
693.075	293.44
693.483	300.47
693.89	239.61
694.298	295.79
694.705	274.72
695.112	323.87
695.52	284.08
695.927	300.47
696.334	319.19
696.741	272.38
697.148	314.51
697.555	258.34
697.962	256
698.369	316.85
698.776	349.62
699.183	328.55
699.59	323.87
699.996	370.68
700.403	321.53
700.81	291.1
701.216	335.57
701.623	356.64
702.029	323.87
702.435	244.29
702.842	307.49
703.248	340.26
703.654	279.4
704.06	305.15
704.466	358.98
704.872	279.4
705.278	319.19
705.684	298.13
706.09	309.83
706.496	337.91
706.901	326.21
707.307	316.85
707.712	349.62
708.118	354.3
708.523	270.04
708.929	237.27
709.334	363.66
709.74	291.1
710.145	260.68
710.55	354.3
710.955	337.91
711.36	302.81
711.765	340.26
712.17	302.81
712.575	321.53
712.98	906.67
713.385	314.51
713.789	295.79
714.194	337.91
714.599	291.1
715.003	321.53
715.408	286.42
715.812	314.51
716.217	321.53
716.621	307.49
717.025	286.42
717.429	314.51
717.833	333.23
718.238	286.42
718.642	284.08
719.046	356.64
719.449	333.23
719.853	258.34
720.257	300.47
720.661	281.74
721.065	298.13
721.468	342.6
721.872	281.74
722.275	340.26
722.679	302.81
723.082	377.7
723.485	319.19
723.889	293.44
724.292	337.91
724.695	337.91
725.098	333.23
725.501	270.04
725.904	239.61
726.307	302.81
726.71	279.4
727.113	277.06
727.516	312.17
727.918	281.74
728.321	277.06
728.724	256
729.126	277.06
729.529	281.74
729.931	344.94
730.333	300.47
730.736	314.51
731.138	281.74
731.54	312.17
731.942	251.32
732.344	307.49
732.746	305.15
733.148	288.76
733.55	314.51
733.952	349.62
734.354	321.53
734.756	347.28
735.157	293.44
735.559	305.15
735.96	277.06
736.362	305.15
736.763	330.89
737.165	361.32
737.566	267.7
737.967	309.83
738.368	319.19
738.77	281.74
739.171	309.83
739.572	309.83
739.973	330.89
740.374	298.13
740.774	260.68
741.175	284.08
741.576	246.63
741.977	333.23
742.377	354.3
742.778	340.26
743.178	291.1
743.579	291.1
743.979	351.96
744.379	293.44
744.78	300.47
745.18	237.27
745.58	349.62
745.98	314.51
746.38	323.87
746.78	335.57
747.18	272.38
747.58	300.47
747.98	305.15
748.38	305.15
748.779	307.49
749.179	284.08
749.578	284.08
749.978	361.32
750.377	337.91
750.777	326.21
751.176	356.64
751.575	333.23
751.975	291.1
752.374	349.62
752.773	293.44
753.172	354.3
753.571	305.15
753.97	396.43
754.369	295.79
754.768	300.47
755.166	312.17
755.565	263.02
755.964	328.55
756.362	337.91
756.761	307.49
757.159	281.74
757.558	358.98
757.956	302.81
758.354	302.81
758.753	279.4
759.151	316.85
759.549	319.19
759.947	347.28
760.345	328.55
760.743	302.81
761.141	363.66
761.539	340.26
761.936	246.63
762.334	358.98
762.732	314.51
763.129	363.66
763.527	291.1
763.924	389.41
764.322	366
764.719	333.23
765.117	279.4
765.514	358.98
765.911	314.51
766.308	316.85
766.705	281.74
767.102	298.13
767.499	281.74
767.896	394.09
768.293	354.3
768.69	340.26
769.086	227.91
769.483	344.94
769.88	349.62
770.276	316.85
770.673	314.51
771.069	337.91
771.466	293.44
771.862	319.19
772.258	288.76
772.654	370.68
773.05	340.26
773.447	272.38
773.843	326.21
774.239	298.13
774.634	314.51
775.03	286.42
775.426	298.13
775.822	335.57
776.218	312.17
776.613	351.96
777.009	323.87
777.404	232.59
777.8	260.68
778.195	333.23
778.59	277.06
778.986	347.28
779.381	335.57
779.776	288.76
780.171	272.38
780.566	291.1
780.961	349.62
781.356	265.36
781.751	316.85
782.146	302.81
782.54	335.57
782.935	281.74
783.33	347.28
783.724	307.49
784.119	314.51
784.513	251.32
784.908	349.62
785.302	354.3
785.696	391.75
786.09	337.91
786.485	344.94
786.879	370.68
787.273	288.76
787.667	284.08
788.061	307.49
788.454	326.21
788.848	351.96
789.242	330.89
789.636	291.1
790.029	316.85
790.423	358.98
790.816	342.6
791.21	356.64
791.603	293.44
791.997	288.76
792.39	295.79
792.783	328.55
793.176	312.17
793.569	309.83
793.962	307.49
794.355	267.7
794.748	288.76
795.141	295.79
795.534	288.76
795.927	340.26
796.319	291.1
796.712	307.49
797.105	220.89
797.497	284.08
797.89	272.38
798.282	321.53
798.674	344.94
799.067	351.96
799.459	366
799.851	340.26
800.243	342.6
800.635	288.76
801.027	263.02
801.419	298.13
801.811	366
802.203	328.55
802.594	321.53
802.986	274.72
803.378	312.17
803.769	354.3
804.161	401.11
804.552	291.1
804.944	300.47
805.335	323.87
805.726	330.89
806.118	344.94
806.509	293.44
806.9	302.81
807.291	356.64
807.682	225.57
808.073	270.04
808.464	328.55
808.855	361.32
809.245	284.08
809.636	344.94
810.027	307.49
810.417	321.53
810.808	305.15
811.198	337.91
811.589	316.85
811.979	326.21
812.369	281.74
812.759	319.19
813.15	335.57
813.54	274.72
813.93	270.04
814.32	241.95
814.71	312.17
815.1	237.27
815.489	286.42
815.879	396.43
816.269	288.76
816.658	309.83
817.048	323.87
817.438	319.19
817.827	291.1
818.216	293.44
818.606	251.32
818.995	230.25
819.384	326.21
819.773	293.44
820.163	319.19
820.552	326.21
820.941	361.32
821.33	293.44
821.718	342.6
822.107	326.21
822.496	340.26
822.885	305.15
823.273	333.23
823.662	319.19
824.05	363.66
824.439	258.34
824.827	300.47
825.216	328.55
825.604	293.44
825.992	284.08
826.38	295.79
826.768	312.17
827.156	265.36
827.544	328.55
827.932	384.73
828.32	319.19
828.708	300.47
829.096	314.51
829.483	321.53
829.871	354.3
830.259	335.57
830.646	279.4
831.034	342.6
831.421	323.87
831.808	354.3
832.196	354.3
832.583	326.21
832.97	323.87
833.357	267.7
833.744	302.81
834.131	256
834.518	335.57
834.905	309.83
835.292	314.51
835.678	333.23
836.065	347.28
836.452	288.76
836.838	344.94
837.225	351.96
837.611	300.47
837.998	326.21
838.384	246.63
838.77	344.94
839.157	300.47
839.543	363.66
839.929	335.57
840.315	351.96
840.701	326.21
841.087	316.85
841.473	316.85
841.858	326.21
842.244	309.83
842.63	340.26
843.015	382.39
843.401	532.18
843.787	237.27
844.172	298.13
844.557	295.79
844.943	288.76
845.328	326.21
845.713	319.19
846.098	321.53
846.483	370.68
846.868	265.36
847.253	274.72
847.638	340.26
848.023	337.91
848.408	333.23
848.793	234.93
849.177	342.6
849.562	314.51
849.947	260.68
850.331	305.15
850.715	358.98
851.1	319.19
851.484	314.51
851.868	302.81
852.253	277.06
852.637	248.97
853.021	288.76
853.405	300.47
853.789	248.97
854.173	319.19
854.557	309.83
854.94	307.49
855.324	316.85
855.708	333.23
856.091	293.44
856.475	279.4
856.858	349.62
857.242	288.76
857.625	328.55
858.009	248.97
858.392	330.89
858.775	314.51
859.158	358.98
859.541	312.17
859.924	351.96
860.307	267.7
860.69	300.47
861.073	305.15
861.456	300.47
861.838	291.1
862.221	333.23
862.604	274.72
862.986	202.16
863.369	298.13
863.751	293.44
864.133	272.38
864.516	291.1
864.898	286.42
865.28	377.7
865.662	328.55
866.044	274.72
866.426	312.17
866.808	309.83
867.19	281.74
867.572	387.07
867.954	305.15
868.336	323.87
868.717	265.36
869.099	260.68
869.48	351.96
869.862	328.55
870.243	323.87
870.625	258.34
871.006	260.68
871.387	225.57
871.768	344.94
872.149	351.96
872.53	394.09
872.911	302.81
873.292	330.89
873.673	316.85
874.054	305.15
874.435	340.26
874.815	277.06
875.196	305.15
875.577	344.94
875.957	323.87
876.338	366
876.718	319.19
877.098	286.42
877.479	344.94
877.859	342.6
878.239	307.49
878.619	288.76
878.999	333.23
879.379	330.89
879.759	300.47
880.139	316.85
880.519	344.94
880.898	351.96
881.278	281.74
881.658	312.17
882.037	284.08
882.417	349.62
882.796	295.79
883.176	307.49
883.555	305.15
883.934	309.83
884.313	323.87
884.693	319.19
885.072	227.91
885.451	351.96
885.83	302.81
886.209	263.02
886.587	288.76
886.966	305.15
887.345	333.23
887.724	291.1
888.102	312.17
888.481	307.49
888.859	300.47
889.238	375.36
889.616	274.72
889.994	281.74
890.373	312.17
890.751	288.76
891.129	349.62
891.507	319.19
891.885	284.08
892.263	281.74
892.641	344.94
893.019	281.74
893.396	307.49
893.774	351.96
894.152	307.49
894.529	307.49
894.907	270.04
895.284	358.98
895.662	263.02
896.039	274.72
896.416	293.44
896.794	298.13
897.171	305.15
897.548	401.11
897.925	328.55
898.302	314.51
898.679	382.39
899.056	253.66
899.433	335.57
899.809	288.76
900.186	337.91
900.563	335.57
900.939	368.34
901.316	307.49
901.692	302.81
902.069	316.85
902.445	368.34
902.821	342.6
903.197	288.76
903.574	291.1
903.95	265.36
904.326	281.74
904.702	305.15
905.078	358.98
905.454	349.62
905.829	300.47
906.205	302.81
906.581	258.34
906.956	342.6
907.332	295.79
907.707	279.4
908.083	323.87
908.458	277.06
908.833	305.15
909.209	309.83
909.584	321.53
909.959	328.55
910.334	337.91
910.709	328.55
911.084	321.53
911.459	305.15
911.834	326.21
912.209	340.26
912.583	368.34
912.958	337.91
913.333	323.87
913.707	307.49
914.082	300.47
914.456	323.87
914.83	265.36
915.205	337.91
915.579	274.72
915.953	335.57
916.327	314.51
916.701	305.15
917.075	270.04
917.449	281.74
917.823	246.63
918.197	347.28
918.571	295.79
918.944	307.49
919.318	298.13
919.692	300.47
920.065	312.17
920.438	286.42
920.812	237.27
921.185	312.17
921.558	284.08
921.932	319.19
922.305	333.23
922.678	305.15
923.051	309.83
923.424	295.79
923.797	321.53
924.17	300.47
924.542	319.19
924.915	274.72
925.288	323.87
925.661	309.83
926.033	330.89
926.406	330.89
926.778	337.91
927.15	300.47
927.523	284.08
927.895	272.38
928.267	272.38
928.639	298.13
929.011	279.4
929.383	408.13
929.755	340.26
930.127	316.85
930.499	330.89
930.871	256
931.242	333.23
931.614	323.87
931.986	274.72
932.357	333.23
932.729	281.74
933.1	286.42
933.471	309.83
933.843	314.51
934.214	370.68
934.585	321.53
934.956	323.87
935.327	279.4
935.698	267.7
936.069	295.79
936.44	314.51
936.811	291.1
937.182	330.89
937.552	328.55
937.923	300.47
938.293	277.06
938.664	293.44
939.034	333.23
939.405	363.66
939.775	312.17
940.145	295.79
940.516	286.42
940.886	319.19
941.256	340.26
941.626	337.91
941.996	291.1
942.366	342.6
942.735	316.85
943.105	295.79
943.475	288.76
943.845	312.17
944.214	286.42
944.584	363.66
944.953	366
945.323	358.98
945.692	291.1
946.061	286.42
946.43	302.81
946.8	279.4
947.169	291.1
947.538	316.85
947.907	267.7
948.276	248.97
948.645	270.04
949.013	335.57
949.382	237.27
949.751	300.47
950.119	323.87
950.488	340.26
950.857	246.63
951.225	319.19
951.593	335.57
951.962	309.83
952.33	314.51
952.698	333.23
953.066	298.13
953.434	302.81
953.802	312.17
954.17	309.83
954.538	314.51
954.906	358.98
955.274	366
955.642	347.28
956.009	298.13
956.377	375.36
956.744	323.87
957.112	307.49
957.479	302.81
957.847	321.53
958.214	232.59
958.581	380.04
958.948	298.13
959.315	328.55
959.683	281.74
960.05	288.76
960.416	291.1
960.783	354.3
961.15	265.36
961.517	284.08
961.884	246.63
962.25	302.81
962.617	321.53
962.983	305.15
963.35	314.51
963.716	319.19
964.082	263.02
964.449	370.68
964.815	234.93
965.181	267.7
965.547	241.95
965.913	368.34
966.279	333.23
966.645	274.72
967.011	347.28
967.377	284.08
967.742	319.19
968.108	323.87
968.474	295.79
968.839	358.98
969.205	272.38
969.57	307.49
969.935	328.55
970.301	342.6
970.666	342.6
971.031	330.89
971.396	312.17
971.761	307.49
972.126	309.83
972.491	305.15
972.856	351.96
973.221	319.19
973.586	335.57
973.95	354.3
974.315	295.79
974.679	328.55
975.044	241.95
975.408	312.17
975.773	298.13
976.137	319.19
976.501	330.89
976.866	326.21
977.23	281.74
977.594	382.39
977.958	298.13
978.322	319.19
978.686	279.4
979.049	288.76
979.413	256
979.777	232.59
980.141	307.49
980.504	293.44
980.868	298.13
981.231	323.87
981.595	344.94
981.958	279.4
982.321	328.55
982.684	302.81
983.048	277.06
983.411	377.7
983.774	293.44
984.137	349.62
984.5	267.7
984.862	342.6
985.225	333.23
985.588	291.1
985.951	286.42
986.313	277.06
986.676	305.15
987.038	305.15
987.401	326.21
987.763	305.15
988.125	305.15
988.488	277.06
988.85	333.23
989.212	326.21
989.574	337.91
989.936	267.7
990.298	253.66
990.66	347.28
991.022	270.04
991.383	307.49
991.745	370.68
992.107	302.81
992.468	274.72
992.83	302.81
993.191	302.81
993.553	384.73
993.914	239.61
994.275	295.79
994.637	319.19
994.998	239.61
995.359	298.13
995.72	398.77
996.081	314.51
996.442	326.21
996.803	314.51
997.163	354.3
997.524	300.47
997.885	370.68
998.245	330.89
998.606	333.23
998.966	316.85
999.327	284.08
999.687	328.55
1000.047	253.66
1000.408	309.83
1000.768	340.26
1001.128	333.23
1001.488	316.85
1001.848	293.44
1002.208	274.72
1002.568	314.51
1002.927	230.25
1003.287	344.94
1003.647	281.74
1004.007	323.87
1004.366	351.96
1004.726	211.53
1005.085	316.85
1005.444	312.17
1005.804	389.41
1006.163	291.1
1006.522	337.91
1006.881	241.95
1007.24	361.32
1007.599	281.74
1007.958	274.72
1008.317	279.4
1008.676	326.21
1009.035	300.47
1009.393	349.62
1009.752	333.23
1010.111	321.53
1010.469	288.76
1010.828	302.81
1011.186	319.19
1011.544	300.47
1011.903	277.06
1012.261	316.85
1012.619	347.28
1012.977	288.76
1013.335	321.53
1013.693	295.79
1014.051	256
1014.409	335.57
1014.767	354.3
1015.124	309.83
1015.482	286.42
1015.84	328.55
1016.197	307.49
1016.555	284.08
1016.912	270.04
1017.269	263.02
1017.627	279.4
1017.984	316.85
1018.341	319.19
1018.698	265.36
1019.055	270.04
1019.412	321.53
1019.769	321.53
1020.126	293.44
1020.483	380.04
1020.84	307.49
1021.196	328.55
1021.553	291.1
1021.909	375.36
1022.266	300.47
1022.622	270.04
1022.979	335.57
1023.335	326.21
1023.691	284.08
1024.047	330.89
1024.404	312.17
1024.76	274.72
1025.116	284.08
1025.472	328.55
1025.827	323.87
1026.183	323.87
1026.539	328.55
1026.895	295.79
1027.25	298.13
1027.606	305.15
1027.961	356.64
1028.317	218.55
1028.672	347.28
1029.028	251.32
1029.383	281.74
1029.738	321.53
1030.093	305.15
1030.448	265.36
1030.803	284.08
1031.158	293.44
1031.513	300.47
1031.868	319.19
1032.223	375.36
1032.577	323.87
1032.932	323.87
1033.287	316.85
1033.641	302.81
1033.996	284.08
1034.35	323.87
1034.704	248.97
1035.059	307.49
1035.413	300.47
1035.767	300.47
1036.121	300.47
