Data from Al_FLMS009871__1003__16-22-54-217.txt Node

Date: Fri Mar 08 16:22:54 CST 2024
User: pe5414po
Spectrometer: FLMS00987
Trigger mode: 0
Integration Time (sec): 1.000000E-1
Scans to average: 1
Electric dark correction enabled: true
Nonlinearity correction enabled: false
Boxcar width: 0
XAxis mode: Wavelengths
Number of Pixels in Spectrum: 2048
>>>>>Begin Spectral Data<<<<<
188.938	-157.99
189.409	-157.99
189.879	-157.99
190.349	-111.18
190.819	-101.81
191.29	-148.62
191.76	-69.05
192.23	-50.32
192.7	-97.13
193.17	-69.05
193.64	-17.55
194.109	17.55
194.579	-10.53
195.049	-1.17
195.519	-15.21
195.988	43.3
196.458	29.26
196.927	80.75
197.397	85.43
197.866	139.26
198.336	83.09
198.805	146.28
199.274	218.84
199.744	169.69
200.213	244.59
200.682	188.41
201.151	129.9
201.62	251.61
202.089	221.18
202.558	277.35
203.027	277.35
203.495	282.03
203.964	230.54
204.433	321.82
204.902	265.65
205.37	289.06
205.839	314.8
206.307	312.46
206.776	289.06
207.244	232.88
207.712	305.44
208.181	279.69
208.649	349.91
209.117	333.53
209.585	258.63
210.053	298.42
210.521	296.08
210.989	246.93
211.457	298.42
211.925	232.88
212.393	249.27
212.861	293.74
213.328	246.93
213.796	342.89
214.264	263.31
214.731	279.69
215.199	284.38
215.666	293.74
216.133	335.87
216.601	263.31
217.068	291.4
217.535	218.84
218.003	242.25
218.47	291.4
218.937	183.73
219.404	225.86
219.871	237.56
220.338	249.27
220.805	244.59
221.271	195.43
221.738	263.31
222.205	209.48
222.671	260.97
223.138	239.9
223.605	277.35
224.071	207.14
224.538	181.39
225.004	249.27
225.47	242.25
225.937	293.74
226.403	244.59
226.869	228.2
227.335	265.65
227.801	296.08
228.267	251.61
228.733	291.4
229.199	289.06
229.665	307.78
230.131	237.56
230.597	244.59
231.062	263.31
231.528	277.35
231.994	258.63
232.459	284.38
232.925	300.76
233.39	305.44
233.856	289.06
234.321	251.61
234.786	289.06
235.252	272.67
235.717	270.33
236.182	272.67
236.647	239.9
237.112	296.08
237.577	235.22
238.042	296.08
238.507	230.54
238.972	237.56
239.436	275.01
239.901	282.03
240.366	293.74
240.83	260.97
241.295	223.52
241.76	260.97
242.224	202.46
242.688	181.39
243.153	249.27
243.617	300.76
244.081	296.08
244.545	298.42
245.01	265.65
245.474	279.69
245.938	225.86
246.402	345.23
246.866	333.53
247.33	237.56
247.793	253.95
248.257	272.67
248.721	300.76
249.185	265.65
249.648	260.97
250.112	239.9
250.575	310.12
251.039	324.16
251.502	260.97
251.965	286.72
252.429	265.65
252.892	267.99
253.355	303.1
253.818	230.54
254.281	335.87
254.744	275.01
255.207	256.29
255.67	228.2
256.133	214.16
256.596	277.35
257.059	293.74
257.522	265.65
257.984	186.07
258.447	267.99
258.909	331.19
259.372	284.38
259.834	251.61
260.297	202.46
260.759	349.91
261.221	265.65
261.684	284.38
262.146	296.08
262.608	326.5
263.07	312.46
263.532	335.87
263.994	335.87
264.456	284.38
264.918	235.22
265.38	270.33
265.842	286.72
266.303	286.72
266.765	326.5
267.227	291.4
267.688	258.63
268.15	209.48
268.611	270.33
269.072	347.57
269.534	305.44
269.995	293.74
270.456	307.78
270.918	253.95
271.379	305.44
271.84	279.69
272.301	242.25
272.762	305.44
273.223	291.4
273.684	312.46
274.144	253.95
274.605	225.86
275.066	242.25
275.527	291.4
275.987	345.23
276.448	249.27
276.908	253.95
277.369	267.99
277.829	272.67
278.289	239.9
278.75	307.78
279.21	286.72
279.67	317.14
280.13	267.99
280.59	260.97
281.05	314.8
281.51	270.33
281.97	310.12
282.43	298.42
282.89	263.31
283.35	307.78
283.809	305.44
284.269	305.44
284.729	319.48
285.188	296.08
285.648	300.76
286.107	307.78
286.567	275.01
287.026	300.76
287.485	312.46
287.944	258.63
288.404	267.99
288.863	265.65
289.322	324.16
289.781	246.93
290.24	293.74
290.699	331.19
291.158	275.01
291.616	349.91
292.075	232.88
292.534	209.48
292.992	289.06
293.451	307.78
293.91	284.38
294.368	296.08
294.827	317.14
295.285	253.95
295.743	342.89
296.202	298.42
296.66	204.8
297.118	310.12
297.576	277.35
298.034	317.14
298.492	314.8
298.95	319.48
299.408	263.31
299.866	260.97
300.324	291.4
300.781	317.14
301.239	291.4
301.697	235.22
302.154	333.53
302.612	310.12
303.069	239.9
303.527	338.21
303.984	310.12
304.441	303.1
304.899	338.21
305.356	303.1
305.813	319.48
306.27	300.76
306.727	298.42
307.184	305.44
307.641	293.74
308.098	319.48
308.555	352.25
309.012	277.35
309.468	232.88
309.925	340.55
310.382	300.76
310.838	345.23
311.295	317.14
311.751	300.76
312.208	218.84
312.664	300.76
313.12	352.25
313.577	324.16
314.033	450.55
314.489	289.06
314.945	225.86
315.401	312.46
315.857	275.01
316.313	291.4
316.769	333.53
317.225	267.99
317.681	275.01
318.136	373.32
318.592	282.03
319.048	289.06
319.503	317.14
319.959	335.87
320.414	277.35
320.869	225.86
321.325	239.9
321.78	282.03
322.235	305.44
322.691	279.69
323.146	314.8
323.601	307.78
324.056	272.67
324.511	246.93
324.966	324.16
325.421	349.91
325.875	286.72
326.33	328.85
326.785	307.78
327.24	298.42
327.694	321.82
328.149	303.1
328.603	267.99
329.058	324.16
329.512	272.67
329.966	335.87
330.421	284.38
330.875	307.78
331.329	256.29
331.783	230.54
332.237	324.16
332.691	303.1
333.145	267.99
333.599	312.46
334.053	298.42
334.507	251.61
334.96	321.82
335.414	312.46
335.868	260.97
336.321	314.8
336.775	314.8
337.228	303.1
337.682	321.82
338.135	305.44
338.588	284.38
339.042	298.42
339.495	284.38
339.948	284.38
340.401	326.5
340.854	270.33
341.307	296.08
341.76	279.69
342.213	321.82
342.666	310.12
343.119	300.76
343.571	307.78
344.024	314.8
344.477	303.1
344.929	300.76
345.382	258.63
345.834	291.4
346.287	298.42
346.739	317.14
347.191	352.25
347.644	392.04
348.096	356.93
348.548	366.29
349	314.8
349.452	279.69
349.904	291.4
350.356	319.48
350.808	361.61
351.26	335.87
351.711	263.31
352.163	352.25
352.615	305.44
353.066	317.14
353.518	286.72
353.969	305.44
354.421	275.01
354.872	326.5
355.324	328.85
355.775	256.29
356.226	307.78
356.677	303.1
357.128	296.08
357.579	319.48
358.03	289.06
358.481	314.8
358.932	331.19
359.383	345.23
359.834	338.21
360.285	314.8
360.735	331.19
361.186	335.87
361.637	300.76
362.087	328.85
362.538	340.55
362.988	307.78
363.438	338.21
363.889	338.21
364.339	267.99
364.789	331.19
365.239	333.53
365.689	291.4
366.139	347.57
366.589	303.1
367.039	354.59
367.489	298.42
367.939	296.08
368.389	366.29
368.839	340.55
369.288	319.48
369.738	277.35
370.187	260.97
370.637	324.16
371.086	373.32
371.536	333.53
371.985	359.27
372.434	267.99
372.884	298.42
373.333	356.93
373.782	321.82
374.231	284.38
374.68	303.1
375.129	342.89
375.578	352.25
376.027	284.38
376.475	289.06
376.924	317.14
377.373	279.69
377.822	307.78
378.27	298.42
378.719	342.89
379.167	342.89
379.616	370.97
380.064	333.53
380.512	296.08
380.961	321.82
381.409	340.55
381.857	326.5
382.305	331.19
382.753	284.38
383.201	321.82
383.649	326.5
384.097	342.89
384.545	349.91
384.992	307.78
385.44	317.14
385.888	375.66
386.335	265.65
386.783	284.38
387.231	296.08
387.678	235.22
388.125	272.67
388.573	284.38
389.02	293.74
389.467	340.55
389.914	263.31
390.362	375.66
390.809	307.78
391.256	298.42
391.703	331.19
392.15	347.57
392.596	319.48
393.043	305.44
393.49	333.53
393.937	317.14
394.383	356.93
394.83	338.21
395.276	321.82
395.723	331.19
396.169	324.16
396.616	389.7
397.062	267.99
397.508	265.65
397.954	378
398.401	317.14
398.847	349.91
399.293	265.65
399.739	284.38
400.185	256.29
400.631	361.61
401.076	317.14
401.522	331.19
401.968	335.87
402.414	326.5
402.859	307.78
403.305	249.27
403.75	298.42
404.196	277.35
404.641	267.99
405.086	267.99
405.532	256.29
405.977	342.89
406.422	279.69
406.867	289.06
407.312	298.42
407.757	289.06
408.202	293.74
408.647	225.86
409.092	244.59
409.537	361.61
409.982	310.12
410.426	298.42
410.871	324.16
411.316	328.85
411.76	321.82
412.205	328.85
412.649	286.72
413.093	275.01
413.538	310.12
413.982	340.55
414.426	366.29
414.87	312.46
415.314	345.23
415.758	300.76
416.202	312.46
416.646	277.35
417.09	349.91
417.534	356.93
417.978	286.72
418.421	204.8
418.865	326.5
419.309	354.59
419.752	328.85
420.196	335.87
420.639	310.12
421.083	300.76
421.526	249.27
421.969	342.89
422.412	305.44
422.856	300.76
423.299	253.95
423.742	289.06
424.185	293.74
424.628	359.27
425.071	277.35
425.513	300.76
425.956	263.31
426.399	312.46
426.842	312.46
427.284	359.27
427.727	263.31
428.169	277.35
428.612	298.42
429.054	331.19
429.497	270.33
429.939	338.21
430.381	326.5
430.823	282.03
431.265	275.01
431.707	296.08
432.149	333.53
432.591	389.7
433.033	305.44
433.475	321.82
433.917	331.19
434.359	275.01
434.8	303.1
435.242	284.38
435.684	349.91
436.125	401.4
436.567	303.1
437.008	293.74
437.449	303.1
437.891	326.5
438.332	324.16
438.773	321.82
439.214	284.38
439.656	335.87
440.097	352.25
440.538	270.33
440.978	359.27
441.419	293.74
441.86	333.53
442.301	289.06
442.742	244.59
443.182	326.5
443.623	289.06
444.063	270.33
444.504	291.4
444.944	319.48
445.385	272.67
445.825	305.44
446.265	328.85
446.706	310.12
447.146	361.61
447.586	305.44
448.026	326.5
448.466	319.48
448.906	314.8
449.346	265.65
449.786	345.23
450.225	333.53
450.665	314.8
451.105	335.87
451.544	349.91
451.984	296.08
452.424	293.74
452.863	340.55
453.302	300.76
453.742	363.95
454.181	354.59
454.62	279.69
455.059	260.97
455.499	267.99
455.938	263.31
456.377	253.95
456.816	282.03
457.254	361.61
457.693	354.59
458.132	352.25
458.571	291.4
459.01	342.89
459.448	251.61
459.887	319.48
460.325	289.06
460.764	263.31
461.202	289.06
461.641	338.21
462.079	296.08
462.517	253.95
462.955	324.16
463.393	333.53
463.832	267.99
464.27	307.78
464.708	300.76
465.145	349.91
465.583	317.14
466.021	279.69
466.459	305.44
466.897	296.08
467.334	298.42
467.772	249.27
468.209	286.72
468.647	312.46
469.084	312.46
469.522	338.21
469.959	303.1
470.396	270.33
470.833	260.97
471.271	289.06
471.708	314.8
472.145	317.14
472.582	314.8
473.019	319.48
473.456	399.06
473.892	312.46
474.329	296.08
474.766	354.59
475.202	375.66
475.639	289.06
476.076	289.06
476.512	349.91
476.949	319.48
477.385	253.95
477.821	356.93
478.258	305.44
478.694	363.95
479.13	333.53
479.566	291.4
480.002	296.08
480.438	317.14
480.874	324.16
481.31	331.19
481.746	310.12
482.181	312.46
482.617	333.53
483.053	359.27
483.488	382.68
483.924	324.16
484.36	340.55
484.795	303.1
485.23	293.74
485.666	300.76
486.101	312.46
486.536	354.59
486.971	335.87
487.407	378
487.842	342.89
488.277	345.23
488.712	352.25
489.146	324.16
489.581	275.01
490.016	331.19
490.451	380.34
490.885	279.69
491.32	307.78
491.755	223.52
492.189	298.42
492.624	312.46
493.058	333.53
493.492	291.4
493.927	338.21
494.361	277.35
494.795	354.59
495.229	349.91
495.663	310.12
496.097	305.44
496.531	326.5
496.965	319.48
497.399	256.29
497.833	310.12
498.266	345.23
498.7	310.12
499.134	352.25
499.567	298.42
500.001	253.95
500.434	277.35
500.868	277.35
501.301	312.46
501.734	310.12
502.168	286.72
502.601	368.63
503.034	317.14
503.467	265.65
503.9	310.12
504.333	279.69
504.766	321.82
505.199	352.25
505.632	246.93
506.064	324.16
506.497	338.21
506.93	289.06
507.362	335.87
507.795	317.14
508.227	303.1
508.66	286.72
509.092	328.85
509.524	338.21
509.956	328.85
510.389	340.55
510.821	359.27
511.253	314.8
511.685	319.48
512.117	375.66
512.549	335.87
512.981	335.87
513.412	349.91
513.844	356.93
514.276	319.48
514.707	296.08
515.139	296.08
515.571	326.5
516.002	258.63
516.433	286.72
516.865	246.93
517.296	373.32
517.727	324.16
518.159	293.74
518.59	345.23
519.021	284.38
519.452	305.44
519.883	331.19
520.314	359.27
520.744	333.53
521.175	275.01
521.606	312.46
522.037	293.74
522.467	326.5
522.898	349.91
523.328	298.42
523.759	251.61
524.189	307.78
524.62	314.8
525.05	251.61
525.48	338.21
525.91	282.03
526.341	324.16
526.771	256.29
527.201	263.31
527.631	338.21
528.061	291.4
528.49	326.5
528.92	307.78
529.35	296.08
529.78	338.21
530.209	338.21
530.639	319.48
531.068	385.02
531.498	317.14
531.927	286.72
532.357	291.4
532.786	267.99
533.215	319.48
533.644	314.8
534.074	321.82
534.503	310.12
534.932	223.52
535.361	267.99
535.79	284.38
536.218	265.65
536.647	328.85
537.076	314.8
537.505	321.82
537.933	298.42
538.362	354.59
538.79	305.44
539.219	317.14
539.647	317.14
540.076	361.61
540.504	282.03
540.932	363.95
541.36	296.08
541.788	338.21
542.217	312.46
542.645	296.08
543.073	324.16
543.5	345.23
543.928	291.4
544.356	303.1
544.784	289.06
545.211	275.01
545.639	286.72
546.067	342.89
546.494	335.87
546.922	282.03
547.349	307.78
547.776	312.46
548.204	307.78
548.631	300.76
549.058	291.4
549.485	310.12
549.912	307.78
550.339	338.21
550.766	272.67
551.193	253.95
551.62	342.89
552.047	319.48
552.474	267.99
552.9	249.27
553.327	277.35
553.754	326.5
554.18	310.12
554.607	340.55
555.033	317.14
555.459	312.46
555.886	352.25
556.312	342.89
556.738	312.46
557.164	352.25
557.59	270.33
558.016	289.06
558.442	359.27
558.868	307.78
559.294	326.5
559.72	263.31
560.145	310.12
560.571	298.42
560.997	314.8
561.422	282.03
561.848	342.89
562.273	319.48
562.699	342.89
563.124	312.46
563.549	267.99
563.974	317.14
564.4	366.29
564.825	321.82
565.25	354.59
565.675	321.82
566.1	385.02
566.525	310.12
566.95	340.55
567.374	296.08
567.799	270.33
568.224	356.93
568.648	282.03
569.073	275.01
569.497	307.78
569.922	338.21
570.346	342.89
570.771	282.03
571.195	312.46
571.619	352.25
572.043	324.16
572.467	373.32
572.891	314.8
573.315	321.82
573.739	331.19
574.163	279.69
574.587	328.85
575.011	275.01
575.435	303.1
575.858	401.4
576.282	310.12
576.705	286.72
577.129	251.61
577.552	265.65
577.976	361.61
578.399	249.27
578.822	307.78
579.245	291.4
579.669	326.5
580.092	345.23
580.515	256.29
580.938	291.4
581.361	277.35
581.784	342.89
582.206	310.12
582.629	251.61
583.052	296.08
583.474	331.19
583.897	312.46
584.32	338.21
584.742	342.89
585.165	307.78
585.587	321.82
586.009	260.97
586.431	300.76
586.854	368.63
587.276	338.21
587.698	368.63
588.12	370.97
588.542	342.89
588.964	349.91
589.386	263.31
589.807	349.91
590.229	335.87
590.651	284.38
591.073	326.5
591.494	338.21
591.916	359.27
592.337	253.95
592.759	293.74
593.18	333.53
593.601	267.99
594.022	317.14
594.444	221.18
594.865	284.38
595.286	331.19
595.707	317.14
596.128	338.21
596.549	335.87
596.97	293.74
597.39	270.33
597.811	324.16
598.232	328.85
598.652	286.72
599.073	317.14
599.494	286.72
599.914	303.1
600.334	380.34
600.755	279.69
601.175	291.4
601.595	317.14
602.015	368.63
602.436	279.69
602.856	417.79
603.276	342.89
603.696	356.93
604.115	307.78
604.535	324.16
604.955	349.91
605.375	331.19
605.794	361.61
606.214	361.61
606.634	279.69
607.053	340.55
607.473	396.72
607.892	303.1
608.311	331.19
608.731	305.44
609.15	242.25
609.569	387.36
609.988	284.38
610.407	396.72
610.826	340.55
611.245	370.97
611.664	317.14
612.083	331.19
612.501	326.5
612.92	232.88
613.339	293.74
613.757	310.12
614.176	303.1
614.594	296.08
615.013	282.03
615.431	307.78
615.85	324.16
616.268	317.14
616.686	307.78
617.104	277.35
617.522	253.95
617.94	298.42
618.358	305.44
618.776	300.76
619.194	345.23
619.612	333.53
620.03	328.85
620.447	345.23
620.865	296.08
621.282	338.21
621.7	349.91
622.117	319.48
622.535	319.48
622.952	298.42
623.369	352.25
623.787	307.78
624.204	291.4
624.621	399.06
625.038	356.93
625.455	307.78
625.872	282.03
626.289	291.4
626.706	326.5
627.123	263.31
627.539	253.95
627.956	347.57
628.373	244.59
628.789	338.21
629.206	328.85
629.622	328.85
630.038	319.48
630.455	328.85
630.871	258.63
631.287	239.9
631.703	356.93
632.12	239.9
632.536	305.44
632.952	307.78
633.368	363.95
633.783	310.12
634.199	289.06
634.615	373.32
635.031	286.72
635.446	310.12
635.862	356.93
636.277	328.85
636.693	291.4
637.108	298.42
637.524	291.4
637.939	356.93
638.354	319.48
638.77	300.76
639.185	338.21
639.6	319.48
640.015	305.44
640.43	314.8
640.845	291.4
641.259	338.21
641.674	328.85
642.089	307.78
642.504	331.19
642.918	296.08
643.333	310.12
643.747	272.67
644.162	361.61
644.576	345.23
644.991	270.33
645.405	314.8
645.819	310.12
646.233	317.14
646.647	310.12
647.061	375.66
647.475	401.4
647.889	225.86
648.303	291.4
648.717	272.67
649.131	314.8
649.545	305.44
649.958	338.21
650.372	277.35
650.785	333.53
651.199	317.14
651.612	321.82
652.026	342.89
652.439	307.78
652.852	312.46
653.266	328.85
653.679	279.69
654.092	289.06
654.505	310.12
654.918	307.78
655.331	328.85
655.744	342.89
656.156	291.4
656.569	310.12
656.982	319.48
657.394	235.22
657.807	260.97
658.22	305.44
658.632	333.53
659.044	272.67
659.457	300.76
659.869	347.57
660.281	335.87
660.693	279.69
661.106	300.76
661.518	310.12
661.93	328.85
662.342	267.99
662.754	328.85
663.165	305.44
663.577	263.31
663.989	263.31
664.401	289.06
664.812	324.16
665.224	289.06
665.635	300.76
666.047	324.16
666.458	310.12
666.869	326.5
667.281	324.16
667.692	296.08
668.103	279.69
668.514	286.72
668.925	333.53
669.336	279.69
669.747	326.5
670.158	253.95
670.569	317.14
670.979	289.06
671.39	342.89
671.801	356.93
672.211	333.53
672.622	277.35
673.032	347.57
673.443	293.74
673.853	324.16
674.263	326.5
674.674	317.14
675.084	366.29
675.494	345.23
675.904	354.59
676.314	291.4
676.724	305.44
677.134	347.57
677.544	338.21
677.953	282.03
678.363	300.76
678.773	312.46
679.182	296.08
679.592	347.57
680.001	356.93
680.411	296.08
680.82	307.78
681.23	265.65
681.639	356.93
682.048	338.21
682.457	373.32
682.866	347.57
683.275	307.78
683.684	333.53
684.093	211.82
684.502	366.29
684.911	328.85
685.32	328.85
685.728	284.38
686.137	335.87
686.546	282.03
686.954	314.8
687.363	328.85
687.771	312.46
688.179	333.53
688.588	319.48
688.996	340.55
689.404	366.29
689.812	317.14
690.22	284.38
690.628	361.61
691.036	354.59
691.444	361.61
691.852	375.66
692.26	260.97
692.667	359.27
693.075	277.35
693.483	289.06
693.89	314.8
694.298	314.8
694.705	340.55
695.112	335.87
695.52	291.4
695.927	335.87
696.334	307.78
696.741	349.91
697.148	328.85
697.555	225.86
697.962	310.12
698.369	286.72
698.776	298.42
699.183	291.4
699.59	333.53
699.996	347.57
700.403	363.95
700.81	277.35
701.216	291.4
701.623	307.78
702.029	342.89
702.435	272.67
702.842	242.25
703.248	300.76
703.654	286.72
704.06	312.46
704.466	314.8
704.872	267.99
705.278	272.67
705.684	321.82
706.09	317.14
706.496	279.69
706.901	349.91
707.307	352.25
707.712	298.42
708.118	253.95
708.523	366.29
708.929	298.42
709.334	326.5
709.74	272.67
710.145	356.93
710.55	310.12
710.955	356.93
711.36	282.03
711.765	253.95
712.17	305.44
712.575	305.44
712.98	895.25
713.385	389.7
713.789	300.76
714.194	321.82
714.599	307.78
715.003	312.46
715.408	279.69
715.812	328.85
716.217	321.82
716.621	347.57
717.025	312.46
717.429	314.8
717.833	319.48
718.238	317.14
718.642	282.03
719.046	307.78
719.449	363.95
719.853	347.57
720.257	282.03
720.661	282.03
721.065	314.8
721.468	324.16
721.872	277.35
722.275	394.38
722.679	305.44
723.082	317.14
723.485	349.91
723.889	331.19
724.292	249.27
724.695	317.14
725.098	300.76
725.501	298.42
725.904	284.38
726.307	270.33
726.71	310.12
727.113	305.44
727.516	389.7
727.918	270.33
728.321	328.85
728.724	328.85
729.126	270.33
729.529	270.33
729.931	361.61
730.333	314.8
730.736	277.35
731.138	324.16
731.54	328.85
731.942	368.63
732.344	303.1
732.746	270.33
733.148	256.29
733.55	305.44
733.952	340.55
734.354	293.74
734.756	296.08
735.157	317.14
735.559	289.06
735.96	317.14
736.362	303.1
736.763	298.42
737.165	286.72
737.566	277.35
737.967	310.12
738.368	317.14
738.77	314.8
739.171	303.1
739.572	340.55
739.973	272.67
740.374	361.61
740.774	307.78
741.175	410.76
741.576	289.06
741.977	253.95
742.377	317.14
742.778	314.8
743.178	319.48
743.579	272.67
743.979	305.44
744.379	324.16
744.78	340.55
745.18	389.7
745.58	347.57
745.98	256.29
746.38	260.97
746.78	251.61
747.18	293.74
747.58	319.48
747.98	331.19
748.38	314.8
748.779	314.8
749.179	232.88
749.578	352.25
749.978	335.87
750.377	331.19
750.777	335.87
751.176	291.4
751.575	331.19
751.975	319.48
752.374	317.14
752.773	328.85
753.172	286.72
753.571	303.1
753.97	319.48
754.369	296.08
754.768	282.03
755.166	312.46
755.565	270.33
755.964	244.59
756.362	363.95
756.761	258.63
757.159	317.14
757.558	324.16
757.956	286.72
758.354	328.85
758.753	303.1
759.151	267.99
759.549	312.46
759.947	260.97
760.345	310.12
760.743	279.69
761.141	260.97
761.539	331.19
761.936	296.08
762.334	352.25
762.732	347.57
763.129	291.4
763.527	293.74
763.924	349.91
764.322	368.63
764.719	300.76
765.117	305.44
765.514	293.74
765.911	298.42
766.308	340.55
766.705	310.12
767.102	298.42
767.499	363.95
767.896	394.38
768.293	340.55
768.69	305.44
769.086	239.9
769.483	314.8
769.88	347.57
770.276	312.46
770.673	359.27
771.069	368.63
771.466	284.38
771.862	277.35
772.258	354.59
772.654	246.93
773.05	312.46
773.447	303.1
773.843	335.87
774.239	291.4
774.634	317.14
775.03	270.33
775.426	331.19
775.822	328.85
776.218	342.89
776.613	347.57
777.009	314.8
777.404	228.2
777.8	296.08
778.195	270.33
778.59	333.53
778.986	279.69
779.381	326.5
779.776	303.1
780.171	319.48
780.566	354.59
780.961	314.8
781.356	291.4
781.751	335.87
782.146	286.72
782.54	296.08
782.935	284.38
783.33	314.8
783.724	263.31
784.119	349.91
784.513	382.68
784.908	321.82
785.302	312.46
785.696	314.8
786.09	335.87
786.485	333.53
786.879	368.63
787.273	251.61
787.667	293.74
788.061	253.95
788.454	289.06
788.848	335.87
789.242	356.93
789.636	223.52
790.029	272.67
790.423	328.85
790.816	244.59
791.21	399.06
791.603	249.27
791.997	338.21
792.39	305.44
792.783	291.4
793.176	321.82
793.569	349.91
793.962	356.93
794.355	331.19
794.748	277.35
795.141	345.23
795.534	335.87
795.927	328.85
796.319	382.68
796.712	340.55
797.105	310.12
797.497	267.99
797.89	338.21
798.282	338.21
798.674	298.42
799.067	253.95
799.459	382.68
799.851	305.44
800.243	286.72
800.635	300.76
801.027	347.57
801.419	333.53
801.811	275.01
802.203	317.14
802.594	300.76
802.986	347.57
803.378	279.69
803.769	307.78
804.161	286.72
804.552	333.53
804.944	310.12
805.335	239.9
805.726	403.74
806.118	312.46
806.509	321.82
806.9	300.76
807.291	275.01
807.682	282.03
808.073	298.42
808.464	293.74
808.855	296.08
809.245	307.78
809.636	342.89
810.027	300.76
810.417	293.74
810.808	289.06
811.198	314.8
811.589	303.1
811.979	300.76
812.369	307.78
812.759	296.08
813.15	321.82
813.54	270.33
813.93	263.31
814.32	342.89
814.71	312.46
815.1	317.14
815.489	272.67
815.879	338.21
816.269	246.93
816.658	307.78
817.048	272.67
817.438	296.08
817.827	338.21
818.216	298.42
818.606	249.27
818.995	324.16
819.384	312.46
819.773	352.25
820.163	263.31
820.552	298.42
820.941	284.38
821.33	354.59
821.718	331.19
822.107	310.12
822.496	342.89
822.885	373.32
823.273	324.16
823.662	270.33
824.05	324.16
824.439	312.46
824.827	249.27
825.216	363.95
825.604	319.48
825.992	279.69
826.38	289.06
826.768	270.33
827.156	300.76
827.544	277.35
827.932	361.61
828.32	310.12
828.708	286.72
829.096	267.99
829.483	270.33
829.871	298.42
830.259	305.44
830.646	284.38
831.034	284.38
831.421	277.35
831.808	286.72
832.196	293.74
832.583	284.38
832.97	279.69
833.357	293.74
833.744	349.91
834.131	284.38
834.518	349.91
834.905	328.85
835.292	326.5
835.678	307.78
836.065	303.1
836.452	228.2
836.838	310.12
837.225	216.5
837.611	366.29
837.998	251.61
838.384	303.1
838.77	319.48
839.157	305.44
839.543	296.08
839.929	310.12
840.315	317.14
840.701	319.48
841.087	345.23
841.473	293.74
841.858	272.67
842.244	300.76
842.63	333.53
843.015	253.95
843.401	537.15
843.787	333.53
844.172	258.63
844.557	359.27
844.943	267.99
845.328	317.14
845.713	237.56
846.098	331.19
846.483	335.87
846.868	293.74
847.253	272.67
847.638	349.91
848.023	279.69
848.408	328.85
848.793	331.19
849.177	277.35
849.562	363.95
849.947	286.72
850.331	225.86
850.715	326.5
851.1	279.69
851.484	291.4
851.868	303.1
852.253	291.4
852.637	277.35
853.021	300.76
853.405	366.29
853.789	284.38
854.173	282.03
854.557	335.87
854.94	319.48
855.324	338.21
855.708	321.82
856.091	277.35
856.475	305.44
856.858	282.03
857.242	300.76
857.625	359.27
858.009	326.5
858.392	251.61
858.775	296.08
859.158	310.12
859.541	340.55
859.924	385.02
860.307	314.8
860.69	298.42
861.073	305.44
861.456	321.82
861.838	356.93
862.221	289.06
862.604	319.48
862.986	335.87
863.369	349.91
863.751	338.21
864.133	296.08
864.516	267.99
864.898	361.61
865.28	331.19
865.662	314.8
866.044	289.06
866.426	298.42
866.808	298.42
867.19	335.87
867.572	326.5
867.954	333.53
868.336	277.35
868.717	286.72
869.099	258.63
869.48	305.44
869.862	326.5
870.243	298.42
870.625	340.55
871.006	293.74
871.387	298.42
871.768	352.25
872.149	310.12
872.53	368.63
872.911	298.42
873.292	324.16
873.673	307.78
874.054	216.5
874.435	340.55
874.815	380.34
875.196	256.29
875.577	300.76
875.957	244.59
876.338	284.38
876.718	256.29
877.098	284.38
877.479	356.93
877.859	282.03
878.239	331.19
878.619	293.74
878.999	270.33
879.379	286.72
879.759	300.76
880.139	279.69
880.519	256.29
880.898	324.16
881.278	340.55
881.658	258.63
882.037	305.44
882.417	326.5
882.796	289.06
883.176	293.74
883.555	293.74
883.934	321.82
884.313	277.35
884.693	328.85
885.072	265.65
885.451	275.01
885.83	340.55
886.209	349.91
886.587	310.12
886.966	406.08
887.345	279.69
887.724	335.87
888.102	312.46
888.481	263.31
888.859	335.87
889.238	267.99
889.616	333.53
889.994	298.42
890.373	356.93
890.751	286.72
891.129	256.29
891.507	345.23
891.885	324.16
892.263	352.25
892.641	251.61
893.019	256.29
893.396	300.76
893.774	335.87
894.152	368.63
894.529	328.85
894.907	321.82
895.284	272.67
895.662	305.44
896.039	298.42
896.416	310.12
896.794	307.78
897.171	310.12
897.548	260.97
897.925	324.16
898.302	282.03
898.679	286.72
899.056	328.85
899.433	399.06
899.809	242.25
900.186	319.48
900.563	335.87
900.939	310.12
901.316	232.88
901.692	296.08
902.069	282.03
902.445	291.4
902.821	347.57
903.197	324.16
903.574	303.1
903.95	267.99
904.326	305.44
904.702	272.67
905.078	293.74
905.454	326.5
905.829	326.5
906.205	265.65
906.581	263.31
906.956	293.74
907.332	324.16
907.707	286.72
908.083	275.01
908.458	319.48
908.833	340.55
909.209	345.23
909.584	289.06
909.959	293.74
910.334	291.4
910.709	317.14
911.084	305.44
911.459	277.35
911.834	312.46
912.209	296.08
912.583	291.4
912.958	303.1
913.333	317.14
913.707	275.01
914.082	335.87
914.456	282.03
914.83	326.5
915.205	324.16
915.579	270.33
915.953	333.53
916.327	282.03
916.701	324.16
917.075	279.69
917.449	211.82
917.823	242.25
918.197	328.85
918.571	307.78
918.944	263.31
919.318	289.06
919.692	277.35
920.065	296.08
920.438	319.48
920.812	286.72
921.185	282.03
921.558	349.91
921.932	359.27
922.305	277.35
922.678	270.33
923.051	352.25
923.424	303.1
923.797	289.06
924.17	293.74
924.542	267.99
924.915	275.01
925.288	312.46
925.661	305.44
926.033	303.1
926.406	326.5
926.778	293.74
927.15	279.69
927.523	345.23
927.895	284.38
928.267	286.72
928.639	307.78
929.011	282.03
929.383	324.16
929.755	349.91
930.127	298.42
930.499	361.61
930.871	314.8
931.242	270.33
931.614	307.78
931.986	356.93
932.357	298.42
932.729	307.78
933.1	342.89
933.471	338.21
933.843	366.29
934.214	282.03
934.585	305.44
934.956	345.23
935.327	296.08
935.698	310.12
936.069	291.4
936.44	368.63
936.811	282.03
937.182	321.82
937.552	319.48
937.923	314.8
938.293	317.14
938.664	225.86
939.034	260.97
939.405	291.4
939.775	321.82
940.145	286.72
940.516	328.85
940.886	282.03
941.256	267.99
941.626	270.33
941.996	298.42
942.366	267.99
942.735	277.35
943.105	270.33
943.475	361.61
943.845	314.8
944.214	251.61
944.584	307.78
944.953	338.21
945.323	312.46
945.692	331.19
946.061	324.16
946.43	277.35
946.8	366.29
947.169	265.65
947.538	289.06
947.907	275.01
948.276	321.82
948.645	282.03
949.013	312.46
949.382	310.12
949.751	307.78
950.119	317.14
950.488	300.76
950.857	312.46
951.225	347.57
951.593	310.12
951.962	356.93
952.33	300.76
952.698	312.46
953.066	239.9
953.434	296.08
953.802	370.97
954.17	258.63
954.538	289.06
954.906	331.19
955.274	354.59
955.642	349.91
956.009	293.74
956.377	328.85
956.744	345.23
957.112	282.03
957.479	331.19
957.847	317.14
958.214	296.08
958.581	319.48
958.948	296.08
959.315	326.5
959.683	310.12
960.05	284.38
960.416	300.76
960.783	265.65
961.15	342.89
961.517	202.46
961.884	270.33
962.25	300.76
962.617	312.46
962.983	317.14
963.35	340.55
963.716	342.89
964.082	282.03
964.449	289.06
964.815	239.9
965.181	303.1
965.547	331.19
965.913	272.67
966.279	361.61
966.645	312.46
967.011	331.19
967.377	321.82
967.742	300.76
968.108	251.61
968.474	326.5
968.839	303.1
969.205	307.78
969.57	314.8
969.935	296.08
970.301	305.44
970.666	232.88
971.031	347.57
971.396	312.46
971.761	307.78
972.126	242.25
972.491	277.35
972.856	291.4
973.221	321.82
973.586	296.08
973.95	277.35
974.315	298.42
974.679	328.85
975.044	275.01
975.408	298.42
975.773	387.36
976.137	314.8
976.501	249.27
976.866	200.12
977.23	385.02
977.594	303.1
977.958	345.23
978.322	321.82
978.686	331.19
979.049	267.99
979.413	307.78
979.777	282.03
980.141	289.06
980.504	270.33
980.868	345.23
981.231	296.08
981.595	319.48
981.958	314.8
982.321	305.44
982.684	277.35
983.048	326.5
983.411	244.59
983.774	218.84
984.137	289.06
984.5	349.91
984.862	291.4
985.225	324.16
985.588	298.42
985.951	286.72
986.313	312.46
986.676	310.12
987.038	340.55
987.401	267.99
987.763	256.29
988.125	284.38
988.488	347.57
988.85	251.61
989.212	275.01
989.574	345.23
989.936	275.01
990.298	347.57
990.66	314.8
991.022	228.2
991.383	277.35
991.745	307.78
992.107	235.22
992.468	359.27
992.83	340.55
993.191	331.19
993.553	296.08
993.914	305.44
994.275	279.69
994.637	307.78
994.998	260.97
995.359	307.78
995.72	265.65
996.081	291.4
996.442	314.8
996.803	324.16
997.163	366.29
997.524	289.06
997.885	314.8
998.245	293.74
998.606	312.46
998.966	300.76
999.327	342.89
999.687	246.93
1000.047	303.1
1000.408	326.5
1000.768	324.16
1001.128	321.82
1001.488	317.14
1001.848	307.78
1002.208	389.7
1002.568	321.82
1002.927	359.27
1003.287	366.29
1003.647	342.89
1004.007	279.69
1004.366	284.38
1004.726	279.69
1005.085	347.57
1005.444	265.65
1005.804	328.85
1006.163	303.1
1006.522	221.18
1006.881	249.27
1007.24	326.5
1007.599	291.4
1007.958	293.74
1008.317	312.46
1008.676	279.69
1009.035	319.48
1009.393	319.48
1009.752	303.1
1010.111	279.69
1010.469	324.16
1010.828	324.16
1011.186	333.53
1011.544	363.95
1011.903	324.16
1012.261	284.38
1012.619	303.1
1012.977	298.42
1013.335	282.03
1013.693	317.14
1014.051	209.48
1014.409	363.95
1014.767	286.72
1015.124	286.72
1015.482	286.72
1015.84	307.78
1016.197	211.82
1016.555	307.78
1016.912	265.65
1017.269	321.82
1017.627	267.99
1017.984	345.23
1018.341	296.08
1018.698	260.97
1019.055	340.55
1019.412	303.1
1019.769	272.67
1020.126	335.87
1020.483	314.8
1020.84	265.65
1021.196	340.55
1021.553	333.53
1021.909	277.35
1022.266	260.97
1022.622	303.1
1022.979	335.87
1023.335	293.74
1023.691	256.29
1024.047	272.67
1024.404	265.65
1024.76	277.35
1025.116	326.5
1025.472	303.1
1025.827	389.7
1026.183	317.14
1026.539	200.12
1026.895	277.35
1027.25	289.06
1027.606	260.97
1027.961	277.35
1028.317	270.33
1028.672	340.55
1029.028	314.8
1029.383	272.67
1029.738	289.06
1030.093	286.72
1030.448	307.78
1030.803	293.74
1031.158	324.16
1031.513	366.29
1031.868	326.5
1032.223	328.85
1032.577	279.69
1032.932	289.06
1033.287	244.59
1033.641	300.76
1033.996	253.95
1034.35	272.67
1034.704	310.12
1035.059	338.21
1035.413	324.16
1035.767	324.16
1036.121	324.16
