Data from Al_FLMS009871__1012__16-22-55-119.txt Node

Date: Fri Mar 08 16:22:55 CST 2024
User: pe5414po
Spectrometer: FLMS00987
Trigger mode: 0
Integration Time (sec): 1.000000E-1
Scans to average: 1
Electric dark correction enabled: true
Nonlinearity correction enabled: false
Boxcar width: 0
XAxis mode: Wavelengths
Number of Pixels in Spectrum: 2048
>>>>>Begin Spectral Data<<<<<
188.938	-106.93
189.409	-106.93
189.879	-106.93
190.349	-92.89
190.819	-113.95
191.29	-123.32
191.76	-62.46
192.23	-116.3
192.7	-144.38
193.17	-78.85
193.64	-64.8
194.109	-39.06
194.579	-29.7
195.049	-39.06
195.519	7.75
195.988	89.67
196.458	103.71
196.927	84.99
197.397	117.76
197.866	145.84
198.336	148.19
198.805	206.7
199.274	169.25
199.744	143.5
200.213	171.59
200.682	145.84
201.151	173.93
201.62	262.87
202.089	237.13
202.558	321.38
203.027	246.49
203.495	269.89
203.964	305
204.433	218.4
204.902	302.66
205.37	223.08
205.839	319.04
206.307	302.66
206.776	269.89
207.244	279.26
207.712	272.23
208.181	305
208.649	316.7
209.117	239.47
209.585	333.09
210.053	333.09
210.521	302.66
210.989	286.28
211.457	307.34
211.925	312.02
212.393	269.89
212.861	354.15
213.328	274.57
213.796	276.91
214.264	288.62
214.731	300.32
215.199	342.45
215.666	283.94
216.133	293.3
216.601	290.96
217.068	272.23
217.535	269.89
218.003	293.3
218.47	340.11
218.937	309.68
219.404	286.28
219.871	309.68
220.338	227.76
220.805	232.44
221.271	272.23
221.738	209.04
222.205	262.87
222.671	218.4
223.138	319.04
223.605	300.32
224.071	255.85
224.538	300.32
225.004	237.13
225.47	290.96
225.937	276.91
226.403	283.94
226.869	267.55
227.335	283.94
227.801	286.28
228.267	265.21
228.733	302.66
229.199	223.08
229.665	344.79
230.131	302.66
230.597	302.66
231.062	237.13
231.528	234.78
231.994	178.61
232.459	316.7
232.925	274.57
233.39	218.4
233.856	319.04
234.321	319.04
234.786	253.51
235.252	255.85
235.717	255.85
236.182	230.1
236.647	281.6
237.112	276.91
237.577	279.26
238.042	316.7
238.507	204.36
238.972	328.41
239.436	321.38
239.901	202.02
240.366	281.6
240.83	323.73
241.295	267.55
241.76	330.75
242.224	302.66
242.688	333.09
243.153	237.13
243.617	293.3
244.081	269.89
244.545	255.85
245.01	283.94
245.474	274.57
245.938	255.85
246.402	305
246.866	321.38
247.33	232.44
247.793	274.57
248.257	316.7
248.721	330.75
249.185	316.7
249.648	258.19
250.112	274.57
250.575	272.23
251.039	269.89
251.502	309.68
251.965	283.94
252.429	223.08
252.892	253.51
253.355	234.78
253.818	309.68
254.281	312.02
254.744	319.04
255.207	272.23
255.67	286.28
256.133	309.68
256.596	297.98
257.059	244.15
257.522	314.36
257.984	269.89
258.447	258.19
258.909	286.28
259.372	305
259.834	246.49
260.297	328.41
260.759	288.62
261.221	255.85
261.684	302.66
262.146	293.3
262.608	244.15
263.07	290.96
263.532	321.38
263.994	288.62
264.456	293.3
264.918	300.32
265.38	244.15
265.842	297.98
266.303	272.23
266.765	297.98
267.227	305
267.688	323.73
268.15	290.96
268.611	295.64
269.072	244.15
269.534	283.94
269.995	297.98
270.456	351.81
270.918	283.94
271.379	309.68
271.84	312.02
272.301	333.09
272.762	368.2
273.223	293.3
273.684	281.6
274.144	260.53
274.605	246.49
275.066	246.49
275.527	307.34
275.987	342.45
276.448	337.77
276.908	241.81
277.369	330.75
277.829	230.1
278.289	288.62
278.75	356.49
279.21	267.55
279.67	293.3
280.13	274.57
280.59	267.55
281.05	253.51
281.51	344.79
281.97	288.62
282.43	335.43
282.89	330.75
283.35	262.87
283.809	333.09
284.269	258.19
284.729	281.6
285.188	312.02
285.648	272.23
286.107	279.26
286.567	283.94
287.026	319.04
287.485	279.26
287.944	305
288.404	281.6
288.863	255.85
289.322	262.87
289.781	333.09
290.24	302.66
290.699	328.41
291.158	293.3
291.616	267.55
292.075	218.4
292.534	288.62
292.992	342.45
293.451	316.7
293.91	312.02
294.368	382.24
294.827	384.58
295.285	288.62
295.743	295.64
296.202	288.62
296.66	272.23
297.118	272.23
297.576	319.04
298.034	297.98
298.492	290.96
298.95	276.91
299.408	342.45
299.866	295.64
300.324	337.77
300.781	309.68
301.239	307.34
301.697	288.62
302.154	265.21
302.612	333.09
303.069	309.68
303.527	342.45
303.984	314.36
304.441	312.02
304.899	363.51
305.356	267.55
305.813	330.75
306.27	288.62
306.727	344.79
307.184	314.36
307.641	316.7
308.098	288.62
308.555	290.96
309.012	276.91
309.468	349.47
309.925	267.55
310.382	230.1
310.838	305
311.295	349.47
311.751	251.17
312.208	312.02
312.664	274.57
313.12	307.34
313.577	307.34
314.033	262.87
314.489	293.3
314.945	302.66
315.401	281.6
315.857	290.96
316.313	300.32
316.769	293.3
317.225	260.53
317.681	281.6
318.136	319.04
318.592	239.47
319.048	368.2
319.503	314.36
319.959	333.09
320.414	309.68
320.869	297.98
321.325	260.53
321.78	321.38
322.235	354.15
322.691	347.13
323.146	328.41
323.601	295.64
324.056	283.94
324.511	323.73
324.966	370.54
325.421	300.32
325.875	274.57
326.33	302.66
326.785	358.83
327.24	316.7
327.694	281.6
328.149	302.66
328.603	349.47
329.058	312.02
329.512	286.28
329.966	347.13
330.421	312.02
330.875	312.02
331.329	255.85
331.783	312.02
332.237	328.41
332.691	307.34
333.145	330.75
333.599	321.38
334.053	302.66
334.507	333.09
334.96	375.22
335.414	330.75
335.868	288.62
336.321	335.43
336.775	283.94
337.228	342.45
337.682	330.75
338.135	309.68
338.588	351.81
339.042	283.94
339.495	354.15
339.948	340.11
340.401	300.32
340.854	344.79
341.307	368.2
341.76	328.41
342.213	358.83
342.666	286.28
343.119	337.77
343.571	330.75
344.024	295.64
344.477	326.07
344.929	349.47
345.382	365.85
345.834	293.3
346.287	288.62
346.739	281.6
347.191	321.38
347.644	323.73
348.096	312.02
348.548	309.68
349	290.96
349.452	307.34
349.904	297.98
350.356	283.94
350.808	309.68
351.26	384.58
351.711	281.6
352.163	379.9
352.615	344.79
353.066	337.77
353.518	281.6
353.969	328.41
354.421	335.43
354.872	300.32
355.324	314.36
355.775	295.64
356.226	295.64
356.677	328.41
357.128	281.6
357.579	377.56
358.03	302.66
358.481	349.47
358.932	286.28
359.383	295.64
359.834	316.7
360.285	340.11
360.735	354.15
361.186	307.34
361.637	349.47
362.087	295.64
362.538	344.79
362.988	253.51
363.438	314.36
363.889	307.34
364.339	326.07
364.789	337.77
365.239	286.28
365.689	340.11
366.139	398.62
366.589	333.09
367.039	286.28
367.489	316.7
367.939	218.4
368.389	321.38
368.839	307.34
369.288	297.98
369.738	267.55
370.187	288.62
370.637	302.66
371.086	347.13
371.536	347.13
371.985	330.75
372.434	300.32
372.884	349.47
373.333	290.96
373.782	262.87
374.231	316.7
374.68	323.73
375.129	340.11
375.578	276.91
376.027	267.55
376.475	309.68
376.924	326.07
377.373	302.66
377.822	260.53
378.27	269.89
378.719	272.23
379.167	323.73
379.616	297.98
380.064	319.04
380.512	305
380.961	295.64
381.409	363.51
381.857	309.68
382.305	347.13
382.753	312.02
383.201	330.75
383.649	347.13
384.097	361.17
384.545	323.73
384.992	358.83
385.44	321.38
385.888	328.41
386.335	293.3
386.783	330.75
387.231	410.33
387.678	382.24
388.125	337.77
388.573	302.66
389.02	321.38
389.467	328.41
389.914	309.68
390.362	300.32
390.809	293.3
391.256	288.62
391.703	314.36
392.15	295.64
392.596	342.45
393.043	312.02
393.49	356.49
393.937	307.34
394.383	326.07
394.83	368.2
395.276	288.62
395.723	305
396.169	262.87
396.616	281.6
397.062	297.98
397.508	323.73
397.954	330.75
398.401	305
398.847	351.81
399.293	272.23
399.739	302.66
400.185	377.56
400.631	293.3
401.076	260.53
401.522	351.81
401.968	307.34
402.414	349.47
402.859	316.7
403.305	314.36
403.75	358.83
404.196	295.64
404.641	340.11
405.086	281.6
405.532	340.11
405.977	358.83
406.422	279.26
406.867	293.3
407.312	361.17
407.757	358.83
408.202	340.11
408.647	290.96
409.092	340.11
409.537	326.07
409.982	326.07
410.426	246.49
410.871	361.17
411.316	288.62
411.76	370.54
412.205	323.73
412.649	302.66
413.093	293.3
413.538	347.13
413.982	312.02
414.426	316.7
414.87	330.75
415.314	326.07
415.758	375.22
416.202	307.34
416.646	347.13
417.09	288.62
417.534	342.45
417.978	309.68
418.421	333.09
418.865	384.58
419.309	286.28
419.752	307.34
420.196	290.96
420.639	368.2
421.083	337.77
421.526	316.7
421.969	272.23
422.412	295.64
422.856	354.15
423.299	314.36
423.742	328.41
424.185	370.54
424.628	358.83
425.071	314.36
425.513	326.07
425.956	295.64
426.399	372.88
426.842	307.34
427.284	349.47
427.727	337.77
428.169	340.11
428.612	351.81
429.054	314.36
429.497	293.3
429.939	347.13
430.381	279.26
430.823	241.81
431.265	316.7
431.707	302.66
432.149	295.64
432.591	319.04
433.033	351.81
433.475	333.09
433.917	349.47
434.359	269.89
434.8	295.64
435.242	302.66
435.684	363.51
436.125	340.11
436.567	328.41
437.008	316.7
437.449	279.26
437.891	323.73
438.332	335.43
438.773	323.73
439.214	337.77
439.656	351.81
440.097	349.47
440.538	314.36
440.978	269.89
441.419	314.36
441.86	302.66
442.301	335.43
442.742	372.88
443.182	356.49
443.623	246.49
444.063	293.3
444.504	309.68
444.944	290.96
445.385	309.68
445.825	335.43
446.265	312.02
446.706	319.04
447.146	361.17
447.586	295.64
448.026	272.23
448.466	330.75
448.906	314.36
449.346	349.47
449.786	354.15
450.225	351.81
450.665	302.66
451.105	297.98
451.544	307.34
451.984	272.23
452.424	330.75
452.863	321.38
453.302	323.73
453.742	351.81
454.181	328.41
454.62	340.11
455.059	293.3
455.499	363.51
455.938	340.11
456.377	272.23
456.816	293.3
457.254	354.15
457.693	328.41
458.132	326.07
458.571	328.41
459.01	312.02
459.448	370.54
459.887	319.04
460.325	337.77
460.764	347.13
461.202	349.47
461.641	312.02
462.079	333.09
462.517	305
462.955	286.28
463.393	326.07
463.832	293.3
464.27	391.6
464.708	269.89
465.145	316.7
465.583	309.68
466.021	377.56
466.459	286.28
466.897	342.45
467.334	337.77
467.772	333.09
468.209	344.79
468.647	302.66
469.084	349.47
469.522	356.49
469.959	358.83
470.396	333.09
470.833	255.85
471.271	321.38
471.708	295.64
472.145	372.88
472.582	372.88
473.019	321.38
473.456	344.79
473.892	340.11
474.329	290.96
474.766	398.62
475.202	297.98
475.639	361.17
476.076	340.11
476.512	314.36
476.949	340.11
477.385	300.32
477.821	302.66
478.258	340.11
478.694	279.26
479.13	316.7
479.566	328.41
480.002	344.79
480.438	330.75
480.874	319.04
481.31	319.04
481.746	314.36
482.181	342.45
482.617	326.07
483.053	272.23
483.488	333.09
483.924	330.75
484.36	312.02
484.795	276.91
485.23	258.19
485.666	307.34
486.101	358.83
486.536	372.88
486.971	283.94
487.407	316.7
487.842	337.77
488.277	335.43
488.712	323.73
489.146	405.64
489.581	328.41
490.016	305
490.451	309.68
490.885	335.43
491.32	307.34
491.755	314.36
492.189	344.79
492.624	389.26
493.058	384.58
493.492	314.36
493.927	340.11
494.361	309.68
494.795	307.34
495.229	361.17
495.663	344.79
496.097	330.75
496.531	258.19
496.965	314.36
497.399	316.7
497.833	361.17
498.266	358.83
498.7	330.75
499.134	354.15
499.567	309.68
500.001	349.47
500.434	288.62
500.868	312.02
501.301	295.64
501.734	281.6
502.168	293.3
502.601	239.47
503.034	283.94
503.467	279.26
503.9	337.77
504.333	227.76
504.766	307.34
505.199	316.7
505.632	305
506.064	281.6
506.497	293.3
506.93	351.81
507.362	309.68
507.795	297.98
508.227	314.36
508.66	349.47
509.092	358.83
509.524	347.13
509.956	309.68
510.389	377.56
510.821	363.51
511.253	354.15
511.685	244.15
512.117	309.68
512.549	265.21
512.981	342.45
513.412	305
513.844	328.41
514.276	309.68
514.707	316.7
515.139	363.51
515.571	391.6
516.002	361.17
516.433	309.68
516.865	375.22
517.296	276.91
517.727	356.49
518.159	321.38
518.59	370.54
519.021	342.45
519.452	358.83
519.883	347.13
520.314	269.89
520.744	316.7
521.175	340.11
521.606	326.07
522.037	351.81
522.467	333.09
522.898	342.45
523.328	321.38
523.759	267.55
524.189	349.47
524.62	316.7
525.05	382.24
525.48	330.75
525.91	354.15
526.341	316.7
526.771	319.04
527.201	356.49
527.631	396.28
528.061	328.41
528.49	333.09
528.92	337.77
529.35	323.73
529.78	340.11
530.209	379.9
530.639	368.2
531.068	347.13
531.498	349.47
531.927	363.51
532.357	340.11
532.786	307.34
533.215	300.32
533.644	279.26
534.074	286.28
534.503	330.75
534.932	300.32
535.361	337.77
535.79	300.32
536.218	368.2
536.647	354.15
537.076	314.36
537.505	337.77
537.933	361.17
538.362	312.02
538.79	305
539.219	344.79
539.647	361.17
540.076	297.98
540.504	321.38
540.932	326.07
541.36	342.45
541.788	293.3
542.217	295.64
542.645	316.7
543.073	295.64
543.5	358.83
543.928	340.11
544.356	326.07
544.784	305
545.211	386.92
545.639	330.75
546.067	251.17
546.494	314.36
546.922	283.94
547.349	349.47
547.776	326.07
548.204	333.09
548.631	312.02
549.058	363.51
549.485	340.11
549.912	333.09
550.339	302.66
550.766	358.83
551.193	337.77
551.62	330.75
552.047	302.66
552.474	326.07
552.9	297.98
553.327	342.45
553.754	293.3
554.18	335.43
554.607	290.96
555.033	286.28
555.459	283.94
555.886	363.51
556.312	365.85
556.738	323.73
557.164	321.38
557.59	335.43
558.016	375.22
558.442	319.04
558.868	297.98
559.294	344.79
559.72	295.64
560.145	384.58
560.571	286.28
560.997	281.6
561.422	253.51
561.848	316.7
562.273	286.28
562.699	297.98
563.124	370.54
563.549	319.04
563.974	295.64
564.4	307.34
564.825	342.45
565.25	335.43
565.675	323.73
566.1	335.43
566.525	323.73
566.95	335.43
567.374	351.81
567.799	312.02
568.224	365.85
568.648	344.79
569.073	323.73
569.497	363.51
569.922	293.3
570.346	295.64
570.771	337.77
571.195	283.94
571.619	333.09
572.043	307.34
572.467	293.3
572.891	314.36
573.315	340.11
573.739	321.38
574.163	314.36
574.587	283.94
575.011	349.47
575.435	349.47
575.858	330.75
576.282	340.11
576.705	377.56
577.129	316.7
577.552	288.62
577.976	283.94
578.399	316.7
578.822	344.79
579.245	286.28
579.669	356.49
580.092	316.7
580.515	347.13
580.938	328.41
581.361	288.62
581.784	328.41
582.206	328.41
582.629	305
583.052	328.41
583.474	347.13
583.897	300.32
584.32	300.32
584.742	335.43
585.165	347.13
585.587	309.68
586.009	337.77
586.431	323.73
586.854	295.64
587.276	281.6
587.698	356.49
588.12	365.85
588.542	297.98
588.964	279.26
589.386	356.49
589.807	314.36
590.229	281.6
590.651	328.41
591.073	300.32
591.494	347.13
591.916	274.57
592.337	319.04
592.759	319.04
593.18	295.64
593.601	328.41
594.022	288.62
594.444	337.77
594.865	300.32
595.286	297.98
595.707	361.17
596.128	342.45
596.549	309.68
596.97	276.91
597.39	295.64
597.811	326.07
598.232	297.98
598.652	290.96
599.073	274.57
599.494	326.07
599.914	281.6
600.334	323.73
600.755	375.22
601.175	321.38
601.595	365.85
602.015	337.77
602.436	316.7
602.856	431.39
603.276	335.43
603.696	389.26
604.115	253.51
604.535	281.6
604.955	295.64
605.375	305
605.794	307.34
606.214	337.77
606.634	300.32
607.053	260.53
607.473	358.83
607.892	361.17
608.311	286.28
608.731	319.04
609.15	375.22
609.569	326.07
609.988	307.34
610.407	321.38
610.826	398.62
611.245	375.22
611.664	333.09
612.083	375.22
612.501	288.62
612.92	330.75
613.339	356.49
613.757	269.89
614.176	319.04
614.594	305
615.013	297.98
615.431	342.45
615.85	295.64
616.268	337.77
616.686	321.38
617.104	286.28
617.522	283.94
617.94	321.38
618.358	314.36
618.776	330.75
619.194	307.34
619.612	283.94
620.03	321.38
620.447	316.7
620.865	288.62
621.282	305
621.7	410.33
622.117	279.26
622.535	272.23
622.952	365.85
623.369	330.75
623.787	351.81
624.204	375.22
624.621	333.09
625.038	384.58
625.455	326.07
625.872	354.15
626.289	262.87
626.706	377.56
627.123	319.04
627.539	375.22
627.956	347.13
628.373	286.28
628.789	288.62
629.206	328.41
629.622	328.41
630.038	305
630.455	344.79
630.871	375.22
631.287	375.22
631.703	314.36
632.12	354.15
632.536	342.45
632.952	305
633.368	309.68
633.783	288.62
634.199	323.73
634.615	344.79
635.031	321.38
635.446	272.23
635.862	258.19
636.277	344.79
636.693	309.68
637.108	368.2
637.524	333.09
637.939	335.43
638.354	300.32
638.77	323.73
639.185	312.02
639.6	363.51
640.015	290.96
640.43	361.17
640.845	274.57
641.259	297.98
641.674	276.91
642.089	375.22
642.504	307.34
642.918	283.94
643.333	309.68
643.747	316.7
644.162	295.64
644.576	351.81
644.991	358.83
645.405	286.28
645.819	281.6
646.233	288.62
646.647	340.11
647.061	354.15
647.475	302.66
647.889	384.58
648.303	314.36
648.717	297.98
649.131	305
649.545	326.07
649.958	276.91
650.372	363.51
650.785	328.41
651.199	293.3
651.612	309.68
652.026	316.7
652.439	319.04
652.852	319.04
653.266	335.43
653.679	314.36
654.092	342.45
654.505	319.04
654.918	248.83
655.331	258.19
655.744	382.24
656.156	307.34
656.569	323.73
656.982	312.02
657.394	312.02
657.807	295.64
658.22	342.45
658.632	330.75
659.044	302.66
659.457	312.02
659.869	288.62
660.281	307.34
660.693	288.62
661.106	269.89
661.518	349.47
661.93	309.68
662.342	375.22
662.754	323.73
663.165	305
663.577	269.89
663.989	328.41
664.401	300.32
664.812	316.7
665.224	312.02
665.635	309.68
666.047	295.64
666.458	295.64
666.869	300.32
667.281	269.89
667.692	375.22
668.103	279.26
668.514	354.15
668.925	305
669.336	267.55
669.747	323.73
670.158	300.32
670.569	248.83
670.979	251.17
671.39	335.43
671.801	288.62
672.211	370.54
672.622	326.07
673.032	276.91
673.443	276.91
673.853	328.41
674.263	312.02
674.674	319.04
675.084	340.11
675.494	326.07
675.904	337.77
676.314	283.94
676.724	351.81
677.134	316.7
677.544	356.49
677.953	314.36
678.363	283.94
678.773	386.92
679.182	370.54
679.592	328.41
680.001	358.83
680.411	269.89
680.82	237.13
681.23	358.83
681.639	319.04
682.048	330.75
682.457	309.68
682.866	344.79
683.275	344.79
683.684	314.36
684.093	349.47
684.502	351.81
684.911	375.22
685.32	272.23
685.728	302.66
686.137	372.88
686.546	349.47
686.954	253.51
687.363	361.17
687.771	293.3
688.179	328.41
688.588	405.64
688.996	337.77
689.404	312.02
689.812	358.83
690.22	356.49
690.628	279.26
691.036	281.6
691.444	321.38
691.852	363.51
692.26	333.09
692.667	351.81
693.075	276.91
693.483	349.47
693.89	323.73
694.298	330.75
694.705	251.17
695.112	307.34
695.52	312.02
695.927	283.94
696.334	293.3
696.741	290.96
697.148	347.13
697.555	279.26
697.962	283.94
698.369	368.2
698.776	234.78
699.183	290.96
699.59	351.81
699.996	302.66
700.403	321.38
700.81	337.77
701.216	351.81
701.623	288.62
702.029	274.57
702.435	326.07
702.842	356.49
703.248	279.26
703.654	342.45
704.06	312.02
704.466	319.04
704.872	276.91
705.278	333.09
705.684	302.66
706.09	321.38
706.496	305
706.901	368.2
707.307	312.02
707.712	260.53
708.118	293.3
708.523	326.07
708.929	274.57
709.334	386.92
709.74	267.55
710.145	344.79
710.55	286.28
710.955	274.57
711.36	283.94
711.765	279.26
712.17	342.45
712.575	255.85
712.98	826.94
713.385	307.34
713.789	375.22
714.194	307.34
714.599	349.47
715.003	372.88
715.408	328.41
715.812	290.96
716.217	337.77
716.621	330.75
717.025	244.15
717.429	314.36
717.833	314.36
718.238	319.04
718.642	340.11
719.046	305
719.449	335.43
719.853	344.79
720.257	333.09
720.661	312.02
721.065	307.34
721.468	300.32
721.872	305
722.275	340.11
722.679	283.94
723.082	361.17
723.485	323.73
723.889	391.6
724.292	241.81
724.695	246.49
725.098	372.88
725.501	265.21
725.904	319.04
726.307	286.28
726.71	297.98
727.113	272.23
727.516	316.7
727.918	328.41
728.321	335.43
728.724	323.73
729.126	300.32
729.529	333.09
729.931	375.22
730.333	333.09
730.736	316.7
731.138	351.81
731.54	312.02
731.942	300.32
732.344	307.34
732.746	258.19
733.148	302.66
733.55	363.51
733.952	253.51
734.354	295.64
734.756	312.02
735.157	255.85
735.559	295.64
735.96	272.23
736.362	302.66
736.763	316.7
737.165	382.24
737.566	302.66
737.967	403.3
738.368	358.83
738.77	323.73
739.171	323.73
739.572	330.75
739.973	361.17
740.374	335.43
740.774	335.43
741.175	358.83
741.576	307.34
741.977	265.21
742.377	328.41
742.778	361.17
743.178	316.7
743.579	323.73
743.979	330.75
744.379	319.04
744.78	302.66
745.18	319.04
745.58	321.38
745.98	279.26
746.38	356.49
746.78	344.79
747.18	314.36
747.58	269.89
747.98	361.17
748.38	262.87
748.779	309.68
749.179	312.02
749.578	286.28
749.978	316.7
750.377	337.77
750.777	286.28
751.176	349.47
751.575	368.2
751.975	333.09
752.374	342.45
752.773	288.62
753.172	335.43
753.571	269.89
753.97	340.11
754.369	330.75
754.768	323.73
755.166	328.41
755.565	305
755.964	358.83
756.362	335.43
756.761	358.83
757.159	305
757.558	316.7
757.956	344.79
758.354	379.9
758.753	326.07
759.151	302.66
759.549	300.32
759.947	305
760.345	246.49
760.743	272.23
761.141	335.43
761.539	323.73
761.936	349.47
762.334	274.57
762.732	305
763.129	305
763.527	283.94
763.924	405.64
764.322	241.81
764.719	297.98
765.117	307.34
765.514	307.34
765.911	335.43
766.308	337.77
766.705	276.91
767.102	309.68
767.499	253.51
767.896	314.36
768.293	314.36
768.69	293.3
769.086	225.42
769.483	281.6
769.88	312.02
770.276	316.7
770.673	330.75
771.069	314.36
771.466	300.32
771.862	326.07
772.258	300.32
772.654	297.98
773.05	255.85
773.447	342.45
773.843	342.45
774.239	272.23
774.634	365.85
775.03	372.88
775.426	368.2
775.822	363.51
776.218	262.87
776.613	290.96
777.009	361.17
777.404	283.94
777.8	314.36
778.195	295.64
778.59	272.23
778.986	335.43
779.381	302.66
779.776	307.34
780.171	344.79
780.566	351.81
780.961	295.64
781.356	372.88
781.751	342.45
782.146	258.19
782.54	330.75
782.935	283.94
783.33	314.36
783.724	283.94
784.119	349.47
784.513	335.43
784.908	326.07
785.302	330.75
785.696	302.66
786.09	386.92
786.485	295.64
786.879	403.3
787.273	274.57
787.667	330.75
788.061	269.89
788.454	316.7
788.848	290.96
789.242	344.79
789.636	443.09
790.029	281.6
790.423	253.51
790.816	272.23
791.21	342.45
791.603	363.51
791.997	300.32
792.39	253.51
792.783	347.13
793.176	246.49
793.569	361.17
793.962	347.13
794.355	323.73
794.748	370.54
795.141	354.15
795.534	265.21
795.927	272.23
796.319	335.43
796.712	363.51
797.105	314.36
797.497	330.75
797.89	319.04
798.282	295.64
798.674	337.77
799.067	372.88
799.459	302.66
799.851	333.09
800.243	326.07
800.635	328.41
801.027	267.55
801.419	288.62
801.811	274.57
802.203	305
802.594	309.68
802.986	372.88
803.378	365.85
803.769	344.79
804.161	335.43
804.552	267.55
804.944	309.68
805.335	295.64
805.726	351.81
806.118	314.36
806.509	279.26
806.9	328.41
807.291	293.3
807.682	223.08
808.073	335.43
808.464	276.91
808.855	347.13
809.245	274.57
809.636	309.68
810.027	281.6
810.417	368.2
810.808	300.32
811.198	307.34
811.589	305
811.979	342.45
812.369	269.89
812.759	309.68
813.15	379.9
813.54	316.7
813.93	330.75
814.32	365.85
814.71	342.45
815.1	321.38
815.489	342.45
815.879	297.98
816.269	300.32
816.658	372.88
817.048	307.34
817.438	260.53
817.827	407.98
818.216	314.36
818.606	328.41
818.995	319.04
819.384	347.13
819.773	213.72
820.163	269.89
820.552	351.81
820.941	309.68
821.33	351.81
821.718	337.77
822.107	300.32
822.496	302.66
822.885	305
823.273	321.38
823.662	328.41
824.05	305
824.439	283.94
824.827	330.75
825.216	368.2
825.604	281.6
825.992	326.07
826.38	321.38
826.768	330.75
827.156	354.15
827.544	314.36
827.932	267.55
828.32	279.26
828.708	363.51
829.096	305
829.483	335.43
829.871	358.83
830.259	305
830.646	319.04
831.034	297.98
831.421	314.36
831.808	340.11
832.196	349.47
832.583	328.41
832.97	337.77
833.357	293.3
833.744	279.26
834.131	321.38
834.518	361.17
834.905	309.68
835.292	340.11
835.678	337.77
836.065	344.79
836.452	326.07
836.838	253.51
837.225	340.11
837.611	337.77
837.998	347.13
838.384	295.64
838.77	281.6
839.157	344.79
839.543	267.55
839.929	262.87
840.315	293.3
840.701	286.28
841.087	314.36
841.473	330.75
841.858	328.41
842.244	307.34
842.63	312.02
843.015	307.34
843.401	653.74
843.787	309.68
844.172	361.17
844.557	288.62
844.943	314.36
845.328	319.04
845.713	276.91
846.098	307.34
846.483	328.41
846.868	363.51
847.253	328.41
847.638	354.15
848.023	337.77
848.408	319.04
848.793	295.64
849.177	300.32
849.562	351.81
849.947	290.96
850.331	389.26
850.715	349.47
851.1	422.03
851.484	372.88
851.868	319.04
852.253	302.66
852.637	302.66
853.021	309.68
853.405	314.36
853.789	333.09
854.173	293.3
854.557	321.38
854.94	309.68
855.324	377.56
855.708	316.7
856.091	316.7
856.475	297.98
856.858	365.85
857.242	246.49
857.625	281.6
858.009	323.73
858.392	258.19
858.775	276.91
859.158	363.51
859.541	328.41
859.924	218.4
860.307	312.02
860.69	302.66
861.073	276.91
861.456	300.32
861.838	372.88
862.221	326.07
862.604	283.94
862.986	344.79
863.369	286.28
863.751	300.32
864.133	248.83
864.516	307.34
864.898	258.19
865.28	251.17
865.662	323.73
866.044	354.15
866.426	305
866.808	297.98
867.19	342.45
867.572	283.94
867.954	351.81
868.336	316.7
868.717	342.45
869.099	321.38
869.48	354.15
869.862	237.13
870.243	295.64
870.625	293.3
871.006	293.3
871.387	290.96
871.768	283.94
872.149	330.75
872.53	293.3
872.911	340.11
873.292	361.17
873.673	255.85
874.054	255.85
874.435	368.2
874.815	340.11
875.196	274.57
875.577	330.75
875.957	372.88
876.338	321.38
876.718	293.3
877.098	307.34
877.479	382.24
877.859	356.49
878.239	269.89
878.619	344.79
878.999	305
879.379	365.85
879.759	267.55
880.139	290.96
880.519	300.32
880.898	293.3
881.278	300.32
881.658	307.34
882.037	356.49
882.417	337.77
882.796	279.26
883.176	309.68
883.555	272.23
883.934	309.68
884.313	276.91
884.693	319.04
885.072	309.68
885.451	281.6
885.83	333.09
886.209	321.38
886.587	281.6
886.966	290.96
887.345	351.81
887.724	279.26
888.102	358.83
888.481	370.54
888.859	356.49
889.238	363.51
889.616	272.23
889.994	344.79
890.373	293.3
890.751	319.04
891.129	319.04
891.507	319.04
891.885	337.77
892.263	297.98
892.641	295.64
893.019	300.32
893.396	356.49
893.774	342.45
894.152	323.73
894.529	330.75
894.907	290.96
895.284	333.09
895.662	372.88
896.039	335.43
896.416	237.13
896.794	300.32
897.171	297.98
897.548	286.28
897.925	323.73
898.302	363.51
898.679	323.73
899.056	384.58
899.433	344.79
899.809	274.57
900.186	262.87
900.563	279.26
900.939	342.45
901.316	347.13
901.692	372.88
902.069	290.96
902.445	342.45
902.821	330.75
903.197	314.36
903.574	356.49
903.95	295.64
904.326	344.79
904.702	326.07
905.078	316.7
905.454	356.49
905.829	288.62
906.205	305
906.581	281.6
906.956	319.04
907.332	361.17
907.707	253.51
908.083	335.43
908.458	319.04
908.833	337.77
909.209	326.07
909.584	328.41
909.959	365.85
910.334	248.83
910.709	258.19
911.084	286.28
911.459	267.55
911.834	323.73
912.209	326.07
912.583	274.57
912.958	251.17
913.333	302.66
913.707	372.88
914.082	319.04
914.456	293.3
914.83	290.96
915.205	372.88
915.579	300.32
915.953	319.04
916.327	288.62
916.701	267.55
917.075	290.96
917.449	300.32
917.823	290.96
918.197	384.58
918.571	330.75
918.944	314.36
919.318	323.73
919.692	328.41
920.065	319.04
920.438	293.3
920.812	297.98
921.185	321.38
921.558	323.73
921.932	351.81
922.305	354.15
922.678	328.41
923.051	326.07
923.424	288.62
923.797	340.11
924.17	347.13
924.542	290.96
924.915	342.45
925.288	262.87
925.661	326.07
926.033	267.55
926.406	309.68
926.778	358.83
927.15	267.55
927.523	295.64
927.895	321.38
928.267	305
928.639	260.53
929.011	316.7
929.383	293.3
929.755	363.51
930.127	368.2
930.499	342.45
930.871	305
931.242	218.4
931.614	253.51
931.986	265.21
932.357	354.15
932.729	307.34
933.1	307.34
933.471	300.32
933.843	288.62
934.214	375.22
934.585	356.49
934.956	361.17
935.327	328.41
935.698	323.73
936.069	300.32
936.44	281.6
936.811	330.75
937.182	286.28
937.552	288.62
937.923	272.23
938.293	323.73
938.664	335.43
939.034	368.2
939.405	309.68
939.775	314.36
940.145	354.15
940.516	333.09
940.886	297.98
941.256	314.36
941.626	335.43
941.996	309.68
942.366	354.15
942.735	337.77
943.105	312.02
943.475	319.04
943.845	286.28
944.214	323.73
944.584	281.6
944.953	307.34
945.323	333.09
945.692	354.15
946.061	302.66
946.43	272.23
946.8	393.94
947.169	358.83
947.538	295.64
947.907	321.38
948.276	305
948.645	333.09
949.013	265.21
949.382	312.02
949.751	293.3
950.119	335.43
950.488	293.3
950.857	297.98
951.225	283.94
951.593	307.34
951.962	314.36
952.33	288.62
952.698	356.49
953.066	330.75
953.434	300.32
953.802	382.24
954.17	333.09
954.538	276.91
954.906	288.62
955.274	328.41
955.642	295.64
956.009	274.57
956.377	297.98
956.744	262.87
957.112	272.23
957.479	307.34
957.847	307.34
958.214	342.45
958.581	328.41
958.948	305
959.315	314.36
959.683	267.55
960.05	349.47
960.416	314.36
960.783	344.79
961.15	326.07
961.517	307.34
961.884	307.34
962.25	297.98
962.617	342.45
962.983	337.77
963.35	305
963.716	328.41
964.082	295.64
964.449	382.24
964.815	333.09
965.181	349.47
965.547	347.13
965.913	279.26
966.279	276.91
966.645	307.34
967.011	368.2
967.377	281.6
967.742	314.36
968.108	297.98
968.474	328.41
968.839	312.02
969.205	314.36
969.57	246.49
969.935	328.41
970.301	290.96
970.666	312.02
971.031	326.07
971.396	340.11
971.761	333.09
972.126	351.81
972.491	330.75
972.856	305
973.221	335.43
973.586	335.43
973.95	340.11
974.315	279.26
974.679	297.98
975.044	361.17
975.408	267.55
975.773	321.38
976.137	305
976.501	309.68
976.866	316.7
977.23	312.02
977.594	255.85
977.958	302.66
978.322	351.81
978.686	337.77
979.049	297.98
979.413	321.38
979.777	251.17
980.141	293.3
980.504	281.6
980.868	328.41
981.231	302.66
981.595	333.09
981.958	316.7
982.321	309.68
982.684	290.96
983.048	307.34
983.411	330.75
983.774	333.09
984.137	337.77
984.5	314.36
984.862	305
985.225	335.43
985.588	274.57
985.951	333.09
986.313	297.98
986.676	321.38
987.038	267.55
987.401	297.98
987.763	297.98
988.125	305
988.488	283.94
988.85	232.44
989.212	290.96
989.574	314.36
989.936	326.07
990.298	358.83
990.66	276.91
991.022	300.32
991.383	349.47
991.745	305
992.107	232.44
992.468	260.53
992.83	290.96
993.191	354.15
993.553	297.98
993.914	272.23
994.275	309.68
994.637	319.04
994.998	262.87
995.359	281.6
995.72	305
996.081	272.23
996.442	295.64
996.803	309.68
997.163	398.62
997.524	297.98
997.885	319.04
998.245	312.02
998.606	337.77
998.966	279.26
999.327	300.32
999.687	309.68
1000.047	288.62
1000.408	323.73
1000.768	342.45
1001.128	309.68
1001.488	290.96
1001.848	319.04
1002.208	335.43
1002.568	288.62
1002.927	281.6
1003.287	337.77
1003.647	342.45
1004.007	281.6
1004.366	323.73
1004.726	286.28
1005.085	361.17
1005.444	330.75
1005.804	319.04
1006.163	269.89
1006.522	288.62
1006.881	307.34
1007.24	293.3
1007.599	253.51
1007.958	384.58
1008.317	295.64
1008.676	276.91
1009.035	391.6
1009.393	305
1009.752	323.73
1010.111	335.43
1010.469	279.26
1010.828	309.68
1011.186	288.62
1011.544	274.57
1011.903	319.04
1012.261	276.91
1012.619	290.96
1012.977	295.64
1013.335	307.34
1013.693	407.98
1014.051	340.11
1014.409	276.91
1014.767	269.89
1015.124	342.45
1015.482	344.79
1015.84	269.89
1016.197	344.79
1016.555	333.09
1016.912	316.7
1017.269	272.23
1017.627	356.49
1017.984	375.22
1018.341	368.2
1018.698	286.28
1019.055	319.04
1019.412	305
1019.769	244.15
1020.126	349.47
1020.483	283.94
1020.84	305
1021.196	302.66
1021.553	286.28
1021.909	335.43
1022.266	321.38
1022.622	340.11
1022.979	335.43
1023.335	330.75
1023.691	309.68
1024.047	246.49
1024.404	340.11
1024.76	290.96
1025.116	316.7
1025.472	342.45
1025.827	297.98
1026.183	358.83
1026.539	239.47
1026.895	309.68
1027.25	307.34
1027.606	295.64
1027.961	330.75
1028.317	307.34
1028.672	286.28
1029.028	337.77
1029.383	363.51
1029.738	293.3
1030.093	365.85
1030.448	297.98
1030.803	347.13
1031.158	365.85
1031.513	377.56
1031.868	351.81
1032.223	281.6
1032.577	300.32
1032.932	379.9
1033.287	307.34
1033.641	307.34
1033.996	323.73
1034.35	319.04
1034.704	316.7
1035.059	276.91
1035.413	309.68
1035.767	309.68
1036.121	309.68
