Data from Al_FLMS009871__1006__16-22-54-517.txt Node

Date: Fri Mar 08 16:22:54 CST 2024
User: pe5414po
Spectrometer: FLMS00987
Trigger mode: 0
Integration Time (sec): 1.000000E-1
Scans to average: 1
Electric dark correction enabled: true
Nonlinearity correction enabled: false
Boxcar width: 0
XAxis mode: Wavelengths
Number of Pixels in Spectrum: 2048
>>>>>Begin Spectral Data<<<<<
188.938	-118.93
189.409	-118.93
189.879	-118.93
190.349	-116.59
190.819	-67.44
191.29	-100.2
191.76	-100.2
192.23	-139.99
192.7	-93.18
193.17	-55.73
193.64	-81.48
194.109	-81.48
194.579	-34.67
195.049	2.78
195.519	49.59
195.988	40.23
196.458	68.31
196.927	105.76
197.397	161.94
197.866	138.53
198.336	119.81
198.805	110.44
199.274	147.89
199.744	175.98
200.213	220.45
200.682	239.17
201.151	257.9
201.62	342.16
202.089	332.79
202.558	342.16
203.027	412.37
203.495	300.03
203.964	393.65
204.433	393.65
204.902	374.92
205.37	377.27
205.839	395.99
206.307	414.71
206.776	424.08
207.244	377.27
207.712	480.25
208.181	513.02
208.649	447.48
209.117	475.57
209.585	480.25
210.053	555.15
210.521	562.17
210.989	618.34
211.457	637.06
211.925	714.3
212.393	714.3
212.861	789.2
213.328	672.17
213.796	616
214.264	541.1
214.731	489.61
215.199	555.15
215.666	487.27
216.133	562.17
216.601	777.5
217.068	864.1
217.535	845.37
218.003	1107.51
218.47	1299.44
218.937	1112.19
219.404	915.59
219.871	868.78
220.338	943.67
220.805	903.89
221.271	917.93
221.738	777.5
222.205	749.41
222.671	702.6
223.138	824.31
223.605	1065.38
224.071	999.85
224.538	765.79
225.004	672.17
225.47	831.33
225.937	1016.23
226.403	1030.27
226.869	768.13
227.335	618.34
227.801	505.99
228.267	505.99
228.733	522.38
229.199	484.93
229.665	456.84
230.131	536.42
230.597	489.61
231.062	505.99
231.528	594.93
231.994	520.04
232.459	484.93
232.925	433.44
233.39	442.8
233.856	454.5
234.321	417.05
234.786	669.83
235.252	948.36
235.717	1416.46
236.182	2041.39
236.647	2270.76
237.112	1699.67
237.577	1112.19
238.042	676.85
238.507	592.59
238.972	594.93
239.436	576.21
239.901	566.85
240.366	559.83
240.83	456.84
241.295	491.95
241.76	435.78
242.224	435.78
242.688	510.68
243.153	538.76
243.617	379.61
244.081	477.91
244.545	445.14
245.01	463.86
245.474	482.59
245.938	454.5
246.402	559.83
246.866	763.45
247.33	623.02
247.793	623.02
248.257	557.49
248.721	548.12
249.185	543.44
249.648	520.04
250.112	613.66
250.575	515.36
251.039	590.25
251.502	498.97
251.965	505.99
252.429	580.89
252.892	564.51
253.355	583.23
253.818	545.78
254.281	513.02
254.744	601.96
255.207	733.03
255.67	887.5
256.133	1238.58
256.596	1816.69
257.059	1912.66
257.522	1631.79
257.984	1086.45
258.447	929.63
258.909	957.72
259.372	999.85
259.834	901.55
260.297	826.65
260.759	826.65
261.221	896.86
261.684	988.14
262.146	1538.17
262.608	1884.57
263.07	1659.88
263.532	1217.52
263.994	852.39
264.456	878.14
264.918	892.18
265.38	1004.53
265.842	864.1
266.303	733.03
266.765	524.72
267.227	494.29
267.688	470.89
268.15	517.7
268.611	498.97
269.072	545.78
269.534	538.76
269.995	545.78
270.456	564.51
270.918	569.19
271.379	541.1
271.84	491.95
272.301	489.61
272.762	522.38
273.223	482.59
273.684	552.81
274.144	637.06
274.605	644.09
275.066	627.7
275.527	711.96
275.987	718.98
276.448	704.94
276.908	777.5
277.369	924.95
277.829	1416.46
278.289	2799.72
278.75	5100.47
279.21	6827.78
279.67	6979.92
280.13	5198.77
280.59	3607.2
281.05	2809.08
281.51	2544.6
281.97	1662.22
282.43	775.16
282.89	658.13
283.35	592.59
283.809	571.53
284.269	800.9
284.729	964.74
285.188	948.36
285.648	770.48
286.107	555.15
286.567	590.25
287.026	573.87
287.485	601.96
287.944	555.15
288.404	536.42
288.863	620.68
289.322	592.59
289.781	616
290.24	587.91
290.699	573.87
291.158	644.09
291.616	662.81
292.075	679.19
292.534	838.35
292.992	1009.21
293.451	903.89
293.91	885.16
294.368	735.37
294.827	730.69
295.285	608.98
295.743	454.5
296.202	505.99
296.66	431.1
297.118	498.97
297.576	489.61
298.034	477.91
298.492	395.99
298.95	321.09
299.408	433.44
299.866	438.12
300.324	391.31
300.781	452.16
301.239	461.52
301.697	405.35
302.154	435.78
302.612	421.74
303.069	480.25
303.527	555.15
303.984	527.06
304.441	562.17
304.899	653.45
305.356	690.9
305.813	789.2
306.27	826.65
306.727	1088.79
307.184	1652.86
307.641	2799.72
308.098	4187.66
308.555	5161.32
309.012	5311.11
309.468	4644.06
309.925	2432.26
310.382	953.04
310.838	583.23
311.295	522.38
311.751	531.74
312.208	482.59
312.664	468.55
313.12	470.89
313.577	501.31
314.033	440.46
314.489	505.99
314.945	513.02
315.401	484.93
315.857	459.18
316.313	475.57
316.769	475.57
317.225	351.52
317.681	374.92
318.136	405.35
318.592	426.42
319.048	403.01
319.503	403.01
319.959	419.39
320.414	400.67
320.869	421.74
321.325	424.08
321.78	424.08
322.235	417.05
322.691	417.05
323.146	456.84
323.601	452.16
324.056	601.96
324.511	796.22
324.966	805.58
325.421	707.28
325.875	583.23
326.33	433.44
326.785	639.41
327.24	718.98
327.694	838.35
328.149	700.26
328.603	480.25
329.058	414.71
329.512	412.37
329.966	421.74
330.421	445.14
330.875	414.71
331.329	428.76
331.783	400.67
332.237	475.57
332.691	473.23
333.145	541.1
333.599	566.85
334.053	557.49
334.507	548.12
334.96	599.62
335.414	548.12
335.868	646.43
336.321	683.88
336.775	716.64
337.228	681.53
337.682	594.93
338.135	513.02
338.588	494.29
339.042	445.14
339.495	445.14
339.948	374.92
340.401	407.69
340.854	384.29
341.307	426.42
341.76	403.01
342.213	428.76
342.666	403.01
343.119	405.35
343.571	515.36
344.024	498.97
344.477	505.99
344.929	419.39
345.382	433.44
345.834	503.65
346.287	433.44
346.739	480.25
347.191	426.42
347.644	391.31
348.096	468.55
348.548	461.52
349	358.54
349.452	431.1
349.904	501.31
350.356	442.8
350.808	438.12
351.26	456.84
351.711	438.12
352.163	454.5
352.615	559.83
353.066	580.89
353.518	454.5
353.969	477.91
354.421	468.55
354.872	510.68
355.324	470.89
355.775	576.21
356.226	597.28
356.677	704.94
357.128	964.74
357.579	1336.88
358.03	2443.96
358.481	4143.19
358.932	4417.03
359.383	3279.53
359.834	2617.16
360.285	2624.18
360.735	2336.29
361.186	1910.32
361.637	1383.7
362.087	1002.19
362.538	601.96
362.988	482.59
363.438	508.34
363.889	520.04
364.339	536.42
364.789	648.77
365.239	515.36
365.689	550.46
366.139	468.55
366.589	414.71
367.039	419.39
367.489	424.08
367.939	431.1
368.389	456.84
368.839	620.68
369.288	543.44
369.738	555.15
370.187	718.98
370.637	847.71
371.086	784.52
371.536	765.79
371.985	821.97
372.434	674.51
372.884	534.08
373.333	552.81
373.782	548.12
374.231	548.12
374.68	583.23
375.129	503.65
375.578	494.29
376.027	459.18
376.475	449.82
376.924	470.89
377.373	393.65
377.822	449.82
378.27	386.63
378.719	424.08
379.167	508.34
379.616	447.48
380.064	503.65
380.512	494.29
380.961	531.74
381.409	555.15
381.857	524.72
382.305	585.57
382.753	716.64
383.201	800.9
383.649	821.97
384.097	784.52
384.545	777.5
384.992	552.81
385.44	580.89
385.888	571.53
386.335	613.66
386.783	578.55
387.231	555.15
387.678	573.87
388.125	545.78
388.573	543.44
389.02	534.08
389.467	484.93
389.914	531.74
390.362	503.65
390.809	555.15
391.256	503.65
391.703	576.21
392.15	534.08
392.596	632.38
393.043	793.88
393.49	1189.43
393.937	2153.73
394.383	3808.49
394.83	4461.5
395.276	3740.61
395.723	3429.32
396.169	5184.73
396.616	5659.85
397.062	3361.45
397.508	1400.08
397.954	700.26
398.401	524.72
398.847	515.36
399.293	578.55
399.739	594.93
400.185	557.49
400.631	559.83
401.076	498.97
401.522	496.63
401.968	505.99
402.414	515.36
402.859	505.99
403.305	592.59
403.75	709.62
404.196	733.03
404.641	634.72
405.086	513.02
405.532	597.28
405.977	693.24
406.422	676.85
406.867	702.6
407.312	627.7
407.757	599.62
408.202	508.34
408.647	550.46
409.092	592.59
409.537	513.02
409.982	569.19
410.426	592.59
410.871	576.21
411.316	550.46
411.76	557.49
412.205	571.53
412.649	564.51
413.093	562.17
413.538	641.75
413.982	646.43
414.426	709.62
414.87	667.49
415.314	821.97
415.758	847.71
416.202	821.97
416.646	791.54
417.09	770.48
417.534	796.22
417.978	786.86
418.421	632.38
418.865	543.44
419.309	559.83
419.752	564.51
420.196	498.97
420.639	477.91
421.083	489.61
421.526	435.78
421.969	550.46
422.412	494.29
422.856	541.1
423.299	541.1
423.742	571.53
424.185	594.93
424.628	510.68
425.071	529.4
425.513	459.18
425.956	484.93
426.399	496.63
426.842	463.86
427.284	454.5
427.727	410.03
428.169	473.23
428.612	508.34
429.054	435.78
429.497	501.31
429.939	440.46
430.381	398.33
430.823	386.63
431.265	435.78
431.707	426.42
432.149	475.57
432.591	468.55
433.033	395.99
433.475	388.97
433.917	505.99
434.359	496.63
434.8	503.65
435.242	503.65
435.684	534.08
436.125	513.02
436.567	447.48
437.008	496.63
437.449	417.05
437.891	414.71
438.332	482.59
438.773	459.18
439.214	424.08
439.656	505.99
440.097	470.89
440.538	482.59
440.978	513.02
441.419	517.7
441.86	475.57
442.301	531.74
442.742	426.42
443.182	505.99
443.623	527.06
444.063	562.17
444.504	552.81
444.944	632.38
445.385	648.77
445.825	723.66
446.265	723.66
446.706	910.91
447.146	1011.55
447.586	1252.63
448.026	1599.02
448.466	1655.2
448.906	1491.36
449.346	1102.83
449.786	946.02
450.225	847.71
450.665	931.97
451.105	1051.34
451.544	1460.93
451.984	1538.17
452.424	1409.44
452.863	1577.96
453.302	1907.98
453.742	1964.15
454.181	1360.29
454.62	894.52
455.059	655.79
455.499	524.72
455.938	604.3
456.377	452.16
456.816	449.82
457.254	522.38
457.693	503.65
458.132	529.4
458.571	419.39
459.01	442.8
459.448	398.33
459.887	445.14
460.325	487.27
460.764	496.63
461.202	428.76
461.641	491.95
462.079	398.33
462.517	419.39
462.955	466.21
463.393	524.72
463.832	529.4
464.27	552.81
464.708	594.93
465.145	487.27
465.583	601.96
466.021	646.43
466.459	733.03
466.897	1011.55
467.334	915.59
467.772	587.91
468.209	527.06
468.647	541.1
469.084	480.25
469.522	468.55
469.959	468.55
470.396	438.12
470.833	552.81
471.271	475.57
471.708	475.57
472.145	461.52
472.582	431.1
473.019	494.29
473.456	487.27
473.892	426.42
474.329	419.39
474.766	335.14
475.202	365.56
475.639	447.48
476.076	468.55
476.512	496.63
476.949	491.95
477.385	484.93
477.821	449.82
478.258	433.44
478.694	494.29
479.13	534.08
479.566	407.69
480.002	419.39
480.438	414.71
480.874	491.95
481.31	452.16
481.746	487.27
482.181	454.5
482.617	377.27
483.053	412.37
483.488	428.76
483.924	508.34
484.36	463.86
484.795	569.19
485.23	536.42
485.666	566.85
486.101	620.68
486.536	627.7
486.971	660.47
487.407	658.13
487.842	594.93
488.277	564.51
488.712	489.61
489.146	482.59
489.581	498.97
490.016	505.99
490.451	405.35
490.885	410.03
491.32	431.1
491.755	433.44
492.189	461.52
492.624	461.52
493.058	393.65
493.492	461.52
493.927	428.76
494.361	517.7
494.795	424.08
495.229	433.44
495.663	428.76
496.097	459.18
496.531	452.16
496.965	508.34
497.399	400.67
497.833	407.69
498.266	452.16
498.7	527.06
499.134	536.42
499.567	580.89
500.001	641.75
500.434	756.43
500.868	957.72
501.301	929.63
501.734	728.35
502.168	655.79
502.601	552.81
503.034	545.78
503.467	513.02
503.9	534.08
504.333	452.16
504.766	503.65
505.199	559.83
505.632	468.55
506.064	470.89
506.497	541.1
506.93	463.86
507.362	482.59
507.795	470.89
508.227	550.46
508.66	454.5
509.092	440.46
509.524	463.86
509.956	494.29
510.389	412.37
510.821	510.68
511.253	555.15
511.685	468.55
512.117	562.17
512.549	475.57
512.981	529.4
513.412	555.15
513.844	555.15
514.276	480.25
514.707	473.23
515.139	534.08
515.571	578.55
516.002	564.51
516.433	597.28
516.865	632.38
517.296	606.64
517.727	683.88
518.159	639.41
518.59	740.05
519.021	674.51
519.452	646.43
519.883	573.87
520.314	611.32
520.744	559.83
521.175	545.78
521.606	597.28
522.037	606.64
522.467	597.28
522.898	646.43
523.328	541.1
523.759	548.12
524.189	548.12
524.62	599.62
525.05	531.74
525.48	548.12
525.91	557.49
526.341	599.62
526.771	606.64
527.201	557.49
527.631	697.92
528.061	688.56
528.49	807.92
528.92	927.29
529.35	1189.43
529.78	2678.01
530.209	12943.6
530.639	30907.21
531.068	47398.63
531.498	63014.68
531.927	63014.68
532.357	63014.68
532.786	63014.68
533.215	63014.68
533.644	32849.86
534.074	11904.4
534.503	4850.03
534.932	2333.95
535.361	1439.87
535.79	960.06
536.218	768.13
536.647	676.85
537.076	616
537.505	618.34
537.933	538.76
538.362	578.55
538.79	494.29
539.219	459.18
539.647	456.84
540.076	459.18
540.504	435.78
540.932	463.86
541.36	456.84
541.788	505.99
542.217	414.71
542.645	426.42
543.073	412.37
543.5	417.05
543.928	311.73
544.356	428.76
544.784	384.29
545.211	503.65
545.639	459.18
546.067	438.12
546.494	393.65
546.922	442.8
547.349	454.5
547.776	452.16
548.204	379.61
548.631	372.58
549.058	442.8
549.485	426.42
549.912	410.03
550.339	477.91
550.766	454.5
551.193	438.12
551.62	351.52
552.047	403.01
552.474	414.71
552.9	398.33
553.327	379.61
553.754	407.69
554.18	372.58
554.607	419.39
555.033	417.05
555.459	370.24
555.886	417.05
556.312	393.65
556.738	393.65
557.164	393.65
557.59	407.69
558.016	468.55
558.442	480.25
558.868	508.34
559.294	573.87
559.72	599.62
560.145	704.94
560.571	667.49
560.997	578.55
561.422	447.48
561.848	428.76
562.273	424.08
562.699	438.12
563.124	426.42
563.549	477.91
563.974	384.29
564.4	367.9
564.825	403.01
565.25	431.1
565.675	372.58
566.1	438.12
566.525	381.95
566.95	438.12
567.374	498.97
567.799	524.72
568.224	651.11
568.648	693.24
569.073	693.24
569.497	901.55
569.922	1126.24
570.346	1615.41
570.771	1346.25
571.195	934.31
571.619	625.36
572.043	751.75
572.467	768.13
572.891	1020.91
573.315	931.97
573.739	669.83
574.163	489.61
574.587	433.44
575.011	381.95
575.435	445.14
575.858	463.86
576.282	395.99
576.705	372.58
577.129	388.97
577.552	384.29
577.976	346.84
578.399	377.27
578.822	379.61
579.245	384.29
579.669	372.58
580.092	381.95
580.515	297.69
580.938	393.65
581.361	353.86
581.784	388.97
582.206	370.24
582.629	379.61
583.052	363.22
583.474	318.75
583.897	388.97
584.32	403.01
584.742	407.69
585.165	370.24
585.587	381.95
586.009	403.01
586.431	377.27
586.854	393.65
587.276	388.97
587.698	323.43
588.12	363.22
588.542	424.08
588.964	344.5
589.386	468.55
589.807	398.33
590.229	417.05
590.651	395.99
591.073	374.92
591.494	400.67
591.916	346.84
592.337	403.01
592.759	363.22
593.18	349.18
593.601	463.86
594.022	438.12
594.444	452.16
594.865	388.97
595.286	419.39
595.707	417.05
596.128	388.97
596.549	372.58
596.97	473.23
597.39	360.88
597.811	370.24
598.232	318.75
598.652	332.79
599.073	388.97
599.494	374.92
599.914	365.56
600.334	297.69
600.755	459.18
601.175	384.29
601.595	386.63
602.015	377.27
602.436	309.39
602.856	466.21
603.276	321.09
603.696	386.63
604.115	321.09
604.535	395.99
604.955	351.52
605.375	311.73
605.794	386.63
606.214	321.09
606.634	330.45
607.053	346.84
607.473	475.57
607.892	395.99
608.311	395.99
608.731	395.99
609.15	428.76
609.569	346.84
609.988	386.63
610.407	377.27
610.826	372.58
611.245	384.29
611.664	367.9
612.083	372.58
612.501	330.45
612.92	374.92
613.339	419.39
613.757	367.9
614.176	351.52
614.594	395.99
615.013	405.35
615.431	360.88
615.85	405.35
616.268	337.48
616.686	410.03
617.104	367.9
617.522	412.37
617.94	410.03
618.358	381.95
618.776	496.63
619.194	358.54
619.612	372.58
620.03	351.52
620.447	459.18
620.865	424.08
621.282	414.71
621.7	356.2
622.117	412.37
622.535	433.44
622.952	536.42
623.369	662.81
623.787	784.52
624.204	826.65
624.621	882.82
625.038	957.72
625.455	917.93
625.872	683.88
626.289	517.7
626.706	517.7
627.123	424.08
627.539	438.12
627.956	395.99
628.373	344.5
628.789	330.45
629.206	381.95
629.622	412.37
630.038	335.14
630.455	276.62
630.871	395.99
631.287	346.84
631.703	358.54
632.12	328.11
632.536	332.79
632.952	372.58
633.368	414.71
633.783	363.22
634.199	419.39
634.615	281.3
635.031	374.92
635.446	349.18
635.862	374.92
636.277	328.11
636.693	316.41
637.108	358.54
637.524	353.86
637.939	325.77
638.354	410.03
638.77	342.16
639.185	410.03
639.6	431.1
640.015	365.56
640.43	370.24
640.845	351.52
641.259	384.29
641.674	325.77
642.089	410.03
642.504	290.67
642.918	365.56
643.333	349.18
643.747	328.11
644.162	370.24
644.576	325.77
644.991	321.09
645.405	339.82
645.819	353.86
646.233	365.56
646.647	323.43
647.061	358.54
647.475	344.5
647.889	365.56
648.303	349.18
648.717	314.07
649.131	400.67
649.545	346.84
649.958	335.14
650.372	367.9
650.785	328.11
651.199	271.94
651.612	358.54
652.026	351.52
652.439	391.31
652.852	330.45
653.266	325.77
653.679	316.41
654.092	328.11
654.505	407.69
654.918	386.63
655.331	412.37
655.744	566.85
656.156	597.28
656.569	838.35
656.982	953.04
657.394	873.46
657.807	665.15
658.22	557.49
658.632	440.46
659.044	365.56
659.457	447.48
659.869	349.18
660.281	379.61
660.693	367.9
661.106	363.22
661.518	360.88
661.93	330.45
662.342	328.11
662.754	330.45
663.165	374.92
663.577	337.48
663.989	344.5
664.401	321.09
664.812	339.82
665.224	410.03
665.635	344.5
666.047	328.11
666.458	353.86
666.869	288.32
667.281	328.11
667.692	328.11
668.103	274.28
668.514	346.84
668.925	328.11
669.336	372.58
669.747	307.05
670.158	307.05
670.569	302.37
670.979	321.09
671.39	342.16
671.801	295.35
672.211	328.11
672.622	358.54
673.032	400.67
673.443	328.11
673.853	225.13
674.263	302.37
674.674	297.69
675.084	337.48
675.494	405.35
675.904	349.18
676.314	367.9
676.724	323.43
677.134	353.86
677.544	330.45
677.953	339.82
678.363	297.69
678.773	360.88
679.182	304.71
679.592	353.86
680.001	363.22
680.411	300.03
680.82	332.79
681.23	403.01
681.639	370.24
682.048	356.2
682.457	339.82
682.866	346.84
683.275	391.31
683.684	370.24
684.093	405.35
684.502	339.82
684.911	344.5
685.32	328.11
685.728	314.07
686.137	269.6
686.546	330.45
686.954	342.16
687.363	330.45
687.771	417.05
688.179	323.43
688.588	311.73
688.996	309.39
689.404	344.5
689.812	374.92
690.22	332.79
690.628	278.96
691.036	278.96
691.444	346.84
691.852	391.31
692.26	314.07
692.667	332.79
693.075	281.3
693.483	325.77
693.89	384.29
694.298	281.3
694.705	360.88
695.112	405.35
695.52	253.22
695.927	283.64
696.334	269.6
696.741	304.71
697.148	377.27
697.555	377.27
697.962	278.96
698.369	318.75
698.776	281.3
699.183	250.88
699.59	264.92
699.996	295.35
700.403	325.77
700.81	302.37
701.216	318.75
701.623	335.14
702.029	417.05
702.435	337.48
702.842	372.58
703.248	349.18
703.654	403.01
704.06	403.01
704.466	508.34
704.872	576.21
705.278	513.02
705.684	503.65
706.09	517.7
706.496	475.57
706.901	459.18
707.307	356.2
707.712	290.67
708.118	311.73
708.523	309.39
708.929	353.86
709.334	321.09
709.74	283.64
710.145	316.41
710.55	293.01
710.955	276.62
711.36	321.09
711.765	321.09
712.17	351.52
712.575	358.54
712.98	782.18
713.385	330.45
713.789	325.77
714.194	360.88
714.599	372.58
715.003	332.79
715.408	311.73
715.812	360.88
716.217	337.48
716.621	295.35
717.025	290.67
717.429	311.73
717.833	304.71
718.238	302.37
718.642	328.11
719.046	274.28
719.449	255.56
719.853	304.71
720.257	363.22
720.661	311.73
721.065	302.37
721.468	302.37
721.872	332.79
722.275	351.52
722.679	269.6
723.082	330.45
723.485	372.58
723.889	309.39
724.292	304.71
724.695	365.56
725.098	335.14
725.501	295.35
725.904	316.41
726.307	300.03
726.71	283.64
727.113	309.39
727.516	262.58
727.918	332.79
728.321	255.56
728.724	363.22
729.126	269.6
729.529	358.54
729.931	304.71
730.333	344.5
730.736	323.43
731.138	257.9
731.54	335.14
731.942	257.9
732.344	356.2
732.746	229.81
733.148	295.35
733.55	304.71
733.952	332.79
734.354	246.2
734.756	295.35
735.157	323.43
735.559	314.07
735.96	314.07
736.362	414.71
736.763	295.35
737.165	328.11
737.566	323.43
737.967	281.3
738.368	311.73
738.77	328.11
739.171	293.01
739.572	332.79
739.973	302.37
740.374	349.18
740.774	274.28
741.175	335.14
741.576	309.39
741.977	330.45
742.377	344.5
742.778	358.54
743.178	332.79
743.579	358.54
743.979	283.64
744.379	314.07
744.78	358.54
745.18	370.24
745.58	321.09
745.98	335.14
746.38	295.35
746.78	288.32
747.18	328.11
747.58	344.5
747.98	337.48
748.38	314.07
748.779	403.01
749.179	349.18
749.578	332.79
749.978	278.96
750.377	337.48
750.777	293.01
751.176	311.73
751.575	346.84
751.975	201.72
752.374	269.6
752.773	321.09
753.172	330.45
753.571	264.92
753.97	314.07
754.369	257.9
754.768	344.5
755.166	311.73
755.565	288.32
755.964	295.35
756.362	300.03
756.761	314.07
757.159	353.86
757.558	295.35
757.956	300.03
758.354	255.56
758.753	332.79
759.151	300.03
759.549	285.98
759.947	269.6
760.345	293.01
760.743	323.43
761.141	325.77
761.539	290.67
761.936	295.35
762.334	316.41
762.732	304.71
763.129	323.43
763.527	288.32
763.924	295.35
764.322	356.2
764.719	262.58
765.117	290.67
765.514	318.75
765.911	262.58
766.308	260.24
766.705	316.41
767.102	325.77
767.499	264.92
767.896	330.45
768.293	314.07
768.69	318.75
769.086	281.3
769.483	330.45
769.88	311.73
770.276	290.67
770.673	302.37
771.069	330.45
771.466	335.14
771.862	293.01
772.258	330.45
772.654	264.92
773.05	344.5
773.447	314.07
773.843	316.41
774.239	321.09
774.634	349.18
775.03	332.79
775.426	295.35
775.822	276.62
776.218	381.95
776.613	353.86
777.009	365.56
777.404	393.65
777.8	346.84
778.195	360.88
778.59	318.75
778.986	321.09
779.381	293.01
779.776	264.92
780.171	304.71
780.566	236.83
780.961	255.56
781.356	269.6
781.751	325.77
782.146	304.71
782.54	353.86
782.935	316.41
783.33	285.98
783.724	290.67
784.119	276.62
784.513	332.79
784.908	365.56
785.302	290.67
785.696	260.24
786.09	360.88
786.485	276.62
786.879	232.15
787.273	302.37
787.667	346.84
788.061	332.79
788.454	337.48
788.848	314.07
789.242	349.18
789.636	311.73
790.029	365.56
790.423	241.51
790.816	314.07
791.21	358.54
791.603	255.56
791.997	274.28
792.39	323.43
792.783	318.75
793.176	293.01
793.569	255.56
793.962	372.58
794.355	281.3
794.748	260.24
795.141	297.69
795.534	274.28
795.927	267.26
796.319	325.77
796.712	318.75
797.105	300.03
797.497	269.6
797.89	276.62
798.282	281.3
798.674	269.6
799.067	250.88
799.459	314.07
799.851	328.11
800.243	260.24
800.635	276.62
801.027	323.43
801.419	309.39
801.811	321.09
802.203	332.79
802.594	304.71
802.986	318.75
803.378	316.41
803.769	395.99
804.161	262.58
804.552	271.94
804.944	293.01
805.335	281.3
805.726	307.05
806.118	358.54
806.509	278.96
806.9	349.18
807.291	321.09
807.682	374.92
808.073	325.77
808.464	276.62
808.855	283.64
809.245	311.73
809.636	241.51
810.027	323.43
810.417	314.07
810.808	330.45
811.198	297.69
811.589	281.3
811.979	300.03
812.369	332.79
812.759	283.64
813.15	229.81
813.54	255.56
813.93	274.28
814.32	332.79
814.71	330.45
815.1	285.98
815.489	325.77
815.879	321.09
816.269	285.98
816.658	335.14
817.048	314.07
817.438	281.3
817.827	325.77
818.216	300.03
818.606	323.43
818.995	267.26
819.384	316.41
819.773	215.77
820.163	269.6
820.552	300.03
820.941	337.48
821.33	309.39
821.718	260.24
822.107	276.62
822.496	321.09
822.885	339.82
823.273	293.01
823.662	267.26
824.05	300.03
824.439	283.64
824.827	311.73
825.216	321.09
825.604	248.54
825.992	316.41
826.38	330.45
826.768	241.51
827.156	269.6
827.544	328.11
827.932	285.98
828.32	278.96
828.708	300.03
829.096	257.9
829.483	264.92
829.871	285.98
830.259	285.98
830.646	307.05
831.034	328.11
831.421	288.32
831.808	304.71
832.196	257.9
832.583	262.58
832.97	302.37
833.357	267.26
833.744	290.67
834.131	314.07
834.518	344.5
834.905	349.18
835.292	318.75
835.678	321.09
836.065	300.03
836.452	328.11
836.838	302.37
837.225	321.09
837.611	283.64
837.998	250.88
838.384	260.24
838.77	283.64
839.157	297.69
839.543	335.14
839.929	215.77
840.315	337.48
840.701	307.05
841.087	285.98
841.473	314.07
841.858	330.45
842.244	274.28
842.63	304.71
843.015	262.58
843.401	599.62
843.787	363.22
844.172	297.69
844.557	309.39
844.943	349.18
845.328	274.28
845.713	328.11
846.098	300.03
846.483	260.24
846.868	278.96
847.253	349.18
847.638	349.18
848.023	293.01
848.408	328.11
848.793	342.16
849.177	255.56
849.562	278.96
849.947	269.6
850.331	288.32
850.715	342.16
851.1	274.28
851.484	300.03
851.868	318.75
852.253	309.39
852.637	276.62
853.021	349.18
853.405	288.32
853.789	325.77
854.173	311.73
854.557	346.84
854.94	335.14
855.324	370.24
855.708	300.03
856.091	288.32
856.475	307.05
856.858	309.39
857.242	267.26
857.625	349.18
858.009	285.98
858.392	215.77
858.775	316.41
859.158	243.85
859.541	288.32
859.924	201.72
860.307	194.7
860.69	243.85
861.073	241.51
861.456	309.39
861.838	314.07
862.221	225.13
862.604	311.73
862.986	276.62
863.369	321.09
863.751	276.62
864.133	321.09
864.516	208.75
864.898	365.56
865.28	321.09
865.662	271.94
866.044	307.05
866.426	269.6
866.808	307.05
867.19	316.41
867.572	297.69
867.954	295.35
868.336	262.58
868.717	285.98
869.099	267.26
869.48	243.85
869.862	267.26
870.243	288.32
870.625	257.9
871.006	318.75
871.387	321.09
871.768	309.39
872.149	342.16
872.53	332.79
872.911	330.45
873.292	241.51
873.673	283.64
874.054	243.85
874.435	295.35
874.815	325.77
875.196	257.9
875.577	246.2
875.957	283.64
876.338	262.58
876.718	248.54
877.098	318.75
877.479	274.28
877.859	311.73
878.239	283.64
878.619	271.94
878.999	288.32
879.379	325.77
879.759	307.05
880.139	278.96
880.519	335.14
880.898	276.62
881.278	253.22
881.658	290.67
882.037	370.24
882.417	384.29
882.796	328.11
883.176	250.88
883.555	232.15
883.934	314.07
884.313	325.77
884.693	288.32
885.072	304.71
885.451	328.11
885.83	262.58
886.209	332.79
886.587	337.48
886.966	318.75
887.345	288.32
887.724	344.5
888.102	295.35
888.481	339.82
888.859	339.82
889.238	281.3
889.616	314.07
889.994	285.98
890.373	339.82
890.751	264.92
891.129	367.9
891.507	290.67
891.885	267.26
892.263	250.88
892.641	302.37
893.019	255.56
893.396	302.37
893.774	257.9
894.152	314.07
894.529	321.09
894.907	302.37
895.284	311.73
895.662	318.75
896.039	323.43
896.416	325.77
896.794	344.5
897.171	269.6
897.548	325.77
897.925	295.35
898.302	295.35
898.679	243.85
899.056	351.52
899.433	295.35
899.809	290.67
900.186	248.54
900.563	278.96
900.939	234.49
901.316	332.79
901.692	353.86
902.069	332.79
902.445	379.61
902.821	302.37
903.197	267.26
903.574	323.43
903.95	374.92
904.326	295.35
904.702	335.14
905.078	332.79
905.454	262.58
905.829	339.82
906.205	271.94
906.581	281.3
906.956	285.98
907.332	255.56
907.707	246.2
908.083	264.92
908.458	274.28
908.833	328.11
909.209	311.73
909.584	283.64
909.959	302.37
910.334	278.96
910.709	321.09
911.084	241.51
911.459	302.37
911.834	302.37
912.209	300.03
912.583	293.01
912.958	318.75
913.333	325.77
913.707	344.5
914.082	344.5
914.456	297.69
914.83	330.45
915.205	370.24
915.579	243.85
915.953	281.3
916.327	304.71
916.701	246.2
917.075	328.11
917.449	283.64
917.823	311.73
918.197	281.3
918.571	353.86
918.944	274.28
919.318	325.77
919.692	250.88
920.065	264.92
920.438	314.07
920.812	264.92
921.185	356.2
921.558	248.54
921.932	316.41
922.305	285.98
922.678	264.92
923.051	288.32
923.424	253.22
923.797	332.79
924.17	309.39
924.542	236.83
924.915	234.49
925.288	321.09
925.661	295.35
926.033	321.09
926.406	339.82
926.778	316.41
927.15	255.56
927.523	257.9
927.895	321.09
928.267	293.01
928.639	262.58
929.011	222.79
929.383	253.22
929.755	264.92
930.127	335.14
930.499	241.51
930.871	239.17
931.242	321.09
931.614	288.32
931.986	314.07
932.357	276.62
932.729	309.39
933.1	241.51
933.471	300.03
933.843	323.43
934.214	271.94
934.585	236.83
934.956	281.3
935.327	274.28
935.698	229.81
936.069	344.5
936.44	236.83
936.811	353.86
937.182	344.5
937.552	262.58
937.923	243.85
938.293	330.45
938.664	314.07
939.034	342.16
939.405	278.96
939.775	255.56
940.145	246.2
940.516	285.98
940.886	257.9
941.256	271.94
941.626	335.14
941.996	344.5
942.366	304.71
942.735	356.2
943.105	288.32
943.475	328.11
943.845	285.98
944.214	332.79
944.584	293.01
944.953	253.22
945.323	274.28
945.692	309.39
946.061	360.88
946.43	316.41
946.8	353.86
947.169	269.6
947.538	250.88
947.907	360.88
948.276	276.62
948.645	281.3
949.013	295.35
949.382	337.48
949.751	253.22
950.119	271.94
950.488	325.77
950.857	239.17
951.225	302.37
951.593	250.88
951.962	353.86
952.33	300.03
952.698	300.03
953.066	288.32
953.434	285.98
953.802	309.39
954.17	232.15
954.538	269.6
954.906	314.07
955.274	318.75
955.642	293.01
956.009	290.67
956.377	281.3
956.744	351.52
957.112	293.01
957.479	297.69
957.847	274.28
958.214	278.96
958.581	351.52
958.948	288.32
959.315	374.92
959.683	321.09
960.05	281.3
960.416	271.94
960.783	370.24
961.15	283.64
961.517	278.96
961.884	330.45
962.25	293.01
962.617	300.03
962.983	278.96
963.35	201.72
963.716	260.24
964.082	278.96
964.449	330.45
964.815	257.9
965.181	318.75
965.547	323.43
965.913	323.43
966.279	297.69
966.645	337.48
967.011	344.5
967.377	192.36
967.742	257.9
968.108	351.52
968.474	274.28
968.839	304.71
969.205	337.48
969.57	304.71
969.935	360.88
970.301	302.37
970.666	257.9
971.031	307.05
971.396	304.71
971.761	342.16
972.126	255.56
972.491	239.17
972.856	271.94
973.221	304.71
973.586	285.98
973.95	274.28
974.315	342.16
974.679	344.5
975.044	328.11
975.408	271.94
975.773	344.5
976.137	337.48
976.501	304.71
976.866	255.56
977.23	316.41
977.594	257.9
977.958	311.73
978.322	243.85
978.686	274.28
979.049	309.39
979.413	276.62
979.777	321.09
980.141	307.05
980.504	311.73
980.868	381.95
981.231	285.98
981.595	321.09
981.958	234.49
982.321	349.18
982.684	300.03
983.048	328.11
983.411	288.32
983.774	293.01
984.137	321.09
984.5	288.32
984.862	278.96
985.225	323.43
985.588	236.83
985.951	321.09
986.313	285.98
986.676	323.43
987.038	281.3
987.401	307.05
987.763	246.2
988.125	295.35
988.488	360.88
988.85	250.88
989.212	290.67
989.574	246.2
989.936	314.07
990.298	342.16
990.66	337.48
991.022	246.2
991.383	344.5
991.745	309.39
992.107	300.03
992.468	264.92
992.83	250.88
993.191	314.07
993.553	325.77
993.914	353.86
994.275	255.56
994.637	314.07
994.998	309.39
995.359	281.3
995.72	257.9
996.081	278.96
996.442	271.94
996.803	335.14
997.163	260.24
997.524	304.71
997.885	281.3
998.245	269.6
998.606	281.3
998.966	295.35
999.327	262.58
999.687	311.73
1000.047	365.56
1000.408	288.32
1000.768	332.79
1001.128	307.05
1001.488	260.24
1001.848	274.28
1002.208	332.79
1002.568	262.58
1002.927	229.81
1003.287	281.3
1003.647	349.18
1004.007	267.26
1004.366	321.09
1004.726	262.58
1005.085	274.28
1005.444	297.69
1005.804	332.79
1006.163	339.82
1006.522	250.88
1006.881	335.14
1007.24	314.07
1007.599	328.11
1007.958	269.6
1008.317	295.35
1008.676	304.71
1009.035	314.07
1009.393	321.09
1009.752	295.35
1010.111	290.67
1010.469	276.62
1010.828	267.26
1011.186	316.41
1011.544	318.75
1011.903	274.28
1012.261	374.92
1012.619	290.67
1012.977	276.62
1013.335	363.22
1013.693	288.32
1014.051	330.45
1014.409	321.09
1014.767	309.39
1015.124	304.71
1015.482	257.9
1015.84	330.45
1016.197	274.28
1016.555	307.05
1016.912	225.13
1017.269	229.81
1017.627	339.82
1017.984	307.05
1018.341	314.07
1018.698	302.37
1019.055	276.62
1019.412	307.05
1019.769	276.62
1020.126	285.98
1020.483	302.37
1020.84	239.17
1021.196	351.52
1021.553	295.35
1021.909	267.26
1022.266	185.34
1022.622	276.62
1022.979	295.35
1023.335	295.35
1023.691	346.84
1024.047	295.35
1024.404	262.58
1024.76	281.3
1025.116	304.71
1025.472	307.05
1025.827	285.98
1026.183	255.56
1026.539	246.2
1026.895	346.84
1027.25	337.48
1027.606	314.07
1027.961	264.92
1028.317	250.88
1028.672	293.01
1029.028	321.09
1029.383	323.43
1029.738	311.73
1030.093	234.49
1030.448	274.28
1030.803	264.92
1031.158	271.94
1031.513	250.88
1031.868	349.18
1032.223	363.22
1032.577	255.56
1032.932	283.64
1033.287	351.52
1033.641	297.69
1033.996	257.9
1034.35	325.77
1034.704	250.88
1035.059	309.39
1035.413	304.71
1035.767	304.71
1036.121	304.71
