Data from Al_FLMS009871__952__16-20-01-721.txt Node

Date: Fri Mar 08 16:20:01 CST 2024
User: pe5414po
Spectrometer: FLMS00987
Trigger mode: 0
Integration Time (sec): 1.000000E-1
Scans to average: 1
Electric dark correction enabled: true
Nonlinearity correction enabled: false
Boxcar width: 0
XAxis mode: Wavelengths
Number of Pixels in Spectrum: 2048
>>>>>Begin Spectral Data<<<<<
188.938	-54.42
189.409	-54.42
189.879	-54.42
190.349	-155.06
190.819	-122.29
191.29	-82.5
191.76	-103.57
192.23	-89.53
192.7	-103.57
193.17	-73.14
193.64	-26.33
194.109	-45.06
194.579	4.1
195.049	-12.29
195.519	62.61
195.988	-2.93
196.458	67.29
196.927	60.27
197.397	107.08
197.866	111.76
198.336	125.8
198.805	114.1
199.274	214.74
199.744	196.02
200.213	217.08
200.682	153.89
201.151	231.13
201.62	277.94
202.089	231.13
202.558	259.21
203.027	270.92
203.495	167.93
203.964	247.51
204.433	242.83
204.902	238.15
205.37	240.49
205.839	362.2
206.307	224.11
206.776	268.58
207.244	261.55
207.712	317.73
208.181	317.73
208.649	310.71
209.117	350.5
209.585	282.62
210.053	306.03
210.521	338.79
210.989	296.66
211.457	238.15
211.925	296.66
212.393	252.19
212.861	273.26
213.328	294.32
213.796	256.87
214.264	289.64
214.731	245.17
215.199	259.21
215.666	308.37
216.133	303.68
216.601	296.66
217.068	207.72
217.535	247.51
218.003	310.71
218.47	247.51
218.937	345.81
219.404	249.85
219.871	289.64
220.338	277.94
220.805	200.7
221.271	249.85
221.738	299
222.205	259.21
222.671	210.06
223.138	219.43
223.605	261.55
224.071	249.85
224.538	261.55
225.004	238.15
225.47	214.74
225.937	226.45
226.403	266.24
226.869	291.98
227.335	233.47
227.801	245.17
228.267	231.13
228.733	294.32
229.199	287.3
229.665	212.4
230.131	231.13
230.597	256.87
231.062	242.83
231.528	247.51
231.994	275.6
232.459	299
232.925	224.11
233.39	296.66
233.856	284.96
234.321	261.55
234.786	268.58
235.252	287.3
235.717	303.68
236.182	308.37
236.647	273.26
237.112	280.28
237.577	299
238.042	256.87
238.507	315.39
238.972	231.13
239.436	324.75
239.901	273.26
240.366	317.73
240.83	233.47
241.295	331.77
241.76	280.28
242.224	263.9
242.688	282.62
243.153	296.66
243.617	270.92
244.081	296.66
244.545	329.43
245.01	282.62
245.474	233.47
245.938	249.85
246.402	284.96
246.866	268.58
247.33	268.58
247.793	245.17
248.257	200.7
248.721	294.32
249.185	247.51
249.648	289.64
250.112	249.85
250.575	331.77
251.039	322.41
251.502	238.15
251.965	282.62
252.429	289.64
252.892	275.6
253.355	303.68
253.818	299
254.281	334.11
254.744	287.3
255.207	261.55
255.67	303.68
256.133	287.3
256.596	284.96
257.059	294.32
257.522	273.26
257.984	322.41
258.447	289.64
258.909	299
259.372	294.32
259.834	324.75
260.297	299
260.759	273.26
261.221	306.03
261.684	233.47
262.146	322.41
262.608	296.66
263.07	282.62
263.532	238.15
263.994	348.15
264.456	252.19
264.918	317.73
265.38	291.98
265.842	270.92
266.303	291.98
266.765	306.03
267.227	263.9
267.688	296.66
268.15	273.26
268.611	277.94
269.072	299
269.534	338.79
269.995	238.15
270.456	338.79
270.918	275.6
271.379	338.79
271.84	226.45
272.301	256.87
272.762	310.71
273.223	224.11
273.684	291.98
274.144	315.39
274.605	299
275.066	287.3
275.527	254.53
275.987	310.71
276.448	364.54
276.908	334.11
277.369	242.83
277.829	296.66
278.289	352.84
278.75	277.94
279.21	266.24
279.67	273.26
280.13	261.55
280.59	289.64
281.05	331.77
281.51	238.15
281.97	329.43
282.43	310.71
282.89	282.62
283.35	317.73
283.809	266.24
284.269	324.75
284.729	235.81
285.188	277.94
285.648	277.94
286.107	336.45
286.567	256.87
287.026	315.39
287.485	270.92
287.944	294.32
288.404	291.98
288.863	303.68
289.322	280.28
289.781	315.39
290.24	284.96
290.699	334.11
291.158	256.87
291.616	362.2
292.075	233.47
292.534	284.96
292.992	303.68
293.451	289.64
293.91	341.13
294.368	296.66
294.827	336.45
295.285	233.47
295.743	301.34
296.202	233.47
296.66	289.64
297.118	263.9
297.576	320.07
298.034	348.15
298.492	231.13
298.95	249.85
299.408	334.11
299.866	277.94
300.324	282.62
300.781	406.67
301.239	327.09
301.697	355.18
302.154	275.6
302.612	282.62
303.069	299
303.527	329.43
303.984	291.98
304.441	317.73
304.899	329.43
305.356	259.21
305.813	287.3
306.27	254.53
306.727	301.34
307.184	291.98
307.641	308.37
308.098	345.81
308.555	277.94
309.012	306.03
309.468	324.75
309.925	217.08
310.382	315.39
310.838	289.64
311.295	341.13
311.751	233.47
312.208	282.62
312.664	270.92
313.12	245.17
313.577	359.86
314.033	273.26
314.489	291.98
314.945	301.34
315.401	277.94
315.857	238.15
316.313	376.24
316.769	268.58
317.225	324.75
317.681	327.09
318.136	270.92
318.592	324.75
319.048	341.13
319.503	369.22
319.959	334.11
320.414	291.98
320.869	331.77
321.325	313.05
321.78	266.24
322.235	317.73
322.691	259.21
323.146	327.09
323.601	266.24
324.056	280.28
324.511	348.15
324.966	322.41
325.421	296.66
325.875	247.51
326.33	263.9
326.785	301.34
327.24	317.73
327.694	327.09
328.149	284.96
328.603	301.34
329.058	277.94
329.512	315.39
329.966	348.15
330.421	294.32
330.875	291.98
331.329	261.55
331.783	378.58
332.237	334.11
332.691	299
333.145	296.66
333.599	296.66
334.053	322.41
334.507	299
334.96	263.9
335.414	313.05
335.868	331.77
336.321	313.05
336.775	315.39
337.228	287.3
337.682	317.73
338.135	359.86
338.588	327.09
339.042	378.58
339.495	317.73
339.948	310.71
340.401	355.18
340.854	296.66
341.307	345.81
341.76	301.34
342.213	296.66
342.666	291.98
343.119	280.28
343.571	338.79
344.024	268.58
344.477	350.5
344.929	277.94
345.382	320.07
345.834	277.94
346.287	294.32
346.739	299
347.191	280.28
347.644	324.75
348.096	308.37
348.548	341.13
349	306.03
349.452	306.03
349.904	252.19
350.356	296.66
350.808	275.6
351.26	327.09
351.711	242.83
352.163	291.98
352.615	289.64
353.066	270.92
353.518	315.39
353.969	334.11
354.421	315.39
354.872	334.11
355.324	306.03
355.775	420.71
356.226	317.73
356.677	336.45
357.128	303.68
357.579	289.64
358.03	338.79
358.481	371.56
358.932	291.98
359.383	303.68
359.834	268.58
360.285	291.98
360.735	327.09
361.186	310.71
361.637	331.77
362.087	322.41
362.538	357.52
362.988	301.34
363.438	296.66
363.889	331.77
364.339	284.96
364.789	366.88
365.239	282.62
365.689	303.68
366.139	313.05
366.589	303.68
367.039	315.39
367.489	282.62
367.939	299
368.389	336.45
368.839	299
369.288	313.05
369.738	320.07
370.187	282.62
370.637	315.39
371.086	287.3
371.536	303.68
371.985	352.84
372.434	235.81
372.884	303.68
373.333	327.09
373.782	303.68
374.231	256.87
374.68	287.3
375.129	331.77
375.578	320.07
376.027	303.68
376.475	266.24
376.924	270.92
377.373	350.5
377.822	315.39
378.27	331.77
378.719	317.73
379.167	352.84
379.616	242.83
380.064	308.37
380.512	242.83
380.961	352.84
381.409	294.32
381.857	329.43
382.305	306.03
382.753	273.26
383.201	322.41
383.649	294.32
384.097	282.62
384.545	350.5
384.992	301.34
385.44	284.96
385.888	373.9
386.335	273.26
386.783	327.09
387.231	320.07
387.678	317.73
388.125	362.2
388.573	296.66
389.02	348.15
389.467	380.92
389.914	263.9
390.362	275.6
390.809	331.77
391.256	249.85
391.703	308.37
392.15	291.98
392.596	256.87
393.043	219.43
393.49	317.73
393.937	320.07
394.383	235.81
394.83	303.68
395.276	284.96
395.723	240.49
396.169	282.62
396.616	306.03
397.062	299
397.508	364.54
397.954	350.5
398.401	362.2
398.847	280.28
399.293	329.43
399.739	315.39
400.185	350.5
400.631	289.64
401.076	268.58
401.522	315.39
401.968	313.05
402.414	242.83
402.859	362.2
403.305	280.28
403.75	341.13
404.196	322.41
404.641	334.11
405.086	303.68
405.532	240.49
405.977	303.68
406.422	336.45
406.867	322.41
407.312	308.37
407.757	317.73
408.202	350.5
408.647	273.26
409.092	341.13
409.537	291.98
409.982	249.85
410.426	308.37
410.871	320.07
411.316	280.28
411.76	315.39
412.205	266.24
412.649	310.71
413.093	334.11
413.538	296.66
413.982	317.73
414.426	294.32
414.87	263.9
415.314	317.73
415.758	345.81
416.202	343.47
416.646	345.81
417.09	362.2
417.534	329.43
417.978	301.34
418.421	270.92
418.865	343.47
419.309	210.06
419.752	315.39
420.196	352.84
420.639	338.79
421.083	238.15
421.526	238.15
421.969	350.5
422.412	345.81
422.856	310.71
423.299	299
423.742	299
424.185	345.81
424.628	249.85
425.071	291.98
425.513	315.39
425.956	343.47
426.399	385.6
426.842	294.32
427.284	268.58
427.727	308.37
428.169	275.6
428.612	315.39
429.054	341.13
429.497	313.05
429.939	338.79
430.381	341.13
430.823	308.37
431.265	308.37
431.707	322.41
432.149	296.66
432.591	303.68
433.033	287.3
433.475	329.43
433.917	261.55
434.359	303.68
434.8	317.73
435.242	331.77
435.684	385.6
436.125	254.53
436.567	345.81
437.008	320.07
437.449	233.47
437.891	282.62
438.332	282.62
438.773	334.11
439.214	301.34
439.656	277.94
440.097	263.9
440.538	296.66
440.978	261.55
441.419	357.52
441.86	322.41
442.301	334.11
442.742	308.37
443.182	296.66
443.623	240.49
444.063	383.26
444.504	233.47
444.944	380.92
445.385	294.32
445.825	289.64
446.265	324.75
446.706	329.43
447.146	308.37
447.586	327.09
448.026	320.07
448.466	294.32
448.906	338.79
449.346	334.11
449.786	343.47
450.225	296.66
450.665	350.5
451.105	263.9
451.544	308.37
451.984	247.51
452.424	355.18
452.863	317.73
453.302	310.71
453.742	291.98
454.181	378.58
454.62	310.71
455.059	371.56
455.499	235.81
455.938	301.34
456.377	322.41
456.816	291.98
457.254	275.6
457.693	301.34
458.132	334.11
458.571	289.64
459.01	352.84
459.448	270.92
459.887	306.03
460.325	317.73
460.764	343.47
461.202	294.32
461.641	394.97
462.079	327.09
462.517	301.34
462.955	313.05
463.393	308.37
463.832	277.94
464.27	282.62
464.708	362.2
465.145	256.87
465.583	385.6
466.021	308.37
466.459	282.62
466.897	387.94
467.334	331.77
467.772	315.39
468.209	315.39
468.647	334.11
469.084	303.68
469.522	313.05
469.959	294.32
470.396	313.05
470.833	289.64
471.271	280.28
471.708	284.96
472.145	369.22
472.582	303.68
473.019	320.07
473.456	371.56
473.892	369.22
474.329	359.86
474.766	308.37
475.202	263.9
475.639	322.41
476.076	313.05
476.512	200.7
476.949	306.03
477.385	352.84
477.821	270.92
478.258	299
478.694	308.37
479.13	308.37
479.566	299
480.002	329.43
480.438	324.75
480.874	334.11
481.31	329.43
481.746	259.21
482.181	334.11
482.617	294.32
483.053	289.64
483.488	301.34
483.924	341.13
484.36	350.5
484.795	350.5
485.23	301.34
485.666	287.3
486.101	331.77
486.536	308.37
486.971	345.81
487.407	249.85
487.842	341.13
488.277	322.41
488.712	320.07
489.146	329.43
489.581	317.73
490.016	303.68
490.451	275.6
490.885	273.26
491.32	301.34
491.755	310.71
492.189	238.15
492.624	341.13
493.058	399.65
493.492	301.34
493.927	306.03
494.361	313.05
494.795	350.5
495.229	317.73
495.663	366.88
496.097	336.45
496.531	359.86
496.965	289.64
497.399	380.92
497.833	324.75
498.266	296.66
498.7	359.86
499.134	418.37
499.567	341.13
500.001	313.05
500.434	336.45
500.868	266.24
501.301	303.68
501.734	322.41
502.168	341.13
502.601	315.39
503.034	294.32
503.467	308.37
503.9	289.64
504.333	406.67
504.766	275.6
505.199	322.41
505.632	362.2
506.064	352.84
506.497	214.74
506.93	322.41
507.362	345.81
507.795	294.32
508.227	345.81
508.66	357.52
509.092	364.54
509.524	273.26
509.956	266.24
510.389	301.34
510.821	301.34
511.253	306.03
511.685	263.9
512.117	299
512.549	376.24
512.981	287.3
513.412	322.41
513.844	263.9
514.276	343.47
514.707	324.75
515.139	308.37
515.571	317.73
516.002	287.3
516.433	336.45
516.865	331.77
517.296	315.39
517.727	296.66
518.159	336.45
518.59	343.47
519.021	345.81
519.452	331.77
519.883	252.19
520.314	291.98
520.744	336.45
521.175	301.34
521.606	373.9
522.037	334.11
522.467	324.75
522.898	277.94
523.328	291.98
523.759	245.17
524.189	308.37
524.62	308.37
525.05	266.24
525.48	282.62
525.91	394.97
526.341	343.47
526.771	282.62
527.201	313.05
527.631	306.03
528.061	301.34
528.49	294.32
528.92	306.03
529.35	303.68
529.78	308.37
530.209	362.2
530.639	327.09
531.068	224.11
531.498	359.86
531.927	334.11
532.357	256.87
532.786	306.03
533.215	324.75
533.644	378.58
534.074	336.45
534.503	313.05
534.932	289.64
535.361	308.37
535.79	299
536.218	348.15
536.647	350.5
537.076	329.43
537.505	329.43
537.933	413.69
538.362	291.98
538.79	313.05
539.219	343.47
539.647	282.62
540.076	399.65
540.504	348.15
540.932	383.26
541.36	331.77
541.788	306.03
542.217	317.73
542.645	366.88
543.073	338.79
543.5	275.6
543.928	289.64
544.356	268.58
544.784	320.07
545.211	306.03
545.639	401.99
546.067	343.47
546.494	327.09
546.922	357.52
547.349	313.05
547.776	310.71
548.204	331.77
548.631	343.47
549.058	338.79
549.485	289.64
549.912	343.47
550.339	373.9
550.766	355.18
551.193	315.39
551.62	291.98
552.047	303.68
552.474	324.75
552.9	287.3
553.327	327.09
553.754	287.3
554.18	313.05
554.607	303.68
555.033	256.87
555.459	306.03
555.886	341.13
556.312	336.45
556.738	345.81
557.164	289.64
557.59	275.6
558.016	280.28
558.442	348.15
558.868	315.39
559.294	291.98
559.72	289.64
560.145	348.15
560.571	291.98
560.997	224.11
561.422	315.39
561.848	254.53
562.273	352.84
562.699	296.66
563.124	320.07
563.549	308.37
563.974	296.66
564.4	308.37
564.825	289.64
565.25	282.62
565.675	324.75
566.1	331.77
566.525	334.11
566.95	334.11
567.374	348.15
567.799	345.81
568.224	327.09
568.648	383.26
569.073	280.28
569.497	380.92
569.922	291.98
570.346	301.34
570.771	324.75
571.195	254.53
571.619	275.6
572.043	263.9
572.467	282.62
572.891	303.68
573.315	263.9
573.739	345.81
574.163	301.34
574.587	352.84
575.011	256.87
575.435	362.2
575.858	362.2
576.282	338.79
576.705	247.51
577.129	322.41
577.552	284.96
577.976	270.92
578.399	348.15
578.822	378.58
579.245	327.09
579.669	299
580.092	310.71
580.515	310.71
580.938	303.68
581.361	324.75
581.784	348.15
582.206	329.43
582.629	366.88
583.052	336.45
583.474	275.6
583.897	268.58
584.32	315.39
584.742	315.39
585.165	291.98
585.587	359.86
586.009	336.45
586.431	308.37
586.854	294.32
587.276	362.2
587.698	341.13
588.12	301.34
588.542	245.17
588.964	308.37
589.386	322.41
589.807	299
590.229	287.3
590.651	315.39
591.073	245.17
591.494	313.05
591.916	296.66
592.337	308.37
592.759	284.96
593.18	268.58
593.601	350.5
594.022	355.18
594.444	277.94
594.865	289.64
595.286	313.05
595.707	317.73
596.128	357.52
596.549	294.32
596.97	371.56
597.39	341.13
597.811	268.58
598.232	259.21
598.652	256.87
599.073	261.55
599.494	294.32
599.914	196.02
600.334	261.55
600.755	345.81
601.175	291.98
601.595	345.81
602.015	338.79
602.436	245.17
602.856	399.65
603.276	296.66
603.696	310.71
604.115	315.39
604.535	315.39
604.955	331.77
605.375	270.92
605.794	320.07
606.214	378.58
606.634	322.41
607.053	317.73
607.473	291.98
607.892	329.43
608.311	350.5
608.731	270.92
609.15	334.11
609.569	329.43
609.988	268.58
610.407	280.28
610.826	301.34
611.245	280.28
611.664	291.98
612.083	322.41
612.501	315.39
612.92	348.15
613.339	320.07
613.757	338.79
614.176	350.5
614.594	350.5
615.013	277.94
615.431	291.98
615.85	334.11
616.268	280.28
616.686	294.32
617.104	313.05
617.522	296.66
617.94	280.28
618.358	296.66
618.776	247.51
619.194	284.96
619.612	313.05
620.03	338.79
620.447	294.32
620.865	355.18
621.282	275.6
621.7	378.58
622.117	329.43
622.535	359.86
622.952	352.84
623.369	331.77
623.787	313.05
624.204	334.11
624.621	284.96
625.038	224.11
625.455	181.98
625.872	378.58
626.289	280.28
626.706	350.5
627.123	315.39
627.539	317.73
627.956	364.54
628.373	296.66
628.789	280.28
629.206	284.96
629.622	263.9
630.038	315.39
630.455	238.15
630.871	320.07
631.287	336.45
631.703	338.79
632.12	289.64
632.536	294.32
632.952	310.71
633.368	338.79
633.783	366.88
634.199	324.75
634.615	317.73
635.031	273.26
635.446	320.07
635.862	310.71
636.277	345.81
636.693	310.71
637.108	249.85
637.524	291.98
637.939	310.71
638.354	306.03
638.77	249.85
639.185	313.05
639.6	226.45
640.015	235.81
640.43	294.32
640.845	303.68
641.259	270.92
641.674	287.3
642.089	310.71
642.504	336.45
642.918	303.68
643.333	287.3
643.747	317.73
644.162	310.71
644.576	306.03
644.991	308.37
645.405	289.64
645.819	338.79
646.233	306.03
646.647	289.64
647.061	357.52
647.475	338.79
647.889	287.3
648.303	331.77
648.717	268.58
649.131	277.94
649.545	254.53
649.958	387.94
650.372	355.18
650.785	317.73
651.199	303.68
651.612	320.07
652.026	317.73
652.439	306.03
652.852	348.15
653.266	331.77
653.679	310.71
654.092	320.07
654.505	355.18
654.918	352.84
655.331	359.86
655.744	329.43
656.156	329.43
656.569	296.66
656.982	397.31
657.394	294.32
657.807	324.75
658.22	254.53
658.632	294.32
659.044	289.64
659.457	284.96
659.869	364.54
660.281	348.15
660.693	242.83
661.106	291.98
661.518	327.09
661.93	310.71
662.342	268.58
662.754	315.39
663.165	348.15
663.577	324.75
663.989	371.56
664.401	331.77
664.812	280.28
665.224	315.39
665.635	280.28
666.047	284.96
666.458	322.41
666.869	301.34
667.281	303.68
667.692	291.98
668.103	284.96
668.514	359.86
668.925	259.21
669.336	345.81
669.747	324.75
670.158	224.11
670.569	289.64
670.979	336.45
671.39	371.56
671.801	303.68
672.211	254.53
672.622	282.62
673.032	348.15
673.443	303.68
673.853	350.5
674.263	291.98
674.674	315.39
675.084	259.21
675.494	336.45
675.904	336.45
676.314	357.52
676.724	294.32
677.134	322.41
677.544	291.98
677.953	315.39
678.363	306.03
678.773	373.9
679.182	322.41
679.592	329.43
680.001	322.41
680.411	313.05
680.82	306.03
681.23	270.92
681.639	315.39
682.048	322.41
682.457	313.05
682.866	284.96
683.275	310.71
683.684	299
684.093	317.73
684.502	308.37
684.911	303.68
685.32	306.03
685.728	315.39
686.137	268.58
686.546	329.43
686.954	327.09
687.363	308.37
687.771	242.83
688.179	345.81
688.588	296.66
688.996	343.47
689.404	301.34
689.812	390.28
690.22	324.75
690.628	270.92
691.036	289.64
691.444	324.75
691.852	270.92
692.26	313.05
692.667	315.39
693.075	306.03
693.483	270.92
693.89	315.39
694.298	331.77
694.705	266.24
695.112	261.55
695.52	315.39
695.927	294.32
696.334	294.32
696.741	355.18
697.148	310.71
697.555	294.32
697.962	331.77
698.369	336.45
698.776	254.53
699.183	310.71
699.59	289.64
699.996	303.68
700.403	282.62
700.81	301.34
701.216	268.58
701.623	291.98
702.029	322.41
702.435	277.94
702.842	310.71
703.248	308.37
703.654	287.3
704.06	294.32
704.466	327.09
704.872	273.26
705.278	277.94
705.684	331.77
706.09	387.94
706.496	320.07
706.901	390.28
707.307	364.54
707.712	294.32
708.118	341.13
708.523	245.17
708.929	284.96
709.334	348.15
709.74	317.73
710.145	317.73
710.55	338.79
710.955	322.41
711.36	301.34
711.765	291.98
712.17	315.39
712.575	348.15
712.98	827.96
713.385	320.07
713.789	362.2
714.194	308.37
714.599	315.39
715.003	275.6
715.408	287.3
715.812	261.55
716.217	287.3
716.621	303.68
717.025	299
717.429	327.09
717.833	338.79
718.238	275.6
718.642	317.73
719.046	324.75
719.449	320.07
719.853	324.75
720.257	308.37
720.661	254.53
721.065	308.37
721.468	301.34
721.872	238.15
722.275	334.11
722.679	380.92
723.082	287.3
723.485	240.49
723.889	364.54
724.292	369.22
724.695	303.68
725.098	327.09
725.501	289.64
725.904	329.43
726.307	275.6
726.71	378.58
727.113	343.47
727.516	320.07
727.918	334.11
728.321	294.32
728.724	266.24
729.126	313.05
729.529	263.9
729.931	313.05
730.333	373.9
730.736	303.68
731.138	303.68
731.54	287.3
731.942	252.19
732.344	291.98
732.746	341.13
733.148	327.09
733.55	289.64
733.952	291.98
734.354	399.65
734.756	313.05
735.157	277.94
735.559	306.03
735.96	306.03
736.362	303.68
736.763	364.54
737.165	345.81
737.566	313.05
737.967	308.37
738.368	322.41
738.77	320.07
739.171	315.39
739.572	350.5
739.973	357.52
740.374	378.58
740.774	306.03
741.175	275.6
741.576	345.81
741.977	329.43
742.377	317.73
742.778	294.32
743.178	266.24
743.579	334.11
743.979	296.66
744.379	329.43
744.78	317.73
745.18	327.09
745.58	219.43
745.98	303.68
746.38	320.07
746.78	254.53
747.18	296.66
747.58	331.77
747.98	313.05
748.38	273.26
748.779	320.07
749.179	280.28
749.578	280.28
749.978	322.41
750.377	306.03
750.777	324.75
751.176	362.2
751.575	343.47
751.975	266.24
752.374	294.32
752.773	270.92
753.172	313.05
753.571	313.05
753.97	275.6
754.369	322.41
754.768	306.03
755.166	336.45
755.565	219.43
755.964	289.64
756.362	331.77
756.761	303.68
757.159	306.03
757.558	294.32
757.956	334.11
758.354	280.28
758.753	303.68
759.151	341.13
759.549	313.05
759.947	327.09
760.345	273.26
760.743	224.11
761.141	308.37
761.539	322.41
761.936	310.71
762.334	338.79
762.732	306.03
763.129	301.34
763.527	327.09
763.924	249.85
764.322	282.62
764.719	341.13
765.117	362.2
765.514	273.26
765.911	331.77
766.308	291.98
766.705	364.54
767.102	284.96
767.499	273.26
767.896	299
768.293	315.39
768.69	296.66
769.086	313.05
769.483	306.03
769.88	282.62
770.276	313.05
770.673	327.09
771.069	317.73
771.466	233.47
771.862	366.88
772.258	317.73
772.654	282.62
773.05	282.62
773.447	296.66
773.843	329.43
774.239	310.71
774.634	301.34
775.03	371.56
775.426	317.73
775.822	310.71
776.218	338.79
776.613	338.79
777.009	308.37
777.404	399.65
777.8	268.58
778.195	366.88
778.59	380.92
778.986	357.52
779.381	303.68
779.776	299
780.171	315.39
780.566	317.73
780.961	263.9
781.356	327.09
781.751	329.43
782.146	303.68
782.54	282.62
782.935	338.79
783.33	306.03
783.724	268.58
784.119	261.55
784.513	245.17
784.908	324.75
785.302	308.37
785.696	355.18
786.09	334.11
786.485	296.66
786.879	280.28
787.273	254.53
787.667	315.39
788.061	350.5
788.454	284.96
788.848	296.66
789.242	352.84
789.636	289.64
790.029	247.51
790.423	289.64
790.816	275.6
791.21	299
791.603	301.34
791.997	308.37
792.39	315.39
792.783	289.64
793.176	287.3
793.569	301.34
793.962	329.43
794.355	270.92
794.748	301.34
795.141	322.41
795.534	263.9
795.927	249.85
796.319	366.88
796.712	324.75
797.105	341.13
797.497	348.15
797.89	336.45
798.282	380.92
798.674	280.28
799.067	303.68
799.459	324.75
799.851	390.28
800.243	336.45
800.635	324.75
801.027	350.5
801.419	345.81
801.811	322.41
802.203	380.92
802.594	345.81
802.986	331.77
803.378	254.53
803.769	266.24
804.161	336.45
804.552	277.94
804.944	322.41
805.335	334.11
805.726	317.73
806.118	301.34
806.509	341.13
806.9	242.83
807.291	270.92
807.682	334.11
808.073	310.71
808.464	331.77
808.855	362.2
809.245	320.07
809.636	308.37
810.027	282.62
810.417	355.18
810.808	308.37
811.198	329.43
811.589	329.43
811.979	287.3
812.369	324.75
812.759	399.65
813.15	315.39
813.54	301.34
813.93	284.96
814.32	256.87
814.71	331.77
815.1	336.45
815.489	263.9
815.879	317.73
816.269	355.18
816.658	289.64
817.048	296.66
817.438	301.34
817.827	273.26
818.216	315.39
818.606	343.47
818.995	327.09
819.384	310.71
819.773	310.71
820.163	289.64
820.552	294.32
820.941	296.66
821.33	277.94
821.718	320.07
822.107	324.75
822.496	252.19
822.885	345.81
823.273	341.13
823.662	371.56
824.05	331.77
824.439	315.39
824.827	235.81
825.216	280.28
825.604	322.41
825.992	383.26
826.38	308.37
826.768	338.79
827.156	334.11
827.544	280.28
827.932	315.39
828.32	352.84
828.708	366.88
829.096	322.41
829.483	343.47
829.871	275.6
830.259	275.6
830.646	291.98
831.034	341.13
831.421	242.83
831.808	336.45
832.196	284.96
832.583	240.49
832.97	299
833.357	343.47
833.744	277.94
834.131	327.09
834.518	317.73
834.905	357.52
835.292	303.68
835.678	219.43
836.065	273.26
836.452	343.47
836.838	263.9
837.225	317.73
837.611	327.09
837.998	291.98
838.384	294.32
838.77	338.79
839.157	277.94
839.543	310.71
839.929	287.3
840.315	261.55
840.701	291.98
841.087	275.6
841.473	282.62
841.858	327.09
842.244	245.17
842.63	282.62
843.015	275.6
843.401	643.06
843.787	296.66
844.172	259.21
844.557	385.6
844.943	270.92
845.328	275.6
845.713	327.09
846.098	359.86
846.483	329.43
846.868	334.11
847.253	270.92
847.638	240.49
848.023	341.13
848.408	315.39
848.793	331.77
849.177	320.07
849.562	317.73
849.947	336.45
850.331	289.64
850.715	303.68
851.1	282.62
851.484	343.47
851.868	343.47
852.253	343.47
852.637	270.92
853.021	324.75
853.405	350.5
853.789	289.64
854.173	355.18
854.557	324.75
854.94	331.77
855.324	322.41
855.708	277.94
856.091	315.39
856.475	280.28
856.858	331.77
857.242	317.73
857.625	303.68
858.009	322.41
858.392	362.2
858.775	345.81
859.158	324.75
859.541	308.37
859.924	284.96
860.307	299
860.69	296.66
861.073	341.13
861.456	329.43
861.838	299
862.221	338.79
862.604	359.86
862.986	261.55
863.369	380.92
863.751	249.85
864.133	329.43
864.516	317.73
864.898	231.13
865.28	327.09
865.662	284.96
866.044	315.39
866.426	235.81
866.808	266.24
867.19	324.75
867.572	317.73
867.954	313.05
868.336	352.84
868.717	322.41
869.099	294.32
869.48	291.98
869.862	355.18
870.243	238.15
870.625	341.13
871.006	266.24
871.387	282.62
871.768	296.66
872.149	327.09
872.53	345.81
872.911	350.5
873.292	348.15
873.673	280.28
874.054	287.3
874.435	291.98
874.815	327.09
875.196	348.15
875.577	263.9
875.957	308.37
876.338	338.79
876.718	357.52
877.098	296.66
877.479	282.62
877.859	343.47
878.239	268.58
878.619	282.62
878.999	331.77
879.379	380.92
879.759	313.05
880.139	345.81
880.519	296.66
880.898	336.45
881.278	289.64
881.658	345.81
882.037	282.62
882.417	261.55
882.796	254.53
883.176	329.43
883.555	259.21
883.934	291.98
884.313	338.79
884.693	310.71
885.072	366.88
885.451	247.51
885.83	310.71
886.209	343.47
886.587	263.9
886.966	282.62
887.345	299
887.724	348.15
888.102	331.77
888.481	334.11
888.859	301.34
889.238	371.56
889.616	310.71
889.994	378.58
890.373	280.28
890.751	320.07
891.129	317.73
891.507	273.26
891.885	275.6
892.263	329.43
892.641	291.98
893.019	352.84
893.396	291.98
893.774	378.58
894.152	357.52
894.529	296.66
894.907	256.87
895.284	338.79
895.662	303.68
896.039	329.43
896.416	331.77
896.794	303.68
897.171	263.9
897.548	308.37
897.925	334.11
898.302	275.6
898.679	275.6
899.056	301.34
899.433	296.66
899.809	355.18
900.186	294.32
900.563	289.64
900.939	291.98
901.316	270.92
901.692	348.15
902.069	341.13
902.445	287.3
902.821	315.39
903.197	310.71
903.574	329.43
903.95	345.81
904.326	313.05
904.702	350.5
905.078	320.07
905.454	320.07
905.829	287.3
906.205	317.73
906.581	331.77
906.956	324.75
907.332	268.58
907.707	289.64
908.083	315.39
908.458	313.05
908.833	275.6
909.209	345.81
909.584	352.84
909.959	336.45
910.334	284.96
910.709	313.05
911.084	362.2
911.459	313.05
911.834	296.66
912.209	331.77
912.583	294.32
912.958	228.79
913.333	289.64
913.707	331.77
914.082	299
914.456	299
914.83	369.22
915.205	310.71
915.579	313.05
915.953	371.56
916.327	338.79
916.701	280.28
917.075	324.75
917.449	331.77
917.823	327.09
918.197	343.47
918.571	324.75
918.944	364.54
919.318	294.32
919.692	338.79
920.065	317.73
920.438	336.45
920.812	301.34
921.185	308.37
921.558	296.66
921.932	404.33
922.305	343.47
922.678	310.71
923.051	282.62
923.424	299
923.797	240.49
924.17	392.62
924.542	310.71
924.915	249.85
925.288	320.07
925.661	341.13
926.033	348.15
926.406	291.98
926.778	317.73
927.15	366.88
927.523	355.18
927.895	315.39
928.267	320.07
928.639	287.3
929.011	310.71
929.383	263.9
929.755	266.24
930.127	329.43
930.499	275.6
930.871	221.77
931.242	320.07
931.614	322.41
931.986	259.21
932.357	327.09
932.729	336.45
933.1	329.43
933.471	299
933.843	313.05
934.214	268.58
934.585	282.62
934.956	277.94
935.327	329.43
935.698	317.73
936.069	303.68
936.44	357.52
936.811	313.05
937.182	334.11
937.552	338.79
937.923	317.73
938.293	310.71
938.664	247.51
939.034	308.37
939.405	357.52
939.775	301.34
940.145	310.71
940.516	411.35
940.886	296.66
941.256	249.85
941.626	376.24
941.996	343.47
942.366	324.75
942.735	327.09
943.105	327.09
943.475	259.21
943.845	308.37
944.214	327.09
944.584	329.43
944.953	315.39
945.323	289.64
945.692	357.52
946.061	259.21
946.43	371.56
946.8	275.6
947.169	310.71
947.538	338.79
947.907	331.77
948.276	308.37
948.645	261.55
949.013	315.39
949.382	306.03
949.751	308.37
950.119	376.24
950.488	301.34
950.857	270.92
951.225	331.77
951.593	226.45
951.962	291.98
952.33	282.62
952.698	334.11
953.066	313.05
953.434	282.62
953.802	291.98
954.17	226.45
954.538	238.15
954.906	238.15
955.274	334.11
955.642	259.21
956.009	291.98
956.377	242.83
956.744	299
957.112	327.09
957.479	275.6
957.847	291.98
958.214	277.94
958.581	306.03
958.948	254.53
959.315	313.05
959.683	338.79
960.05	280.28
960.416	359.86
960.783	352.84
961.15	331.77
961.517	320.07
961.884	306.03
962.25	313.05
962.617	275.6
962.983	303.68
963.35	352.84
963.716	317.73
964.082	284.96
964.449	331.77
964.815	275.6
965.181	317.73
965.547	315.39
965.913	364.54
966.279	313.05
966.645	242.83
967.011	254.53
967.377	317.73
967.742	352.84
968.108	299
968.474	291.98
968.839	334.11
969.205	277.94
969.57	341.13
969.935	291.98
970.301	348.15
970.666	313.05
971.031	308.37
971.396	280.28
971.761	277.94
972.126	282.62
972.491	242.83
972.856	315.39
973.221	296.66
973.586	308.37
973.95	277.94
974.315	277.94
974.679	331.77
975.044	289.64
975.408	240.49
975.773	266.24
976.137	336.45
976.501	299
976.866	282.62
977.23	284.96
977.594	275.6
977.958	268.58
978.322	324.75
978.686	357.52
979.049	280.28
979.413	373.9
979.777	270.92
980.141	252.19
980.504	329.43
980.868	310.71
981.231	240.49
981.595	301.34
981.958	357.52
982.321	329.43
982.684	315.39
983.048	313.05
983.411	291.98
983.774	245.17
984.137	301.34
984.5	303.68
984.862	303.68
985.225	287.3
985.588	352.84
985.951	306.03
986.313	289.64
986.676	322.41
987.038	303.68
987.401	322.41
987.763	327.09
988.125	235.81
988.488	289.64
988.85	345.81
989.212	303.68
989.574	348.15
989.936	310.71
990.298	306.03
990.66	315.39
991.022	331.77
991.383	348.15
991.745	352.84
992.107	303.68
992.468	294.32
992.83	331.77
993.191	334.11
993.553	289.64
993.914	336.45
994.275	284.96
994.637	327.09
994.998	299
995.359	259.21
995.72	315.39
996.081	313.05
996.442	324.75
996.803	329.43
997.163	247.51
997.524	299
997.885	317.73
998.245	270.92
998.606	343.47
998.966	284.96
999.327	306.03
999.687	254.53
1000.047	357.52
1000.408	369.22
1000.768	308.37
1001.128	242.83
1001.488	315.39
1001.848	315.39
1002.208	289.64
1002.568	263.9
1002.927	217.08
1003.287	336.45
1003.647	331.77
1004.007	277.94
1004.366	282.62
1004.726	362.2
1005.085	366.88
1005.444	294.32
1005.804	289.64
1006.163	259.21
1006.522	359.86
1006.881	334.11
1007.24	313.05
1007.599	277.94
1007.958	266.24
1008.317	299
1008.676	308.37
1009.035	289.64
1009.393	308.37
1009.752	238.15
1010.111	310.71
1010.469	306.03
1010.828	306.03
1011.186	217.08
1011.544	275.6
1011.903	315.39
1012.261	336.45
1012.619	308.37
1012.977	268.58
1013.335	238.15
1013.693	256.87
1014.051	324.75
1014.409	291.98
1014.767	256.87
1015.124	355.18
1015.482	336.45
1015.84	317.73
1016.197	277.94
1016.555	369.22
1016.912	334.11
1017.269	338.79
1017.627	334.11
1017.984	308.37
1018.341	294.32
1018.698	355.18
1019.055	301.34
1019.412	242.83
1019.769	301.34
1020.126	308.37
1020.483	296.66
1020.84	273.26
1021.196	287.3
1021.553	287.3
1021.909	273.26
1022.266	200.7
1022.622	357.52
1022.979	341.13
1023.335	270.92
1023.691	287.3
1024.047	331.77
1024.404	371.56
1024.76	294.32
1025.116	249.85
1025.472	299
1025.827	247.51
1026.183	322.41
1026.539	303.68
1026.895	280.28
1027.25	287.3
1027.606	317.73
1027.961	242.83
1028.317	350.5
1028.672	310.71
1029.028	303.68
1029.383	245.17
1029.738	357.52
1030.093	280.28
1030.448	296.66
1030.803	341.13
1031.158	240.49
1031.513	296.66
1031.868	254.53
1032.223	313.05
1032.577	252.19
1032.932	280.28
1033.287	303.68
1033.641	338.79
1033.996	317.73
1034.35	334.11
1034.704	268.58
1035.059	299
1035.413	343.47
1035.767	343.47
1036.121	343.47
