Data from Al_FLMS009871__946__16-20-01-121.txt Node

Date: Fri Mar 08 16:20:01 CST 2024
User: pe5414po
Spectrometer: FLMS00987
Trigger mode: 0
Integration Time (sec): 1.000000E-1
Scans to average: 1
Electric dark correction enabled: true
Nonlinearity correction enabled: false
Boxcar width: 0
XAxis mode: Wavelengths
Number of Pixels in Spectrum: 2048
>>>>>Begin Spectral Data<<<<<
188.938	-136.48
189.409	-136.48
189.879	-136.48
190.349	-66.27
190.819	-124.78
191.29	-84.99
191.76	-136.48
192.23	-108.4
192.7	-124.78
193.17	-56.9
193.64	-63.93
194.109	-89.67
194.579	-38.18
195.049	50.76
195.519	81.19
195.988	34.38
196.458	60.12
196.927	109.27
197.397	97.57
197.866	130.34
198.336	139.7
198.805	144.38
199.274	125.66
199.744	186.51
200.213	212.26
200.682	221.62
201.151	205.24
201.62	275.45
202.089	240.34
202.558	252.05
203.027	238
203.495	249.71
203.964	256.73
204.433	261.41
204.902	319.92
205.37	359.71
205.839	261.41
206.307	247.37
206.776	273.11
207.244	273.11
207.712	233.32
208.181	287.15
208.649	312.9
209.117	254.39
209.585	277.79
210.053	254.39
210.521	308.22
210.989	298.86
211.457	226.3
211.925	289.5
212.393	282.47
212.861	245.02
213.328	273.11
213.796	282.47
214.264	240.34
214.731	249.71
215.199	268.43
215.666	235.66
216.133	235.66
216.601	228.64
217.068	200.55
217.535	308.22
218.003	249.71
218.47	287.15
218.937	256.73
219.404	242.68
219.871	226.3
220.338	256.73
220.805	326.94
221.271	256.73
221.738	235.66
222.205	207.58
222.671	242.68
223.138	245.02
223.605	280.13
224.071	273.11
224.538	249.71
225.004	221.62
225.47	268.43
225.937	212.26
226.403	240.34
226.869	233.32
227.335	256.73
227.801	205.24
228.267	233.32
228.733	280.13
229.199	249.71
229.665	275.45
230.131	230.98
230.597	291.84
231.062	245.02
231.528	238
231.994	275.45
232.459	289.5
232.925	305.88
233.39	188.85
233.856	242.68
234.321	289.5
234.786	259.07
235.252	238
235.717	249.71
236.182	216.94
236.647	301.2
237.112	228.64
237.577	242.68
238.042	284.81
238.507	226.3
238.972	230.98
239.436	266.09
239.901	202.9
240.366	247.37
240.83	305.88
241.295	228.64
241.76	252.05
242.224	275.45
242.688	242.68
243.153	308.22
243.617	294.18
244.081	319.92
244.545	247.37
245.01	333.97
245.474	296.52
245.938	294.18
246.402	277.79
246.866	266.09
247.33	261.41
247.793	270.77
248.257	303.54
248.721	228.64
249.185	303.54
249.648	263.75
250.112	268.43
250.575	223.96
251.039	252.05
251.502	195.87
251.965	287.15
252.429	270.77
252.892	305.88
253.355	301.2
253.818	263.75
254.281	223.96
254.744	277.79
255.207	298.86
255.67	315.24
256.133	254.39
256.596	273.11
257.059	233.32
257.522	287.15
257.984	312.9
258.447	301.2
258.909	249.71
259.372	184.17
259.834	294.18
260.297	308.22
260.759	212.26
261.221	280.13
261.684	266.09
262.146	247.37
262.608	245.02
263.07	303.54
263.532	324.6
263.994	308.22
264.456	256.73
264.918	287.15
265.38	233.32
265.842	256.73
266.303	296.52
266.765	270.77
267.227	275.45
267.688	277.79
268.15	247.37
268.611	270.77
269.072	291.84
269.534	261.41
269.995	247.37
270.456	247.37
270.918	291.84
271.379	324.6
271.84	240.34
272.301	298.86
272.762	270.77
273.223	245.02
273.684	242.68
274.144	261.41
274.605	263.75
275.066	254.39
275.527	245.02
275.987	329.28
276.448	329.28
276.908	245.02
277.369	301.2
277.829	329.28
278.289	296.52
278.75	315.24
279.21	362.05
279.67	343.33
280.13	296.52
280.59	247.37
281.05	317.58
281.51	261.41
281.97	280.13
282.43	298.86
282.89	359.71
283.35	268.43
283.809	291.84
284.269	319.92
284.729	254.39
285.188	289.5
285.648	270.77
286.107	357.37
286.567	301.2
287.026	282.47
287.485	291.84
287.944	245.02
288.404	268.43
288.863	324.6
289.322	324.6
289.781	273.11
290.24	310.56
290.699	280.13
291.158	256.73
291.616	312.9
292.075	333.97
292.534	263.75
292.992	315.24
293.451	228.64
293.91	252.05
294.368	322.26
294.827	287.15
295.285	326.94
295.743	298.86
296.202	319.92
296.66	289.5
297.118	308.22
297.576	366.73
298.034	310.56
298.492	268.43
298.95	249.71
299.408	305.88
299.866	324.6
300.324	333.97
300.781	331.62
301.239	294.18
301.697	312.9
302.154	284.81
302.612	284.81
303.069	270.77
303.527	326.94
303.984	252.05
304.441	280.13
304.899	261.41
305.356	301.2
305.813	287.15
306.27	362.05
306.727	291.84
307.184	282.47
307.641	357.37
308.098	280.13
308.555	284.81
309.012	277.79
309.468	305.88
309.925	273.11
310.382	282.47
310.838	270.77
311.295	280.13
311.751	261.41
312.208	319.92
312.664	348.01
313.12	268.43
313.577	287.15
314.033	287.15
314.489	282.47
314.945	319.92
315.401	298.86
315.857	312.9
316.313	275.45
316.769	282.47
317.225	305.88
317.681	296.52
318.136	270.77
318.592	322.26
319.048	268.43
319.503	238
319.959	219.28
320.414	333.97
320.869	322.26
321.325	298.86
321.78	345.67
322.235	336.31
322.691	355.03
323.146	266.09
323.601	277.79
324.056	296.52
324.511	259.07
324.966	305.88
325.421	331.62
325.875	303.54
326.33	275.45
326.785	270.77
327.24	326.94
327.694	326.94
328.149	317.58
328.603	289.5
329.058	329.28
329.512	305.88
329.966	291.84
330.421	282.47
330.875	216.94
331.329	343.33
331.783	294.18
332.237	230.98
332.691	338.65
333.145	333.97
333.599	256.73
334.053	256.73
334.507	308.22
334.96	282.47
335.414	298.86
335.868	289.5
336.321	345.67
336.775	230.98
337.228	315.24
337.682	287.15
338.135	291.84
338.588	291.84
339.042	280.13
339.495	340.99
339.948	280.13
340.401	291.84
340.854	324.6
341.307	352.69
341.76	275.45
342.213	305.88
342.666	305.88
343.119	298.86
343.571	298.86
344.024	303.54
344.477	284.81
344.929	294.18
345.382	296.52
345.834	291.84
346.287	289.5
346.739	284.81
347.191	275.45
347.644	322.26
348.096	362.05
348.548	324.6
349	275.45
349.452	340.99
349.904	364.39
350.356	261.41
350.808	270.77
351.26	322.26
351.711	359.71
352.163	273.11
352.615	310.56
353.066	305.88
353.518	322.26
353.969	270.77
354.421	249.71
354.872	324.6
355.324	280.13
355.775	284.81
356.226	399.5
356.677	317.58
357.128	378.44
357.579	296.52
358.03	317.58
358.481	308.22
358.932	273.11
359.383	308.22
359.834	303.54
360.285	268.43
360.735	352.69
361.186	268.43
361.637	287.15
362.087	242.68
362.538	294.18
362.988	317.58
363.438	331.62
363.889	345.67
364.339	282.47
364.789	298.86
365.239	301.2
365.689	336.31
366.139	291.84
366.589	291.84
367.039	235.66
367.489	310.56
367.939	245.02
368.389	287.15
368.839	362.05
369.288	291.84
369.738	305.88
370.187	221.62
370.637	331.62
371.086	317.58
371.536	329.28
371.985	275.45
372.434	289.5
372.884	256.73
373.333	324.6
373.782	259.07
374.231	280.13
374.68	287.15
375.129	336.31
375.578	326.94
376.027	298.86
376.475	263.75
376.924	317.58
377.373	273.11
377.822	273.11
378.27	343.33
378.719	343.33
379.167	291.84
379.616	235.66
380.064	338.65
380.512	303.54
380.961	331.62
381.409	305.88
381.857	216.94
382.305	291.84
382.753	238
383.201	289.5
383.649	312.9
384.097	324.6
384.545	348.01
384.992	284.81
385.44	273.11
385.888	275.45
386.335	280.13
386.783	235.66
387.231	326.94
387.678	319.92
388.125	247.37
388.573	277.79
389.02	282.47
389.467	333.97
389.914	287.15
390.362	284.81
390.809	303.54
391.256	296.52
391.703	219.28
392.15	340.99
392.596	289.5
393.043	280.13
393.49	275.45
393.937	317.58
394.383	242.68
394.83	273.11
395.276	324.6
395.723	238
396.169	305.88
396.616	329.28
397.062	324.6
397.508	336.31
397.954	359.71
398.401	322.26
398.847	216.94
399.293	317.58
399.739	235.66
400.185	275.45
400.631	270.77
401.076	301.2
401.522	282.47
401.968	338.65
402.414	312.9
402.859	324.6
403.305	366.73
403.75	301.2
404.196	301.2
404.641	275.45
405.086	312.9
405.532	287.15
405.977	333.97
406.422	296.52
406.867	252.05
407.312	284.81
407.757	284.81
408.202	298.86
408.647	270.77
409.092	287.15
409.537	238
409.982	331.62
410.426	301.2
410.871	254.39
411.316	256.73
411.76	270.77
412.205	275.45
412.649	315.24
413.093	282.47
413.538	266.09
413.982	315.24
414.426	312.9
414.87	284.81
415.314	324.6
415.758	280.13
416.202	326.94
416.646	294.18
417.09	326.94
417.534	308.22
417.978	282.47
418.421	305.88
418.865	261.41
419.309	324.6
419.752	221.62
420.196	287.15
420.639	228.64
421.083	301.2
421.526	308.22
421.969	294.18
422.412	355.03
422.856	289.5
423.299	301.2
423.742	301.2
424.185	331.62
424.628	291.84
425.071	291.84
425.513	305.88
425.956	259.07
426.399	317.58
426.842	338.65
427.284	235.66
427.727	359.71
428.169	322.26
428.612	348.01
429.054	287.15
429.497	310.56
429.939	266.09
430.381	270.77
430.823	296.52
431.265	275.45
431.707	329.28
432.149	252.05
432.591	310.56
433.033	331.62
433.475	336.31
433.917	305.88
434.359	291.84
434.8	319.92
435.242	298.86
435.684	249.71
436.125	326.94
436.567	315.24
437.008	249.71
437.449	305.88
437.891	228.64
438.332	282.47
438.773	308.22
439.214	369.07
439.656	303.54
440.097	284.81
440.538	315.24
440.978	319.92
441.419	252.05
441.86	266.09
442.301	284.81
442.742	256.73
443.182	282.47
443.623	305.88
444.063	303.54
444.504	289.5
444.944	406.52
445.385	408.86
445.825	326.94
446.265	331.62
446.706	291.84
447.146	294.18
447.586	298.86
448.026	343.33
448.466	284.81
448.906	310.56
449.346	294.18
449.786	277.79
450.225	326.94
450.665	294.18
451.105	287.15
451.544	317.58
451.984	303.54
452.424	343.33
452.863	284.81
453.302	317.58
453.742	348.01
454.181	289.5
454.62	280.13
455.059	336.31
455.499	319.92
455.938	263.75
456.377	343.33
456.816	343.33
457.254	277.79
457.693	333.97
458.132	291.84
458.571	317.58
459.01	345.67
459.448	270.77
459.887	242.68
460.325	376.09
460.764	329.28
461.202	254.39
461.641	319.92
462.079	338.65
462.517	268.43
462.955	380.78
463.393	305.88
463.832	277.79
464.27	282.47
464.708	298.86
465.145	242.68
465.583	308.22
466.021	322.26
466.459	352.69
466.897	305.88
467.334	348.01
467.772	324.6
468.209	322.26
468.647	247.37
469.084	336.31
469.522	376.09
469.959	355.03
470.396	298.86
470.833	298.86
471.271	263.75
471.708	254.39
472.145	380.78
472.582	277.79
473.019	305.88
473.456	329.28
473.892	240.34
474.329	275.45
474.766	284.81
475.202	317.58
475.639	324.6
476.076	256.73
476.512	303.54
476.949	275.45
477.385	301.2
477.821	280.13
478.258	275.45
478.694	312.9
479.13	275.45
479.566	287.15
480.002	282.47
480.438	298.86
480.874	289.5
481.31	373.75
481.746	322.26
482.181	333.97
482.617	305.88
483.053	296.52
483.488	235.66
483.924	336.31
484.36	303.54
484.795	350.35
485.23	270.77
485.666	310.56
486.101	268.43
486.536	308.22
486.971	284.81
487.407	324.6
487.842	301.2
488.277	275.45
488.712	333.97
489.146	326.94
489.581	340.99
490.016	305.88
490.451	294.18
490.885	317.58
491.32	343.33
491.755	294.18
492.189	331.62
492.624	355.03
493.058	343.33
493.492	331.62
493.927	289.5
494.361	340.99
494.795	338.65
495.229	350.35
495.663	317.58
496.097	348.01
496.531	369.07
496.965	338.65
497.399	242.68
497.833	357.37
498.266	282.47
498.7	336.31
499.134	348.01
499.567	385.46
500.001	333.97
500.434	259.07
500.868	226.3
501.301	319.92
501.734	343.33
502.168	369.07
502.601	242.68
503.034	282.47
503.467	198.21
503.9	289.5
504.333	303.54
504.766	296.52
505.199	277.79
505.632	273.11
506.064	329.28
506.497	252.05
506.93	298.86
507.362	266.09
507.795	291.84
508.227	329.28
508.66	301.2
509.092	301.2
509.524	340.99
509.956	305.88
510.389	310.56
510.821	343.33
511.253	301.2
511.685	294.18
512.117	317.58
512.549	268.43
512.981	275.45
513.412	245.02
513.844	294.18
514.276	287.15
514.707	350.35
515.139	284.81
515.571	333.97
516.002	378.44
516.433	317.58
516.865	340.99
517.296	280.13
517.727	345.67
518.159	322.26
518.59	357.37
519.021	238
519.452	324.6
519.883	310.56
520.314	308.22
520.744	305.88
521.175	294.18
521.606	303.54
522.037	343.33
522.467	291.84
522.898	336.31
523.328	261.41
523.759	242.68
524.189	312.9
524.62	319.92
525.05	329.28
525.48	291.84
525.91	343.33
526.341	326.94
526.771	259.07
527.201	245.02
527.631	357.37
528.061	289.5
528.49	390.14
528.92	336.31
529.35	301.2
529.78	230.98
530.209	301.2
530.639	256.73
531.068	287.15
531.498	291.84
531.927	322.26
532.357	315.24
532.786	238
533.215	355.03
533.644	296.52
534.074	317.58
534.503	326.94
534.932	340.99
535.361	315.24
535.79	401.84
536.218	305.88
536.647	324.6
537.076	364.39
537.505	312.9
537.933	287.15
538.362	308.22
538.79	289.5
539.219	366.73
539.647	261.41
540.076	284.81
540.504	291.84
540.932	273.11
541.36	301.2
541.788	301.2
542.217	331.62
542.645	324.6
543.073	254.39
543.5	296.52
543.928	404.18
544.356	252.05
544.784	294.18
545.211	394.82
545.639	373.75
546.067	245.02
546.494	366.73
546.922	242.68
547.349	348.01
547.776	319.92
548.204	333.97
548.631	268.43
549.058	310.56
549.485	324.6
549.912	282.47
550.339	261.41
550.766	340.99
551.193	301.2
551.62	340.99
552.047	352.69
552.474	319.92
552.9	289.5
553.327	277.79
553.754	242.68
554.18	270.77
554.607	319.92
555.033	310.56
555.459	275.45
555.886	319.92
556.312	301.2
556.738	245.02
557.164	319.92
557.59	303.54
558.016	305.88
558.442	338.65
558.868	366.73
559.294	277.79
559.72	317.58
560.145	308.22
560.571	301.2
560.997	287.15
561.422	280.13
561.848	273.11
562.273	305.88
562.699	319.92
563.124	336.31
563.549	273.11
563.974	343.33
564.4	261.41
564.825	249.71
565.25	282.47
565.675	319.92
566.1	369.07
566.525	226.3
566.95	303.54
567.374	277.79
567.799	273.11
568.224	294.18
568.648	310.56
569.073	326.94
569.497	289.5
569.922	287.15
570.346	312.9
570.771	319.92
571.195	329.28
571.619	319.92
572.043	308.22
572.467	270.77
572.891	277.79
573.315	333.97
573.739	245.02
574.163	277.79
574.587	240.34
575.011	280.13
575.435	280.13
575.858	254.39
576.282	303.54
576.705	298.86
577.129	319.92
577.552	301.2
577.976	324.6
578.399	326.94
578.822	268.43
579.245	305.88
579.669	324.6
580.092	298.86
580.515	305.88
580.938	331.62
581.361	298.86
581.784	223.96
582.206	296.52
582.629	378.44
583.052	326.94
583.474	291.84
583.897	301.2
584.32	280.13
584.742	303.54
585.165	333.97
585.587	305.88
586.009	291.84
586.431	282.47
586.854	247.37
587.276	340.99
587.698	345.67
588.12	362.05
588.542	310.56
588.964	284.81
589.386	312.9
589.807	319.92
590.229	280.13
590.651	310.56
591.073	322.26
591.494	261.41
591.916	362.05
592.337	301.2
592.759	315.24
593.18	294.18
593.601	338.65
594.022	294.18
594.444	268.43
594.865	322.26
595.286	350.35
595.707	259.07
596.128	317.58
596.549	284.81
596.97	308.22
597.39	298.86
597.811	312.9
598.232	305.88
598.652	289.5
599.073	310.56
599.494	315.24
599.914	266.09
600.334	359.71
600.755	319.92
601.175	305.88
601.595	266.09
602.015	312.9
602.436	298.86
602.856	404.18
603.276	308.22
603.696	289.5
604.115	275.45
604.535	301.2
604.955	282.47
605.375	324.6
605.794	291.84
606.214	303.54
606.634	235.66
607.053	291.84
607.473	350.35
607.892	301.2
608.311	322.26
608.731	291.84
609.15	268.43
609.569	294.18
609.988	249.71
610.407	364.39
610.826	273.11
611.245	359.71
611.664	266.09
612.083	359.71
612.501	324.6
612.92	291.84
613.339	359.71
613.757	317.58
614.176	364.39
614.594	280.13
615.013	319.92
615.431	331.62
615.85	324.6
616.268	245.02
616.686	319.92
617.104	291.84
617.522	284.81
617.94	294.18
618.358	343.33
618.776	357.37
619.194	305.88
619.612	322.26
620.03	284.81
620.447	308.22
620.865	333.97
621.282	303.54
621.7	308.22
622.117	294.18
622.535	310.56
622.952	294.18
623.369	345.67
623.787	333.97
624.204	317.58
624.621	352.69
625.038	322.26
625.455	366.73
625.872	303.54
626.289	277.79
626.706	238
627.123	266.09
627.539	296.52
627.956	284.81
628.373	289.5
628.789	317.58
629.206	340.99
629.622	266.09
630.038	289.5
630.455	301.2
630.871	282.47
631.287	355.03
631.703	284.81
632.12	315.24
632.536	324.6
632.952	296.52
633.368	343.33
633.783	275.45
634.199	308.22
634.615	298.86
635.031	364.39
635.446	336.31
635.862	275.45
636.277	319.92
636.693	282.47
637.108	263.75
637.524	371.41
637.939	312.9
638.354	301.2
638.77	259.07
639.185	291.84
639.6	284.81
640.015	275.45
640.43	310.56
640.845	331.62
641.259	315.24
641.674	256.73
642.089	317.58
642.504	301.2
642.918	289.5
643.333	331.62
643.747	359.71
644.162	333.97
644.576	301.2
644.991	324.6
645.405	326.94
645.819	280.13
646.233	322.26
646.647	287.15
647.061	340.99
647.475	282.47
647.889	301.2
648.303	312.9
648.717	247.37
649.131	298.86
649.545	282.47
649.958	338.65
650.372	270.77
650.785	322.26
651.199	305.88
651.612	296.52
652.026	305.88
652.439	296.52
652.852	266.09
653.266	256.73
653.679	284.81
654.092	317.58
654.505	294.18
654.918	317.58
655.331	326.94
655.744	322.26
656.156	268.43
656.569	340.99
656.982	305.88
657.394	319.92
657.807	275.45
658.22	317.58
658.632	303.54
659.044	266.09
659.457	301.2
659.869	322.26
660.281	315.24
660.693	247.37
661.106	317.58
661.518	282.47
661.93	336.31
662.342	280.13
662.754	336.31
663.165	315.24
663.577	310.56
663.989	287.15
664.401	329.28
664.812	282.47
665.224	303.54
665.635	315.24
666.047	373.75
666.458	315.24
666.869	263.75
667.281	397.16
667.692	275.45
668.103	263.75
668.514	345.67
668.925	319.92
669.336	317.58
669.747	266.09
670.158	268.43
670.569	305.88
670.979	277.79
671.39	282.47
671.801	270.77
672.211	350.35
672.622	317.58
673.032	378.44
673.443	315.24
673.853	282.47
674.263	326.94
674.674	371.41
675.084	242.68
675.494	317.58
675.904	296.52
676.314	277.79
676.724	270.77
677.134	282.47
677.544	230.98
677.953	275.45
678.363	317.58
678.773	333.97
679.182	277.79
679.592	359.71
680.001	308.22
680.411	324.6
680.82	275.45
681.23	298.86
681.639	345.67
682.048	305.88
682.457	308.22
682.866	326.94
683.275	305.88
683.684	338.65
684.093	298.86
684.502	394.82
684.911	282.47
685.32	303.54
685.728	366.73
686.137	287.15
686.546	273.11
686.954	259.07
687.363	364.39
687.771	282.47
688.179	261.41
688.588	277.79
688.996	322.26
689.404	291.84
689.812	310.56
690.22	310.56
690.628	369.07
691.036	308.22
691.444	282.47
691.852	329.28
692.26	329.28
692.667	383.12
693.075	348.01
693.483	352.69
693.89	273.11
694.298	315.24
694.705	282.47
695.112	305.88
695.52	284.81
695.927	315.24
696.334	350.35
696.741	291.84
697.148	275.45
697.555	275.45
697.962	340.99
698.369	317.58
698.776	352.69
699.183	294.18
699.59	275.45
699.996	326.94
700.403	282.47
700.81	322.26
701.216	364.39
701.623	326.94
702.029	357.37
702.435	277.79
702.842	317.58
703.248	230.98
703.654	240.34
704.06	259.07
704.466	205.24
704.872	249.71
705.278	317.58
705.684	312.9
706.09	289.5
706.496	245.02
706.901	294.18
707.307	333.97
707.712	355.03
708.118	273.11
708.523	352.69
708.929	303.54
709.334	303.54
709.74	282.47
710.145	273.11
710.55	317.58
710.955	303.54
711.36	284.81
711.765	282.47
712.17	371.41
712.575	319.92
712.98	846.54
713.385	331.62
713.789	273.11
714.194	294.18
714.599	277.79
715.003	294.18
715.408	233.32
715.812	235.66
716.217	331.62
716.621	336.31
717.025	256.73
717.429	301.2
717.833	287.15
718.238	312.9
718.642	268.43
719.046	312.9
719.449	371.41
719.853	312.9
720.257	303.54
720.661	289.5
721.065	326.94
721.468	303.54
721.872	294.18
722.275	326.94
722.679	319.92
723.082	310.56
723.485	252.05
723.889	322.26
724.292	305.88
724.695	268.43
725.098	301.2
725.501	291.84
725.904	303.54
726.307	256.73
726.71	256.73
727.113	273.11
727.516	324.6
727.918	289.5
728.321	298.86
728.724	355.03
729.126	319.92
729.529	331.62
729.931	343.33
730.333	235.66
730.736	277.79
731.138	273.11
731.54	312.9
731.942	294.18
732.344	319.92
732.746	294.18
733.148	287.15
733.55	275.45
733.952	294.18
734.354	296.52
734.756	233.32
735.157	303.54
735.559	247.37
735.96	340.99
736.362	364.39
736.763	296.52
737.165	289.5
737.566	303.54
737.967	261.41
738.368	305.88
738.77	284.81
739.171	301.2
739.572	355.03
739.973	259.07
740.374	284.81
740.774	270.77
741.175	310.56
741.576	310.56
741.977	252.05
742.377	378.44
742.778	319.92
743.178	282.47
743.579	333.97
743.979	301.2
744.379	252.05
744.78	296.52
745.18	287.15
745.58	317.58
745.98	287.15
746.38	296.52
746.78	294.18
747.18	266.09
747.58	282.47
747.98	270.77
748.38	340.99
748.779	298.86
749.179	294.18
749.578	254.39
749.978	305.88
750.377	303.54
750.777	291.84
751.176	303.54
751.575	329.28
751.975	242.68
752.374	233.32
752.773	226.3
753.172	270.77
753.571	245.02
753.97	287.15
754.369	301.2
754.768	319.92
755.166	319.92
755.565	287.15
755.964	308.22
756.362	259.07
756.761	296.52
757.159	282.47
757.558	280.13
757.956	343.33
758.354	331.62
758.753	350.35
759.151	273.11
759.549	348.01
759.947	355.03
760.345	256.73
760.743	280.13
761.141	287.15
761.539	329.28
761.936	273.11
762.334	308.22
762.732	296.52
763.129	298.86
763.527	235.66
763.924	315.24
764.322	324.6
764.719	261.41
765.117	305.88
765.514	310.56
765.911	308.22
766.308	284.81
766.705	338.65
767.102	247.37
767.499	305.88
767.896	315.24
768.293	256.73
768.69	277.79
769.086	303.54
769.483	298.86
769.88	275.45
770.276	266.09
770.673	355.03
771.069	369.07
771.466	324.6
771.862	289.5
772.258	233.32
772.654	357.37
773.05	247.37
773.447	373.75
773.843	319.92
774.239	305.88
774.634	282.47
775.03	336.31
775.426	301.2
775.822	315.24
776.218	308.22
776.613	343.33
777.009	329.28
777.404	357.37
777.8	261.41
778.195	287.15
778.59	308.22
778.986	273.11
779.381	282.47
779.776	301.2
780.171	280.13
780.566	282.47
780.961	343.33
781.356	343.33
781.751	352.69
782.146	338.65
782.54	310.56
782.935	308.22
783.33	326.94
783.724	261.41
784.119	333.97
784.513	287.15
784.908	319.92
785.302	352.69
785.696	324.6
786.09	336.31
786.485	312.9
786.879	333.97
787.273	252.05
787.667	373.75
788.061	296.52
788.454	326.94
788.848	261.41
789.242	282.47
789.636	287.15
790.029	294.18
790.423	324.6
790.816	305.88
791.21	305.88
791.603	359.71
791.997	298.86
792.39	298.86
792.783	284.81
793.176	247.37
793.569	336.31
793.962	338.65
794.355	301.2
794.748	336.31
795.141	261.41
795.534	319.92
795.927	291.84
796.319	287.15
796.712	301.2
797.105	376.09
797.497	282.47
797.89	324.6
798.282	275.45
798.674	287.15
799.067	333.97
799.459	263.75
799.851	298.86
800.243	298.86
800.635	303.54
801.027	322.26
801.419	273.11
801.811	277.79
802.203	310.56
802.594	340.99
802.986	303.54
803.378	282.47
803.769	317.58
804.161	291.84
804.552	317.58
804.944	284.81
805.335	329.28
805.726	348.01
806.118	390.14
806.509	287.15
806.9	322.26
807.291	305.88
807.682	263.75
808.073	322.26
808.464	350.35
808.855	247.37
809.245	369.07
809.636	296.52
810.027	270.77
810.417	280.13
810.808	312.9
811.198	312.9
811.589	336.31
811.979	291.84
812.369	277.79
812.759	322.26
813.15	308.22
813.54	259.07
813.93	245.02
814.32	298.86
814.71	298.86
815.1	249.71
815.489	359.71
815.879	394.82
816.269	305.88
816.658	245.02
817.048	317.58
817.438	275.45
817.827	282.47
818.216	289.5
818.606	277.79
818.995	333.97
819.384	270.77
819.773	287.15
820.163	301.2
820.552	256.73
820.941	289.5
821.33	277.79
821.718	270.77
822.107	282.47
822.496	331.62
822.885	301.2
823.273	331.62
823.662	305.88
824.05	268.43
824.439	252.05
824.827	319.92
825.216	275.45
825.604	261.41
825.992	261.41
826.38	319.92
826.768	282.47
827.156	280.13
827.544	305.88
827.932	301.2
828.32	282.47
828.708	380.78
829.096	324.6
829.483	322.26
829.871	240.34
830.259	296.52
830.646	345.67
831.034	298.86
831.421	298.86
831.808	331.62
832.196	289.5
832.583	296.52
832.97	249.71
833.357	408.86
833.744	308.22
834.131	291.84
834.518	317.58
834.905	275.45
835.292	280.13
835.678	291.84
836.065	324.6
836.452	291.84
836.838	308.22
837.225	301.2
837.611	390.14
837.998	266.09
838.384	348.01
838.77	366.73
839.157	184.17
839.543	266.09
839.929	294.18
840.315	343.33
840.701	226.3
841.087	331.62
841.473	298.86
841.858	303.54
842.244	256.73
842.63	315.24
843.015	303.54
843.401	568.02
843.787	298.86
844.172	261.41
844.557	308.22
844.943	364.39
845.328	242.68
845.713	287.15
846.098	277.79
846.483	259.07
846.868	291.84
847.253	324.6
847.638	317.58
848.023	303.54
848.408	294.18
848.793	291.84
849.177	331.62
849.562	301.2
849.947	312.9
850.331	312.9
850.715	366.73
851.1	238
851.484	357.37
851.868	280.13
852.253	256.73
852.637	240.34
853.021	284.81
853.405	254.39
853.789	282.47
854.173	378.44
854.557	331.62
854.94	275.45
855.324	249.71
855.708	282.47
856.091	284.81
856.475	284.81
856.858	336.31
857.242	317.58
857.625	348.01
858.009	303.54
858.392	275.45
858.775	273.11
859.158	263.75
859.541	319.92
859.924	359.71
860.307	326.94
860.69	348.01
861.073	296.52
861.456	277.79
861.838	340.99
862.221	305.88
862.604	282.47
862.986	359.71
863.369	247.37
863.751	317.58
864.133	303.54
864.516	366.73
864.898	308.22
865.28	308.22
865.662	268.43
866.044	312.9
866.426	296.52
866.808	296.52
867.19	366.73
867.572	331.62
867.954	247.37
868.336	256.73
868.717	298.86
869.099	319.92
869.48	261.41
869.862	266.09
870.243	294.18
870.625	282.47
871.006	249.71
871.387	301.2
871.768	298.86
872.149	317.58
872.53	366.73
872.911	247.37
873.292	263.75
873.673	259.07
874.054	362.05
874.435	305.88
874.815	266.09
875.196	301.2
875.577	294.18
875.957	280.13
876.338	336.31
876.718	331.62
877.098	268.43
877.479	303.54
877.859	362.05
878.239	343.33
878.619	312.9
878.999	233.32
879.379	242.68
879.759	256.73
880.139	308.22
880.519	266.09
880.898	291.84
881.278	343.33
881.658	317.58
882.037	287.15
882.417	317.58
882.796	296.52
883.176	252.05
883.555	287.15
883.934	355.03
884.313	230.98
884.693	261.41
885.072	338.65
885.451	331.62
885.83	343.33
886.209	308.22
886.587	282.47
886.966	357.37
887.345	359.71
887.724	312.9
888.102	310.56
888.481	338.65
888.859	324.6
889.238	247.37
889.616	350.35
889.994	343.33
890.373	268.43
890.751	340.99
891.129	284.81
891.507	294.18
891.885	294.18
892.263	284.81
892.641	266.09
893.019	312.9
893.396	270.77
893.774	280.13
894.152	275.45
894.529	317.58
894.907	266.09
895.284	268.43
895.662	305.88
896.039	331.62
896.416	273.11
896.794	303.54
897.171	308.22
897.548	247.37
897.925	256.73
898.302	291.84
898.679	261.41
899.056	291.84
899.433	289.5
899.809	205.24
900.186	319.92
900.563	338.65
900.939	301.2
901.316	291.84
901.692	249.71
902.069	305.88
902.445	301.2
902.821	329.28
903.197	296.52
903.574	289.5
903.95	350.35
904.326	301.2
904.702	305.88
905.078	308.22
905.454	296.52
905.829	294.18
906.205	319.92
906.581	289.5
906.956	268.43
907.332	303.54
907.707	383.12
908.083	357.37
908.458	254.39
908.833	280.13
909.209	308.22
909.584	273.11
909.959	305.88
910.334	333.97
910.709	310.56
911.084	249.71
911.459	366.73
911.834	298.86
912.209	266.09
912.583	390.14
912.958	303.54
913.333	240.34
913.707	268.43
914.082	289.5
914.456	252.05
914.83	312.9
915.205	205.24
915.579	247.37
915.953	282.47
916.327	324.6
916.701	266.09
917.075	282.47
917.449	308.22
917.823	273.11
918.197	294.18
918.571	294.18
918.944	310.56
919.318	291.84
919.692	249.71
920.065	289.5
920.438	261.41
920.812	324.6
921.185	296.52
921.558	345.67
921.932	254.39
922.305	268.43
922.678	294.18
923.051	326.94
923.424	301.2
923.797	249.71
924.17	256.73
924.542	322.26
924.915	329.28
925.288	301.2
925.661	387.8
926.033	331.62
926.406	266.09
926.778	287.15
927.15	301.2
927.523	331.62
927.895	280.13
928.267	355.03
928.639	289.5
929.011	329.28
929.383	303.54
929.755	254.39
930.127	315.24
930.499	310.56
930.871	305.88
931.242	214.6
931.614	343.33
931.986	308.22
932.357	371.41
932.729	266.09
933.1	315.24
933.471	266.09
933.843	254.39
934.214	284.81
934.585	275.45
934.956	261.41
935.327	312.9
935.698	282.47
936.069	238
936.44	298.86
936.811	324.6
937.182	298.86
937.552	315.24
937.923	252.05
938.293	277.79
938.664	266.09
939.034	249.71
939.405	340.99
939.775	315.24
940.145	331.62
940.516	256.73
940.886	289.5
941.256	331.62
941.626	289.5
941.996	266.09
942.366	336.31
942.735	376.09
943.105	280.13
943.475	282.47
943.845	294.18
944.214	315.24
944.584	277.79
944.953	259.07
945.323	296.52
945.692	322.26
946.061	312.9
946.43	322.26
946.8	326.94
947.169	228.64
947.538	205.24
947.907	373.75
948.276	326.94
948.645	329.28
949.013	294.18
949.382	245.02
949.751	240.34
950.119	333.97
950.488	296.52
950.857	242.68
951.225	174.81
951.593	298.86
951.962	340.99
952.33	256.73
952.698	305.88
953.066	298.86
953.434	254.39
953.802	289.5
954.17	242.68
954.538	308.22
954.906	268.43
955.274	319.92
955.642	324.6
956.009	319.92
956.377	268.43
956.744	298.86
957.112	315.24
957.479	242.68
957.847	277.79
958.214	355.03
958.581	305.88
958.948	266.09
959.315	263.75
959.683	294.18
960.05	287.15
960.416	242.68
960.783	266.09
961.15	268.43
961.517	228.64
961.884	340.99
962.25	357.37
962.617	355.03
962.983	256.73
963.35	270.77
963.716	284.81
964.082	287.15
964.449	315.24
964.815	266.09
965.181	277.79
965.547	340.99
965.913	266.09
966.279	247.37
966.645	238
967.011	317.58
967.377	214.6
967.742	242.68
968.108	345.67
968.474	345.67
968.839	273.11
969.205	319.92
969.57	268.43
969.935	338.65
970.301	277.79
970.666	305.88
971.031	291.84
971.396	308.22
971.761	277.79
972.126	270.77
972.491	340.99
972.856	235.66
973.221	310.56
973.586	345.67
973.95	291.84
974.315	355.03
974.679	348.01
975.044	287.15
975.408	343.33
975.773	305.88
976.137	273.11
976.501	310.56
976.866	261.41
977.23	308.22
977.594	340.99
977.958	319.92
978.322	305.88
978.686	263.75
979.049	226.3
979.413	331.62
979.777	226.3
980.141	261.41
980.504	296.52
980.868	259.07
981.231	317.58
981.595	305.88
981.958	329.28
982.321	317.58
982.684	289.5
983.048	324.6
983.411	322.26
983.774	259.07
984.137	296.52
984.5	259.07
984.862	322.26
985.225	270.77
985.588	238
985.951	317.58
986.313	378.44
986.676	228.64
987.038	366.73
987.401	308.22
987.763	245.02
988.125	289.5
988.488	317.58
988.85	230.98
989.212	329.28
989.574	310.56
989.936	240.34
990.298	254.39
990.66	284.81
991.022	259.07
991.383	287.15
991.745	340.99
992.107	310.56
992.468	317.58
992.83	261.41
993.191	331.62
993.553	280.13
993.914	315.24
994.275	296.52
994.637	235.66
994.998	326.94
995.359	315.24
995.72	369.07
996.081	317.58
996.442	301.2
996.803	259.07
997.163	270.77
997.524	298.86
997.885	291.84
998.245	348.01
998.606	294.18
998.966	245.02
999.327	305.88
999.687	301.2
1000.047	333.97
1000.408	303.54
1000.768	287.15
1001.128	322.26
1001.488	338.65
1001.848	284.81
1002.208	298.86
1002.568	280.13
1002.927	303.54
1003.287	319.92
1003.647	294.18
1004.007	273.11
1004.366	305.88
1004.726	261.41
1005.085	282.47
1005.444	345.67
1005.804	324.6
1006.163	270.77
1006.522	324.6
1006.881	348.01
1007.24	333.97
1007.599	266.09
1007.958	343.33
1008.317	214.6
1008.676	315.24
1009.035	270.77
1009.393	284.81
1009.752	355.03
1010.111	249.71
1010.469	261.41
1010.828	310.56
1011.186	270.77
1011.544	287.15
1011.903	322.26
1012.261	277.79
1012.619	259.07
1012.977	245.02
1013.335	312.9
1013.693	266.09
1014.051	308.22
1014.409	331.62
1014.767	268.43
1015.124	256.73
1015.482	317.58
1015.84	324.6
1016.197	266.09
1016.555	252.05
1016.912	312.9
1017.269	249.71
1017.627	312.9
1017.984	294.18
1018.341	305.88
1018.698	214.6
1019.055	312.9
1019.412	266.09
1019.769	294.18
1020.126	294.18
1020.483	310.56
1020.84	284.81
1021.196	242.68
1021.553	345.67
1021.909	261.41
1022.266	301.2
1022.622	298.86
1022.979	259.07
1023.335	249.71
1023.691	291.84
1024.047	291.84
1024.404	310.56
1024.76	270.77
1025.116	345.67
1025.472	324.6
1025.827	319.92
1026.183	263.75
1026.539	324.6
1026.895	338.65
1027.25	289.5
1027.606	333.97
1027.961	282.47
1028.317	331.62
1028.672	301.2
1029.028	268.43
1029.383	289.5
1029.738	240.34
1030.093	345.67
1030.448	282.47
1030.803	256.73
1031.158	305.88
1031.513	298.86
1031.868	240.34
1032.223	324.6
1032.577	326.94
1032.932	242.68
1033.287	268.43
1033.641	336.31
1033.996	280.13
1034.35	235.66
1034.704	301.2
1035.059	308.22
1035.413	329.28
1035.767	329.28
1036.121	329.28
