Data from Al_FLMS009871__950__16-20-01-521.txt Node

Date: Fri Mar 08 16:20:01 CST 2024
User: pe5414po
Spectrometer: FLMS00987
Trigger mode: 0
Integration Time (sec): 1.000000E-1
Scans to average: 1
Electric dark correction enabled: true
Nonlinearity correction enabled: false
Boxcar width: 0
XAxis mode: Wavelengths
Number of Pixels in Spectrum: 2048
>>>>>Begin Spectral Data<<<<<
188.938	-74.02
189.409	-74.02
189.879	-74.02
190.349	-41.25
190.819	-141.89
191.29	-162.96
191.76	-102.11
192.23	-59.98
192.7	-76.36
193.17	-116.15
193.64	-29.55
194.109	-22.53
194.579	45.35
195.049	-41.25
195.519	-10.82
195.988	75.77
196.458	82.8
196.927	80.46
197.397	124.93
197.866	127.27
198.336	85.14
198.805	145.99
199.274	199.82
199.744	176.42
200.213	246.63
200.682	258.34
201.151	270.04
201.62	312.17
202.089	277.06
202.558	265.36
203.027	405.79
203.495	351.96
203.964	377.7
204.433	302.81
204.902	349.62
205.37	377.7
205.839	424.51
206.307	363.66
206.776	433.88
207.244	340.26
207.712	499.41
208.181	508.77
208.649	454.94
209.117	466.64
209.585	522.82
210.053	522.82
210.521	569.63
210.989	522.82
211.457	646.87
211.925	674.95
212.393	815.38
212.861	745.17
213.328	637.5
213.796	553.24
214.264	562.61
214.731	506.43
215.199	541.54
215.666	525.16
216.133	562.61
216.601	726.44
217.068	843.47
217.535	899.64
218.003	1100.93
218.47	1114.97
218.937	1131.36
219.404	876.24
219.871	951.14
220.338	995.61
220.805	1030.71
221.271	918.37
221.738	653.89
222.205	710.06
222.671	766.23
223.138	866.88
223.605	1058.8
224.071	1049.44
224.538	782.62
225.004	749.85
225.47	906.67
225.937	1011.99
226.403	1002.63
226.869	799
227.335	590.69
227.801	534.52
228.267	525.16
228.733	543.88
229.199	494.73
229.665	487.71
230.131	557.93
230.597	501.75
231.062	586.01
231.528	548.56
231.994	539.2
232.459	485.37
232.925	447.92
233.39	461.96
233.856	522.82
234.321	513.46
234.786	637.5
235.252	899.64
235.717	1393.5
236.182	2074.59
236.647	2182.26
237.112	1746.92
237.577	1058.8
238.042	721.76
238.507	621.12
238.972	478.35
239.436	597.71
239.901	534.52
240.366	539.2
240.83	443.24
241.295	473.67
241.76	581.33
242.224	487.71
242.688	452.6
243.153	490.05
243.617	447.92
244.081	459.62
244.545	459.62
245.01	433.88
245.474	494.73
245.938	487.71
246.402	623.46
246.866	684.31
247.33	611.76
247.793	670.27
248.257	534.52
248.721	541.54
249.185	515.8
249.648	522.82
250.112	564.95
250.575	539.2
251.039	576.65
251.502	557.93
251.965	548.56
252.429	593.03
252.892	532.18
253.355	518.14
253.818	476.01
254.281	574.31
254.744	630.48
255.207	689
255.67	822.41
256.133	1283.49
256.596	1814.79
257.059	1824.16
257.522	1529.25
257.984	1096.25
258.447	937.09
258.909	913.69
259.372	923.05
259.834	944.11
260.297	820.07
260.759	782.62
261.221	808.36
261.684	944.11
262.146	1423.92
262.608	1796.07
263.07	1594.78
263.532	1271.79
263.994	932.41
264.456	838.79
264.918	1068.16
265.38	986.24
265.842	866.88
266.303	714.74
266.765	621.12
267.227	534.52
267.688	555.58
268.15	513.46
268.611	513.46
269.072	560.27
269.534	548.56
269.995	597.71
270.456	646.87
270.918	571.97
271.379	604.74
271.84	583.67
272.301	483.03
272.762	436.22
273.223	520.48
273.684	597.71
274.144	621.12
274.605	541.54
275.066	691.34
275.527	644.53
275.987	637.5
276.448	696.02
276.908	684.31
277.369	866.88
277.829	1414.56
278.289	2767.39
278.75	4904.3
279.21	6690.13
279.67	6622.25
280.13	4953.45
280.59	3378.27
281.05	2917.19
281.51	2390.56
281.97	1688.4
282.43	876.24
282.89	684.31
283.35	588.35
283.809	621.12
284.269	719.42
284.729	967.52
285.188	880.92
285.648	660.91
286.107	560.27
286.567	567.29
287.026	560.27
287.485	586.01
287.944	564.95
288.404	642.18
288.863	639.84
289.322	595.37
289.781	616.44
290.24	710.06
290.699	564.95
291.158	635.16
291.616	611.76
292.075	735.81
292.534	834.11
292.992	911.35
293.451	979.22
293.91	859.85
294.368	747.51
294.827	670.27
295.285	508.77
295.743	499.41
296.202	501.75
296.66	445.58
297.118	471.33
297.576	490.05
298.034	485.37
298.492	433.88
298.95	419.83
299.408	457.28
299.866	330.89
300.324	398.77
300.781	476.01
301.239	497.07
301.697	473.67
302.154	522.82
302.612	476.01
303.069	478.35
303.527	543.88
303.984	578.99
304.441	670.27
304.899	674.95
305.356	782.62
305.813	735.81
306.27	740.49
306.727	1084.55
307.184	1573.72
307.641	2910.16
308.098	3991.49
308.555	4990.9
309.012	5435.6
309.468	4578.97
309.925	2303.96
310.382	799
310.838	600.05
311.295	564.95
311.751	497.07
312.208	553.24
312.664	504.09
313.12	483.03
313.577	485.37
314.033	468.98
314.489	483.03
314.945	506.43
315.401	564.95
315.857	515.8
316.313	450.26
316.769	443.24
317.225	417.49
317.681	391.75
318.136	445.58
318.592	403.45
319.048	452.6
319.503	433.88
319.959	440.9
320.414	373.02
320.869	375.36
321.325	368.34
321.78	377.7
322.235	422.17
322.691	426.86
323.146	473.67
323.601	438.56
324.056	644.53
324.511	871.56
324.966	775.6
325.421	817.72
325.875	548.56
326.33	562.61
326.785	590.69
327.24	810.7
327.694	756.87
328.149	681.97
328.603	511.11
329.058	408.13
329.512	485.37
329.966	375.36
330.421	417.49
330.875	443.24
331.329	443.24
331.783	464.3
332.237	459.62
332.691	447.92
333.145	485.37
333.599	522.82
334.053	499.41
334.507	520.48
334.96	590.69
335.414	660.91
335.868	614.1
336.321	653.89
336.775	733.47
337.228	637.5
337.682	597.71
338.135	532.18
338.588	515.8
339.042	471.33
339.495	394.09
339.948	408.13
340.401	431.54
340.854	436.22
341.307	433.88
341.76	366
342.213	368.34
342.666	389.41
343.119	415.15
343.571	438.56
344.024	492.39
344.477	536.86
344.929	410.47
345.382	447.92
345.834	506.43
346.287	401.11
346.739	438.56
347.191	408.13
347.644	394.09
348.096	492.39
348.548	459.62
349	520.48
349.452	410.47
349.904	492.39
350.356	480.69
350.808	436.22
351.26	504.09
351.711	450.26
352.163	494.73
352.615	532.18
353.066	518.14
353.518	548.56
353.969	497.07
354.421	459.62
354.872	459.62
355.324	583.67
355.775	508.77
356.226	590.69
356.677	777.94
357.128	969.86
357.579	1412.22
358.03	2456.1
358.481	3965.75
358.932	4330.87
359.383	3411.04
359.834	2617.6
360.285	2816.54
360.735	2437.38
361.186	1959.91
361.637	1585.42
362.087	892.62
362.538	618.78
362.988	508.77
363.438	480.69
363.889	541.54
364.339	574.31
364.789	492.39
365.239	499.41
365.689	593.03
366.139	497.07
366.589	433.88
367.039	438.56
367.489	466.64
367.939	527.5
368.389	534.52
368.839	602.4
369.288	590.69
369.738	562.61
370.187	630.48
370.637	777.94
371.086	794.32
371.536	810.7
371.985	768.57
372.434	667.93
372.884	525.16
373.333	497.07
373.782	522.82
374.231	478.35
374.68	504.09
375.129	539.2
375.578	497.07
376.027	473.67
376.475	459.62
376.924	445.58
377.373	447.92
377.822	450.26
378.27	447.92
378.719	501.75
379.167	368.34
379.616	431.54
380.064	525.16
380.512	459.62
380.961	504.09
381.409	560.27
381.857	534.52
382.305	614.1
382.753	614.1
383.201	768.57
383.649	857.51
384.097	824.75
384.545	794.32
384.992	583.67
385.44	609.42
385.888	621.12
386.335	632.82
386.783	567.29
387.231	574.31
387.678	571.97
388.125	611.76
388.573	527.5
389.02	574.31
389.467	513.46
389.914	492.39
390.362	471.33
390.809	494.73
391.256	504.09
391.703	515.8
392.15	630.48
392.596	649.21
393.043	759.21
393.49	1105.61
393.937	2177.58
394.383	3668.5
394.83	4473.64
395.276	3661.48
395.723	3478.91
396.169	4969.84
396.616	5566.67
397.062	3286.99
397.508	1344.35
397.954	700.7
398.401	609.42
398.847	508.77
399.293	520.48
399.739	616.44
400.185	590.69
400.631	525.16
401.076	471.33
401.522	518.14
401.968	567.29
402.414	436.22
402.859	543.88
403.305	583.67
403.75	728.78
404.196	691.34
404.641	700.7
405.086	586.01
405.532	696.02
405.977	749.85
406.422	660.91
406.867	670.27
407.312	564.95
407.757	602.4
408.202	553.24
408.647	569.63
409.092	536.86
409.537	532.18
409.982	555.58
410.426	595.37
410.871	595.37
411.316	602.4
411.76	529.84
412.205	607.08
412.649	621.12
413.093	560.27
413.538	639.84
413.982	747.51
414.426	782.62
414.87	770.91
415.314	829.43
415.758	906.67
416.202	824.75
416.646	728.78
417.09	770.91
417.534	756.87
417.978	735.81
418.421	660.91
418.865	600.05
419.309	578.99
419.752	473.67
420.196	578.99
420.639	555.58
421.083	534.52
421.526	497.07
421.969	518.14
422.412	459.62
422.856	602.4
423.299	557.93
423.742	604.74
424.185	583.67
424.628	571.97
425.071	480.69
425.513	424.51
425.956	508.77
426.399	518.14
426.842	501.75
427.284	504.09
427.727	443.24
428.169	476.01
428.612	447.92
429.054	433.88
429.497	450.26
429.939	447.92
430.381	464.3
430.823	398.77
431.265	466.64
431.707	440.9
432.149	450.26
432.591	461.96
433.033	447.92
433.475	483.03
433.917	468.98
434.359	492.39
434.8	504.09
435.242	515.8
435.684	443.24
436.125	487.71
436.567	476.01
437.008	445.58
437.449	478.35
437.891	405.79
438.332	450.26
438.773	450.26
439.214	494.73
439.656	478.35
440.097	476.01
440.538	361.32
440.978	468.98
441.419	389.41
441.86	483.03
442.301	445.58
442.742	476.01
443.182	529.84
443.623	499.41
444.063	583.67
444.504	593.03
444.944	609.42
445.385	681.97
445.825	681.97
446.265	738.15
446.706	859.85
447.146	955.82
447.586	1166.46
448.026	1597.12
448.466	1704.79
448.906	1503.5
449.346	1105.61
449.786	962.84
450.225	892.62
450.665	927.73
451.105	1089.23
451.544	1470.73
451.984	1569.04
452.424	1491.8
452.863	1498.82
453.302	1899.05
453.742	1943.52
454.181	1337.32
454.62	939.43
455.059	651.55
455.499	604.74
455.938	588.35
456.377	534.52
456.816	457.28
457.254	518.14
457.693	499.41
458.132	497.07
458.571	422.17
459.01	417.49
459.448	476.01
459.887	466.64
460.325	403.45
460.764	501.75
461.202	480.69
461.641	436.22
462.079	450.26
462.517	543.88
462.955	508.77
463.393	578.99
463.832	588.35
464.27	548.56
464.708	571.97
465.145	555.58
465.583	651.55
466.021	642.18
466.459	733.47
466.897	988.58
467.334	855.17
467.772	588.35
468.209	508.77
468.647	457.28
469.084	466.64
469.522	485.37
469.959	539.2
470.396	518.14
470.833	539.2
471.271	529.84
471.708	417.49
472.145	452.6
472.582	447.92
473.019	447.92
473.456	438.56
473.892	447.92
474.329	391.75
474.766	408.13
475.202	394.09
475.639	408.13
476.076	412.81
476.512	487.71
476.949	447.92
477.385	464.3
477.821	513.46
478.258	464.3
478.694	403.45
479.13	454.94
479.566	471.33
480.002	464.3
480.438	480.69
480.874	450.26
481.31	457.28
481.746	476.01
482.181	461.96
482.617	415.15
483.053	483.03
483.488	506.43
483.924	515.8
484.36	536.86
484.795	616.44
485.23	536.86
485.666	567.29
486.101	618.78
486.536	667.93
486.971	717.08
487.407	653.89
487.842	602.4
488.277	520.48
488.712	480.69
489.146	522.82
489.581	483.03
490.016	522.82
490.451	424.51
490.885	480.69
491.32	511.11
491.755	480.69
492.189	501.75
492.624	518.14
493.058	508.77
493.492	508.77
493.927	466.64
494.361	438.56
494.795	396.43
495.229	485.37
495.663	429.2
496.097	468.98
496.531	366
496.965	419.83
497.399	450.26
497.833	440.9
498.266	473.67
498.7	520.48
499.134	525.16
499.567	567.29
500.001	660.91
500.434	775.6
500.868	958.16
501.301	918.37
501.734	775.6
502.168	625.8
502.601	515.8
503.034	532.18
503.467	520.48
503.9	436.22
504.333	497.07
504.766	506.43
505.199	497.07
505.632	443.24
506.064	513.46
506.497	506.43
506.93	440.9
507.362	468.98
507.795	452.6
508.227	539.2
508.66	525.16
509.092	497.07
509.524	450.26
509.956	522.82
510.389	466.64
510.821	501.75
511.253	506.43
511.685	520.48
512.117	487.71
512.549	497.07
512.981	471.33
513.412	539.2
513.844	438.56
514.276	473.67
514.707	529.84
515.139	546.22
515.571	569.63
516.002	506.43
516.433	536.86
516.865	672.61
517.296	621.12
517.727	651.55
518.159	740.49
518.59	724.1
519.021	623.46
519.452	700.7
519.883	569.63
520.314	511.11
520.744	541.54
521.175	555.58
521.606	576.65
522.037	590.69
522.467	578.99
522.898	614.1
523.328	504.09
523.759	532.18
524.189	571.97
524.62	511.11
525.05	508.77
525.48	567.29
525.91	703.04
526.341	590.69
526.771	667.93
527.201	644.53
527.631	672.61
528.061	674.95
528.49	796.66
528.92	972.2
529.35	1288.17
529.78	2706.54
530.209	12864.46
530.639	31462.36
531.068	48356.35
531.498	63022.14
531.927	63022.14
532.357	63022.14
532.786	63022.14
533.215	63022.14
533.644	32304.95
534.074	11602.91
534.503	4742.8
534.932	2336.73
535.361	1428.6
535.79	1061.14
536.218	897.3
536.647	728.78
537.076	616.44
537.505	564.95
537.933	494.73
538.362	571.97
538.79	586.01
539.219	506.43
539.647	532.18
540.076	487.71
540.504	534.52
540.932	504.09
541.36	534.52
541.788	478.35
542.217	497.07
542.645	445.58
543.073	454.94
543.5	454.94
543.928	426.86
544.356	403.45
544.784	447.92
545.211	419.83
545.639	490.05
546.067	443.24
546.494	483.03
546.922	454.94
547.349	478.35
547.776	401.11
548.204	447.92
548.631	438.56
549.058	382.39
549.485	417.49
549.912	422.17
550.339	450.26
550.766	450.26
551.193	431.54
551.62	447.92
552.047	417.49
552.474	389.41
552.9	398.77
553.327	450.26
553.754	342.6
554.18	471.33
554.607	415.15
555.033	452.6
555.459	398.77
555.886	424.51
556.312	504.09
556.738	518.14
557.164	471.33
557.59	424.51
558.016	438.56
558.442	450.26
558.868	471.33
559.294	532.18
559.72	653.89
560.145	726.44
560.571	609.42
560.997	541.54
561.422	408.13
561.848	408.13
562.273	387.07
562.699	436.22
563.124	366
563.549	316.85
563.974	405.79
564.4	410.47
564.825	419.83
565.25	440.9
565.675	436.22
566.1	438.56
566.525	487.71
566.95	454.94
567.374	576.65
567.799	546.22
568.224	646.87
568.648	684.31
569.073	710.06
569.497	850.49
569.922	1112.63
570.346	1620.53
570.771	1489.46
571.195	979.22
571.619	726.44
572.043	665.59
572.467	754.53
572.891	1007.31
573.315	962.84
573.739	625.8
574.163	497.07
574.587	405.79
575.011	405.79
575.435	375.36
575.858	347.28
576.282	384.73
576.705	415.15
577.129	358.98
577.552	351.96
577.976	370.68
578.399	389.41
578.822	391.75
579.245	457.28
579.669	382.39
580.092	429.2
580.515	396.43
580.938	342.6
581.361	384.73
581.784	384.73
582.206	403.45
582.629	344.94
583.052	368.34
583.474	408.13
583.897	351.96
584.32	361.32
584.742	375.36
585.165	387.07
585.587	452.6
586.009	358.98
586.431	396.43
586.854	408.13
587.276	438.56
587.698	438.56
588.12	349.62
588.542	396.43
588.964	377.7
589.386	422.17
589.807	370.68
590.229	377.7
590.651	382.39
591.073	387.07
591.494	370.68
591.916	373.02
592.337	461.96
592.759	361.32
593.18	377.7
593.601	391.75
594.022	445.58
594.444	401.11
594.865	476.01
595.286	396.43
595.707	431.54
596.128	438.56
596.549	380.04
596.97	389.41
597.39	363.66
597.811	389.41
598.232	389.41
598.652	368.34
599.073	382.39
599.494	337.91
599.914	335.57
600.334	335.57
600.755	401.11
601.175	384.73
601.595	440.9
602.015	347.28
602.436	454.94
602.856	492.39
603.276	384.73
603.696	305.15
604.115	347.28
604.535	344.94
604.955	363.66
605.375	412.81
605.794	344.94
606.214	323.87
606.634	384.73
607.053	347.28
607.473	375.36
607.892	426.86
608.311	368.34
608.731	333.23
609.15	314.51
609.569	394.09
609.988	373.02
610.407	391.75
610.826	410.47
611.245	373.02
611.664	370.68
612.083	398.77
612.501	366
612.92	384.73
613.339	398.77
613.757	391.75
614.176	471.33
614.594	440.9
615.013	337.91
615.431	349.62
615.85	412.81
616.268	373.02
616.686	342.6
617.104	370.68
617.522	405.79
617.94	426.86
618.358	431.54
618.776	452.6
619.194	358.98
619.612	415.15
620.03	316.85
620.447	412.81
620.865	330.89
621.282	461.96
621.7	410.47
622.117	436.22
622.535	459.62
622.952	457.28
623.369	602.4
623.787	791.98
624.204	859.85
624.621	843.47
625.038	918.37
625.455	841.13
625.872	747.51
626.289	548.56
626.706	483.03
627.123	366
627.539	426.86
627.956	366
628.373	391.75
628.789	349.62
629.206	351.96
629.622	377.7
630.038	375.36
630.455	361.32
630.871	401.11
631.287	373.02
631.703	368.34
632.12	347.28
632.536	335.57
632.952	380.04
633.368	366
633.783	358.98
634.199	417.49
634.615	394.09
635.031	307.49
635.446	380.04
635.862	340.26
636.277	335.57
636.693	309.83
637.108	333.23
637.524	363.66
637.939	363.66
638.354	351.96
638.77	361.32
639.185	387.07
639.6	375.36
640.015	323.87
640.43	373.02
640.845	326.21
641.259	326.21
641.674	337.91
642.089	288.76
642.504	347.28
642.918	305.15
643.333	300.47
643.747	384.73
644.162	389.41
644.576	300.47
644.991	405.79
645.405	366
645.819	426.86
646.233	307.49
646.647	394.09
647.061	373.02
647.475	347.28
647.889	387.07
648.303	370.68
648.717	389.41
649.131	366
649.545	323.87
649.958	298.13
650.372	405.79
650.785	373.02
651.199	309.83
651.612	401.11
652.026	333.23
652.439	354.3
652.852	347.28
653.266	394.09
653.679	375.36
654.092	471.33
654.505	370.68
654.918	361.32
655.331	473.67
655.744	497.07
656.156	602.4
656.569	784.96
656.982	948.79
657.394	817.72
657.807	717.08
658.22	527.5
658.632	431.54
659.044	396.43
659.457	349.62
659.869	415.15
660.281	410.47
660.693	370.68
661.106	405.79
661.518	401.11
661.93	447.92
662.342	389.41
662.754	419.83
663.165	405.79
663.577	370.68
663.989	408.13
664.401	335.57
664.812	380.04
665.224	354.3
665.635	349.62
666.047	377.7
666.458	309.83
666.869	377.7
667.281	422.17
667.692	415.15
668.103	354.3
668.514	328.55
668.925	349.62
669.336	351.96
669.747	260.68
670.158	366
670.569	375.36
670.979	321.53
671.39	316.85
671.801	347.28
672.211	295.79
672.622	319.19
673.032	340.26
673.443	305.15
673.853	337.91
674.263	368.34
674.674	314.51
675.084	373.02
675.494	326.21
675.904	272.38
676.314	340.26
676.724	330.89
677.134	342.6
677.544	366
677.953	328.55
678.363	387.07
678.773	354.3
679.182	349.62
679.592	323.87
680.001	342.6
680.411	335.57
680.82	281.74
681.23	307.49
681.639	270.04
682.048	415.15
682.457	375.36
682.866	440.9
683.275	375.36
683.684	394.09
684.093	391.75
684.502	361.32
684.911	361.32
685.32	398.77
685.728	370.68
686.137	342.6
686.546	321.53
686.954	349.62
687.363	354.3
687.771	316.85
688.179	330.89
688.588	373.02
688.996	340.26
689.404	267.7
689.812	314.51
690.22	274.72
690.628	319.19
691.036	302.81
691.444	288.76
691.852	288.76
692.26	330.89
692.667	375.36
693.075	363.66
693.483	380.04
693.89	361.32
694.298	312.17
694.705	328.55
695.112	281.74
695.52	307.49
695.927	344.94
696.334	377.7
696.741	333.23
697.148	291.1
697.555	328.55
697.962	351.96
698.369	298.13
698.776	302.81
699.183	347.28
699.59	351.96
699.996	316.85
700.403	323.87
700.81	344.94
701.216	347.28
701.623	391.75
702.029	337.91
702.435	288.76
702.842	380.04
703.248	454.94
703.654	342.6
704.06	408.13
704.466	529.84
704.872	616.44
705.278	527.5
705.684	471.33
706.09	513.46
706.496	518.14
706.901	431.54
707.307	410.47
707.712	330.89
708.118	389.41
708.523	368.34
708.929	323.87
709.334	314.51
709.74	340.26
710.145	307.49
710.55	302.81
710.955	344.94
711.36	335.57
711.765	368.34
712.17	305.15
712.575	358.98
712.98	880.92
713.385	384.73
713.789	265.36
714.194	354.3
714.599	307.49
715.003	356.64
715.408	394.09
715.812	312.17
716.217	300.47
716.621	328.55
717.025	248.97
717.429	295.79
717.833	326.21
718.238	291.1
718.642	356.64
719.046	293.44
719.449	288.76
719.853	333.23
720.257	328.55
720.661	337.91
721.065	377.7
721.468	314.51
721.872	321.53
722.275	361.32
722.679	300.47
723.082	316.85
723.485	335.57
723.889	340.26
724.292	316.85
724.695	333.23
725.098	309.83
725.501	309.83
725.904	298.13
726.307	342.6
726.71	335.57
727.113	323.87
727.516	258.34
727.918	277.06
728.321	335.57
728.724	314.51
729.126	368.34
729.529	307.49
729.931	354.3
730.333	323.87
730.736	340.26
731.138	307.49
731.54	333.23
731.942	258.34
732.344	302.81
732.746	237.27
733.148	300.47
733.55	265.36
733.952	302.81
734.354	373.02
734.756	284.08
735.157	295.79
735.559	410.47
735.96	284.08
736.362	384.73
736.763	302.81
737.165	293.44
737.566	356.64
737.967	363.66
738.368	337.91
738.77	312.17
739.171	307.49
739.572	361.32
739.973	356.64
740.374	328.55
740.774	354.3
741.175	305.15
741.576	326.21
741.977	351.96
742.377	347.28
742.778	309.83
743.178	298.13
743.579	309.83
743.979	354.3
744.379	394.09
744.78	347.28
745.18	380.04
745.58	380.04
745.98	309.83
746.38	328.55
746.78	323.87
747.18	443.24
747.58	433.88
747.98	394.09
748.38	351.96
748.779	340.26
749.179	335.57
749.578	312.17
749.978	333.23
750.377	316.85
750.777	321.53
751.176	305.15
751.575	298.13
751.975	330.89
752.374	291.1
752.773	335.57
753.172	373.02
753.571	337.91
753.97	330.89
754.369	295.79
754.768	281.74
755.166	305.15
755.565	328.55
755.964	377.7
756.362	256
756.761	361.32
757.159	344.94
757.558	356.64
757.956	354.3
758.354	326.21
758.753	335.57
759.151	300.47
759.549	319.19
759.947	319.19
760.345	375.36
760.743	309.83
761.141	342.6
761.539	272.38
761.936	351.96
762.334	347.28
762.732	342.6
763.129	405.79
763.527	337.91
763.924	401.11
764.322	314.51
764.719	256
765.117	260.68
765.514	361.32
765.911	361.32
766.308	256
766.705	302.81
767.102	300.47
767.499	279.4
767.896	288.76
768.293	307.49
768.69	307.49
769.086	412.81
769.483	328.55
769.88	314.51
770.276	309.83
770.673	305.15
771.069	333.23
771.466	305.15
771.862	298.13
772.258	356.64
772.654	302.81
773.05	279.4
773.447	358.98
773.843	347.28
774.239	300.47
774.634	307.49
775.03	314.51
775.426	298.13
775.822	351.96
776.218	361.32
776.613	351.96
777.009	429.2
777.404	366
777.8	344.94
778.195	373.02
778.59	349.62
778.986	337.91
779.381	323.87
779.776	263.02
780.171	295.79
780.566	330.89
780.961	389.41
781.356	363.66
781.751	328.55
782.146	293.44
782.54	293.44
782.935	410.47
783.33	323.87
783.724	305.15
784.119	354.3
784.513	274.72
784.908	319.19
785.302	302.81
785.696	237.27
786.09	323.87
786.485	321.53
786.879	300.47
787.273	321.53
787.667	363.66
788.061	321.53
788.454	312.17
788.848	333.23
789.242	326.21
789.636	295.79
790.029	312.17
790.423	274.72
790.816	363.66
791.21	314.51
791.603	363.66
791.997	316.85
792.39	298.13
792.783	244.29
793.176	279.4
793.569	323.87
793.962	305.15
794.355	337.91
794.748	277.06
795.141	300.47
795.534	405.79
795.927	298.13
796.319	295.79
796.712	349.62
797.105	281.74
797.497	340.26
797.89	277.06
798.282	232.59
798.674	326.21
799.067	323.87
799.459	349.62
799.851	335.57
800.243	314.51
800.635	337.91
801.027	321.53
801.419	288.76
801.811	291.1
802.203	274.72
802.594	351.96
802.986	270.04
803.378	300.47
803.769	277.06
804.161	284.08
804.552	274.72
804.944	323.87
805.335	291.1
805.726	270.04
806.118	307.49
806.509	307.49
806.9	298.13
807.291	286.42
807.682	319.19
808.073	333.23
808.464	300.47
808.855	263.02
809.245	293.44
809.636	333.23
810.027	340.26
810.417	356.64
810.808	309.83
811.198	293.44
811.589	307.49
811.979	330.89
812.369	319.19
812.759	258.34
813.15	340.26
813.54	319.19
813.93	293.44
814.32	333.23
814.71	293.44
815.1	344.94
815.489	309.83
815.879	349.62
816.269	316.85
816.658	330.89
817.048	305.15
817.438	263.02
817.827	316.85
818.216	323.87
818.606	340.26
818.995	321.53
819.384	305.15
819.773	300.47
820.163	298.13
820.552	274.72
820.941	349.62
821.33	368.34
821.718	347.28
822.107	375.36
822.496	344.94
822.885	270.04
823.273	312.17
823.662	342.6
824.05	305.15
824.439	291.1
824.827	319.19
825.216	265.36
825.604	335.57
825.992	279.4
826.38	361.32
826.768	291.1
827.156	330.89
827.544	351.96
827.932	319.19
828.32	312.17
828.708	277.06
829.096	307.49
829.483	312.17
829.871	295.79
830.259	321.53
830.646	274.72
831.034	258.34
831.421	288.76
831.808	321.53
832.196	358.98
832.583	358.98
832.97	312.17
833.357	305.15
833.744	335.57
834.131	307.49
834.518	326.21
834.905	316.85
835.292	288.76
835.678	333.23
836.065	319.19
836.452	291.1
836.838	347.28
837.225	347.28
837.611	307.49
837.998	356.64
838.384	272.38
838.77	286.42
839.157	337.91
839.543	356.64
839.929	286.42
840.315	319.19
840.701	279.4
841.087	220.89
841.473	384.73
841.858	354.3
842.244	305.15
842.63	220.89
843.015	274.72
843.401	590.69
843.787	403.45
844.172	284.08
844.557	363.66
844.943	335.57
845.328	295.79
845.713	309.83
846.098	316.85
846.483	337.91
846.868	356.64
847.253	358.98
847.638	356.64
848.023	319.19
848.408	347.28
848.793	403.45
849.177	251.32
849.562	328.55
849.947	328.55
850.331	347.28
850.715	291.1
851.1	286.42
851.484	277.06
851.868	351.96
852.253	239.61
852.637	328.55
853.021	307.49
853.405	260.68
853.789	316.85
854.173	316.85
854.557	375.36
854.94	267.7
855.324	319.19
855.708	286.42
856.091	309.83
856.475	253.66
856.858	377.7
857.242	337.91
857.625	241.95
858.009	319.19
858.392	244.29
858.775	363.66
859.158	328.55
859.541	305.15
859.924	286.42
860.307	351.96
860.69	337.91
861.073	361.32
861.456	330.89
861.838	330.89
862.221	326.21
862.604	300.47
862.986	335.57
863.369	312.17
863.751	307.49
864.133	333.23
864.516	295.79
864.898	244.29
865.28	335.57
865.662	328.55
866.044	279.4
866.426	330.89
866.808	281.74
867.19	347.28
867.572	197.48
867.954	342.6
868.336	340.26
868.717	286.42
869.099	323.87
869.48	291.1
869.862	288.76
870.243	284.08
870.625	293.44
871.006	209.19
871.387	305.15
871.768	333.23
872.149	335.57
872.53	256
872.911	288.76
873.292	354.3
873.673	321.53
874.054	305.15
874.435	326.21
874.815	295.79
875.196	291.1
875.577	298.13
875.957	340.26
876.338	398.77
876.718	330.89
877.098	258.34
877.479	309.83
877.859	293.44
878.239	302.81
878.619	270.04
878.999	377.7
879.379	286.42
879.759	298.13
880.139	298.13
880.519	305.15
880.898	335.57
881.278	246.63
881.658	300.47
882.037	328.55
882.417	293.44
882.796	244.29
883.176	298.13
883.555	342.6
883.934	281.74
884.313	316.85
884.693	258.34
885.072	295.79
885.451	382.39
885.83	267.7
886.209	337.91
886.587	316.85
886.966	260.68
887.345	272.38
887.724	307.49
888.102	309.83
888.481	333.23
888.859	309.83
889.238	281.74
889.616	314.51
889.994	351.96
890.373	270.04
890.751	291.1
891.129	309.83
891.507	316.85
891.885	326.21
892.263	337.91
892.641	291.1
893.019	300.47
893.396	361.32
893.774	300.47
894.152	309.83
894.529	286.42
894.907	281.74
895.284	265.36
895.662	272.38
896.039	366
896.416	298.13
896.794	286.42
897.171	298.13
897.548	291.1
897.925	253.66
898.302	277.06
898.679	298.13
899.056	342.6
899.433	295.79
899.809	347.28
900.186	279.4
900.563	319.19
900.939	326.21
901.316	232.59
901.692	333.23
902.069	319.19
902.445	347.28
902.821	291.1
903.197	281.74
903.574	321.53
903.95	323.87
904.326	319.19
904.702	342.6
905.078	295.79
905.454	335.57
905.829	326.21
906.205	333.23
906.581	349.62
906.956	270.04
907.332	333.23
907.707	225.57
908.083	326.21
908.458	284.08
908.833	323.87
909.209	391.75
909.584	309.83
909.959	380.04
910.334	316.85
910.709	279.4
911.084	258.34
911.459	328.55
911.834	274.72
912.209	286.42
912.583	309.83
912.958	298.13
913.333	347.28
913.707	335.57
914.082	321.53
914.456	328.55
914.83	286.42
915.205	253.66
915.579	319.19
915.953	312.17
916.327	309.83
916.701	307.49
917.075	277.06
917.449	356.64
917.823	321.53
918.197	291.1
918.571	253.66
918.944	298.13
919.318	309.83
919.692	288.76
920.065	314.51
920.438	281.74
920.812	319.19
921.185	267.7
921.558	239.61
921.932	298.13
922.305	286.42
922.678	337.91
923.051	312.17
923.424	330.89
923.797	281.74
924.17	316.85
924.542	319.19
924.915	307.49
925.288	326.21
925.661	272.38
926.033	370.68
926.406	342.6
926.778	309.83
927.15	398.77
927.523	347.28
927.895	316.85
928.267	302.81
928.639	300.47
929.011	344.94
929.383	281.74
929.755	295.79
930.127	363.66
930.499	300.47
930.871	277.06
931.242	277.06
931.614	279.4
931.986	300.47
932.357	351.96
932.729	256
933.1	326.21
933.471	337.91
933.843	263.02
934.214	284.08
934.585	246.63
934.956	291.1
935.327	281.74
935.698	305.15
936.069	373.02
936.44	270.04
936.811	300.47
937.182	291.1
937.552	387.07
937.923	248.97
938.293	263.02
938.664	291.1
939.034	347.28
939.405	237.27
939.775	279.4
940.145	351.96
940.516	300.47
940.886	361.32
941.256	326.21
941.626	258.34
941.996	284.08
942.366	258.34
942.735	265.36
943.105	281.74
943.475	274.72
943.845	260.68
944.214	326.21
944.584	288.76
944.953	342.6
945.323	270.04
945.692	286.42
946.061	258.34
946.43	291.1
946.8	321.53
947.169	295.79
947.538	302.81
947.907	270.04
948.276	277.06
948.645	321.53
949.013	293.44
949.382	340.26
949.751	305.15
950.119	288.76
950.488	293.44
950.857	354.3
951.225	293.44
951.593	279.4
951.962	295.79
952.33	373.02
952.698	342.6
953.066	302.81
953.434	281.74
953.802	284.08
954.17	225.57
954.538	316.85
954.906	344.94
955.274	300.47
955.642	265.36
956.009	305.15
956.377	309.83
956.744	300.47
957.112	286.42
957.479	279.4
957.847	326.21
958.214	305.15
958.581	356.64
958.948	321.53
959.315	267.7
959.683	248.97
960.05	349.62
960.416	267.7
960.783	321.53
961.15	307.49
961.517	307.49
961.884	270.04
962.25	358.98
962.617	316.85
962.983	323.87
963.35	281.74
963.716	267.7
964.082	274.72
964.449	272.38
964.815	284.08
965.181	300.47
965.547	316.85
965.913	354.3
966.279	356.64
966.645	344.94
967.011	323.87
967.377	337.91
967.742	314.51
968.108	281.74
968.474	291.1
968.839	288.76
969.205	286.42
969.57	312.17
969.935	277.06
970.301	333.23
970.666	319.19
971.031	293.44
971.396	330.89
971.761	293.44
972.126	326.21
972.491	272.38
972.856	344.94
973.221	274.72
973.586	363.66
973.95	323.87
974.315	356.64
974.679	291.1
975.044	312.17
975.408	281.74
975.773	330.89
976.137	314.51
976.501	291.1
976.866	274.72
977.23	305.15
977.594	349.62
977.958	321.53
978.322	356.64
978.686	321.53
979.049	344.94
979.413	307.49
979.777	256
980.141	286.42
980.504	284.08
980.868	323.87
981.231	267.7
981.595	307.49
981.958	293.44
982.321	349.62
982.684	382.39
983.048	279.4
983.411	328.55
983.774	237.27
984.137	251.32
984.5	272.38
984.862	337.91
985.225	244.29
985.588	293.44
985.951	328.55
986.313	305.15
986.676	309.83
987.038	295.79
987.401	288.76
987.763	263.02
988.125	321.53
988.488	305.15
988.85	373.02
989.212	319.19
989.574	323.87
989.936	279.4
990.298	251.32
990.66	356.64
991.022	258.34
991.383	321.53
991.745	342.6
992.107	319.19
992.468	253.66
992.83	274.72
993.191	288.76
993.553	330.89
993.914	272.38
994.275	305.15
994.637	293.44
994.998	389.41
995.359	256
995.72	281.74
996.081	316.85
996.442	312.17
996.803	344.94
997.163	321.53
997.524	291.1
997.885	328.55
998.245	307.49
998.606	314.51
998.966	293.44
999.327	342.6
999.687	286.42
1000.047	305.15
1000.408	265.36
1000.768	335.57
1001.128	279.4
1001.488	265.36
1001.848	312.17
1002.208	312.17
1002.568	291.1
1002.927	314.51
1003.287	307.49
1003.647	312.17
1004.007	302.81
1004.366	244.29
1004.726	326.21
1005.085	314.51
1005.444	321.53
1005.804	270.04
1006.163	267.7
1006.522	267.7
1006.881	256
1007.24	302.81
1007.599	347.28
1007.958	298.13
1008.317	335.57
1008.676	284.08
1009.035	330.89
1009.393	272.38
1009.752	342.6
1010.111	258.34
1010.469	237.27
1010.828	288.76
1011.186	333.23
1011.544	284.08
1011.903	270.04
1012.261	316.85
1012.619	361.32
1012.977	298.13
1013.335	358.98
1013.693	272.38
1014.051	253.66
1014.409	335.57
1014.767	248.97
1015.124	260.68
1015.482	295.79
1015.84	286.42
1016.197	277.06
1016.555	340.26
1016.912	305.15
1017.269	344.94
1017.627	288.76
1017.984	316.85
1018.341	302.81
1018.698	246.63
1019.055	337.91
1019.412	366
1019.769	319.19
1020.126	396.43
1020.483	307.49
1020.84	263.02
1021.196	314.51
1021.553	239.61
1021.909	307.49
1022.266	351.96
1022.622	314.51
1022.979	335.57
1023.335	330.89
1023.691	281.74
1024.047	302.81
1024.404	298.13
1024.76	319.19
1025.116	284.08
1025.472	323.87
1025.827	227.91
1026.183	277.06
1026.539	342.6
1026.895	307.49
1027.25	349.62
1027.606	312.17
1027.961	321.53
1028.317	354.3
1028.672	300.47
1029.028	270.04
1029.383	246.63
1029.738	307.49
1030.093	216.21
1030.448	337.91
1030.803	300.47
1031.158	363.66
1031.513	248.97
1031.868	361.32
1032.223	342.6
1032.577	281.74
1032.932	328.55
1033.287	256
1033.641	265.36
1033.996	241.95
1034.35	300.47
1034.704	314.51
1035.059	363.66
1035.413	279.4
1035.767	279.4
1036.121	279.4
