Data from Al_FLMS009871__942__16-20-00-721.txt Node

Date: Fri Mar 08 16:20:00 CST 2024
User: pe5414po
Spectrometer: FLMS00987
Trigger mode: 0
Integration Time (sec): 1.000000E-1
Scans to average: 1
Electric dark correction enabled: true
Nonlinearity correction enabled: false
Boxcar width: 0
XAxis mode: Wavelengths
Number of Pixels in Spectrum: 2048
>>>>>Begin Spectral Data<<<<<
188.938	-85.58
189.409	-85.58
189.879	-85.58
190.349	-108.98
190.819	-92.6
191.29	-31.74
191.76	-108.98
192.23	-66.85
192.7	-113.66
193.17	-104.3
193.64	-92.6
194.109	-15.36
194.579	-17.7
195.049	-8.34
195.519	29.11
195.988	22.09
196.458	31.45
196.927	129.75
197.397	50.18
197.866	143.8
198.336	153.16
198.805	195.29
199.274	136.78
199.744	181.25
200.213	204.65
200.682	232.74
201.151	216.35
201.62	239.76
202.089	274.87
202.558	221.03
203.027	272.53
203.495	232.74
203.964	249.12
204.433	260.82
204.902	249.12
205.37	228.06
205.839	253.8
206.307	281.89
206.776	347.42
207.244	324.02
207.712	265.5
208.181	293.59
208.649	288.91
209.117	317
209.585	333.38
210.053	312.32
210.521	293.59
210.989	263.16
211.457	291.25
211.925	263.16
212.393	251.46
212.861	270.19
213.328	279.55
213.796	260.82
214.264	246.78
214.731	221.03
215.199	253.8
215.666	324.02
216.133	305.29
216.601	260.82
217.068	263.16
217.535	251.46
218.003	281.89
218.47	263.16
218.937	263.16
219.404	242.1
219.871	352.1
220.338	176.56
220.805	176.56
221.271	307.63
221.738	244.44
222.205	263.16
222.671	230.4
223.138	230.4
223.605	258.48
224.071	237.42
224.538	288.91
225.004	244.44
225.47	295.93
225.937	249.12
226.403	274.87
226.869	286.57
227.335	279.55
227.801	309.97
228.267	239.76
228.733	274.87
229.199	286.57
229.665	230.4
230.131	214.01
230.597	258.48
231.062	256.14
231.528	356.79
231.994	267.85
232.459	249.12
232.925	225.72
233.39	298.27
233.856	326.36
234.321	314.66
234.786	272.53
235.252	242.1
235.717	249.12
236.182	263.16
236.647	300.61
237.112	246.78
237.577	300.61
238.042	253.8
238.507	246.78
238.972	242.1
239.436	260.82
239.901	237.42
240.366	251.46
240.83	274.87
241.295	230.4
241.76	352.1
242.224	218.69
242.688	267.85
243.153	274.87
243.617	235.08
244.081	291.25
244.545	298.27
245.01	277.21
245.474	312.32
245.938	237.42
246.402	284.23
246.866	239.76
247.33	249.12
247.793	237.42
248.257	265.5
248.721	265.5
249.185	277.21
249.648	267.85
250.112	246.78
250.575	312.32
251.039	251.46
251.502	230.4
251.965	338.06
252.429	293.59
252.892	331.04
253.355	295.93
253.818	253.8
254.281	260.82
254.744	354.44
255.207	288.91
255.67	328.7
256.133	279.55
256.596	277.21
257.059	267.85
257.522	295.93
257.984	256.14
258.447	295.93
258.909	277.21
259.372	305.29
259.834	267.85
260.297	302.95
260.759	258.48
261.221	281.89
261.684	324.02
262.146	253.8
262.608	223.37
263.07	333.38
263.532	288.91
263.994	281.89
264.456	326.36
264.918	319.34
265.38	267.85
265.842	258.48
266.303	265.5
266.765	291.25
267.227	260.82
267.688	300.61
268.15	239.76
268.611	199.97
269.072	293.59
269.534	277.21
269.995	265.5
270.456	286.57
270.918	246.78
271.379	260.82
271.84	277.21
272.301	214.01
272.762	258.48
273.223	265.5
273.684	314.66
274.144	258.48
274.605	206.99
275.066	239.76
275.527	279.55
275.987	263.16
276.448	263.16
276.908	251.46
277.369	338.06
277.829	281.89
278.289	317
278.75	298.27
279.21	319.34
279.67	302.95
280.13	246.78
280.59	295.93
281.05	258.48
281.51	279.55
281.97	340.4
282.43	335.72
282.89	319.34
283.35	267.85
283.809	263.16
284.269	331.04
284.729	263.16
285.188	321.68
285.648	291.25
286.107	265.5
286.567	335.72
287.026	237.42
287.485	284.23
287.944	209.33
288.404	321.68
288.863	267.85
289.322	237.42
289.781	279.55
290.24	345.08
290.699	251.46
291.158	211.67
291.616	260.82
292.075	277.21
292.534	281.89
292.992	258.48
293.451	286.57
293.91	267.85
294.368	338.06
294.827	279.55
295.285	281.89
295.743	338.06
296.202	253.8
296.66	326.36
297.118	309.97
297.576	274.87
298.034	317
298.492	284.23
298.95	286.57
299.408	321.68
299.866	251.46
300.324	300.61
300.781	288.91
301.239	253.8
301.697	265.5
302.154	328.7
302.612	298.27
303.069	253.8
303.527	274.87
303.984	279.55
304.441	307.63
304.899	328.7
305.356	326.36
305.813	274.87
306.27	277.21
306.727	314.66
307.184	265.5
307.641	319.34
308.098	246.78
308.555	300.61
309.012	314.66
309.468	307.63
309.925	288.91
310.382	288.91
310.838	288.91
311.295	286.57
311.751	300.61
312.208	305.29
312.664	249.12
313.12	309.97
313.577	272.53
314.033	265.5
314.489	286.57
314.945	272.53
315.401	302.95
315.857	232.74
316.313	298.27
316.769	328.7
317.225	331.04
317.681	251.46
318.136	230.4
318.592	244.44
319.048	260.82
319.503	260.82
319.959	333.38
320.414	253.8
320.869	321.68
321.325	366.15
321.78	295.93
322.235	235.08
322.691	321.68
323.146	284.23
323.601	307.63
324.056	324.02
324.511	242.1
324.966	302.95
325.421	265.5
325.875	244.44
326.33	277.21
326.785	347.42
327.24	279.55
327.694	237.42
328.149	279.55
328.603	244.44
329.058	209.33
329.512	319.34
329.966	242.1
330.421	295.93
330.875	270.19
331.329	288.91
331.783	335.72
332.237	319.34
332.691	328.7
333.145	352.1
333.599	221.03
334.053	352.1
334.507	317
334.96	279.55
335.414	314.66
335.868	305.29
336.321	352.1
336.775	272.53
337.228	249.12
337.682	277.21
338.135	295.93
338.588	277.21
339.042	284.23
339.495	258.48
339.948	314.66
340.401	277.21
340.854	295.93
341.307	302.95
341.76	366.15
342.213	277.21
342.666	314.66
343.119	291.25
343.571	307.63
344.024	326.36
344.477	300.61
344.929	356.79
345.382	274.87
345.834	309.97
346.287	375.51
346.739	307.63
347.191	312.32
347.644	302.95
348.096	288.91
348.548	256.14
349	324.02
349.452	265.5
349.904	312.32
350.356	314.66
350.808	387.21
351.26	361.47
351.711	279.55
352.163	256.14
352.615	305.29
353.066	284.23
353.518	253.8
353.969	300.61
354.421	265.5
354.872	286.57
355.324	298.27
355.775	302.95
356.226	302.95
356.677	307.63
357.128	281.89
357.579	300.61
358.03	284.23
358.481	321.68
358.932	314.66
359.383	307.63
359.834	265.5
360.285	312.32
360.735	265.5
361.186	249.12
361.637	338.06
362.087	302.95
362.538	349.76
362.988	345.08
363.438	300.61
363.889	345.08
364.339	349.76
364.789	251.46
365.239	230.4
365.689	302.95
366.139	314.66
366.589	340.4
367.039	300.61
367.489	244.44
367.939	307.63
368.389	206.99
368.839	298.27
369.288	317
369.738	359.13
370.187	333.38
370.637	317
371.086	267.85
371.536	309.97
371.985	312.32
372.434	305.29
372.884	314.66
373.333	328.7
373.782	298.27
374.231	345.08
374.68	295.93
375.129	328.7
375.578	265.5
376.027	338.06
376.475	295.93
376.924	300.61
377.373	335.72
377.822	298.27
378.27	274.87
378.719	314.66
379.167	302.95
379.616	309.97
380.064	281.89
380.512	265.5
380.961	277.21
381.409	307.63
381.857	317
382.305	349.76
382.753	298.27
383.201	338.06
383.649	291.25
384.097	328.7
384.545	288.91
384.992	286.57
385.44	363.81
385.888	307.63
386.335	288.91
386.783	244.44
387.231	324.02
387.678	347.42
388.125	291.25
388.573	328.7
389.02	270.19
389.467	281.89
389.914	317
390.362	284.23
390.809	270.19
391.256	342.74
391.703	363.81
392.15	333.38
392.596	321.68
393.043	277.21
393.49	309.97
393.937	352.1
394.383	333.38
394.83	326.36
395.276	314.66
395.723	331.04
396.169	309.97
396.616	202.31
397.062	300.61
397.508	277.21
397.954	237.42
398.401	354.44
398.847	305.29
399.293	265.5
399.739	267.85
400.185	251.46
400.631	277.21
401.076	281.89
401.522	307.63
401.968	319.34
402.414	305.29
402.859	309.97
403.305	279.55
403.75	277.21
404.196	312.32
404.641	398.92
405.086	349.76
405.532	295.93
405.977	286.57
406.422	340.4
406.867	281.89
407.312	317
407.757	295.93
408.202	305.29
408.647	340.4
409.092	302.95
409.537	309.97
409.982	356.79
410.426	239.76
410.871	326.36
411.316	274.87
411.76	270.19
412.205	354.44
412.649	305.29
413.093	314.66
413.538	274.87
413.982	253.8
414.426	272.53
414.87	277.21
415.314	249.12
415.758	321.68
416.202	321.68
416.646	270.19
417.09	309.97
417.534	314.66
417.978	298.27
418.421	317
418.865	342.74
419.309	298.27
419.752	319.34
420.196	277.21
420.639	267.85
421.083	300.61
421.526	281.89
421.969	228.06
422.412	324.02
422.856	291.25
423.299	260.82
423.742	307.63
424.185	326.36
424.628	314.66
425.071	317
425.513	403.6
425.956	295.93
426.399	263.16
426.842	347.42
427.284	314.66
427.727	284.23
428.169	342.74
428.612	340.4
429.054	274.87
429.497	286.57
429.939	368.49
430.381	225.72
430.823	256.14
431.265	326.36
431.707	277.21
432.149	335.72
432.591	284.23
433.033	345.08
433.475	319.34
433.917	249.12
434.359	338.06
434.8	274.87
435.242	277.21
435.684	312.32
436.125	305.29
436.567	321.68
437.008	321.68
437.449	347.42
437.891	307.63
438.332	314.66
438.773	321.68
439.214	274.87
439.656	377.85
440.097	281.89
440.538	295.93
440.978	363.81
441.419	279.55
441.86	298.27
442.301	242.1
442.742	309.97
443.182	324.02
443.623	314.66
444.063	249.12
444.504	366.15
444.944	359.13
445.385	356.79
445.825	295.93
446.265	286.57
446.706	302.95
447.146	317
447.586	279.55
448.026	352.1
448.466	300.61
448.906	335.72
449.346	192.95
449.786	291.25
450.225	258.48
450.665	270.19
451.105	305.29
451.544	356.79
451.984	302.95
452.424	324.02
452.863	328.7
453.302	328.7
453.742	298.27
454.181	270.19
454.62	380.19
455.059	335.72
455.499	363.81
455.938	314.66
456.377	328.7
456.816	291.25
457.254	309.97
457.693	286.57
458.132	286.57
458.571	302.95
459.01	302.95
459.448	302.95
459.887	319.34
460.325	300.61
460.764	279.55
461.202	326.36
461.641	307.63
462.079	302.95
462.517	274.87
462.955	291.25
463.393	328.7
463.832	314.66
464.27	298.27
464.708	312.32
465.145	321.68
465.583	331.04
466.021	305.29
466.459	324.02
466.897	307.63
467.334	354.44
467.772	288.91
468.209	309.97
468.647	295.93
469.084	267.85
469.522	347.42
469.959	309.97
470.396	298.27
470.833	333.38
471.271	361.47
471.708	288.91
472.145	279.55
472.582	286.57
473.019	272.53
473.456	305.29
473.892	249.12
474.329	356.79
474.766	249.12
475.202	335.72
475.639	277.21
476.076	333.38
476.512	317
476.949	272.53
477.385	319.34
477.821	305.29
478.258	291.25
478.694	272.53
479.13	359.13
479.566	326.36
480.002	300.61
480.438	260.82
480.874	317
481.31	237.42
481.746	281.89
482.181	340.4
482.617	333.38
483.053	338.06
483.488	312.32
483.924	246.78
484.36	265.5
484.795	366.15
485.23	317
485.666	312.32
486.101	312.32
486.536	363.81
486.971	345.08
487.407	300.61
487.842	349.76
488.277	321.68
488.712	333.38
489.146	305.29
489.581	256.14
490.016	335.72
490.451	293.59
490.885	347.42
491.32	324.02
491.755	307.63
492.189	324.02
492.624	302.95
493.058	331.04
493.492	277.21
493.927	281.89
494.361	319.34
494.795	335.72
495.229	265.5
495.663	281.89
496.097	331.04
496.531	298.27
496.965	319.34
497.399	279.55
497.833	279.55
498.266	317
498.7	342.74
499.134	312.32
499.567	328.7
500.001	295.93
500.434	347.42
500.868	309.97
501.301	307.63
501.734	270.19
502.168	267.85
502.601	317
503.034	274.87
503.467	309.97
503.9	338.06
504.333	291.25
504.766	253.8
505.199	312.32
505.632	335.72
506.064	279.55
506.497	321.68
506.93	279.55
507.362	265.5
507.795	295.93
508.227	328.7
508.66	279.55
509.092	342.74
509.524	293.59
509.956	263.16
510.389	246.78
510.821	384.87
511.253	324.02
511.685	288.91
512.117	368.49
512.549	260.82
512.981	326.36
513.412	286.57
513.844	319.34
514.276	284.23
514.707	263.16
515.139	305.29
515.571	370.83
516.002	368.49
516.433	331.04
516.865	279.55
517.296	333.38
517.727	333.38
518.159	288.91
518.59	321.68
519.021	291.25
519.452	295.93
519.883	295.93
520.314	281.89
520.744	317
521.175	317
521.606	347.42
522.037	300.61
522.467	274.87
522.898	342.74
523.328	286.57
523.759	317
524.189	335.72
524.62	391.89
525.05	258.48
525.48	328.7
525.91	342.74
526.341	384.87
526.771	295.93
527.201	277.21
527.631	293.59
528.061	370.83
528.49	270.19
528.92	338.06
529.35	258.48
529.78	302.95
530.209	328.7
530.639	356.79
531.068	246.78
531.498	295.93
531.927	279.55
532.357	279.55
532.786	279.55
533.215	326.36
533.644	319.34
534.074	338.06
534.503	291.25
534.932	258.48
535.361	328.7
535.79	298.27
536.218	279.55
536.647	312.32
537.076	300.61
537.505	302.95
537.933	319.34
538.362	328.7
538.79	312.32
539.219	279.55
539.647	340.4
540.076	354.44
540.504	265.5
540.932	326.36
541.36	230.4
541.788	288.91
542.217	291.25
542.645	274.87
543.073	314.66
543.5	342.74
543.928	267.85
544.356	326.36
544.784	284.23
545.211	305.29
545.639	291.25
546.067	328.7
546.494	342.74
546.922	373.17
547.349	253.8
547.776	246.78
548.204	349.76
548.631	267.85
549.058	291.25
549.485	298.27
549.912	251.46
550.339	335.72
550.766	309.97
551.193	260.82
551.62	305.29
552.047	249.12
552.474	291.25
552.9	335.72
553.327	286.57
553.754	281.89
554.18	333.38
554.607	302.95
555.033	277.21
555.459	291.25
555.886	321.68
556.312	380.19
556.738	293.59
557.164	314.66
557.59	279.55
558.016	242.1
558.442	319.34
558.868	260.82
559.294	328.7
559.72	277.21
560.145	314.66
560.571	256.14
560.997	291.25
561.422	345.08
561.848	277.21
562.273	338.06
562.699	312.32
563.124	284.23
563.549	253.8
563.974	286.57
564.4	307.63
564.825	270.19
565.25	359.13
565.675	377.85
566.1	291.25
566.525	295.93
566.95	338.06
567.374	232.74
567.799	288.91
568.224	284.23
568.648	239.76
569.073	373.17
569.497	309.97
569.922	328.7
570.346	363.81
570.771	263.16
571.195	314.66
571.619	349.76
572.043	288.91
572.467	277.21
572.891	321.68
573.315	314.66
573.739	260.82
574.163	258.48
574.587	333.38
575.011	251.46
575.435	277.21
575.858	342.74
576.282	328.7
576.705	295.93
577.129	347.42
577.552	347.42
577.976	347.42
578.399	321.68
578.822	309.97
579.245	335.72
579.669	321.68
580.092	302.95
580.515	317
580.938	298.27
581.361	277.21
581.784	293.59
582.206	312.32
582.629	291.25
583.052	300.61
583.474	361.47
583.897	340.4
584.32	246.78
584.742	228.06
585.165	359.13
585.587	314.66
586.009	274.87
586.431	354.44
586.854	256.14
587.276	307.63
587.698	384.87
588.12	331.04
588.542	342.74
588.964	321.68
589.386	300.61
589.807	284.23
590.229	317
590.651	305.29
591.073	345.08
591.494	307.63
591.916	279.55
592.337	366.15
592.759	277.21
593.18	347.42
593.601	309.97
594.022	277.21
594.444	274.87
594.865	333.38
595.286	377.85
595.707	345.08
596.128	324.02
596.549	307.63
596.97	249.12
597.39	321.68
597.811	291.25
598.232	309.97
598.652	366.15
599.073	305.29
599.494	354.44
599.914	298.27
600.334	326.36
600.755	331.04
601.175	253.8
601.595	295.93
602.015	394.23
602.436	352.1
602.856	434.02
603.276	274.87
603.696	244.44
604.115	242.1
604.535	314.66
604.955	288.91
605.375	284.23
605.794	298.27
606.214	253.8
606.634	267.85
607.053	342.74
607.473	279.55
607.892	328.7
608.311	307.63
608.731	324.02
609.15	342.74
609.569	319.34
609.988	270.19
610.407	286.57
610.826	375.51
611.245	309.97
611.664	288.91
612.083	277.21
612.501	319.34
612.92	335.72
613.339	363.81
613.757	324.02
614.176	277.21
614.594	326.36
615.013	328.7
615.431	277.21
615.85	258.48
616.268	309.97
616.686	295.93
617.104	270.19
617.522	328.7
617.94	272.53
618.358	279.55
618.776	333.38
619.194	300.61
619.612	256.14
620.03	331.04
620.447	324.02
620.865	291.25
621.282	335.72
621.7	331.04
622.117	284.23
622.535	338.06
622.952	345.08
623.369	291.25
623.787	302.95
624.204	288.91
624.621	237.42
625.038	338.06
625.455	302.95
625.872	349.76
626.289	319.34
626.706	331.04
627.123	326.36
627.539	302.95
627.956	307.63
628.373	312.32
628.789	335.72
629.206	305.29
629.622	335.72
630.038	328.7
630.455	288.91
630.871	277.21
631.287	244.44
631.703	333.38
632.12	363.81
632.536	319.34
632.952	291.25
633.368	256.14
633.783	319.34
634.199	272.53
634.615	223.37
635.031	228.06
635.446	265.5
635.862	293.59
636.277	326.36
636.693	225.72
637.108	204.65
637.524	363.81
637.939	354.44
638.354	328.7
638.77	251.46
639.185	342.74
639.6	319.34
640.015	291.25
640.43	349.76
640.845	328.7
641.259	272.53
641.674	331.04
642.089	307.63
642.504	307.63
642.918	321.68
643.333	293.59
643.747	279.55
644.162	272.53
644.576	328.7
644.991	279.55
645.405	298.27
645.819	309.97
646.233	279.55
646.647	293.59
647.061	314.66
647.475	370.83
647.889	321.68
648.303	272.53
648.717	265.5
649.131	305.29
649.545	342.74
649.958	377.85
650.372	293.59
650.785	274.87
651.199	286.57
651.612	221.03
652.026	321.68
652.439	298.27
652.852	321.68
653.266	291.25
653.679	244.44
654.092	331.04
654.505	333.38
654.918	349.76
655.331	302.95
655.744	270.19
656.156	270.19
656.569	347.42
656.982	293.59
657.394	307.63
657.807	249.12
658.22	305.29
658.632	232.74
659.044	302.95
659.457	249.12
659.869	295.93
660.281	305.29
660.693	258.48
661.106	284.23
661.518	356.79
661.93	314.66
662.342	263.16
662.754	342.74
663.165	349.76
663.577	363.81
663.989	309.97
664.401	284.23
664.812	263.16
665.224	195.29
665.635	347.42
666.047	345.08
666.458	256.14
666.869	317
667.281	314.66
667.692	293.59
668.103	324.02
668.514	312.32
668.925	319.34
669.336	295.93
669.747	284.23
670.158	295.93
670.569	401.26
670.979	256.14
671.39	272.53
671.801	251.46
672.211	267.85
672.622	333.38
673.032	298.27
673.443	312.32
673.853	277.21
674.263	342.74
674.674	300.61
675.084	314.66
675.494	298.27
675.904	333.38
676.314	319.34
676.724	312.32
677.134	319.34
677.544	249.12
677.953	253.8
678.363	349.76
678.773	396.57
679.182	326.36
679.592	300.61
680.001	265.5
680.411	326.36
680.82	302.95
681.23	249.12
681.639	410.62
682.048	321.68
682.457	239.76
682.866	302.95
683.275	225.72
683.684	272.53
684.093	274.87
684.502	328.7
684.911	317
685.32	335.72
685.728	279.55
686.137	260.82
686.546	298.27
686.954	253.8
687.363	291.25
687.771	249.12
688.179	352.1
688.588	309.97
688.996	340.4
689.404	331.04
689.812	356.79
690.22	258.48
690.628	293.59
691.036	331.04
691.444	340.4
691.852	401.26
692.26	338.06
692.667	354.44
693.075	349.76
693.483	331.04
693.89	305.29
694.298	345.08
694.705	295.93
695.112	246.78
695.52	293.59
695.927	295.93
696.334	230.4
696.741	328.7
697.148	345.08
697.555	302.95
697.962	277.21
698.369	324.02
698.776	312.32
699.183	342.74
699.59	256.14
699.996	338.06
700.403	295.93
700.81	326.36
701.216	291.25
701.623	260.82
702.029	298.27
702.435	281.89
702.842	347.42
703.248	317
703.654	314.66
704.06	277.21
704.466	326.36
704.872	321.68
705.278	305.29
705.684	281.89
706.09	300.61
706.496	286.57
706.901	288.91
707.307	244.44
707.712	302.95
708.118	274.87
708.523	314.66
708.929	253.8
709.334	331.04
709.74	326.36
710.145	237.42
710.55	338.06
710.955	312.32
711.36	293.59
711.765	342.74
712.17	321.68
712.575	317
712.98	813.19
713.385	387.21
713.789	267.85
714.194	284.23
714.599	286.57
715.003	319.34
715.408	293.59
715.812	295.93
716.217	302.95
716.621	342.74
717.025	363.81
717.429	270.19
717.833	300.61
718.238	331.04
718.642	244.44
719.046	300.61
719.449	356.79
719.853	326.36
720.257	349.76
720.661	298.27
721.065	340.4
721.468	326.36
721.872	338.06
722.275	321.68
722.679	281.89
723.082	288.91
723.485	295.93
723.889	326.36
724.292	359.13
724.695	284.23
725.098	291.25
725.501	324.02
725.904	291.25
726.307	260.82
726.71	335.72
727.113	288.91
727.516	352.1
727.918	321.68
728.321	216.35
728.724	333.38
729.126	338.06
729.529	305.29
729.931	298.27
730.333	354.44
730.736	333.38
731.138	265.5
731.54	324.02
731.942	295.93
732.344	258.48
732.746	305.29
733.148	307.63
733.55	295.93
733.952	277.21
734.354	333.38
734.756	281.89
735.157	239.76
735.559	291.25
735.96	324.02
736.362	253.8
736.763	363.81
737.165	286.57
737.566	293.59
737.967	263.16
738.368	288.91
738.77	281.89
739.171	295.93
739.572	256.14
739.973	363.81
740.374	328.7
740.774	321.68
741.175	277.21
741.576	331.04
741.977	291.25
742.377	293.59
742.778	284.23
743.178	300.61
743.579	288.91
743.979	368.49
744.379	260.82
744.78	270.19
745.18	260.82
745.58	286.57
745.98	321.68
746.38	291.25
746.78	305.29
747.18	338.06
747.58	281.89
747.98	251.46
748.38	363.81
748.779	333.38
749.179	223.37
749.578	359.13
749.978	291.25
750.377	356.79
750.777	319.34
751.176	286.57
751.575	340.4
751.975	274.87
752.374	335.72
752.773	321.68
753.172	277.21
753.571	246.78
753.97	298.27
754.369	272.53
754.768	326.36
755.166	295.93
755.565	331.04
755.964	281.89
756.362	265.5
756.761	300.61
757.159	258.48
757.558	270.19
757.956	302.95
758.354	345.08
758.753	345.08
759.151	239.76
759.549	300.61
759.947	298.27
760.345	309.97
760.743	291.25
761.141	309.97
761.539	293.59
761.936	314.66
762.334	270.19
762.732	345.08
763.129	270.19
763.527	288.91
763.924	356.79
764.322	291.25
764.719	230.4
765.117	314.66
765.514	319.34
765.911	298.27
766.308	288.91
766.705	319.34
767.102	319.34
767.499	228.06
767.896	202.31
768.293	286.57
768.69	302.95
769.086	288.91
769.483	321.68
769.88	342.74
770.276	263.16
770.673	270.19
771.069	361.47
771.466	317
771.862	291.25
772.258	274.87
772.654	314.66
773.05	211.67
773.447	319.34
773.843	242.1
774.239	312.32
774.634	309.97
775.03	272.53
775.426	349.76
775.822	342.74
776.218	270.19
776.613	326.36
777.009	326.36
777.404	265.5
777.8	338.06
778.195	314.66
778.59	295.93
778.986	342.74
779.381	298.27
779.776	302.95
780.171	295.93
780.566	333.38
780.961	202.31
781.356	384.87
781.751	326.36
782.146	328.7
782.54	300.61
782.935	267.85
783.33	284.23
783.724	342.74
784.119	312.32
784.513	335.72
784.908	314.66
785.302	335.72
785.696	319.34
786.09	298.27
786.485	211.67
786.879	309.97
787.273	361.47
787.667	288.91
788.061	263.16
788.454	305.29
788.848	312.32
789.242	291.25
789.636	314.66
790.029	260.82
790.423	319.34
790.816	354.44
791.21	312.32
791.603	347.42
791.997	291.25
792.39	214.01
792.783	305.29
793.176	307.63
793.569	302.95
793.962	288.91
794.355	314.66
794.748	300.61
795.141	263.16
795.534	340.4
795.927	319.34
796.319	300.61
796.712	302.95
797.105	293.59
797.497	382.53
797.89	293.59
798.282	265.5
798.674	232.74
799.067	312.32
799.459	319.34
799.851	307.63
800.243	246.78
800.635	314.66
801.027	242.1
801.419	260.82
801.811	314.66
802.203	345.08
802.594	291.25
802.986	291.25
803.378	281.89
803.769	314.66
804.161	314.66
804.552	331.04
804.944	359.13
805.335	321.68
805.726	328.7
806.118	342.74
806.509	256.14
806.9	293.59
807.291	284.23
807.682	312.32
808.073	375.51
808.464	293.59
808.855	321.68
809.245	260.82
809.636	246.78
810.027	307.63
810.417	302.95
810.808	312.32
811.198	333.38
811.589	251.46
811.979	286.57
812.369	307.63
812.759	335.72
813.15	253.8
813.54	295.93
813.93	286.57
814.32	338.06
814.71	267.85
815.1	331.04
815.489	309.97
815.879	305.29
816.269	340.4
816.658	356.79
817.048	321.68
817.438	302.95
817.827	333.38
818.216	349.76
818.606	242.1
818.995	317
819.384	321.68
819.773	300.61
820.163	270.19
820.552	239.76
820.941	300.61
821.33	284.23
821.718	317
822.107	338.06
822.496	281.89
822.885	284.23
823.273	265.5
823.662	324.02
824.05	293.59
824.439	331.04
824.827	284.23
825.216	312.32
825.604	277.21
825.992	331.04
826.38	317
826.768	293.59
827.156	298.27
827.544	253.8
827.932	274.87
828.32	305.29
828.708	274.87
829.096	286.57
829.483	246.78
829.871	270.19
830.259	328.7
830.646	256.14
831.034	263.16
831.421	298.27
831.808	272.53
832.196	345.08
832.583	274.87
832.97	293.59
833.357	249.12
833.744	331.04
834.131	333.38
834.518	293.59
834.905	288.91
835.292	258.48
835.678	214.01
836.065	314.66
836.452	246.78
836.838	309.97
837.225	338.06
837.611	267.85
837.998	286.57
838.384	288.91
838.77	354.44
839.157	284.23
839.543	314.66
839.929	305.29
840.315	272.53
840.701	258.48
841.087	270.19
841.473	253.8
841.858	375.51
842.244	321.68
842.63	277.21
843.015	333.38
843.401	569.77
843.787	302.95
844.172	260.82
844.557	328.7
844.943	333.38
845.328	342.74
845.713	260.82
846.098	286.57
846.483	214.01
846.868	305.29
847.253	300.61
847.638	277.21
848.023	375.51
848.408	366.15
848.793	309.97
849.177	246.78
849.562	300.61
849.947	349.76
850.331	279.55
850.715	251.46
851.1	288.91
851.484	335.72
851.868	279.55
852.253	324.02
852.637	272.53
853.021	249.12
853.405	286.57
853.789	347.42
854.173	295.93
854.557	349.76
854.94	347.42
855.324	281.89
855.708	317
856.091	347.42
856.475	223.37
856.858	284.23
857.242	345.08
857.625	272.53
858.009	190.61
858.392	291.25
858.775	242.1
859.158	305.29
859.541	307.63
859.924	246.78
860.307	340.4
860.69	319.34
861.073	352.1
861.456	319.34
861.838	293.59
862.221	274.87
862.604	312.32
862.986	249.12
863.369	377.85
863.751	363.81
864.133	354.44
864.516	274.87
864.898	324.02
865.28	317
865.662	277.21
866.044	314.66
866.426	302.95
866.808	342.74
867.19	295.93
867.572	295.93
867.954	295.93
868.336	382.53
868.717	314.66
869.099	286.57
869.48	286.57
869.862	300.61
870.243	309.97
870.625	267.85
871.006	338.06
871.387	286.57
871.768	284.23
872.149	298.27
872.53	309.97
872.911	284.23
873.292	235.08
873.673	312.32
874.054	295.93
874.435	293.59
874.815	335.72
875.196	218.69
875.577	302.95
875.957	295.93
876.338	293.59
876.718	272.53
877.098	321.68
877.479	331.04
877.859	300.61
878.239	354.44
878.619	298.27
878.999	265.5
879.379	349.76
879.759	288.91
880.139	380.19
880.519	305.29
880.898	288.91
881.278	302.95
881.658	342.74
882.037	281.89
882.417	277.21
882.796	347.42
883.176	279.55
883.555	286.57
883.934	321.68
884.313	356.79
884.693	340.4
885.072	272.53
885.451	277.21
885.83	302.95
886.209	293.59
886.587	335.72
886.966	373.17
887.345	319.34
887.724	279.55
888.102	302.95
888.481	286.57
888.859	277.21
889.238	237.42
889.616	314.66
889.994	349.76
890.373	295.93
890.751	352.1
891.129	307.63
891.507	267.85
891.885	293.59
892.263	253.8
892.641	342.74
893.019	398.92
893.396	319.34
893.774	345.08
894.152	284.23
894.529	300.61
894.907	272.53
895.284	232.74
895.662	216.35
896.039	237.42
896.416	307.63
896.794	354.44
897.171	281.89
897.548	321.68
897.925	256.14
898.302	295.93
898.679	333.38
899.056	302.95
899.433	251.46
899.809	368.49
900.186	277.21
900.563	277.21
900.939	237.42
901.316	370.83
901.692	340.4
902.069	244.44
902.445	286.57
902.821	312.32
903.197	230.4
903.574	270.19
903.95	265.5
904.326	319.34
904.702	377.85
905.078	342.74
905.454	281.89
905.829	335.72
906.205	317
906.581	298.27
906.956	249.12
907.332	256.14
907.707	356.79
908.083	230.4
908.458	286.57
908.833	309.97
909.209	256.14
909.584	284.23
909.959	277.21
910.334	319.34
910.709	293.59
911.084	284.23
911.459	326.36
911.834	300.61
912.209	321.68
912.583	326.36
912.958	288.91
913.333	342.74
913.707	293.59
914.082	326.36
914.456	263.16
914.83	286.57
915.205	319.34
915.579	288.91
915.953	324.02
916.327	340.4
916.701	277.21
917.075	284.23
917.449	342.74
917.823	314.66
918.197	345.08
918.571	319.34
918.944	321.68
919.318	314.66
919.692	324.02
920.065	253.8
920.438	321.68
920.812	246.78
921.185	314.66
921.558	333.38
921.932	270.19
922.305	284.23
922.678	279.55
923.051	258.48
923.424	314.66
923.797	305.29
924.17	256.14
924.542	263.16
924.915	291.25
925.288	305.29
925.661	277.21
926.033	302.95
926.406	307.63
926.778	345.08
927.15	277.21
927.523	291.25
927.895	279.55
928.267	356.79
928.639	314.66
929.011	295.93
929.383	345.08
929.755	305.29
930.127	307.63
930.499	333.38
930.871	281.89
931.242	272.53
931.614	286.57
931.986	291.25
932.357	342.74
932.729	279.55
933.1	270.19
933.471	314.66
933.843	204.65
934.214	347.42
934.585	338.06
934.956	309.97
935.327	324.02
935.698	277.21
936.069	331.04
936.44	270.19
936.811	317
937.182	300.61
937.552	314.66
937.923	284.23
938.293	356.79
938.664	338.06
939.034	279.55
939.405	249.12
939.775	312.32
940.145	228.06
940.516	335.72
940.886	328.7
941.256	258.48
941.626	302.95
941.996	312.32
942.366	295.93
942.735	298.27
943.105	239.76
943.475	298.27
943.845	242.1
944.214	291.25
944.584	263.16
944.953	300.61
945.323	281.89
945.692	309.97
946.061	260.82
946.43	340.4
946.8	326.36
947.169	288.91
947.538	298.27
947.907	253.8
948.276	260.82
948.645	291.25
949.013	300.61
949.382	305.29
949.751	279.55
950.119	281.89
950.488	284.23
950.857	326.36
951.225	314.66
951.593	253.8
951.962	284.23
952.33	288.91
952.698	324.02
953.066	305.29
953.434	274.87
953.802	246.78
954.17	267.85
954.538	281.89
954.906	352.1
955.274	274.87
955.642	345.08
956.009	314.66
956.377	284.23
956.744	324.02
957.112	312.32
957.479	319.34
957.847	324.02
958.214	331.04
958.581	380.19
958.948	302.95
959.315	260.82
959.683	291.25
960.05	279.55
960.416	291.25
960.783	307.63
961.15	324.02
961.517	317
961.884	342.74
962.25	284.23
962.617	309.97
962.983	324.02
963.35	370.83
963.716	258.48
964.082	321.68
964.449	331.04
964.815	281.89
965.181	230.4
965.547	347.42
965.913	293.59
966.279	274.87
966.645	298.27
967.011	295.93
967.377	307.63
967.742	307.63
968.108	251.46
968.474	267.85
968.839	324.02
969.205	263.16
969.57	305.29
969.935	319.34
970.301	230.4
970.666	286.57
971.031	331.04
971.396	305.29
971.761	279.55
972.126	333.38
972.491	277.21
972.856	345.08
973.221	267.85
973.586	319.34
973.95	319.34
974.315	342.74
974.679	286.57
975.044	249.12
975.408	270.19
975.773	331.04
976.137	347.42
976.501	309.97
976.866	291.25
977.23	258.48
977.594	302.95
977.958	232.74
978.322	288.91
978.686	265.5
979.049	338.06
979.413	331.04
979.777	291.25
980.141	258.48
980.504	293.59
980.868	256.14
981.231	331.04
981.595	270.19
981.958	324.02
982.321	274.87
982.684	345.08
983.048	279.55
983.411	347.42
983.774	333.38
984.137	354.44
984.5	314.66
984.862	309.97
985.225	317
985.588	319.34
985.951	286.57
986.313	281.89
986.676	293.59
987.038	286.57
987.401	270.19
987.763	291.25
988.125	307.63
988.488	302.95
988.85	319.34
989.212	277.21
989.574	288.91
989.936	352.1
990.298	302.95
990.66	228.06
991.022	300.61
991.383	375.51
991.745	300.61
992.107	284.23
992.468	195.29
992.83	288.91
993.191	321.68
993.553	279.55
993.914	270.19
994.275	333.38
994.637	319.34
994.998	284.23
995.359	286.57
995.72	375.51
996.081	281.89
996.442	317
996.803	340.4
997.163	319.34
997.524	270.19
997.885	288.91
998.245	324.02
998.606	242.1
998.966	317
999.327	272.53
999.687	338.06
1000.047	300.61
1000.408	352.1
1000.768	249.12
1001.128	302.95
1001.488	265.5
1001.848	237.42
1002.208	314.66
1002.568	230.4
1002.927	223.37
1003.287	274.87
1003.647	349.76
1004.007	281.89
1004.366	300.61
1004.726	319.34
1005.085	284.23
1005.444	256.14
1005.804	260.82
1006.163	317
1006.522	359.13
1006.881	274.87
1007.24	279.55
1007.599	258.48
1007.958	324.02
1008.317	345.08
1008.676	223.37
1009.035	253.8
1009.393	324.02
1009.752	305.29
1010.111	211.67
1010.469	221.03
1010.828	317
1011.186	342.74
1011.544	314.66
1011.903	333.38
1012.261	281.89
1012.619	253.8
1012.977	281.89
1013.335	338.06
1013.693	342.74
1014.051	242.1
1014.409	302.95
1014.767	279.55
1015.124	293.59
1015.482	333.38
1015.84	267.85
1016.197	312.32
1016.555	319.34
1016.912	354.44
1017.269	272.53
1017.627	300.61
1017.984	298.27
1018.341	284.23
1018.698	328.7
1019.055	293.59
1019.412	284.23
1019.769	309.97
1020.126	270.19
1020.483	345.08
1020.84	270.19
1021.196	293.59
1021.553	288.91
1021.909	295.93
1022.266	281.89
1022.622	272.53
1022.979	363.81
1023.335	305.29
1023.691	253.8
1024.047	256.14
1024.404	298.27
1024.76	300.61
1025.116	338.06
1025.472	331.04
1025.827	256.14
1026.183	347.42
1026.539	293.59
1026.895	298.27
1027.25	312.32
1027.606	265.5
1027.961	345.08
1028.317	279.55
1028.672	380.19
1029.028	242.1
1029.383	284.23
1029.738	328.7
1030.093	263.16
1030.448	324.02
1030.803	281.89
1031.158	242.1
1031.513	265.5
1031.868	307.63
1032.223	319.34
1032.577	293.59
1032.932	319.34
1033.287	307.63
1033.641	319.34
1033.996	340.4
1034.35	321.68
1034.704	298.27
1035.059	319.34
1035.413	359.13
1035.767	359.13
1036.121	359.13
