Data from Al_FLMS009871__949__16-20-01-421.txt Node

Date: Fri Mar 08 16:20:01 CST 2024
User: pe5414po
Spectrometer: FLMS00987
Trigger mode: 0
Integration Time (sec): 1.000000E-1
Scans to average: 1
Electric dark correction enabled: true
Nonlinearity correction enabled: false
Boxcar width: 0
XAxis mode: Wavelengths
Number of Pixels in Spectrum: 2048
>>>>>Begin Spectral Data<<<<<
188.938	-106.2
189.409	-106.2
189.879	-106.2
190.349	-85.14
190.819	-64.07
191.29	-120.25
191.76	-64.07
192.23	-115.56
192.7	-101.52
193.17	-80.46
193.64	-43.01
194.109	31.89
194.579	10.82
195.049	8.48
195.519	36.57
195.988	45.93
196.458	50.61
196.927	74.02
197.397	85.72
197.866	62.32
198.336	118.49
198.805	167.64
199.274	165.3
199.744	177
200.213	188.71
200.682	207.43
201.151	193.39
201.62	184.02
202.089	230.84
202.558	251.9
203.027	256.58
203.495	226.15
203.964	315.09
204.433	282.33
204.902	301.05
205.37	251.9
205.839	308.07
206.307	268.28
206.776	317.44
207.244	322.12
207.712	324.46
208.181	268.28
208.649	263.6
209.117	268.28
209.585	265.94
210.053	357.22
210.521	324.46
210.989	308.07
211.457	310.41
211.925	261.26
212.393	326.8
212.861	310.41
213.328	184.02
213.796	298.71
214.264	207.43
214.731	310.41
215.199	275.31
215.666	291.69
216.133	221.47
216.601	242.54
217.068	228.49
217.535	289.35
218.003	294.03
218.47	244.88
218.937	263.6
219.404	331.48
219.871	268.28
220.338	153.6
220.805	237.86
221.271	298.71
221.738	256.58
222.205	244.88
222.671	284.67
223.138	209.77
223.605	235.52
224.071	219.13
224.538	247.22
225.004	242.54
225.47	195.73
225.937	265.94
226.403	242.54
226.869	195.73
227.335	263.6
227.801	272.96
228.267	298.71
228.733	263.6
229.199	249.56
229.665	312.75
230.131	279.99
230.597	235.52
231.062	331.48
231.528	235.52
231.994	294.03
232.459	254.24
232.925	186.37
233.39	247.22
233.856	294.03
234.321	303.39
234.786	219.13
235.252	268.28
235.717	289.35
236.182	228.49
236.647	312.75
237.112	256.58
237.577	235.52
238.042	315.09
238.507	303.39
238.972	247.22
239.436	326.8
239.901	270.62
240.366	287.01
240.83	270.62
241.295	284.67
241.76	287.01
242.224	198.07
242.688	301.05
243.153	240.2
243.617	247.22
244.081	329.14
244.545	364.25
245.01	265.94
245.474	315.09
245.938	336.16
246.402	219.13
246.866	258.92
247.33	205.09
247.793	226.15
248.257	268.28
248.721	284.67
249.185	291.69
249.648	226.15
250.112	345.52
250.575	249.56
251.039	265.94
251.502	270.62
251.965	237.86
252.429	277.65
252.892	254.24
253.355	303.39
253.818	207.43
254.281	303.39
254.744	282.33
255.207	284.67
255.67	270.62
256.133	359.56
256.596	284.67
257.059	303.39
257.522	284.67
257.984	254.24
258.447	209.77
258.909	326.8
259.372	303.39
259.834	298.71
260.297	326.8
260.759	326.8
261.221	301.05
261.684	275.31
262.146	249.56
262.608	258.92
263.07	287.01
263.532	228.49
263.994	345.52
264.456	291.69
264.918	301.05
265.38	329.14
265.842	270.62
266.303	216.79
266.765	322.12
267.227	289.35
267.688	284.67
268.15	310.41
268.611	265.94
269.072	298.71
269.534	319.78
269.995	270.62
270.456	294.03
270.918	279.99
271.379	258.92
271.84	289.35
272.301	291.69
272.762	345.52
273.223	287.01
273.684	305.73
274.144	319.78
274.605	279.99
275.066	319.78
275.527	333.82
275.987	240.2
276.448	247.22
276.908	291.69
277.369	275.31
277.829	310.41
278.289	329.14
278.75	308.07
279.21	270.62
279.67	312.75
280.13	317.44
280.59	279.99
281.05	258.92
281.51	282.33
281.97	336.16
282.43	240.2
282.89	319.78
283.35	226.15
283.809	336.16
284.269	361.91
284.729	282.33
285.188	345.52
285.648	317.44
286.107	235.52
286.567	282.33
287.026	270.62
287.485	333.82
287.944	272.96
288.404	275.31
288.863	270.62
289.322	305.73
289.781	263.6
290.24	247.22
290.699	312.75
291.158	240.2
291.616	249.56
292.075	322.12
292.534	303.39
292.992	256.58
293.451	287.01
293.91	301.05
294.368	289.35
294.827	303.39
295.285	275.31
295.743	282.33
296.202	331.48
296.66	315.09
297.118	359.56
297.576	251.9
298.034	247.22
298.492	336.16
298.95	310.41
299.408	298.71
299.866	319.78
300.324	317.44
300.781	268.28
301.239	270.62
301.697	277.65
302.154	284.67
302.612	305.73
303.069	305.73
303.527	277.65
303.984	263.6
304.441	251.9
304.899	258.92
305.356	310.41
305.813	249.56
306.27	284.67
306.727	324.46
307.184	291.69
307.641	289.35
308.098	287.01
308.555	308.07
309.012	287.01
309.468	298.71
309.925	258.92
310.382	315.09
310.838	254.24
311.295	277.65
311.751	291.69
312.208	287.01
312.664	319.78
313.12	312.75
313.577	287.01
314.033	308.07
314.489	254.24
314.945	256.58
315.401	303.39
315.857	282.33
316.313	268.28
316.769	279.99
317.225	336.16
317.681	289.35
318.136	256.58
318.592	277.65
319.048	263.6
319.503	235.52
319.959	272.96
320.414	312.75
320.869	333.82
321.325	275.31
321.78	308.07
322.235	298.71
322.691	345.52
323.146	319.78
323.601	265.94
324.056	343.18
324.511	291.69
324.966	361.91
325.421	317.44
325.875	275.31
326.33	296.37
326.785	336.16
327.24	287.01
327.694	301.05
328.149	308.07
328.603	319.78
329.058	324.46
329.512	338.5
329.966	289.35
330.421	338.5
330.875	336.16
331.329	263.6
331.783	298.71
332.237	329.14
332.691	382.97
333.145	315.09
333.599	364.25
334.053	319.78
334.507	265.94
334.96	287.01
335.414	263.6
335.868	310.41
336.321	331.48
336.775	322.12
337.228	352.54
337.682	336.16
338.135	265.94
338.588	289.35
339.042	279.99
339.495	296.37
339.948	240.2
340.401	195.73
340.854	315.09
341.307	287.01
341.76	324.46
342.213	277.65
342.666	333.82
343.119	216.79
343.571	296.37
344.024	296.37
344.477	352.54
344.929	282.33
345.382	322.12
345.834	244.88
346.287	287.01
346.739	319.78
347.191	289.35
347.644	345.52
348.096	303.39
348.548	272.96
349	265.94
349.452	352.54
349.904	291.69
350.356	284.67
350.808	284.67
351.26	303.39
351.711	319.78
352.163	275.31
352.615	256.58
353.066	317.44
353.518	284.67
353.969	303.39
354.421	336.16
354.872	354.88
355.324	277.65
355.775	298.71
356.226	251.9
356.677	319.78
357.128	315.09
357.579	310.41
358.03	338.5
358.481	352.54
358.932	289.35
359.383	258.92
359.834	237.86
360.285	322.12
360.735	333.82
361.186	366.59
361.637	319.78
362.087	340.84
362.538	265.94
362.988	333.82
363.438	275.31
363.889	350.2
364.339	294.03
364.789	345.52
365.239	287.01
365.689	397.01
366.139	331.48
366.589	317.44
367.039	291.69
367.489	296.37
367.939	294.03
368.389	340.84
368.839	287.01
369.288	298.71
369.738	296.37
370.187	308.07
370.637	247.22
371.086	282.33
371.536	254.24
371.985	296.37
372.434	272.96
372.884	270.62
373.333	256.58
373.782	275.31
374.231	268.28
374.68	317.44
375.129	258.92
375.578	303.39
376.027	373.61
376.475	310.41
376.924	301.05
377.373	296.37
377.822	298.71
378.27	301.05
378.719	256.58
379.167	308.07
379.616	315.09
380.064	272.96
380.512	326.8
380.961	242.54
381.409	305.73
381.857	296.37
382.305	378.29
382.753	333.82
383.201	296.37
383.649	347.86
384.097	291.69
384.545	317.44
384.992	361.91
385.44	333.82
385.888	265.94
386.335	336.16
386.783	357.22
387.231	310.41
387.678	305.73
388.125	350.2
388.573	352.54
389.02	275.31
389.467	336.16
389.914	310.41
390.362	331.48
390.809	235.52
391.256	354.88
391.703	329.14
392.15	251.9
392.596	312.75
393.043	275.31
393.49	366.59
393.937	270.62
394.383	291.69
394.83	326.8
395.276	401.69
395.723	308.07
396.169	301.05
396.616	401.69
397.062	244.88
397.508	319.78
397.954	291.69
398.401	251.9
398.847	324.46
399.293	317.44
399.739	326.8
400.185	256.58
400.631	258.92
401.076	305.73
401.522	357.22
401.968	305.73
402.414	317.44
402.859	319.78
403.305	287.01
403.75	270.62
404.196	329.14
404.641	333.82
405.086	359.56
405.532	277.65
405.977	343.18
406.422	247.22
406.867	305.73
407.312	331.48
407.757	268.28
408.202	305.73
408.647	308.07
409.092	268.28
409.537	284.67
409.982	268.28
410.426	291.69
410.871	338.5
411.316	366.59
411.76	303.39
412.205	347.86
412.649	284.67
413.093	359.56
413.538	331.48
413.982	275.31
414.426	331.48
414.87	326.8
415.314	411.06
415.758	312.75
416.202	312.75
416.646	303.39
417.09	315.09
417.534	305.73
417.978	312.75
418.421	317.44
418.865	331.48
419.309	315.09
419.752	329.14
420.196	261.26
420.639	310.41
421.083	345.52
421.526	291.69
421.969	331.48
422.412	291.69
422.856	294.03
423.299	291.69
423.742	284.67
424.185	312.75
424.628	298.71
425.071	270.62
425.513	322.12
425.956	298.71
426.399	326.8
426.842	352.54
427.284	352.54
427.727	312.75
428.169	319.78
428.612	315.09
429.054	296.37
429.497	287.01
429.939	279.99
430.381	214.45
430.823	361.91
431.265	315.09
431.707	329.14
432.149	296.37
432.591	338.5
433.033	338.5
433.475	263.6
433.917	284.67
434.359	324.46
434.8	345.52
435.242	256.58
435.684	247.22
436.125	340.84
436.567	352.54
437.008	272.96
437.449	308.07
437.891	308.07
438.332	350.2
438.773	380.63
439.214	354.88
439.656	319.78
440.097	357.22
440.538	256.58
440.978	310.41
441.419	268.28
441.86	322.12
442.301	261.26
442.742	256.58
443.182	298.71
443.623	329.14
444.063	251.9
444.504	324.46
444.944	294.03
445.385	305.73
445.825	326.8
446.265	315.09
446.706	272.96
447.146	308.07
447.586	301.05
448.026	272.96
448.466	338.5
448.906	284.67
449.346	216.79
449.786	270.62
450.225	308.07
450.665	331.48
451.105	364.25
451.544	284.67
451.984	268.28
452.424	315.09
452.863	298.71
453.302	277.65
453.742	270.62
454.181	347.86
454.62	254.24
455.059	291.69
455.499	310.41
455.938	333.82
456.377	317.44
456.816	322.12
457.254	336.16
457.693	303.39
458.132	352.54
458.571	282.33
459.01	331.48
459.448	230.84
459.887	326.8
460.325	319.78
460.764	284.67
461.202	289.35
461.641	305.73
462.079	282.33
462.517	233.18
462.955	294.03
463.393	319.78
463.832	343.18
464.27	289.35
464.708	296.37
465.145	275.31
465.583	326.8
466.021	333.82
466.459	254.24
466.897	329.14
467.334	336.16
467.772	296.37
468.209	287.01
468.647	265.94
469.084	303.39
469.522	315.09
469.959	357.22
470.396	305.73
470.833	237.86
471.271	364.25
471.708	301.05
472.145	275.31
472.582	277.65
473.019	294.03
473.456	301.05
473.892	270.62
474.329	270.62
474.766	296.37
475.202	284.67
475.639	303.39
476.076	319.78
476.512	287.01
476.949	329.14
477.385	261.26
477.821	317.44
478.258	326.8
478.694	333.82
479.13	340.84
479.566	291.69
480.002	305.73
480.438	240.2
480.874	315.09
481.31	326.8
481.746	265.94
482.181	310.41
482.617	291.69
483.053	301.05
483.488	366.59
483.924	373.61
484.36	354.88
484.795	298.71
485.23	317.44
485.666	308.07
486.101	296.37
486.536	291.69
486.971	343.18
487.407	338.5
487.842	324.46
488.277	338.5
488.712	317.44
489.146	287.01
489.581	294.03
490.016	315.09
490.451	279.99
490.885	254.24
491.32	315.09
491.755	364.25
492.189	230.84
492.624	357.22
493.058	331.48
493.492	277.65
493.927	315.09
494.361	277.65
494.795	340.84
495.229	331.48
495.663	319.78
496.097	333.82
496.531	347.86
496.965	326.8
497.399	317.44
497.833	336.16
498.266	324.46
498.7	322.12
499.134	329.14
499.567	357.22
500.001	347.86
500.434	291.69
500.868	350.2
501.301	265.94
501.734	308.07
502.168	364.25
502.601	308.07
503.034	331.48
503.467	298.71
503.9	277.65
504.333	268.28
504.766	268.28
505.199	317.44
505.632	380.63
506.064	263.6
506.497	277.65
506.93	357.22
507.362	305.73
507.795	310.41
508.227	298.71
508.66	305.73
509.092	317.44
509.524	366.59
509.956	312.75
510.389	254.24
510.821	319.78
511.253	249.56
511.685	298.71
512.117	317.44
512.549	261.26
512.981	275.31
513.412	291.69
513.844	324.46
514.276	282.33
514.707	301.05
515.139	265.94
515.571	345.52
516.002	310.41
516.433	354.88
516.865	326.8
517.296	345.52
517.727	268.28
518.159	387.65
518.59	268.28
519.021	315.09
519.452	324.46
519.883	324.46
520.314	294.03
520.744	343.18
521.175	324.46
521.606	287.01
522.037	272.96
522.467	382.97
522.898	305.73
523.328	338.5
523.759	310.41
524.189	275.31
524.62	343.18
525.05	324.46
525.48	322.12
525.91	270.62
526.341	256.58
526.771	324.46
527.201	366.59
527.631	336.16
528.061	366.59
528.49	312.75
528.92	305.73
529.35	340.84
529.78	324.46
530.209	312.75
530.639	294.03
531.068	324.46
531.498	251.9
531.927	347.86
532.357	284.67
532.786	303.39
533.215	287.01
533.644	296.37
534.074	261.26
534.503	242.54
534.932	275.31
535.361	244.88
535.79	305.73
536.218	277.65
536.647	352.54
537.076	364.25
537.505	261.26
537.933	310.41
538.362	366.59
538.79	272.96
539.219	315.09
539.647	258.92
540.076	284.67
540.504	256.58
540.932	279.99
541.36	244.88
541.788	361.91
542.217	317.44
542.645	223.81
543.073	324.46
543.5	270.62
543.928	310.41
544.356	305.73
544.784	296.37
545.211	310.41
545.639	287.01
546.067	317.44
546.494	329.14
546.922	329.14
547.349	298.71
547.776	268.28
548.204	315.09
548.631	326.8
549.058	336.16
549.485	394.67
549.912	315.09
550.339	291.69
550.766	216.79
551.193	296.37
551.62	312.75
552.047	324.46
552.474	303.39
552.9	294.03
553.327	361.91
553.754	275.31
554.18	301.05
554.607	303.39
555.033	294.03
555.459	319.78
555.886	284.67
556.312	308.07
556.738	284.67
557.164	317.44
557.59	354.88
558.016	312.75
558.442	329.14
558.868	308.07
559.294	291.69
559.72	258.92
560.145	312.75
560.571	284.67
560.997	263.6
561.422	279.99
561.848	315.09
562.273	275.31
562.699	247.22
563.124	312.75
563.549	282.33
563.974	324.46
564.4	294.03
564.825	322.12
565.25	294.03
565.675	308.07
566.1	319.78
566.525	317.44
566.95	312.75
567.374	237.86
567.799	333.82
568.224	294.03
568.648	244.88
569.073	317.44
569.497	289.35
569.922	226.15
570.346	345.52
570.771	401.69
571.195	287.01
571.619	329.14
572.043	345.52
572.467	268.28
572.891	301.05
573.315	305.73
573.739	322.12
574.163	375.95
574.587	296.37
575.011	317.44
575.435	291.69
575.858	317.44
576.282	354.88
576.705	338.5
577.129	282.33
577.552	312.75
577.976	329.14
578.399	347.86
578.822	308.07
579.245	331.48
579.669	350.2
580.092	275.31
580.515	261.26
580.938	315.09
581.361	368.93
581.784	359.56
582.206	303.39
582.629	272.96
583.052	324.46
583.474	312.75
583.897	340.84
584.32	289.35
584.742	294.03
585.165	329.14
585.587	284.67
586.009	322.12
586.431	305.73
586.854	298.71
587.276	331.48
587.698	303.39
588.12	317.44
588.542	310.41
588.964	301.05
589.386	251.9
589.807	251.9
590.229	287.01
590.651	275.31
591.073	270.62
591.494	324.46
591.916	301.05
592.337	249.56
592.759	284.67
593.18	310.41
593.601	301.05
594.022	294.03
594.444	338.5
594.865	326.8
595.286	312.75
595.707	326.8
596.128	298.71
596.549	256.58
596.97	315.09
597.39	331.48
597.811	310.41
598.232	310.41
598.652	322.12
599.073	343.18
599.494	326.8
599.914	289.35
600.334	312.75
600.755	294.03
601.175	347.86
601.595	244.88
602.015	305.73
602.436	256.58
602.856	485.95
603.276	340.84
603.696	303.39
604.115	333.82
604.535	294.03
604.955	333.82
605.375	303.39
605.794	387.65
606.214	347.86
606.634	251.9
607.053	254.24
607.473	336.16
607.892	350.2
608.311	345.52
608.731	287.01
609.15	298.71
609.569	315.09
609.988	270.62
610.407	287.01
610.826	319.78
611.245	287.01
611.664	301.05
612.083	324.46
612.501	315.09
612.92	294.03
613.339	310.41
613.757	350.2
614.176	305.73
614.594	296.37
615.013	340.84
615.431	336.16
615.85	308.07
616.268	310.41
616.686	361.91
617.104	308.07
617.522	305.73
617.94	301.05
618.358	289.35
618.776	338.5
619.194	282.33
619.612	375.95
620.03	279.99
620.447	272.96
620.865	364.25
621.282	308.07
621.7	303.39
622.117	319.78
622.535	382.97
622.952	305.73
623.369	249.56
623.787	289.35
624.204	284.67
624.621	301.05
625.038	310.41
625.455	235.52
625.872	291.69
626.289	340.84
626.706	251.9
627.123	364.25
627.539	228.49
627.956	279.99
628.373	312.75
628.789	287.01
629.206	277.65
629.622	322.12
630.038	315.09
630.455	312.75
630.871	282.33
631.287	287.01
631.703	284.67
632.12	352.54
632.536	289.35
632.952	312.75
633.368	324.46
633.783	279.99
634.199	333.82
634.615	329.14
635.031	303.39
635.446	291.69
635.862	324.46
636.277	296.37
636.693	275.31
637.108	247.22
637.524	345.52
637.939	277.65
638.354	357.22
638.77	265.94
639.185	368.93
639.6	324.46
640.015	329.14
640.43	331.48
640.845	265.94
641.259	326.8
641.674	263.6
642.089	359.56
642.504	340.84
642.918	294.03
643.333	240.2
643.747	336.16
644.162	289.35
644.576	401.69
644.991	354.88
645.405	315.09
645.819	254.24
646.233	287.01
646.647	301.05
647.061	287.01
647.475	329.14
647.889	326.8
648.303	315.09
648.717	298.71
649.131	319.78
649.545	359.56
649.958	315.09
650.372	296.37
650.785	282.33
651.199	275.31
651.612	317.44
652.026	235.52
652.439	268.28
652.852	345.52
653.266	326.8
653.679	291.69
654.092	340.84
654.505	263.6
654.918	380.63
655.331	329.14
655.744	326.8
656.156	242.54
656.569	261.26
656.982	324.46
657.394	303.39
657.807	361.91
658.22	333.82
658.632	277.65
659.044	319.78
659.457	326.8
659.869	235.52
660.281	296.37
660.693	301.05
661.106	322.12
661.518	315.09
661.93	340.84
662.342	287.01
662.754	289.35
663.165	270.62
663.577	287.01
663.989	382.97
664.401	319.78
664.812	277.65
665.224	310.41
665.635	277.65
666.047	263.6
666.458	345.52
666.869	272.96
667.281	265.94
667.692	315.09
668.103	317.44
668.514	282.33
668.925	308.07
669.336	317.44
669.747	287.01
670.158	347.86
670.569	331.48
670.979	310.41
671.39	333.82
671.801	244.88
672.211	308.07
672.622	350.2
673.032	322.12
673.443	305.73
673.853	331.48
674.263	287.01
674.674	308.07
675.084	298.71
675.494	296.37
675.904	298.71
676.314	329.14
676.724	254.24
677.134	352.54
677.544	329.14
677.953	319.78
678.363	350.2
678.773	345.52
679.182	324.46
679.592	364.25
680.001	298.71
680.411	298.71
680.82	291.69
681.23	315.09
681.639	296.37
682.048	301.05
682.457	404.03
682.866	312.75
683.275	324.46
683.684	291.69
684.093	279.99
684.502	350.2
684.911	331.48
685.32	333.82
685.728	317.44
686.137	338.5
686.546	331.48
686.954	303.39
687.363	268.28
687.771	296.37
688.179	233.18
688.588	251.9
688.996	359.56
689.404	301.05
689.812	361.91
690.22	235.52
690.628	338.5
691.036	312.75
691.444	308.07
691.852	333.82
692.26	392.33
692.667	284.67
693.075	326.8
693.483	287.01
693.89	272.96
694.298	329.14
694.705	317.44
695.112	291.69
695.52	230.84
695.927	308.07
696.334	279.99
696.741	277.65
697.148	326.8
697.555	366.59
697.962	333.82
698.369	333.82
698.776	366.59
699.183	319.78
699.59	275.31
699.996	315.09
700.403	296.37
700.81	308.07
701.216	298.71
701.623	298.71
702.029	347.86
702.435	357.22
702.842	310.41
703.248	296.37
703.654	282.33
704.06	294.03
704.466	345.52
704.872	331.48
705.278	305.73
705.684	284.67
706.09	256.58
706.496	287.01
706.901	322.12
707.307	319.78
707.712	312.75
708.118	289.35
708.523	305.73
708.929	364.25
709.334	317.44
709.74	345.52
710.145	301.05
710.55	310.41
710.955	324.46
711.36	305.73
711.765	315.09
712.17	317.44
712.575	265.94
712.98	834.69
713.385	310.41
713.789	310.41
714.194	333.82
714.599	270.62
715.003	312.75
715.408	275.31
715.812	256.58
716.217	338.5
716.621	296.37
717.025	270.62
717.429	289.35
717.833	261.26
718.238	256.58
718.642	272.96
719.046	305.73
719.449	305.73
719.853	291.69
720.257	345.52
720.661	308.07
721.065	291.69
721.468	371.27
721.872	382.97
722.275	343.18
722.679	329.14
723.082	279.99
723.485	305.73
723.889	291.69
724.292	305.73
724.695	336.16
725.098	254.24
725.501	305.73
725.904	289.35
726.307	343.18
726.71	282.33
727.113	308.07
727.516	361.91
727.918	310.41
728.321	296.37
728.724	237.86
729.126	282.33
729.529	357.22
729.931	275.31
730.333	282.33
730.736	322.12
731.138	308.07
731.54	317.44
731.942	284.67
732.344	228.49
732.746	294.03
733.148	329.14
733.55	291.69
733.952	303.39
734.354	340.84
734.756	294.03
735.157	270.62
735.559	317.44
735.96	294.03
736.362	350.2
736.763	275.31
737.165	301.05
737.566	287.01
737.967	350.2
738.368	279.99
738.77	284.67
739.171	275.31
739.572	338.5
739.973	382.97
740.374	361.91
740.774	322.12
741.175	336.16
741.576	214.45
741.977	319.78
742.377	291.69
742.778	294.03
743.178	310.41
743.579	272.96
743.979	289.35
744.379	336.16
744.78	284.67
745.18	336.16
745.58	298.71
745.98	338.5
746.38	324.46
746.78	303.39
747.18	380.63
747.58	305.73
747.98	340.84
748.38	287.01
748.779	298.71
749.179	305.73
749.578	385.31
749.978	294.03
750.377	347.86
750.777	347.86
751.176	324.46
751.575	261.26
751.975	331.48
752.374	284.67
752.773	279.99
753.172	305.73
753.571	291.69
753.97	368.93
754.369	322.12
754.768	319.78
755.166	254.24
755.565	354.88
755.964	298.71
756.362	284.67
756.761	312.75
757.159	340.84
757.558	366.59
757.956	352.54
758.354	270.62
758.753	233.18
759.151	354.88
759.549	359.56
759.947	343.18
760.345	352.54
760.743	301.05
761.141	277.65
761.539	350.2
761.936	333.82
762.334	272.96
762.732	223.81
763.129	296.37
763.527	359.56
763.924	301.05
764.322	251.9
764.719	352.54
765.117	272.96
765.514	317.44
765.911	336.16
766.308	338.5
766.705	305.73
767.102	289.35
767.499	277.65
767.896	244.88
768.293	326.8
768.69	357.22
769.086	226.15
769.483	291.69
769.88	275.31
770.276	268.28
770.673	326.8
771.069	242.54
771.466	279.99
771.862	331.48
772.258	394.67
772.654	333.82
773.05	291.69
773.447	324.46
773.843	294.03
774.239	340.84
774.634	310.41
775.03	322.12
775.426	357.22
775.822	350.2
776.218	270.62
776.613	242.54
777.009	387.65
777.404	289.35
777.8	312.75
778.195	287.01
778.59	319.78
778.986	308.07
779.381	343.18
779.776	279.99
780.171	347.86
780.566	317.44
780.961	380.63
781.356	272.96
781.751	301.05
782.146	279.99
782.54	305.73
782.935	272.96
783.33	261.26
783.724	256.58
784.119	282.33
784.513	338.5
784.908	270.62
785.302	240.2
785.696	303.39
786.09	322.12
786.485	317.44
786.879	258.92
787.273	305.73
787.667	317.44
788.061	256.58
788.454	287.01
788.848	305.73
789.242	310.41
789.636	282.33
790.029	237.86
790.423	287.01
790.816	263.6
791.21	336.16
791.603	294.03
791.997	284.67
792.39	258.92
792.783	256.58
793.176	343.18
793.569	289.35
793.962	308.07
794.355	310.41
794.748	279.99
795.141	329.14
795.534	249.56
795.927	287.01
796.319	331.48
796.712	296.37
797.105	340.84
797.497	291.69
797.89	375.95
798.282	317.44
798.674	277.65
799.067	354.88
799.459	294.03
799.851	345.52
800.243	315.09
800.635	329.14
801.027	301.05
801.419	284.67
801.811	268.28
802.203	310.41
802.594	298.71
802.986	364.25
803.378	331.48
803.769	305.73
804.161	279.99
804.552	301.05
804.944	291.69
805.335	303.39
805.726	277.65
806.118	254.24
806.509	289.35
806.9	345.52
807.291	308.07
807.682	287.01
808.073	326.8
808.464	338.5
808.855	319.78
809.245	272.96
809.636	249.56
810.027	324.46
810.417	289.35
810.808	322.12
811.198	364.25
811.589	375.95
811.979	291.69
812.369	272.96
812.759	256.58
813.15	338.5
813.54	251.9
813.93	270.62
814.32	279.99
814.71	303.39
815.1	242.54
815.489	244.88
815.879	315.09
816.269	301.05
816.658	275.31
817.048	324.46
817.438	308.07
817.827	240.2
818.216	261.26
818.606	261.26
818.995	361.91
819.384	361.91
819.773	263.6
820.163	296.37
820.552	244.88
820.941	305.73
821.33	366.59
821.718	322.12
822.107	305.73
822.496	223.81
822.885	305.73
823.273	279.99
823.662	275.31
824.05	296.37
824.439	315.09
824.827	352.54
825.216	301.05
825.604	284.67
825.992	324.46
826.38	305.73
826.768	310.41
827.156	294.03
827.544	265.94
827.932	263.6
828.32	333.82
828.708	294.03
829.096	261.26
829.483	354.88
829.871	298.71
830.259	254.24
830.646	294.03
831.034	315.09
831.421	296.37
831.808	263.6
832.196	279.99
832.583	303.39
832.97	282.33
833.357	287.01
833.744	298.71
834.131	352.54
834.518	294.03
834.905	308.07
835.292	244.88
835.678	258.92
836.065	324.46
836.452	312.75
836.838	258.92
837.225	294.03
837.611	230.84
837.998	338.5
838.384	326.8
838.77	324.46
839.157	270.62
839.543	235.52
839.929	317.44
840.315	338.5
840.701	301.05
841.087	296.37
841.473	265.94
841.858	282.33
842.244	298.71
842.63	205.09
843.015	258.92
843.401	584.26
843.787	261.26
844.172	333.82
844.557	310.41
844.943	310.41
845.328	322.12
845.713	315.09
846.098	268.28
846.483	336.16
846.868	251.9
847.253	331.48
847.638	296.37
848.023	296.37
848.408	244.88
848.793	343.18
849.177	284.67
849.562	375.95
849.947	301.05
850.331	303.39
850.715	329.14
851.1	317.44
851.484	345.52
851.868	326.8
852.253	303.39
852.637	265.94
853.021	291.69
853.405	249.56
853.789	343.18
854.173	308.07
854.557	261.26
854.94	289.35
855.324	319.78
855.708	315.09
856.091	366.59
856.475	282.33
856.858	338.5
857.242	303.39
857.625	352.54
858.009	331.48
858.392	251.9
858.775	322.12
859.158	303.39
859.541	305.73
859.924	279.99
860.307	315.09
860.69	317.44
861.073	261.26
861.456	343.18
861.838	287.01
862.221	287.01
862.604	324.46
862.986	310.41
863.369	385.31
863.751	287.01
864.133	282.33
864.516	352.54
864.898	340.84
865.28	308.07
865.662	301.05
866.044	289.35
866.426	301.05
866.808	354.88
867.19	240.2
867.572	340.84
867.954	291.69
868.336	345.52
868.717	305.73
869.099	301.05
869.48	312.75
869.862	247.22
870.243	375.95
870.625	291.69
871.006	284.67
871.387	298.71
871.768	326.8
872.149	322.12
872.53	322.12
872.911	298.71
873.292	315.09
873.673	249.56
874.054	270.62
874.435	336.16
874.815	315.09
875.196	315.09
875.577	319.78
875.957	282.33
876.338	249.56
876.718	310.41
877.098	240.2
877.479	331.48
877.859	261.26
878.239	277.65
878.619	322.12
878.999	254.24
879.379	331.48
879.759	277.65
880.139	324.46
880.519	312.75
880.898	317.44
881.278	322.12
881.658	258.92
882.037	324.46
882.417	228.49
882.796	291.69
883.176	322.12
883.555	329.14
883.934	240.2
884.313	289.35
884.693	275.31
885.072	368.93
885.451	336.16
885.83	305.73
886.209	352.54
886.587	247.22
886.966	275.31
887.345	315.09
887.724	287.01
888.102	287.01
888.481	317.44
888.859	303.39
889.238	338.5
889.616	352.54
889.994	268.28
890.373	310.41
890.751	294.03
891.129	308.07
891.507	361.91
891.885	338.5
892.263	289.35
892.641	298.71
893.019	329.14
893.396	324.46
893.774	284.67
894.152	249.56
894.529	324.46
894.907	326.8
895.284	324.46
895.662	247.22
896.039	258.92
896.416	287.01
896.794	272.96
897.171	315.09
897.548	308.07
897.925	338.5
898.302	249.56
898.679	368.93
899.056	230.84
899.433	282.33
899.809	345.52
900.186	310.41
900.563	303.39
900.939	310.41
901.316	247.22
901.692	310.41
902.069	308.07
902.445	308.07
902.821	312.75
903.197	298.71
903.574	312.75
903.95	249.56
904.326	375.95
904.702	275.31
905.078	216.79
905.454	303.39
905.829	329.14
906.205	340.84
906.581	275.31
906.956	270.62
907.332	251.9
907.707	242.54
908.083	261.26
908.458	270.62
908.833	272.96
909.209	258.92
909.584	244.88
909.959	347.86
910.334	287.01
910.709	336.16
911.084	291.69
911.459	303.39
911.834	298.71
912.209	352.54
912.583	315.09
912.958	331.48
913.333	392.33
913.707	301.05
914.082	282.33
914.456	319.78
914.83	368.93
915.205	296.37
915.579	298.71
915.953	251.9
916.327	322.12
916.701	275.31
917.075	277.65
917.449	347.86
917.823	277.65
918.197	275.31
918.571	312.75
918.944	268.28
919.318	247.22
919.692	315.09
920.065	368.93
920.438	298.71
920.812	268.28
921.185	279.99
921.558	301.05
921.932	336.16
922.305	338.5
922.678	361.91
923.051	329.14
923.424	298.71
923.797	315.09
924.17	345.52
924.542	333.82
924.915	289.35
925.288	282.33
925.661	310.41
926.033	408.72
926.406	324.46
926.778	310.41
927.15	294.03
927.523	303.39
927.895	315.09
928.267	268.28
928.639	298.71
929.011	340.84
929.383	317.44
929.755	249.56
930.127	272.96
930.499	268.28
930.871	279.99
931.242	324.46
931.614	268.28
931.986	256.58
932.357	277.65
932.729	319.78
933.1	310.41
933.471	333.82
933.843	289.35
934.214	282.33
934.585	354.88
934.956	294.03
935.327	287.01
935.698	324.46
936.069	279.99
936.44	296.37
936.811	289.35
937.182	324.46
937.552	310.41
937.923	301.05
938.293	310.41
938.664	301.05
939.034	338.5
939.405	270.62
939.775	312.75
940.145	214.45
940.516	331.48
940.886	317.44
941.256	291.69
941.626	322.12
941.996	296.37
942.366	284.67
942.735	263.6
943.105	289.35
943.475	270.62
943.845	319.78
944.214	261.26
944.584	331.48
944.953	301.05
945.323	291.69
945.692	298.71
946.061	296.37
946.43	326.8
946.8	350.2
947.169	340.84
947.538	268.28
947.907	338.5
948.276	258.92
948.645	354.88
949.013	326.8
949.382	287.01
949.751	331.48
950.119	319.78
950.488	319.78
950.857	291.69
951.225	301.05
951.593	345.52
951.962	303.39
952.33	387.65
952.698	289.35
953.066	265.94
953.434	268.28
953.802	298.71
954.17	317.44
954.538	361.91
954.906	364.25
955.274	296.37
955.642	338.5
956.009	301.05
956.377	258.92
956.744	263.6
957.112	287.01
957.479	322.12
957.847	308.07
958.214	258.92
958.581	279.99
958.948	272.96
959.315	368.93
959.683	361.91
960.05	394.67
960.416	291.69
960.783	322.12
961.15	359.56
961.517	249.56
961.884	340.84
962.25	354.88
962.617	265.94
962.983	275.31
963.35	347.86
963.716	298.71
964.082	371.27
964.449	322.12
964.815	294.03
965.181	354.88
965.547	343.18
965.913	343.18
966.279	322.12
966.645	298.71
967.011	333.82
967.377	324.46
967.742	254.24
968.108	294.03
968.474	357.22
968.839	296.37
969.205	272.96
969.57	373.61
969.935	294.03
970.301	326.8
970.666	287.01
971.031	322.12
971.396	268.28
971.761	345.52
972.126	268.28
972.491	282.33
972.856	336.16
973.221	357.22
973.586	296.37
973.95	315.09
974.315	326.8
974.679	282.33
975.044	275.31
975.408	277.65
975.773	230.84
976.137	258.92
976.501	373.61
976.866	279.99
977.23	301.05
977.594	268.28
977.958	287.01
978.322	352.54
978.686	310.41
979.049	331.48
979.413	272.96
979.777	291.69
980.141	268.28
980.504	298.71
980.868	284.67
981.231	326.8
981.595	382.97
981.958	282.33
982.321	268.28
982.684	233.18
983.048	333.82
983.411	329.14
983.774	298.71
984.137	324.46
984.5	310.41
984.862	235.52
985.225	336.16
985.588	263.6
985.951	301.05
986.313	326.8
986.676	317.44
987.038	258.92
987.401	326.8
987.763	294.03
988.125	277.65
988.488	268.28
988.85	263.6
989.212	272.96
989.574	256.58
989.936	226.15
990.298	263.6
990.66	340.84
991.022	279.99
991.383	261.26
991.745	303.39
992.107	303.39
992.468	284.67
992.83	277.65
993.191	347.86
993.553	294.03
993.914	284.67
994.275	294.03
994.637	258.92
994.998	308.07
995.359	275.31
995.72	373.61
996.081	256.58
996.442	301.05
996.803	291.69
997.163	298.71
997.524	324.46
997.885	331.48
998.245	312.75
998.606	359.56
998.966	305.73
999.327	249.56
999.687	359.56
1000.047	242.54
1000.408	317.44
1000.768	287.01
1001.128	357.22
1001.488	265.94
1001.848	315.09
1002.208	291.69
1002.568	268.28
1002.927	270.62
1003.287	340.84
1003.647	338.5
1004.007	270.62
1004.366	338.5
1004.726	296.37
1005.085	298.71
1005.444	279.99
1005.804	282.33
1006.163	279.99
1006.522	258.92
1006.881	305.73
1007.24	277.65
1007.599	322.12
1007.958	263.6
1008.317	347.86
1008.676	305.73
1009.035	324.46
1009.393	354.88
1009.752	350.2
1010.111	265.94
1010.469	287.01
1010.828	291.69
1011.186	319.78
1011.544	326.8
1011.903	294.03
1012.261	282.33
1012.619	317.44
1012.977	256.58
1013.335	287.01
1013.693	270.62
1014.051	322.12
1014.409	319.78
1014.767	336.16
1015.124	244.88
1015.482	258.92
1015.84	298.71
1016.197	364.25
1016.555	287.01
1016.912	326.8
1017.269	287.01
1017.627	305.73
1017.984	315.09
1018.341	366.59
1018.698	282.33
1019.055	347.86
1019.412	338.5
1019.769	254.24
1020.126	340.84
1020.483	312.75
1020.84	284.67
1021.196	298.71
1021.553	256.58
1021.909	350.2
1022.266	279.99
1022.622	228.49
1022.979	319.78
1023.335	373.61
1023.691	312.75
1024.047	333.82
1024.404	359.56
1024.76	256.58
1025.116	291.69
1025.472	294.03
1025.827	272.96
1026.183	270.62
1026.539	317.44
1026.895	345.52
1027.25	275.31
1027.606	265.94
1027.961	329.14
1028.317	282.33
1028.672	291.69
1029.028	289.35
1029.383	284.67
1029.738	284.67
1030.093	331.48
1030.448	284.67
1030.803	310.41
1031.158	322.12
1031.513	284.67
1031.868	270.62
1032.223	289.35
1032.577	322.12
1032.932	317.44
1033.287	322.12
1033.641	244.88
1033.996	258.92
1034.35	336.16
1034.704	240.2
1035.059	308.07
1035.413	317.44
1035.767	317.44
1036.121	317.44
