Data from Al_FLMS009871__586__14-46-40-318.txt Node

Date: Fri Mar 08 14:46:40 CST 2024
User: pe5414po
Spectrometer: FLMS00987
Trigger mode: 0
Integration Time (sec): 1.000000E-1
Scans to average: 1
Electric dark correction enabled: true
Nonlinearity correction enabled: false
Boxcar width: 0
XAxis mode: Wavelengths
Number of Pixels in Spectrum: 2048
>>>>>Begin Spectral Data<<<<<
188.938	-31.74
189.409	-31.74
189.879	-31.74
190.349	-73.87
190.819	-66.85
191.29	-137.07
191.76	-80.89
192.23	-85.58
192.7	-78.55
193.17	-92.6
193.64	-43.45
194.109	-43.45
194.579	-120.68
195.049	73.58
195.519	38.47
195.988	-15.36
196.458	92.3
196.927	113.37
197.397	75.92
197.866	146.14
198.336	157.84
198.805	146.14
199.274	169.54
199.744	230.4
200.213	214.01
200.682	230.4
201.151	199.97
201.62	160.18
202.089	218.69
202.558	253.8
203.027	288.91
203.495	265.5
203.964	333.38
204.433	251.46
204.902	244.44
205.37	249.12
205.839	312.32
206.307	284.23
206.776	300.61
207.244	328.7
207.712	265.5
208.181	331.04
208.649	307.63
209.117	277.21
209.585	352.1
210.053	302.95
210.521	321.68
210.989	305.29
211.457	326.36
211.925	317
212.393	317
212.861	293.59
213.328	307.63
213.796	281.89
214.264	295.93
214.731	338.06
215.199	302.95
215.666	309.97
216.133	230.4
216.601	321.68
217.068	286.57
217.535	265.5
218.003	235.08
218.47	302.95
218.937	279.55
219.404	279.55
219.871	279.55
220.338	258.48
220.805	298.27
221.271	272.53
221.738	342.74
222.205	286.57
222.671	246.78
223.138	277.21
223.605	272.53
224.071	307.63
224.538	214.01
225.004	232.74
225.47	181.25
225.937	249.12
226.403	286.57
226.869	309.97
227.335	286.57
227.801	317
228.267	284.23
228.733	307.63
229.199	324.02
229.665	251.46
230.131	314.66
230.597	293.59
231.062	281.89
231.528	288.91
231.994	281.89
232.459	256.14
232.925	256.14
233.39	253.8
233.856	305.29
234.321	333.38
234.786	302.95
235.252	373.17
235.717	277.21
236.182	199.97
236.647	256.14
237.112	302.95
237.577	263.16
238.042	293.59
238.507	265.5
238.972	274.87
239.436	256.14
239.901	286.57
240.366	274.87
240.83	260.82
241.295	260.82
241.76	349.76
242.224	256.14
242.688	256.14
243.153	267.85
243.617	319.34
244.081	326.36
244.545	317
245.01	340.4
245.474	256.14
245.938	263.16
246.402	319.34
246.866	267.85
247.33	270.19
247.793	246.78
248.257	235.08
248.721	206.99
249.185	237.42
249.648	338.06
250.112	270.19
250.575	216.35
251.039	305.29
251.502	284.23
251.965	319.34
252.429	249.12
252.892	295.93
253.355	270.19
253.818	321.68
254.281	314.66
254.744	256.14
255.207	284.23
255.67	258.48
256.133	307.63
256.596	284.23
257.059	288.91
257.522	288.91
257.984	302.95
258.447	295.93
258.909	288.91
259.372	300.61
259.834	300.61
260.297	345.08
260.759	321.68
261.221	305.29
261.684	305.29
262.146	319.34
262.608	263.16
263.07	270.19
263.532	307.63
263.994	260.82
264.456	300.61
264.918	295.93
265.38	281.89
265.842	319.34
266.303	277.21
266.765	347.42
267.227	284.23
267.688	291.25
268.15	291.25
268.611	302.95
269.072	253.8
269.534	284.23
269.995	324.02
270.456	328.7
270.918	237.42
271.379	333.38
271.84	340.4
272.301	302.95
272.762	333.38
273.223	349.76
273.684	317
274.144	260.82
274.605	288.91
275.066	340.4
275.527	279.55
275.987	309.97
276.448	272.53
276.908	356.79
277.369	368.49
277.829	352.1
278.289	328.7
278.75	328.7
279.21	338.06
279.67	284.23
280.13	288.91
280.59	253.8
281.05	263.16
281.51	300.61
281.97	359.13
282.43	328.7
282.89	291.25
283.35	319.34
283.809	314.66
284.269	302.95
284.729	286.57
285.188	277.21
285.648	309.97
286.107	242.1
286.567	284.23
287.026	307.63
287.485	256.14
287.944	286.57
288.404	338.06
288.863	349.76
289.322	258.48
289.781	302.95
290.24	317
290.699	281.89
291.158	368.49
291.616	335.72
292.075	302.95
292.534	263.16
292.992	263.16
293.451	321.68
293.91	305.29
294.368	349.76
294.827	295.93
295.285	356.79
295.743	331.04
296.202	312.32
296.66	363.81
297.118	298.27
297.576	333.38
298.034	288.91
298.492	307.63
298.95	338.06
299.408	253.8
299.866	256.14
300.324	221.03
300.781	342.74
301.239	328.7
301.697	328.7
302.154	331.04
302.612	293.59
303.069	317
303.527	263.16
303.984	277.21
304.441	265.5
304.899	317
305.356	389.55
305.813	319.34
306.27	345.08
306.727	326.36
307.184	277.21
307.641	270.19
308.098	281.89
308.555	319.34
309.012	333.38
309.468	317
309.925	305.29
310.382	324.02
310.838	352.1
311.295	349.76
311.751	267.85
312.208	242.1
312.664	246.78
313.12	335.72
313.577	340.4
314.033	363.81
314.489	295.93
314.945	298.27
315.401	338.06
315.857	396.57
316.313	281.89
316.769	321.68
317.225	314.66
317.681	328.7
318.136	307.63
318.592	324.02
319.048	349.76
319.503	326.36
319.959	267.85
320.414	309.97
320.869	274.87
321.325	279.55
321.78	300.61
322.235	321.68
322.691	356.79
323.146	302.95
323.601	267.85
324.056	333.38
324.511	405.94
324.966	305.29
325.421	335.72
325.875	242.1
326.33	326.36
326.785	293.59
327.24	317
327.694	328.7
328.149	305.29
328.603	291.25
329.058	274.87
329.512	319.34
329.966	253.8
330.421	321.68
330.875	249.12
331.329	321.68
331.783	300.61
332.237	300.61
332.691	307.63
333.145	349.76
333.599	260.82
334.053	267.85
334.507	309.97
334.96	309.97
335.414	302.95
335.868	277.21
336.321	349.76
336.775	286.57
337.228	281.89
337.682	354.44
338.135	307.63
338.588	298.27
339.042	359.13
339.495	380.19
339.948	375.51
340.401	272.53
340.854	305.29
341.307	377.85
341.76	312.32
342.213	277.21
342.666	314.66
343.119	312.32
343.571	382.53
344.024	321.68
344.477	312.32
344.929	270.19
345.382	345.08
345.834	295.93
346.287	331.04
346.739	335.72
347.191	324.02
347.644	295.93
348.096	274.87
348.548	317
349	342.74
349.452	321.68
349.904	335.72
350.356	368.49
350.808	338.06
351.26	368.49
351.711	368.49
352.163	328.7
352.615	326.36
353.066	263.16
353.518	396.57
353.969	270.19
354.421	300.61
354.872	300.61
355.324	333.38
355.775	345.08
356.226	314.66
356.677	309.97
357.128	347.42
357.579	363.81
358.03	333.38
358.481	302.95
358.932	281.89
359.383	309.97
359.834	309.97
360.285	391.89
360.735	293.59
361.186	295.93
361.637	338.06
362.087	291.25
362.538	361.47
362.988	340.4
363.438	340.4
363.889	347.42
364.339	309.97
364.789	331.04
365.239	396.57
365.689	354.44
366.139	342.74
366.589	342.74
367.039	298.27
367.489	312.32
367.939	324.02
368.389	340.4
368.839	279.55
369.288	333.38
369.738	349.76
370.187	345.08
370.637	312.32
371.086	342.74
371.536	307.63
371.985	349.76
372.434	291.25
372.884	312.32
373.333	331.04
373.782	295.93
374.231	340.4
374.68	347.42
375.129	340.4
375.578	279.55
376.027	345.08
376.475	298.27
376.924	309.97
377.373	307.63
377.822	281.89
378.27	324.02
378.719	314.66
379.167	338.06
379.616	300.61
380.064	347.42
380.512	335.72
380.961	345.08
381.409	272.53
381.857	300.61
382.305	333.38
382.753	342.74
383.201	328.7
383.649	333.38
384.097	309.97
384.545	331.04
384.992	354.44
385.44	352.1
385.888	317
386.335	333.38
386.783	345.08
387.231	281.89
387.678	307.63
388.125	352.1
388.573	321.68
389.02	319.34
389.467	342.74
389.914	305.29
390.362	363.81
390.809	382.53
391.256	300.61
391.703	270.19
392.15	302.95
392.596	258.48
393.043	403.6
393.49	384.87
393.937	286.57
394.383	359.13
394.83	349.76
395.276	333.38
395.723	324.02
396.169	284.23
396.616	340.4
397.062	317
397.508	349.76
397.954	312.32
398.401	312.32
398.847	317
399.293	366.15
399.739	354.44
400.185	335.72
400.631	331.04
401.076	314.66
401.522	309.97
401.968	305.29
402.414	305.29
402.859	326.36
403.305	293.59
403.75	394.23
404.196	284.23
404.641	312.32
405.086	319.34
405.532	345.08
405.977	338.06
406.422	279.55
406.867	265.5
407.312	300.61
407.757	263.16
408.202	361.47
408.647	286.57
409.092	368.49
409.537	352.1
409.982	281.89
410.426	331.04
410.871	265.5
411.316	345.08
411.76	335.72
412.205	300.61
412.649	298.27
413.093	326.36
413.538	398.92
413.982	314.66
414.426	319.34
414.87	300.61
415.314	314.66
415.758	340.4
416.202	345.08
416.646	267.85
417.09	328.7
417.534	307.63
417.978	307.63
418.421	361.47
418.865	349.76
419.309	309.97
419.752	258.48
420.196	347.42
420.639	260.82
421.083	326.36
421.526	324.02
421.969	377.85
422.412	422.32
422.856	319.34
423.299	314.66
423.742	340.4
424.185	288.91
424.628	352.1
425.071	338.06
425.513	312.32
425.956	354.44
426.399	366.15
426.842	349.76
427.284	347.42
427.727	359.13
428.169	277.21
428.612	342.74
429.054	260.82
429.497	244.44
429.939	396.57
430.381	279.55
430.823	302.95
431.265	277.21
431.707	333.38
432.149	363.81
432.591	295.93
433.033	317
433.475	359.13
433.917	401.26
434.359	328.7
434.8	302.95
435.242	361.47
435.684	349.76
436.125	347.42
436.567	319.34
437.008	326.36
437.449	321.68
437.891	317
438.332	408.28
438.773	286.57
439.214	305.29
439.656	326.36
440.097	366.15
440.538	359.13
440.978	335.72
441.419	293.59
441.86	389.55
442.301	300.61
442.742	331.04
443.182	314.66
443.623	284.23
444.063	307.63
444.504	356.79
444.944	293.59
445.385	434.02
445.825	377.85
446.265	324.02
446.706	380.19
447.146	331.04
447.586	345.08
448.026	312.32
448.466	345.08
448.906	359.13
449.346	265.5
449.786	295.93
450.225	354.44
450.665	300.61
451.105	302.95
451.544	363.81
451.984	298.27
452.424	347.42
452.863	375.51
453.302	302.95
453.742	333.38
454.181	295.93
454.62	309.97
455.059	305.29
455.499	293.59
455.938	317
456.377	335.72
456.816	366.15
457.254	331.04
457.693	354.44
458.132	324.02
458.571	324.02
459.01	319.34
459.448	340.4
459.887	361.47
460.325	321.68
460.764	326.36
461.202	347.42
461.641	373.17
462.079	302.95
462.517	326.36
462.955	361.47
463.393	333.38
463.832	324.02
464.27	340.4
464.708	356.79
465.145	373.17
465.583	326.36
466.021	359.13
466.459	302.95
466.897	286.57
467.334	272.53
467.772	305.29
468.209	317
468.647	317
469.084	326.36
469.522	338.06
469.959	368.49
470.396	352.1
470.833	333.38
471.271	342.74
471.708	239.76
472.145	317
472.582	237.42
473.019	363.81
473.456	284.23
473.892	307.63
474.329	286.57
474.766	265.5
475.202	305.29
475.639	284.23
476.076	295.93
476.512	331.04
476.949	368.49
477.385	363.81
477.821	312.32
478.258	307.63
478.694	340.4
479.13	326.36
479.566	398.92
480.002	331.04
480.438	370.83
480.874	307.63
481.31	328.7
481.746	321.68
482.181	317
482.617	312.32
483.053	314.66
483.488	286.57
483.924	284.23
484.36	300.61
484.795	293.59
485.23	363.81
485.666	373.17
486.101	363.81
486.536	300.61
486.971	359.13
487.407	319.34
487.842	314.66
488.277	267.85
488.712	352.1
489.146	321.68
489.581	366.15
490.016	331.04
490.451	274.87
490.885	359.13
491.32	401.26
491.755	338.06
492.189	340.4
492.624	363.81
493.058	331.04
493.492	309.97
493.927	286.57
494.361	317
494.795	314.66
495.229	373.17
495.663	398.92
496.097	345.08
496.531	314.66
496.965	317
497.399	295.93
497.833	401.26
498.266	342.74
498.7	335.72
499.134	305.29
499.567	326.36
500.001	309.97
500.434	312.32
500.868	286.57
501.301	368.49
501.734	347.42
502.168	291.25
502.601	349.76
503.034	368.49
503.467	321.68
503.9	333.38
504.333	361.47
504.766	396.57
505.199	340.4
505.632	415.3
506.064	387.21
506.497	377.85
506.93	349.76
507.362	349.76
507.795	340.4
508.227	359.13
508.66	396.57
509.092	359.13
509.524	345.08
509.956	270.19
510.389	321.68
510.821	359.13
511.253	359.13
511.685	352.1
512.117	347.42
512.549	293.59
512.981	265.5
513.412	317
513.844	335.72
514.276	347.42
514.707	345.08
515.139	363.81
515.571	328.7
516.002	356.79
516.433	319.34
516.865	328.7
517.296	300.61
517.727	356.79
518.159	347.42
518.59	375.51
519.021	295.93
519.452	314.66
519.883	356.79
520.314	333.38
520.744	324.02
521.175	223.37
521.606	405.94
522.037	309.97
522.467	317
522.898	326.36
523.328	324.02
523.759	302.95
524.189	309.97
524.62	347.42
525.05	281.89
525.48	298.27
525.91	298.27
526.341	412.96
526.771	291.25
527.201	291.25
527.631	328.7
528.061	338.06
528.49	305.29
528.92	361.47
529.35	309.97
529.78	309.97
530.209	356.79
530.639	373.17
531.068	335.72
531.498	380.19
531.927	328.7
532.357	324.02
532.786	370.83
533.215	398.92
533.644	335.72
534.074	277.21
534.503	321.68
534.932	317
535.361	335.72
535.79	309.97
536.218	345.08
536.647	382.53
537.076	309.97
537.505	347.42
537.933	342.74
538.362	342.74
538.79	291.25
539.219	342.74
539.647	324.02
540.076	345.08
540.504	335.72
540.932	324.02
541.36	345.08
541.788	274.87
542.217	328.7
542.645	342.74
543.073	293.59
543.5	291.25
543.928	307.63
544.356	272.53
544.784	359.13
545.211	321.68
545.639	366.15
546.067	328.7
546.494	291.25
546.922	354.44
547.349	331.04
547.776	314.66
548.204	300.61
548.631	328.7
549.058	328.7
549.485	326.36
549.912	331.04
550.339	281.89
550.766	309.97
551.193	267.85
551.62	427
552.047	359.13
552.474	319.34
552.9	328.7
553.327	321.68
553.754	321.68
554.18	359.13
554.607	352.1
555.033	309.97
555.459	331.04
555.886	349.76
556.312	373.17
556.738	302.95
557.164	324.02
557.59	326.36
558.016	284.23
558.442	342.74
558.868	335.72
559.294	302.95
559.72	375.51
560.145	317
560.571	363.81
560.997	333.38
561.422	302.95
561.848	361.47
562.273	324.02
562.699	356.79
563.124	293.59
563.549	368.49
563.974	382.53
564.4	331.04
564.825	319.34
565.25	382.53
565.675	317
566.1	403.6
566.525	354.44
566.95	347.42
567.374	309.97
567.799	338.06
568.224	291.25
568.648	309.97
569.073	352.1
569.497	338.06
569.922	267.85
570.346	324.02
570.771	314.66
571.195	302.95
571.619	375.51
572.043	265.5
572.467	354.44
572.891	326.36
573.315	326.36
573.739	356.79
574.163	246.78
574.587	291.25
575.011	314.66
575.435	319.34
575.858	309.97
576.282	354.44
576.705	384.87
577.129	354.44
577.552	338.06
577.976	328.7
578.399	361.47
578.822	291.25
579.245	305.29
579.669	338.06
580.092	324.02
580.515	354.44
580.938	342.74
581.361	335.72
581.784	333.38
582.206	288.91
582.629	361.47
583.052	288.91
583.474	314.66
583.897	307.63
584.32	324.02
584.742	377.85
585.165	441.04
585.587	349.76
586.009	263.16
586.431	317
586.854	326.36
587.276	347.42
587.698	256.14
588.12	347.42
588.542	295.93
588.964	286.57
589.386	380.19
589.807	331.04
590.229	361.47
590.651	321.68
591.073	349.76
591.494	274.87
591.916	265.5
592.337	293.59
592.759	340.4
593.18	302.95
593.601	312.32
594.022	410.62
594.444	279.55
594.865	307.63
595.286	321.68
595.707	354.44
596.128	239.76
596.549	394.23
596.97	295.93
597.39	317
597.811	380.19
598.232	307.63
598.652	380.19
599.073	326.36
599.494	309.97
599.914	345.08
600.334	319.34
600.755	363.81
601.175	272.53
601.595	394.23
602.015	338.06
602.436	253.8
602.856	328.7
603.276	295.93
603.696	249.12
604.115	380.19
604.535	305.29
604.955	338.06
605.375	340.4
605.794	368.49
606.214	331.04
606.634	284.23
607.053	342.74
607.473	331.04
607.892	321.68
608.311	349.76
608.731	326.36
609.15	368.49
609.569	429.34
609.988	335.72
610.407	326.36
610.826	347.42
611.245	317
611.664	347.42
612.083	291.25
612.501	361.47
612.92	389.55
613.339	389.55
613.757	384.87
614.176	436.36
614.594	382.53
615.013	270.19
615.431	387.21
615.85	338.06
616.268	307.63
616.686	300.61
617.104	338.06
617.522	401.26
617.94	408.28
618.358	300.61
618.776	286.57
619.194	281.89
619.612	324.02
620.03	363.81
620.447	253.8
620.865	326.36
621.282	347.42
621.7	396.57
622.117	370.83
622.535	389.55
622.952	342.74
623.369	338.06
623.787	396.57
624.204	363.81
624.621	270.19
625.038	345.08
625.455	347.42
625.872	331.04
626.289	347.42
626.706	291.25
627.123	342.74
627.539	338.06
627.956	293.59
628.373	361.47
628.789	352.1
629.206	340.4
629.622	366.15
630.038	237.42
630.455	335.72
630.871	349.76
631.287	368.49
631.703	352.1
632.12	326.36
632.536	324.02
632.952	326.36
633.368	340.4
633.783	335.72
634.199	352.1
634.615	345.08
635.031	370.83
635.446	317
635.862	253.8
636.277	317
636.693	347.42
637.108	387.21
637.524	338.06
637.939	342.74
638.354	319.34
638.77	370.83
639.185	373.17
639.6	361.47
640.015	293.59
640.43	281.89
640.845	349.76
641.259	352.1
641.674	279.55
642.089	312.32
642.504	305.29
642.918	340.4
643.333	359.13
643.747	314.66
644.162	312.32
644.576	321.68
644.991	354.44
645.405	331.04
645.819	345.08
646.233	377.85
646.647	288.91
647.061	370.83
647.475	321.68
647.889	333.38
648.303	340.4
648.717	324.02
649.131	326.36
649.545	410.62
649.958	317
650.372	326.36
650.785	298.27
651.199	309.97
651.612	328.7
652.026	352.1
652.439	375.51
652.852	319.34
653.266	291.25
653.679	328.7
654.092	331.04
654.505	338.06
654.918	324.02
655.331	333.38
655.744	295.93
656.156	302.95
656.569	338.06
656.982	293.59
657.394	401.26
657.807	335.72
658.22	349.76
658.632	370.83
659.044	274.87
659.457	300.61
659.869	338.06
660.281	317
660.693	307.63
661.106	321.68
661.518	338.06
661.93	300.61
662.342	324.02
662.754	309.97
663.165	237.42
663.577	375.51
663.989	370.83
664.401	326.36
664.812	295.93
665.224	307.63
665.635	342.74
666.047	326.36
666.458	333.38
666.869	307.63
667.281	328.7
667.692	359.13
668.103	314.66
668.514	321.68
668.925	333.38
669.336	352.1
669.747	298.27
670.158	265.5
670.569	298.27
670.979	345.08
671.39	317
671.801	300.61
672.211	312.32
672.622	342.74
673.032	286.57
673.443	258.48
673.853	352.1
674.263	284.23
674.674	321.68
675.084	265.5
675.494	312.32
675.904	293.59
676.314	410.62
676.724	326.36
677.134	331.04
677.544	302.95
677.953	214.01
678.363	309.97
678.773	389.55
679.182	307.63
679.592	312.32
680.001	319.34
680.411	286.57
680.82	363.81
681.23	333.38
681.639	302.95
682.048	295.93
682.457	363.81
682.866	272.53
683.275	354.44
683.684	326.36
684.093	345.08
684.502	328.7
684.911	356.79
685.32	352.1
685.728	333.38
686.137	366.15
686.546	361.47
686.954	338.06
687.363	340.4
687.771	307.63
688.179	272.53
688.588	349.76
688.996	295.93
689.404	274.87
689.812	305.29
690.22	352.1
690.628	363.81
691.036	312.32
691.444	359.13
691.852	349.76
692.26	349.76
692.667	338.06
693.075	335.72
693.483	326.36
693.89	382.53
694.298	340.4
694.705	352.1
695.112	375.51
695.52	347.42
695.927	333.38
696.334	274.87
696.741	312.32
697.148	366.15
697.555	300.61
697.962	340.4
698.369	359.13
698.776	288.91
699.183	281.89
699.59	352.1
699.996	279.55
700.403	363.81
700.81	342.74
701.216	375.51
701.623	302.95
702.029	324.02
702.435	352.1
702.842	363.81
703.248	295.93
703.654	331.04
704.06	317
704.466	293.59
704.872	319.34
705.278	349.76
705.684	302.95
706.09	352.1
706.496	265.5
706.901	375.51
707.307	302.95
707.712	326.36
708.118	331.04
708.523	317
708.929	309.97
709.334	288.91
709.74	347.42
710.145	335.72
710.55	324.02
710.955	281.89
711.36	324.02
711.765	342.74
712.17	356.79
712.575	298.27
712.98	796.81
713.385	363.81
713.789	284.23
714.194	305.29
714.599	253.8
715.003	342.74
715.408	403.6
715.812	256.14
716.217	317
716.621	380.19
717.025	331.04
717.429	333.38
717.833	298.27
718.238	352.1
718.642	335.72
719.046	298.27
719.449	340.4
719.853	272.53
720.257	312.32
720.661	366.15
721.065	384.87
721.468	284.23
721.872	352.1
722.275	307.63
722.679	305.29
723.082	342.74
723.485	326.36
723.889	307.63
724.292	342.74
724.695	340.4
725.098	274.87
725.501	267.85
725.904	300.61
726.307	274.87
726.71	321.68
727.113	307.63
727.516	377.85
727.918	300.61
728.321	345.08
728.724	288.91
729.126	324.02
729.529	302.95
729.931	366.15
730.333	263.16
730.736	370.83
731.138	345.08
731.54	288.91
731.942	281.89
732.344	309.97
732.746	293.59
733.148	319.34
733.55	324.02
733.952	352.1
734.354	272.53
734.756	265.5
735.157	347.42
735.559	260.82
735.96	307.63
736.362	328.7
736.763	359.13
737.165	309.97
737.566	342.74
737.967	352.1
738.368	324.02
738.77	354.44
739.171	380.19
739.572	326.36
739.973	298.27
740.374	373.17
740.774	277.21
741.175	260.82
741.576	352.1
741.977	394.23
742.377	286.57
742.778	401.26
743.178	328.7
743.579	317
743.979	352.1
744.379	335.72
744.78	324.02
745.18	338.06
745.58	267.85
745.98	279.55
746.38	370.83
746.78	317
747.18	314.66
747.58	312.32
747.98	281.89
748.38	321.68
748.779	347.42
749.179	302.95
749.578	302.95
749.978	347.42
750.377	368.49
750.777	305.29
751.176	331.04
751.575	340.4
751.975	366.15
752.374	284.23
752.773	321.68
753.172	307.63
753.571	312.32
753.97	314.66
754.369	274.87
754.768	302.95
755.166	342.74
755.565	246.78
755.964	359.13
756.362	307.63
756.761	354.44
757.159	373.17
757.558	349.76
757.956	359.13
758.354	366.15
758.753	403.6
759.151	281.89
759.549	345.08
759.947	340.4
760.345	338.06
760.743	342.74
761.141	366.15
761.539	412.96
761.936	326.36
762.334	338.06
762.732	354.44
763.129	333.38
763.527	309.97
763.924	356.79
764.322	328.7
764.719	338.06
765.117	321.68
765.514	352.1
765.911	342.74
766.308	314.66
766.705	342.74
767.102	335.72
767.499	284.23
767.896	284.23
768.293	279.55
768.69	302.95
769.086	356.79
769.483	302.95
769.88	377.85
770.276	300.61
770.673	321.68
771.069	384.87
771.466	335.72
771.862	331.04
772.258	366.15
772.654	298.27
773.05	314.66
773.447	338.06
773.843	349.76
774.239	305.29
774.634	361.47
775.03	354.44
775.426	300.61
775.822	312.32
776.218	363.81
776.613	260.82
777.009	328.7
777.404	263.16
777.8	302.95
778.195	314.66
778.59	319.34
778.986	319.34
779.381	384.87
779.776	359.13
780.171	345.08
780.566	328.7
780.961	244.44
781.356	338.06
781.751	298.27
782.146	338.06
782.54	277.21
782.935	319.34
783.33	361.47
783.724	370.83
784.119	314.66
784.513	317
784.908	291.25
785.302	410.62
785.696	340.4
786.09	373.17
786.485	305.29
786.879	370.83
787.273	300.61
787.667	321.68
788.061	417.64
788.454	321.68
788.848	326.36
789.242	300.61
789.636	377.85
790.029	288.91
790.423	307.63
790.816	347.42
791.21	352.1
791.603	373.17
791.997	305.29
792.39	338.06
792.783	342.74
793.176	293.59
793.569	333.38
793.962	302.95
794.355	314.66
794.748	335.72
795.141	359.13
795.534	363.81
795.927	288.91
796.319	391.89
796.712	319.34
797.105	293.59
797.497	295.93
797.89	370.83
798.282	291.25
798.674	328.7
799.067	326.36
799.459	256.14
799.851	302.95
800.243	319.34
800.635	295.93
801.027	305.29
801.419	293.59
801.811	317
802.203	295.93
802.594	307.63
802.986	345.08
803.378	331.04
803.769	328.7
804.161	377.85
804.552	291.25
804.944	333.38
805.335	373.17
805.726	333.38
806.118	302.95
806.509	352.1
806.9	368.49
807.291	324.02
807.682	368.49
808.073	312.32
808.464	284.23
808.855	279.55
809.245	317
809.636	307.63
810.027	377.85
810.417	209.33
810.808	347.42
811.198	258.48
811.589	319.34
811.979	335.72
812.369	317
812.759	333.38
813.15	293.59
813.54	352.1
813.93	333.38
814.32	380.19
814.71	363.81
815.1	349.76
815.489	326.36
815.879	354.44
816.269	307.63
816.658	366.15
817.048	279.55
817.438	361.47
817.827	267.85
818.216	314.66
818.606	342.74
818.995	352.1
819.384	270.19
819.773	307.63
820.163	405.94
820.552	363.81
820.941	331.04
821.33	286.57
821.718	333.38
822.107	321.68
822.496	356.79
822.885	307.63
823.273	321.68
823.662	307.63
824.05	284.23
824.439	300.61
824.827	333.38
825.216	317
825.604	328.7
825.992	368.49
826.38	295.93
826.768	284.23
827.156	356.79
827.544	338.06
827.932	274.87
828.32	349.76
828.708	335.72
829.096	309.97
829.483	314.66
829.871	288.91
830.259	340.4
830.646	356.79
831.034	324.02
831.421	368.49
831.808	394.23
832.196	317
832.583	305.29
832.97	284.23
833.357	293.59
833.744	277.21
834.131	319.34
834.518	270.19
834.905	340.4
835.292	359.13
835.678	321.68
836.065	324.02
836.452	263.16
836.838	368.49
837.225	298.27
837.611	256.14
837.998	317
838.384	319.34
838.77	293.59
839.157	370.83
839.543	359.13
839.929	328.7
840.315	347.42
840.701	284.23
841.087	307.63
841.473	340.4
841.858	342.74
842.244	291.25
842.63	312.32
843.015	221.03
843.401	579.14
843.787	302.95
844.172	286.57
844.557	307.63
844.943	340.4
845.328	300.61
845.713	293.59
846.098	321.68
846.483	370.83
846.868	326.36
847.253	319.34
847.638	359.13
848.023	349.76
848.408	321.68
848.793	398.92
849.177	291.25
849.562	335.72
849.947	321.68
850.331	345.08
850.715	317
851.1	347.42
851.484	300.61
851.868	373.17
852.253	347.42
852.637	347.42
853.021	366.15
853.405	328.7
853.789	352.1
854.173	389.55
854.557	394.23
854.94	314.66
855.324	361.47
855.708	293.59
856.091	260.82
856.475	342.74
856.858	312.32
857.242	345.08
857.625	368.49
858.009	286.57
858.392	251.46
858.775	326.36
859.158	338.06
859.541	321.68
859.924	307.63
860.307	328.7
860.69	309.97
861.073	319.34
861.456	363.81
861.838	328.7
862.221	305.29
862.604	286.57
862.986	366.15
863.369	328.7
863.751	347.42
864.133	302.95
864.516	331.04
864.898	384.87
865.28	309.97
865.662	356.79
866.044	298.27
866.426	317
866.808	309.97
867.19	305.29
867.572	258.48
867.954	324.02
868.336	319.34
868.717	328.7
869.099	340.4
869.48	335.72
869.862	345.08
870.243	309.97
870.625	249.12
871.006	293.59
871.387	328.7
871.768	277.21
872.149	352.1
872.53	349.76
872.911	302.95
873.292	328.7
873.673	302.95
874.054	312.32
874.435	317
874.815	251.46
875.196	281.89
875.577	359.13
875.957	396.57
876.338	295.93
876.718	295.93
877.098	380.19
877.479	307.63
877.859	345.08
878.239	326.36
878.619	340.4
878.999	340.4
879.379	286.57
879.759	356.79
880.139	300.61
880.519	326.36
880.898	377.85
881.278	317
881.658	333.38
882.037	394.23
882.417	309.97
882.796	345.08
883.176	324.02
883.555	340.4
883.934	352.1
884.313	277.21
884.693	352.1
885.072	317
885.451	363.81
885.83	368.49
886.209	377.85
886.587	321.68
886.966	314.66
887.345	389.55
887.724	284.23
888.102	349.76
888.481	265.5
888.859	321.68
889.238	340.4
889.616	326.36
889.994	368.49
890.373	340.4
890.751	317
891.129	256.14
891.507	342.74
891.885	256.14
892.263	340.4
892.641	309.97
893.019	298.27
893.396	284.23
893.774	359.13
894.152	345.08
894.529	295.93
894.907	295.93
895.284	345.08
895.662	307.63
896.039	328.7
896.416	335.72
896.794	354.44
897.171	272.53
897.548	309.97
897.925	333.38
898.302	300.61
898.679	300.61
899.056	338.06
899.433	338.06
899.809	391.89
900.186	333.38
900.563	309.97
900.939	342.74
901.316	333.38
901.692	272.53
902.069	284.23
902.445	347.42
902.821	298.27
903.197	335.72
903.574	309.97
903.95	274.87
904.326	267.85
904.702	328.7
905.078	338.06
905.454	291.25
905.829	288.91
906.205	340.4
906.581	281.89
906.956	328.7
907.332	342.74
907.707	319.34
908.083	363.81
908.458	324.02
908.833	309.97
909.209	312.32
909.584	300.61
909.959	309.97
910.334	298.27
910.709	324.02
911.084	279.55
911.459	333.38
911.834	272.53
912.209	370.83
912.583	302.95
912.958	356.79
913.333	331.04
913.707	352.1
914.082	326.36
914.456	274.87
914.83	300.61
915.205	335.72
915.579	260.82
915.953	319.34
916.327	317
916.701	356.79
917.075	244.44
917.449	295.93
917.823	295.93
918.197	309.97
918.571	305.29
918.944	305.29
919.318	354.44
919.692	331.04
920.065	295.93
920.438	312.32
920.812	363.81
921.185	347.42
921.558	251.46
921.932	298.27
922.305	317
922.678	338.06
923.051	286.57
923.424	347.42
923.797	352.1
924.17	272.53
924.542	338.06
924.915	363.81
925.288	347.42
925.661	331.04
926.033	314.66
926.406	319.34
926.778	281.89
927.15	300.61
927.523	335.72
927.895	279.55
928.267	338.06
928.639	389.55
929.011	267.85
929.383	361.47
929.755	249.12
930.127	328.7
930.499	298.27
930.871	307.63
931.242	312.32
931.614	335.72
931.986	305.29
932.357	342.74
932.729	272.53
933.1	349.76
933.471	366.15
933.843	274.87
934.214	368.49
934.585	319.34
934.956	302.95
935.327	324.02
935.698	288.91
936.069	363.81
936.44	319.34
936.811	246.78
937.182	293.59
937.552	305.29
937.923	347.42
938.293	305.29
938.664	340.4
939.034	349.76
939.405	340.4
939.775	300.61
940.145	359.13
940.516	317
940.886	373.17
941.256	335.72
941.626	277.21
941.996	387.21
942.366	328.7
942.735	338.06
943.105	309.97
943.475	307.63
943.845	335.72
944.214	324.02
944.584	333.38
944.953	314.66
945.323	314.66
945.692	361.47
946.061	340.4
946.43	242.1
946.8	279.55
947.169	387.21
947.538	363.81
947.907	312.32
948.276	309.97
948.645	267.85
949.013	298.27
949.382	314.66
949.751	321.68
950.119	295.93
950.488	326.36
950.857	324.02
951.225	312.32
951.593	326.36
951.962	288.91
952.33	342.74
952.698	340.4
953.066	274.87
953.434	300.61
953.802	328.7
954.17	326.36
954.538	302.95
954.906	284.23
955.274	319.34
955.642	338.06
956.009	277.21
956.377	340.4
956.744	293.59
957.112	324.02
957.479	333.38
957.847	335.72
958.214	321.68
958.581	359.13
958.948	391.89
959.315	279.55
959.683	319.34
960.05	331.04
960.416	335.72
960.783	352.1
961.15	342.74
961.517	267.85
961.884	405.94
962.25	267.85
962.617	293.59
962.983	340.4
963.35	326.36
963.716	340.4
964.082	354.44
964.449	340.4
964.815	321.68
965.181	309.97
965.547	335.72
965.913	389.55
966.279	335.72
966.645	223.37
967.011	319.34
967.377	305.29
967.742	312.32
968.108	277.21
968.474	338.06
968.839	389.55
969.205	270.19
969.57	312.32
969.935	317
970.301	300.61
970.666	279.55
971.031	272.53
971.396	312.32
971.761	309.97
972.126	305.29
972.491	295.93
972.856	319.34
973.221	307.63
973.586	314.66
973.95	307.63
974.315	373.17
974.679	347.42
975.044	324.02
975.408	368.49
975.773	286.57
976.137	342.74
976.501	361.47
976.866	335.72
977.23	302.95
977.594	312.32
977.958	293.59
978.322	335.72
978.686	314.66
979.049	251.46
979.413	312.32
979.777	232.74
980.141	324.02
980.504	298.27
980.868	356.79
981.231	321.68
981.595	300.61
981.958	326.36
982.321	319.34
982.684	333.38
983.048	302.95
983.411	324.02
983.774	342.74
984.137	263.16
984.5	232.74
984.862	349.76
985.225	335.72
985.588	288.91
985.951	342.74
986.313	342.74
986.676	288.91
987.038	342.74
987.401	314.66
987.763	321.68
988.125	302.95
988.488	295.93
988.85	438.7
989.212	335.72
989.574	288.91
989.936	270.19
990.298	321.68
990.66	361.47
991.022	249.12
991.383	305.29
991.745	319.34
992.107	368.49
992.468	359.13
992.83	298.27
993.191	363.81
993.553	263.16
993.914	307.63
994.275	321.68
994.637	347.42
994.998	291.25
995.359	375.51
995.72	305.29
996.081	326.36
996.442	319.34
996.803	352.1
997.163	277.21
997.524	302.95
997.885	356.79
998.245	277.21
998.606	359.13
998.966	302.95
999.327	288.91
999.687	370.83
1000.047	326.36
1000.408	335.72
1000.768	288.91
1001.128	267.85
1001.488	293.59
1001.848	338.06
1002.208	305.29
1002.568	281.89
1002.927	223.37
1003.287	340.4
1003.647	436.36
1004.007	354.44
1004.366	309.97
1004.726	309.97
1005.085	321.68
1005.444	284.23
1005.804	295.93
1006.163	300.61
1006.522	347.42
1006.881	284.23
1007.24	312.32
1007.599	288.91
1007.958	324.02
1008.317	384.87
1008.676	293.59
1009.035	228.06
1009.393	230.4
1009.752	288.91
1010.111	328.7
1010.469	237.42
1010.828	307.63
1011.186	260.82
1011.544	277.21
1011.903	338.06
1012.261	256.14
1012.619	324.02
1012.977	380.19
1013.335	265.5
1013.693	324.02
1014.051	340.4
1014.409	302.95
1014.767	270.19
1015.124	265.5
1015.482	260.82
1015.84	288.91
1016.197	312.32
1016.555	286.57
1016.912	298.27
1017.269	361.47
1017.627	342.74
1017.984	321.68
1018.341	307.63
1018.698	300.61
1019.055	317
1019.412	373.17
1019.769	317
1020.126	314.66
1020.483	328.7
1020.84	314.66
1021.196	319.34
1021.553	375.51
1021.909	373.17
1022.266	338.06
1022.622	340.4
1022.979	347.42
1023.335	361.47
1023.691	328.7
1024.047	281.89
1024.404	302.95
1024.76	319.34
1025.116	363.81
1025.472	328.7
1025.827	333.38
1026.183	312.32
1026.539	277.21
1026.895	277.21
1027.25	347.42
1027.606	354.44
1027.961	340.4
1028.317	317
1028.672	293.59
1029.028	249.12
1029.383	319.34
1029.738	387.21
1030.093	244.44
1030.448	331.04
1030.803	260.82
1031.158	398.92
1031.513	293.59
1031.868	300.61
1032.223	298.27
1032.577	366.15
1032.932	317
1033.287	340.4
1033.641	305.29
1033.996	361.47
1034.35	333.38
1034.704	281.89
1035.059	284.23
1035.413	312.32
1035.767	312.32
1036.121	312.32
