Data from Al_FLMS009871__598__14-46-41-515.txt Node

Date: Fri Mar 08 14:46:41 CST 2024
User: pe5414po
Spectrometer: FLMS00987
Trigger mode: 0
Integration Time (sec): 1.000000E-1
Scans to average: 1
Electric dark correction enabled: true
Nonlinearity correction enabled: false
Boxcar width: 0
XAxis mode: Wavelengths
Number of Pixels in Spectrum: 2048
>>>>>Begin Spectral Data<<<<<
188.938	-86.16
189.409	-86.16
189.879	-86.16
190.349	-123.61
190.819	-100.2
191.29	-121.27
191.76	-41.69
192.23	-48.71
192.7	-93.18
193.17	-81.48
193.64	-79.14
194.109	2.78
194.579	-60.42
195.049	14.48
195.519	-1.9
195.988	49.59
196.458	68.31
196.927	110.44
197.397	58.95
197.866	159.6
198.336	63.63
198.805	161.94
199.274	173.64
199.744	171.3
200.213	262.58
200.682	243.85
201.151	218.11
201.62	171.3
202.089	227.47
202.558	229.81
203.027	318.75
203.495	288.32
203.964	218.11
204.433	255.56
204.902	278.96
205.37	309.39
205.839	257.9
206.307	297.69
206.776	269.6
207.244	309.39
207.712	309.39
208.181	264.92
208.649	234.49
209.117	300.03
209.585	248.54
210.053	304.71
210.521	302.37
210.989	239.17
211.457	243.85
211.925	255.56
212.393	255.56
212.861	269.6
213.328	255.56
213.796	267.26
214.264	250.88
214.731	236.83
215.199	328.11
215.666	311.73
216.133	307.05
216.601	374.92
217.068	335.14
217.535	229.81
218.003	307.05
218.47	211.09
218.937	206.41
219.404	271.94
219.871	194.7
220.338	211.09
220.805	264.92
221.271	243.85
221.738	267.26
222.205	243.85
222.671	260.24
223.138	269.6
223.605	206.41
224.071	269.6
224.538	281.3
225.004	281.3
225.47	267.26
225.937	229.81
226.403	267.26
226.869	300.03
227.335	220.45
227.801	283.64
228.267	278.96
228.733	255.56
229.199	267.26
229.665	269.6
230.131	246.2
230.597	248.54
231.062	367.9
231.528	335.14
231.994	150.23
232.459	293.01
232.925	185.34
233.39	264.92
233.856	262.58
234.321	243.85
234.786	353.86
235.252	253.22
235.717	227.47
236.182	295.35
236.647	332.79
237.112	267.26
237.577	328.11
238.042	232.15
238.507	260.24
238.972	260.24
239.436	250.88
239.901	253.22
240.366	253.22
240.83	234.49
241.295	192.36
241.76	276.62
242.224	285.98
242.688	290.67
243.153	243.85
243.617	274.28
244.081	227.47
244.545	278.96
245.01	285.98
245.474	318.75
245.938	302.37
246.402	274.28
246.866	154.91
247.33	241.51
247.793	229.81
248.257	311.73
248.721	264.92
249.185	288.32
249.648	234.49
250.112	307.05
250.575	250.88
251.039	260.24
251.502	276.62
251.965	229.81
252.429	285.98
252.892	285.98
253.355	276.62
253.818	288.32
254.281	321.09
254.744	260.24
255.207	241.51
255.67	293.01
256.133	342.16
256.596	269.6
257.059	285.98
257.522	220.45
257.984	307.05
258.447	222.79
258.909	239.17
259.372	264.92
259.834	302.37
260.297	267.26
260.759	281.3
261.221	232.15
261.684	255.56
262.146	302.37
262.608	274.28
263.07	281.3
263.532	262.58
263.994	227.47
264.456	297.69
264.918	321.09
265.38	290.67
265.842	271.94
266.303	302.37
266.765	243.85
267.227	269.6
267.688	300.03
268.15	234.49
268.611	358.54
269.072	309.39
269.534	276.62
269.995	295.35
270.456	309.39
270.918	321.09
271.379	314.07
271.84	260.24
272.301	264.92
272.762	248.54
273.223	236.83
273.684	274.28
274.144	393.65
274.605	363.22
275.066	293.01
275.527	264.92
275.987	325.77
276.448	243.85
276.908	300.03
277.369	297.69
277.829	283.64
278.289	309.39
278.75	257.9
279.21	234.49
279.67	295.35
280.13	316.41
280.59	300.03
281.05	260.24
281.51	290.67
281.97	307.05
282.43	262.58
282.89	300.03
283.35	276.62
283.809	281.3
284.269	342.16
284.729	295.35
285.188	290.67
285.648	293.01
286.107	309.39
286.567	293.01
287.026	293.01
287.485	243.85
287.944	302.37
288.404	281.3
288.863	255.56
289.322	227.47
289.781	323.43
290.24	246.2
290.699	253.22
291.158	302.37
291.616	344.5
292.075	288.32
292.534	316.41
292.992	300.03
293.451	255.56
293.91	281.3
294.368	276.62
294.827	300.03
295.285	262.58
295.743	278.96
296.202	304.71
296.66	330.45
297.118	262.58
297.576	290.67
298.034	356.2
298.492	293.01
298.95	283.64
299.408	243.85
299.866	239.17
300.324	356.2
300.781	255.56
301.239	353.86
301.697	314.07
302.154	363.22
302.612	323.43
303.069	288.32
303.527	267.26
303.984	335.14
304.441	323.43
304.899	283.64
305.356	290.67
305.813	255.56
306.27	304.71
306.727	311.73
307.184	353.86
307.641	295.35
308.098	302.37
308.555	283.64
309.012	311.73
309.468	300.03
309.925	278.96
310.382	367.9
310.838	302.37
311.295	302.37
311.751	239.17
312.208	314.07
312.664	283.64
313.12	283.64
313.577	311.73
314.033	283.64
314.489	321.09
314.945	222.79
315.401	381.95
315.857	232.15
316.313	335.14
316.769	236.83
317.225	360.88
317.681	281.3
318.136	271.94
318.592	304.71
319.048	269.6
319.503	330.45
319.959	332.79
320.414	262.58
320.869	274.28
321.325	304.71
321.78	269.6
322.235	269.6
322.691	346.84
323.146	307.05
323.601	316.41
324.056	309.39
324.511	300.03
324.966	323.43
325.421	267.26
325.875	323.43
326.33	281.3
326.785	304.71
327.24	349.18
327.694	335.14
328.149	302.37
328.603	290.67
329.058	297.69
329.512	302.37
329.966	290.67
330.421	297.69
330.875	337.48
331.329	318.75
331.783	288.32
332.237	314.07
332.691	304.71
333.145	262.58
333.599	281.3
334.053	328.11
334.507	250.88
334.96	321.09
335.414	276.62
335.868	229.81
336.321	332.79
336.775	309.39
337.228	335.14
337.682	325.77
338.135	288.32
338.588	349.18
339.042	262.58
339.495	271.94
339.948	337.48
340.401	243.85
340.854	330.45
341.307	309.39
341.76	253.22
342.213	342.16
342.666	295.35
343.119	260.24
343.571	323.43
344.024	295.35
344.477	363.22
344.929	293.01
345.382	257.9
345.834	330.45
346.287	288.32
346.739	276.62
347.191	339.82
347.644	255.56
348.096	278.96
348.548	323.43
349	316.41
349.452	353.86
349.904	321.09
350.356	300.03
350.808	302.37
351.26	356.2
351.711	290.67
352.163	307.05
352.615	295.35
353.066	325.77
353.518	337.48
353.969	337.48
354.421	337.48
354.872	278.96
355.324	318.75
355.775	267.26
356.226	332.79
356.677	318.75
357.128	328.11
357.579	295.35
358.03	302.37
358.481	335.14
358.932	295.35
359.383	328.11
359.834	325.77
360.285	269.6
360.735	304.71
361.186	311.73
361.637	309.39
362.087	323.43
362.538	351.52
362.988	269.6
363.438	353.86
363.889	285.98
364.339	297.69
364.789	250.88
365.239	281.3
365.689	304.71
366.139	283.64
366.589	318.75
367.039	379.61
367.489	328.11
367.939	302.37
368.389	353.86
368.839	374.92
369.288	302.37
369.738	253.22
370.187	274.28
370.637	332.79
371.086	295.35
371.536	269.6
371.985	318.75
372.434	260.24
372.884	316.41
373.333	311.73
373.782	318.75
374.231	300.03
374.68	309.39
375.129	323.43
375.578	321.09
376.027	342.16
376.475	300.03
376.924	281.3
377.373	339.82
377.822	246.2
378.27	330.45
378.719	318.75
379.167	337.48
379.616	307.05
380.064	321.09
380.512	307.05
380.961	314.07
381.409	295.35
381.857	276.62
382.305	330.45
382.753	253.22
383.201	293.01
383.649	335.14
384.097	297.69
384.545	293.01
384.992	351.52
385.44	339.82
385.888	323.43
386.335	211.09
386.783	264.92
387.231	316.41
387.678	302.37
388.125	330.45
388.573	293.01
389.02	358.54
389.467	285.98
389.914	302.37
390.362	297.69
390.809	367.9
391.256	316.41
391.703	349.18
392.15	278.96
392.596	267.26
393.043	325.77
393.49	323.43
393.937	316.41
394.383	281.3
394.83	330.45
395.276	304.71
395.723	278.96
396.169	318.75
396.616	346.84
397.062	293.01
397.508	288.32
397.954	253.22
398.401	323.43
398.847	365.56
399.293	363.22
399.739	384.29
400.185	314.07
400.631	335.14
401.076	323.43
401.522	314.07
401.968	314.07
402.414	367.9
402.859	379.61
403.305	283.64
403.75	330.45
404.196	278.96
404.641	316.41
405.086	283.64
405.532	353.86
405.977	274.28
406.422	276.62
406.867	379.61
407.312	278.96
407.757	290.67
408.202	335.14
408.647	307.05
409.092	316.41
409.537	323.43
409.982	314.07
410.426	309.39
410.871	295.35
411.316	337.48
411.76	386.63
412.205	344.5
412.649	318.75
413.093	344.5
413.538	290.67
413.982	293.01
414.426	351.52
414.87	300.03
415.314	374.92
415.758	332.79
416.202	288.32
416.646	339.82
417.09	314.07
417.534	267.26
417.978	377.27
418.421	253.22
418.865	307.05
419.309	330.45
419.752	311.73
420.196	297.69
420.639	271.94
421.083	267.26
421.526	283.64
421.969	377.27
422.412	300.03
422.856	332.79
423.299	381.95
423.742	274.28
424.185	283.64
424.628	281.3
425.071	321.09
425.513	328.11
425.956	269.6
426.399	274.28
426.842	365.56
427.284	395.99
427.727	337.48
428.169	314.07
428.612	293.01
429.054	346.84
429.497	293.01
429.939	365.56
430.381	321.09
430.823	335.14
431.265	276.62
431.707	293.01
432.149	304.71
432.591	307.05
433.033	370.24
433.475	386.63
433.917	344.5
434.359	260.24
434.8	337.48
435.242	330.45
435.684	241.51
436.125	262.58
436.567	300.03
437.008	323.43
437.449	293.01
437.891	323.43
438.332	271.94
438.773	271.94
439.214	307.05
439.656	302.37
440.097	302.37
440.538	276.62
440.978	332.79
441.419	374.92
441.86	339.82
442.301	339.82
442.742	335.14
443.182	316.41
443.623	300.03
444.063	321.09
444.504	311.73
444.944	351.52
445.385	309.39
445.825	290.67
446.265	283.64
446.706	293.01
447.146	255.56
447.586	314.07
448.026	314.07
448.466	339.82
448.906	274.28
449.346	293.01
449.786	339.82
450.225	311.73
450.665	344.5
451.105	302.37
451.544	325.77
451.984	372.58
452.424	344.5
452.863	295.35
453.302	283.64
453.742	314.07
454.181	342.16
454.62	276.62
455.059	321.09
455.499	293.01
455.938	269.6
456.377	321.09
456.816	311.73
457.254	260.24
457.693	335.14
458.132	337.48
458.571	288.32
459.01	316.41
459.448	356.2
459.887	365.56
460.325	370.24
460.764	300.03
461.202	314.07
461.641	403.01
462.079	332.79
462.517	321.09
462.955	351.52
463.393	339.82
463.832	290.67
464.27	307.05
464.708	250.88
465.145	335.14
465.583	302.37
466.021	328.11
466.459	328.11
466.897	318.75
467.334	304.71
467.772	293.01
468.209	337.48
468.647	281.3
469.084	328.11
469.522	260.24
469.959	246.2
470.396	300.03
470.833	314.07
471.271	304.71
471.708	351.52
472.145	325.77
472.582	323.43
473.019	325.77
473.456	264.92
473.892	339.82
474.329	342.16
474.766	297.69
475.202	323.43
475.639	316.41
476.076	344.5
476.512	293.01
476.949	304.71
477.385	264.92
477.821	337.48
478.258	304.71
478.694	283.64
479.13	260.24
479.566	349.18
480.002	290.67
480.438	283.64
480.874	269.6
481.31	332.79
481.746	293.01
482.181	318.75
482.617	274.28
483.053	332.79
483.488	325.77
483.924	302.37
484.36	323.43
484.795	316.41
485.23	302.37
485.666	337.48
486.101	353.86
486.536	264.92
486.971	276.62
487.407	255.56
487.842	300.03
488.277	337.48
488.712	353.86
489.146	353.86
489.581	283.64
490.016	342.16
490.451	267.26
490.885	295.35
491.32	365.56
491.755	307.05
492.189	344.5
492.624	325.77
493.058	297.69
493.492	328.11
493.927	328.11
494.361	262.58
494.795	309.39
495.229	220.45
495.663	328.11
496.097	318.75
496.531	295.35
496.965	295.35
497.399	283.64
497.833	323.43
498.266	323.43
498.7	288.32
499.134	302.37
499.567	386.63
500.001	330.45
500.434	316.41
500.868	267.26
501.301	293.01
501.734	377.27
502.168	297.69
502.601	309.39
503.034	297.69
503.467	316.41
503.9	297.69
504.333	412.37
504.766	304.71
505.199	328.11
505.632	309.39
506.064	318.75
506.497	314.07
506.93	274.28
507.362	309.39
507.795	290.67
508.227	267.26
508.66	325.77
509.092	307.05
509.524	314.07
509.956	370.24
510.389	335.14
510.821	300.03
511.253	304.71
511.685	293.01
512.117	246.2
512.549	342.16
512.981	393.65
513.412	307.05
513.844	353.86
514.276	321.09
514.707	363.22
515.139	290.67
515.571	304.71
516.002	351.52
516.433	283.64
516.865	318.75
517.296	276.62
517.727	344.5
518.159	278.96
518.59	325.77
519.021	318.75
519.452	321.09
519.883	253.22
520.314	360.88
520.744	318.75
521.175	285.98
521.606	302.37
522.037	290.67
522.467	302.37
522.898	314.07
523.328	302.37
523.759	321.09
524.189	356.2
524.62	325.77
525.05	316.41
525.48	302.37
525.91	274.28
526.341	332.79
526.771	328.11
527.201	314.07
527.631	241.51
528.061	283.64
528.49	325.77
528.92	248.54
529.35	391.31
529.78	229.81
530.209	377.27
530.639	332.79
531.068	278.96
531.498	262.58
531.927	269.6
532.357	325.77
532.786	339.82
533.215	300.03
533.644	285.98
534.074	407.69
534.503	304.71
534.932	302.37
535.361	332.79
535.79	377.27
536.218	311.73
536.647	316.41
537.076	302.37
537.505	367.9
537.933	283.64
538.362	349.18
538.79	304.71
539.219	302.37
539.647	335.14
540.076	330.45
540.504	321.09
540.932	302.37
541.36	283.64
541.788	262.58
542.217	330.45
542.645	335.14
543.073	311.73
543.5	288.32
543.928	379.61
544.356	353.86
544.784	281.3
545.211	344.5
545.639	318.75
546.067	274.28
546.494	281.3
546.922	356.2
547.349	342.16
547.776	356.2
548.204	288.32
548.631	281.3
549.058	332.79
549.485	297.69
549.912	300.03
550.339	332.79
550.766	309.39
551.193	302.37
551.62	290.67
552.047	295.35
552.474	330.45
552.9	332.79
553.327	311.73
553.754	304.71
554.18	288.32
554.607	330.45
555.033	288.32
555.459	311.73
555.886	307.05
556.312	309.39
556.738	307.05
557.164	318.75
557.59	269.6
558.016	295.35
558.442	351.52
558.868	337.48
559.294	337.48
559.72	271.94
560.145	325.77
560.571	339.82
560.997	239.17
561.422	304.71
561.848	253.22
562.273	257.9
562.699	316.41
563.124	316.41
563.549	358.54
563.974	384.29
564.4	330.45
564.825	276.62
565.25	388.97
565.675	307.05
566.1	285.98
566.525	288.32
566.95	335.14
567.374	274.28
567.799	285.98
568.224	344.5
568.648	351.52
569.073	276.62
569.497	316.41
569.922	255.56
570.346	285.98
570.771	321.09
571.195	293.01
571.619	337.48
572.043	367.9
572.467	316.41
572.891	325.77
573.315	307.05
573.739	342.16
574.163	325.77
574.587	295.35
575.011	314.07
575.435	356.2
575.858	330.45
576.282	318.75
576.705	278.96
577.129	321.09
577.552	281.3
577.976	316.41
578.399	300.03
578.822	384.29
579.245	316.41
579.669	356.2
580.092	267.26
580.515	300.03
580.938	295.35
581.361	281.3
581.784	342.16
582.206	316.41
582.629	285.98
583.052	293.01
583.474	253.22
583.897	321.09
584.32	356.2
584.742	325.77
585.165	353.86
585.587	332.79
586.009	325.77
586.431	234.49
586.854	253.22
587.276	328.11
587.698	321.09
588.12	337.48
588.542	328.11
588.964	318.75
589.386	276.62
589.807	288.32
590.229	304.71
590.651	295.35
591.073	267.26
591.494	236.83
591.916	332.79
592.337	344.5
592.759	325.77
593.18	325.77
593.601	293.01
594.022	288.32
594.444	285.98
594.865	285.98
595.286	328.11
595.707	316.41
596.128	360.88
596.549	297.69
596.97	302.37
597.39	337.48
597.811	374.92
598.232	339.82
598.652	304.71
599.073	288.32
599.494	332.79
599.914	290.67
600.334	311.73
600.755	269.6
601.175	300.03
601.595	330.45
602.015	295.35
602.436	274.28
602.856	388.97
603.276	346.84
603.696	349.18
604.115	297.69
604.535	316.41
604.955	349.18
605.375	309.39
605.794	335.14
606.214	304.71
606.634	211.09
607.053	363.22
607.473	290.67
607.892	257.9
608.311	288.32
608.731	325.77
609.15	314.07
609.569	351.52
609.988	349.18
610.407	290.67
610.826	365.56
611.245	339.82
611.664	311.73
612.083	372.58
612.501	304.71
612.92	271.94
613.339	311.73
613.757	250.88
614.176	356.2
614.594	316.41
615.013	271.94
615.431	269.6
615.85	314.07
616.268	309.39
616.686	342.16
617.104	290.67
617.522	337.48
617.94	288.32
618.358	318.75
618.776	283.64
619.194	351.52
619.612	304.71
620.03	304.71
620.447	328.11
620.865	321.09
621.282	307.05
621.7	325.77
622.117	302.37
622.535	323.43
622.952	293.01
623.369	337.48
623.787	342.16
624.204	269.6
624.621	288.32
625.038	311.73
625.455	300.03
625.872	330.45
626.289	360.88
626.706	290.67
627.123	377.27
627.539	243.85
627.956	293.01
628.373	321.09
628.789	295.35
629.206	335.14
629.622	304.71
630.038	353.86
630.455	330.45
630.871	353.86
631.287	309.39
631.703	283.64
632.12	323.43
632.536	330.45
632.952	300.03
633.368	323.43
633.783	372.58
634.199	381.95
634.615	288.32
635.031	295.35
635.446	250.88
635.862	309.39
636.277	365.56
636.693	267.26
637.108	358.54
637.524	309.39
637.939	323.43
638.354	276.62
638.77	325.77
639.185	330.45
639.6	304.71
640.015	330.45
640.43	241.51
640.845	271.94
641.259	283.64
641.674	330.45
642.089	386.63
642.504	281.3
642.918	295.35
643.333	353.86
643.747	330.45
644.162	321.09
644.576	309.39
644.991	307.05
645.405	323.43
645.819	330.45
646.233	339.82
646.647	328.11
647.061	337.48
647.475	325.77
647.889	269.6
648.303	307.05
648.717	290.67
649.131	332.79
649.545	332.79
649.958	314.07
650.372	309.39
650.785	314.07
651.199	321.09
651.612	283.64
652.026	344.5
652.439	295.35
652.852	227.47
653.266	307.05
653.679	307.05
654.092	295.35
654.505	325.77
654.918	321.09
655.331	323.43
655.744	314.07
656.156	302.37
656.569	342.16
656.982	344.5
657.394	278.96
657.807	241.51
658.22	330.45
658.632	302.37
659.044	379.61
659.457	295.35
659.869	281.3
660.281	288.32
660.693	246.2
661.106	283.64
661.518	260.24
661.93	300.03
662.342	290.67
662.754	246.2
663.165	288.32
663.577	300.03
663.989	304.71
664.401	337.48
664.812	367.9
665.224	374.92
665.635	337.48
666.047	349.18
666.458	257.9
666.869	293.01
667.281	379.61
667.692	332.79
668.103	302.37
668.514	307.05
668.925	283.64
669.336	283.64
669.747	288.32
670.158	246.2
670.569	346.84
670.979	264.92
671.39	246.2
671.801	285.98
672.211	307.05
672.622	243.85
673.032	344.5
673.443	316.41
673.853	349.18
674.263	351.52
674.674	365.56
675.084	318.75
675.494	304.71
675.904	283.64
676.314	307.05
676.724	309.39
677.134	318.75
677.544	321.09
677.953	316.41
678.363	262.58
678.773	365.56
679.182	281.3
679.592	311.73
680.001	304.71
680.411	318.75
680.82	285.98
681.23	267.26
681.639	330.45
682.048	283.64
682.457	328.11
682.866	321.09
683.275	302.37
683.684	260.24
684.093	349.18
684.502	281.3
684.911	311.73
685.32	316.41
685.728	304.71
686.137	339.82
686.546	323.43
686.954	288.32
687.363	309.39
687.771	339.82
688.179	297.69
688.588	302.37
688.996	295.35
689.404	337.48
689.812	325.77
690.22	318.75
690.628	330.45
691.036	278.96
691.444	314.07
691.852	300.03
692.26	346.84
692.667	297.69
693.075	309.39
693.483	283.64
693.89	360.88
694.298	314.07
694.705	248.54
695.112	318.75
695.52	321.09
695.927	330.45
696.334	283.64
696.741	344.5
697.148	365.56
697.555	330.45
697.962	241.51
698.369	288.32
698.776	351.52
699.183	285.98
699.59	283.64
699.996	318.75
700.403	342.16
700.81	274.28
701.216	325.77
701.623	236.83
702.029	262.58
702.435	330.45
702.842	311.73
703.248	351.52
703.654	307.05
704.06	285.98
704.466	335.14
704.872	363.22
705.278	377.27
705.684	314.07
706.09	339.82
706.496	225.13
706.901	337.48
707.307	335.14
707.712	232.15
708.118	367.9
708.523	257.9
708.929	342.16
709.334	318.75
709.74	328.11
710.145	335.14
710.55	278.96
710.955	302.37
711.36	342.16
711.765	309.39
712.17	314.07
712.575	332.79
712.98	831.33
713.385	330.45
713.789	309.39
714.194	325.77
714.599	330.45
715.003	304.71
715.408	349.18
715.812	248.54
716.217	360.88
716.621	363.22
717.025	433.44
717.429	302.37
717.833	321.09
718.238	311.73
718.642	295.35
719.046	321.09
719.449	278.96
719.853	349.18
720.257	283.64
720.661	288.32
721.065	372.58
721.468	281.3
721.872	335.14
722.275	269.6
722.679	239.17
723.082	300.03
723.485	318.75
723.889	276.62
724.292	342.16
724.695	250.88
725.098	290.67
725.501	285.98
725.904	344.5
726.307	372.58
726.71	267.26
727.113	271.94
727.516	278.96
727.918	318.75
728.321	267.26
728.724	325.77
729.126	337.48
729.529	318.75
729.931	370.24
730.333	339.82
730.736	271.94
731.138	300.03
731.54	314.07
731.942	316.41
732.344	297.69
732.746	300.03
733.148	332.79
733.55	307.05
733.952	285.98
734.354	300.03
734.756	262.58
735.157	278.96
735.559	253.22
735.96	372.58
736.362	300.03
736.763	332.79
737.165	276.62
737.566	234.49
737.967	300.03
738.368	332.79
738.77	255.56
739.171	321.09
739.572	328.11
739.973	314.07
740.374	288.32
740.774	325.77
741.175	307.05
741.576	248.54
741.977	311.73
742.377	290.67
742.778	285.98
743.178	323.43
743.579	250.88
743.979	302.37
744.379	328.11
744.78	307.05
745.18	250.88
745.58	285.98
745.98	311.73
746.38	328.11
746.78	276.62
747.18	271.94
747.58	236.83
747.98	321.09
748.38	370.24
748.779	353.86
749.179	314.07
749.578	325.77
749.978	377.27
750.377	358.54
750.777	332.79
751.176	307.05
751.575	356.2
751.975	325.77
752.374	307.05
752.773	307.05
753.172	267.26
753.571	234.49
753.97	295.35
754.369	276.62
754.768	314.07
755.166	269.6
755.565	309.39
755.964	311.73
756.362	302.37
756.761	278.96
757.159	314.07
757.558	314.07
757.956	335.14
758.354	227.47
758.753	276.62
759.151	316.41
759.549	339.82
759.947	304.71
760.345	414.71
760.743	311.73
761.141	290.67
761.539	278.96
761.936	321.09
762.334	307.05
762.732	302.37
763.129	318.75
763.527	285.98
763.924	293.01
764.322	257.9
764.719	278.96
765.117	379.61
765.514	297.69
765.911	250.88
766.308	307.05
766.705	271.94
767.102	325.77
767.499	300.03
767.896	290.67
768.293	337.48
768.69	328.11
769.086	285.98
769.483	328.11
769.88	285.98
770.276	323.43
770.673	365.56
771.069	335.14
771.466	304.71
771.862	367.9
772.258	302.37
772.654	318.75
773.05	351.52
773.447	367.9
773.843	260.24
774.239	302.37
774.634	309.39
775.03	274.28
775.426	250.88
775.822	356.2
776.218	325.77
776.613	281.3
777.009	316.41
777.404	253.22
777.8	342.16
778.195	281.3
778.59	304.71
778.986	328.11
779.381	300.03
779.776	227.47
780.171	318.75
780.566	311.73
780.961	388.97
781.356	285.98
781.751	297.69
782.146	262.58
782.54	307.05
782.935	307.05
783.33	293.01
783.724	323.43
784.119	332.79
784.513	253.22
784.908	323.43
785.302	307.05
785.696	307.05
786.09	335.14
786.485	285.98
786.879	278.96
787.273	342.16
787.667	332.79
788.061	300.03
788.454	269.6
788.848	346.84
789.242	274.28
789.636	344.5
790.029	257.9
790.423	248.54
790.816	314.07
791.21	311.73
791.603	318.75
791.997	293.01
792.39	293.01
792.783	321.09
793.176	349.18
793.569	337.48
793.962	264.92
794.355	316.41
794.748	321.09
795.141	311.73
795.534	253.22
795.927	283.64
796.319	318.75
796.712	307.05
797.105	264.92
797.497	332.79
797.89	293.01
798.282	318.75
798.674	257.9
799.067	260.24
799.459	264.92
799.851	297.69
800.243	323.43
800.635	344.5
801.027	318.75
801.419	311.73
801.811	253.22
802.203	274.28
802.594	356.2
802.986	285.98
803.378	339.82
803.769	271.94
804.161	307.05
804.552	290.67
804.944	349.18
805.335	316.41
805.726	337.48
806.118	342.16
806.509	267.26
806.9	321.09
807.291	318.75
807.682	267.26
808.073	283.64
808.464	377.27
808.855	293.01
809.245	304.71
809.636	363.22
810.027	325.77
810.417	335.14
810.808	302.37
811.198	349.18
811.589	360.88
811.979	337.48
812.369	253.22
812.759	274.28
813.15	395.99
813.54	274.28
813.93	262.58
814.32	374.92
814.71	335.14
815.1	302.37
815.489	283.64
815.879	285.98
816.269	309.39
816.658	384.29
817.048	349.18
817.438	288.32
817.827	325.77
818.216	304.71
818.606	342.16
818.995	349.18
819.384	285.98
819.773	276.62
820.163	311.73
820.552	377.27
820.941	283.64
821.33	297.69
821.718	302.37
822.107	358.54
822.496	330.45
822.885	358.54
823.273	295.35
823.662	302.37
824.05	321.09
824.439	311.73
824.827	330.45
825.216	321.09
825.604	288.32
825.992	269.6
826.38	288.32
826.768	325.77
827.156	321.09
827.544	407.69
827.932	271.94
828.32	309.39
828.708	337.48
829.096	260.24
829.483	307.05
829.871	342.16
830.259	318.75
830.646	300.03
831.034	285.98
831.421	318.75
831.808	288.32
832.196	290.67
832.583	300.03
832.97	297.69
833.357	374.92
833.744	318.75
834.131	211.09
834.518	323.43
834.905	220.45
835.292	262.58
835.678	304.71
836.065	274.28
836.452	222.79
836.838	293.01
837.225	323.43
837.611	344.5
837.998	260.24
838.384	276.62
838.77	316.41
839.157	278.96
839.543	318.75
839.929	309.39
840.315	307.05
840.701	351.52
841.087	337.48
841.473	271.94
841.858	290.67
842.244	300.03
842.63	311.73
843.015	276.62
843.401	538.76
843.787	332.79
844.172	281.3
844.557	241.51
844.943	325.77
845.328	288.32
845.713	307.05
846.098	328.11
846.483	332.79
846.868	309.39
847.253	309.39
847.638	318.75
848.023	332.79
848.408	297.69
848.793	384.29
849.177	360.88
849.562	337.48
849.947	297.69
850.331	314.07
850.715	328.11
851.1	358.54
851.484	267.26
851.868	276.62
852.253	297.69
852.637	285.98
853.021	283.64
853.405	274.28
853.789	316.41
854.173	328.11
854.557	353.86
854.94	339.82
855.324	363.22
855.708	318.75
856.091	314.07
856.475	370.24
856.858	344.5
857.242	318.75
857.625	300.03
858.009	372.58
858.392	288.32
858.775	234.49
859.158	365.56
859.541	351.52
859.924	281.3
860.307	229.81
860.69	323.43
861.073	271.94
861.456	325.77
861.838	332.79
862.221	349.18
862.604	274.28
862.986	295.35
863.369	285.98
863.751	297.69
864.133	307.05
864.516	288.32
864.898	349.18
865.28	307.05
865.662	323.43
866.044	304.71
866.426	271.94
866.808	344.5
867.19	290.67
867.572	316.41
867.954	302.37
868.336	328.11
868.717	295.35
869.099	300.03
869.48	281.3
869.862	218.11
870.243	271.94
870.625	255.56
871.006	295.35
871.387	337.48
871.768	325.77
872.149	304.71
872.53	246.2
872.911	311.73
873.292	379.61
873.673	309.39
874.054	246.2
874.435	269.6
874.815	278.96
875.196	274.28
875.577	304.71
875.957	316.41
876.338	370.24
876.718	328.11
877.098	302.37
877.479	367.9
877.859	300.03
878.239	297.69
878.619	356.2
878.999	349.18
879.379	307.05
879.759	271.94
880.139	285.98
880.519	309.39
880.898	208.75
881.278	323.43
881.658	253.22
882.037	218.11
882.417	309.39
882.796	264.92
883.176	278.96
883.555	271.94
883.934	236.83
884.313	290.67
884.693	288.32
885.072	285.98
885.451	285.98
885.83	353.86
886.209	309.39
886.587	342.16
886.966	358.54
887.345	311.73
887.724	281.3
888.102	234.49
888.481	372.58
888.859	269.6
889.238	264.92
889.616	346.84
889.994	318.75
890.373	290.67
890.751	248.54
891.129	302.37
891.507	304.71
891.885	281.3
892.263	328.11
892.641	372.58
893.019	325.77
893.396	278.96
893.774	276.62
894.152	374.92
894.529	304.71
894.907	290.67
895.284	285.98
895.662	274.28
896.039	332.79
896.416	321.09
896.794	276.62
897.171	297.69
897.548	264.92
897.925	325.77
898.302	288.32
898.679	339.82
899.056	267.26
899.433	321.09
899.809	267.26
900.186	323.43
900.563	293.01
900.939	283.64
901.316	260.24
901.692	288.32
902.069	283.64
902.445	335.14
902.821	293.01
903.197	351.52
903.574	332.79
903.95	307.05
904.326	323.43
904.702	344.5
905.078	344.5
905.454	339.82
905.829	271.94
906.205	339.82
906.581	215.77
906.956	300.03
907.332	293.01
907.707	267.26
908.083	325.77
908.458	328.11
908.833	346.84
909.209	316.41
909.584	349.18
909.959	295.35
910.334	309.39
910.709	318.75
911.084	332.79
911.459	250.88
911.834	264.92
912.209	323.43
912.583	300.03
912.958	358.54
913.333	309.39
913.707	250.88
914.082	353.86
914.456	304.71
914.83	339.82
915.205	328.11
915.579	290.67
915.953	295.35
916.327	269.6
916.701	283.64
917.075	248.54
917.449	290.67
917.823	321.09
918.197	314.07
918.571	316.41
918.944	302.37
919.318	309.39
919.692	269.6
920.065	293.01
920.438	328.11
920.812	232.15
921.185	309.39
921.558	332.79
921.932	325.77
922.305	285.98
922.678	304.71
923.051	332.79
923.424	297.69
923.797	276.62
924.17	297.69
924.542	363.22
924.915	255.56
925.288	300.03
925.661	260.24
926.033	346.84
926.406	253.22
926.778	381.95
927.15	290.67
927.523	323.43
927.895	309.39
928.267	290.67
928.639	328.11
929.011	253.22
929.383	274.28
929.755	257.9
930.127	253.22
930.499	248.54
930.871	328.11
931.242	330.45
931.614	330.45
931.986	309.39
932.357	339.82
932.729	253.22
933.1	307.05
933.471	325.77
933.843	253.22
934.214	311.73
934.585	309.39
934.956	300.03
935.327	262.58
935.698	285.98
936.069	269.6
936.44	309.39
936.811	323.43
937.182	271.94
937.552	311.73
937.923	314.07
938.293	300.03
938.664	297.69
939.034	314.07
939.405	302.37
939.775	260.24
940.145	309.39
940.516	253.22
940.886	339.82
941.256	325.77
941.626	267.26
941.996	356.2
942.366	332.79
942.735	335.14
943.105	262.58
943.475	274.28
943.845	295.35
944.214	260.24
944.584	281.3
944.953	243.85
945.323	288.32
945.692	236.83
946.061	356.2
946.43	318.75
946.8	248.54
947.169	337.48
947.538	321.09
947.907	309.39
948.276	285.98
948.645	274.28
949.013	323.43
949.382	288.32
949.751	351.52
950.119	339.82
950.488	283.64
950.857	321.09
951.225	309.39
951.593	307.05
951.962	302.37
952.33	269.6
952.698	293.01
953.066	239.17
953.434	281.3
953.802	218.11
954.17	328.11
954.538	260.24
954.906	241.51
955.274	271.94
955.642	264.92
956.009	248.54
956.377	314.07
956.744	318.75
957.112	332.79
957.479	283.64
957.847	269.6
958.214	297.69
958.581	370.24
958.948	335.14
959.315	349.18
959.683	314.07
960.05	271.94
960.416	335.14
960.783	267.26
961.15	372.58
961.517	297.69
961.884	281.3
962.25	351.52
962.617	344.5
962.983	304.71
963.35	337.48
963.716	248.54
964.082	302.37
964.449	332.79
964.815	283.64
965.181	309.39
965.547	325.77
965.913	288.32
966.279	339.82
966.645	316.41
967.011	300.03
967.377	295.35
967.742	356.2
968.108	297.69
968.474	257.9
968.839	290.67
969.205	288.32
969.57	271.94
969.935	276.62
970.301	339.82
970.666	309.39
971.031	295.35
971.396	267.26
971.761	302.37
972.126	278.96
972.491	276.62
972.856	278.96
973.221	339.82
973.586	246.2
973.95	314.07
974.315	274.28
974.679	262.58
975.044	344.5
975.408	260.24
975.773	288.32
976.137	372.58
976.501	281.3
976.866	253.22
977.23	271.94
977.594	304.71
977.958	379.61
978.322	267.26
978.686	271.94
979.049	309.39
979.413	344.5
979.777	321.09
980.141	293.01
980.504	271.94
980.868	342.16
981.231	239.17
981.595	260.24
981.958	330.45
982.321	337.48
982.684	236.83
983.048	264.92
983.411	304.71
983.774	269.6
984.137	300.03
984.5	278.96
984.862	241.51
985.225	288.32
985.588	314.07
985.951	398.33
986.313	285.98
986.676	342.16
987.038	314.07
987.401	293.01
987.763	293.01
988.125	293.01
988.488	307.05
988.85	325.77
989.212	316.41
989.574	335.14
989.936	278.96
990.298	314.07
990.66	285.98
991.022	309.39
991.383	267.26
991.745	276.62
992.107	246.2
992.468	274.28
992.83	271.94
993.191	353.86
993.553	236.83
993.914	330.45
994.275	311.73
994.637	318.75
994.998	356.2
995.359	278.96
995.72	278.96
996.081	335.14
996.442	360.88
996.803	351.52
997.163	304.71
997.524	300.03
997.885	337.48
998.245	264.92
998.606	302.37
998.966	307.05
999.327	309.39
999.687	271.94
1000.047	358.54
1000.408	241.51
1000.768	267.26
1001.128	239.17
1001.488	346.84
1001.848	311.73
1002.208	360.88
1002.568	274.28
1002.927	283.64
1003.287	304.71
1003.647	307.05
1004.007	307.05
1004.366	246.2
1004.726	311.73
1005.085	274.28
1005.444	267.26
1005.804	332.79
1006.163	325.77
1006.522	339.82
1006.881	316.41
1007.24	311.73
1007.599	321.09
1007.958	351.52
1008.317	316.41
1008.676	267.26
1009.035	353.86
1009.393	372.58
1009.752	269.6
1010.111	271.94
1010.469	330.45
1010.828	328.11
1011.186	281.3
1011.544	332.79
1011.903	239.17
1012.261	335.14
1012.619	239.17
1012.977	220.45
1013.335	325.77
1013.693	372.58
1014.051	323.43
1014.409	297.69
1014.767	367.9
1015.124	323.43
1015.482	290.67
1015.84	264.92
1016.197	314.07
1016.555	269.6
1016.912	367.9
1017.269	290.67
1017.627	367.9
1017.984	269.6
1018.341	285.98
1018.698	297.69
1019.055	318.75
1019.412	316.41
1019.769	323.43
1020.126	353.86
1020.483	234.49
1020.84	337.48
1021.196	300.03
1021.553	321.09
1021.909	253.22
1022.266	271.94
1022.622	276.62
1022.979	290.67
1023.335	307.05
1023.691	300.03
1024.047	271.94
1024.404	260.24
1024.76	328.11
1025.116	304.71
1025.472	304.71
1025.827	276.62
1026.183	285.98
1026.539	285.98
1026.895	353.86
1027.25	321.09
1027.606	302.37
1027.961	288.32
1028.317	316.41
1028.672	276.62
1029.028	288.32
1029.383	246.2
1029.738	253.22
1030.093	309.39
1030.448	316.41
1030.803	281.3
1031.158	297.69
1031.513	314.07
1031.868	346.84
1032.223	309.39
1032.577	271.94
1032.932	304.71
1033.287	339.82
1033.641	248.54
1033.996	262.58
1034.35	309.39
1034.704	274.28
1035.059	269.6
1035.413	325.77
1035.767	325.77
1036.121	325.77
