Data from Al_FLMS009871__597__14-46-41-416.txt Node

Date: Fri Mar 08 14:46:41 CST 2024
User: pe5414po
Spectrometer: FLMS00987
Trigger mode: 0
Integration Time (sec): 1.000000E-1
Scans to average: 1
Electric dark correction enabled: true
Nonlinearity correction enabled: false
Boxcar width: 0
XAxis mode: Wavelengths
Number of Pixels in Spectrum: 2048
>>>>>Begin Spectral Data<<<<<
188.938	-59.98
189.409	-59.98
189.879	-59.98
190.349	-90.4
190.819	-85.72
191.29	-144.24
191.76	-158.28
192.23	-55.3
192.7	-74.02
193.17	-38.91
193.64	-59.98
194.109	12.58
194.579	-24.87
195.049	-29.55
195.519	12.58
195.988	33.65
196.458	10.24
196.927	99.18
197.397	129.61
197.866	127.27
198.336	160.03
198.805	162.37
199.274	206.84
199.744	148.33
200.213	188.12
200.682	134.29
201.151	188.12
201.62	199.82
202.089	204.5
202.558	265.36
203.027	281.74
203.495	256
203.964	300.47
204.433	251.32
204.902	281.74
205.37	288.76
205.839	248.97
206.307	256
206.776	330.89
207.244	293.44
207.712	279.4
208.181	253.66
208.649	384.73
209.117	291.1
209.585	356.64
210.053	256
210.521	298.13
210.989	288.76
211.457	312.17
211.925	326.21
212.393	291.1
212.861	354.3
213.328	298.13
213.796	272.38
214.264	307.49
214.731	302.81
215.199	279.4
215.666	302.81
216.133	279.4
216.601	279.4
217.068	347.28
217.535	312.17
218.003	234.93
218.47	298.13
218.937	213.87
219.404	274.72
219.871	323.87
220.338	288.76
220.805	199.82
221.271	302.81
221.738	239.61
222.205	305.15
222.671	246.63
223.138	319.19
223.605	305.15
224.071	305.15
224.538	192.8
225.004	253.66
225.47	218.55
225.937	328.55
226.403	291.1
226.869	267.7
227.335	241.95
227.801	300.47
228.267	293.44
228.733	312.17
229.199	197.48
229.665	326.21
230.131	270.04
230.597	314.51
231.062	295.79
231.528	256
231.994	232.59
232.459	256
232.925	277.06
233.39	328.55
233.856	258.34
234.321	256
234.786	281.74
235.252	309.83
235.717	312.17
236.182	234.93
236.647	305.15
237.112	302.81
237.577	321.53
238.042	248.97
238.507	227.91
238.972	291.1
239.436	323.87
239.901	263.02
240.366	281.74
240.83	272.38
241.295	232.59
241.76	337.91
242.224	288.76
242.688	237.27
243.153	284.08
243.617	284.08
244.081	209.19
244.545	274.72
245.01	267.7
245.474	244.29
245.938	286.42
246.402	211.53
246.866	300.47
247.33	230.25
247.793	335.57
248.257	295.79
248.721	305.15
249.185	251.32
249.648	267.7
250.112	298.13
250.575	323.87
251.039	216.21
251.502	256
251.965	323.87
252.429	265.36
252.892	272.38
253.355	298.13
253.818	356.64
254.281	295.79
254.744	248.97
255.207	312.17
255.67	251.32
256.133	293.44
256.596	314.51
257.059	295.79
257.522	351.96
257.984	307.49
258.447	244.29
258.909	361.32
259.372	258.34
259.834	295.79
260.297	241.95
260.759	326.21
261.221	309.83
261.684	309.83
262.146	314.51
262.608	288.76
263.07	354.3
263.532	270.04
263.994	279.4
264.456	300.47
264.918	241.95
265.38	232.59
265.842	279.4
266.303	284.08
266.765	246.63
267.227	251.32
267.688	321.53
268.15	298.13
268.611	309.83
269.072	314.51
269.534	326.21
269.995	309.83
270.456	335.57
270.918	335.57
271.379	337.91
271.84	349.62
272.301	241.95
272.762	237.27
273.223	284.08
273.684	307.49
274.144	314.51
274.605	199.82
275.066	314.51
275.527	305.15
275.987	330.89
276.448	291.1
276.908	281.74
277.369	295.79
277.829	239.61
278.289	347.28
278.75	321.53
279.21	302.81
279.67	267.7
280.13	258.34
280.59	251.32
281.05	351.96
281.51	323.87
281.97	272.38
282.43	295.79
282.89	373.02
283.35	295.79
283.809	267.7
284.269	256
284.729	248.97
285.188	270.04
285.648	370.68
286.107	295.79
286.567	300.47
287.026	328.55
287.485	302.81
287.944	309.83
288.404	314.51
288.863	330.89
289.322	349.62
289.781	319.19
290.24	274.72
290.699	347.28
291.158	333.23
291.616	267.7
292.075	321.53
292.534	277.06
292.992	232.59
293.451	328.55
293.91	286.42
294.368	263.02
294.827	286.42
295.285	307.49
295.743	284.08
296.202	314.51
296.66	312.17
297.118	291.1
297.576	284.08
298.034	286.42
298.492	300.47
298.95	314.51
299.408	279.4
299.866	356.64
300.324	305.15
300.781	232.59
301.239	300.47
301.697	312.17
302.154	288.76
302.612	323.87
303.069	251.32
303.527	316.85
303.984	267.7
304.441	284.08
304.899	319.19
305.356	251.32
305.813	279.4
306.27	267.7
306.727	291.1
307.184	344.94
307.641	237.27
308.098	312.17
308.555	380.04
309.012	321.53
309.468	251.32
309.925	351.96
310.382	333.23
310.838	305.15
311.295	305.15
311.751	302.81
312.208	305.15
312.664	309.83
313.12	337.91
313.577	398.77
314.033	342.6
314.489	272.38
314.945	302.81
315.401	335.57
315.857	309.83
316.313	291.1
316.769	340.26
317.225	305.15
317.681	302.81
318.136	373.02
318.592	288.76
319.048	351.96
319.503	272.38
319.959	286.42
320.414	321.53
320.869	316.85
321.325	314.51
321.78	340.26
322.235	314.51
322.691	300.47
323.146	307.49
323.601	323.87
324.056	281.74
324.511	314.51
324.966	321.53
325.421	326.21
325.875	267.7
326.33	260.68
326.785	309.83
327.24	300.47
327.694	344.94
328.149	309.83
328.603	270.04
329.058	349.62
329.512	302.81
329.966	316.85
330.421	340.26
330.875	330.89
331.329	305.15
331.783	267.7
332.237	307.49
332.691	281.74
333.145	328.55
333.599	286.42
334.053	351.96
334.507	354.3
334.96	340.26
335.414	302.81
335.868	333.23
336.321	309.83
336.775	302.81
337.228	366
337.682	380.04
338.135	333.23
338.588	302.81
339.042	337.91
339.495	298.13
339.948	361.32
340.401	342.6
340.854	305.15
341.307	279.4
341.76	340.26
342.213	337.91
342.666	394.09
343.119	319.19
343.571	326.21
344.024	309.83
344.477	321.53
344.929	368.34
345.382	302.81
345.834	316.85
346.287	307.49
346.739	286.42
347.191	337.91
347.644	328.55
348.096	293.44
348.548	316.85
349	366
349.452	298.13
349.904	321.53
350.356	328.55
350.808	335.57
351.26	382.39
351.711	377.7
352.163	375.36
352.615	265.36
353.066	307.49
353.518	349.62
353.969	323.87
354.421	316.85
354.872	291.1
355.324	316.85
355.775	319.19
356.226	300.47
356.677	321.53
357.128	330.89
357.579	387.07
358.03	387.07
358.481	274.72
358.932	295.79
359.383	337.91
359.834	375.36
360.285	333.23
360.735	323.87
361.186	263.02
361.637	326.21
362.087	340.26
362.538	281.74
362.988	337.91
363.438	307.49
363.889	330.89
364.339	370.68
364.789	298.13
365.239	326.21
365.689	330.89
366.139	342.6
366.589	291.1
367.039	363.66
367.489	344.94
367.939	277.06
368.389	305.15
368.839	284.08
369.288	354.3
369.738	307.49
370.187	277.06
370.637	309.83
371.086	295.79
371.536	326.21
371.985	265.36
372.434	295.79
372.884	387.07
373.333	319.19
373.782	307.49
374.231	244.29
374.68	305.15
375.129	337.91
375.578	274.72
376.027	326.21
376.475	330.89
376.924	319.19
377.373	298.13
377.822	319.19
378.27	326.21
378.719	337.91
379.167	335.57
379.616	363.66
380.064	368.34
380.512	293.44
380.961	344.94
381.409	326.21
381.857	335.57
382.305	286.42
382.753	356.64
383.201	326.21
383.649	326.21
384.097	363.66
384.545	300.47
384.992	377.7
385.44	354.3
385.888	307.49
386.335	326.21
386.783	326.21
387.231	342.6
387.678	307.49
388.125	387.07
388.573	256
389.02	321.53
389.467	380.04
389.914	316.85
390.362	347.28
390.809	323.87
391.256	300.47
391.703	319.19
392.15	344.94
392.596	358.98
393.043	305.15
393.49	288.76
393.937	293.44
394.383	340.26
394.83	328.55
395.276	305.15
395.723	293.44
396.169	356.64
396.616	277.06
397.062	288.76
397.508	295.79
397.954	356.64
398.401	387.07
398.847	300.47
399.293	312.17
399.739	366
400.185	354.3
400.631	351.96
401.076	330.89
401.522	239.61
401.968	373.02
402.414	326.21
402.859	309.83
403.305	333.23
403.75	305.15
404.196	293.44
404.641	312.17
405.086	302.81
405.532	314.51
405.977	323.87
406.422	323.87
406.867	291.1
407.312	328.55
407.757	281.74
408.202	375.36
408.647	281.74
409.092	326.21
409.537	363.66
409.982	293.44
410.426	293.44
410.871	419.83
411.316	270.04
411.76	354.3
412.205	347.28
412.649	347.28
413.093	354.3
413.538	326.21
413.982	279.4
414.426	330.89
414.87	405.79
415.314	293.44
415.758	256
416.202	330.89
416.646	319.19
417.09	300.47
417.534	347.28
417.978	286.42
418.421	323.87
418.865	377.7
419.309	293.44
419.752	316.85
420.196	291.1
420.639	361.32
421.083	300.47
421.526	319.19
421.969	340.26
422.412	302.81
422.856	342.6
423.299	330.89
423.742	330.89
424.185	281.74
424.628	309.83
425.071	272.38
425.513	248.97
425.956	286.42
426.399	316.85
426.842	344.94
427.284	354.3
427.727	337.91
428.169	309.83
428.612	335.57
429.054	396.43
429.497	326.21
429.939	344.94
430.381	321.53
430.823	330.89
431.265	333.23
431.707	330.89
432.149	279.4
432.591	319.19
433.033	277.06
433.475	277.06
433.917	366
434.359	288.76
434.8	326.21
435.242	328.55
435.684	272.38
436.125	312.17
436.567	344.94
437.008	363.66
437.449	330.89
437.891	312.17
438.332	333.23
438.773	298.13
439.214	330.89
439.656	351.96
440.097	370.68
440.538	366
440.978	260.68
441.419	389.41
441.86	309.83
442.301	366
442.742	312.17
443.182	298.13
443.623	361.32
444.063	298.13
444.504	288.76
444.944	333.23
445.385	321.53
445.825	300.47
446.265	330.89
446.706	256
447.146	314.51
447.586	356.64
448.026	298.13
448.466	337.91
448.906	305.15
449.346	370.68
449.786	354.3
450.225	344.94
450.665	344.94
451.105	342.6
451.544	286.42
451.984	293.44
452.424	358.98
452.863	265.36
453.302	337.91
453.742	263.02
454.181	351.96
454.62	351.96
455.059	309.83
455.499	284.08
455.938	321.53
456.377	323.87
456.816	412.81
457.254	363.66
457.693	263.02
458.132	319.19
458.571	347.28
459.01	279.4
459.448	358.98
459.887	288.76
460.325	223.23
460.764	288.76
461.202	279.4
461.641	319.19
462.079	340.26
462.517	340.26
462.955	316.85
463.393	316.85
463.832	377.7
464.27	328.55
464.708	333.23
465.145	302.81
465.583	293.44
466.021	328.55
466.459	363.66
466.897	309.83
467.334	281.74
467.772	370.68
468.209	387.07
468.647	330.89
469.084	335.57
469.522	256
469.959	277.06
470.396	300.47
470.833	295.79
471.271	302.81
471.708	328.55
472.145	319.19
472.582	340.26
473.019	309.83
473.456	314.51
473.892	396.43
474.329	316.85
474.766	267.7
475.202	288.76
475.639	337.91
476.076	337.91
476.512	270.04
476.949	361.32
477.385	344.94
477.821	288.76
478.258	288.76
478.694	260.68
479.13	286.42
479.566	302.81
480.002	387.07
480.438	330.89
480.874	340.26
481.31	323.87
481.746	384.73
482.181	305.15
482.617	314.51
483.053	309.83
483.488	314.51
483.924	302.81
484.36	305.15
484.795	281.74
485.23	312.17
485.666	328.55
486.101	351.96
486.536	337.91
486.971	358.98
487.407	333.23
487.842	307.49
488.277	295.79
488.712	335.57
489.146	356.64
489.581	375.36
490.016	330.89
490.451	248.97
490.885	358.98
491.32	373.02
491.755	302.81
492.189	314.51
492.624	333.23
493.058	370.68
493.492	340.26
493.927	347.28
494.361	281.74
494.795	286.42
495.229	356.64
495.663	300.47
496.097	307.49
496.531	298.13
496.965	333.23
497.399	377.7
497.833	321.53
498.266	307.49
498.7	265.36
499.134	291.1
499.567	366
500.001	328.55
500.434	335.57
500.868	309.83
501.301	274.72
501.734	340.26
502.168	344.94
502.601	358.98
503.034	256
503.467	281.74
503.9	319.19
504.333	321.53
504.766	342.6
505.199	398.77
505.632	363.66
506.064	368.34
506.497	253.66
506.93	347.28
507.362	319.19
507.795	382.39
508.227	361.32
508.66	335.57
509.092	312.17
509.524	335.57
509.956	293.44
510.389	323.87
510.821	344.94
511.253	337.91
511.685	312.17
512.117	267.7
512.549	258.34
512.981	321.53
513.412	279.4
513.844	323.87
514.276	356.64
514.707	375.36
515.139	347.28
515.571	237.27
516.002	328.55
516.433	349.62
516.865	326.21
517.296	330.89
517.727	328.55
518.159	284.08
518.59	337.91
519.021	298.13
519.452	319.19
519.883	312.17
520.314	267.7
520.744	307.49
521.175	387.07
521.606	354.3
522.037	347.28
522.467	342.6
522.898	354.3
523.328	333.23
523.759	288.76
524.189	330.89
524.62	412.81
525.05	298.13
525.48	333.23
525.91	382.39
526.341	319.19
526.771	335.57
527.201	307.49
527.631	272.38
528.061	335.57
528.49	274.72
528.92	298.13
529.35	363.66
529.78	326.21
530.209	358.98
530.639	305.15
531.068	288.76
531.498	293.44
531.927	293.44
532.357	380.04
532.786	309.83
533.215	335.57
533.644	272.38
534.074	300.47
534.503	398.77
534.932	293.44
535.361	312.17
535.79	321.53
536.218	326.21
536.647	333.23
537.076	295.79
537.505	333.23
537.933	384.73
538.362	340.26
538.79	286.42
539.219	291.1
539.647	309.83
540.076	335.57
540.504	361.32
540.932	323.87
541.36	340.26
541.788	373.02
542.217	401.11
542.645	291.1
543.073	291.1
543.5	361.32
543.928	363.66
544.356	344.94
544.784	279.4
545.211	349.62
545.639	300.47
546.067	358.98
546.494	368.34
546.922	316.85
547.349	309.83
547.776	265.36
548.204	333.23
548.631	277.06
549.058	354.3
549.485	354.3
549.912	319.19
550.339	281.74
550.766	347.28
551.193	316.85
551.62	316.85
552.047	307.49
552.474	358.98
552.9	335.57
553.327	302.81
553.754	312.17
554.18	316.85
554.607	337.91
555.033	302.81
555.459	356.64
555.886	314.51
556.312	340.26
556.738	326.21
557.164	267.7
557.59	391.75
558.016	337.91
558.442	337.91
558.868	288.76
559.294	291.1
559.72	293.44
560.145	358.98
560.571	358.98
560.997	330.89
561.422	256
561.848	309.83
562.273	295.79
562.699	394.09
563.124	295.79
563.549	323.87
563.974	307.49
564.4	333.23
564.825	312.17
565.25	319.19
565.675	314.51
566.1	284.08
566.525	267.7
566.95	366
567.374	265.36
567.799	384.73
568.224	286.42
568.648	361.32
569.073	354.3
569.497	347.28
569.922	354.3
570.346	323.87
570.771	380.04
571.195	307.49
571.619	321.53
572.043	279.4
572.467	328.55
572.891	342.6
573.315	302.81
573.739	333.23
574.163	340.26
574.587	358.98
575.011	333.23
575.435	342.6
575.858	384.73
576.282	356.64
576.705	323.87
577.129	309.83
577.552	300.47
577.976	302.81
578.399	321.53
578.822	281.74
579.245	316.85
579.669	316.85
580.092	300.47
580.515	286.42
580.938	330.89
581.361	288.76
581.784	340.26
582.206	340.26
582.629	263.02
583.052	300.47
583.474	302.81
583.897	295.79
584.32	305.15
584.742	312.17
585.165	279.4
585.587	319.19
586.009	323.87
586.431	342.6
586.854	333.23
587.276	302.81
587.698	373.02
588.12	286.42
588.542	328.55
588.964	403.45
589.386	380.04
589.807	298.13
590.229	319.19
590.651	293.44
591.073	368.34
591.494	351.96
591.916	368.34
592.337	344.94
592.759	305.15
593.18	319.19
593.601	356.64
594.022	323.87
594.444	270.04
594.865	337.91
595.286	340.26
595.707	344.94
596.128	347.28
596.549	330.89
596.97	288.76
597.39	305.15
597.811	382.39
598.232	330.89
598.652	333.23
599.073	349.62
599.494	361.32
599.914	330.89
600.334	309.83
600.755	347.28
601.175	361.32
601.595	356.64
602.015	333.23
602.436	298.13
602.856	387.07
603.276	277.06
603.696	302.81
604.115	342.6
604.535	358.98
604.955	305.15
605.375	342.6
605.794	351.96
606.214	258.34
606.634	319.19
607.053	319.19
607.473	328.55
607.892	333.23
608.311	300.47
608.731	340.26
609.15	340.26
609.569	326.21
609.988	300.47
610.407	330.89
610.826	370.68
611.245	356.64
611.664	326.21
612.083	298.13
612.501	277.06
612.92	309.83
613.339	284.08
613.757	349.62
614.176	302.81
614.594	305.15
615.013	396.43
615.431	389.41
615.85	366
616.268	291.1
616.686	356.64
617.104	375.36
617.522	333.23
617.94	335.57
618.358	330.89
618.776	312.17
619.194	344.94
619.612	342.6
620.03	326.21
620.447	342.6
620.865	300.47
621.282	298.13
621.7	403.45
622.117	284.08
622.535	337.91
622.952	312.17
623.369	298.13
623.787	293.44
624.204	323.87
624.621	293.44
625.038	337.91
625.455	307.49
625.872	337.91
626.289	351.96
626.706	384.73
627.123	302.81
627.539	279.4
627.956	302.81
628.373	295.79
628.789	265.36
629.206	375.36
629.622	279.4
630.038	319.19
630.455	351.96
630.871	300.47
631.287	326.21
631.703	302.81
632.12	438.56
632.536	300.47
632.952	288.76
633.368	321.53
633.783	356.64
634.199	316.85
634.615	307.49
635.031	354.3
635.446	300.47
635.862	265.36
636.277	344.94
636.693	270.04
637.108	279.4
637.524	321.53
637.939	356.64
638.354	298.13
638.77	363.66
639.185	326.21
639.6	328.55
640.015	256
640.43	274.72
640.845	302.81
641.259	284.08
641.674	227.91
642.089	300.47
642.504	319.19
642.918	333.23
643.333	305.15
643.747	328.55
644.162	387.07
644.576	274.72
644.991	328.55
645.405	295.79
645.819	330.89
646.233	319.19
646.647	319.19
647.061	396.43
647.475	305.15
647.889	281.74
648.303	293.44
648.717	302.81
649.131	309.83
649.545	337.91
649.958	307.49
650.372	351.96
650.785	323.87
651.199	298.13
651.612	279.4
652.026	340.26
652.439	300.47
652.852	305.15
653.266	293.44
653.679	321.53
654.092	305.15
654.505	293.44
654.918	323.87
655.331	342.6
655.744	347.28
656.156	305.15
656.569	375.36
656.982	333.23
657.394	314.51
657.807	274.72
658.22	295.79
658.632	307.49
659.044	366
659.457	384.73
659.869	347.28
660.281	286.42
660.693	316.85
661.106	340.26
661.518	284.08
661.93	335.57
662.342	323.87
662.754	354.3
663.165	220.89
663.577	454.94
663.989	349.62
664.401	267.7
664.812	335.57
665.224	342.6
665.635	300.47
666.047	337.91
666.458	323.87
666.869	335.57
667.281	295.79
667.692	298.13
668.103	298.13
668.514	281.74
668.925	312.17
669.336	281.74
669.747	237.27
670.158	288.76
670.569	274.72
670.979	361.32
671.39	330.89
671.801	375.36
672.211	335.57
672.622	370.68
673.032	412.81
673.443	258.34
673.853	288.76
674.263	349.62
674.674	337.91
675.084	340.26
675.494	286.42
675.904	293.44
676.314	337.91
676.724	307.49
677.134	314.51
677.544	328.55
677.953	300.47
678.363	368.34
678.773	335.57
679.182	356.64
679.592	382.39
680.001	368.34
680.411	366
680.82	307.49
681.23	326.21
681.639	330.89
682.048	314.51
682.457	307.49
682.866	288.76
683.275	307.49
683.684	272.38
684.093	384.73
684.502	330.89
684.911	335.57
685.32	354.3
685.728	373.02
686.137	274.72
686.546	361.32
686.954	349.62
687.363	274.72
687.771	312.17
688.179	380.04
688.588	281.74
688.996	319.19
689.404	351.96
689.812	314.51
690.22	291.1
690.628	307.49
691.036	223.23
691.444	351.96
691.852	319.19
692.26	354.3
692.667	330.89
693.075	321.53
693.483	319.19
693.89	340.26
694.298	302.81
694.705	281.74
695.112	337.91
695.52	298.13
695.927	347.28
696.334	342.6
696.741	377.7
697.148	349.62
697.555	307.49
697.962	335.57
698.369	295.79
698.776	263.02
699.183	323.87
699.59	335.57
699.996	354.3
700.403	300.47
700.81	358.98
701.216	323.87
701.623	368.34
702.029	298.13
702.435	312.17
702.842	342.6
703.248	333.23
703.654	295.79
704.06	298.13
704.466	291.1
704.872	314.51
705.278	281.74
705.684	328.55
706.09	307.49
706.496	335.57
706.901	319.19
707.307	302.81
707.712	340.26
708.118	391.75
708.523	307.49
708.929	349.62
709.334	319.19
709.74	263.02
710.145	363.66
710.55	326.21
710.955	356.64
711.36	349.62
711.765	284.08
712.17	307.49
712.575	321.53
712.98	775.6
713.385	347.28
713.789	398.77
714.194	340.26
714.599	323.87
715.003	335.57
715.408	312.17
715.812	267.7
716.217	328.55
716.621	384.73
717.025	321.53
717.429	272.38
717.833	370.68
718.238	349.62
718.642	256
719.046	309.83
719.449	358.98
719.853	248.97
720.257	337.91
720.661	337.91
721.065	274.72
721.468	267.7
721.872	384.73
722.275	358.98
722.679	302.81
723.082	375.36
723.485	319.19
723.889	326.21
724.292	295.79
724.695	305.15
725.098	312.17
725.501	326.21
725.904	349.62
726.307	258.34
726.71	337.91
727.113	323.87
727.516	335.57
727.918	309.83
728.321	323.87
728.724	368.34
729.126	295.79
729.529	382.39
729.931	274.72
730.333	300.47
730.736	230.25
731.138	305.15
731.54	293.44
731.942	323.87
732.344	335.57
732.746	328.55
733.148	319.19
733.55	309.83
733.952	384.73
734.354	298.13
734.756	321.53
735.157	302.81
735.559	302.81
735.96	330.89
736.362	382.39
736.763	351.96
737.165	323.87
737.566	319.19
737.967	319.19
738.368	344.94
738.77	314.51
739.171	263.02
739.572	316.85
739.973	368.34
740.374	316.85
740.774	351.96
741.175	307.49
741.576	270.04
741.977	291.1
742.377	377.7
742.778	286.42
743.178	284.08
743.579	354.3
743.979	279.4
744.379	328.55
744.78	305.15
745.18	281.74
745.58	321.53
745.98	340.26
746.38	387.07
746.78	272.38
747.18	335.57
747.58	272.38
747.98	305.15
748.38	351.96
748.779	274.72
749.179	312.17
749.578	307.49
749.978	366
750.377	361.32
750.777	281.74
751.176	347.28
751.575	344.94
751.975	298.13
752.374	300.47
752.773	354.3
753.172	279.4
753.571	335.57
753.97	274.72
754.369	354.3
754.768	368.34
755.166	288.76
755.565	335.57
755.964	319.19
756.362	270.04
756.761	328.55
757.159	391.75
757.558	307.49
757.956	312.17
758.354	260.68
758.753	307.49
759.151	358.98
759.549	284.08
759.947	295.79
760.345	260.68
760.743	284.08
761.141	295.79
761.539	323.87
761.936	305.15
762.334	274.72
762.732	281.74
763.129	295.79
763.527	309.83
763.924	384.73
764.322	314.51
764.719	279.4
765.117	314.51
765.514	284.08
765.911	274.72
766.308	323.87
766.705	288.76
767.102	267.7
767.499	361.32
767.896	361.32
768.293	253.66
768.69	354.3
769.086	356.64
769.483	323.87
769.88	286.42
770.276	335.57
770.673	284.08
771.069	293.44
771.466	272.38
771.862	277.06
772.258	326.21
772.654	333.23
773.05	295.79
773.447	312.17
773.843	309.83
774.239	284.08
774.634	384.73
775.03	286.42
775.426	328.55
775.822	312.17
776.218	342.6
776.613	344.94
777.009	375.36
777.404	307.49
777.8	375.36
778.195	328.55
778.59	288.76
778.986	274.72
779.381	302.81
779.776	321.53
780.171	368.34
780.566	321.53
780.961	384.73
781.356	319.19
781.751	305.15
782.146	337.91
782.54	244.29
782.935	302.81
783.33	326.21
783.724	347.28
784.119	344.94
784.513	251.32
784.908	323.87
785.302	340.26
785.696	391.75
786.09	279.4
786.485	321.53
786.879	380.04
787.273	333.23
787.667	344.94
788.061	298.13
788.454	319.19
788.848	286.42
789.242	370.68
789.636	382.39
790.029	316.85
790.423	302.81
790.816	314.51
791.21	333.23
791.603	302.81
791.997	265.36
792.39	295.79
792.783	263.02
793.176	333.23
793.569	328.55
793.962	337.91
794.355	351.96
794.748	344.94
795.141	333.23
795.534	326.21
795.927	382.39
796.319	328.55
796.712	326.21
797.105	347.28
797.497	288.76
797.89	316.85
798.282	330.89
798.674	363.66
799.067	274.72
799.459	344.94
799.851	326.21
800.243	305.15
800.635	330.89
801.027	295.79
801.419	335.57
801.811	256
802.203	291.1
802.594	351.96
802.986	314.51
803.378	302.81
803.769	337.91
804.161	298.13
804.552	267.7
804.944	337.91
805.335	295.79
805.726	321.53
806.118	368.34
806.509	295.79
806.9	288.76
807.291	277.06
807.682	300.47
808.073	319.19
808.464	342.6
808.855	284.08
809.245	309.83
809.636	335.57
810.027	288.76
810.417	286.42
810.808	281.74
811.198	251.32
811.589	321.53
811.979	298.13
812.369	291.1
812.759	279.4
813.15	218.55
813.54	248.97
813.93	279.4
814.32	227.91
814.71	288.76
815.1	267.7
815.489	309.83
815.879	377.7
816.269	309.83
816.658	368.34
817.048	305.15
817.438	326.21
817.827	370.68
818.216	335.57
818.606	281.74
818.995	263.02
819.384	330.89
819.773	305.15
820.163	368.34
820.552	377.7
820.941	330.89
821.33	356.64
821.718	300.47
822.107	309.83
822.496	361.32
822.885	342.6
823.273	307.49
823.662	344.94
824.05	307.49
824.439	291.1
824.827	300.47
825.216	307.49
825.604	302.81
825.992	340.26
826.38	274.72
826.768	307.49
827.156	321.53
827.544	244.29
827.932	309.83
828.32	328.55
828.708	326.21
829.096	305.15
829.483	293.44
829.871	260.68
830.259	316.85
830.646	344.94
831.034	337.91
831.421	328.55
831.808	340.26
832.196	382.39
832.583	354.3
832.97	321.53
833.357	312.17
833.744	277.06
834.131	213.87
834.518	344.94
834.905	337.91
835.292	300.47
835.678	305.15
836.065	307.49
836.452	256
836.838	363.66
837.225	340.26
837.611	309.83
837.998	298.13
838.384	277.06
838.77	373.02
839.157	319.19
839.543	340.26
839.929	321.53
840.315	337.91
840.701	358.98
841.087	302.81
841.473	286.42
841.858	328.55
842.244	279.4
842.63	319.19
843.015	291.1
843.401	543.88
843.787	330.89
844.172	260.68
844.557	293.44
844.943	363.66
845.328	316.85
845.713	328.55
846.098	326.21
846.483	314.51
846.868	387.07
847.253	312.17
847.638	227.91
848.023	265.36
848.408	263.02
848.793	286.42
849.177	323.87
849.562	267.7
849.947	300.47
850.331	326.21
850.715	337.91
851.1	347.28
851.484	323.87
851.868	330.89
852.253	279.4
852.637	265.36
853.021	307.49
853.405	356.64
853.789	286.42
854.173	316.85
854.557	248.97
854.94	335.57
855.324	326.21
855.708	272.38
856.091	302.81
856.475	361.32
856.858	316.85
857.242	265.36
857.625	312.17
858.009	309.83
858.392	272.38
858.775	260.68
859.158	309.83
859.541	370.68
859.924	326.21
860.307	363.66
860.69	349.62
861.073	293.44
861.456	356.64
861.838	387.07
862.221	368.34
862.604	295.79
862.986	337.91
863.369	326.21
863.751	295.79
864.133	319.19
864.516	319.19
864.898	288.76
865.28	312.17
865.662	333.23
866.044	321.53
866.426	312.17
866.808	251.32
867.19	328.55
867.572	351.96
867.954	319.19
868.336	351.96
868.717	330.89
869.099	256
869.48	291.1
869.862	321.53
870.243	333.23
870.625	295.79
871.006	328.55
871.387	288.76
871.768	366
872.149	333.23
872.53	342.6
872.911	340.26
873.292	335.57
873.673	307.49
874.054	263.02
874.435	300.47
874.815	323.87
875.196	307.49
875.577	373.02
875.957	312.17
876.338	265.36
876.718	272.38
877.098	312.17
877.479	307.49
877.859	337.91
878.239	323.87
878.619	265.36
878.999	291.1
879.379	326.21
879.759	307.49
880.139	328.55
880.519	431.54
880.898	326.21
881.278	288.76
881.658	382.39
882.037	344.94
882.417	373.02
882.796	349.62
883.176	354.3
883.555	274.72
883.934	321.53
884.313	340.26
884.693	263.02
885.072	358.98
885.451	277.06
885.83	309.83
886.209	342.6
886.587	349.62
886.966	328.55
887.345	323.87
887.724	344.94
888.102	375.36
888.481	295.79
888.859	265.36
889.238	323.87
889.616	274.72
889.994	396.43
890.373	323.87
890.751	361.32
891.129	337.91
891.507	305.15
891.885	403.45
892.263	277.06
892.641	347.28
893.019	344.94
893.396	314.51
893.774	302.81
894.152	370.68
894.529	340.26
894.907	274.72
895.284	295.79
895.662	267.7
896.039	300.47
896.416	286.42
896.794	333.23
897.171	309.83
897.548	309.83
897.925	237.27
898.302	342.6
898.679	361.32
899.056	321.53
899.433	335.57
899.809	258.34
900.186	309.83
900.563	281.74
900.939	300.47
901.316	284.08
901.692	258.34
902.069	316.85
902.445	279.4
902.821	256
903.197	323.87
903.574	295.79
903.95	368.34
904.326	316.85
904.702	295.79
905.078	370.68
905.454	361.32
905.829	319.19
906.205	368.34
906.581	319.19
906.956	328.55
907.332	342.6
907.707	316.85
908.083	305.15
908.458	363.66
908.833	302.81
909.209	319.19
909.584	382.39
909.959	366
910.334	330.89
910.709	272.38
911.084	405.79
911.459	316.85
911.834	298.13
912.209	295.79
912.583	363.66
912.958	314.51
913.333	405.79
913.707	354.3
914.082	272.38
914.456	330.89
914.83	300.47
915.205	295.79
915.579	312.17
915.953	284.08
916.327	319.19
916.701	288.76
917.075	300.47
917.449	337.91
917.823	333.23
918.197	335.57
918.571	307.49
918.944	265.36
919.318	344.94
919.692	319.19
920.065	293.44
920.438	312.17
920.812	342.6
921.185	335.57
921.558	330.89
921.932	370.68
922.305	328.55
922.678	305.15
923.051	349.62
923.424	337.91
923.797	323.87
924.17	307.49
924.542	319.19
924.915	234.93
925.288	335.57
925.661	277.06
926.033	298.13
926.406	321.53
926.778	293.44
927.15	265.36
927.523	351.96
927.895	358.98
928.267	323.87
928.639	347.28
929.011	272.38
929.383	328.55
929.755	314.51
930.127	239.61
930.499	274.72
930.871	302.81
931.242	302.81
931.614	361.32
931.986	333.23
932.357	319.19
932.729	267.7
933.1	347.28
933.471	361.32
933.843	291.1
934.214	321.53
934.585	309.83
934.956	321.53
935.327	309.83
935.698	349.62
936.069	333.23
936.44	330.89
936.811	328.55
937.182	241.95
937.552	328.55
937.923	300.47
938.293	337.91
938.664	307.49
939.034	302.81
939.405	293.44
939.775	312.17
940.145	256
940.516	316.85
940.886	305.15
941.256	319.19
941.626	375.36
941.996	319.19
942.366	354.3
942.735	328.55
943.105	307.49
943.475	335.57
943.845	326.21
944.214	274.72
944.584	298.13
944.953	335.57
945.323	335.57
945.692	316.85
946.061	323.87
946.43	433.88
946.8	246.63
947.169	316.85
947.538	316.85
947.907	337.91
948.276	323.87
948.645	328.55
949.013	312.17
949.382	326.21
949.751	312.17
950.119	319.19
950.488	321.53
950.857	277.06
951.225	293.44
951.593	305.15
951.962	330.89
952.33	375.36
952.698	286.42
953.066	295.79
953.434	300.47
953.802	295.79
954.17	335.57
954.538	291.1
954.906	347.28
955.274	279.4
955.642	328.55
956.009	288.76
956.377	307.49
956.744	377.7
957.112	298.13
957.479	335.57
957.847	279.4
958.214	335.57
958.581	375.36
958.948	302.81
959.315	298.13
959.683	312.17
960.05	321.53
960.416	335.57
960.783	305.15
961.15	368.34
961.517	323.87
961.884	323.87
962.25	344.94
962.617	351.96
962.983	328.55
963.35	267.7
963.716	286.42
964.082	349.62
964.449	333.23
964.815	232.59
965.181	314.51
965.547	342.6
965.913	291.1
966.279	305.15
966.645	293.44
967.011	309.83
967.377	333.23
967.742	354.3
968.108	277.06
968.474	286.42
968.839	349.62
969.205	342.6
969.57	288.76
969.935	305.15
970.301	337.91
970.666	295.79
971.031	263.02
971.396	316.85
971.761	333.23
972.126	288.76
972.491	314.51
972.856	298.13
973.221	265.36
973.586	286.42
973.95	312.17
974.315	295.79
974.679	330.89
975.044	267.7
975.408	342.6
975.773	412.81
976.137	309.83
976.501	305.15
976.866	291.1
977.23	342.6
977.594	298.13
977.958	302.81
978.322	337.91
978.686	307.49
979.049	328.55
979.413	293.44
979.777	323.87
980.141	284.08
980.504	344.94
980.868	316.85
981.231	272.38
981.595	323.87
981.958	263.02
982.321	265.36
982.684	321.53
983.048	330.89
983.411	314.51
983.774	335.57
984.137	309.83
984.5	323.87
984.862	351.96
985.225	347.28
985.588	307.49
985.951	326.21
986.313	347.28
986.676	295.79
987.038	298.13
987.401	335.57
987.763	298.13
988.125	288.76
988.488	300.47
988.85	279.4
989.212	316.85
989.574	354.3
989.936	302.81
990.298	363.66
990.66	302.81
991.022	335.57
991.383	330.89
991.745	328.55
992.107	298.13
992.468	333.23
992.83	288.76
993.191	342.6
993.553	326.21
993.914	316.85
994.275	258.34
994.637	354.3
994.998	342.6
995.359	312.17
995.72	363.66
996.081	389.41
996.442	321.53
996.803	314.51
997.163	295.79
997.524	284.08
997.885	337.91
998.245	342.6
998.606	347.28
998.966	366
999.327	272.38
999.687	279.4
1000.047	351.96
1000.408	358.98
1000.768	330.89
1001.128	316.85
1001.488	354.3
1001.848	380.04
1002.208	295.79
1002.568	351.96
1002.927	373.02
1003.287	265.36
1003.647	323.87
1004.007	323.87
1004.366	314.51
1004.726	298.13
1005.085	286.42
1005.444	342.6
1005.804	319.19
1006.163	370.68
1006.522	307.49
1006.881	314.51
1007.24	337.91
1007.599	377.7
1007.958	328.55
1008.317	298.13
1008.676	319.19
1009.035	251.32
1009.393	291.1
1009.752	302.81
1010.111	326.21
1010.469	251.32
1010.828	335.57
1011.186	302.81
1011.544	323.87
1011.903	344.94
1012.261	368.34
1012.619	344.94
1012.977	314.51
1013.335	333.23
1013.693	349.62
1014.051	323.87
1014.409	298.13
1014.767	356.64
1015.124	300.47
1015.482	394.09
1015.84	337.91
1016.197	321.53
1016.555	344.94
1016.912	349.62
1017.269	321.53
1017.627	279.4
1017.984	305.15
1018.341	321.53
1018.698	281.74
1019.055	319.19
1019.412	354.3
1019.769	314.51
1020.126	323.87
1020.483	354.3
1020.84	298.13
1021.196	274.72
1021.553	300.47
1021.909	314.51
1022.266	270.04
1022.622	316.85
1022.979	375.36
1023.335	274.72
1023.691	370.68
1024.047	298.13
1024.404	312.17
1024.76	307.49
1025.116	267.7
1025.472	248.97
1025.827	349.62
1026.183	323.87
1026.539	349.62
1026.895	347.28
1027.25	300.47
1027.606	319.19
1027.961	366
1028.317	314.51
1028.672	223.23
1029.028	349.62
1029.383	312.17
1029.738	279.4
1030.093	309.83
1030.448	330.89
1030.803	309.83
1031.158	328.55
1031.513	326.21
1031.868	330.89
1032.223	380.04
1032.577	363.66
1032.932	213.87
1033.287	274.72
1033.641	319.19
1033.996	305.15
1034.35	368.34
1034.704	298.13
1035.059	328.55
1035.413	326.21
1035.767	326.21
1036.121	326.21
