Data from Al_FLMS009871__591__14-46-40-822.txt Node

Date: Fri Mar 08 14:46:40 CST 2024
User: pe5414po
Spectrometer: FLMS00987
Trigger mode: 0
Integration Time (sec): 1.000000E-1
Scans to average: 1
Electric dark correction enabled: true
Nonlinearity correction enabled: false
Boxcar width: 0
XAxis mode: Wavelengths
Number of Pixels in Spectrum: 2048
>>>>>Begin Spectral Data<<<<<
188.938	-88.5
189.409	-88.5
189.879	-88.5
190.349	-100.2
190.819	-125.95
191.29	-104.89
191.76	-90.84
192.23	-58.07
192.7	-95.52
193.17	-29.99
193.64	-18.29
194.109	-44.03
194.579	-4.24
195.049	80.02
195.519	-65.1
195.988	-37.01
196.458	7.46
196.927	105.76
197.397	110.44
197.866	80.02
198.336	164.28
198.805	173.64
199.274	180.66
199.744	131.51
200.213	152.57
200.682	232.15
201.151	213.43
201.62	171.3
202.089	243.85
202.558	274.28
203.027	281.3
203.495	239.17
203.964	222.79
204.433	239.17
204.902	246.2
205.37	257.9
205.839	339.82
206.307	257.9
206.776	274.28
207.244	302.37
207.712	250.88
208.181	349.18
208.649	241.51
209.117	283.64
209.585	316.41
210.053	360.88
210.521	335.14
210.989	267.26
211.457	353.86
211.925	290.67
212.393	260.24
212.861	285.98
213.328	283.64
213.796	295.35
214.264	220.45
214.731	323.43
215.199	288.32
215.666	274.28
216.133	297.69
216.601	288.32
217.068	297.69
217.535	309.39
218.003	274.28
218.47	290.67
218.937	276.62
219.404	248.54
219.871	239.17
220.338	208.75
220.805	229.81
221.271	255.56
221.738	293.01
222.205	250.88
222.671	255.56
223.138	264.92
223.605	190.02
224.071	246.2
224.538	262.58
225.004	288.32
225.47	293.01
225.937	260.24
226.403	236.83
226.869	290.67
227.335	229.81
227.801	297.69
228.267	276.62
228.733	278.96
229.199	276.62
229.665	288.32
230.131	285.98
230.597	288.32
231.062	253.22
231.528	307.05
231.994	328.11
232.459	264.92
232.925	243.85
233.39	253.22
233.856	220.45
234.321	281.3
234.786	311.73
235.252	332.79
235.717	253.22
236.182	325.77
236.647	285.98
237.112	208.75
237.577	227.47
238.042	267.26
238.507	285.98
238.972	283.64
239.436	293.01
239.901	274.28
240.366	358.54
240.83	208.75
241.295	241.51
241.76	255.56
242.224	325.77
242.688	264.92
243.153	307.05
243.617	309.39
244.081	288.32
244.545	271.94
245.01	246.2
245.474	346.84
245.938	328.11
246.402	285.98
246.866	225.13
247.33	255.56
247.793	267.26
248.257	281.3
248.721	269.6
249.185	253.22
249.648	288.32
250.112	288.32
250.575	253.22
251.039	262.58
251.502	257.9
251.965	346.84
252.429	285.98
252.892	370.24
253.355	229.81
253.818	288.32
254.281	285.98
254.744	241.51
255.207	264.92
255.67	278.96
256.133	281.3
256.596	325.77
257.059	243.85
257.522	311.73
257.984	309.39
258.447	243.85
258.909	220.45
259.372	239.17
259.834	278.96
260.297	281.3
260.759	318.75
261.221	335.14
261.684	293.01
262.146	318.75
262.608	248.54
263.07	346.84
263.532	239.17
263.994	302.37
264.456	318.75
264.918	311.73
265.38	239.17
265.842	264.92
266.303	325.77
266.765	239.17
267.227	241.51
267.688	283.64
268.15	269.6
268.611	271.94
269.072	297.69
269.534	267.26
269.995	278.96
270.456	229.81
270.918	304.71
271.379	309.39
271.84	321.09
272.301	290.67
272.762	311.73
273.223	218.11
273.684	314.07
274.144	288.32
274.605	290.67
275.066	307.05
275.527	222.79
275.987	339.82
276.448	304.71
276.908	346.84
277.369	323.43
277.829	267.26
278.289	358.54
278.75	278.96
279.21	257.9
279.67	339.82
280.13	316.41
280.59	330.45
281.05	328.11
281.51	260.24
281.97	297.69
282.43	332.79
282.89	321.09
283.35	243.85
283.809	285.98
284.269	370.24
284.729	293.01
285.188	311.73
285.648	262.58
286.107	321.09
286.567	386.63
287.026	307.05
287.485	307.05
287.944	253.22
288.404	293.01
288.863	274.28
289.322	318.75
289.781	309.39
290.24	318.75
290.699	363.22
291.158	255.56
291.616	346.84
292.075	285.98
292.534	314.07
292.992	285.98
293.451	297.69
293.91	281.3
294.368	297.69
294.827	349.18
295.285	297.69
295.743	267.26
296.202	234.49
296.66	337.48
297.118	316.41
297.576	314.07
298.034	302.37
298.492	257.9
298.95	285.98
299.408	281.3
299.866	264.92
300.324	302.37
300.781	325.77
301.239	367.9
301.697	271.94
302.154	358.54
302.612	213.43
303.069	295.35
303.527	246.2
303.984	323.43
304.441	255.56
304.899	304.71
305.356	307.05
305.813	330.45
306.27	311.73
306.727	269.6
307.184	321.09
307.641	267.26
308.098	339.82
308.555	293.01
309.012	318.75
309.468	386.63
309.925	297.69
310.382	288.32
310.838	241.51
311.295	318.75
311.751	264.92
312.208	332.79
312.664	304.71
313.12	360.88
313.577	290.67
314.033	339.82
314.489	288.32
314.945	372.58
315.401	311.73
315.857	309.39
316.313	297.69
316.769	253.22
317.225	300.03
317.681	278.96
318.136	314.07
318.592	290.67
319.048	360.88
319.503	337.48
319.959	314.07
320.414	325.77
320.869	332.79
321.325	269.6
321.78	304.71
322.235	283.64
322.691	360.88
323.146	325.77
323.601	257.9
324.056	250.88
324.511	302.37
324.966	278.96
325.421	346.84
325.875	278.96
326.33	318.75
326.785	293.01
327.24	234.49
327.694	337.48
328.149	285.98
328.603	356.2
329.058	321.09
329.512	342.16
329.966	248.54
330.421	311.73
330.875	257.9
331.329	311.73
331.783	255.56
332.237	325.77
332.691	264.92
333.145	255.56
333.599	250.88
334.053	302.37
334.507	229.81
334.96	293.01
335.414	316.41
335.868	323.43
336.321	288.32
336.775	311.73
337.228	260.24
337.682	300.03
338.135	353.86
338.588	328.11
339.042	293.01
339.495	356.2
339.948	342.16
340.401	281.3
340.854	318.75
341.307	278.96
341.76	365.56
342.213	339.82
342.666	300.03
343.119	346.84
343.571	356.2
344.024	318.75
344.477	335.14
344.929	332.79
345.382	304.71
345.834	328.11
346.287	360.88
346.739	342.16
347.191	321.09
347.644	325.77
348.096	267.26
348.548	241.51
349	339.82
349.452	307.05
349.904	360.88
350.356	339.82
350.808	281.3
351.26	330.45
351.711	300.03
352.163	283.64
352.615	288.32
353.066	374.92
353.518	405.35
353.969	290.67
354.421	278.96
354.872	323.43
355.324	360.88
355.775	335.14
356.226	300.03
356.677	337.48
357.128	321.09
357.579	339.82
358.03	328.11
358.481	314.07
358.932	332.79
359.383	302.37
359.834	255.56
360.285	271.94
360.735	381.95
361.186	344.5
361.637	321.09
362.087	349.18
362.538	314.07
362.988	318.75
363.438	300.03
363.889	288.32
364.339	335.14
364.789	307.05
365.239	276.62
365.689	328.11
366.139	351.52
366.589	342.16
367.039	314.07
367.489	302.37
367.939	346.84
368.389	297.69
368.839	269.6
369.288	311.73
369.738	316.41
370.187	342.16
370.637	295.35
371.086	323.43
371.536	358.54
371.985	323.43
372.434	264.92
372.884	283.64
373.333	321.09
373.782	302.37
374.231	241.51
374.68	222.79
375.129	339.82
375.578	297.69
376.027	330.45
376.475	290.67
376.924	342.16
377.373	288.32
377.822	314.07
378.27	283.64
378.719	314.07
379.167	302.37
379.616	262.58
380.064	293.01
380.512	297.69
380.961	293.01
381.409	278.96
381.857	253.22
382.305	325.77
382.753	290.67
383.201	325.77
383.649	337.48
384.097	370.24
384.545	248.54
384.992	365.56
385.44	346.84
385.888	295.35
386.335	321.09
386.783	311.73
387.231	360.88
387.678	295.35
388.125	307.05
388.573	264.92
389.02	353.86
389.467	236.83
389.914	325.77
390.362	323.43
390.809	311.73
391.256	332.79
391.703	316.41
392.15	323.43
392.596	278.96
393.043	269.6
393.49	297.69
393.937	314.07
394.383	349.18
394.83	281.3
395.276	332.79
395.723	271.94
396.169	358.54
396.616	339.82
397.062	337.48
397.508	344.5
397.954	257.9
398.401	288.32
398.847	349.18
399.293	323.43
399.739	314.07
400.185	293.01
400.631	318.75
401.076	311.73
401.522	321.09
401.968	335.14
402.414	330.45
402.859	281.3
403.305	311.73
403.75	311.73
404.196	388.97
404.641	307.05
405.086	234.49
405.532	321.09
405.977	302.37
406.422	353.86
406.867	337.48
407.312	323.43
407.757	278.96
408.202	344.5
408.647	314.07
409.092	318.75
409.537	274.28
409.982	384.29
410.426	332.79
410.871	316.41
411.316	365.56
411.76	297.69
412.205	309.39
412.649	339.82
413.093	351.52
413.538	346.84
413.982	248.54
414.426	314.07
414.87	311.73
415.314	353.86
415.758	342.16
416.202	335.14
416.646	339.82
417.09	344.5
417.534	309.39
417.978	344.5
418.421	271.94
418.865	278.96
419.309	267.26
419.752	276.62
420.196	342.16
420.639	314.07
421.083	300.03
421.526	293.01
421.969	307.05
422.412	349.18
422.856	311.73
423.299	300.03
423.742	288.32
424.185	300.03
424.628	283.64
425.071	330.45
425.513	290.67
425.956	332.79
426.399	211.09
426.842	367.9
427.284	381.95
427.727	314.07
428.169	232.15
428.612	307.05
429.054	264.92
429.497	285.98
429.939	339.82
430.381	356.2
430.823	304.71
431.265	363.22
431.707	321.09
432.149	302.37
432.591	337.48
433.033	307.05
433.475	304.71
433.917	274.28
434.359	321.09
434.8	332.79
435.242	271.94
435.684	297.69
436.125	260.24
436.567	311.73
437.008	302.37
437.449	318.75
437.891	351.52
438.332	300.03
438.773	297.69
439.214	274.28
439.656	304.71
440.097	377.27
440.538	328.11
440.978	388.97
441.419	311.73
441.86	335.14
442.301	353.86
442.742	314.07
443.182	307.05
443.623	274.28
444.063	323.43
444.504	290.67
444.944	302.37
445.385	267.26
445.825	264.92
446.265	283.64
446.706	295.35
447.146	288.32
447.586	353.86
448.026	311.73
448.466	307.05
448.906	363.22
449.346	360.88
449.786	351.52
450.225	321.09
450.665	346.84
451.105	365.56
451.544	344.5
451.984	293.01
452.424	344.5
452.863	309.39
453.302	257.9
453.742	328.11
454.181	278.96
454.62	346.84
455.059	328.11
455.499	274.28
455.938	271.94
456.377	384.29
456.816	257.9
457.254	342.16
457.693	353.86
458.132	300.03
458.571	290.67
459.01	241.51
459.448	330.45
459.887	257.9
460.325	332.79
460.764	342.16
461.202	360.88
461.641	302.37
462.079	335.14
462.517	260.24
462.955	325.77
463.393	307.05
463.832	363.22
464.27	332.79
464.708	328.11
465.145	314.07
465.583	290.67
466.021	318.75
466.459	297.69
466.897	342.16
467.334	232.15
467.772	342.16
468.209	342.16
468.647	356.2
469.084	339.82
469.522	342.16
469.959	349.18
470.396	316.41
470.833	309.39
471.271	250.88
471.708	321.09
472.145	330.45
472.582	342.16
473.019	300.03
473.456	318.75
473.892	321.09
474.329	232.15
474.766	293.01
475.202	285.98
475.639	290.67
476.076	311.73
476.512	342.16
476.949	363.22
477.385	339.82
477.821	318.75
478.258	372.58
478.694	278.96
479.13	365.56
479.566	311.73
480.002	370.24
480.438	351.52
480.874	285.98
481.31	342.16
481.746	302.37
482.181	349.18
482.617	274.28
483.053	246.2
483.488	307.05
483.924	353.86
484.36	349.18
484.795	288.32
485.23	278.96
485.666	271.94
486.101	337.48
486.536	278.96
486.971	309.39
487.407	285.98
487.842	346.84
488.277	314.07
488.712	318.75
489.146	323.43
489.581	321.09
490.016	295.35
490.451	288.32
490.885	253.22
491.32	335.14
491.755	241.51
492.189	288.32
492.624	309.39
493.058	295.35
493.492	295.35
493.927	290.67
494.361	271.94
494.795	318.75
495.229	293.01
495.663	391.31
496.097	337.48
496.531	309.39
496.965	323.43
497.399	241.51
497.833	323.43
498.266	379.61
498.7	379.61
499.134	307.05
499.567	332.79
500.001	367.9
500.434	283.64
500.868	339.82
501.301	309.39
501.734	353.86
502.168	335.14
502.601	311.73
503.034	311.73
503.467	318.75
503.9	314.07
504.333	332.79
504.766	246.2
505.199	297.69
505.632	337.48
506.064	330.45
506.497	283.64
506.93	325.77
507.362	257.9
507.795	374.92
508.227	339.82
508.66	302.37
509.092	318.75
509.524	428.76
509.956	285.98
510.389	307.05
510.821	321.09
511.253	295.35
511.685	276.62
512.117	311.73
512.549	323.43
512.981	316.41
513.412	335.14
513.844	344.5
514.276	264.92
514.707	283.64
515.139	304.71
515.571	318.75
516.002	332.79
516.433	344.5
516.865	316.41
517.296	311.73
517.727	332.79
518.159	353.86
518.59	318.75
519.021	323.43
519.452	325.77
519.883	288.32
520.314	370.24
520.744	281.3
521.175	377.27
521.606	318.75
522.037	300.03
522.467	302.37
522.898	351.52
523.328	349.18
523.759	351.52
524.189	332.79
524.62	321.09
525.05	339.82
525.48	316.41
525.91	349.18
526.341	288.32
526.771	325.77
527.201	330.45
527.631	356.2
528.061	330.45
528.49	290.67
528.92	337.48
529.35	297.69
529.78	328.11
530.209	335.14
530.639	351.52
531.068	342.16
531.498	318.75
531.927	309.39
532.357	314.07
532.786	293.01
533.215	353.86
533.644	262.58
534.074	328.11
534.503	381.95
534.932	321.09
535.361	281.3
535.79	323.43
536.218	271.94
536.647	309.39
537.076	391.31
537.505	276.62
537.933	311.73
538.362	318.75
538.79	379.61
539.219	328.11
539.647	288.32
540.076	293.01
540.504	285.98
540.932	353.86
541.36	332.79
541.788	281.3
542.217	367.9
542.645	297.69
543.073	267.26
543.5	311.73
543.928	290.67
544.356	302.37
544.784	328.11
545.211	330.45
545.639	321.09
546.067	300.03
546.494	349.18
546.922	304.71
547.349	302.37
547.776	278.96
548.204	300.03
548.631	377.27
549.058	335.14
549.485	381.95
549.912	314.07
550.339	300.03
550.766	297.69
551.193	314.07
551.62	314.07
552.047	283.64
552.474	295.35
552.9	262.58
553.327	288.32
553.754	297.69
554.18	302.37
554.607	311.73
555.033	309.39
555.459	318.75
555.886	346.84
556.312	344.5
556.738	349.18
557.164	314.07
557.59	304.71
558.016	318.75
558.442	337.48
558.868	344.5
559.294	307.05
559.72	297.69
560.145	281.3
560.571	309.39
560.997	379.61
561.422	342.16
561.848	374.92
562.273	323.43
562.699	285.98
563.124	264.92
563.549	311.73
563.974	314.07
564.4	325.77
564.825	367.9
565.25	246.2
565.675	288.32
566.1	321.09
566.525	332.79
566.95	330.45
567.374	358.54
567.799	314.07
568.224	302.37
568.648	288.32
569.073	241.51
569.497	297.69
569.922	288.32
570.346	264.92
570.771	370.24
571.195	328.11
571.619	309.39
572.043	300.03
572.467	293.01
572.891	325.77
573.315	337.48
573.739	304.71
574.163	300.03
574.587	335.14
575.011	356.2
575.435	328.11
575.858	335.14
576.282	257.9
576.705	328.11
577.129	271.94
577.552	318.75
577.976	285.98
578.399	255.56
578.822	314.07
579.245	309.39
579.669	342.16
580.092	349.18
580.515	297.69
580.938	264.92
581.361	295.35
581.784	246.2
582.206	344.5
582.629	346.84
583.052	288.32
583.474	307.05
583.897	316.41
584.32	295.35
584.742	281.3
585.165	300.03
585.587	304.71
586.009	262.58
586.431	269.6
586.854	332.79
587.276	332.79
587.698	339.82
588.12	304.71
588.542	351.52
588.964	269.6
589.386	325.77
589.807	335.14
590.229	353.86
590.651	335.14
591.073	323.43
591.494	285.98
591.916	295.35
592.337	351.52
592.759	271.94
593.18	325.77
593.601	349.18
594.022	353.86
594.444	353.86
594.865	318.75
595.286	346.84
595.707	391.31
596.128	384.29
596.549	257.9
596.97	285.98
597.39	365.56
597.811	271.94
598.232	295.35
598.652	330.45
599.073	302.37
599.494	290.67
599.914	300.03
600.334	358.54
600.755	367.9
601.175	395.99
601.595	271.94
602.015	332.79
602.436	293.01
602.856	438.12
603.276	316.41
603.696	337.48
604.115	321.09
604.535	269.6
604.955	356.2
605.375	346.84
605.794	285.98
606.214	302.37
606.634	253.22
607.053	304.71
607.473	328.11
607.892	293.01
608.311	283.64
608.731	257.9
609.15	264.92
609.569	384.29
609.988	302.37
610.407	349.18
610.826	311.73
611.245	372.58
611.664	337.48
612.083	278.96
612.501	311.73
612.92	311.73
613.339	323.43
613.757	337.48
614.176	403.01
614.594	339.82
615.013	367.9
615.431	293.01
615.85	271.94
616.268	309.39
616.686	377.27
617.104	358.54
617.522	288.32
617.94	304.71
618.358	328.11
618.776	321.09
619.194	307.05
619.612	337.48
620.03	283.64
620.447	323.43
620.865	293.01
621.282	351.52
621.7	360.88
622.117	283.64
622.535	302.37
622.952	311.73
623.369	293.01
623.787	288.32
624.204	311.73
624.621	311.73
625.038	264.92
625.455	311.73
625.872	318.75
626.289	311.73
626.706	391.31
627.123	325.77
627.539	293.01
627.956	267.26
628.373	358.54
628.789	318.75
629.206	300.03
629.622	302.37
630.038	349.18
630.455	353.86
630.871	337.48
631.287	262.58
631.703	363.22
632.12	307.05
632.536	309.39
632.952	342.16
633.368	300.03
633.783	300.03
634.199	323.43
634.615	262.58
635.031	311.73
635.446	318.75
635.862	304.71
636.277	250.88
636.693	290.67
637.108	311.73
637.524	351.52
637.939	255.56
638.354	332.79
638.77	281.3
639.185	321.09
639.6	344.5
640.015	264.92
640.43	311.73
640.845	309.39
641.259	307.05
641.674	346.84
642.089	339.82
642.504	316.41
642.918	337.48
643.333	281.3
643.747	271.94
644.162	283.64
644.576	276.62
644.991	332.79
645.405	370.24
645.819	281.3
646.233	307.05
646.647	302.37
647.061	339.82
647.475	297.69
647.889	295.35
648.303	309.39
648.717	302.37
649.131	302.37
649.545	300.03
649.958	307.05
650.372	276.62
650.785	339.82
651.199	311.73
651.612	328.11
652.026	346.84
652.439	330.45
652.852	288.32
653.266	339.82
653.679	295.35
654.092	342.16
654.505	278.96
654.918	342.16
655.331	274.28
655.744	297.69
656.156	377.27
656.569	300.03
656.982	307.05
657.394	302.37
657.807	323.43
658.22	278.96
658.632	318.75
659.044	304.71
659.457	335.14
659.869	367.9
660.281	248.54
660.693	323.43
661.106	274.28
661.518	318.75
661.93	325.77
662.342	293.01
662.754	307.05
663.165	339.82
663.577	285.98
663.989	328.11
664.401	316.41
664.812	271.94
665.224	391.31
665.635	321.09
666.047	346.84
666.458	365.56
666.869	360.88
667.281	318.75
667.692	293.01
668.103	384.29
668.514	281.3
668.925	330.45
669.336	187.68
669.747	264.92
670.158	356.2
670.569	304.71
670.979	311.73
671.39	337.48
671.801	372.58
672.211	351.52
672.622	278.96
673.032	325.77
673.443	257.9
673.853	342.16
674.263	325.77
674.674	267.26
675.084	346.84
675.494	297.69
675.904	335.14
676.314	346.84
676.724	321.09
677.134	323.43
677.544	253.22
677.953	365.56
678.363	328.11
678.773	339.82
679.182	302.37
679.592	332.79
680.001	309.39
680.411	262.58
680.82	321.09
681.23	297.69
681.639	335.14
682.048	290.67
682.457	356.2
682.866	358.54
683.275	300.03
683.684	356.2
684.093	342.16
684.502	346.84
684.911	274.28
685.32	300.03
685.728	304.71
686.137	349.18
686.546	290.67
686.954	321.09
687.363	304.71
687.771	311.73
688.179	358.54
688.588	370.24
688.996	386.63
689.404	330.45
689.812	307.05
690.22	297.69
690.628	288.32
691.036	311.73
691.444	325.77
691.852	332.79
692.26	271.94
692.667	346.84
693.075	335.14
693.483	356.2
693.89	321.09
694.298	248.54
694.705	332.79
695.112	328.11
695.52	318.75
695.927	335.14
696.334	269.6
696.741	293.01
697.148	346.84
697.555	262.58
697.962	300.03
698.369	290.67
698.776	321.09
699.183	314.07
699.59	332.79
699.996	314.07
700.403	309.39
700.81	405.35
701.216	349.18
701.623	232.15
702.029	293.01
702.435	318.75
702.842	283.64
703.248	255.56
703.654	304.71
704.06	330.45
704.466	342.16
704.872	339.82
705.278	353.86
705.684	321.09
706.09	307.05
706.496	288.32
706.901	246.2
707.307	328.11
707.712	283.64
708.118	314.07
708.523	332.79
708.929	344.5
709.334	332.79
709.74	410.03
710.145	335.14
710.55	381.95
710.955	346.84
711.36	283.64
711.765	323.43
712.17	337.48
712.575	332.79
712.98	758.77
713.385	297.69
713.789	325.77
714.194	304.71
714.599	316.41
715.003	342.16
715.408	328.11
715.812	318.75
716.217	325.77
716.621	304.71
717.025	297.69
717.429	295.35
717.833	370.24
718.238	290.67
718.642	321.09
719.046	243.85
719.449	386.63
719.853	372.58
720.257	351.52
720.661	311.73
721.065	328.11
721.468	288.32
721.872	267.26
722.275	363.22
722.679	339.82
723.082	267.26
723.485	243.85
723.889	339.82
724.292	267.26
724.695	325.77
725.098	339.82
725.501	304.71
725.904	344.5
726.307	358.54
726.71	318.75
727.113	269.6
727.516	335.14
727.918	304.71
728.321	349.18
728.724	332.79
729.126	267.26
729.529	356.2
729.931	325.77
730.333	349.18
730.736	288.32
731.138	297.69
731.54	314.07
731.942	318.75
732.344	363.22
732.746	356.2
733.148	271.94
733.55	325.77
733.952	300.03
734.354	281.3
734.756	290.67
735.157	271.94
735.559	323.43
735.96	300.03
736.362	332.79
736.763	323.43
737.165	304.71
737.566	321.09
737.967	309.39
738.368	339.82
738.77	246.2
739.171	297.69
739.572	307.05
739.973	300.03
740.374	307.05
740.774	269.6
741.175	346.84
741.576	257.9
741.977	328.11
742.377	328.11
742.778	290.67
743.178	300.03
743.579	307.05
743.979	300.03
744.379	360.88
744.78	384.29
745.18	323.43
745.58	337.48
745.98	295.35
746.38	297.69
746.78	314.07
747.18	269.6
747.58	421.74
747.98	325.77
748.38	285.98
748.779	255.56
749.179	290.67
749.578	346.84
749.978	337.48
750.377	255.56
750.777	316.41
751.176	356.2
751.575	398.33
751.975	318.75
752.374	307.05
752.773	271.94
753.172	314.07
753.571	381.95
753.97	304.71
754.369	351.52
754.768	267.26
755.166	358.54
755.565	285.98
755.964	330.45
756.362	325.77
756.761	283.64
757.159	283.64
757.558	330.45
757.956	335.14
758.354	323.43
758.753	302.37
759.151	283.64
759.549	307.05
759.947	328.11
760.345	269.6
760.743	335.14
761.141	316.41
761.539	370.24
761.936	304.71
762.334	300.03
762.732	342.16
763.129	328.11
763.527	283.64
763.924	381.95
764.322	337.48
764.719	325.77
765.117	314.07
765.514	222.79
765.911	290.67
766.308	314.07
766.705	351.52
767.102	297.69
767.499	300.03
767.896	285.98
768.293	302.37
768.69	236.83
769.086	314.07
769.483	300.03
769.88	307.05
770.276	339.82
770.673	274.28
771.069	363.22
771.466	356.2
771.862	351.52
772.258	274.28
772.654	321.09
773.05	318.75
773.447	342.16
773.843	283.64
774.239	325.77
774.634	325.77
775.03	300.03
775.426	377.27
775.822	335.14
776.218	314.07
776.613	300.03
777.009	314.07
777.404	264.92
777.8	290.67
778.195	321.09
778.59	304.71
778.986	316.41
779.381	367.9
779.776	328.11
780.171	321.09
780.566	269.6
780.961	285.98
781.356	321.09
781.751	332.79
782.146	344.5
782.54	356.2
782.935	278.96
783.33	302.37
783.724	349.18
784.119	314.07
784.513	346.84
784.908	351.52
785.302	330.45
785.696	283.64
786.09	363.22
786.485	271.94
786.879	260.24
787.273	316.41
787.667	316.41
788.061	346.84
788.454	295.35
788.848	323.43
789.242	276.62
789.636	285.98
790.029	318.75
790.423	358.54
790.816	349.18
791.21	377.27
791.603	274.28
791.997	351.52
792.39	311.73
792.783	358.54
793.176	311.73
793.569	307.05
793.962	278.96
794.355	302.37
794.748	236.83
795.141	311.73
795.534	295.35
795.927	346.84
796.319	288.32
796.712	325.77
797.105	311.73
797.497	264.92
797.89	285.98
798.282	234.49
798.674	295.35
799.067	278.96
799.459	307.05
799.851	311.73
800.243	318.75
800.635	325.77
801.027	337.48
801.419	356.2
801.811	353.86
802.203	295.35
802.594	304.71
802.986	346.84
803.378	323.43
803.769	267.26
804.161	250.88
804.552	330.45
804.944	304.71
805.335	283.64
805.726	367.9
806.118	285.98
806.509	339.82
806.9	367.9
807.291	278.96
807.682	283.64
808.073	260.24
808.464	307.05
808.855	353.86
809.245	365.56
809.636	321.09
810.027	290.67
810.417	318.75
810.808	285.98
811.198	314.07
811.589	232.15
811.979	290.67
812.369	300.03
812.759	260.24
813.15	372.58
813.54	281.3
813.93	323.43
814.32	346.84
814.71	281.3
815.1	281.3
815.489	356.2
815.879	311.73
816.269	262.58
816.658	332.79
817.048	271.94
817.438	314.07
817.827	278.96
818.216	360.88
818.606	269.6
818.995	262.58
819.384	297.69
819.773	314.07
820.163	353.86
820.552	295.35
820.941	257.9
821.33	337.48
821.718	297.69
822.107	318.75
822.496	311.73
822.885	353.86
823.273	318.75
823.662	304.71
824.05	337.48
824.439	283.64
824.827	262.58
825.216	295.35
825.604	283.64
825.992	229.81
826.38	274.28
826.768	304.71
827.156	311.73
827.544	269.6
827.932	274.28
828.32	218.11
828.708	297.69
829.096	255.56
829.483	262.58
829.871	297.69
830.259	321.09
830.646	332.79
831.034	321.09
831.421	337.48
831.808	356.2
832.196	344.5
832.583	344.5
832.97	367.9
833.357	342.16
833.744	267.26
834.131	337.48
834.518	304.71
834.905	353.86
835.292	316.41
835.678	325.77
836.065	351.52
836.452	325.77
836.838	356.2
837.225	300.03
837.611	309.39
837.998	302.37
838.384	318.75
838.77	300.03
839.157	304.71
839.543	248.54
839.929	339.82
840.315	285.98
840.701	248.54
841.087	307.05
841.473	339.82
841.858	293.01
842.244	302.37
842.63	311.73
843.015	262.58
843.401	564.51
843.787	307.05
844.172	283.64
844.557	349.18
844.943	300.03
845.328	269.6
845.713	220.45
846.098	307.05
846.483	321.09
846.868	300.03
847.253	300.03
847.638	335.14
848.023	323.43
848.408	311.73
848.793	271.94
849.177	318.75
849.562	379.61
849.947	260.24
850.331	353.86
850.715	314.07
851.1	365.56
851.484	311.73
851.868	309.39
852.253	304.71
852.637	255.56
853.021	262.58
853.405	241.51
853.789	267.26
854.173	278.96
854.557	297.69
854.94	295.35
855.324	304.71
855.708	353.86
856.091	276.62
856.475	360.88
856.858	321.09
857.242	335.14
857.625	314.07
858.009	297.69
858.392	325.77
858.775	269.6
859.158	300.03
859.541	297.69
859.924	314.07
860.307	257.9
860.69	323.43
861.073	309.39
861.456	356.2
861.838	367.9
862.221	325.77
862.604	307.05
862.986	300.03
863.369	309.39
863.751	255.56
864.133	328.11
864.516	309.39
864.898	309.39
865.28	360.88
865.662	377.27
866.044	309.39
866.426	323.43
866.808	356.2
867.19	330.45
867.572	278.96
867.954	346.84
868.336	255.56
868.717	332.79
869.099	274.28
869.48	295.35
869.862	379.61
870.243	241.51
870.625	269.6
871.006	335.14
871.387	208.75
871.768	316.41
872.149	388.97
872.53	356.2
872.911	328.11
873.292	264.92
873.673	276.62
874.054	339.82
874.435	309.39
874.815	300.03
875.196	321.09
875.577	293.01
875.957	264.92
876.338	253.22
876.718	318.75
877.098	293.01
877.479	302.37
877.859	344.5
878.239	290.67
878.619	276.62
878.999	330.45
879.379	321.09
879.759	295.35
880.139	356.2
880.519	293.01
880.898	302.37
881.278	297.69
881.658	325.77
882.037	314.07
882.417	330.45
882.796	246.2
883.176	267.26
883.555	356.2
883.934	358.54
884.313	321.09
884.693	302.37
885.072	246.2
885.451	290.67
885.83	293.01
886.209	297.69
886.587	321.09
886.966	307.05
887.345	360.88
887.724	255.56
888.102	300.03
888.481	283.64
888.859	300.03
889.238	288.32
889.616	297.69
889.994	351.52
890.373	288.32
890.751	332.79
891.129	295.35
891.507	300.03
891.885	349.18
892.263	328.11
892.641	288.32
893.019	302.37
893.396	337.48
893.774	330.45
894.152	328.11
894.529	248.54
894.907	236.83
895.284	398.33
895.662	339.82
896.039	328.11
896.416	213.43
896.794	297.69
897.171	321.09
897.548	325.77
897.925	257.9
898.302	379.61
898.679	309.39
899.056	255.56
899.433	318.75
899.809	260.24
900.186	278.96
900.563	276.62
900.939	325.77
901.316	253.22
901.692	328.11
902.069	314.07
902.445	293.01
902.821	295.35
903.197	281.3
903.574	285.98
903.95	307.05
904.326	349.18
904.702	349.18
905.078	323.43
905.454	321.09
905.829	328.11
906.205	321.09
906.581	325.77
906.956	344.5
907.332	353.86
907.707	285.98
908.083	241.51
908.458	314.07
908.833	267.26
909.209	300.03
909.584	344.5
909.959	248.54
910.334	321.09
910.709	293.01
911.084	323.43
911.459	332.79
911.834	288.32
912.209	330.45
912.583	330.45
912.958	297.69
913.333	255.56
913.707	346.84
914.082	339.82
914.456	278.96
914.83	285.98
915.205	307.05
915.579	220.45
915.953	274.28
916.327	262.58
916.701	377.27
917.075	309.39
917.449	288.32
917.823	293.01
918.197	309.39
918.571	311.73
918.944	370.24
919.318	290.67
919.692	335.14
920.065	220.45
920.438	297.69
920.812	260.24
921.185	253.22
921.558	346.84
921.932	358.54
922.305	342.16
922.678	332.79
923.051	351.52
923.424	314.07
923.797	293.01
924.17	344.5
924.542	307.05
924.915	325.77
925.288	274.28
925.661	353.86
926.033	309.39
926.406	290.67
926.778	267.26
927.15	307.05
927.523	328.11
927.895	314.07
928.267	318.75
928.639	297.69
929.011	328.11
929.383	248.54
929.755	316.41
930.127	257.9
930.499	276.62
930.871	379.61
931.242	288.32
931.614	309.39
931.986	297.69
932.357	367.9
932.729	321.09
933.1	304.71
933.471	314.07
933.843	328.11
934.214	269.6
934.585	321.09
934.956	302.37
935.327	316.41
935.698	300.03
936.069	328.11
936.44	335.14
936.811	335.14
937.182	323.43
937.552	304.71
937.923	337.48
938.293	314.07
938.664	328.11
939.034	386.63
939.405	283.64
939.775	360.88
940.145	339.82
940.516	342.16
940.886	339.82
941.256	321.09
941.626	316.41
941.996	367.9
942.366	311.73
942.735	316.41
943.105	349.18
943.475	374.92
943.845	264.92
944.214	283.64
944.584	300.03
944.953	353.86
945.323	342.16
945.692	349.18
946.061	335.14
946.43	318.75
946.8	314.07
947.169	264.92
947.538	335.14
947.907	276.62
948.276	309.39
948.645	288.32
949.013	325.77
949.382	318.75
949.751	293.01
950.119	337.48
950.488	290.67
950.857	300.03
951.225	253.22
951.593	302.37
951.962	332.79
952.33	356.2
952.698	346.84
953.066	314.07
953.434	297.69
953.802	321.09
954.17	281.3
954.538	342.16
954.906	344.5
955.274	323.43
955.642	325.77
956.009	346.84
956.377	330.45
956.744	300.03
957.112	395.99
957.479	328.11
957.847	370.24
958.214	288.32
958.581	374.92
958.948	311.73
959.315	309.39
959.683	358.54
960.05	332.79
960.416	262.58
960.783	264.92
961.15	328.11
961.517	325.77
961.884	293.01
962.25	314.07
962.617	293.01
962.983	295.35
963.35	323.43
963.716	236.83
964.082	288.32
964.449	316.41
964.815	297.69
965.181	330.45
965.547	302.37
965.913	332.79
966.279	285.98
966.645	262.58
967.011	307.05
967.377	307.05
967.742	321.09
968.108	400.67
968.474	365.56
968.839	309.39
969.205	285.98
969.57	353.86
969.935	318.75
970.301	304.71
970.666	351.52
971.031	316.41
971.396	262.58
971.761	253.22
972.126	302.37
972.491	311.73
972.856	304.71
973.221	285.98
973.586	295.35
973.95	321.09
974.315	307.05
974.679	302.37
975.044	311.73
975.408	293.01
975.773	321.09
976.137	271.94
976.501	325.77
976.866	227.47
977.23	311.73
977.594	288.32
977.958	300.03
978.322	281.3
978.686	302.37
979.049	344.5
979.413	314.07
979.777	285.98
980.141	323.43
980.504	274.28
980.868	239.17
981.231	307.05
981.595	344.5
981.958	307.05
982.321	302.37
982.684	316.41
983.048	365.56
983.411	285.98
983.774	318.75
984.137	321.09
984.5	276.62
984.862	271.94
985.225	330.45
985.588	271.94
985.951	283.64
986.313	246.2
986.676	295.35
987.038	260.24
987.401	314.07
987.763	260.24
988.125	395.99
988.488	307.05
988.85	365.56
989.212	321.09
989.574	239.17
989.936	321.09
990.298	332.79
990.66	328.11
991.022	325.77
991.383	278.96
991.745	335.14
992.107	321.09
992.468	243.85
992.83	318.75
993.191	318.75
993.553	323.43
993.914	274.28
994.275	309.39
994.637	417.05
994.998	295.35
995.359	325.77
995.72	302.37
996.081	332.79
996.442	283.64
996.803	269.6
997.163	318.75
997.524	311.73
997.885	367.9
998.245	307.05
998.606	276.62
998.966	276.62
999.327	302.37
999.687	269.6
1000.047	295.35
1000.408	297.69
1000.768	316.41
1001.128	349.18
1001.488	398.33
1001.848	302.37
1002.208	328.11
1002.568	346.84
1002.927	344.5
1003.287	297.69
1003.647	353.86
1004.007	281.3
1004.366	276.62
1004.726	295.35
1005.085	379.61
1005.444	281.3
1005.804	257.9
1006.163	260.24
1006.522	278.96
1006.881	269.6
1007.24	304.71
1007.599	330.45
1007.958	337.48
1008.317	276.62
1008.676	309.39
1009.035	335.14
1009.393	377.27
1009.752	257.9
1010.111	339.82
1010.469	295.35
1010.828	285.98
1011.186	297.69
1011.544	353.86
1011.903	297.69
1012.261	321.09
1012.619	293.01
1012.977	257.9
1013.335	323.43
1013.693	309.39
1014.051	302.37
1014.409	325.77
1014.767	330.45
1015.124	283.64
1015.482	304.71
1015.84	316.41
1016.197	328.11
1016.555	246.2
1016.912	363.22
1017.269	316.41
1017.627	332.79
1017.984	314.07
1018.341	316.41
1018.698	253.22
1019.055	295.35
1019.412	321.09
1019.769	339.82
1020.126	351.52
1020.483	360.88
1020.84	283.64
1021.196	316.41
1021.553	274.28
1021.909	307.05
1022.266	311.73
1022.622	367.9
1022.979	262.58
1023.335	339.82
1023.691	304.71
1024.047	274.28
1024.404	325.77
1024.76	365.56
1025.116	260.24
1025.472	372.58
1025.827	302.37
1026.183	328.11
1026.539	295.35
1026.895	356.2
1027.25	351.52
1027.606	311.73
1027.961	300.03
1028.317	316.41
1028.672	300.03
1029.028	274.28
1029.383	353.86
1029.738	323.43
1030.093	323.43
1030.448	215.77
1030.803	297.69
1031.158	281.3
1031.513	363.22
1031.868	321.09
1032.223	276.62
1032.577	295.35
1032.932	285.98
1033.287	318.75
1033.641	321.09
1033.996	353.86
1034.35	339.82
1034.704	311.73
1035.059	426.42
1035.413	325.77
1035.767	325.77
1036.121	325.77
