Data from Al_FLMS009871__594__14-46-41-116.txt Node

Date: Fri Mar 08 14:46:41 CST 2024
User: pe5414po
Spectrometer: FLMS00987
Trigger mode: 0
Integration Time (sec): 1.000000E-1
Scans to average: 1
Electric dark correction enabled: true
Nonlinearity correction enabled: false
Boxcar width: 0
XAxis mode: Wavelengths
Number of Pixels in Spectrum: 2048
>>>>>Begin Spectral Data<<<<<
188.938	-29.11
189.409	-29.11
189.879	-29.11
190.349	-122.73
190.819	-96.99
191.29	-96.99
191.76	-127.41
192.23	-33.79
192.7	-59.54
193.17	-115.71
193.64	-31.45
194.109	-29.11
194.579	-61.88
195.049	-31.45
195.519	24.72
195.988	71.53
196.458	132.39
196.927	78.55
197.397	24.72
197.866	151.11
198.336	104.3
198.805	158.13
199.274	134.73
199.744	141.75
200.213	242.39
200.682	153.45
201.151	221.33
201.62	223.67
202.089	279.84
202.558	193.24
203.027	284.52
203.495	240.05
203.964	268.14
204.433	319.63
204.902	268.14
205.37	275.16
205.839	235.37
206.307	380.48
206.776	279.84
207.244	268.14
207.712	256.43
208.181	331.33
208.649	291.54
209.117	338.35
209.585	244.73
210.053	312.61
210.521	218.99
210.989	284.52
211.457	261.12
211.925	275.16
212.393	326.65
212.861	293.88
213.328	261.12
213.796	310.27
214.264	321.97
214.731	300.91
215.199	256.43
215.666	193.24
216.133	256.43
216.601	265.8
217.068	307.93
217.535	233.03
218.003	277.5
218.47	195.58
218.937	242.39
219.404	226.01
219.871	263.46
220.338	235.37
220.805	226.01
221.271	254.09
221.738	214.31
222.205	275.16
222.671	251.75
223.138	317.29
223.605	214.31
224.071	240.05
224.538	190.9
225.004	258.78
225.47	263.46
225.937	240.05
226.403	254.09
226.869	275.16
227.335	272.82
227.801	261.12
228.267	314.95
228.733	275.16
229.199	200.26
229.665	270.48
230.131	361.76
230.597	258.78
231.062	209.62
231.528	265.8
231.994	314.95
232.459	226.01
232.925	258.78
233.39	265.8
233.856	307.93
234.321	272.82
234.786	242.39
235.252	188.56
235.717	326.65
236.182	240.05
236.647	251.75
237.112	291.54
237.577	214.31
238.042	268.14
238.507	277.5
238.972	263.46
239.436	270.48
239.901	300.91
240.366	314.95
240.83	286.86
241.295	307.93
241.76	249.41
242.224	312.61
242.688	300.91
243.153	268.14
243.617	193.24
244.081	258.78
244.545	289.2
245.01	307.93
245.474	230.69
245.938	324.31
246.402	272.82
246.866	249.41
247.33	277.5
247.793	272.82
248.257	207.28
248.721	233.03
249.185	230.69
249.648	263.46
250.112	261.12
250.575	167.49
251.039	310.27
251.502	324.31
251.965	265.8
252.429	268.14
252.892	221.33
253.355	284.52
253.818	258.78
254.281	251.75
254.744	235.37
255.207	282.18
255.67	275.16
256.133	235.37
256.596	240.05
257.059	275.16
257.522	312.61
257.984	247.07
258.447	270.48
258.909	282.18
259.372	242.39
259.834	265.8
260.297	331.33
260.759	300.91
261.221	247.07
261.684	310.27
262.146	289.2
262.608	307.93
263.07	284.52
263.532	293.88
263.994	256.43
264.456	263.46
264.918	216.65
265.38	279.84
265.842	317.29
266.303	331.33
266.765	261.12
267.227	303.25
267.688	291.54
268.15	296.22
268.611	270.48
269.072	282.18
269.534	251.75
269.995	298.56
270.456	310.27
270.918	268.14
271.379	218.99
271.84	235.37
272.301	277.5
272.762	223.67
273.223	282.18
273.684	261.12
274.144	289.2
274.605	272.82
275.066	338.35
275.527	307.93
275.987	286.86
276.448	263.46
276.908	321.97
277.369	279.84
277.829	254.09
278.289	328.99
278.75	317.29
279.21	340.69
279.67	300.91
280.13	340.69
280.59	321.97
281.05	319.63
281.51	307.93
281.97	247.07
282.43	284.52
282.89	223.67
283.35	200.26
283.809	272.82
284.269	256.43
284.729	321.97
285.188	314.95
285.648	228.35
286.107	261.12
286.567	284.52
287.026	279.84
287.485	291.54
287.944	247.07
288.404	347.72
288.863	350.06
289.322	291.54
289.781	293.88
290.24	251.75
290.699	303.25
291.158	275.16
291.616	270.48
292.075	247.07
292.534	291.54
292.992	237.71
293.451	256.43
293.91	328.99
294.368	270.48
294.827	359.42
295.285	261.12
295.743	247.07
296.202	298.56
296.66	305.59
297.118	317.29
297.576	258.78
298.034	265.8
298.492	230.69
298.95	338.35
299.408	282.18
299.866	291.54
300.324	270.48
300.781	319.63
301.239	275.16
301.697	293.88
302.154	293.88
302.612	310.27
303.069	298.56
303.527	293.88
303.984	321.97
304.441	354.74
304.899	265.8
305.356	277.5
305.813	289.2
306.27	279.84
306.727	254.09
307.184	336.01
307.641	272.82
308.098	249.41
308.555	319.63
309.012	270.48
309.468	291.54
309.925	317.29
310.382	324.31
310.838	284.52
311.295	244.73
311.751	326.65
312.208	282.18
312.664	300.91
313.12	307.93
313.577	218.99
314.033	310.27
314.489	321.97
314.945	331.33
315.401	314.95
315.857	256.43
316.313	270.48
316.769	336.01
317.225	331.33
317.681	314.95
318.136	326.65
318.592	296.22
319.048	286.86
319.503	251.75
319.959	333.67
320.414	282.18
320.869	282.18
321.325	305.59
321.78	263.46
322.235	319.63
322.691	331.33
323.146	303.25
323.601	328.99
324.056	350.06
324.511	261.12
324.966	321.97
325.421	326.65
325.875	350.06
326.33	336.01
326.785	328.99
327.24	275.16
327.694	254.09
328.149	265.8
328.603	268.14
329.058	359.42
329.512	312.61
329.966	321.97
330.421	373.46
330.875	305.59
331.329	293.88
331.783	331.33
332.237	228.35
332.691	333.67
333.145	338.35
333.599	228.35
334.053	312.61
334.507	298.56
334.96	291.54
335.414	279.84
335.868	373.46
336.321	279.84
336.775	286.86
337.228	293.88
337.682	305.59
338.135	338.35
338.588	324.31
339.042	319.63
339.495	312.61
339.948	314.95
340.401	336.01
340.854	286.86
341.307	293.88
341.76	345.38
342.213	305.59
342.666	296.22
343.119	291.54
343.571	378.14
344.024	324.31
344.477	277.5
344.929	254.09
345.382	345.38
345.834	340.69
346.287	333.67
346.739	282.18
347.191	345.38
347.644	347.72
348.096	336.01
348.548	230.69
349	279.84
349.452	300.91
349.904	331.33
350.356	305.59
350.808	361.76
351.26	305.59
351.711	265.8
352.163	256.43
352.615	286.86
353.066	343.03
353.518	324.31
353.969	275.16
354.421	317.29
354.872	328.99
355.324	263.46
355.775	305.59
356.226	326.65
356.677	314.95
357.128	298.56
357.579	336.01
358.03	343.03
358.481	319.63
358.932	286.86
359.383	277.5
359.834	314.95
360.285	328.99
360.735	298.56
361.186	333.67
361.637	343.03
362.087	343.03
362.538	218.99
362.988	314.95
363.438	240.05
363.889	277.5
364.339	263.46
364.789	345.38
365.239	310.27
365.689	291.54
366.139	314.95
366.589	270.48
367.039	347.72
367.489	312.61
367.939	293.88
368.389	296.22
368.839	310.27
369.288	237.71
369.738	289.2
370.187	392.19
370.637	291.54
371.086	303.25
371.536	279.84
371.985	263.46
372.434	230.69
372.884	293.88
373.333	275.16
373.782	296.22
374.231	364.1
374.68	338.35
375.129	261.12
375.578	331.33
376.027	272.82
376.475	314.95
376.924	312.61
377.373	314.95
377.822	345.38
378.27	242.39
378.719	328.99
379.167	359.42
379.616	328.99
380.064	305.59
380.512	282.18
380.961	336.01
381.409	284.52
381.857	275.16
382.305	314.95
382.753	298.56
383.201	319.63
383.649	350.06
384.097	336.01
384.545	263.46
384.992	282.18
385.44	326.65
385.888	321.97
386.335	319.63
386.783	303.25
387.231	251.75
387.678	319.63
388.125	298.56
388.573	279.84
389.02	326.65
389.467	277.5
389.914	261.12
390.362	300.91
390.809	343.03
391.256	314.95
391.703	328.99
392.15	282.18
392.596	317.29
393.043	338.35
393.49	361.76
393.937	265.8
394.383	265.8
394.83	282.18
395.276	340.69
395.723	310.27
396.169	284.52
396.616	289.2
397.062	307.93
397.508	321.97
397.954	307.93
398.401	312.61
398.847	305.59
399.293	291.54
399.739	256.43
400.185	324.31
400.631	293.88
401.076	282.18
401.522	387.5
401.968	242.39
402.414	310.27
402.859	312.61
403.305	307.93
403.75	364.1
404.196	328.99
404.641	336.01
405.086	256.43
405.532	328.99
405.977	272.82
406.422	261.12
406.867	343.03
407.312	284.52
407.757	303.25
408.202	289.2
408.647	343.03
409.092	258.78
409.537	350.06
409.982	256.43
410.426	291.54
410.871	357.08
411.316	286.86
411.76	307.93
412.205	284.52
412.649	293.88
413.093	284.52
413.538	296.22
413.982	310.27
414.426	331.33
414.87	392.19
415.314	350.06
415.758	258.78
416.202	298.56
416.646	317.29
417.09	310.27
417.534	373.46
417.978	347.72
418.421	324.31
418.865	314.95
419.309	298.56
419.752	268.14
420.196	251.75
420.639	300.91
421.083	296.22
421.526	296.22
421.969	347.72
422.412	352.4
422.856	317.29
423.299	305.59
423.742	319.63
424.185	312.61
424.628	319.63
425.071	338.35
425.513	343.03
425.956	293.88
426.399	289.2
426.842	251.75
427.284	218.99
427.727	333.67
428.169	298.56
428.612	357.08
429.054	352.4
429.497	293.88
429.939	235.37
430.381	324.31
430.823	321.97
431.265	319.63
431.707	331.33
432.149	378.14
432.591	338.35
433.033	307.93
433.475	289.2
433.917	317.29
434.359	261.12
434.8	340.69
435.242	277.5
435.684	291.54
436.125	286.86
436.567	300.91
437.008	331.33
437.449	310.27
437.891	284.52
438.332	319.63
438.773	331.33
439.214	364.1
439.656	303.25
440.097	284.52
440.538	284.52
440.978	293.88
441.419	324.31
441.86	275.16
442.301	293.88
442.742	317.29
443.182	279.84
443.623	314.95
444.063	312.61
444.504	298.56
444.944	282.18
445.385	343.03
445.825	286.86
446.265	364.1
446.706	179.2
447.146	373.46
447.586	319.63
448.026	282.18
448.466	357.08
448.906	326.65
449.346	310.27
449.786	275.16
450.225	298.56
450.665	284.52
451.105	380.48
451.544	331.33
451.984	321.97
452.424	319.63
452.863	345.38
453.302	240.05
453.742	233.03
454.181	331.33
454.62	317.29
455.059	305.59
455.499	282.18
455.938	305.59
456.377	307.93
456.816	310.27
457.254	296.22
457.693	321.97
458.132	352.4
458.571	333.67
459.01	331.33
459.448	300.91
459.887	256.43
460.325	291.54
460.764	314.95
461.202	317.29
461.641	312.61
462.079	336.01
462.517	270.48
462.955	258.78
463.393	305.59
463.832	354.74
464.27	300.91
464.708	357.08
465.145	338.35
465.583	338.35
466.021	328.99
466.459	424.95
466.897	321.97
467.334	326.65
467.772	307.93
468.209	303.25
468.647	312.61
469.084	298.56
469.522	296.22
469.959	254.09
470.396	279.84
470.833	270.48
471.271	310.27
471.708	357.08
472.145	359.42
472.582	361.76
473.019	366.44
473.456	247.07
473.892	298.56
474.329	326.65
474.766	333.67
475.202	256.43
475.639	303.25
476.076	338.35
476.512	375.8
476.949	305.59
477.385	307.93
477.821	340.69
478.258	289.2
478.694	284.52
479.13	286.86
479.566	328.99
480.002	396.87
480.438	272.82
480.874	321.97
481.31	268.14
481.746	298.56
482.181	354.74
482.617	284.52
483.053	340.69
483.488	272.82
483.924	286.86
484.36	333.67
484.795	354.74
485.23	307.93
485.666	298.56
486.101	282.18
486.536	333.67
486.971	324.31
487.407	319.63
487.842	310.27
488.277	317.29
488.712	240.05
489.146	399.21
489.581	284.52
490.016	279.84
490.451	291.54
490.885	286.86
491.32	380.48
491.755	242.39
492.189	324.31
492.624	279.84
493.058	333.67
493.492	352.4
493.927	361.76
494.361	333.67
494.795	347.72
495.229	310.27
495.663	343.03
496.097	347.72
496.531	282.18
496.965	303.25
497.399	307.93
497.833	300.91
498.266	326.65
498.7	261.12
499.134	392.19
499.567	357.08
500.001	354.74
500.434	221.33
500.868	282.18
501.301	333.67
501.734	350.06
502.168	310.27
502.601	244.73
503.034	293.88
503.467	300.91
503.9	275.16
504.333	336.01
504.766	307.93
505.199	312.61
505.632	321.97
506.064	293.88
506.497	343.03
506.93	314.95
507.362	350.06
507.795	336.01
508.227	331.33
508.66	324.31
509.092	286.86
509.524	275.16
509.956	282.18
510.389	368.78
510.821	272.82
511.253	296.22
511.685	284.52
512.117	298.56
512.549	275.16
512.981	359.42
513.412	291.54
513.844	326.65
514.276	333.67
514.707	256.43
515.139	336.01
515.571	354.74
516.002	389.85
516.433	333.67
516.865	293.88
517.296	291.54
517.727	324.31
518.159	324.31
518.59	291.54
519.021	284.52
519.452	364.1
519.883	333.67
520.314	310.27
520.744	317.29
521.175	293.88
521.606	277.5
522.037	352.4
522.467	321.97
522.898	352.4
523.328	298.56
523.759	314.95
524.189	291.54
524.62	284.52
525.05	319.63
525.48	258.78
525.91	300.91
526.341	336.01
526.771	317.29
527.201	359.42
527.631	314.95
528.061	237.71
528.49	314.95
528.92	319.63
529.35	298.56
529.78	263.46
530.209	331.33
530.639	314.95
531.068	364.1
531.498	300.91
531.927	247.07
532.357	209.62
532.786	300.91
533.215	305.59
533.644	233.03
534.074	326.65
534.503	261.12
534.932	242.39
535.361	272.82
535.79	343.03
536.218	319.63
536.647	310.27
537.076	319.63
537.505	307.93
537.933	333.67
538.362	326.65
538.79	307.93
539.219	326.65
539.647	282.18
540.076	300.91
540.504	268.14
540.932	328.99
541.36	305.59
541.788	261.12
542.217	331.33
542.645	333.67
543.073	289.2
543.5	314.95
543.928	375.8
544.356	331.33
544.784	343.03
545.211	272.82
545.639	286.86
546.067	284.52
546.494	364.1
546.922	305.59
547.349	345.38
547.776	258.78
548.204	331.33
548.631	310.27
549.058	314.95
549.485	305.59
549.912	357.08
550.339	275.16
550.766	270.48
551.193	319.63
551.62	282.18
552.047	256.43
552.474	284.52
552.9	296.22
553.327	364.1
553.754	307.93
554.18	359.42
554.607	284.52
555.033	296.22
555.459	249.41
555.886	296.22
556.312	275.16
556.738	326.65
557.164	272.82
557.59	324.31
558.016	333.67
558.442	387.5
558.868	333.67
559.294	321.97
559.72	389.85
560.145	272.82
560.571	359.42
560.997	300.91
561.422	242.39
561.848	328.99
562.273	326.65
562.699	307.93
563.124	289.2
563.549	305.59
563.974	326.65
564.4	328.99
564.825	352.4
565.25	314.95
565.675	296.22
566.1	357.08
566.525	317.29
566.95	333.67
567.374	300.91
567.799	385.16
568.224	284.52
568.648	314.95
569.073	343.03
569.497	364.1
569.922	303.25
570.346	354.74
570.771	286.86
571.195	357.08
571.619	286.86
572.043	275.16
572.467	305.59
572.891	319.63
573.315	331.33
573.739	277.5
574.163	275.16
574.587	319.63
575.011	279.84
575.435	289.2
575.858	282.18
576.282	284.52
576.705	256.43
577.129	343.03
577.552	268.14
577.976	279.84
578.399	317.29
578.822	307.93
579.245	324.31
579.669	300.91
580.092	291.54
580.515	375.8
580.938	328.99
581.361	380.48
581.784	298.56
582.206	298.56
582.629	368.78
583.052	340.69
583.474	291.54
583.897	328.99
584.32	282.18
584.742	373.46
585.165	321.97
585.587	251.75
586.009	336.01
586.431	354.74
586.854	324.31
587.276	354.74
587.698	310.27
588.12	328.99
588.542	272.82
588.964	352.4
589.386	352.4
589.807	298.56
590.229	340.69
590.651	354.74
591.073	361.76
591.494	371.12
591.916	277.5
592.337	289.2
592.759	277.5
593.18	385.16
593.601	310.27
594.022	352.4
594.444	300.91
594.865	296.22
595.286	275.16
595.707	345.38
596.128	328.99
596.549	340.69
596.97	277.5
597.39	392.19
597.811	305.59
598.232	307.93
598.652	345.38
599.073	324.31
599.494	305.59
599.914	310.27
600.334	244.73
600.755	380.48
601.175	291.54
601.595	300.91
602.015	303.25
602.436	298.56
602.856	483.47
603.276	321.97
603.696	350.06
604.115	336.01
604.535	249.41
604.955	361.76
605.375	345.38
605.794	321.97
606.214	310.27
606.634	258.78
607.053	305.59
607.473	291.54
607.892	312.61
608.311	340.69
608.731	300.91
609.15	333.67
609.569	298.56
609.988	378.14
610.407	340.69
610.826	321.97
611.245	361.76
611.664	277.5
612.083	326.65
612.501	247.07
612.92	336.01
613.339	291.54
613.757	352.4
614.176	314.95
614.594	293.88
615.013	343.03
615.431	298.56
615.85	254.09
616.268	333.67
616.686	275.16
617.104	314.95
617.522	352.4
617.94	359.42
618.358	324.31
618.776	298.56
619.194	328.99
619.612	296.22
620.03	261.12
620.447	371.12
620.865	277.5
621.282	298.56
621.7	286.86
622.117	291.54
622.535	314.95
622.952	268.14
623.369	310.27
623.787	291.54
624.204	321.97
624.621	244.73
625.038	338.35
625.455	415.59
625.872	326.65
626.289	336.01
626.706	256.43
627.123	293.88
627.539	312.61
627.956	328.99
628.373	319.63
628.789	340.69
629.206	312.61
629.622	326.65
630.038	312.61
630.455	293.88
630.871	247.07
631.287	270.48
631.703	319.63
632.12	340.69
632.536	350.06
632.952	307.93
633.368	361.76
633.783	293.88
634.199	284.52
634.615	247.07
635.031	249.41
635.446	277.5
635.862	340.69
636.277	392.19
636.693	270.48
637.108	254.09
637.524	338.35
637.939	321.97
638.354	338.35
638.77	314.95
639.185	293.88
639.6	303.25
640.015	336.01
640.43	298.56
640.845	319.63
641.259	293.88
641.674	289.2
642.089	286.86
642.504	249.41
642.918	340.69
643.333	251.75
643.747	268.14
644.162	268.14
644.576	305.59
644.991	275.16
645.405	282.18
645.819	403.89
646.233	338.35
646.647	352.4
647.061	279.84
647.475	387.5
647.889	233.03
648.303	321.97
648.717	300.91
649.131	338.35
649.545	307.93
649.958	272.82
650.372	336.01
650.785	331.33
651.199	307.93
651.612	314.95
652.026	317.29
652.439	357.08
652.852	331.33
653.266	296.22
653.679	319.63
654.092	305.59
654.505	345.38
654.918	326.65
655.331	347.72
655.744	289.2
656.156	296.22
656.569	310.27
656.982	272.82
657.394	261.12
657.807	300.91
658.22	343.03
658.632	345.38
659.044	303.25
659.457	296.22
659.869	326.65
660.281	305.59
660.693	347.72
661.106	270.48
661.518	314.95
661.93	361.76
662.342	328.99
662.754	303.25
663.165	343.03
663.577	310.27
663.989	305.59
664.401	326.65
664.812	321.97
665.224	366.44
665.635	368.78
666.047	361.76
666.458	357.08
666.869	275.16
667.281	279.84
667.692	340.69
668.103	282.18
668.514	303.25
668.925	284.52
669.336	343.03
669.747	298.56
670.158	247.07
670.569	293.88
670.979	307.93
671.39	314.95
671.801	258.78
672.211	312.61
672.622	284.52
673.032	333.67
673.443	328.99
673.853	254.09
674.263	289.2
674.674	289.2
675.084	305.59
675.494	303.25
675.904	321.97
676.314	319.63
676.724	235.37
677.134	319.63
677.544	307.93
677.953	312.61
678.363	298.56
678.773	298.56
679.182	406.23
679.592	324.31
680.001	284.52
680.411	305.59
680.82	296.22
681.23	317.29
681.639	277.5
682.048	303.25
682.457	366.44
682.866	338.35
683.275	300.91
683.684	343.03
684.093	307.93
684.502	242.39
684.911	364.1
685.32	298.56
685.728	254.09
686.137	319.63
686.546	277.5
686.954	310.27
687.363	333.67
687.771	359.42
688.179	312.61
688.588	263.46
688.996	336.01
689.404	258.78
689.812	293.88
690.22	326.65
690.628	321.97
691.036	277.5
691.444	305.59
691.852	364.1
692.26	366.44
692.667	326.65
693.075	277.5
693.483	333.67
693.89	254.09
694.298	350.06
694.705	343.03
695.112	343.03
695.52	291.54
695.927	265.8
696.334	270.48
696.741	371.12
697.148	254.09
697.555	298.56
697.962	336.01
698.369	333.67
698.776	310.27
699.183	293.88
699.59	324.31
699.996	296.22
700.403	310.27
700.81	345.38
701.216	279.84
701.623	319.63
702.029	272.82
702.435	298.56
702.842	305.59
703.248	324.31
703.654	303.25
704.06	326.65
704.466	291.54
704.872	286.86
705.278	291.54
705.684	270.48
706.09	347.72
706.496	359.42
706.901	338.35
707.307	298.56
707.712	333.67
708.118	345.38
708.523	331.33
708.929	345.38
709.334	328.99
709.74	244.73
710.145	328.99
710.55	265.8
710.955	343.03
711.36	331.33
711.765	242.39
712.17	345.38
712.575	326.65
712.98	740.93
713.385	289.2
713.789	258.78
714.194	305.59
714.599	333.67
715.003	326.65
715.408	310.27
715.812	286.86
716.217	268.14
716.621	296.22
717.025	343.03
717.429	298.56
717.833	254.09
718.238	352.4
718.642	385.16
719.046	399.21
719.449	385.16
719.853	279.84
720.257	291.54
720.661	270.48
721.065	347.72
721.468	289.2
721.872	258.78
722.275	368.78
722.679	366.44
723.082	336.01
723.485	300.91
723.889	338.35
724.292	298.56
724.695	275.16
725.098	338.35
725.501	326.65
725.904	303.25
726.307	272.82
726.71	317.29
727.113	321.97
727.516	305.59
727.918	317.29
728.321	354.74
728.724	277.5
729.126	326.65
729.529	305.59
729.931	305.59
730.333	268.14
730.736	310.27
731.138	291.54
731.54	305.59
731.942	282.18
732.344	328.99
732.746	321.97
733.148	303.25
733.55	366.44
733.952	321.97
734.354	359.42
734.756	275.16
735.157	265.8
735.559	247.07
735.96	321.97
736.362	270.48
736.763	293.88
737.165	289.2
737.566	275.16
737.967	321.97
738.368	319.63
738.77	284.52
739.171	338.35
739.572	317.29
739.973	345.38
740.374	340.69
740.774	293.88
741.175	284.52
741.576	296.22
741.977	422.61
742.377	265.8
742.778	303.25
743.178	247.07
743.579	338.35
743.979	303.25
744.379	293.88
744.78	340.69
745.18	289.2
745.58	359.42
745.98	336.01
746.38	298.56
746.78	340.69
747.18	296.22
747.58	359.42
747.98	357.08
748.38	324.31
748.779	307.93
749.179	310.27
749.578	354.74
749.978	317.29
750.377	305.59
750.777	291.54
751.176	359.42
751.575	333.67
751.975	300.91
752.374	338.35
752.773	265.8
753.172	275.16
753.571	272.82
753.97	298.56
754.369	275.16
754.768	317.29
755.166	247.07
755.565	228.35
755.964	291.54
756.362	289.2
756.761	291.54
757.159	312.61
757.558	336.01
757.956	312.61
758.354	300.91
758.753	331.33
759.151	298.56
759.549	277.5
759.947	307.93
760.345	265.8
760.743	293.88
761.141	310.27
761.539	343.03
761.936	282.18
762.334	312.61
762.732	373.46
763.129	275.16
763.527	286.86
763.924	270.48
764.322	331.33
764.719	324.31
765.117	364.1
765.514	366.44
765.911	272.82
766.308	303.25
766.705	310.27
767.102	310.27
767.499	261.12
767.896	279.84
768.293	270.48
768.69	279.84
769.086	279.84
769.483	305.59
769.88	371.12
770.276	343.03
770.673	347.72
771.069	338.35
771.466	338.35
771.862	272.82
772.258	333.67
772.654	293.88
773.05	350.06
773.447	293.88
773.843	293.88
774.239	328.99
774.634	326.65
775.03	261.12
775.426	312.61
775.822	378.14
776.218	298.56
776.613	389.85
777.009	277.5
777.404	303.25
777.8	256.43
778.195	310.27
778.59	319.63
778.986	300.91
779.381	289.2
779.776	279.84
780.171	298.56
780.566	275.16
780.961	251.75
781.356	300.91
781.751	272.82
782.146	249.41
782.54	303.25
782.935	254.09
783.33	326.65
783.724	298.56
784.119	300.91
784.513	279.84
784.908	265.8
785.302	314.95
785.696	305.59
786.09	326.65
786.485	324.31
786.879	307.93
787.273	357.08
787.667	272.82
788.061	408.57
788.454	361.76
788.848	314.95
789.242	354.74
789.636	331.33
790.029	352.4
790.423	319.63
790.816	263.46
791.21	272.82
791.603	303.25
791.997	291.54
792.39	317.29
792.783	293.88
793.176	321.97
793.569	279.84
793.962	336.01
794.355	244.73
794.748	289.2
795.141	331.33
795.534	300.91
795.927	361.76
796.319	317.29
796.712	300.91
797.105	364.1
797.497	242.39
797.89	282.18
798.282	286.86
798.674	228.35
799.067	333.67
799.459	300.91
799.851	336.01
800.243	254.09
800.635	293.88
801.027	324.31
801.419	303.25
801.811	291.54
802.203	284.52
802.594	289.2
802.986	366.44
803.378	237.71
803.769	186.22
804.161	293.88
804.552	347.72
804.944	326.65
805.335	331.33
805.726	347.72
806.118	303.25
806.509	303.25
806.9	300.91
807.291	336.01
807.682	326.65
808.073	364.1
808.464	326.65
808.855	279.84
809.245	366.44
809.636	310.27
810.027	282.18
810.417	282.18
810.808	305.59
811.198	279.84
811.589	331.33
811.979	321.97
812.369	321.97
812.759	357.08
813.15	216.65
813.54	321.97
813.93	368.78
814.32	312.61
814.71	317.29
815.1	312.61
815.489	256.43
815.879	298.56
816.269	270.48
816.658	324.31
817.048	247.07
817.438	312.61
817.827	296.22
818.216	249.41
818.606	296.22
818.995	350.06
819.384	270.48
819.773	258.78
820.163	347.72
820.552	343.03
820.941	336.01
821.33	244.73
821.718	310.27
822.107	303.25
822.496	347.72
822.885	235.37
823.273	326.65
823.662	265.8
824.05	368.78
824.439	312.61
824.827	317.29
825.216	324.31
825.604	270.48
825.992	317.29
826.38	368.78
826.768	286.86
827.156	352.4
827.544	296.22
827.932	310.27
828.32	303.25
828.708	328.99
829.096	357.08
829.483	347.72
829.871	321.97
830.259	345.38
830.646	279.84
831.034	321.97
831.421	368.78
831.808	317.29
832.196	338.35
832.583	319.63
832.97	289.2
833.357	354.74
833.744	296.22
834.131	317.29
834.518	312.61
834.905	230.69
835.292	291.54
835.678	254.09
836.065	296.22
836.452	270.48
836.838	277.5
837.225	242.39
837.611	312.61
837.998	385.16
838.384	357.08
838.77	286.86
839.157	314.95
839.543	331.33
839.929	270.48
840.315	275.16
840.701	300.91
841.087	403.89
841.473	247.07
841.858	296.22
842.244	336.01
842.63	359.42
843.015	326.65
843.401	556.02
843.787	343.03
844.172	328.99
844.557	265.8
844.943	305.59
845.328	354.74
845.713	300.91
846.098	317.29
846.483	336.01
846.868	314.95
847.253	230.69
847.638	336.01
848.023	347.72
848.408	328.99
848.793	333.67
849.177	328.99
849.562	361.76
849.947	368.78
850.331	270.48
850.715	258.78
851.1	293.88
851.484	328.99
851.868	307.93
852.253	296.22
852.637	333.67
853.021	331.33
853.405	284.52
853.789	240.05
854.173	319.63
854.557	310.27
854.94	331.33
855.324	345.38
855.708	310.27
856.091	331.33
856.475	317.29
856.858	326.65
857.242	263.46
857.625	284.52
858.009	289.2
858.392	324.31
858.775	324.31
859.158	265.8
859.541	312.61
859.924	314.95
860.307	291.54
860.69	305.59
861.073	298.56
861.456	317.29
861.838	296.22
862.221	303.25
862.604	272.82
862.986	263.46
863.369	343.03
863.751	324.31
864.133	293.88
864.516	331.33
864.898	256.43
865.28	314.95
865.662	291.54
866.044	298.56
866.426	265.8
866.808	336.01
867.19	277.5
867.572	336.01
867.954	352.4
868.336	275.16
868.717	319.63
869.099	324.31
869.48	300.91
869.862	258.78
870.243	303.25
870.625	251.75
871.006	286.86
871.387	298.56
871.768	240.05
872.149	261.12
872.53	282.18
872.911	333.67
873.292	333.67
873.673	389.85
874.054	291.54
874.435	261.12
874.815	286.86
875.196	296.22
875.577	310.27
875.957	289.2
876.338	347.72
876.718	268.14
877.098	258.78
877.479	284.52
877.859	347.72
878.239	298.56
878.619	333.67
878.999	314.95
879.379	312.61
879.759	336.01
880.139	300.91
880.519	263.46
880.898	305.59
881.278	340.69
881.658	291.54
882.037	270.48
882.417	326.65
882.796	310.27
883.176	247.07
883.555	307.93
883.934	296.22
884.313	328.99
884.693	233.03
885.072	279.84
885.451	272.82
885.83	300.91
886.209	261.12
886.587	328.99
886.966	352.4
887.345	298.56
887.724	242.39
888.102	282.18
888.481	298.56
888.859	300.91
889.238	300.91
889.616	282.18
889.994	321.97
890.373	291.54
890.751	354.74
891.129	265.8
891.507	279.84
891.885	359.42
892.263	373.46
892.641	300.91
893.019	284.52
893.396	413.25
893.774	265.8
894.152	277.5
894.529	265.8
894.907	312.61
895.284	270.48
895.662	340.69
896.039	296.22
896.416	279.84
896.794	265.8
897.171	268.14
897.548	293.88
897.925	314.95
898.302	272.82
898.679	303.25
899.056	230.69
899.433	293.88
899.809	286.86
900.186	307.93
900.563	279.84
900.939	305.59
901.316	284.52
901.692	258.78
902.069	282.18
902.445	314.95
902.821	291.54
903.197	284.52
903.574	300.91
903.95	284.52
904.326	380.48
904.702	293.88
905.078	331.33
905.454	303.25
905.829	382.82
906.205	249.41
906.581	364.1
906.956	284.52
907.332	312.61
907.707	310.27
908.083	324.31
908.458	347.72
908.833	251.75
909.209	265.8
909.584	279.84
909.959	375.8
910.334	373.46
910.709	286.86
911.084	307.93
911.459	244.73
911.834	317.29
912.209	300.91
912.583	333.67
912.958	328.99
913.333	303.25
913.707	268.14
914.082	364.1
914.456	352.4
914.83	289.2
915.205	307.93
915.579	286.86
915.953	286.86
916.327	352.4
916.701	282.18
917.075	296.22
917.449	258.78
917.823	305.59
918.197	296.22
918.571	307.93
918.944	319.63
919.318	277.5
919.692	221.33
920.065	291.54
920.438	333.67
920.812	270.48
921.185	343.03
921.558	310.27
921.932	321.97
922.305	277.5
922.678	296.22
923.051	282.18
923.424	284.52
923.797	265.8
924.17	263.46
924.542	347.72
924.915	298.56
925.288	312.61
925.661	293.88
926.033	298.56
926.406	293.88
926.778	319.63
927.15	326.65
927.523	284.52
927.895	338.35
928.267	293.88
928.639	265.8
929.011	319.63
929.383	345.38
929.755	364.1
930.127	279.84
930.499	256.43
930.871	317.29
931.242	197.92
931.614	249.41
931.986	296.22
932.357	321.97
932.729	291.54
933.1	279.84
933.471	319.63
933.843	319.63
934.214	293.88
934.585	303.25
934.956	235.37
935.327	350.06
935.698	312.61
936.069	312.61
936.44	307.93
936.811	256.43
937.182	284.52
937.552	307.93
937.923	307.93
938.293	361.76
938.664	392.19
939.034	331.33
939.405	380.48
939.775	277.5
940.145	254.09
940.516	319.63
940.886	289.2
941.256	338.35
941.626	357.08
941.996	359.42
942.366	289.2
942.735	291.54
943.105	265.8
943.475	312.61
943.845	312.61
944.214	319.63
944.584	298.56
944.953	284.52
945.323	284.52
945.692	293.88
946.061	326.65
946.43	305.59
946.8	190.9
947.169	279.84
947.538	312.61
947.907	291.54
948.276	300.91
948.645	251.75
949.013	338.35
949.382	321.97
949.751	312.61
950.119	270.48
950.488	258.78
950.857	293.88
951.225	303.25
951.593	354.74
951.962	282.18
952.33	338.35
952.698	214.31
953.066	284.52
953.434	319.63
953.802	354.74
954.17	345.38
954.538	352.4
954.906	340.69
955.274	303.25
955.642	296.22
956.009	263.46
956.377	296.22
956.744	298.56
957.112	312.61
957.479	254.09
957.847	289.2
958.214	305.59
958.581	268.14
958.948	256.43
959.315	289.2
959.683	291.54
960.05	235.37
960.416	263.46
960.783	312.61
961.15	300.91
961.517	293.88
961.884	275.16
962.25	307.93
962.617	336.01
962.983	279.84
963.35	392.19
963.716	275.16
964.082	319.63
964.449	305.59
964.815	291.54
965.181	328.99
965.547	307.93
965.913	350.06
966.279	268.14
966.645	279.84
967.011	317.29
967.377	263.46
967.742	317.29
968.108	310.27
968.474	286.86
968.839	244.73
969.205	293.88
969.57	328.99
969.935	237.71
970.301	296.22
970.666	242.39
971.031	279.84
971.396	265.8
971.761	270.48
972.126	240.05
972.491	310.27
972.856	319.63
973.221	321.97
973.586	291.54
973.95	338.35
974.315	279.84
974.679	284.52
975.044	307.93
975.408	289.2
975.773	331.33
976.137	296.22
976.501	279.84
976.866	305.59
977.23	235.37
977.594	270.48
977.958	254.09
978.322	314.95
978.686	249.41
979.049	251.75
979.413	258.78
979.777	303.25
980.141	328.99
980.504	347.72
980.868	314.95
981.231	268.14
981.595	331.33
981.958	331.33
982.321	345.38
982.684	291.54
983.048	314.95
983.411	331.33
983.774	209.62
984.137	300.91
984.5	368.78
984.862	352.4
985.225	326.65
985.588	275.16
985.951	326.65
986.313	289.2
986.676	300.91
987.038	258.78
987.401	303.25
987.763	258.78
988.125	286.86
988.488	289.2
988.85	314.95
989.212	307.93
989.574	282.18
989.936	333.67
990.298	254.09
990.66	291.54
991.022	296.22
991.383	382.82
991.745	282.18
992.107	307.93
992.468	340.69
992.83	324.31
993.191	314.95
993.553	321.97
993.914	282.18
994.275	312.61
994.637	254.09
994.998	282.18
995.359	289.2
995.72	289.2
996.081	275.16
996.442	317.29
996.803	340.69
997.163	263.46
997.524	258.78
997.885	265.8
998.245	305.59
998.606	312.61
998.966	340.69
999.327	333.67
999.687	265.8
1000.047	310.27
1000.408	298.56
1000.768	336.01
1001.128	328.99
1001.488	265.8
1001.848	336.01
1002.208	371.12
1002.568	310.27
1002.927	312.61
1003.287	289.2
1003.647	268.14
1004.007	300.91
1004.366	284.52
1004.726	382.82
1005.085	338.35
1005.444	291.54
1005.804	340.69
1006.163	317.29
1006.522	314.95
1006.881	331.33
1007.24	331.33
1007.599	312.61
1007.958	319.63
1008.317	300.91
1008.676	279.84
1009.035	303.25
1009.393	298.56
1009.752	368.78
1010.111	326.65
1010.469	310.27
1010.828	317.29
1011.186	310.27
1011.544	307.93
1011.903	291.54
1012.261	345.38
1012.619	282.18
1012.977	312.61
1013.335	300.91
1013.693	336.01
1014.051	314.95
1014.409	298.56
1014.767	284.52
1015.124	345.38
1015.482	333.67
1015.84	263.46
1016.197	263.46
1016.555	307.93
1016.912	319.63
1017.269	240.05
1017.627	307.93
1017.984	298.56
1018.341	286.86
1018.698	354.74
1019.055	333.67
1019.412	296.22
1019.769	296.22
1020.126	296.22
1020.483	343.03
1020.84	254.09
1021.196	258.78
1021.553	324.31
1021.909	333.67
1022.266	352.4
1022.622	336.01
1022.979	282.18
1023.335	310.27
1023.691	375.8
1024.047	240.05
1024.404	291.54
1024.76	275.16
1025.116	345.38
1025.472	350.06
1025.827	296.22
1026.183	275.16
1026.539	237.71
1026.895	300.91
1027.25	284.52
1027.606	300.91
1027.961	312.61
1028.317	265.8
1028.672	307.93
1029.028	321.97
1029.383	312.61
1029.738	307.93
1030.093	303.25
1030.448	366.44
1030.803	279.84
1031.158	279.84
1031.513	277.5
1031.868	307.93
1032.223	312.61
1032.577	263.46
1032.932	291.54
1033.287	319.63
1033.641	230.69
1033.996	289.2
1034.35	340.69
1034.704	242.39
1035.059	247.07
1035.413	300.91
1035.767	300.91
1036.121	300.91
