Data from Al_FLMS009871__590__14-46-40-716.txt Node

Date: Fri Mar 08 14:46:40 CST 2024
User: pe5414po
Spectrometer: FLMS00987
Trigger mode: 0
Integration Time (sec): 1.000000E-1
Scans to average: 1
Electric dark correction enabled: true
Nonlinearity correction enabled: false
Boxcar width: 0
XAxis mode: Wavelengths
Number of Pixels in Spectrum: 2048
>>>>>Begin Spectral Data<<<<<
188.938	-125.51
189.409	-125.51
189.879	-125.51
190.349	-141.89
190.819	-116.15
191.29	-99.77
191.76	-99.77
192.23	-67
192.7	-62.32
193.17	-10.82
193.64	-69.34
194.109	-55.3
194.579	-1.46
195.049	-13.17
195.519	31.3
195.988	21.94
196.458	47.69
196.927	54.71
197.397	106.2
197.866	85.14
198.336	131.95
198.805	150.67
199.274	199.82
199.744	174.08
200.213	253.66
200.682	277.06
201.151	258.34
201.62	281.74
202.089	293.44
202.558	342.6
203.027	298.13
203.495	321.53
203.964	314.51
204.433	333.23
204.902	335.57
205.37	354.3
205.839	380.04
206.307	340.26
206.776	368.34
207.244	377.7
207.712	391.75
208.181	335.57
208.649	384.73
209.117	483.03
209.585	398.77
210.053	499.41
210.521	391.75
210.989	506.43
211.457	607.08
211.925	644.53
212.393	656.23
212.861	653.89
213.328	656.23
213.796	728.78
214.264	691.34
214.731	660.91
215.199	724.1
215.666	848.15
216.133	990.92
216.601	1061.14
217.068	1136.04
217.535	1320.94
218.003	1360.73
218.47	1313.92
218.937	1372.43
219.404	1325.62
219.871	1540.95
220.338	1662.66
220.805	1559.67
221.271	1501.16
221.738	1547.97
222.205	1580.74
222.671	1702.45
223.138	1842.88
223.605	1770.32
224.071	1695.43
224.538	1683.72
225.004	1847.56
225.47	1922.46
225.937	1943.52
226.403	1700.11
226.869	1533.93
227.335	1498.82
227.801	1461.37
228.267	1449.67
228.733	1487.12
229.199	1529.25
229.665	1723.51
230.131	1854.58
230.597	1927.14
231.062	1936.5
231.528	1676.7
231.994	1648.61
232.459	1484.78
232.925	1501.16
233.39	1547.97
233.856	1854.58
234.321	2107.36
234.786	2825.9
235.252	3731.69
235.717	5061.12
236.182	5828.81
236.647	4878.55
237.112	3205.07
237.577	2231.41
238.042	1847.56
238.507	1608.83
238.972	1498.82
239.436	1466.05
239.901	1452.01
240.366	1395.84
240.83	1463.71
241.295	1423.92
241.76	1524.57
242.224	1414.56
242.688	1437.97
243.153	1484.78
243.617	1503.5
244.081	1501.16
244.545	1550.31
245.01	1585.42
245.474	1697.77
245.938	1707.13
246.402	1559.67
246.866	1632.23
247.33	1498.82
247.793	1536.27
248.257	1512.86
248.721	1444.99
249.185	1456.69
249.648	1480.1
250.112	1526.91
250.575	1468.39
251.039	1536.27
251.502	1477.76
251.965	1601.8
252.429	1569.04
252.892	1660.32
253.355	1587.76
253.818	1650.96
254.281	1714.15
254.744	1842.88
255.207	2135.45
255.67	2535.68
256.133	3315.08
256.596	3839.36
257.059	3462.53
257.522	3001.44
257.984	2362.48
258.447	2247.79
258.909	2233.75
259.372	2222.05
259.834	2212.68
260.297	2065.23
260.759	2158.85
261.221	2320.35
261.684	2734.62
262.146	3511.68
262.608	3579.56
263.07	3336.14
263.532	2708.88
263.994	2491.21
264.456	2505.25
264.918	2392.91
265.38	2514.61
265.842	2182.26
266.303	2051.19
266.765	1721.17
267.227	1562.02
267.688	1641.59
268.15	1559.67
268.611	1583.08
269.072	1608.83
269.534	1665
269.995	1559.67
270.456	1524.57
270.918	1470.73
271.379	1529.25
271.84	1519.89
272.301	1491.8
272.762	1491.8
273.223	1447.33
273.684	1494.14
274.144	1494.14
274.605	1601.8
275.066	1611.17
275.527	1632.23
275.987	1791.39
276.448	1913.1
276.908	2318.01
277.369	3015.49
277.829	4827.06
278.289	8291.06
278.75	12489.98
279.21	13915.36
279.67	11502.27
280.13	8148.28
280.59	6252.45
281.05	5552.63
281.51	4607.05
281.97	3382.95
282.43	2364.82
282.89	1917.78
283.35	1751.6
283.809	1892.03
284.269	2144.81
284.729	2259.49
285.188	1997.35
285.648	1686.06
286.107	1475.42
286.567	1503.5
287.026	1423.92
287.485	1466.05
287.944	1395.84
288.404	1374.77
288.863	1374.77
289.322	1498.82
289.781	1365.41
290.24	1353.71
290.699	1482.44
291.158	1613.51
291.616	1606.49
292.075	1772.66
292.534	1969.27
292.992	2219.71
293.451	2055.87
293.91	1875.65
294.368	1704.79
294.827	1597.12
295.285	1409.88
295.743	1337.32
296.202	1395.84
296.66	1274.13
297.118	1299.88
297.576	1271.79
298.034	1257.75
298.492	1274.13
298.95	1260.09
299.408	1290.51
299.866	1327.96
300.324	1297.53
300.781	1316.26
301.239	1351.37
301.697	1402.86
302.154	1402.86
302.612	1552.65
303.069	1566.7
303.527	1676.7
303.984	1870.97
304.441	2367.16
304.899	2769.73
305.356	3240.18
305.813	3221.45
306.27	3139.54
306.727	3354.87
307.184	4632.8
307.641	6666.72
308.098	8206.8
308.555	9484.73
309.012	8955.77
309.468	7099.72
309.925	4176.39
310.382	2413.97
310.838	2037.14
311.295	1688.4
311.751	1587.76
312.208	1456.69
312.664	1388.82
313.12	1398.18
313.577	1283.49
314.033	1262.43
314.489	1323.28
314.945	1255.4
315.401	1152.42
315.857	1143.06
316.313	1126.68
316.769	1194.55
317.225	1161.78
317.681	1147.74
318.136	1199.23
318.592	1161.78
319.048	1089.23
319.503	1068.16
319.959	1131.36
320.414	1110.29
320.869	1096.25
321.325	1119.65
321.78	1110.29
322.235	1121.99
322.691	1140.72
323.146	1124.33
323.601	1295.19
324.056	1416.9
324.511	1702.45
324.966	1562.02
325.421	1461.37
325.875	1260.09
326.33	1250.72
326.785	1332.64
327.24	1599.46
327.694	1461.37
328.149	1285.83
328.603	1224.98
329.058	1133.7
329.512	1047.1
329.966	1133.7
330.421	1114.97
330.875	1047.1
331.329	1007.31
331.783	1075.18
332.237	1152.42
332.691	1325.62
333.145	1248.38
333.599	1295.19
334.053	1285.83
334.507	1367.75
334.96	1210.93
335.414	1222.64
335.868	1241.36
336.321	1175.83
336.775	1213.28
337.228	1194.55
337.682	1145.4
338.135	1271.79
338.588	1159.44
339.042	1140.72
339.495	1173.49
339.948	1236.68
340.401	1121.99
340.854	1187.53
341.307	1145.4
341.76	1114.97
342.213	1124.33
342.666	1159.44
343.119	1201.57
343.571	1278.81
344.024	1208.59
344.477	1175.83
344.929	1196.89
345.382	1208.59
345.834	1220.3
346.287	1114.97
346.739	1168.81
347.191	1224.98
347.644	1171.15
348.096	1203.91
348.548	1147.74
349	1285.83
349.452	1201.57
349.904	1161.78
350.356	1262.43
350.808	1229.66
351.26	1232
351.711	1255.4
352.163	1330.3
352.615	1379.45
353.066	1278.81
353.518	1444.99
353.969	1423.92
354.421	1461.37
354.872	1578.4
355.324	1758.62
355.775	1901.39
356.226	2079.27
356.677	2406.95
357.128	3083.36
357.579	3865.1
358.03	4827.06
358.481	5613.48
358.932	5510.5
359.383	4522.79
359.834	3645.09
360.285	3261.24
360.735	2994.42
361.186	2727.6
361.637	2388.22
362.087	2168.21
362.538	1807.77
362.988	1772.66
363.438	1606.49
363.889	1578.4
364.339	1370.09
364.789	1311.58
365.239	1405.2
365.689	1327.96
366.139	1248.38
366.589	1292.85
367.039	1260.09
367.489	1152.42
367.939	1173.49
368.389	1217.96
368.839	1222.64
369.288	1182.85
369.738	1189.87
370.187	1189.87
370.637	1283.49
371.086	1262.43
371.536	1306.9
371.985	1288.17
372.434	1269.45
372.884	1260.09
373.333	1243.7
373.782	1201.57
374.231	1224.98
374.68	1267.11
375.129	1229.66
375.578	1182.85
376.027	1185.19
376.475	1168.81
376.924	1147.74
377.373	1063.48
377.822	1082.21
378.27	1154.76
378.719	1182.85
379.167	1178.17
379.616	1131.36
380.064	1164.12
380.512	1203.91
380.961	1208.59
381.409	1173.49
381.857	1304.56
382.305	1400.52
382.753	1468.39
383.201	1672.02
383.649	1751.6
384.097	1681.38
384.545	1351.37
384.992	1374.77
385.44	1295.19
385.888	1246.04
386.335	1239.02
386.783	1264.77
387.231	1215.62
387.678	1241.36
388.125	1143.06
388.573	1217.96
389.02	1232
389.467	1173.49
389.914	1206.25
390.362	1288.17
390.809	1320.94
391.256	1215.62
391.703	1199.23
392.15	1407.54
392.596	1416.9
393.043	1601.8
393.49	2119.06
393.937	3422.74
394.383	5206.23
394.83	6161.17
395.276	5159.42
395.723	5398.15
396.169	7361.86
396.616	8066.36
397.062	5299.85
397.508	2912.5
397.954	1983.31
398.401	1592.44
398.847	1627.55
399.293	1587.76
399.739	1480.1
400.185	1449.67
400.631	1400.52
401.076	1374.77
401.522	1313.92
401.968	1344.35
402.414	1295.19
402.859	1346.69
403.305	1496.48
403.75	1517.54
404.196	1290.51
404.641	1334.98
405.086	1248.38
405.532	1295.19
405.977	1334.98
406.422	1229.66
406.867	1323.28
407.312	1344.35
407.757	1409.88
408.202	1337.32
408.647	1274.13
409.092	1157.1
409.537	1234.34
409.982	1318.6
410.426	1234.34
410.871	1320.94
411.316	1257.75
411.76	1253.06
412.205	1201.57
412.649	1295.19
413.093	1138.38
413.538	1203.91
413.982	1234.34
414.426	1147.74
414.87	1232
415.314	1201.57
415.758	1299.88
416.202	1234.34
416.646	1196.89
417.09	1140.72
417.534	1217.96
417.978	1201.57
418.421	1229.66
418.865	1150.08
419.309	1234.34
419.752	1227.32
420.196	1269.45
420.639	1189.87
421.083	1210.93
421.526	1168.81
421.969	1175.83
422.412	1121.99
422.856	1110.29
423.299	1161.78
423.742	1164.12
424.185	1253.06
424.628	1215.62
425.071	1070.5
425.513	1091.57
425.956	1091.57
426.399	1136.04
426.842	1037.74
427.284	1040.08
427.727	1145.4
428.169	1089.23
428.612	1068.16
429.054	1098.59
429.497	1110.29
429.939	1054.12
430.381	1002.63
430.823	1044.76
431.265	1044.76
431.707	1145.4
432.149	1033.05
432.591	1072.84
433.033	1164.12
433.475	1061.14
433.917	1016.67
434.359	1021.35
434.8	1019.01
435.242	1194.55
435.684	1157.1
436.125	1131.36
436.567	1100.93
437.008	1051.78
437.449	1103.27
437.891	1042.42
438.332	1093.91
438.773	1121.99
439.214	1143.06
439.656	1079.86
440.097	1054.12
440.538	1065.82
440.978	1131.36
441.419	1100.93
441.86	1152.42
442.301	1215.62
442.742	1206.25
443.182	1206.25
443.623	1224.98
444.063	1166.46
444.504	1201.57
444.944	1299.88
445.385	1416.9
445.825	1346.69
446.265	1309.24
446.706	1236.68
447.146	1365.41
447.586	1236.68
448.026	1388.82
448.466	1421.58
448.906	1512.86
449.346	1463.71
449.786	1419.24
450.225	1367.75
450.665	1388.82
451.105	1449.67
451.544	1405.2
451.984	1505.84
452.424	1428.6
452.863	1480.1
453.302	1515.2
453.742	1484.78
454.181	1388.82
454.62	1449.67
455.059	1414.56
455.499	1304.56
455.938	1234.34
456.377	1250.72
456.816	1318.6
457.254	1189.87
457.693	1147.74
458.132	1150.08
458.571	1173.49
459.01	1168.81
459.448	1166.46
459.887	1182.85
460.325	1178.17
460.764	1157.1
461.202	1168.81
461.641	1136.04
462.079	1213.28
462.517	1187.53
462.955	1206.25
463.393	1234.34
463.832	1232
464.27	1290.51
464.708	1192.21
465.145	1327.96
465.583	1365.41
466.021	1491.8
466.459	1454.35
466.897	1583.08
467.334	1646.27
467.772	1468.39
468.209	1372.43
468.647	1297.53
469.084	1203.91
469.522	1168.81
469.959	1131.36
470.396	1178.17
470.833	1107.95
471.271	1173.49
471.708	1009.65
472.145	1178.17
472.582	1145.4
473.019	1110.29
473.456	1147.74
473.892	1103.27
474.329	1070.5
474.766	1091.57
475.202	1112.63
475.639	1047.1
476.076	1098.59
476.512	1114.97
476.949	1145.4
477.385	1079.86
477.821	1173.49
478.258	1175.83
478.694	1203.91
479.13	1203.91
479.566	1138.38
480.002	1222.64
480.438	1164.12
480.874	1136.04
481.31	1093.91
481.746	1136.04
482.181	1075.18
482.617	1129.02
483.053	1129.02
483.488	1117.31
483.924	1124.33
484.36	1150.08
484.795	1168.81
485.23	1117.31
485.666	1264.77
486.101	1367.75
486.536	1276.47
486.971	1215.62
487.407	1213.28
487.842	1199.23
488.277	1227.32
488.712	1274.13
489.146	1224.98
489.581	1234.34
490.016	1096.25
490.451	1227.32
490.885	1175.83
491.32	1168.81
491.755	1117.31
492.189	1157.1
492.624	1171.15
493.058	1164.12
493.492	1201.57
493.927	1147.74
494.361	1248.38
494.795	1222.64
495.229	1217.96
495.663	1152.42
496.097	1253.06
496.531	1236.68
496.965	1192.21
497.399	1166.46
497.833	1236.68
498.266	1323.28
498.7	1320.94
499.134	1395.84
499.567	1402.86
500.001	1667.34
500.434	1728.19
500.868	1789.05
501.301	1765.64
501.734	1674.36
502.168	1583.08
502.601	1393.5
503.034	1414.56
503.467	1388.82
503.9	1253.06
504.333	1274.13
504.766	1379.45
505.199	1466.05
505.632	1484.78
506.064	1393.5
506.497	1269.45
506.93	1166.46
507.362	1299.88
507.795	1234.34
508.227	1164.12
508.66	1159.44
509.092	1136.04
509.524	1243.7
509.956	1126.68
510.389	1161.78
510.821	1164.12
511.253	1213.28
511.685	1168.81
512.117	1203.91
512.549	1208.59
512.981	1232
513.412	1093.91
513.844	1215.62
514.276	1159.44
514.707	1232
515.139	1248.38
515.571	1229.66
516.002	1365.41
516.433	1374.77
516.865	1309.24
517.296	1419.24
517.727	1545.63
518.159	1543.29
518.59	1594.78
519.021	1566.7
519.452	1594.78
519.883	1484.78
520.314	1351.37
520.744	1461.37
521.175	1320.94
521.606	1395.84
522.037	1585.42
522.467	1456.69
522.898	1466.05
523.328	1461.37
523.759	1428.6
524.189	1409.88
524.62	1576.06
525.05	1547.97
525.48	1550.31
525.91	1697.77
526.341	1725.85
526.771	1962.25
527.201	2051.19
527.631	2095.66
528.061	2388.22
528.49	2739.3
528.92	3270.61
529.35	4185.76
529.78	8377.66
530.209	39064.42
530.639	63029.16
531.068	63038.53
531.498	63038.53
531.927	63038.53
532.357	63038.53
532.786	63038.53
533.215	63038.53
533.644	63038.53
534.074	58547.04
534.503	18725.16
534.932	9210.89
535.361	5821.79
535.79	4042.98
536.218	3265.93
536.647	2889.1
537.076	2512.27
537.505	2147.15
537.933	1866.28
538.362	1669.68
538.79	1496.48
539.219	1419.24
539.647	1283.49
540.076	1250.72
540.504	1138.38
540.932	1140.72
541.36	1206.25
541.788	1199.23
542.217	1084.55
542.645	1145.4
543.073	1107.95
543.5	1009.65
543.928	1021.35
544.356	1093.91
544.784	1007.31
545.211	1068.16
545.639	1000.29
546.067	1016.67
546.494	995.61
546.922	1051.78
547.349	1040.08
547.776	1000.29
548.204	930.07
548.631	1058.8
549.058	997.95
549.485	960.5
549.912	1000.29
550.339	1040.08
550.766	997.95
551.193	967.52
551.62	1000.29
552.047	939.43
552.474	913.69
552.9	934.75
553.327	941.77
553.754	976.88
554.18	969.86
554.607	953.48
555.033	981.56
555.459	972.2
555.886	969.86
556.312	930.07
556.738	901.98
557.164	1023.69
557.59	944.11
558.016	981.56
558.442	988.58
558.868	1021.35
559.294	965.18
559.72	976.88
560.145	1075.18
560.571	1014.33
560.997	1011.99
561.422	983.9
561.848	955.82
562.273	962.84
562.699	1021.35
563.124	983.9
563.549	979.22
563.974	913.69
564.4	939.43
564.825	951.14
565.25	997.95
565.675	1023.69
566.1	1107.95
566.525	1086.89
566.95	1126.68
567.374	1154.76
567.799	1274.13
568.224	1283.49
568.648	1320.94
569.073	1292.85
569.497	1236.68
569.922	1306.9
570.346	1129.02
570.771	1217.96
571.195	1175.83
571.619	1086.89
572.043	1065.82
572.467	1084.55
572.891	979.22
573.315	1023.69
573.739	894.96
574.163	878.58
574.587	944.11
575.011	972.2
575.435	871.56
575.858	855.17
576.282	784.96
576.705	784.96
577.129	747.51
577.552	829.43
577.976	773.25
578.399	841.13
578.822	822.41
579.245	864.54
579.669	789.64
580.092	822.41
580.515	728.78
580.938	742.83
581.361	721.76
581.784	773.25
582.206	761.55
582.629	714.74
583.052	829.43
583.474	745.17
583.897	696.02
584.32	689
584.742	712.4
585.165	686.65
585.587	766.23
586.009	731.12
586.431	686.65
586.854	651.55
587.276	735.81
587.698	719.42
588.12	726.44
588.542	815.38
588.964	686.65
589.386	766.23
589.807	724.1
590.229	681.97
590.651	656.23
591.073	782.62
591.494	644.53
591.916	707.72
592.337	719.42
592.759	749.85
593.18	728.78
593.601	719.42
594.022	733.47
594.444	681.97
594.865	698.36
595.286	672.61
595.707	691.34
596.128	745.17
596.549	677.29
596.97	705.38
597.39	663.25
597.811	667.93
598.232	686.65
598.652	670.27
599.073	670.27
599.494	630.48
599.914	684.31
600.334	646.87
600.755	672.61
601.175	696.02
601.595	595.37
602.015	684.31
602.436	660.91
602.856	794.32
603.276	660.91
603.696	653.89
604.115	679.63
604.535	696.02
604.955	681.97
605.375	710.06
605.794	677.29
606.214	658.57
606.634	679.63
607.053	663.25
607.473	747.51
607.892	660.91
608.311	721.76
608.731	710.06
609.15	686.65
609.569	686.65
609.988	677.29
610.407	689
610.826	696.02
611.245	674.95
611.664	712.4
612.083	707.72
612.501	667.93
612.92	735.81
613.339	604.74
613.757	684.31
614.176	747.51
614.594	660.91
615.013	616.44
615.431	630.48
615.85	670.27
616.268	696.02
616.686	686.65
617.104	663.25
617.522	656.23
617.94	672.61
618.358	590.69
618.776	651.55
619.194	621.12
619.612	759.21
620.03	691.34
620.447	745.17
620.865	667.93
621.282	777.94
621.7	717.08
622.117	873.9
622.535	747.51
622.952	838.79
623.369	810.7
623.787	897.3
624.204	974.54
624.621	892.62
625.038	990.92
625.455	1070.5
625.872	1103.27
626.289	1035.39
626.706	885.6
627.123	911.35
627.539	899.64
627.956	808.36
628.373	752.19
628.789	775.6
629.206	820.07
629.622	759.21
630.038	698.36
630.455	721.76
630.871	700.7
631.287	672.61
631.703	693.68
632.12	644.53
632.536	581.33
632.952	691.34
633.368	677.29
633.783	618.78
634.199	625.8
634.615	614.1
635.031	621.12
635.446	632.82
635.862	600.05
636.277	593.03
636.693	621.12
637.108	543.88
637.524	635.16
637.939	571.97
638.354	618.78
638.77	595.37
639.185	586.01
639.6	602.4
640.015	571.97
640.43	604.74
640.845	485.37
641.259	625.8
641.674	571.97
642.089	553.24
642.504	564.95
642.918	541.54
643.333	532.18
643.747	534.52
644.162	576.65
644.576	567.29
644.991	546.22
645.405	550.9
645.819	525.16
646.233	513.46
646.647	536.86
647.061	557.93
647.475	466.64
647.889	576.65
648.303	527.5
648.717	501.75
649.131	546.22
649.545	504.09
649.958	621.12
650.372	609.42
650.785	471.33
651.199	450.26
651.612	555.58
652.026	478.35
652.439	562.61
652.852	529.84
653.266	529.84
653.679	511.11
654.092	520.48
654.505	557.93
654.918	593.03
655.331	490.05
655.744	527.5
656.156	555.58
656.569	588.35
656.982	637.5
657.394	525.16
657.807	576.65
658.22	534.52
658.632	555.58
659.044	571.97
659.457	548.56
659.869	527.5
660.281	464.3
660.693	529.84
661.106	473.67
661.518	541.54
661.93	571.97
662.342	490.05
662.754	508.77
663.165	476.01
663.577	607.08
663.989	534.52
664.401	497.07
664.812	506.43
665.224	485.37
665.635	480.69
666.047	511.11
666.458	511.11
666.869	492.39
667.281	476.01
667.692	445.58
668.103	518.14
668.514	499.41
668.925	522.82
669.336	452.6
669.747	410.47
670.158	506.43
670.569	464.3
670.979	480.69
671.39	412.81
671.801	499.41
672.211	412.81
672.622	518.14
673.032	445.58
673.443	468.98
673.853	506.43
674.263	515.8
674.674	473.67
675.084	461.96
675.494	464.3
675.904	487.71
676.314	454.94
676.724	476.01
677.134	450.26
677.544	433.88
677.953	473.67
678.363	382.39
678.773	480.69
679.182	525.16
679.592	497.07
680.001	527.5
680.411	476.01
680.82	422.17
681.23	408.13
681.639	454.94
682.048	506.43
682.457	429.2
682.866	417.49
683.275	471.33
683.684	499.41
684.093	501.75
684.502	405.79
684.911	452.6
685.32	506.43
685.728	464.3
686.137	466.64
686.546	459.62
686.954	473.67
687.363	375.36
687.771	447.92
688.179	471.33
688.588	440.9
688.996	504.09
689.404	422.17
689.812	410.47
690.22	394.09
690.628	473.67
691.036	466.64
691.444	408.13
691.852	522.82
692.26	454.94
692.667	387.07
693.075	466.64
693.483	476.01
693.89	438.56
694.298	424.51
694.705	468.98
695.112	424.51
695.52	438.56
695.927	550.9
696.334	487.71
696.741	309.83
697.148	487.71
697.555	401.11
697.962	391.75
698.369	436.22
698.776	459.62
699.183	450.26
699.59	368.34
699.996	438.56
700.403	443.24
700.81	436.22
701.216	483.03
701.623	506.43
702.029	485.37
702.435	520.48
702.842	518.14
703.248	536.86
703.654	506.43
704.06	593.03
704.466	639.84
704.872	731.12
705.278	745.17
705.684	609.42
706.09	684.31
706.496	609.42
706.901	581.33
707.307	471.33
707.712	571.97
708.118	497.07
708.523	487.71
708.929	450.26
709.334	426.86
709.74	384.73
710.145	408.13
710.55	426.86
710.955	408.13
711.36	457.28
711.765	389.41
712.17	443.24
712.575	358.98
712.98	916.03
713.385	401.11
713.789	373.02
714.194	422.17
714.599	361.32
715.003	410.47
715.408	424.51
715.812	391.75
716.217	464.3
716.621	354.3
717.025	429.2
717.429	445.58
717.833	354.3
718.238	358.98
718.642	373.02
719.046	358.98
719.449	419.83
719.853	377.7
720.257	361.32
720.661	419.83
721.065	356.64
721.468	340.26
721.872	342.6
722.275	312.17
722.679	387.07
723.082	384.73
723.485	398.77
723.889	326.21
724.292	398.77
724.695	380.04
725.098	351.96
725.501	377.7
725.904	335.57
726.307	410.47
726.71	391.75
727.113	377.7
727.516	389.41
727.918	443.24
728.321	387.07
728.724	368.34
729.126	356.64
729.529	410.47
729.931	305.15
730.333	403.45
730.736	370.68
731.138	323.87
731.54	335.57
731.942	330.89
732.344	384.73
732.746	330.89
733.148	349.62
733.55	344.94
733.952	380.04
734.354	384.73
734.756	380.04
735.157	380.04
735.559	321.53
735.96	377.7
736.362	323.87
736.763	330.89
737.165	354.3
737.566	300.47
737.967	342.6
738.368	284.08
738.77	384.73
739.171	335.57
739.572	267.7
739.973	298.13
740.374	347.28
740.774	375.36
741.175	396.43
741.576	368.34
741.977	373.02
742.377	384.73
742.778	384.73
743.178	333.23
743.579	389.41
743.979	438.56
744.379	370.68
744.78	422.17
745.18	457.28
745.58	373.02
745.98	387.07
746.38	415.15
746.78	440.9
747.18	480.69
747.58	410.47
747.98	408.13
748.38	384.73
748.779	431.54
749.179	394.09
749.578	387.07
749.978	349.62
750.377	389.41
750.777	356.64
751.176	389.41
751.575	408.13
751.975	408.13
752.374	321.53
752.773	403.45
753.172	298.13
753.571	377.7
753.97	373.02
754.369	333.23
754.768	370.68
755.166	358.98
755.565	337.91
755.964	316.85
756.362	377.7
756.761	330.89
757.159	333.23
757.558	366
757.956	302.81
758.354	361.32
758.753	398.77
759.151	302.81
759.549	361.32
759.947	384.73
760.345	326.21
760.743	387.07
761.141	384.73
761.539	284.08
761.936	342.6
762.334	363.66
762.732	366
763.129	323.87
763.527	403.45
763.924	293.44
764.322	284.08
764.719	342.6
765.117	335.57
765.514	295.79
765.911	361.32
766.308	314.51
766.705	298.13
767.102	316.85
767.499	293.44
767.896	391.75
768.293	316.85
768.69	368.34
769.086	293.44
769.483	328.55
769.88	316.85
770.276	330.89
770.673	375.36
771.069	366
771.466	286.42
771.862	344.94
772.258	319.19
772.654	342.6
773.05	356.64
773.447	312.17
773.843	330.89
774.239	281.74
774.634	363.66
775.03	380.04
775.426	398.77
775.822	370.68
776.218	366
776.613	429.2
777.009	373.02
777.404	419.83
777.8	461.96
778.195	356.64
778.59	312.17
778.986	373.02
779.381	307.49
779.776	281.74
780.171	347.28
780.566	375.36
780.961	391.75
781.356	382.39
781.751	319.19
782.146	295.79
782.54	309.83
782.935	326.21
783.33	349.62
783.724	394.09
784.119	312.17
784.513	305.15
784.908	312.17
785.302	333.23
785.696	333.23
786.09	356.64
786.485	349.62
786.879	337.91
787.273	330.89
787.667	349.62
788.061	347.28
788.454	351.96
788.848	281.74
789.242	281.74
789.636	319.19
790.029	319.19
790.423	316.85
790.816	333.23
791.21	337.91
791.603	366
791.997	356.64
792.39	335.57
792.783	256
793.176	319.19
793.569	305.15
793.962	319.19
794.355	316.85
794.748	333.23
795.141	328.55
795.534	312.17
795.927	323.87
796.319	344.94
796.712	326.21
797.105	291.1
797.497	286.42
797.89	316.85
798.282	330.89
798.674	382.39
799.067	291.1
799.459	274.72
799.851	316.85
800.243	366
800.635	330.89
801.027	309.83
801.419	323.87
801.811	279.4
802.203	286.42
802.594	314.51
802.986	347.28
803.378	326.21
803.769	326.21
804.161	312.17
804.552	326.21
804.944	337.91
805.335	377.7
805.726	349.62
806.118	267.7
806.509	354.3
806.9	295.79
807.291	314.51
807.682	300.47
808.073	354.3
808.464	307.49
808.855	335.57
809.245	373.02
809.636	300.47
810.027	265.36
810.417	312.17
810.808	377.7
811.198	270.04
811.589	272.38
811.979	314.51
812.369	351.96
812.759	323.87
813.15	288.76
813.54	366
813.93	241.95
814.32	302.81
814.71	312.17
815.1	312.17
815.489	337.91
815.879	363.66
816.269	347.28
816.658	351.96
817.048	305.15
817.438	291.1
817.827	298.13
818.216	319.19
818.606	340.26
818.995	377.7
819.384	333.23
819.773	330.89
820.163	305.15
820.552	356.64
820.941	333.23
821.33	293.44
821.718	286.42
822.107	340.26
822.496	267.7
822.885	340.26
823.273	361.32
823.662	349.62
824.05	323.87
824.439	330.89
824.827	342.6
825.216	293.44
825.604	333.23
825.992	298.13
826.38	351.96
826.768	358.98
827.156	305.15
827.544	312.17
827.932	368.34
828.32	270.04
828.708	366
829.096	340.26
829.483	291.1
829.871	291.1
830.259	302.81
830.646	309.83
831.034	291.1
831.421	328.55
831.808	328.55
832.196	337.91
832.583	319.19
832.97	300.47
833.357	291.1
833.744	272.38
834.131	253.66
834.518	342.6
834.905	337.91
835.292	300.47
835.678	258.34
836.065	244.29
836.452	270.04
836.838	314.51
837.225	342.6
837.611	307.49
837.998	300.47
838.384	270.04
838.77	241.95
839.157	195.14
839.543	270.04
839.929	286.42
840.315	335.57
840.701	307.49
841.087	279.4
841.473	307.49
841.858	298.13
842.244	326.21
842.63	344.94
843.015	358.98
843.401	616.44
843.787	344.94
844.172	241.95
844.557	354.3
844.943	337.91
845.328	354.3
845.713	246.63
846.098	363.66
846.483	293.44
846.868	277.06
847.253	335.57
847.638	319.19
848.023	298.13
848.408	305.15
848.793	288.76
849.177	279.4
849.562	305.15
849.947	251.32
850.331	335.57
850.715	326.21
851.1	354.3
851.484	349.62
851.868	279.4
852.253	354.3
852.637	293.44
853.021	307.49
853.405	272.38
853.789	270.04
854.173	302.81
854.557	300.47
854.94	321.53
855.324	366
855.708	335.57
856.091	314.51
856.475	230.25
856.858	333.23
857.242	337.91
857.625	288.76
858.009	307.49
858.392	288.76
858.775	354.3
859.158	342.6
859.541	279.4
859.924	265.36
860.307	326.21
860.69	270.04
861.073	288.76
861.456	241.95
861.838	272.38
862.221	330.89
862.604	321.53
862.986	307.49
863.369	284.08
863.751	295.79
864.133	356.64
864.516	300.47
864.898	237.27
865.28	342.6
865.662	321.53
866.044	286.42
866.426	314.51
866.808	300.47
867.19	241.95
867.572	267.7
867.954	335.57
868.336	302.81
868.717	267.7
869.099	279.4
869.48	274.72
869.862	354.3
870.243	319.19
870.625	293.44
871.006	293.44
871.387	309.83
871.768	298.13
872.149	319.19
872.53	356.64
872.911	314.51
873.292	263.02
873.673	284.08
874.054	277.06
874.435	291.1
874.815	373.02
875.196	258.34
875.577	314.51
875.957	373.02
876.338	263.02
876.718	377.7
877.098	307.49
877.479	326.21
877.859	316.85
878.239	295.79
878.619	272.38
878.999	288.76
879.379	284.08
879.759	354.3
880.139	321.53
880.519	277.06
880.898	288.76
881.278	277.06
881.658	288.76
882.037	314.51
882.417	344.94
882.796	363.66
883.176	302.81
883.555	288.76
883.934	405.79
884.313	279.4
884.693	284.08
885.072	291.1
885.451	326.21
885.83	356.64
886.209	265.36
886.587	305.15
886.966	319.19
887.345	241.95
887.724	337.91
888.102	328.55
888.481	302.81
888.859	300.47
889.238	316.85
889.616	300.47
889.994	239.61
890.373	220.89
890.751	351.96
891.129	260.68
891.507	281.74
891.885	307.49
892.263	302.81
892.641	312.17
893.019	349.62
893.396	323.87
893.774	270.04
894.152	286.42
894.529	305.15
894.907	295.79
895.284	279.4
895.662	284.08
896.039	302.81
896.416	335.57
896.794	293.44
897.171	344.94
897.548	319.19
897.925	314.51
898.302	321.53
898.679	305.15
899.056	321.53
899.433	361.32
899.809	358.98
900.186	351.96
900.563	321.53
900.939	333.23
901.316	330.89
901.692	253.66
902.069	302.81
902.445	347.28
902.821	270.04
903.197	361.32
903.574	323.87
903.95	300.47
904.326	234.93
904.702	298.13
905.078	326.21
905.454	284.08
905.829	319.19
906.205	253.66
906.581	330.89
906.956	302.81
907.332	244.29
907.707	291.1
908.083	281.74
908.458	281.74
908.833	281.74
909.209	375.36
909.584	384.73
909.959	305.15
910.334	347.28
910.709	342.6
911.084	234.93
911.459	309.83
911.834	302.81
912.209	328.55
912.583	312.17
912.958	277.06
913.333	253.66
913.707	258.34
914.082	319.19
914.456	291.1
914.83	298.13
915.205	305.15
915.579	307.49
915.953	267.7
916.327	267.7
916.701	335.57
917.075	316.85
917.449	260.68
917.823	298.13
918.197	256
918.571	344.94
918.944	274.72
919.318	330.89
919.692	344.94
920.065	281.74
920.438	298.13
920.812	314.51
921.185	272.38
921.558	316.85
921.932	309.83
922.305	293.44
922.678	344.94
923.051	342.6
923.424	293.44
923.797	216.21
924.17	314.51
924.542	326.21
924.915	335.57
925.288	361.32
925.661	323.87
926.033	279.4
926.406	321.53
926.778	335.57
927.15	293.44
927.523	288.76
927.895	251.32
928.267	239.61
928.639	274.72
929.011	314.51
929.383	279.4
929.755	298.13
930.127	312.17
930.499	305.15
930.871	288.76
931.242	265.36
931.614	241.95
931.986	300.47
932.357	288.76
932.729	218.55
933.1	337.91
933.471	298.13
933.843	230.25
934.214	279.4
934.585	309.83
934.956	295.79
935.327	302.81
935.698	312.17
936.069	354.3
936.44	281.74
936.811	293.44
937.182	342.6
937.552	286.42
937.923	246.63
938.293	347.28
938.664	305.15
939.034	373.02
939.405	326.21
939.775	277.06
940.145	263.02
940.516	284.08
940.886	284.08
941.256	307.49
941.626	316.85
941.996	347.28
942.366	366
942.735	337.91
943.105	288.76
943.475	284.08
943.845	361.32
944.214	351.96
944.584	295.79
944.953	288.76
945.323	351.96
945.692	246.63
946.061	298.13
946.43	312.17
946.8	326.21
947.169	284.08
947.538	328.55
947.907	288.76
948.276	328.55
948.645	209.19
949.013	319.19
949.382	309.83
949.751	265.36
950.119	351.96
950.488	309.83
950.857	263.02
951.225	309.83
951.593	323.87
951.962	284.08
952.33	277.06
952.698	272.38
953.066	314.51
953.434	316.85
953.802	281.74
954.17	251.32
954.538	347.28
954.906	302.81
955.274	265.36
955.642	248.97
956.009	316.85
956.377	295.79
956.744	323.87
957.112	337.91
957.479	363.66
957.847	260.68
958.214	246.63
958.581	326.21
958.948	267.7
959.315	312.17
959.683	293.44
960.05	277.06
960.416	274.72
960.783	302.81
961.15	263.02
961.517	361.32
961.884	288.76
962.25	314.51
962.617	347.28
962.983	314.51
963.35	302.81
963.716	312.17
964.082	284.08
964.449	291.1
964.815	298.13
965.181	263.02
965.547	351.96
965.913	295.79
966.279	258.34
966.645	251.32
967.011	323.87
967.377	307.49
967.742	321.53
968.108	307.49
968.474	373.02
968.839	298.13
969.205	274.72
969.57	328.55
969.935	349.62
970.301	302.81
970.666	218.55
971.031	314.51
971.396	291.1
971.761	277.06
972.126	319.19
972.491	333.23
972.856	293.44
973.221	370.68
973.586	312.17
973.95	351.96
974.315	227.91
974.679	248.97
975.044	288.76
975.408	323.87
975.773	265.36
976.137	333.23
976.501	326.21
976.866	237.27
977.23	349.62
977.594	272.38
977.958	368.34
978.322	279.4
978.686	295.79
979.049	281.74
979.413	295.79
979.777	291.1
980.141	256
980.504	302.81
980.868	272.38
981.231	293.44
981.595	328.55
981.958	263.02
982.321	281.74
982.684	281.74
983.048	323.87
983.411	272.38
983.774	300.47
984.137	277.06
984.5	305.15
984.862	344.94
985.225	337.91
985.588	272.38
985.951	344.94
986.313	312.17
986.676	293.44
987.038	267.7
987.401	277.06
987.763	302.81
988.125	305.15
988.488	319.19
988.85	298.13
989.212	335.57
989.574	333.23
989.936	232.59
990.298	277.06
990.66	288.76
991.022	321.53
991.383	288.76
991.745	316.85
992.107	279.4
992.468	293.44
992.83	272.38
993.191	274.72
993.553	330.89
993.914	241.95
994.275	333.23
994.637	342.6
994.998	314.51
995.359	366
995.72	270.04
996.081	307.49
996.442	274.72
996.803	302.81
997.163	305.15
997.524	293.44
997.885	298.13
998.245	295.79
998.606	286.42
998.966	256
999.327	305.15
999.687	288.76
1000.047	284.08
1000.408	358.98
1000.768	347.28
1001.128	330.89
1001.488	316.85
1001.848	263.02
1002.208	291.1
1002.568	244.29
1002.927	277.06
1003.287	302.81
1003.647	267.7
1004.007	305.15
1004.366	314.51
1004.726	330.89
1005.085	248.97
1005.444	326.21
1005.804	358.98
1006.163	204.5
1006.522	347.28
1006.881	265.36
1007.24	279.4
1007.599	333.23
1007.958	316.85
1008.317	300.47
1008.676	281.74
1009.035	288.76
1009.393	246.63
1009.752	326.21
1010.111	370.68
1010.469	337.91
1010.828	293.44
1011.186	286.42
1011.544	246.63
1011.903	307.49
1012.261	309.83
1012.619	309.83
1012.977	307.49
1013.335	333.23
1013.693	354.3
1014.051	286.42
1014.409	281.74
1014.767	307.49
1015.124	307.49
1015.482	293.44
1015.84	321.53
1016.197	263.02
1016.555	312.17
1016.912	279.4
1017.269	258.34
1017.627	272.38
1017.984	277.06
1018.341	333.23
1018.698	302.81
1019.055	326.21
1019.412	248.97
1019.769	321.53
1020.126	293.44
1020.483	286.42
1020.84	354.3
1021.196	302.81
1021.553	253.66
1021.909	267.7
1022.266	246.63
1022.622	279.4
1022.979	305.15
1023.335	267.7
1023.691	256
1024.047	263.02
1024.404	279.4
1024.76	321.53
1025.116	256
1025.472	305.15
1025.827	267.7
1026.183	316.85
1026.539	239.61
1026.895	220.89
1027.25	288.76
1027.606	298.13
1027.961	312.17
1028.317	288.76
1028.672	330.89
1029.028	288.76
1029.383	330.89
1029.738	267.7
1030.093	251.32
1030.448	319.19
1030.803	298.13
1031.158	281.74
1031.513	284.08
1031.868	312.17
1032.223	351.96
1032.577	382.39
1032.932	248.97
1033.287	295.79
1033.641	253.66
1033.996	274.72
1034.35	260.68
1034.704	335.57
1035.059	335.57
1035.413	286.42
1035.767	286.42
1036.121	286.42
