Data from Al_FLMS009871__583__14-46-40-016.txt Node

Date: Fri Mar 08 14:46:40 CST 2024
User: pe5414po
Spectrometer: FLMS00987
Trigger mode: 0
Integration Time (sec): 1.000000E-1
Scans to average: 1
Electric dark correction enabled: true
Nonlinearity correction enabled: false
Boxcar width: 0
XAxis mode: Wavelengths
Number of Pixels in Spectrum: 2048
>>>>>Begin Spectral Data<<<<<
188.938	-109.71
189.409	-109.71
189.879	-109.71
190.349	-76.95
190.819	-86.31
191.29	-90.99
191.76	-154.18
192.23	-112.05
192.7	-83.97
193.17	-88.65
193.64	-34.82
194.109	19.02
194.579	12
195.049	-16.09
195.519	42.42
195.988	-20.77
196.458	82.21
196.927	58.81
197.397	105.62
197.866	168.81
198.336	112.64
198.805	145.41
199.274	227.32
199.744	157.11
200.213	232.01
200.682	138.38
201.151	224.98
201.62	203.92
202.089	234.35
202.558	285.84
203.027	299.88
203.495	246.05
203.964	253.07
204.433	246.05
204.902	285.84
205.37	302.22
205.839	306.9
206.307	213.28
206.776	278.82
207.244	351.37
207.712	278.82
208.181	332.65
208.649	299.88
209.117	295.2
209.585	309.24
210.053	304.56
210.521	234.35
210.989	306.9
211.457	304.56
211.925	264.77
212.393	295.2
212.861	306.9
213.328	267.11
213.796	299.88
214.264	269.45
214.731	309.24
215.199	304.56
215.666	206.26
216.133	269.45
216.601	271.79
217.068	344.35
217.535	224.98
218.003	255.41
218.47	346.69
218.937	241.37
219.404	281.16
219.871	250.73
220.338	250.73
220.805	260.09
221.271	239.03
221.738	255.41
222.205	234.35
222.671	243.71
223.138	253.07
223.605	276.48
224.071	316.26
224.538	264.77
225.004	297.54
225.47	203.92
225.937	267.11
226.403	220.3
226.869	241.37
227.335	323.29
227.801	220.3
228.267	318.61
228.733	267.11
229.199	210.94
229.665	224.98
230.131	248.39
230.597	264.77
231.062	248.39
231.528	281.16
231.994	278.82
232.459	267.11
232.925	260.09
233.39	290.52
233.856	316.26
234.321	239.03
234.786	262.43
235.252	271.79
235.717	283.5
236.182	276.48
236.647	299.88
237.112	283.5
237.577	236.69
238.042	274.14
238.507	210.94
238.972	274.14
239.436	292.86
239.901	283.5
240.366	302.22
240.83	267.11
241.295	353.71
241.76	232.01
242.224	278.82
242.688	292.86
243.153	276.48
243.617	267.11
244.081	290.52
244.545	290.52
245.01	283.5
245.474	257.75
245.938	351.37
246.402	334.99
246.866	330.31
247.33	283.5
247.793	295.2
248.257	253.07
248.721	323.29
249.185	274.14
249.648	274.14
250.112	276.48
250.575	283.5
251.039	267.11
251.502	241.37
251.965	344.35
252.429	318.61
252.892	306.9
253.355	281.16
253.818	318.61
254.281	281.16
254.744	288.18
255.207	304.56
255.67	381.8
256.133	269.45
256.596	334.99
257.059	323.29
257.522	332.65
257.984	262.43
258.447	318.61
258.909	304.56
259.372	295.2
259.834	253.07
260.297	255.41
260.759	255.41
261.221	313.92
261.684	318.61
262.146	250.73
262.608	325.63
263.07	264.77
263.532	267.11
263.994	246.05
264.456	323.29
264.918	342.01
265.38	260.09
265.842	276.48
266.303	208.6
266.765	299.88
267.227	290.52
267.688	337.33
268.15	285.84
268.611	316.26
269.072	274.14
269.534	297.54
269.995	283.5
270.456	285.84
270.918	313.92
271.379	316.26
271.84	271.79
272.301	316.26
272.762	271.79
273.223	271.79
273.684	243.71
274.144	232.01
274.605	332.65
275.066	283.5
275.527	232.01
275.987	349.03
276.448	332.65
276.908	285.84
277.369	278.82
277.829	253.07
278.289	250.73
278.75	295.2
279.21	309.24
279.67	299.88
280.13	260.09
280.59	313.92
281.05	299.88
281.51	297.54
281.97	269.45
282.43	365.42
282.89	304.56
283.35	274.14
283.809	285.84
284.269	276.48
284.729	297.54
285.188	281.16
285.648	349.03
286.107	267.11
286.567	313.92
287.026	299.88
287.485	250.73
287.944	288.18
288.404	337.33
288.863	318.61
289.322	274.14
289.781	239.03
290.24	318.61
290.699	241.37
291.158	283.5
291.616	349.03
292.075	243.71
292.534	246.05
292.992	271.79
293.451	372.44
293.91	260.09
294.368	349.03
294.827	297.54
295.285	344.35
295.743	295.2
296.202	299.88
296.66	306.9
297.118	271.79
297.576	243.71
298.034	281.16
298.492	255.41
298.95	276.48
299.408	288.18
299.866	306.9
300.324	283.5
300.781	297.54
301.239	323.29
301.697	365.42
302.154	313.92
302.612	311.58
303.069	290.52
303.527	313.92
303.984	344.35
304.441	327.97
304.899	349.03
305.356	320.95
305.813	323.29
306.27	276.48
306.727	264.77
307.184	316.26
307.641	302.22
308.098	313.92
308.555	356.05
309.012	325.63
309.468	323.29
309.925	419.25
310.382	313.92
310.838	311.58
311.295	290.52
311.751	318.61
312.208	281.16
312.664	295.2
313.12	330.31
313.577	311.58
314.033	297.54
314.489	283.5
314.945	276.48
315.401	344.35
315.857	288.18
316.313	313.92
316.769	283.5
317.225	281.16
317.681	304.56
318.136	285.84
318.592	342.01
319.048	325.63
319.503	320.95
319.959	370.1
320.414	327.97
320.869	351.37
321.325	257.75
321.78	353.71
322.235	253.07
322.691	334.99
323.146	290.52
323.601	346.69
324.056	290.52
324.511	320.95
324.966	304.56
325.421	292.86
325.875	288.18
326.33	311.58
326.785	353.71
327.24	313.92
327.694	339.67
328.149	370.1
328.603	316.26
329.058	290.52
329.512	295.2
329.966	283.5
330.421	295.2
330.875	351.37
331.329	320.95
331.783	313.92
332.237	297.54
332.691	346.69
333.145	323.29
333.599	311.58
334.053	360.74
334.507	346.69
334.96	363.08
335.414	346.69
335.868	306.9
336.321	323.29
336.775	344.35
337.228	365.42
337.682	330.31
338.135	290.52
338.588	309.24
339.042	346.69
339.495	358.39
339.948	306.9
340.401	334.99
340.854	330.31
341.307	292.86
341.76	283.5
342.213	271.79
342.666	309.24
343.119	264.77
343.571	278.82
344.024	269.45
344.477	344.35
344.929	278.82
345.382	288.18
345.834	323.29
346.287	346.69
346.739	285.84
347.191	285.84
347.644	276.48
348.096	323.29
348.548	339.67
349	290.52
349.452	318.61
349.904	285.84
350.356	370.1
350.808	302.22
351.26	316.26
351.711	260.09
352.163	290.52
352.615	365.42
353.066	339.67
353.518	285.84
353.969	313.92
354.421	325.63
354.872	274.14
355.324	339.67
355.775	290.52
356.226	342.01
356.677	309.24
357.128	255.41
357.579	400.52
358.03	311.58
358.481	323.29
358.932	288.18
359.383	250.73
359.834	342.01
360.285	316.26
360.735	290.52
361.186	356.05
361.637	365.42
362.087	281.16
362.538	257.75
362.988	269.45
363.438	334.99
363.889	316.26
364.339	372.44
364.789	295.2
365.239	360.74
365.689	351.37
366.139	295.2
366.589	356.05
367.039	309.24
367.489	299.88
367.939	327.97
368.389	285.84
368.839	292.86
369.288	297.54
369.738	358.39
370.187	330.31
370.637	313.92
371.086	325.63
371.536	285.84
371.985	367.76
372.434	306.9
372.884	323.29
373.333	360.74
373.782	318.61
374.231	349.03
374.68	271.79
375.129	384.14
375.578	365.42
376.027	236.69
376.475	306.9
376.924	363.08
377.373	363.08
377.822	292.86
378.27	269.45
378.719	309.24
379.167	313.92
379.616	276.48
380.064	386.48
380.512	374.78
380.961	363.08
381.409	295.2
381.857	342.01
382.305	367.76
382.753	358.39
383.201	304.56
383.649	360.74
384.097	285.84
384.545	269.45
384.992	330.31
385.44	356.05
385.888	327.97
386.335	313.92
386.783	313.92
387.231	306.9
387.678	344.35
388.125	302.22
388.573	295.2
389.02	388.82
389.467	243.71
389.914	281.16
390.362	363.08
390.809	346.69
391.256	332.65
391.703	363.08
392.15	306.9
392.596	323.29
393.043	246.05
393.49	313.92
393.937	360.74
394.383	356.05
394.83	332.65
395.276	334.99
395.723	285.84
396.169	313.92
396.616	297.54
397.062	295.2
397.508	318.61
397.954	342.01
398.401	299.88
398.847	290.52
399.293	327.97
399.739	241.37
400.185	262.43
400.631	255.41
401.076	306.9
401.522	330.31
401.968	342.01
402.414	302.22
402.859	344.35
403.305	309.24
403.75	264.77
404.196	309.24
404.641	339.67
405.086	309.24
405.532	353.71
405.977	339.67
406.422	302.22
406.867	302.22
407.312	344.35
407.757	309.24
408.202	334.99
408.647	311.58
409.092	306.9
409.537	239.03
409.982	349.03
410.426	337.33
410.871	292.86
411.316	356.05
411.76	398.18
412.205	400.52
412.649	297.54
413.093	306.9
413.538	264.77
413.982	295.2
414.426	309.24
414.87	309.24
415.314	323.29
415.758	311.58
416.202	290.52
416.646	250.73
417.09	344.35
417.534	281.16
417.978	334.99
418.421	344.35
418.865	323.29
419.309	253.07
419.752	367.76
420.196	342.01
420.639	313.92
421.083	346.69
421.526	334.99
421.969	297.54
422.412	332.65
422.856	281.16
423.299	391.16
423.742	327.97
424.185	304.56
424.628	318.61
425.071	274.14
425.513	281.16
425.956	320.95
426.399	281.16
426.842	316.26
427.284	349.03
427.727	292.86
428.169	358.39
428.612	316.26
429.054	379.46
429.497	316.26
429.939	311.58
430.381	316.26
430.823	271.79
431.265	262.43
431.707	318.61
432.149	316.26
432.591	295.2
433.033	255.41
433.475	334.99
433.917	306.9
434.359	342.01
434.8	309.24
435.242	306.9
435.684	337.33
436.125	337.33
436.567	285.84
437.008	311.58
437.449	327.97
437.891	260.09
438.332	353.71
438.773	257.75
439.214	372.44
439.656	316.26
440.097	281.16
440.538	276.48
440.978	271.79
441.419	342.01
441.86	351.37
442.301	372.44
442.742	290.52
443.182	274.14
443.623	356.05
444.063	351.37
444.504	323.29
444.944	283.5
445.385	297.54
445.825	320.95
446.265	309.24
446.706	346.69
447.146	330.31
447.586	337.33
448.026	325.63
448.466	419.25
448.906	349.03
449.346	320.95
449.786	306.9
450.225	384.14
450.665	295.2
451.105	363.08
451.544	320.95
451.984	295.2
452.424	325.63
452.863	332.65
453.302	351.37
453.742	297.54
454.181	370.1
454.62	281.16
455.059	271.79
455.499	351.37
455.938	327.97
456.377	332.65
456.816	311.58
457.254	311.58
457.693	323.29
458.132	297.54
458.571	262.43
459.01	269.45
459.448	311.58
459.887	356.05
460.325	267.11
460.764	292.86
461.202	356.05
461.641	302.22
462.079	339.67
462.517	360.74
462.955	246.05
463.393	330.31
463.832	320.95
464.27	269.45
464.708	323.29
465.145	377.12
465.583	320.95
466.021	334.99
466.459	342.01
466.897	337.33
467.334	302.22
467.772	325.63
468.209	327.97
468.647	281.16
469.084	306.9
469.522	320.95
469.959	281.16
470.396	311.58
470.833	358.39
471.271	416.91
471.708	349.03
472.145	334.99
472.582	349.03
473.019	302.22
473.456	313.92
473.892	353.71
474.329	416.91
474.766	255.41
475.202	363.08
475.639	299.88
476.076	360.74
476.512	290.52
476.949	372.44
477.385	440.31
477.821	358.39
478.258	327.97
478.694	302.22
479.13	337.33
479.566	264.77
480.002	316.26
480.438	274.14
480.874	381.8
481.31	283.5
481.746	269.45
482.181	370.1
482.617	349.03
483.053	346.69
483.488	391.16
483.924	332.65
484.36	267.11
484.795	283.5
485.23	316.26
485.666	267.11
486.101	304.56
486.536	257.75
486.971	288.18
487.407	271.79
487.842	285.84
488.277	309.24
488.712	337.33
489.146	327.97
489.581	344.35
490.016	318.61
490.451	278.82
490.885	297.54
491.32	334.99
491.755	346.69
492.189	320.95
492.624	332.65
493.058	318.61
493.492	332.65
493.927	325.63
494.361	381.8
494.795	290.52
495.229	283.5
495.663	295.2
496.097	365.42
496.531	262.43
496.965	316.26
497.399	377.12
497.833	360.74
498.266	302.22
498.7	260.09
499.134	323.29
499.567	320.95
500.001	313.92
500.434	330.31
500.868	332.65
501.301	351.37
501.734	316.26
502.168	412.23
502.601	320.95
503.034	360.74
503.467	346.69
503.9	276.48
504.333	278.82
504.766	306.9
505.199	318.61
505.632	320.95
506.064	281.16
506.497	365.42
506.93	318.61
507.362	344.35
507.795	316.26
508.227	334.99
508.66	367.76
509.092	311.58
509.524	290.52
509.956	332.65
510.389	351.37
510.821	292.86
511.253	334.99
511.685	260.09
512.117	313.92
512.549	290.52
512.981	349.03
513.412	295.2
513.844	337.33
514.276	351.37
514.707	372.44
515.139	334.99
515.571	295.2
516.002	292.86
516.433	337.33
516.865	342.01
517.296	370.1
517.727	295.2
518.159	325.63
518.59	306.9
519.021	304.56
519.452	313.92
519.883	360.74
520.314	374.78
520.744	290.52
521.175	337.33
521.606	285.84
522.037	332.65
522.467	250.73
522.898	255.41
523.328	311.58
523.759	313.92
524.189	290.52
524.62	323.29
525.05	292.86
525.48	297.54
525.91	313.92
526.341	302.22
526.771	285.84
527.201	334.99
527.631	365.42
528.061	356.05
528.49	320.95
528.92	281.16
529.35	234.35
529.78	334.99
530.209	381.8
530.639	344.35
531.068	288.18
531.498	278.82
531.927	332.65
532.357	267.11
532.786	342.01
533.215	309.24
533.644	281.16
534.074	323.29
534.503	342.01
534.932	332.65
535.361	302.22
535.79	311.58
536.218	309.24
536.647	346.69
537.076	318.61
537.505	288.18
537.933	344.35
538.362	292.86
538.79	292.86
539.219	353.71
539.647	370.1
540.076	295.2
540.504	358.39
540.932	358.39
541.36	384.14
541.788	384.14
542.217	299.88
542.645	344.35
543.073	306.9
543.5	367.76
543.928	260.09
544.356	316.26
544.784	323.29
545.211	342.01
545.639	306.9
546.067	356.05
546.494	337.33
546.922	323.29
547.349	295.2
547.776	327.97
548.204	363.08
548.631	339.67
549.058	351.37
549.485	276.48
549.912	306.9
550.339	313.92
550.766	306.9
551.193	309.24
551.62	337.33
552.047	304.56
552.474	304.56
552.9	309.24
553.327	320.95
553.754	302.22
554.18	332.65
554.607	384.14
555.033	302.22
555.459	306.9
555.886	334.99
556.312	346.69
556.738	363.08
557.164	320.95
557.59	309.24
558.016	295.2
558.442	316.26
558.868	309.24
559.294	278.82
559.72	349.03
560.145	365.42
560.571	313.92
560.997	391.16
561.422	271.79
561.848	278.82
562.273	292.86
562.699	285.84
563.124	304.56
563.549	334.99
563.974	318.61
564.4	377.12
564.825	262.43
565.25	342.01
565.675	327.97
566.1	292.86
566.525	325.63
566.95	386.48
567.374	309.24
567.799	353.71
568.224	283.5
568.648	271.79
569.073	316.26
569.497	292.86
569.922	281.16
570.346	278.82
570.771	311.58
571.195	290.52
571.619	306.9
572.043	344.35
572.467	290.52
572.891	353.71
573.315	316.26
573.739	276.48
574.163	276.48
574.587	344.35
575.011	365.42
575.435	327.97
575.858	337.33
576.282	327.97
576.705	290.52
577.129	330.31
577.552	367.76
577.976	358.39
578.399	330.31
578.822	320.95
579.245	358.39
579.669	283.5
580.092	320.95
580.515	246.05
580.938	377.12
581.361	381.8
581.784	302.22
582.206	358.39
582.629	320.95
583.052	363.08
583.474	318.61
583.897	292.86
584.32	334.99
584.742	325.63
585.165	295.2
585.587	320.95
586.009	349.03
586.431	299.88
586.854	374.78
587.276	318.61
587.698	302.22
588.12	330.31
588.542	311.58
588.964	283.5
589.386	330.31
589.807	358.39
590.229	302.22
590.651	306.9
591.073	311.58
591.494	320.95
591.916	260.09
592.337	316.26
592.759	243.71
593.18	283.5
593.601	292.86
594.022	295.2
594.444	248.39
594.865	306.9
595.286	391.16
595.707	316.26
596.128	318.61
596.549	327.97
596.97	327.97
597.39	337.33
597.811	365.42
598.232	274.14
598.652	358.39
599.073	302.22
599.494	349.03
599.914	306.9
600.334	320.95
600.755	320.95
601.175	292.86
601.595	353.71
602.015	337.33
602.436	325.63
602.856	456.7
603.276	325.63
603.696	398.18
604.115	306.9
604.535	337.33
604.955	346.69
605.375	295.2
605.794	332.65
606.214	360.74
606.634	349.03
607.053	358.39
607.473	337.33
607.892	356.05
608.311	299.88
608.731	302.22
609.15	316.26
609.569	367.76
609.988	292.86
610.407	297.54
610.826	353.71
611.245	337.33
611.664	381.8
612.083	274.14
612.501	360.74
612.92	290.52
613.339	330.31
613.757	285.84
614.176	325.63
614.594	309.24
615.013	381.8
615.431	288.18
615.85	323.29
616.268	295.2
616.686	306.9
617.104	290.52
617.522	346.69
617.94	299.88
618.358	304.56
618.776	318.61
619.194	358.39
619.612	255.41
620.03	353.71
620.447	393.5
620.865	311.58
621.282	334.99
621.7	316.26
622.117	313.92
622.535	349.03
622.952	330.31
623.369	304.56
623.787	393.5
624.204	393.5
624.621	320.95
625.038	297.54
625.455	365.42
625.872	264.77
626.289	306.9
626.706	353.71
627.123	351.37
627.539	325.63
627.956	302.22
628.373	318.61
628.789	332.65
629.206	313.92
629.622	346.69
630.038	367.76
630.455	292.86
630.871	323.29
631.287	285.84
631.703	316.26
632.12	306.9
632.536	274.14
632.952	309.24
633.368	337.33
633.783	295.2
634.199	342.01
634.615	302.22
635.031	302.22
635.446	367.76
635.862	351.37
636.277	304.56
636.693	283.5
637.108	316.26
637.524	316.26
637.939	253.07
638.354	360.74
638.77	311.58
639.185	313.92
639.6	351.37
640.015	334.99
640.43	332.65
640.845	334.99
641.259	337.33
641.674	323.29
642.089	285.84
642.504	351.37
642.918	323.29
643.333	260.09
643.747	234.35
644.162	360.74
644.576	351.37
644.991	304.56
645.405	276.48
645.819	358.39
646.233	290.52
646.647	309.24
647.061	384.14
647.475	299.88
647.889	306.9
648.303	400.52
648.717	292.86
649.131	316.26
649.545	320.95
649.958	309.24
650.372	323.29
650.785	302.22
651.199	346.69
651.612	334.99
652.026	320.95
652.439	346.69
652.852	325.63
653.266	386.48
653.679	356.05
654.092	344.35
654.505	367.76
654.918	276.48
655.331	353.71
655.744	363.08
656.156	346.69
656.569	358.39
656.982	285.84
657.394	370.1
657.807	290.52
658.22	367.76
658.632	334.99
659.044	309.24
659.457	309.24
659.869	330.31
660.281	367.76
660.693	337.33
661.106	339.67
661.518	302.22
661.93	274.14
662.342	339.67
662.754	358.39
663.165	292.86
663.577	330.31
663.989	344.35
664.401	339.67
664.812	278.82
665.224	334.99
665.635	288.18
666.047	271.79
666.458	288.18
666.869	327.97
667.281	304.56
667.692	271.79
668.103	349.03
668.514	365.42
668.925	269.45
669.336	253.07
669.747	339.67
670.158	339.67
670.569	330.31
670.979	262.43
671.39	302.22
671.801	292.86
672.211	330.31
672.622	292.86
673.032	288.18
673.443	311.58
673.853	325.63
674.263	311.58
674.674	344.35
675.084	360.74
675.494	302.22
675.904	285.84
676.314	297.54
676.724	267.11
677.134	327.97
677.544	325.63
677.953	276.48
678.363	290.52
678.773	402.86
679.182	316.26
679.592	393.5
680.001	224.98
680.411	292.86
680.82	358.39
681.23	337.33
681.639	330.31
682.048	297.54
682.457	292.86
682.866	288.18
683.275	278.82
683.684	325.63
684.093	346.69
684.502	264.77
684.911	299.88
685.32	356.05
685.728	370.1
686.137	306.9
686.546	274.14
686.954	330.31
687.363	292.86
687.771	267.11
688.179	281.16
688.588	320.95
688.996	246.05
689.404	316.26
689.812	262.43
690.22	264.77
690.628	395.84
691.036	381.8
691.444	318.61
691.852	372.44
692.26	255.41
692.667	297.54
693.075	295.2
693.483	325.63
693.89	285.84
694.298	339.67
694.705	342.01
695.112	332.65
695.52	374.78
695.927	313.92
696.334	325.63
696.741	323.29
697.148	327.97
697.555	339.67
697.962	285.84
698.369	323.29
698.776	337.33
699.183	283.5
699.59	297.54
699.996	285.84
700.403	262.43
700.81	288.18
701.216	372.44
701.623	332.65
702.029	262.43
702.435	344.35
702.842	337.33
703.248	313.92
703.654	318.61
704.06	292.86
704.466	234.35
704.872	377.12
705.278	290.52
705.684	325.63
706.09	288.18
706.496	316.26
706.901	283.5
707.307	306.9
707.712	318.61
708.118	313.92
708.523	318.61
708.929	353.71
709.334	327.97
709.74	302.22
710.145	309.24
710.55	334.99
710.955	313.92
711.36	414.57
711.765	363.08
712.17	297.54
712.575	313.92
712.98	730.54
713.385	391.16
713.789	299.88
714.194	271.79
714.599	276.48
715.003	306.9
715.408	323.29
715.812	344.35
716.217	246.05
716.621	342.01
717.025	304.56
717.429	295.2
717.833	342.01
718.238	297.54
718.642	271.79
719.046	295.2
719.449	323.29
719.853	267.11
720.257	309.24
720.661	349.03
721.065	309.24
721.468	370.1
721.872	332.65
722.275	358.39
722.679	288.18
723.082	255.41
723.485	327.97
723.889	295.2
724.292	306.9
724.695	299.88
725.098	297.54
725.501	283.5
725.904	253.07
726.307	332.65
726.71	292.86
727.113	309.24
727.516	306.9
727.918	377.12
728.321	346.69
728.724	334.99
729.126	334.99
729.529	360.74
729.931	334.99
730.333	316.26
730.736	267.11
731.138	327.97
731.54	337.33
731.942	295.2
732.344	299.88
732.746	299.88
733.148	419.25
733.55	358.39
733.952	318.61
734.354	334.99
734.756	330.31
735.157	384.14
735.559	292.86
735.96	311.58
736.362	337.33
736.763	302.22
737.165	320.95
737.566	292.86
737.967	334.99
738.368	316.26
738.77	349.03
739.171	330.31
739.572	302.22
739.973	313.92
740.374	304.56
740.774	311.58
741.175	311.58
741.576	292.86
741.977	318.61
742.377	271.79
742.778	349.03
743.178	339.67
743.579	339.67
743.979	358.39
744.379	325.63
744.78	339.67
745.18	358.39
745.58	292.86
745.98	339.67
746.38	262.43
746.78	269.45
747.18	297.54
747.58	358.39
747.98	316.26
748.38	241.37
748.779	267.11
749.179	304.56
749.578	320.95
749.978	323.29
750.377	360.74
750.777	234.35
751.176	271.79
751.575	330.31
751.975	299.88
752.374	253.07
752.773	292.86
753.172	260.09
753.571	349.03
753.97	339.67
754.369	269.45
754.768	349.03
755.166	318.61
755.565	325.63
755.964	260.09
756.362	346.69
756.761	302.22
757.159	274.14
757.558	257.75
757.956	327.97
758.354	288.18
758.753	311.58
759.151	330.31
759.549	337.33
759.947	381.8
760.345	351.37
760.743	367.76
761.141	255.41
761.539	311.58
761.936	351.37
762.334	318.61
762.732	274.14
763.129	274.14
763.527	358.39
763.924	356.05
764.322	292.86
764.719	241.37
765.117	358.39
765.514	325.63
765.911	372.44
766.308	344.35
766.705	290.52
767.102	325.63
767.499	332.65
767.896	299.88
768.293	267.11
768.69	316.26
769.086	332.65
769.483	299.88
769.88	306.9
770.276	304.56
770.673	313.92
771.069	384.14
771.466	283.5
771.862	313.92
772.258	281.16
772.654	299.88
773.05	349.03
773.447	316.26
773.843	327.97
774.239	269.45
774.634	339.67
775.03	306.9
775.426	285.84
775.822	311.58
776.218	318.61
776.613	349.03
777.009	337.33
777.404	309.24
777.8	297.54
778.195	269.45
778.59	283.5
778.986	255.41
779.381	278.82
779.776	360.74
780.171	267.11
780.566	302.22
780.961	320.95
781.356	356.05
781.751	229.67
782.146	304.56
782.54	292.86
782.935	325.63
783.33	288.18
783.724	285.84
784.119	299.88
784.513	302.22
784.908	248.39
785.302	323.29
785.696	346.69
786.09	358.39
786.485	344.35
786.879	304.56
787.273	262.43
787.667	288.18
788.061	264.77
788.454	285.84
788.848	257.75
789.242	297.54
789.636	257.75
790.029	325.63
790.423	313.92
790.816	323.29
791.21	327.97
791.603	281.16
791.997	374.78
792.39	351.37
792.783	304.56
793.176	316.26
793.569	330.31
793.962	419.25
794.355	299.88
794.748	313.92
795.141	327.97
795.534	372.44
795.927	346.69
796.319	292.86
796.712	313.92
797.105	306.9
797.497	290.52
797.89	363.08
798.282	367.76
798.674	271.79
799.067	281.16
799.459	283.5
799.851	295.2
800.243	353.71
800.635	288.18
801.027	269.45
801.419	334.99
801.811	248.39
802.203	407.55
802.594	262.43
802.986	285.84
803.378	398.18
803.769	332.65
804.161	304.56
804.552	353.71
804.944	337.33
805.335	356.05
805.726	323.29
806.118	356.05
806.509	309.24
806.9	334.99
807.291	330.31
807.682	276.48
808.073	302.22
808.464	344.35
808.855	332.65
809.245	344.35
809.636	309.24
810.027	330.31
810.417	337.33
810.808	374.78
811.198	304.56
811.589	349.03
811.979	349.03
812.369	250.73
812.759	320.95
813.15	365.42
813.54	316.26
813.93	353.71
814.32	290.52
814.71	320.95
815.1	264.77
815.489	281.16
815.879	346.69
816.269	269.45
816.658	344.35
817.048	372.44
817.438	330.31
817.827	334.99
818.216	276.48
818.606	295.2
818.995	285.84
819.384	274.14
819.773	304.56
820.163	309.24
820.552	374.78
820.941	271.79
821.33	349.03
821.718	290.52
822.107	264.77
822.496	250.73
822.885	283.5
823.273	353.71
823.662	250.73
824.05	386.48
824.439	290.52
824.827	316.26
825.216	295.2
825.604	313.92
825.992	334.99
826.38	367.76
826.768	271.79
827.156	323.29
827.544	346.69
827.932	351.37
828.32	236.69
828.708	306.9
829.096	281.16
829.483	297.54
829.871	281.16
830.259	246.05
830.646	290.52
831.034	297.54
831.421	262.43
831.808	297.54
832.196	302.22
832.583	367.76
832.97	285.84
833.357	320.95
833.744	323.29
834.131	306.9
834.518	236.69
834.905	323.29
835.292	334.99
835.678	318.61
836.065	337.33
836.452	306.9
836.838	285.84
837.225	313.92
837.611	334.99
837.998	306.9
838.384	332.65
838.77	290.52
839.157	388.82
839.543	304.56
839.929	271.79
840.315	323.29
840.701	344.35
841.087	346.69
841.473	346.69
841.858	320.95
842.244	313.92
842.63	309.24
843.015	320.95
843.401	583.09
843.787	349.03
844.172	281.16
844.557	260.09
844.943	302.22
845.328	316.26
845.713	269.45
846.098	311.58
846.483	309.24
846.868	264.77
847.253	267.11
847.638	290.52
848.023	320.95
848.408	330.31
848.793	292.86
849.177	299.88
849.562	367.76
849.947	297.54
850.331	344.35
850.715	372.44
851.1	339.67
851.484	358.39
851.868	313.92
852.253	271.79
852.637	299.88
853.021	344.35
853.405	320.95
853.789	342.01
854.173	236.69
854.557	311.58
854.94	332.65
855.324	297.54
855.708	370.1
856.091	330.31
856.475	358.39
856.858	323.29
857.242	440.31
857.625	243.71
858.009	367.76
858.392	363.08
858.775	285.84
859.158	269.45
859.541	344.35
859.924	344.35
860.307	318.61
860.69	365.42
861.073	327.97
861.456	309.24
861.838	309.24
862.221	278.82
862.604	278.82
862.986	302.22
863.369	349.03
863.751	260.09
864.133	248.39
864.516	285.84
864.898	381.8
865.28	274.14
865.662	271.79
866.044	299.88
866.426	379.46
866.808	239.03
867.19	278.82
867.572	260.09
867.954	274.14
868.336	243.71
868.717	370.1
869.099	276.48
869.48	351.37
869.862	255.41
870.243	302.22
870.625	295.2
871.006	295.2
871.387	346.69
871.768	306.9
872.149	358.39
872.53	276.48
872.911	285.84
873.292	358.39
873.673	342.01
874.054	297.54
874.435	388.82
874.815	304.56
875.196	334.99
875.577	332.65
875.957	318.61
876.338	351.37
876.718	360.74
877.098	299.88
877.479	295.2
877.859	363.08
878.239	332.65
878.619	342.01
878.999	302.22
879.379	360.74
879.759	281.16
880.139	356.05
880.519	295.2
880.898	325.63
881.278	337.33
881.658	330.31
882.037	320.95
882.417	318.61
882.796	323.29
883.176	320.95
883.555	255.41
883.934	339.67
884.313	334.99
884.693	243.71
885.072	395.84
885.451	339.67
885.83	339.67
886.209	262.43
886.587	269.45
886.966	349.03
887.345	363.08
887.724	349.03
888.102	316.26
888.481	374.78
888.859	320.95
889.238	285.84
889.616	377.12
889.994	370.1
890.373	297.54
890.751	274.14
891.129	304.56
891.507	311.58
891.885	271.79
892.263	360.74
892.641	278.82
893.019	281.16
893.396	311.58
893.774	325.63
894.152	290.52
894.529	271.79
894.907	363.08
895.284	330.31
895.662	285.84
896.039	316.26
896.416	269.45
896.794	360.74
897.171	302.22
897.548	337.33
897.925	299.88
898.302	267.11
898.679	290.52
899.056	349.03
899.433	395.84
899.809	334.99
900.186	393.5
900.563	339.67
900.939	325.63
901.316	330.31
901.692	360.74
902.069	349.03
902.445	339.67
902.821	318.61
903.197	377.12
903.574	299.88
903.95	363.08
904.326	255.41
904.702	344.35
905.078	405.21
905.454	344.35
905.829	360.74
906.205	334.99
906.581	276.48
906.956	349.03
907.332	337.33
907.707	379.46
908.083	295.2
908.458	253.07
908.833	358.39
909.209	358.39
909.584	281.16
909.959	276.48
910.334	288.18
910.709	330.31
911.084	288.18
911.459	339.67
911.834	318.61
912.209	351.37
912.583	339.67
912.958	285.84
913.333	316.26
913.707	288.18
914.082	309.24
914.456	334.99
914.83	253.07
915.205	323.29
915.579	332.65
915.953	330.31
916.327	313.92
916.701	274.14
917.075	323.29
917.449	285.84
917.823	246.05
918.197	323.29
918.571	297.54
918.944	299.88
919.318	327.97
919.692	334.99
920.065	290.52
920.438	327.97
920.812	292.86
921.185	306.9
921.558	253.07
921.932	250.73
922.305	269.45
922.678	292.86
923.051	304.56
923.424	334.99
923.797	318.61
924.17	327.97
924.542	274.14
924.915	360.74
925.288	285.84
925.661	302.22
926.033	246.05
926.406	358.39
926.778	281.16
927.15	309.24
927.523	325.63
927.895	320.95
928.267	330.31
928.639	292.86
929.011	288.18
929.383	257.75
929.755	349.03
930.127	288.18
930.499	330.31
930.871	365.42
931.242	318.61
931.614	283.5
931.986	346.69
932.357	278.82
932.729	260.09
933.1	325.63
933.471	353.71
933.843	274.14
934.214	332.65
934.585	276.48
934.956	290.52
935.327	290.52
935.698	297.54
936.069	309.24
936.44	318.61
936.811	316.26
937.182	316.26
937.552	342.01
937.923	302.22
938.293	283.5
938.664	267.11
939.034	309.24
939.405	276.48
939.775	274.14
940.145	274.14
940.516	276.48
940.886	297.54
941.256	285.84
941.626	227.32
941.996	278.82
942.366	318.61
942.735	318.61
943.105	356.05
943.475	297.54
943.845	290.52
944.214	330.31
944.584	302.22
944.953	264.77
945.323	313.92
945.692	297.54
946.061	381.8
946.43	269.45
946.8	274.14
947.169	281.16
947.538	257.75
947.907	332.65
948.276	327.97
948.645	349.03
949.013	334.99
949.382	313.92
949.751	304.56
950.119	302.22
950.488	288.18
950.857	309.24
951.225	332.65
951.593	285.84
951.962	302.22
952.33	243.71
952.698	250.73
953.066	346.69
953.434	313.92
953.802	250.73
954.17	306.9
954.538	309.24
954.906	334.99
955.274	248.39
955.642	262.43
956.009	285.84
956.377	302.22
956.744	304.56
957.112	253.07
957.479	278.82
957.847	351.37
958.214	334.99
958.581	271.79
958.948	306.9
959.315	332.65
959.683	271.79
960.05	243.71
960.416	278.82
960.783	262.43
961.15	337.33
961.517	344.35
961.884	339.67
962.25	342.01
962.617	269.45
962.983	302.22
963.35	290.52
963.716	246.05
964.082	290.52
964.449	285.84
964.815	316.26
965.181	306.9
965.547	297.54
965.913	311.58
966.279	351.37
966.645	323.29
967.011	337.33
967.377	262.43
967.742	358.39
968.108	304.56
968.474	290.52
968.839	274.14
969.205	283.5
969.57	330.31
969.935	356.05
970.301	344.35
970.666	246.05
971.031	377.12
971.396	344.35
971.761	344.35
972.126	299.88
972.491	297.54
972.856	316.26
973.221	276.48
973.586	290.52
973.95	269.45
974.315	337.33
974.679	299.88
975.044	309.24
975.408	297.54
975.773	276.48
976.137	325.63
976.501	330.31
976.866	320.95
977.23	285.84
977.594	309.24
977.958	327.97
978.322	334.99
978.686	255.41
979.049	271.79
979.413	330.31
979.777	297.54
980.141	318.61
980.504	330.31
980.868	227.32
981.231	334.99
981.595	295.2
981.958	283.5
982.321	306.9
982.684	358.39
983.048	360.74
983.411	295.2
983.774	306.9
984.137	276.48
984.5	306.9
984.862	332.65
985.225	318.61
985.588	356.05
985.951	337.33
986.313	318.61
986.676	281.16
987.038	292.86
987.401	306.9
987.763	297.54
988.125	339.67
988.488	339.67
988.85	297.54
989.212	285.84
989.574	276.48
989.936	292.86
990.298	302.22
990.66	360.74
991.022	304.56
991.383	262.43
991.745	269.45
992.107	255.41
992.468	299.88
992.83	318.61
993.191	316.26
993.553	295.2
993.914	260.09
994.275	283.5
994.637	264.77
994.998	206.26
995.359	323.29
995.72	304.56
996.081	311.58
996.442	344.35
996.803	264.77
997.163	295.2
997.524	304.56
997.885	391.16
998.245	323.29
998.606	311.58
998.966	332.65
999.327	299.88
999.687	299.88
1000.047	313.92
1000.408	349.03
1000.768	332.65
1001.128	288.18
1001.488	316.26
1001.848	248.39
1002.208	297.54
1002.568	342.01
1002.927	304.56
1003.287	248.39
1003.647	295.2
1004.007	299.88
1004.366	309.24
1004.726	267.11
1005.085	248.39
1005.444	271.79
1005.804	288.18
1006.163	330.31
1006.522	304.56
1006.881	309.24
1007.24	288.18
1007.599	281.16
1007.958	292.86
1008.317	318.61
1008.676	334.99
1009.035	346.69
1009.393	353.71
1009.752	292.86
1010.111	330.31
1010.469	281.16
1010.828	311.58
1011.186	318.61
1011.544	274.14
1011.903	334.99
1012.261	278.82
1012.619	283.5
1012.977	353.71
1013.335	302.22
1013.693	337.33
1014.051	257.75
1014.409	363.08
1014.767	323.29
1015.124	297.54
1015.482	353.71
1015.84	327.97
1016.197	313.92
1016.555	323.29
1016.912	337.33
1017.269	398.18
1017.627	297.54
1017.984	318.61
1018.341	323.29
1018.698	283.5
1019.055	346.69
1019.412	356.05
1019.769	306.9
1020.126	304.56
1020.483	264.77
1020.84	283.5
1021.196	353.71
1021.553	290.52
1021.909	327.97
1022.266	325.63
1022.622	316.26
1022.979	309.24
1023.335	386.48
1023.691	316.26
1024.047	290.52
1024.404	262.43
1024.76	274.14
1025.116	292.86
1025.472	290.52
1025.827	236.69
1026.183	264.77
1026.539	316.26
1026.895	292.86
1027.25	372.44
1027.606	353.71
1027.961	325.63
1028.317	290.52
1028.672	316.26
1029.028	327.97
1029.383	346.69
1029.738	309.24
1030.093	320.95
1030.448	342.01
1030.803	283.5
1031.158	381.8
1031.513	292.86
1031.868	283.5
1032.223	374.78
1032.577	316.26
1032.932	262.43
1033.287	283.5
1033.641	320.95
1033.996	311.58
1034.35	313.92
1034.704	292.86
1035.059	334.99
1035.413	320.95
1035.767	320.95
1036.121	320.95
