Data from Al_FLMS009871__1210__16-42-06-779.txt Node

Date: Fri Mar 08 16:42:06 CST 2024
User: pe5414po
Spectrometer: FLMS00987
Trigger mode: 0
Integration Time (sec): 1.000000E-1
Scans to average: 1
Electric dark correction enabled: true
Nonlinearity correction enabled: false
Boxcar width: 0
XAxis mode: Wavelengths
Number of Pixels in Spectrum: 2048
>>>>>Begin Spectral Data<<<<<
188.938	-96.84
189.409	-96.84
189.879	-96.84
190.349	-117.9
190.819	-129.61
191.29	-61.73
191.76	-73.43
192.23	-92.16
192.7	-82.8
193.17	-40.67
193.64	-64.07
194.109	-12.58
194.579	-50.03
195.049	-31.3
195.519	8.48
195.988	48.27
196.458	83.38
196.927	64.66
197.397	102.11
197.866	106.79
198.336	95.08
198.805	167.64
199.274	177
199.744	181.68
200.213	268.28
200.682	216.79
201.151	195.73
201.62	270.62
202.089	230.84
202.558	223.81
203.027	277.65
203.495	237.86
203.964	205.09
204.433	312.75
204.902	270.62
205.37	312.75
205.839	324.46
206.307	275.31
206.776	343.18
207.244	279.99
207.712	254.24
208.181	265.94
208.649	338.5
209.117	270.62
209.585	331.48
210.053	305.73
210.521	258.92
210.989	263.6
211.457	294.03
211.925	296.37
212.393	275.31
212.861	223.81
213.328	324.46
213.796	310.41
214.264	326.8
214.731	291.69
215.199	303.39
215.666	303.39
216.133	375.95
216.601	275.31
217.068	244.88
217.535	230.84
218.003	249.56
218.47	216.79
218.937	310.41
219.404	272.96
219.871	326.8
220.338	275.31
220.805	277.65
221.271	277.65
221.738	301.05
222.205	205.09
222.671	258.92
223.138	219.13
223.605	261.26
224.071	277.65
224.538	336.16
225.004	275.31
225.47	287.01
225.937	247.22
226.403	279.99
226.869	308.07
227.335	315.09
227.801	284.67
228.267	272.96
228.733	308.07
229.199	322.12
229.665	303.39
230.131	310.41
230.597	343.18
231.062	340.84
231.528	230.84
231.994	371.27
232.459	240.2
232.925	317.44
233.39	268.28
233.856	233.18
234.321	317.44
234.786	247.22
235.252	303.39
235.717	298.71
236.182	275.31
236.647	275.31
237.112	240.2
237.577	263.6
238.042	265.94
238.507	272.96
238.972	287.01
239.436	233.18
239.901	305.73
240.366	301.05
240.83	301.05
241.295	289.35
241.76	265.94
242.224	289.35
242.688	310.41
243.153	240.2
243.617	326.8
244.081	287.01
244.545	289.35
245.01	291.69
245.474	265.94
245.938	270.62
246.402	336.16
246.866	298.71
247.33	324.46
247.793	277.65
248.257	317.44
248.721	247.22
249.185	256.58
249.648	322.12
250.112	247.22
250.575	331.48
251.039	310.41
251.502	287.01
251.965	305.73
252.429	254.24
252.892	282.33
253.355	329.14
253.818	289.35
254.281	284.67
254.744	305.73
255.207	301.05
255.67	310.41
256.133	279.99
256.596	291.69
257.059	322.12
257.522	296.37
257.984	315.09
258.447	289.35
258.909	310.41
259.372	357.22
259.834	312.75
260.297	298.71
260.759	298.71
261.221	361.91
261.684	301.05
262.146	329.14
262.608	289.35
263.07	387.65
263.532	322.12
263.994	329.14
264.456	324.46
264.918	331.48
265.38	254.24
265.842	305.73
266.303	258.92
266.765	279.99
267.227	277.65
267.688	268.28
268.15	275.31
268.611	331.48
269.072	256.58
269.534	387.65
269.995	265.94
270.456	338.5
270.918	338.5
271.379	338.5
271.84	347.86
272.301	347.86
272.762	333.82
273.223	343.18
273.684	296.37
274.144	301.05
274.605	244.88
275.066	289.35
275.527	205.09
275.987	336.16
276.448	301.05
276.908	329.14
277.369	279.99
277.829	289.35
278.289	256.58
278.75	319.78
279.21	319.78
279.67	261.26
280.13	317.44
280.59	324.46
281.05	277.65
281.51	352.54
281.97	326.8
282.43	308.07
282.89	275.31
283.35	359.56
283.809	284.67
284.269	350.2
284.729	359.56
285.188	277.65
285.648	319.78
286.107	272.96
286.567	254.24
287.026	319.78
287.485	317.44
287.944	291.69
288.404	371.27
288.863	310.41
289.322	301.05
289.781	350.2
290.24	338.5
290.699	294.03
291.158	258.92
291.616	333.82
292.075	315.09
292.534	305.73
292.992	385.31
293.451	340.84
293.91	237.86
294.368	354.88
294.827	336.16
295.285	319.78
295.743	324.46
296.202	333.82
296.66	237.86
297.118	308.07
297.576	301.05
298.034	251.9
298.492	247.22
298.95	282.33
299.408	308.07
299.866	347.86
300.324	345.52
300.781	296.37
301.239	310.41
301.697	265.94
302.154	301.05
302.612	261.26
303.069	303.39
303.527	357.22
303.984	301.05
304.441	301.05
304.899	322.12
305.356	305.73
305.813	324.46
306.27	305.73
306.727	315.09
307.184	268.28
307.641	322.12
308.098	359.56
308.555	312.75
309.012	308.07
309.468	336.16
309.925	315.09
310.382	338.5
310.838	399.35
311.295	308.07
311.751	284.67
312.208	275.31
312.664	375.95
313.12	354.88
313.577	345.52
314.033	272.96
314.489	324.46
314.945	287.01
315.401	378.29
315.857	331.48
316.313	329.14
316.769	326.8
317.225	345.52
317.681	291.69
318.136	310.41
318.592	301.05
319.048	294.03
319.503	303.39
319.959	310.41
320.414	310.41
320.869	352.54
321.325	277.65
321.78	380.63
322.235	254.24
322.691	244.88
323.146	331.48
323.601	378.29
324.056	336.16
324.511	305.73
324.966	277.65
325.421	277.65
325.875	319.78
326.33	294.03
326.785	331.48
327.24	350.2
327.694	354.88
328.149	338.5
328.603	301.05
329.058	268.28
329.512	361.91
329.966	317.44
330.421	305.73
330.875	310.41
331.329	359.56
331.783	265.94
332.237	294.03
332.691	303.39
333.145	319.78
333.599	315.09
334.053	375.95
334.507	338.5
334.96	329.14
335.414	305.73
335.868	312.75
336.321	357.22
336.775	272.96
337.228	380.63
337.682	350.2
338.135	361.91
338.588	352.54
339.042	343.18
339.495	331.48
339.948	301.05
340.401	317.44
340.854	312.75
341.307	434.46
341.76	357.22
342.213	361.91
342.666	308.07
343.119	333.82
343.571	357.22
344.024	287.01
344.477	317.44
344.929	303.39
345.382	350.2
345.834	343.18
346.287	336.16
346.739	294.03
347.191	272.96
347.644	352.54
348.096	350.2
348.548	326.8
349	282.33
349.452	347.86
349.904	294.03
350.356	324.46
350.808	373.61
351.26	287.01
351.711	319.78
352.163	301.05
352.615	340.84
353.066	275.31
353.518	312.75
353.969	315.09
354.421	315.09
354.872	287.01
355.324	301.05
355.775	324.46
356.226	350.2
356.677	308.07
357.128	331.48
357.579	296.37
358.03	326.8
358.481	282.33
358.932	359.56
359.383	343.18
359.834	294.03
360.285	312.75
360.735	263.6
361.186	347.86
361.637	256.58
362.087	319.78
362.538	319.78
362.988	361.91
363.438	324.46
363.889	329.14
364.339	366.59
364.789	385.31
365.239	359.56
365.689	354.88
366.139	375.95
366.589	282.33
367.039	366.59
367.489	272.96
367.939	326.8
368.389	315.09
368.839	357.22
369.288	287.01
369.738	324.46
370.187	279.99
370.637	294.03
371.086	324.46
371.536	345.52
371.985	420.42
372.434	345.52
372.884	357.22
373.333	340.84
373.782	317.44
374.231	340.84
374.68	322.12
375.129	371.27
375.578	366.59
376.027	317.44
376.475	277.65
376.924	310.41
377.373	289.35
377.822	357.22
378.27	312.75
378.719	298.71
379.167	305.73
379.616	317.44
380.064	366.59
380.512	272.96
380.961	317.44
381.409	336.16
381.857	331.48
382.305	249.56
382.753	319.78
383.201	284.67
383.649	326.8
384.097	324.46
384.545	298.71
384.992	287.01
385.44	343.18
385.888	340.84
386.335	289.35
386.783	308.07
387.231	326.8
387.678	303.39
388.125	324.46
388.573	336.16
389.02	331.48
389.467	406.38
389.914	329.14
390.362	331.48
390.809	317.44
391.256	329.14
391.703	371.27
392.15	333.82
392.596	301.05
393.043	326.8
393.49	305.73
393.937	322.12
394.383	284.67
394.83	361.91
395.276	336.16
395.723	331.48
396.169	315.09
396.616	296.37
397.062	312.75
397.508	312.75
397.954	324.46
398.401	326.8
398.847	289.35
399.293	404.03
399.739	319.78
400.185	308.07
400.631	284.67
401.076	382.97
401.522	347.86
401.968	277.65
402.414	345.52
402.859	315.09
403.305	345.52
403.75	343.18
404.196	312.75
404.641	317.44
405.086	378.29
405.532	345.52
405.977	392.33
406.422	315.09
406.867	354.88
407.312	329.14
407.757	317.44
408.202	322.12
408.647	322.12
409.092	312.75
409.537	282.33
409.982	317.44
410.426	315.09
410.871	301.05
411.316	254.24
411.76	385.31
412.205	354.88
412.649	322.12
413.093	277.65
413.538	389.99
413.982	310.41
414.426	336.16
414.87	319.78
415.314	340.84
415.758	317.44
416.202	282.33
416.646	317.44
417.09	366.59
417.534	296.37
417.978	322.12
418.421	371.27
418.865	350.2
419.309	305.73
419.752	340.84
420.196	319.78
420.639	289.35
421.083	263.6
421.526	368.93
421.969	347.86
422.412	324.46
422.856	331.48
423.299	333.82
423.742	296.37
424.185	333.82
424.628	340.84
425.071	343.18
425.513	308.07
425.956	326.8
426.399	378.29
426.842	319.78
427.284	378.29
427.727	312.75
428.169	340.84
428.612	347.86
429.054	366.59
429.497	329.14
429.939	287.01
430.381	287.01
430.823	305.73
431.265	315.09
431.707	301.05
432.149	340.84
432.591	289.35
433.033	275.31
433.475	317.44
433.917	319.78
434.359	291.69
434.8	298.71
435.242	296.37
435.684	340.84
436.125	347.86
436.567	310.41
437.008	331.48
437.449	308.07
437.891	277.65
438.332	296.37
438.773	287.01
439.214	361.91
439.656	350.2
440.097	303.39
440.538	284.67
440.978	317.44
441.419	322.12
441.86	319.78
442.301	315.09
442.742	324.46
443.182	350.2
443.623	301.05
444.063	333.82
444.504	326.8
444.944	350.2
445.385	305.73
445.825	338.5
446.265	368.93
446.706	326.8
447.146	310.41
447.586	322.12
448.026	366.59
448.466	324.46
448.906	336.16
449.346	319.78
449.786	319.78
450.225	366.59
450.665	350.2
451.105	373.61
451.544	352.54
451.984	296.37
452.424	375.95
452.863	333.82
453.302	303.39
453.742	345.52
454.181	275.31
454.62	315.09
455.059	373.61
455.499	319.78
455.938	289.35
456.377	296.37
456.816	336.16
457.254	326.8
457.693	301.05
458.132	303.39
458.571	425.1
459.01	336.16
459.448	275.31
459.887	329.14
460.325	352.54
460.764	263.6
461.202	284.67
461.641	338.5
462.079	329.14
462.517	373.61
462.955	291.69
463.393	310.41
463.832	310.41
464.27	319.78
464.708	317.44
465.145	352.54
465.583	287.01
466.021	287.01
466.459	319.78
466.897	298.71
467.334	350.2
467.772	303.39
468.209	350.2
468.647	385.31
469.084	298.71
469.522	315.09
469.959	324.46
470.396	343.18
470.833	333.82
471.271	350.2
471.708	382.97
472.145	275.31
472.582	382.97
473.019	392.33
473.456	357.22
473.892	326.8
474.329	366.59
474.766	312.75
475.202	275.31
475.639	305.73
476.076	359.56
476.512	352.54
476.949	310.41
477.385	361.91
477.821	350.2
478.258	315.09
478.694	294.03
479.13	319.78
479.566	359.56
480.002	380.63
480.438	298.71
480.874	301.05
481.31	333.82
481.746	357.22
482.181	331.48
482.617	336.16
483.053	296.37
483.488	364.25
483.924	282.33
484.36	371.27
484.795	284.67
485.23	294.03
485.666	326.8
486.101	347.86
486.536	331.48
486.971	301.05
487.407	347.86
487.842	340.84
488.277	347.86
488.712	296.37
489.146	329.14
489.581	272.96
490.016	347.86
490.451	296.37
490.885	326.8
491.32	244.88
491.755	371.27
492.189	333.82
492.624	359.56
493.058	312.75
493.492	329.14
493.927	326.8
494.361	284.67
494.795	343.18
495.229	324.46
495.663	333.82
496.097	354.88
496.531	357.22
496.965	364.25
497.399	289.35
497.833	345.52
498.266	284.67
498.7	315.09
499.134	373.61
499.567	340.84
500.001	294.03
500.434	282.33
500.868	317.44
501.301	354.88
501.734	352.54
502.168	361.91
502.601	338.5
503.034	331.48
503.467	340.84
503.9	298.71
504.333	322.12
504.766	315.09
505.199	347.86
505.632	333.82
506.064	368.93
506.497	371.27
506.93	326.8
507.362	329.14
507.795	303.39
508.227	305.73
508.66	345.52
509.092	336.16
509.524	272.96
509.956	385.31
510.389	294.03
510.821	340.84
511.253	331.48
511.685	315.09
512.117	385.31
512.549	329.14
512.981	338.5
513.412	329.14
513.844	270.62
514.276	450.85
514.707	301.05
515.139	347.86
515.571	272.96
516.002	294.03
516.433	343.18
516.865	287.01
517.296	282.33
517.727	436.8
518.159	394.67
518.59	284.67
519.021	294.03
519.452	310.41
519.883	350.2
520.314	343.18
520.744	305.73
521.175	385.31
521.606	352.54
522.037	305.73
522.467	340.84
522.898	317.44
523.328	441.48
523.759	354.88
524.189	298.71
524.62	347.86
525.05	289.35
525.48	380.63
525.91	340.84
526.341	312.75
526.771	324.46
527.201	336.16
527.631	406.38
528.061	371.27
528.49	338.5
528.92	289.35
529.35	298.71
529.78	366.59
530.209	368.93
530.639	371.27
531.068	326.8
531.498	354.88
531.927	333.82
532.357	371.27
532.786	378.29
533.215	425.1
533.644	298.71
534.074	354.88
534.503	289.35
534.932	333.82
535.361	296.37
535.79	387.65
536.218	279.99
536.647	275.31
537.076	401.69
537.505	326.8
537.933	291.69
538.362	265.94
538.79	324.46
539.219	392.33
539.647	322.12
540.076	343.18
540.504	357.22
540.932	312.75
541.36	345.52
541.788	324.46
542.217	322.12
542.645	385.31
543.073	333.82
543.5	322.12
543.928	322.12
544.356	380.63
544.784	361.91
545.211	284.67
545.639	268.28
546.067	329.14
546.494	322.12
546.922	279.99
547.349	380.63
547.776	397.01
548.204	352.54
548.631	310.41
549.058	336.16
549.485	298.71
549.912	347.86
550.339	317.44
550.766	343.18
551.193	312.75
551.62	317.44
552.047	310.41
552.474	336.16
552.9	233.18
553.327	333.82
553.754	317.44
554.18	310.41
554.607	336.16
555.033	336.16
555.459	397.01
555.886	345.52
556.312	315.09
556.738	350.2
557.164	298.71
557.59	352.54
558.016	350.2
558.442	406.38
558.868	352.54
559.294	382.97
559.72	354.88
560.145	305.73
560.571	371.27
560.997	354.88
561.422	359.56
561.848	322.12
562.273	317.44
562.699	322.12
563.124	326.8
563.549	385.31
563.974	361.91
564.4	298.71
564.825	333.82
565.25	317.44
565.675	333.82
566.1	336.16
566.525	308.07
566.95	336.16
567.374	270.62
567.799	350.2
568.224	289.35
568.648	294.03
569.073	294.03
569.497	326.8
569.922	324.46
570.346	279.99
570.771	301.05
571.195	375.95
571.619	373.61
572.043	298.71
572.467	340.84
572.891	319.78
573.315	301.05
573.739	354.88
574.163	359.56
574.587	333.82
575.011	305.73
575.435	324.46
575.858	298.71
576.282	352.54
576.705	373.61
577.129	350.2
577.552	317.44
577.976	303.39
578.399	298.71
578.822	317.44
579.245	338.5
579.669	350.2
580.092	319.78
580.515	340.84
580.938	354.88
581.361	347.86
581.784	277.65
582.206	310.41
582.629	375.95
583.052	378.29
583.474	287.01
583.897	406.38
584.32	352.54
584.742	329.14
585.165	380.63
585.587	251.9
586.009	361.91
586.431	303.39
586.854	333.82
587.276	312.75
587.698	256.58
588.12	336.16
588.542	315.09
588.964	312.75
589.386	366.59
589.807	408.72
590.229	303.39
590.651	345.52
591.073	394.67
591.494	310.41
591.916	326.8
592.337	357.22
592.759	284.67
593.18	296.37
593.601	357.22
594.022	331.48
594.444	282.33
594.865	315.09
595.286	284.67
595.707	282.33
596.128	305.73
596.549	329.14
596.97	392.33
597.39	371.27
597.811	291.69
598.232	289.35
598.652	329.14
599.073	345.52
599.494	345.52
599.914	301.05
600.334	350.2
600.755	361.91
601.175	401.69
601.595	345.52
602.015	324.46
602.436	333.82
602.856	373.61
603.276	308.07
603.696	312.75
604.115	303.39
604.535	308.07
604.955	401.69
605.375	336.16
605.794	343.18
606.214	263.6
606.634	354.88
607.053	336.16
607.473	354.88
607.892	256.58
608.311	301.05
608.731	382.97
609.15	298.71
609.569	312.75
609.988	333.82
610.407	291.69
610.826	265.94
611.245	401.69
611.664	287.01
612.083	354.88
612.501	287.01
612.92	319.78
613.339	331.48
613.757	308.07
614.176	312.75
614.594	322.12
615.013	333.82
615.431	254.24
615.85	289.35
616.268	305.73
616.686	329.14
617.104	312.75
617.522	310.41
617.94	270.62
618.358	359.56
618.776	287.01
619.194	333.82
619.612	282.33
620.03	336.16
620.447	305.73
620.865	378.29
621.282	340.84
621.7	418.08
622.117	322.12
622.535	331.48
622.952	380.63
623.369	324.46
623.787	345.52
624.204	380.63
624.621	296.37
625.038	294.03
625.455	317.44
625.872	354.88
626.289	284.67
626.706	275.31
627.123	310.41
627.539	289.35
627.956	415.74
628.373	277.65
628.789	296.37
629.206	268.28
629.622	289.35
630.038	380.63
630.455	284.67
630.871	270.62
631.287	298.71
631.703	345.52
632.12	298.71
632.536	301.05
632.952	265.94
633.368	354.88
633.783	317.44
634.199	378.29
634.615	333.82
635.031	343.18
635.446	354.88
635.862	350.2
636.277	347.86
636.693	368.93
637.108	382.97
637.524	294.03
637.939	315.09
638.354	347.86
638.77	333.82
639.185	345.52
639.6	291.69
640.015	373.61
640.43	343.18
640.845	368.93
641.259	317.44
641.674	272.96
642.089	340.84
642.504	279.99
642.918	329.14
643.333	354.88
643.747	315.09
644.162	324.46
644.576	312.75
644.991	357.22
645.405	359.56
645.819	406.38
646.233	322.12
646.647	315.09
647.061	310.41
647.475	366.59
647.889	282.33
648.303	258.92
648.717	326.8
649.131	305.73
649.545	361.91
649.958	315.09
650.372	364.25
650.785	350.2
651.199	298.71
651.612	336.16
652.026	364.25
652.439	340.84
652.852	287.01
653.266	265.94
653.679	331.48
654.092	284.67
654.505	385.31
654.918	411.06
655.331	287.01
655.744	329.14
656.156	343.18
656.569	389.99
656.982	303.39
657.394	284.67
657.807	366.59
658.22	303.39
658.632	382.97
659.044	315.09
659.457	333.82
659.869	347.86
660.281	315.09
660.693	308.07
661.106	275.31
661.518	331.48
661.93	408.72
662.342	322.12
662.754	289.35
663.165	338.5
663.577	324.46
663.989	350.2
664.401	301.05
664.812	298.71
665.224	315.09
665.635	317.44
666.047	343.18
666.458	375.95
666.869	387.65
667.281	336.16
667.692	368.93
668.103	397.01
668.514	319.78
668.925	310.41
669.336	336.16
669.747	352.54
670.158	371.27
670.569	347.86
670.979	380.63
671.39	326.8
671.801	340.84
672.211	265.94
672.622	282.33
673.032	340.84
673.443	326.8
673.853	305.73
674.263	347.86
674.674	347.86
675.084	333.82
675.494	303.39
675.904	331.48
676.314	296.37
676.724	315.09
677.134	317.44
677.544	338.5
677.953	399.35
678.363	322.12
678.773	387.65
679.182	322.12
679.592	347.86
680.001	261.26
680.411	343.18
680.82	343.18
681.23	329.14
681.639	394.67
682.048	279.99
682.457	368.93
682.866	284.67
683.275	296.37
683.684	282.33
684.093	354.88
684.502	268.28
684.911	315.09
685.32	289.35
685.728	347.86
686.137	312.75
686.546	265.94
686.954	289.35
687.363	359.56
687.771	324.46
688.179	338.5
688.588	361.91
688.996	322.12
689.404	329.14
689.812	322.12
690.22	329.14
690.628	312.75
691.036	315.09
691.444	361.91
691.852	305.73
692.26	305.73
692.667	305.73
693.075	312.75
693.483	326.8
693.89	340.84
694.298	298.71
694.705	303.39
695.112	310.41
695.52	312.75
695.927	347.86
696.334	336.16
696.741	319.78
697.148	329.14
697.555	291.69
697.962	291.69
698.369	336.16
698.776	301.05
699.183	343.18
699.59	361.91
699.996	263.6
700.403	312.75
700.81	207.43
701.216	345.52
701.623	317.44
702.029	310.41
702.435	324.46
702.842	329.14
703.248	331.48
703.654	275.31
704.06	389.99
704.466	340.84
704.872	324.46
705.278	357.22
705.684	361.91
706.09	298.71
706.496	329.14
706.901	382.97
707.307	319.78
707.712	317.44
708.118	312.75
708.523	371.27
708.929	382.97
709.334	319.78
709.74	303.39
710.145	366.59
710.55	368.93
710.955	308.07
711.36	352.54
711.765	291.69
712.17	352.54
712.575	329.14
712.98	874.48
713.385	373.61
713.789	310.41
714.194	378.29
714.599	301.05
715.003	296.37
715.408	233.18
715.812	296.37
716.217	329.14
716.621	338.5
717.025	312.75
717.429	322.12
717.833	326.8
718.238	352.54
718.642	310.41
719.046	301.05
719.449	343.18
719.853	303.39
720.257	303.39
720.661	315.09
721.065	305.73
721.468	275.31
721.872	305.73
722.275	408.72
722.679	308.07
723.082	364.25
723.485	319.78
723.889	359.56
724.292	294.03
724.695	294.03
725.098	331.48
725.501	329.14
725.904	291.69
726.307	333.82
726.71	310.41
727.113	357.22
727.516	333.82
727.918	366.59
728.321	345.52
728.724	333.82
729.126	333.82
729.529	326.8
729.931	338.5
730.333	251.9
730.736	308.07
731.138	317.44
731.54	368.93
731.942	305.73
732.344	350.2
732.746	265.94
733.148	294.03
733.55	305.73
733.952	336.16
734.354	333.82
734.756	268.28
735.157	301.05
735.559	336.16
735.96	336.16
736.362	354.88
736.763	298.71
737.165	338.5
737.566	336.16
737.967	397.01
738.368	411.06
738.77	294.03
739.171	399.35
739.572	336.16
739.973	319.78
740.374	303.39
740.774	324.46
741.175	331.48
741.576	317.44
741.977	310.41
742.377	319.78
742.778	340.84
743.178	366.59
743.579	298.71
743.979	422.76
744.379	352.54
744.78	333.82
745.18	329.14
745.58	364.25
745.98	338.5
746.38	308.07
746.78	284.67
747.18	301.05
747.58	331.48
747.98	338.5
748.38	289.35
748.779	296.37
749.179	347.86
749.578	258.92
749.978	296.37
750.377	359.56
750.777	303.39
751.176	287.01
751.575	340.84
751.975	326.8
752.374	329.14
752.773	305.73
753.172	368.93
753.571	361.91
753.97	354.88
754.369	305.73
754.768	275.31
755.166	310.41
755.565	322.12
755.964	270.62
756.362	312.75
756.761	324.46
757.159	329.14
757.558	291.69
757.956	298.71
758.354	427.44
758.753	336.16
759.151	296.37
759.549	319.78
759.947	382.97
760.345	326.8
760.743	340.84
761.141	312.75
761.539	263.6
761.936	322.12
762.334	322.12
762.732	305.73
763.129	329.14
763.527	357.22
763.924	310.41
764.322	347.86
764.719	368.93
765.117	296.37
765.514	366.59
765.911	319.78
766.308	343.18
766.705	287.01
767.102	340.84
767.499	319.78
767.896	324.46
768.293	303.39
768.69	336.16
769.086	333.82
769.483	296.37
769.88	331.48
770.276	319.78
770.673	308.07
771.069	364.25
771.466	378.29
771.862	352.54
772.258	371.27
772.654	294.03
773.05	270.62
773.447	333.82
773.843	340.84
774.239	261.26
774.634	333.82
775.03	308.07
775.426	275.31
775.822	296.37
776.218	331.48
776.613	345.52
777.009	382.97
777.404	357.22
777.8	251.9
778.195	310.41
778.59	340.84
778.986	284.67
779.381	333.82
779.776	340.84
780.171	305.73
780.566	315.09
780.961	333.82
781.356	298.71
781.751	333.82
782.146	336.16
782.54	279.99
782.935	326.8
783.33	308.07
783.724	303.39
784.119	359.56
784.513	382.97
784.908	294.03
785.302	284.67
785.696	343.18
786.09	352.54
786.485	326.8
786.879	310.41
787.273	333.82
787.667	368.93
788.061	350.2
788.454	289.35
788.848	301.05
789.242	345.52
789.636	338.5
790.029	343.18
790.423	326.8
790.816	343.18
791.21	364.25
791.603	315.09
791.997	354.88
792.39	340.84
792.783	350.2
793.176	401.69
793.569	279.99
793.962	345.52
794.355	333.82
794.748	357.22
795.141	303.39
795.534	265.94
795.927	308.07
796.319	275.31
796.712	287.01
797.105	277.65
797.497	296.37
797.89	350.2
798.282	338.5
798.674	322.12
799.067	298.71
799.459	350.2
799.851	361.91
800.243	352.54
800.635	343.18
801.027	415.74
801.419	375.95
801.811	317.44
802.203	322.12
802.594	350.2
802.986	324.46
803.378	319.78
803.769	265.94
804.161	338.5
804.552	347.86
804.944	298.71
805.335	366.59
805.726	343.18
806.118	263.6
806.509	319.78
806.9	359.56
807.291	319.78
807.682	294.03
808.073	277.65
808.464	329.14
808.855	361.91
809.245	357.22
809.636	338.5
810.027	312.75
810.417	315.09
810.808	345.52
811.198	305.73
811.589	380.63
811.979	296.37
812.369	345.52
812.759	275.31
813.15	317.44
813.54	331.48
813.93	326.8
814.32	359.56
814.71	301.05
815.1	317.44
815.489	329.14
815.879	382.97
816.269	333.82
816.658	263.6
817.048	279.99
817.438	282.33
817.827	312.75
818.216	401.69
818.606	329.14
818.995	312.75
819.384	310.41
819.773	310.41
820.163	392.33
820.552	305.73
820.941	324.46
821.33	301.05
821.718	305.73
822.107	331.48
822.496	359.56
822.885	322.12
823.273	352.54
823.662	326.8
824.05	315.09
824.439	329.14
824.827	324.46
825.216	317.44
825.604	345.52
825.992	359.56
826.38	268.28
826.768	354.88
827.156	298.71
827.544	289.35
827.932	329.14
828.32	298.71
828.708	387.65
829.096	303.39
829.483	265.94
829.871	347.86
830.259	336.16
830.646	338.5
831.034	333.82
831.421	301.05
831.808	310.41
832.196	359.56
832.583	338.5
832.97	294.03
833.357	343.18
833.744	277.65
834.131	291.69
834.518	357.22
834.905	277.65
835.292	354.88
835.678	303.39
836.065	315.09
836.452	357.22
836.838	326.8
837.225	322.12
837.611	324.46
837.998	275.31
838.384	258.92
838.77	303.39
839.157	315.09
839.543	294.03
839.929	329.14
840.315	373.61
840.701	272.96
841.087	336.16
841.473	361.91
841.858	329.14
842.244	284.67
842.63	343.18
843.015	312.75
843.401	364.25
843.787	338.5
844.172	343.18
844.557	354.88
844.943	357.22
845.328	350.2
845.713	357.22
846.098	303.39
846.483	378.29
846.868	329.14
847.253	272.96
847.638	375.95
848.023	375.95
848.408	315.09
848.793	352.54
849.177	324.46
849.562	310.41
849.947	296.37
850.331	279.99
850.715	350.2
851.1	392.33
851.484	399.35
851.868	312.75
852.253	368.93
852.637	310.41
853.021	317.44
853.405	317.44
853.789	329.14
854.173	319.78
854.557	305.73
854.94	326.8
855.324	373.61
855.708	343.18
856.091	249.56
856.475	298.71
856.858	322.12
857.242	303.39
857.625	256.58
858.009	368.93
858.392	336.16
858.775	268.28
859.158	343.18
859.541	343.18
859.924	296.37
860.307	364.25
860.69	312.75
861.073	312.75
861.456	340.84
861.838	368.93
862.221	317.44
862.604	329.14
862.986	343.18
863.369	329.14
863.751	347.86
864.133	364.25
864.516	324.46
864.898	317.44
865.28	347.86
865.662	338.5
866.044	331.48
866.426	317.44
866.808	294.03
867.19	263.6
867.572	310.41
867.954	277.65
868.336	298.71
868.717	287.01
869.099	338.5
869.48	338.5
869.862	331.48
870.243	308.07
870.625	294.03
871.006	333.82
871.387	282.33
871.768	347.86
872.149	317.44
872.53	343.18
872.911	322.12
873.292	357.22
873.673	319.78
874.054	359.56
874.435	425.1
874.815	301.05
875.196	268.28
875.577	305.73
875.957	404.03
876.338	366.59
876.718	319.78
877.098	359.56
877.479	350.2
877.859	254.24
878.239	329.14
878.619	347.86
878.999	324.46
879.379	244.88
879.759	272.96
880.139	305.73
880.519	324.46
880.898	303.39
881.278	333.82
881.658	319.78
882.037	303.39
882.417	345.52
882.796	258.92
883.176	317.44
883.555	329.14
883.934	282.33
884.313	308.07
884.693	312.75
885.072	303.39
885.451	361.91
885.83	305.73
886.209	326.8
886.587	371.27
886.966	333.82
887.345	303.39
887.724	345.52
888.102	298.71
888.481	364.25
888.859	303.39
889.238	315.09
889.616	354.88
889.994	312.75
890.373	308.07
890.751	287.01
891.129	359.56
891.507	340.84
891.885	338.5
892.263	359.56
892.641	270.62
893.019	324.46
893.396	361.91
893.774	380.63
894.152	319.78
894.529	312.75
894.907	336.16
895.284	317.44
895.662	312.75
896.039	315.09
896.416	315.09
896.794	331.48
897.171	275.31
897.548	333.82
897.925	364.25
898.302	317.44
898.679	268.28
899.056	389.99
899.433	308.07
899.809	378.29
900.186	303.39
900.563	308.07
900.939	378.29
901.316	340.84
901.692	272.96
902.069	287.01
902.445	397.01
902.821	329.14
903.197	371.27
903.574	385.31
903.95	251.9
904.326	343.18
904.702	268.28
905.078	336.16
905.454	375.95
905.829	289.35
906.205	312.75
906.581	322.12
906.956	326.8
907.332	296.37
907.707	326.8
908.083	357.22
908.458	301.05
908.833	289.35
909.209	354.88
909.584	298.71
909.959	338.5
910.334	301.05
910.709	429.78
911.084	298.71
911.459	373.61
911.834	296.37
912.209	357.22
912.583	326.8
912.958	303.39
913.333	345.52
913.707	294.03
914.082	296.37
914.456	368.93
914.83	296.37
915.205	326.8
915.579	282.33
915.953	331.48
916.327	338.5
916.701	294.03
917.075	336.16
917.449	272.96
917.823	357.22
918.197	329.14
918.571	263.6
918.944	279.99
919.318	310.41
919.692	366.59
920.065	287.01
920.438	329.14
920.812	364.25
921.185	319.78
921.558	282.33
921.932	303.39
922.305	310.41
922.678	294.03
923.051	282.33
923.424	324.46
923.797	352.54
924.17	319.78
924.542	301.05
924.915	305.73
925.288	350.2
925.661	336.16
926.033	324.46
926.406	310.41
926.778	317.44
927.15	338.5
927.523	326.8
927.895	345.52
928.267	352.54
928.639	261.26
929.011	310.41
929.383	322.12
929.755	336.16
930.127	275.31
930.499	308.07
930.871	371.27
931.242	258.92
931.614	350.2
931.986	282.33
932.357	289.35
932.729	275.31
933.1	298.71
933.471	296.37
933.843	301.05
934.214	373.61
934.585	305.73
934.956	270.62
935.327	322.12
935.698	329.14
936.069	326.8
936.44	350.2
936.811	336.16
937.182	329.14
937.552	357.22
937.923	289.35
938.293	287.01
938.664	331.48
939.034	389.99
939.405	310.41
939.775	387.65
940.145	312.75
940.516	315.09
940.886	364.25
941.256	282.33
941.626	333.82
941.996	324.46
942.366	326.8
942.735	382.97
943.105	310.41
943.475	359.56
943.845	425.1
944.214	298.71
944.584	308.07
944.953	329.14
945.323	310.41
945.692	324.46
946.061	308.07
946.43	322.12
946.8	324.46
947.169	343.18
947.538	331.48
947.907	345.52
948.276	347.86
948.645	284.67
949.013	340.84
949.382	305.73
949.751	354.88
950.119	324.46
950.488	338.5
950.857	305.73
951.225	387.65
951.593	303.39
951.962	294.03
952.33	450.85
952.698	303.39
953.066	324.46
953.434	329.14
953.802	333.82
954.17	291.69
954.538	352.54
954.906	354.88
955.274	287.01
955.642	279.99
956.009	315.09
956.377	312.75
956.744	345.52
957.112	284.67
957.479	350.2
957.847	331.48
958.214	347.86
958.581	359.56
958.948	389.99
959.315	310.41
959.683	315.09
960.05	301.05
960.416	287.01
960.783	298.71
961.15	282.33
961.517	308.07
961.884	301.05
962.25	368.93
962.617	265.94
962.983	305.73
963.35	265.94
963.716	305.73
964.082	315.09
964.449	347.86
964.815	354.88
965.181	301.05
965.547	336.16
965.913	265.94
966.279	296.37
966.645	354.88
967.011	329.14
967.377	308.07
967.742	375.95
968.108	312.75
968.474	359.56
968.839	343.18
969.205	270.62
969.57	296.37
969.935	272.96
970.301	343.18
970.666	312.75
971.031	350.2
971.396	345.52
971.761	338.5
972.126	270.62
972.491	324.46
972.856	324.46
973.221	312.75
973.586	338.5
973.95	350.2
974.315	331.48
974.679	326.8
975.044	296.37
975.408	371.27
975.773	235.52
976.137	324.46
976.501	322.12
976.866	303.39
977.23	303.39
977.594	310.41
977.958	303.39
978.322	258.92
978.686	338.5
979.049	333.82
979.413	333.82
979.777	296.37
980.141	359.56
980.504	371.27
980.868	359.56
981.231	275.31
981.595	303.39
981.958	366.59
982.321	308.07
982.684	301.05
983.048	347.86
983.411	385.31
983.774	347.86
984.137	354.88
984.5	329.14
984.862	296.37
985.225	366.59
985.588	305.73
985.951	336.16
986.313	329.14
986.676	354.88
987.038	347.86
987.401	270.62
987.763	275.31
988.125	272.96
988.488	373.61
988.85	357.22
989.212	308.07
989.574	282.33
989.936	380.63
990.298	406.38
990.66	268.28
991.022	270.62
991.383	329.14
991.745	279.99
992.107	329.14
992.468	242.54
992.83	350.2
993.191	319.78
993.553	368.93
993.914	305.73
994.275	382.97
994.637	333.82
994.998	394.67
995.359	282.33
995.72	350.2
996.081	298.71
996.442	317.44
996.803	268.28
997.163	254.24
997.524	310.41
997.885	322.12
998.245	368.93
998.606	294.03
998.966	324.46
999.327	343.18
999.687	343.18
1000.047	329.14
1000.408	319.78
1000.768	312.75
1001.128	336.16
1001.488	247.22
1001.848	319.78
1002.208	385.31
1002.568	385.31
1002.927	359.56
1003.287	375.95
1003.647	366.59
1004.007	329.14
1004.366	338.5
1004.726	338.5
1005.085	375.95
1005.444	319.78
1005.804	338.5
1006.163	343.18
1006.522	315.09
1006.881	254.24
1007.24	310.41
1007.599	291.69
1007.958	359.56
1008.317	322.12
1008.676	310.41
1009.035	338.5
1009.393	333.82
1009.752	352.54
1010.111	310.41
1010.469	249.56
1010.828	296.37
1011.186	364.25
1011.544	326.8
1011.903	361.91
1012.261	279.99
1012.619	373.61
1012.977	392.33
1013.335	401.69
1013.693	345.52
1014.051	312.75
1014.409	331.48
1014.767	289.35
1015.124	209.77
1015.482	322.12
1015.84	287.01
1016.197	343.18
1016.555	298.71
1016.912	333.82
1017.269	338.5
1017.627	284.67
1017.984	317.44
1018.341	298.71
1018.698	251.9
1019.055	329.14
1019.412	305.73
1019.769	270.62
1020.126	373.61
1020.483	373.61
1020.84	352.54
1021.196	345.52
1021.553	317.44
1021.909	312.75
1022.266	303.39
1022.622	364.25
1022.979	326.8
1023.335	373.61
1023.691	287.01
1024.047	357.22
1024.404	322.12
1024.76	336.16
1025.116	312.75
1025.472	284.67
1025.827	371.27
1026.183	282.33
1026.539	340.84
1026.895	329.14
1027.25	287.01
1027.606	279.99
1027.961	319.78
1028.317	258.92
1028.672	371.27
1029.028	373.61
1029.383	308.07
1029.738	338.5
1030.093	331.48
1030.448	392.33
1030.803	340.84
1031.158	322.12
1031.513	287.01
1031.868	319.78
1032.223	406.38
1032.577	324.46
1032.932	268.28
1033.287	308.07
1033.641	343.18
1033.996	333.82
1034.35	298.71
1034.704	312.75
1035.059	322.12
1035.413	322.12
1035.767	322.12
1036.121	322.12
