Data from Al_FLMS009871__1211__16-42-06-880.txt Node

Date: Fri Mar 08 16:42:06 CST 2024
User: pe5414po
Spectrometer: FLMS00987
Trigger mode: 0
Integration Time (sec): 1.000000E-1
Scans to average: 1
Electric dark correction enabled: true
Nonlinearity correction enabled: false
Boxcar width: 0
XAxis mode: Wavelengths
Number of Pixels in Spectrum: 2048
>>>>>Begin Spectral Data<<<<<
188.938	-54.71
189.409	-54.71
189.879	-54.71
190.349	-101.52
190.819	-89.82
191.29	-202.16
191.76	-50.03
192.23	-57.05
192.7	-89.82
193.17	-78.12
193.64	-35.99
194.109	-45.35
194.579	17.85
195.049	-40.67
195.519	10.82
195.988	88.06
196.458	83.38
196.927	55.3
197.397	99.77
197.866	144.24
198.336	99.77
198.805	167.64
199.274	153.6
199.744	249.56
200.213	212.11
200.682	230.84
201.151	275.31
201.62	226.15
202.089	254.24
202.558	188.71
203.027	249.56
203.495	324.46
203.964	303.39
204.433	345.52
204.902	308.07
205.37	329.14
205.839	333.82
206.307	319.78
206.776	308.07
207.244	303.39
207.712	247.22
208.181	319.78
208.649	382.97
209.117	354.88
209.585	305.73
210.053	361.91
210.521	308.07
210.989	303.39
211.457	275.31
211.925	329.14
212.393	263.6
212.861	279.99
213.328	235.52
213.796	310.41
214.264	354.88
214.731	345.52
215.199	345.52
215.666	289.35
216.133	317.44
216.601	265.94
217.068	256.58
217.535	322.12
218.003	251.9
218.47	303.39
218.937	282.33
219.404	301.05
219.871	254.24
220.338	251.9
220.805	230.84
221.271	256.58
221.738	312.75
222.205	284.67
222.671	308.07
223.138	310.41
223.605	268.28
224.071	249.56
224.538	230.84
225.004	294.03
225.47	284.67
225.937	268.28
226.403	343.18
226.869	338.5
227.335	291.69
227.801	272.96
228.267	329.14
228.733	277.65
229.199	308.07
229.665	350.2
230.131	308.07
230.597	209.77
231.062	301.05
231.528	298.71
231.994	338.5
232.459	303.39
232.925	301.05
233.39	279.99
233.856	237.86
234.321	308.07
234.786	291.69
235.252	228.49
235.717	303.39
236.182	296.37
236.647	331.48
237.112	317.44
237.577	263.6
238.042	319.78
238.507	249.56
238.972	310.41
239.436	368.93
239.901	233.18
240.366	270.62
240.83	291.69
241.295	326.8
241.76	343.18
242.224	336.16
242.688	336.16
243.153	350.2
243.617	294.03
244.081	296.37
244.545	284.67
245.01	303.39
245.474	268.28
245.938	310.41
246.402	338.5
246.866	324.46
247.33	282.33
247.793	310.41
248.257	289.35
248.721	289.35
249.185	268.28
249.648	298.71
250.112	270.62
250.575	275.31
251.039	261.26
251.502	315.09
251.965	317.44
252.429	378.29
252.892	343.18
253.355	303.39
253.818	301.05
254.281	279.99
254.744	268.28
255.207	305.73
255.67	361.91
256.133	354.88
256.596	289.35
257.059	315.09
257.522	277.65
257.984	305.73
258.447	354.88
258.909	284.67
259.372	310.41
259.834	287.01
260.297	333.82
260.759	275.31
261.221	296.37
261.684	345.52
262.146	357.22
262.608	291.69
263.07	371.27
263.532	282.33
263.994	289.35
264.456	251.9
264.918	331.48
265.38	282.33
265.842	336.16
266.303	308.07
266.765	354.88
267.227	315.09
267.688	298.71
268.15	317.44
268.611	336.16
269.072	303.39
269.534	319.78
269.995	289.35
270.456	340.84
270.918	354.88
271.379	380.63
271.84	336.16
272.301	308.07
272.762	282.33
273.223	326.8
273.684	324.46
274.144	350.2
274.605	317.44
275.066	308.07
275.527	303.39
275.987	296.37
276.448	244.88
276.908	303.39
277.369	270.62
277.829	324.46
278.289	315.09
278.75	308.07
279.21	329.14
279.67	303.39
280.13	296.37
280.59	343.18
281.05	359.56
281.51	345.52
281.97	375.95
282.43	324.46
282.89	291.69
283.35	315.09
283.809	261.26
284.269	336.16
284.729	333.82
285.188	298.71
285.648	324.46
286.107	270.62
286.567	368.93
287.026	305.73
287.485	345.52
287.944	291.69
288.404	312.75
288.863	296.37
289.322	357.22
289.781	294.03
290.24	308.07
290.699	291.69
291.158	371.27
291.616	251.9
292.075	338.5
292.534	275.31
292.992	256.58
293.451	310.41
293.91	270.62
294.368	359.56
294.827	305.73
295.285	389.99
295.743	251.9
296.202	364.25
296.66	329.14
297.118	296.37
297.576	296.37
298.034	289.35
298.492	350.2
298.95	373.61
299.408	361.91
299.866	277.65
300.324	308.07
300.781	305.73
301.239	284.67
301.697	287.01
302.154	343.18
302.612	397.01
303.069	338.5
303.527	352.54
303.984	319.78
304.441	361.91
304.899	291.69
305.356	354.88
305.813	329.14
306.27	326.8
306.727	291.69
307.184	298.71
307.641	279.99
308.098	331.48
308.555	387.65
309.012	308.07
309.468	354.88
309.925	303.39
310.382	333.82
310.838	333.82
311.295	294.03
311.751	279.99
312.208	305.73
312.664	315.09
313.12	329.14
313.577	305.73
314.033	317.44
314.489	329.14
314.945	319.78
315.401	350.2
315.857	347.86
316.313	340.84
316.769	275.31
317.225	303.39
317.681	352.54
318.136	345.52
318.592	319.78
319.048	305.73
319.503	375.95
319.959	333.82
320.414	401.69
320.869	270.62
321.325	324.46
321.78	298.71
322.235	324.46
322.691	265.94
323.146	406.38
323.601	324.46
324.056	279.99
324.511	258.92
324.966	310.41
325.421	329.14
325.875	268.28
326.33	298.71
326.785	315.09
327.24	326.8
327.694	331.48
328.149	357.22
328.603	354.88
329.058	352.54
329.512	294.03
329.966	357.22
330.421	270.62
330.875	303.39
331.329	315.09
331.783	343.18
332.237	364.25
332.691	322.12
333.145	385.31
333.599	361.91
334.053	319.78
334.507	303.39
334.96	375.95
335.414	397.01
335.868	277.65
336.321	275.31
336.775	291.69
337.228	336.16
337.682	375.95
338.135	347.86
338.588	315.09
339.042	312.75
339.495	308.07
339.948	340.84
340.401	392.33
340.854	315.09
341.307	347.86
341.76	345.52
342.213	375.95
342.666	350.2
343.119	291.69
343.571	308.07
344.024	308.07
344.477	308.07
344.929	319.78
345.382	336.16
345.834	350.2
346.287	345.52
346.739	373.61
347.191	345.52
347.644	345.52
348.096	361.91
348.548	251.9
349	364.25
349.452	331.48
349.904	378.29
350.356	338.5
350.808	270.62
351.26	308.07
351.711	408.72
352.163	301.05
352.615	326.8
353.066	397.01
353.518	378.29
353.969	338.5
354.421	275.31
354.872	322.12
355.324	296.37
355.775	338.5
356.226	331.48
356.677	324.46
357.128	375.95
357.579	371.27
358.03	392.33
358.481	343.18
358.932	361.91
359.383	397.01
359.834	291.69
360.285	340.84
360.735	357.22
361.186	357.22
361.637	375.95
362.087	331.48
362.538	315.09
362.988	387.65
363.438	317.44
363.889	359.56
364.339	315.09
364.789	333.82
365.239	366.59
365.689	289.35
366.139	305.73
366.589	361.91
367.039	324.46
367.489	350.2
367.939	336.16
368.389	357.22
368.839	361.91
369.288	254.24
369.738	338.5
370.187	350.2
370.637	289.35
371.086	389.99
371.536	326.8
371.985	289.35
372.434	329.14
372.884	317.44
373.333	347.86
373.782	284.67
374.231	350.2
374.68	308.07
375.129	345.52
375.578	401.69
376.027	399.35
376.475	282.33
376.924	382.97
377.373	303.39
377.822	336.16
378.27	291.69
378.719	284.67
379.167	312.75
379.616	305.73
380.064	322.12
380.512	340.84
380.961	329.14
381.409	347.86
381.857	352.54
382.305	329.14
382.753	352.54
383.201	378.29
383.649	401.69
384.097	366.59
384.545	303.39
384.992	357.22
385.44	329.14
385.888	345.52
386.335	368.93
386.783	343.18
387.231	340.84
387.678	331.48
388.125	275.31
388.573	258.92
389.02	319.78
389.467	329.14
389.914	268.28
390.362	315.09
390.809	366.59
391.256	373.61
391.703	303.39
392.15	371.27
392.596	375.95
393.043	350.2
393.49	312.75
393.937	319.78
394.383	352.54
394.83	312.75
395.276	287.01
395.723	366.59
396.169	345.52
396.616	366.59
397.062	319.78
397.508	268.28
397.954	303.39
398.401	322.12
398.847	382.97
399.293	364.25
399.739	324.46
400.185	329.14
400.631	324.46
401.076	345.52
401.522	350.2
401.968	301.05
402.414	378.29
402.859	324.46
403.305	294.03
403.75	315.09
404.196	350.2
404.641	333.82
405.086	272.96
405.532	329.14
405.977	301.05
406.422	366.59
406.867	333.82
407.312	279.99
407.757	308.07
408.202	326.8
408.647	354.88
409.092	301.05
409.537	312.75
409.982	294.03
410.426	326.8
410.871	336.16
411.316	308.07
411.76	319.78
412.205	432.12
412.649	284.67
413.093	336.16
413.538	312.75
413.982	312.75
414.426	387.65
414.87	357.22
415.314	326.8
415.758	291.69
416.202	380.63
416.646	319.78
417.09	303.39
417.534	359.56
417.978	364.25
418.421	352.54
418.865	397.01
419.309	357.22
419.752	329.14
420.196	331.48
420.639	394.67
421.083	357.22
421.526	378.29
421.969	331.48
422.412	301.05
422.856	387.65
423.299	279.99
423.742	352.54
424.185	291.69
424.628	317.44
425.071	347.86
425.513	336.16
425.956	329.14
426.399	331.48
426.842	289.35
427.284	340.84
427.727	312.75
428.169	322.12
428.612	343.18
429.054	350.2
429.497	282.33
429.939	380.63
430.381	268.28
430.823	371.27
431.265	315.09
431.707	326.8
432.149	389.99
432.591	380.63
433.033	385.31
433.475	291.69
433.917	298.71
434.359	296.37
434.8	366.59
435.242	406.38
435.684	312.75
436.125	354.88
436.567	352.54
437.008	326.8
437.449	315.09
437.891	301.05
438.332	359.56
438.773	333.82
439.214	308.07
439.656	296.37
440.097	312.75
440.538	301.05
440.978	343.18
441.419	354.88
441.86	296.37
442.301	333.82
442.742	359.56
443.182	329.14
443.623	326.8
444.063	357.22
444.504	268.28
444.944	272.96
445.385	350.2
445.825	359.56
446.265	303.39
446.706	319.78
447.146	317.44
447.586	347.86
448.026	329.14
448.466	315.09
448.906	322.12
449.346	331.48
449.786	359.56
450.225	322.12
450.665	333.82
451.105	338.5
451.544	357.22
451.984	305.73
452.424	385.31
452.863	347.86
453.302	373.61
453.742	373.61
454.181	385.31
454.62	340.84
455.059	345.52
455.499	312.75
455.938	326.8
456.377	336.16
456.816	375.95
457.254	392.33
457.693	305.73
458.132	354.88
458.571	308.07
459.01	336.16
459.448	312.75
459.887	343.18
460.325	331.48
460.764	392.33
461.202	336.16
461.641	371.27
462.079	324.46
462.517	333.82
462.955	354.88
463.393	387.65
463.832	315.09
464.27	347.86
464.708	380.63
465.145	345.52
465.583	357.22
466.021	305.73
466.459	345.52
466.897	305.73
467.334	336.16
467.772	331.48
468.209	333.82
468.647	345.52
469.084	357.22
469.522	345.52
469.959	357.22
470.396	301.05
470.833	317.44
471.271	359.56
471.708	401.69
472.145	382.97
472.582	308.07
473.019	350.2
473.456	315.09
473.892	340.84
474.329	340.84
474.766	317.44
475.202	315.09
475.639	296.37
476.076	352.54
476.512	301.05
476.949	326.8
477.385	347.86
477.821	361.91
478.258	333.82
478.694	317.44
479.13	251.9
479.566	275.31
480.002	380.63
480.438	352.54
480.874	317.44
481.31	387.65
481.746	324.46
482.181	347.86
482.617	357.22
483.053	326.8
483.488	347.86
483.924	333.82
484.36	308.07
484.795	294.03
485.23	303.39
485.666	317.44
486.101	357.22
486.536	345.52
486.971	366.59
487.407	310.41
487.842	354.88
488.277	397.01
488.712	354.88
489.146	368.93
489.581	392.33
490.016	317.44
490.451	357.22
490.885	265.94
491.32	343.18
491.755	397.01
492.189	392.33
492.624	354.88
493.058	315.09
493.492	301.05
493.927	389.99
494.361	289.35
494.795	312.75
495.229	343.18
495.663	354.88
496.097	357.22
496.531	312.75
496.965	389.99
497.399	352.54
497.833	289.35
498.266	350.2
498.7	301.05
499.134	366.59
499.567	343.18
500.001	364.25
500.434	329.14
500.868	345.52
501.301	401.69
501.734	329.14
502.168	345.52
502.601	312.75
503.034	312.75
503.467	326.8
503.9	392.33
504.333	345.52
504.766	371.27
505.199	343.18
505.632	298.71
506.064	303.39
506.497	336.16
506.93	329.14
507.362	375.95
507.795	312.75
508.227	310.41
508.66	340.84
509.092	303.39
509.524	265.94
509.956	305.73
510.389	354.88
510.821	343.18
511.253	352.54
511.685	361.91
512.117	291.69
512.549	326.8
512.981	324.46
513.412	404.03
513.844	347.86
514.276	336.16
514.707	354.88
515.139	399.35
515.571	425.1
516.002	279.99
516.433	265.94
516.865	336.16
517.296	404.03
517.727	371.27
518.159	298.71
518.59	361.91
519.021	364.25
519.452	331.48
519.883	329.14
520.314	340.84
520.744	446.16
521.175	373.61
521.606	385.31
522.037	317.44
522.467	343.18
522.898	352.54
523.328	312.75
523.759	373.61
524.189	331.48
524.62	291.69
525.05	366.59
525.48	305.73
525.91	350.2
526.341	375.95
526.771	359.56
527.201	359.56
527.631	324.46
528.061	329.14
528.49	317.44
528.92	291.69
529.35	319.78
529.78	385.31
530.209	397.01
530.639	312.75
531.068	308.07
531.498	364.25
531.927	345.52
532.357	329.14
532.786	319.78
533.215	354.88
533.644	303.39
534.074	411.06
534.503	368.93
534.932	322.12
535.361	354.88
535.79	343.18
536.218	331.48
536.647	352.54
537.076	375.95
537.505	308.07
537.933	404.03
538.362	375.95
538.79	305.73
539.219	350.2
539.647	298.71
540.076	411.06
540.504	322.12
540.932	301.05
541.36	291.69
541.788	359.56
542.217	331.48
542.645	343.18
543.073	354.88
543.5	322.12
543.928	338.5
544.356	352.54
544.784	371.27
545.211	322.12
545.639	296.37
546.067	364.25
546.494	347.86
546.922	338.5
547.349	291.69
547.776	315.09
548.204	336.16
548.631	308.07
549.058	359.56
549.485	364.25
549.912	315.09
550.339	331.48
550.766	322.12
551.193	361.91
551.62	364.25
552.047	291.69
552.474	291.69
552.9	277.65
553.327	319.78
553.754	336.16
554.18	378.29
554.607	308.07
555.033	333.82
555.459	279.99
555.886	354.88
556.312	394.67
556.738	359.56
557.164	235.52
557.59	303.39
558.016	368.93
558.442	340.84
558.868	352.54
559.294	354.88
559.72	324.46
560.145	329.14
560.571	389.99
560.997	301.05
561.422	364.25
561.848	291.69
562.273	317.44
562.699	315.09
563.124	368.93
563.549	359.56
563.974	284.67
564.4	382.97
564.825	319.78
565.25	418.08
565.675	385.31
566.1	282.33
566.525	294.03
566.95	336.16
567.374	333.82
567.799	354.88
568.224	322.12
568.648	329.14
569.073	322.12
569.497	291.69
569.922	298.71
570.346	319.78
570.771	359.56
571.195	357.22
571.619	350.2
572.043	317.44
572.467	364.25
572.891	338.5
573.315	340.84
573.739	404.03
574.163	354.88
574.587	368.93
575.011	322.12
575.435	315.09
575.858	350.2
576.282	303.39
576.705	338.5
577.129	310.41
577.552	347.86
577.976	347.86
578.399	319.78
578.822	373.61
579.245	322.12
579.669	345.52
580.092	354.88
580.515	350.2
580.938	298.71
581.361	319.78
581.784	331.48
582.206	308.07
582.629	347.86
583.052	350.2
583.474	303.39
583.897	343.18
584.32	354.88
584.742	345.52
585.165	352.54
585.587	352.54
586.009	319.78
586.431	373.61
586.854	336.16
587.276	436.8
587.698	380.63
588.12	331.48
588.542	373.61
588.964	378.29
589.386	315.09
589.807	408.72
590.229	333.82
590.651	350.2
591.073	277.65
591.494	315.09
591.916	343.18
592.337	352.54
592.759	301.05
593.18	366.59
593.601	366.59
594.022	375.95
594.444	315.09
594.865	308.07
595.286	312.75
595.707	326.8
596.128	336.16
596.549	282.33
596.97	392.33
597.39	263.6
597.811	326.8
598.232	331.48
598.652	359.56
599.073	345.52
599.494	378.29
599.914	275.31
600.334	343.18
600.755	352.54
601.175	387.65
601.595	305.73
602.015	338.5
602.436	347.86
602.856	432.12
603.276	333.82
603.696	319.78
604.115	378.29
604.535	326.8
604.955	336.16
605.375	324.46
605.794	354.88
606.214	315.09
606.634	303.39
607.053	312.75
607.473	254.24
607.892	382.97
608.311	399.35
608.731	287.01
609.15	352.54
609.569	364.25
609.988	340.84
610.407	324.46
610.826	399.35
611.245	319.78
611.664	317.44
612.083	329.14
612.501	291.69
612.92	380.63
613.339	326.8
613.757	279.99
614.176	312.75
614.594	368.93
615.013	380.63
615.431	336.16
615.85	350.2
616.268	357.22
616.686	319.78
617.104	319.78
617.522	294.03
617.94	319.78
618.358	308.07
618.776	336.16
619.194	294.03
619.612	277.65
620.03	317.44
620.447	364.25
620.865	298.71
621.282	301.05
621.7	333.82
622.117	326.8
622.535	312.75
622.952	228.49
623.369	331.48
623.787	338.5
624.204	326.8
624.621	385.31
625.038	305.73
625.455	310.41
625.872	359.56
626.289	326.8
626.706	382.97
627.123	343.18
627.539	303.39
627.956	357.22
628.373	382.97
628.789	373.61
629.206	315.09
629.622	338.5
630.038	345.52
630.455	331.48
630.871	289.35
631.287	343.18
631.703	326.8
632.12	294.03
632.536	347.86
632.952	364.25
633.368	282.33
633.783	298.71
634.199	329.14
634.615	331.48
635.031	326.8
635.446	401.69
635.862	378.29
636.277	331.48
636.693	310.41
637.108	359.56
637.524	354.88
637.939	347.86
638.354	272.96
638.77	256.58
639.185	315.09
639.6	340.84
640.015	331.48
640.43	308.07
640.845	404.03
641.259	347.86
641.674	366.59
642.089	352.54
642.504	373.61
642.918	303.39
643.333	303.39
643.747	242.54
644.162	371.27
644.576	303.39
644.991	324.46
645.405	282.33
645.819	340.84
646.233	315.09
646.647	347.86
647.061	361.91
647.475	336.16
647.889	338.5
648.303	319.78
648.717	373.61
649.131	333.82
649.545	289.35
649.958	308.07
650.372	392.33
650.785	368.93
651.199	310.41
651.612	368.93
652.026	326.8
652.439	312.75
652.852	352.54
653.266	312.75
653.679	315.09
654.092	326.8
654.505	394.67
654.918	324.46
655.331	343.18
655.744	343.18
656.156	331.48
656.569	326.8
656.982	296.37
657.394	282.33
657.807	305.73
658.22	366.59
658.632	350.2
659.044	324.46
659.457	336.16
659.869	394.67
660.281	359.56
660.693	347.86
661.106	347.86
661.518	382.97
661.93	434.46
662.342	301.05
662.754	331.48
663.165	270.62
663.577	298.71
663.989	380.63
664.401	373.61
664.812	338.5
665.224	331.48
665.635	326.8
666.047	324.46
666.458	336.16
666.869	233.18
667.281	291.69
667.692	364.25
668.103	389.99
668.514	387.65
668.925	382.97
669.336	368.93
669.747	331.48
670.158	287.01
670.569	347.86
670.979	373.61
671.39	352.54
671.801	347.86
672.211	319.78
672.622	378.29
673.032	378.29
673.443	343.18
673.853	322.12
674.263	312.75
674.674	324.46
675.084	394.67
675.494	347.86
675.904	305.73
676.314	319.78
676.724	361.91
677.134	373.61
677.544	354.88
677.953	380.63
678.363	331.48
678.773	305.73
679.182	326.8
679.592	326.8
680.001	385.31
680.411	296.37
680.82	305.73
681.23	312.75
681.639	265.94
682.048	326.8
682.457	347.86
682.866	277.65
683.275	315.09
683.684	305.73
684.093	411.06
684.502	336.16
684.911	352.54
685.32	352.54
685.728	319.78
686.137	345.52
686.546	368.93
686.954	361.91
687.363	347.86
687.771	317.44
688.179	298.71
688.588	301.05
688.996	357.22
689.404	373.61
689.812	289.35
690.22	279.99
690.628	312.75
691.036	354.88
691.444	326.8
691.852	275.31
692.26	364.25
692.667	347.86
693.075	401.69
693.483	392.33
693.89	249.56
694.298	401.69
694.705	294.03
695.112	354.88
695.52	265.94
695.927	329.14
696.334	350.2
696.741	282.33
697.148	354.88
697.555	305.73
697.962	275.31
698.369	371.27
698.776	378.29
699.183	378.29
699.59	366.59
699.996	305.73
700.403	315.09
700.81	315.09
701.216	418.08
701.623	359.56
702.029	366.59
702.435	371.27
702.842	357.22
703.248	408.72
703.654	301.05
704.06	317.44
704.466	319.78
704.872	336.16
705.278	338.5
705.684	308.07
706.09	322.12
706.496	397.01
706.901	317.44
707.307	345.52
707.712	350.2
708.118	333.82
708.523	329.14
708.929	368.93
709.334	303.39
709.74	319.78
710.145	305.73
710.55	303.39
710.955	357.22
711.36	315.09
711.765	308.07
712.17	347.86
712.575	301.05
712.98	846.4
713.385	357.22
713.789	331.48
714.194	425.1
714.599	350.2
715.003	319.78
715.408	373.61
715.812	333.82
716.217	385.31
716.621	333.82
717.025	336.16
717.429	265.94
717.833	371.27
718.238	331.48
718.642	333.82
719.046	331.48
719.449	324.46
719.853	343.18
720.257	324.46
720.661	375.95
721.065	277.65
721.468	282.33
721.872	338.5
722.275	371.27
722.679	298.71
723.082	371.27
723.485	364.25
723.889	317.44
724.292	301.05
724.695	322.12
725.098	361.91
725.501	317.44
725.904	336.16
726.307	270.62
726.71	305.73
727.113	338.5
727.516	265.94
727.918	397.01
728.321	331.48
728.724	343.18
729.126	331.48
729.529	357.22
729.931	277.65
730.333	310.41
730.736	324.46
731.138	315.09
731.54	340.84
731.942	357.22
732.344	336.16
732.746	343.18
733.148	282.33
733.55	347.86
733.952	326.8
734.354	350.2
734.756	329.14
735.157	354.88
735.559	298.71
735.96	294.03
736.362	375.95
736.763	350.2
737.165	345.52
737.566	284.67
737.967	296.37
738.368	317.44
738.77	287.01
739.171	317.44
739.572	282.33
739.973	343.18
740.374	336.16
740.774	347.86
741.175	373.61
741.576	312.75
741.977	371.27
742.377	387.65
742.778	242.54
743.178	345.52
743.579	305.73
743.979	361.91
744.379	310.41
744.78	354.88
745.18	331.48
745.58	357.22
745.98	375.95
746.38	279.99
746.78	322.12
747.18	352.54
747.58	350.2
747.98	364.25
748.38	322.12
748.779	371.27
749.179	380.63
749.578	305.73
749.978	420.42
750.377	366.59
750.777	338.5
751.176	319.78
751.575	291.69
751.975	336.16
752.374	303.39
752.773	336.16
753.172	368.93
753.571	317.44
753.97	359.56
754.369	343.18
754.768	368.93
755.166	357.22
755.565	279.99
755.964	375.95
756.362	394.67
756.761	301.05
757.159	312.75
757.558	350.2
757.956	326.8
758.354	312.75
758.753	382.97
759.151	310.41
759.549	394.67
759.947	322.12
760.345	380.63
760.743	322.12
761.141	298.71
761.539	359.56
761.936	329.14
762.334	282.33
762.732	272.96
763.129	256.58
763.527	357.22
763.924	364.25
764.322	298.71
764.719	326.8
765.117	399.35
765.514	368.93
765.911	354.88
766.308	326.8
766.705	322.12
767.102	315.09
767.499	366.59
767.896	331.48
768.293	279.99
768.69	263.6
769.086	310.41
769.483	298.71
769.88	385.31
770.276	340.84
770.673	242.54
771.069	331.48
771.466	354.88
771.862	345.52
772.258	333.82
772.654	331.48
773.05	357.22
773.447	350.2
773.843	401.69
774.239	422.76
774.634	343.18
775.03	382.97
775.426	333.82
775.822	382.97
776.218	294.03
776.613	315.09
777.009	420.42
777.404	324.46
777.8	336.16
778.195	352.54
778.59	352.54
778.986	289.35
779.381	287.01
779.776	326.8
780.171	301.05
780.566	371.27
780.961	331.48
781.356	366.59
781.751	340.84
782.146	406.38
782.54	357.22
782.935	343.18
783.33	265.94
783.724	343.18
784.119	347.86
784.513	233.18
784.908	310.41
785.302	333.82
785.696	315.09
786.09	340.84
786.485	336.16
786.879	317.44
787.273	287.01
787.667	380.63
788.061	380.63
788.454	270.62
788.848	359.56
789.242	361.91
789.636	375.95
790.029	371.27
790.423	312.75
790.816	333.82
791.21	343.18
791.603	303.39
791.997	305.73
792.39	366.59
792.783	263.6
793.176	291.69
793.569	385.31
793.962	291.69
794.355	373.61
794.748	289.35
795.141	270.62
795.534	345.52
795.927	256.58
796.319	336.16
796.712	326.8
797.105	270.62
797.497	284.67
797.89	249.56
798.282	322.12
798.674	350.2
799.067	340.84
799.459	291.69
799.851	352.54
800.243	380.63
800.635	305.73
801.027	357.22
801.419	364.25
801.811	291.69
802.203	371.27
802.594	221.47
802.986	350.2
803.378	284.67
803.769	312.75
804.161	315.09
804.552	329.14
804.944	268.28
805.335	296.37
805.726	347.86
806.118	301.05
806.509	336.16
806.9	291.69
807.291	324.46
807.682	331.48
808.073	354.88
808.464	368.93
808.855	284.67
809.245	347.86
809.636	366.59
810.027	298.71
810.417	301.05
810.808	301.05
811.198	336.16
811.589	326.8
811.979	350.2
812.369	303.39
812.759	303.39
813.15	382.97
813.54	340.84
813.93	324.46
814.32	371.27
814.71	347.86
815.1	354.88
815.489	324.46
815.879	366.59
816.269	272.96
816.658	350.2
817.048	350.2
817.438	324.46
817.827	340.84
818.216	373.61
818.606	413.4
818.995	343.18
819.384	305.73
819.773	352.54
820.163	350.2
820.552	298.71
820.941	375.95
821.33	357.22
821.718	263.6
822.107	324.46
822.496	312.75
822.885	326.8
823.273	345.52
823.662	326.8
824.05	315.09
824.439	315.09
824.827	368.93
825.216	378.29
825.604	345.52
825.992	329.14
826.38	352.54
826.768	310.41
827.156	366.59
827.544	322.12
827.932	289.35
828.32	338.5
828.708	284.67
829.096	298.71
829.483	310.41
829.871	317.44
830.259	294.03
830.646	319.78
831.034	317.44
831.421	294.03
831.808	354.88
832.196	375.95
832.583	392.33
832.97	373.61
833.357	347.86
833.744	312.75
834.131	317.44
834.518	326.8
834.905	359.56
835.292	350.2
835.678	352.54
836.065	275.31
836.452	350.2
836.838	230.84
837.225	315.09
837.611	324.46
837.998	296.37
838.384	319.78
838.77	338.5
839.157	315.09
839.543	324.46
839.929	287.01
840.315	368.93
840.701	322.12
841.087	347.86
841.473	315.09
841.858	380.63
842.244	338.5
842.63	305.73
843.015	387.65
843.401	427.44
843.787	338.5
844.172	298.71
844.557	361.91
844.943	333.82
845.328	287.01
845.713	322.12
846.098	265.94
846.483	333.82
846.868	366.59
847.253	366.59
847.638	352.54
848.023	301.05
848.408	319.78
848.793	303.39
849.177	340.84
849.562	291.69
849.947	322.12
850.331	322.12
850.715	352.54
851.1	324.46
851.484	294.03
851.868	291.69
852.253	338.5
852.637	310.41
853.021	287.01
853.405	310.41
853.789	317.44
854.173	350.2
854.557	322.12
854.94	315.09
855.324	336.16
855.708	345.52
856.091	324.46
856.475	305.73
856.858	352.54
857.242	331.48
857.625	382.97
858.009	418.08
858.392	305.73
858.775	324.46
859.158	310.41
859.541	331.48
859.924	333.82
860.307	272.96
860.69	385.31
861.073	364.25
861.456	347.86
861.838	333.82
862.221	350.2
862.604	322.12
862.986	373.61
863.369	326.8
863.751	338.5
864.133	347.86
864.516	287.01
864.898	336.16
865.28	326.8
865.662	284.67
866.044	308.07
866.426	305.73
866.808	378.29
867.19	336.16
867.572	385.31
867.954	331.48
868.336	333.82
868.717	361.91
869.099	298.71
869.48	308.07
869.862	408.72
870.243	366.59
870.625	394.67
871.006	382.97
871.387	298.71
871.768	357.22
872.149	336.16
872.53	350.2
872.911	270.62
873.292	368.93
873.673	350.2
874.054	331.48
874.435	361.91
874.815	317.44
875.196	296.37
875.577	315.09
875.957	347.86
876.338	352.54
876.718	251.9
877.098	338.5
877.479	338.5
877.859	354.88
878.239	343.18
878.619	350.2
878.999	350.2
879.379	401.69
879.759	340.84
880.139	333.82
880.519	315.09
880.898	310.41
881.278	340.84
881.658	310.41
882.037	296.37
882.417	319.78
882.796	340.84
883.176	357.22
883.555	312.75
883.934	343.18
884.313	340.84
884.693	333.82
885.072	317.44
885.451	333.82
885.83	282.33
886.209	343.18
886.587	347.86
886.966	279.99
887.345	282.33
887.724	289.35
888.102	380.63
888.481	340.84
888.859	401.69
889.238	279.99
889.616	340.84
889.994	338.5
890.373	319.78
890.751	354.88
891.129	326.8
891.507	385.31
891.885	336.16
892.263	378.29
892.641	354.88
893.019	331.48
893.396	373.61
893.774	331.48
894.152	338.5
894.529	270.62
894.907	366.59
895.284	350.2
895.662	301.05
896.039	322.12
896.416	382.97
896.794	326.8
897.171	296.37
897.548	270.62
897.925	277.65
898.302	359.56
898.679	312.75
899.056	329.14
899.433	322.12
899.809	380.63
900.186	305.73
900.563	366.59
900.939	340.84
901.316	291.69
901.692	347.86
902.069	329.14
902.445	317.44
902.821	268.28
903.197	373.61
903.574	373.61
903.95	312.75
904.326	336.16
904.702	338.5
905.078	303.39
905.454	312.75
905.829	324.46
906.205	336.16
906.581	312.75
906.956	291.69
907.332	291.69
907.707	343.18
908.083	331.48
908.458	329.14
908.833	317.44
909.209	359.56
909.584	310.41
909.959	333.82
910.334	298.71
910.709	247.22
911.084	310.41
911.459	340.84
911.834	287.01
912.209	340.84
912.583	305.73
912.958	322.12
913.333	343.18
913.707	310.41
914.082	310.41
914.456	319.78
914.83	361.91
915.205	385.31
915.579	312.75
915.953	331.48
916.327	345.52
916.701	361.91
917.075	270.62
917.449	361.91
917.823	305.73
918.197	326.8
918.571	319.78
918.944	317.44
919.318	282.33
919.692	366.59
920.065	415.74
920.438	279.99
920.812	312.75
921.185	340.84
921.558	284.67
921.932	291.69
922.305	270.62
922.678	329.14
923.051	263.6
923.424	268.28
923.797	326.8
924.17	303.39
924.542	312.75
924.915	340.84
925.288	338.5
925.661	382.97
926.033	305.73
926.406	361.91
926.778	254.24
927.15	308.07
927.523	378.29
927.895	361.91
928.267	357.22
928.639	303.39
929.011	326.8
929.383	361.91
929.755	357.22
930.127	308.07
930.499	282.33
930.871	298.71
931.242	305.73
931.614	308.07
931.986	340.84
932.357	364.25
932.729	331.48
933.1	282.33
933.471	354.88
933.843	375.95
934.214	284.67
934.585	310.41
934.956	312.75
935.327	373.61
935.698	378.29
936.069	357.22
936.44	350.2
936.811	268.28
937.182	289.35
937.552	366.59
937.923	382.97
938.293	352.54
938.664	310.41
939.034	312.75
939.405	317.44
939.775	378.29
940.145	329.14
940.516	298.71
940.886	301.05
941.256	317.44
941.626	268.28
941.996	326.8
942.366	317.44
942.735	340.84
943.105	308.07
943.475	329.14
943.845	373.61
944.214	317.44
944.584	310.41
944.953	256.58
945.323	331.48
945.692	326.8
946.061	345.52
946.43	317.44
946.8	296.37
947.169	301.05
947.538	317.44
947.907	392.33
948.276	336.16
948.645	371.27
949.013	242.54
949.382	359.56
949.751	298.71
950.119	378.29
950.488	296.37
950.857	312.75
951.225	371.27
951.593	294.03
951.962	319.78
952.33	333.82
952.698	352.54
953.066	347.86
953.434	329.14
953.802	359.56
954.17	272.96
954.538	310.41
954.906	317.44
955.274	359.56
955.642	389.99
956.009	345.52
956.377	340.84
956.744	354.88
957.112	324.46
957.479	310.41
957.847	336.16
958.214	310.41
958.581	312.75
958.948	310.41
959.315	284.67
959.683	350.2
960.05	345.52
960.416	258.92
960.783	322.12
961.15	287.01
961.517	329.14
961.884	359.56
962.25	408.72
962.617	296.37
962.983	319.78
963.35	364.25
963.716	338.5
964.082	333.82
964.449	324.46
964.815	364.25
965.181	336.16
965.547	364.25
965.913	352.54
966.279	310.41
966.645	373.61
967.011	322.12
967.377	261.26
967.742	324.46
968.108	284.67
968.474	359.56
968.839	315.09
969.205	279.99
969.57	282.33
969.935	380.63
970.301	324.46
970.666	310.41
971.031	298.71
971.396	336.16
971.761	347.86
972.126	404.03
972.491	336.16
972.856	284.67
973.221	279.99
973.586	392.33
973.95	336.16
974.315	397.01
974.679	380.63
975.044	312.75
975.408	350.2
975.773	392.33
976.137	305.73
976.501	310.41
976.866	324.46
977.23	291.69
977.594	336.16
977.958	305.73
978.322	373.61
978.686	305.73
979.049	354.88
979.413	317.44
979.777	343.18
980.141	387.65
980.504	324.46
980.868	317.44
981.231	322.12
981.595	324.46
981.958	338.5
982.321	329.14
982.684	308.07
983.048	366.59
983.411	389.99
983.774	354.88
984.137	294.03
984.5	364.25
984.862	279.99
985.225	413.4
985.588	340.84
985.951	361.91
986.313	275.31
986.676	289.35
987.038	373.61
987.401	380.63
987.763	333.82
988.125	254.24
988.488	317.44
988.85	345.52
989.212	389.99
989.574	333.82
989.936	237.86
990.298	345.52
990.66	336.16
991.022	371.27
991.383	319.78
991.745	287.01
992.107	373.61
992.468	345.52
992.83	324.46
993.191	298.71
993.553	357.22
993.914	326.8
994.275	289.35
994.637	301.05
994.998	392.33
995.359	350.2
995.72	289.35
996.081	312.75
996.442	326.8
996.803	345.52
997.163	329.14
997.524	326.8
997.885	413.4
998.245	326.8
998.606	317.44
998.966	322.12
999.327	350.2
999.687	326.8
1000.047	364.25
1000.408	284.67
1000.768	343.18
1001.128	361.91
1001.488	312.75
1001.848	326.8
1002.208	333.82
1002.568	296.37
1002.927	371.27
1003.287	357.22
1003.647	378.29
1004.007	310.41
1004.366	254.24
1004.726	287.01
1005.085	298.71
1005.444	315.09
1005.804	256.58
1006.163	340.84
1006.522	324.46
1006.881	354.88
1007.24	319.78
1007.599	352.54
1007.958	347.86
1008.317	371.27
1008.676	279.99
1009.035	336.16
1009.393	371.27
1009.752	298.71
1010.111	315.09
1010.469	368.93
1010.828	308.07
1011.186	347.86
1011.544	368.93
1011.903	310.41
1012.261	287.01
1012.619	322.12
1012.977	294.03
1013.335	385.31
1013.693	331.48
1014.051	301.05
1014.409	315.09
1014.767	310.41
1015.124	326.8
1015.482	324.46
1015.84	265.94
1016.197	338.5
1016.555	364.25
1016.912	340.84
1017.269	305.73
1017.627	343.18
1017.984	345.52
1018.341	350.2
1018.698	287.01
1019.055	291.69
1019.412	333.82
1019.769	294.03
1020.126	375.95
1020.483	305.73
1020.84	326.8
1021.196	329.14
1021.553	324.46
1021.909	345.52
1022.266	319.78
1022.622	289.35
1022.979	378.29
1023.335	343.18
1023.691	298.71
1024.047	406.38
1024.404	326.8
1024.76	305.73
1025.116	272.96
1025.472	326.8
1025.827	385.31
1026.183	340.84
1026.539	258.92
1026.895	340.84
1027.25	331.48
1027.606	359.56
1027.961	380.63
1028.317	324.46
1028.672	319.78
1029.028	305.73
1029.383	324.46
1029.738	268.28
1030.093	352.54
1030.448	364.25
1030.803	282.33
1031.158	357.22
1031.513	315.09
1031.868	361.91
1032.223	298.71
1032.577	308.07
1032.932	354.88
1033.287	333.82
1033.641	329.14
1033.996	326.8
1034.35	326.8
1034.704	336.16
1035.059	352.54
1035.413	359.56
1035.767	359.56
1036.121	359.56
