Data from Al_FLMS009871__1202__16-42-05-979.txt Node

Date: Fri Mar 08 16:42:05 CST 2024
User: pe5414po
Spectrometer: FLMS00987
Trigger mode: 0
Integration Time (sec): 1.000000E-1
Scans to average: 1
Electric dark correction enabled: true
Nonlinearity correction enabled: false
Boxcar width: 0
XAxis mode: Wavelengths
Number of Pixels in Spectrum: 2048
>>>>>Begin Spectral Data<<<<<
188.938	-42.13
189.409	-42.13
189.879	-42.13
190.349	-191.92
190.819	-93.62
191.29	-112.35
191.76	-63.19
192.23	-117.03
192.7	-51.49
193.17	-124.05
193.64	-67.88
194.109	-42.13
194.579	9.36
195.049	4.68
195.519	39.79
195.988	11.7
196.458	37.45
196.927	100.64
197.397	112.35
197.866	126.39
198.336	135.75
198.805	170.86
199.274	255.12
199.744	194.26
200.213	173.2
200.682	173.2
201.151	191.92
201.62	262.14
202.089	330.02
202.558	280.86
203.027	355.76
203.495	280.86
203.964	241.08
204.433	276.18
204.902	245.76
205.37	278.52
205.839	330.02
206.307	353.42
206.776	337.04
207.244	299.59
207.712	287.89
208.181	318.31
208.649	250.44
209.117	278.52
209.585	311.29
210.053	334.7
210.521	311.29
210.989	339.38
211.457	241.08
211.925	308.95
212.393	264.48
212.861	337.04
213.328	313.63
213.796	306.61
214.264	292.57
214.731	280.86
215.199	372.15
215.666	257.46
216.133	283.2
216.601	280.86
217.068	264.48
217.535	297.25
218.003	313.63
218.47	313.63
218.937	208.31
219.404	229.37
219.871	306.61
220.338	322.99
220.805	290.23
221.271	238.73
221.738	304.27
222.205	278.52
222.671	285.55
223.138	217.67
223.605	262.14
224.071	215.33
224.538	231.71
225.004	280.86
225.47	238.73
225.937	245.76
226.403	325.33
226.869	264.48
227.335	292.57
227.801	224.69
228.267	290.23
228.733	264.48
229.199	280.86
229.665	313.63
230.131	287.89
230.597	245.76
231.062	290.23
231.528	315.97
231.994	360.44
232.459	264.48
232.925	201.29
233.39	264.48
233.856	273.84
234.321	205.97
234.786	252.78
235.252	322.99
235.717	290.23
236.182	318.31
236.647	348.74
237.112	311.29
237.577	313.63
238.042	320.65
238.507	306.61
238.972	229.37
239.436	294.91
239.901	299.59
240.366	299.59
240.83	287.89
241.295	224.69
241.76	304.27
242.224	264.48
242.688	297.25
243.153	250.44
243.617	339.38
244.081	285.55
244.545	234.05
245.01	259.8
245.474	301.93
245.938	332.36
246.402	257.46
246.866	348.74
247.33	297.25
247.793	280.86
248.257	294.91
248.721	346.4
249.185	257.46
249.648	311.29
250.112	358.1
250.575	308.95
251.039	287.89
251.502	322.99
251.965	224.69
252.429	252.78
252.892	330.02
253.355	287.89
253.818	304.27
254.281	315.97
254.744	320.65
255.207	318.31
255.67	301.93
256.133	290.23
256.596	278.52
257.059	276.18
257.522	287.89
257.984	346.4
258.447	330.02
258.909	283.2
259.372	318.31
259.834	292.57
260.297	297.25
260.759	234.05
261.221	280.86
261.684	301.93
262.146	304.27
262.608	245.76
263.07	292.57
263.532	367.46
263.994	262.14
264.456	318.31
264.918	280.86
265.38	243.42
265.842	271.5
266.303	306.61
266.765	330.02
267.227	339.38
267.688	264.48
268.15	236.39
268.611	292.57
269.072	290.23
269.534	304.27
269.995	276.18
270.456	252.78
270.918	313.63
271.379	269.16
271.84	318.31
272.301	234.05
272.762	344.06
273.223	379.17
273.684	301.93
274.144	315.97
274.605	334.7
275.066	250.44
275.527	341.72
275.987	322.99
276.448	301.93
276.908	306.61
277.369	353.42
277.829	299.59
278.289	285.55
278.75	341.72
279.21	297.25
279.67	320.65
280.13	339.38
280.59	294.91
281.05	322.99
281.51	306.61
281.97	313.63
282.43	318.31
282.89	294.91
283.35	290.23
283.809	344.06
284.269	238.73
284.729	334.7
285.188	290.23
285.648	278.52
286.107	325.33
286.567	262.14
287.026	297.25
287.485	306.61
287.944	287.89
288.404	297.25
288.863	278.52
289.322	320.65
289.781	348.74
290.24	245.76
290.699	315.97
291.158	301.93
291.616	271.5
292.075	285.55
292.534	280.86
292.992	287.89
293.451	262.14
293.91	301.93
294.368	360.44
294.827	273.84
295.285	320.65
295.743	306.61
296.202	360.44
296.66	425.98
297.118	266.82
297.576	304.27
298.034	292.57
298.492	351.08
298.95	332.36
299.408	355.76
299.866	383.85
300.324	290.23
300.781	327.67
301.239	294.91
301.697	287.89
302.154	278.52
302.612	325.33
303.069	283.2
303.527	290.23
303.984	315.97
304.441	344.06
304.899	353.42
305.356	294.91
305.813	362.78
306.27	283.2
306.727	320.65
307.184	259.8
307.641	351.08
308.098	273.84
308.555	322.99
309.012	332.36
309.468	381.51
309.925	308.95
310.382	365.12
310.838	304.27
311.295	308.95
311.751	292.57
312.208	301.93
312.664	278.52
313.12	327.67
313.577	330.02
314.033	351.08
314.489	280.86
314.945	339.38
315.401	334.7
315.857	332.36
316.313	308.95
316.769	301.93
317.225	238.73
317.681	330.02
318.136	294.91
318.592	315.97
319.048	332.36
319.503	365.12
319.959	299.59
320.414	421.3
320.869	287.89
321.325	276.18
321.78	362.78
322.235	301.93
322.691	348.74
323.146	297.25
323.601	351.08
324.056	297.25
324.511	313.63
324.966	285.55
325.421	231.71
325.875	318.31
326.33	269.16
326.785	383.85
327.24	351.08
327.694	334.7
328.149	320.65
328.603	353.42
329.058	301.93
329.512	318.31
329.966	311.29
330.421	346.4
330.875	292.57
331.329	290.23
331.783	358.1
332.237	365.12
332.691	320.65
333.145	304.27
333.599	292.57
334.053	346.4
334.507	344.06
334.96	285.55
335.414	322.99
335.868	337.04
336.321	315.97
336.775	301.93
337.228	346.4
337.682	332.36
338.135	269.16
338.588	297.25
339.042	374.49
339.495	287.89
339.948	280.86
340.401	306.61
340.854	315.97
341.307	297.25
341.76	269.16
342.213	353.42
342.666	315.97
343.119	311.29
343.571	306.61
344.024	334.7
344.477	297.25
344.929	320.65
345.382	290.23
345.834	283.2
346.287	409.59
346.739	339.38
347.191	388.53
347.644	306.61
348.096	308.95
348.548	311.29
349	299.59
349.452	294.91
349.904	301.93
350.356	330.02
350.808	341.72
351.26	358.1
351.711	313.63
352.163	379.17
352.615	322.99
353.066	299.59
353.518	322.99
353.969	304.27
354.421	252.78
354.872	365.12
355.324	320.65
355.775	337.04
356.226	271.5
356.677	334.7
357.128	320.65
357.579	322.99
358.03	278.52
358.481	301.93
358.932	320.65
359.383	337.04
359.834	332.36
360.285	315.97
360.735	304.27
361.186	388.53
361.637	339.38
362.087	313.63
362.538	320.65
362.988	337.04
363.438	351.08
363.889	407.25
364.339	360.44
364.789	365.12
365.239	273.84
365.689	276.18
366.139	341.72
366.589	374.49
367.039	344.06
367.489	327.67
367.939	285.55
368.389	313.63
368.839	255.12
369.288	358.1
369.738	273.84
370.187	355.76
370.637	327.67
371.086	304.27
371.536	280.86
371.985	322.99
372.434	348.74
372.884	297.25
373.333	360.44
373.782	283.2
374.231	318.31
374.68	327.67
375.129	348.74
375.578	332.36
376.027	374.49
376.475	381.51
376.924	344.06
377.373	299.59
377.822	318.31
378.27	315.97
378.719	362.78
379.167	358.1
379.616	348.74
380.064	344.06
380.512	315.97
380.961	311.29
381.409	341.72
381.857	327.67
382.305	339.38
382.753	330.02
383.201	407.25
383.649	351.08
384.097	414.27
384.545	346.4
384.992	351.08
385.44	318.31
385.888	341.72
386.335	327.67
386.783	344.06
387.231	369.8
387.678	339.38
388.125	332.36
388.573	358.1
389.02	353.42
389.467	327.67
389.914	313.63
390.362	290.23
390.809	360.44
391.256	362.78
391.703	367.46
392.15	379.17
392.596	358.1
393.043	318.31
393.49	320.65
393.937	379.17
394.383	308.95
394.83	369.8
395.276	353.42
395.723	318.31
396.169	337.04
396.616	292.57
397.062	266.82
397.508	315.97
397.954	325.33
398.401	339.38
398.847	337.04
399.293	393.21
399.739	320.65
400.185	301.93
400.631	327.67
401.076	241.08
401.522	325.33
401.968	322.99
402.414	271.5
402.859	287.89
403.305	320.65
403.75	330.02
404.196	322.99
404.641	339.38
405.086	278.52
405.532	360.44
405.977	337.04
406.422	337.04
406.867	393.21
407.312	283.2
407.757	299.59
408.202	292.57
408.647	348.74
409.092	320.65
409.537	285.55
409.982	362.78
410.426	294.91
410.871	355.76
411.316	308.95
411.76	308.95
412.205	311.29
412.649	304.27
413.093	320.65
413.538	278.52
413.982	325.33
414.426	332.36
414.87	355.76
415.314	341.72
415.758	315.97
416.202	283.2
416.646	280.86
417.09	353.42
417.534	369.8
417.978	306.61
418.421	360.44
418.865	306.61
419.309	367.46
419.752	337.04
420.196	348.74
420.639	365.12
421.083	348.74
421.526	271.5
421.969	362.78
422.412	318.31
422.856	334.7
423.299	346.4
423.742	362.78
424.185	348.74
424.628	264.48
425.071	306.61
425.513	353.42
425.956	269.16
426.399	365.12
426.842	407.25
427.284	330.02
427.727	301.93
428.169	362.78
428.612	362.78
429.054	280.86
429.497	280.86
429.939	346.4
430.381	287.89
430.823	334.7
431.265	334.7
431.707	311.29
432.149	353.42
432.591	376.83
433.033	348.74
433.475	311.29
433.917	280.86
434.359	334.7
434.8	407.25
435.242	365.12
435.684	290.23
436.125	283.2
436.567	344.06
437.008	308.95
437.449	184.9
437.891	353.42
438.332	346.4
438.773	390.87
439.214	339.38
439.656	330.02
440.097	320.65
440.538	330.02
440.978	320.65
441.419	308.95
441.86	276.18
442.301	318.31
442.742	369.8
443.182	290.23
443.623	269.16
444.063	299.59
444.504	376.83
444.944	379.17
445.385	386.19
445.825	330.02
446.265	311.29
446.706	304.27
447.146	318.31
447.586	351.08
448.026	351.08
448.466	351.08
448.906	318.31
449.346	259.8
449.786	383.85
450.225	369.8
450.665	322.99
451.105	334.7
451.544	404.91
451.984	325.33
452.424	271.5
452.863	365.12
453.302	301.93
453.742	337.04
454.181	381.51
454.62	372.15
455.059	269.16
455.499	369.8
455.938	320.65
456.377	367.46
456.816	306.61
457.254	404.91
457.693	388.53
458.132	346.4
458.571	299.59
459.01	344.06
459.448	346.4
459.887	327.67
460.325	362.78
460.764	320.65
461.202	301.93
461.641	306.61
462.079	311.29
462.517	325.33
462.955	271.5
463.393	313.63
463.832	330.02
464.27	355.76
464.708	320.65
465.145	315.97
465.583	308.95
466.021	318.31
466.459	334.7
466.897	322.99
467.334	330.02
467.772	311.29
468.209	344.06
468.647	372.15
469.084	341.72
469.522	313.63
469.959	313.63
470.396	344.06
470.833	325.33
471.271	276.18
471.708	322.99
472.145	383.85
472.582	367.46
473.019	330.02
473.456	374.49
473.892	341.72
474.329	376.83
474.766	327.67
475.202	360.44
475.639	306.61
476.076	294.91
476.512	262.14
476.949	306.61
477.385	318.31
477.821	269.16
478.258	355.76
478.694	283.2
479.13	241.08
479.566	325.33
480.002	287.89
480.438	353.42
480.874	341.72
481.31	306.61
481.746	292.57
482.181	330.02
482.617	376.83
483.053	397.89
483.488	301.93
483.924	332.36
484.36	369.8
484.795	351.08
485.23	355.76
485.666	402.57
486.101	374.49
486.536	294.91
486.971	308.95
487.407	358.1
487.842	311.29
488.277	334.7
488.712	294.91
489.146	311.29
489.581	337.04
490.016	379.17
490.451	362.78
490.885	313.63
491.32	327.67
491.755	311.29
492.189	280.86
492.624	339.38
493.058	332.36
493.492	339.38
493.927	379.17
494.361	245.76
494.795	365.12
495.229	355.76
495.663	327.67
496.097	337.04
496.531	294.91
496.965	278.52
497.399	264.48
497.833	367.46
498.266	292.57
498.7	322.99
499.134	358.1
499.567	294.91
500.001	299.59
500.434	365.12
500.868	346.4
501.301	355.76
501.734	327.67
502.168	325.33
502.601	311.29
503.034	362.78
503.467	283.2
503.9	292.57
504.333	315.97
504.766	262.14
505.199	372.15
505.632	360.44
506.064	383.85
506.497	367.46
506.93	315.97
507.362	330.02
507.795	355.76
508.227	330.02
508.66	313.63
509.092	339.38
509.524	365.12
509.956	353.42
510.389	355.76
510.821	379.17
511.253	341.72
511.685	301.93
512.117	362.78
512.549	330.02
512.981	318.31
513.412	388.53
513.844	369.8
514.276	306.61
514.707	355.76
515.139	334.7
515.571	294.91
516.002	383.85
516.433	428.32
516.865	344.06
517.296	315.97
517.727	327.67
518.159	395.55
518.59	344.06
519.021	315.97
519.452	362.78
519.883	334.7
520.314	299.59
520.744	315.97
521.175	334.7
521.606	344.06
522.037	236.39
522.467	344.06
522.898	334.7
523.328	245.76
523.759	358.1
524.189	374.49
524.62	287.89
525.05	362.78
525.48	304.27
525.91	332.36
526.341	315.97
526.771	283.2
527.201	301.93
527.631	411.93
528.061	351.08
528.49	358.1
528.92	346.4
529.35	313.63
529.78	292.57
530.209	322.99
530.639	351.08
531.068	320.65
531.498	318.31
531.927	369.8
532.357	229.37
532.786	322.99
533.215	318.31
533.644	330.02
534.074	290.23
534.503	308.95
534.932	346.4
535.361	278.52
535.79	322.99
536.218	376.83
536.647	348.74
537.076	330.02
537.505	386.19
537.933	285.55
538.362	322.99
538.79	276.18
539.219	285.55
539.647	383.85
540.076	313.63
540.504	388.53
540.932	383.85
541.36	388.53
541.788	311.29
542.217	327.67
542.645	290.23
543.073	236.39
543.5	355.76
543.928	341.72
544.356	325.33
544.784	367.46
545.211	318.31
545.639	353.42
546.067	290.23
546.494	320.65
546.922	332.36
547.349	320.65
547.776	348.74
548.204	311.29
548.631	304.27
549.058	327.67
549.485	360.44
549.912	294.91
550.339	294.91
550.766	313.63
551.193	339.38
551.62	407.25
552.047	299.59
552.474	304.27
552.9	332.36
553.327	318.31
553.754	308.95
554.18	362.78
554.607	327.67
555.033	322.99
555.459	325.33
555.886	353.42
556.312	334.7
556.738	353.42
557.164	360.44
557.59	320.65
558.016	358.1
558.442	306.61
558.868	311.29
559.294	369.8
559.72	393.21
560.145	294.91
560.571	264.48
560.997	276.18
561.422	337.04
561.848	255.12
562.273	351.08
562.699	351.08
563.124	308.95
563.549	334.7
563.974	379.17
564.4	383.85
564.825	313.63
565.25	339.38
565.675	325.33
566.1	369.8
566.525	334.7
566.95	318.31
567.374	346.4
567.799	381.51
568.224	294.91
568.648	358.1
569.073	301.93
569.497	273.84
569.922	348.74
570.346	421.3
570.771	365.12
571.195	313.63
571.619	304.27
572.043	383.85
572.467	325.33
572.891	390.87
573.315	332.36
573.739	313.63
574.163	278.52
574.587	348.74
575.011	320.65
575.435	276.18
575.858	318.31
576.282	376.83
576.705	374.49
577.129	351.08
577.552	299.59
577.976	325.33
578.399	337.04
578.822	330.02
579.245	360.44
579.669	306.61
580.092	278.52
580.515	339.38
580.938	337.04
581.361	304.27
581.784	297.25
582.206	315.97
582.629	355.76
583.052	325.33
583.474	379.17
583.897	386.19
584.32	358.1
584.742	325.33
585.165	297.25
585.587	313.63
586.009	337.04
586.431	262.14
586.854	306.61
587.276	348.74
587.698	318.31
588.12	334.7
588.542	241.08
588.964	292.57
589.386	346.4
589.807	255.12
590.229	330.02
590.651	325.33
591.073	337.04
591.494	311.29
591.916	327.67
592.337	322.99
592.759	325.33
593.18	400.23
593.601	280.86
594.022	315.97
594.444	290.23
594.865	339.38
595.286	348.74
595.707	320.65
596.128	325.33
596.549	334.7
596.97	313.63
597.39	341.72
597.811	337.04
598.232	315.97
598.652	273.84
599.073	299.59
599.494	304.27
599.914	348.74
600.334	278.52
600.755	322.99
601.175	311.29
601.595	318.31
602.015	337.04
602.436	330.02
602.856	430.66
603.276	304.27
603.696	348.74
604.115	306.61
604.535	290.23
604.955	344.06
605.375	355.76
605.794	365.12
606.214	311.29
606.634	325.33
607.053	348.74
607.473	306.61
607.892	386.19
608.311	379.17
608.731	390.87
609.15	332.36
609.569	292.57
609.988	276.18
610.407	407.25
610.826	311.29
611.245	374.49
611.664	285.55
612.083	294.91
612.501	327.67
612.92	304.27
613.339	320.65
613.757	337.04
614.176	365.12
614.594	320.65
615.013	313.63
615.431	290.23
615.85	330.02
616.268	334.7
616.686	365.12
617.104	374.49
617.522	273.84
617.94	285.55
618.358	283.2
618.776	301.93
619.194	362.78
619.612	294.91
620.03	304.27
620.447	308.95
620.865	351.08
621.282	245.76
621.7	313.63
622.117	294.91
622.535	283.2
622.952	304.27
623.369	337.04
623.787	313.63
624.204	299.59
624.621	322.99
625.038	360.44
625.455	400.23
625.872	369.8
626.289	372.15
626.706	337.04
627.123	337.04
627.539	269.16
627.956	360.44
628.373	269.16
628.789	367.46
629.206	320.65
629.622	311.29
630.038	313.63
630.455	367.46
630.871	365.12
631.287	360.44
631.703	304.27
632.12	304.27
632.536	299.59
632.952	320.65
633.368	318.31
633.783	327.67
634.199	397.89
634.615	301.93
635.031	397.89
635.446	222.35
635.862	292.57
636.277	346.4
636.693	322.99
637.108	271.5
637.524	339.38
637.939	355.76
638.354	358.1
638.77	308.95
639.185	320.65
639.6	294.91
640.015	278.52
640.43	351.08
640.845	292.57
641.259	299.59
641.674	299.59
642.089	395.55
642.504	299.59
642.918	285.55
643.333	311.29
643.747	315.97
644.162	280.86
644.576	315.97
644.991	294.91
645.405	308.95
645.819	325.33
646.233	353.42
646.647	372.15
647.061	271.5
647.475	287.89
647.889	325.33
648.303	353.42
648.717	330.02
649.131	348.74
649.545	264.48
649.958	358.1
650.372	367.46
650.785	346.4
651.199	313.63
651.612	322.99
652.026	402.57
652.439	332.36
652.852	301.93
653.266	280.86
653.679	337.04
654.092	306.61
654.505	285.55
654.918	322.99
655.331	353.42
655.744	404.91
656.156	339.38
656.569	285.55
656.982	313.63
657.394	339.38
657.807	327.67
658.22	355.76
658.632	383.85
659.044	313.63
659.457	322.99
659.869	344.06
660.281	311.29
660.693	292.57
661.106	351.08
661.518	313.63
661.93	264.48
662.342	341.72
662.754	346.4
663.165	402.57
663.577	299.59
663.989	327.67
664.401	313.63
664.812	292.57
665.224	348.74
665.635	344.06
666.047	311.29
666.458	322.99
666.869	327.67
667.281	337.04
667.692	297.25
668.103	365.12
668.514	271.5
668.925	330.02
669.336	320.65
669.747	339.38
670.158	344.06
670.569	330.02
670.979	388.53
671.39	332.36
671.801	318.31
672.211	287.89
672.622	318.31
673.032	266.82
673.443	299.59
673.853	325.33
674.263	353.42
674.674	287.89
675.084	332.36
675.494	320.65
675.904	339.38
676.314	372.15
676.724	325.33
677.134	360.44
677.544	369.8
677.953	280.86
678.363	447.04
678.773	362.78
679.182	374.49
679.592	304.27
680.001	339.38
680.411	297.25
680.82	315.97
681.23	278.52
681.639	327.67
682.048	299.59
682.457	367.46
682.866	330.02
683.275	287.89
683.684	339.38
684.093	315.97
684.502	346.4
684.911	318.31
685.32	306.61
685.728	327.67
686.137	320.65
686.546	353.42
686.954	339.38
687.363	418.96
687.771	334.7
688.179	322.99
688.588	315.97
688.996	337.04
689.404	320.65
689.812	297.25
690.22	290.23
690.628	386.19
691.036	376.83
691.444	374.49
691.852	269.16
692.26	330.02
692.667	322.99
693.075	327.67
693.483	320.65
693.89	334.7
694.298	332.36
694.705	313.63
695.112	325.33
695.52	294.91
695.927	334.7
696.334	299.59
696.741	332.36
697.148	330.02
697.555	304.27
697.962	339.38
698.369	311.29
698.776	313.63
699.183	379.17
699.59	276.18
699.996	318.31
700.403	397.89
700.81	337.04
701.216	332.36
701.623	299.59
702.029	376.83
702.435	388.53
702.842	334.7
703.248	280.86
703.654	330.02
704.06	266.82
704.466	294.91
704.872	390.87
705.278	367.46
705.684	332.36
706.09	308.95
706.496	308.95
706.901	367.46
707.307	369.8
707.712	379.17
708.118	320.65
708.523	358.1
708.929	308.95
709.334	229.37
709.74	337.04
710.145	346.4
710.55	346.4
710.955	278.52
711.36	351.08
711.765	358.1
712.17	353.42
712.575	320.65
712.98	1008.77
713.385	337.04
713.789	290.23
714.194	330.02
714.599	332.36
715.003	273.84
715.408	306.61
715.812	358.1
716.217	365.12
716.621	365.12
717.025	313.63
717.429	320.65
717.833	355.76
718.238	330.02
718.642	231.71
719.046	304.27
719.449	318.31
719.853	330.02
720.257	327.67
720.661	306.61
721.065	294.91
721.468	320.65
721.872	318.31
722.275	273.84
722.679	287.89
723.082	355.76
723.485	337.04
723.889	390.87
724.292	318.31
724.695	367.46
725.098	372.15
725.501	358.1
725.904	283.2
726.307	344.06
726.71	360.44
727.113	358.1
727.516	355.76
727.918	337.04
728.321	325.33
728.724	355.76
729.126	383.85
729.529	404.91
729.931	320.65
730.333	325.33
730.736	320.65
731.138	395.55
731.54	290.23
731.942	313.63
732.344	325.33
732.746	351.08
733.148	332.36
733.55	409.59
733.952	360.44
734.354	344.06
734.756	351.08
735.157	294.91
735.559	330.02
735.96	341.72
736.362	367.46
736.763	299.59
737.165	355.76
737.566	285.55
737.967	360.44
738.368	318.31
738.77	315.97
739.171	320.65
739.572	397.89
739.973	341.72
740.374	292.57
740.774	311.29
741.175	308.95
741.576	308.95
741.977	332.36
742.377	332.36
742.778	332.36
743.178	344.06
743.579	362.78
743.979	304.27
744.379	262.14
744.78	360.44
745.18	339.38
745.58	381.51
745.98	374.49
746.38	348.74
746.78	327.67
747.18	369.8
747.58	344.06
747.98	301.93
748.38	308.95
748.779	269.16
749.179	304.27
749.578	320.65
749.978	327.67
750.377	344.06
750.777	292.57
751.176	290.23
751.575	327.67
751.975	353.42
752.374	362.78
752.773	322.99
753.172	301.93
753.571	306.61
753.97	367.46
754.369	320.65
754.768	365.12
755.166	294.91
755.565	283.2
755.964	374.49
756.362	308.95
756.761	297.25
757.159	318.31
757.558	332.36
757.956	283.2
758.354	325.33
758.753	330.02
759.151	344.06
759.549	322.99
759.947	351.08
760.345	320.65
760.743	365.12
761.141	339.38
761.539	271.5
761.936	337.04
762.334	322.99
762.732	376.83
763.129	332.36
763.527	339.38
763.924	376.83
764.322	322.99
764.719	313.63
765.117	383.85
765.514	337.04
765.911	407.25
766.308	243.42
766.705	327.67
767.102	301.93
767.499	330.02
767.896	337.04
768.293	315.97
768.69	311.29
769.086	337.04
769.483	299.59
769.88	273.84
770.276	325.33
770.673	397.89
771.069	330.02
771.466	269.16
771.862	262.14
772.258	348.74
772.654	285.55
773.05	294.91
773.447	339.38
773.843	381.51
774.239	262.14
774.634	332.36
775.03	341.72
775.426	322.99
775.822	339.38
776.218	269.16
776.613	351.08
777.009	318.31
777.404	285.55
777.8	313.63
778.195	311.29
778.59	351.08
778.986	348.74
779.381	299.59
779.776	294.91
780.171	322.99
780.566	374.49
780.961	341.72
781.356	390.87
781.751	355.76
782.146	257.46
782.54	287.89
782.935	318.31
783.33	320.65
783.724	362.78
784.119	308.95
784.513	311.29
784.908	334.7
785.302	360.44
785.696	372.15
786.09	278.52
786.485	341.72
786.879	306.61
787.273	304.27
787.667	330.02
788.061	297.25
788.454	285.55
788.848	255.12
789.242	369.8
789.636	341.72
790.029	306.61
790.423	407.25
790.816	397.89
791.21	313.63
791.603	304.27
791.997	358.1
792.39	304.27
792.783	313.63
793.176	313.63
793.569	369.8
793.962	365.12
794.355	355.76
794.748	285.55
795.141	276.18
795.534	294.91
795.927	325.33
796.319	339.38
796.712	313.63
797.105	360.44
797.497	360.44
797.89	353.42
798.282	369.8
798.674	262.14
799.067	379.17
799.459	332.36
799.851	241.08
800.243	351.08
800.635	395.55
801.027	416.62
801.419	341.72
801.811	330.02
802.203	379.17
802.594	346.4
802.986	327.67
803.378	360.44
803.769	290.23
804.161	346.4
804.552	334.7
804.944	339.38
805.335	322.99
805.726	287.89
806.118	348.74
806.509	325.33
806.9	322.99
807.291	393.21
807.682	344.06
808.073	360.44
808.464	376.83
808.855	313.63
809.245	283.2
809.636	297.25
810.027	341.72
810.417	360.44
810.808	285.55
811.198	337.04
811.589	325.33
811.979	248.1
812.369	322.99
812.759	276.18
813.15	334.7
813.54	259.8
813.93	280.86
814.32	294.91
814.71	276.18
815.1	344.06
815.489	306.61
815.879	334.7
816.269	304.27
816.658	332.36
817.048	297.25
817.438	344.06
817.827	386.19
818.216	290.23
818.606	322.99
818.995	339.38
819.384	344.06
819.773	224.69
820.163	344.06
820.552	294.91
820.941	262.14
821.33	372.15
821.718	372.15
822.107	315.97
822.496	355.76
822.885	334.7
823.273	353.42
823.662	330.02
824.05	325.33
824.439	287.89
824.827	362.78
825.216	334.7
825.604	322.99
825.992	306.61
826.38	376.83
826.768	367.46
827.156	400.23
827.544	304.27
827.932	301.93
828.32	337.04
828.708	299.59
829.096	325.33
829.483	351.08
829.871	407.25
830.259	362.78
830.646	292.57
831.034	330.02
831.421	313.63
831.808	351.08
832.196	297.25
832.583	304.27
832.97	360.44
833.357	271.5
833.744	229.37
834.131	334.7
834.518	294.91
834.905	346.4
835.292	330.02
835.678	322.99
836.065	311.29
836.452	304.27
836.838	330.02
837.225	346.4
837.611	308.95
837.998	318.31
838.384	337.04
838.77	304.27
839.157	330.02
839.543	292.57
839.929	287.89
840.315	339.38
840.701	318.31
841.087	351.08
841.473	351.08
841.858	301.93
842.244	332.36
842.63	362.78
843.015	262.14
843.401	449.38
843.787	234.05
844.172	351.08
844.557	372.15
844.943	301.93
845.328	301.93
845.713	353.42
846.098	299.59
846.483	269.16
846.868	322.99
847.253	271.5
847.638	344.06
848.023	315.97
848.408	325.33
848.793	322.99
849.177	325.33
849.562	362.78
849.947	348.74
850.331	362.78
850.715	304.27
851.1	306.61
851.484	344.06
851.868	308.95
852.253	301.93
852.637	346.4
853.021	358.1
853.405	325.33
853.789	339.38
854.173	351.08
854.557	231.71
854.94	337.04
855.324	353.42
855.708	276.18
856.091	351.08
856.475	325.33
856.858	292.57
857.242	269.16
857.625	322.99
858.009	351.08
858.392	376.83
858.775	304.27
859.158	334.7
859.541	327.67
859.924	294.91
860.307	346.4
860.69	346.4
861.073	358.1
861.456	287.89
861.838	308.95
862.221	362.78
862.604	367.46
862.986	332.36
863.369	315.97
863.751	353.42
864.133	325.33
864.516	318.31
864.898	248.1
865.28	320.65
865.662	325.33
866.044	344.06
866.426	320.65
866.808	290.23
867.19	304.27
867.572	353.42
867.954	278.52
868.336	304.27
868.717	273.84
869.099	332.36
869.48	348.74
869.862	348.74
870.243	313.63
870.625	271.5
871.006	355.76
871.387	355.76
871.768	332.36
872.149	290.23
872.53	315.97
872.911	283.2
873.292	306.61
873.673	365.12
874.054	301.93
874.435	344.06
874.815	238.73
875.196	311.29
875.577	325.33
875.957	337.04
876.338	320.65
876.718	360.44
877.098	299.59
877.479	325.33
877.859	339.38
878.239	322.99
878.619	351.08
878.999	325.33
879.379	334.7
879.759	318.31
880.139	327.67
880.519	360.44
880.898	339.38
881.278	358.1
881.658	330.02
882.037	283.2
882.417	266.82
882.796	313.63
883.176	308.95
883.555	294.91
883.934	276.18
884.313	299.59
884.693	351.08
885.072	222.35
885.451	341.72
885.83	327.67
886.209	292.57
886.587	355.76
886.966	241.08
887.345	299.59
887.724	297.25
888.102	318.31
888.481	320.65
888.859	287.89
889.238	362.78
889.616	315.97
889.994	301.93
890.373	369.8
890.751	292.57
891.129	320.65
891.507	315.97
891.885	332.36
892.263	285.55
892.641	351.08
893.019	322.99
893.396	353.42
893.774	383.85
894.152	327.67
894.529	308.95
894.907	308.95
895.284	301.93
895.662	306.61
896.039	236.39
896.416	283.2
896.794	325.33
897.171	313.63
897.548	311.29
897.925	355.76
898.302	383.85
898.679	353.42
899.056	355.76
899.433	379.17
899.809	362.78
900.186	376.83
900.563	339.38
900.939	353.42
901.316	266.82
901.692	287.89
902.069	337.04
902.445	327.67
902.821	320.65
903.197	294.91
903.574	287.89
903.95	283.2
904.326	353.42
904.702	266.82
905.078	322.99
905.454	330.02
905.829	322.99
906.205	311.29
906.581	280.86
906.956	318.31
907.332	294.91
907.707	327.67
908.083	276.18
908.458	278.52
908.833	358.1
909.209	294.91
909.584	301.93
909.959	318.31
910.334	358.1
910.709	337.04
911.084	327.67
911.459	327.67
911.834	311.29
912.209	341.72
912.583	315.97
912.958	287.89
913.333	273.84
913.707	280.86
914.082	351.08
914.456	227.03
914.83	362.78
915.205	252.78
915.579	273.84
915.953	313.63
916.327	318.31
916.701	325.33
917.075	334.7
917.449	322.99
917.823	280.86
918.197	297.25
918.571	311.29
918.944	334.7
919.318	313.63
919.692	353.42
920.065	287.89
920.438	318.31
920.812	311.29
921.185	337.04
921.558	358.1
921.932	330.02
922.305	334.7
922.678	360.44
923.051	395.55
923.424	280.86
923.797	341.72
924.17	315.97
924.542	379.17
924.915	355.76
925.288	325.33
925.661	346.4
926.033	348.74
926.406	322.99
926.778	292.57
927.15	292.57
927.523	344.06
927.895	327.67
928.267	322.99
928.639	346.4
929.011	365.12
929.383	330.02
929.755	334.7
930.127	313.63
930.499	273.84
930.871	348.74
931.242	322.99
931.614	311.29
931.986	285.55
932.357	355.76
932.729	308.95
933.1	308.95
933.471	294.91
933.843	308.95
934.214	306.61
934.585	315.97
934.956	278.52
935.327	304.27
935.698	344.06
936.069	372.15
936.44	301.93
936.811	358.1
937.182	360.44
937.552	320.65
937.923	283.2
938.293	262.14
938.664	341.72
939.034	234.05
939.405	351.08
939.775	360.44
940.145	414.27
940.516	383.85
940.886	278.52
941.256	290.23
941.626	299.59
941.996	341.72
942.366	358.1
942.735	353.42
943.105	301.93
943.475	344.06
943.845	313.63
944.214	369.8
944.584	283.2
944.953	299.59
945.323	269.16
945.692	322.99
946.061	341.72
946.43	355.76
946.8	320.65
947.169	306.61
947.538	346.4
947.907	388.53
948.276	325.33
948.645	308.95
949.013	381.51
949.382	269.16
949.751	351.08
950.119	353.42
950.488	334.7
950.857	301.93
951.225	292.57
951.593	337.04
951.962	372.15
952.33	330.02
952.698	318.31
953.066	271.5
953.434	372.15
953.802	292.57
954.17	280.86
954.538	358.1
954.906	311.29
955.274	269.16
955.642	397.89
956.009	358.1
956.377	313.63
956.744	332.36
957.112	334.7
957.479	276.18
957.847	299.59
958.214	369.8
958.581	341.72
958.948	386.19
959.315	290.23
959.683	301.93
960.05	374.49
960.416	294.91
960.783	276.18
961.15	348.74
961.517	290.23
961.884	325.33
962.25	388.53
962.617	318.31
962.983	351.08
963.35	311.29
963.716	292.57
964.082	369.8
964.449	390.87
964.815	285.55
965.181	308.95
965.547	322.99
965.913	365.12
966.279	353.42
966.645	313.63
967.011	353.42
967.377	365.12
967.742	301.93
968.108	372.15
968.474	346.4
968.839	301.93
969.205	344.06
969.57	346.4
969.935	325.33
970.301	320.65
970.666	285.55
971.031	278.52
971.396	330.02
971.761	334.7
972.126	276.18
972.491	308.95
972.856	283.2
973.221	262.14
973.586	278.52
973.95	290.23
974.315	283.2
974.679	304.27
975.044	339.38
975.408	273.84
975.773	264.48
976.137	248.1
976.501	341.72
976.866	313.63
977.23	332.36
977.594	322.99
977.958	327.67
978.322	327.67
978.686	327.67
979.049	313.63
979.413	341.72
979.777	259.8
980.141	278.52
980.504	278.52
980.868	337.04
981.231	308.95
981.595	311.29
981.958	334.7
982.321	362.78
982.684	344.06
983.048	344.06
983.411	341.72
983.774	339.38
984.137	273.84
984.5	330.02
984.862	330.02
985.225	313.63
985.588	341.72
985.951	327.67
986.313	308.95
986.676	318.31
987.038	365.12
987.401	280.86
987.763	301.93
988.125	278.52
988.488	325.33
988.85	311.29
989.212	320.65
989.574	318.31
989.936	367.46
990.298	395.55
990.66	337.04
991.022	304.27
991.383	306.61
991.745	308.95
992.107	290.23
992.468	236.39
992.83	304.27
993.191	264.48
993.553	292.57
993.914	287.89
994.275	290.23
994.637	337.04
994.998	266.82
995.359	379.17
995.72	287.89
996.081	339.38
996.442	311.29
996.803	276.18
997.163	290.23
997.524	255.12
997.885	248.1
998.245	322.99
998.606	332.36
998.966	320.65
999.327	318.31
999.687	351.08
1000.047	327.67
1000.408	299.59
1000.768	327.67
1001.128	306.61
1001.488	332.36
1001.848	334.7
1002.208	325.33
1002.568	287.89
1002.927	297.25
1003.287	290.23
1003.647	330.02
1004.007	358.1
1004.366	320.65
1004.726	278.52
1005.085	325.33
1005.444	285.55
1005.804	332.36
1006.163	290.23
1006.522	339.38
1006.881	283.2
1007.24	346.4
1007.599	322.99
1007.958	372.15
1008.317	351.08
1008.676	337.04
1009.035	395.55
1009.393	346.4
1009.752	320.65
1010.111	276.18
1010.469	353.42
1010.828	322.99
1011.186	273.84
1011.544	308.95
1011.903	365.12
1012.261	287.89
1012.619	308.95
1012.977	308.95
1013.335	386.19
1013.693	372.15
1014.051	330.02
1014.409	330.02
1014.767	311.29
1015.124	351.08
1015.482	311.29
1015.84	346.4
1016.197	355.76
1016.555	290.23
1016.912	262.14
1017.269	280.86
1017.627	362.78
1017.984	339.38
1018.341	348.74
1018.698	311.29
1019.055	386.19
1019.412	320.65
1019.769	271.5
1020.126	337.04
1020.483	304.27
1020.84	294.91
1021.196	365.12
1021.553	311.29
1021.909	315.97
1022.266	341.72
1022.622	327.67
1022.979	339.38
1023.335	332.36
1023.691	250.44
1024.047	271.5
1024.404	372.15
1024.76	304.27
1025.116	313.63
1025.472	283.2
1025.827	287.89
1026.183	278.52
1026.539	346.4
1026.895	351.08
1027.25	276.18
1027.606	297.25
1027.961	287.89
1028.317	264.48
1028.672	308.95
1029.028	341.72
1029.383	311.29
1029.738	353.42
1030.093	337.04
1030.448	287.89
1030.803	280.86
1031.158	304.27
1031.513	283.2
1031.868	372.15
1032.223	372.15
1032.577	325.33
1032.932	308.95
1033.287	337.04
1033.641	325.33
1033.996	315.97
1034.35	353.42
1034.704	306.61
1035.059	250.44
1035.413	283.2
1035.767	283.2
1036.121	283.2
