Data from Al_FLMS009871__1208__16-42-06-579.txt Node

Date: Fri Mar 08 16:42:06 CST 2024
User: pe5414po
Spectrometer: FLMS00987
Trigger mode: 0
Integration Time (sec): 1.000000E-1
Scans to average: 1
Electric dark correction enabled: true
Nonlinearity correction enabled: false
Boxcar width: 0
XAxis mode: Wavelengths
Number of Pixels in Spectrum: 2048
>>>>>Begin Spectral Data<<<<<
188.938	-61.88
189.409	-61.88
189.879	-61.88
190.349	-134.43
190.819	-155.5
191.29	-176.56
191.76	-87.62
192.23	-118.05
192.7	-87.62
193.17	-82.94
193.64	-47.83
194.109	-78.26
194.579	-22.09
195.049	80.89
195.519	17.7
195.988	50.47
196.458	62.17
196.927	99.62
197.397	90.26
197.866	158.13
198.336	141.75
198.805	85.58
199.274	127.71
199.744	221.33
200.213	218.99
200.682	172.18
201.151	228.35
201.62	249.41
202.089	211.96
202.558	258.78
203.027	263.46
203.495	263.46
203.964	235.37
204.433	324.31
204.902	254.09
205.37	289.2
205.839	251.75
206.307	284.52
206.776	296.22
207.244	279.84
207.712	303.25
208.181	336.01
208.649	235.37
209.117	254.09
209.585	279.84
210.053	254.09
210.521	289.2
210.989	293.88
211.457	256.43
211.925	228.35
212.393	218.99
212.861	284.52
213.328	254.09
213.796	300.91
214.264	300.91
214.731	235.37
215.199	268.14
215.666	350.06
216.133	204.94
216.601	242.39
217.068	270.48
217.535	249.41
218.003	240.05
218.47	289.2
218.937	218.99
219.404	214.31
219.871	314.95
220.338	193.24
220.805	256.43
221.271	207.28
221.738	242.39
222.205	263.46
222.671	249.41
223.138	249.41
223.605	261.12
224.071	251.75
224.538	298.56
225.004	230.69
225.47	254.09
225.937	195.58
226.403	228.35
226.869	261.12
227.335	272.82
227.801	289.2
228.267	317.29
228.733	230.69
229.199	237.71
229.665	186.22
230.131	289.2
230.597	340.69
231.062	254.09
231.528	310.27
231.994	242.39
232.459	242.39
232.925	291.54
233.39	289.2
233.856	218.99
234.321	261.12
234.786	242.39
235.252	233.03
235.717	190.9
236.182	183.88
236.647	312.61
237.112	303.25
237.577	256.43
238.042	235.37
238.507	249.41
238.972	235.37
239.436	300.91
239.901	211.96
240.366	251.75
240.83	221.33
241.295	172.18
241.76	275.16
242.224	272.82
242.688	312.61
243.153	268.14
243.617	286.86
244.081	300.91
244.545	247.07
245.01	305.59
245.474	291.54
245.938	188.56
246.402	270.48
246.866	254.09
247.33	286.86
247.793	275.16
248.257	336.01
248.721	303.25
249.185	233.03
249.648	240.05
250.112	268.14
250.575	321.97
251.039	328.99
251.502	218.99
251.965	254.09
252.429	300.91
252.892	211.96
253.355	247.07
253.818	244.73
254.281	307.93
254.744	247.07
255.207	286.86
255.67	230.69
256.133	223.67
256.596	242.39
257.059	249.41
257.522	272.82
257.984	291.54
258.447	228.35
258.909	303.25
259.372	254.09
259.834	261.12
260.297	209.62
260.759	207.28
261.221	272.82
261.684	265.8
262.146	345.38
262.608	296.22
263.07	303.25
263.532	289.2
263.994	305.59
264.456	279.84
264.918	286.86
265.38	291.54
265.842	270.48
266.303	338.35
266.765	261.12
267.227	268.14
267.688	284.52
268.15	247.07
268.611	284.52
269.072	251.75
269.534	221.33
269.995	244.73
270.456	230.69
270.918	277.5
271.379	293.88
271.84	286.86
272.301	340.69
272.762	263.46
273.223	258.78
273.684	286.86
274.144	277.5
274.605	300.91
275.066	242.39
275.527	226.01
275.987	286.86
276.448	300.91
276.908	256.43
277.369	223.67
277.829	242.39
278.289	244.73
278.75	247.07
279.21	254.09
279.67	340.69
280.13	336.01
280.59	354.74
281.05	258.78
281.51	195.58
281.97	324.31
282.43	331.33
282.89	251.75
283.35	305.59
283.809	350.06
284.269	272.82
284.729	263.46
285.188	317.29
285.648	291.54
286.107	300.91
286.567	293.88
287.026	326.65
287.485	186.22
287.944	284.52
288.404	298.56
288.863	319.63
289.322	256.43
289.781	307.93
290.24	291.54
290.699	228.35
291.158	275.16
291.616	268.14
292.075	261.12
292.534	284.52
292.992	221.33
293.451	202.6
293.91	258.78
294.368	312.61
294.827	216.65
295.285	244.73
295.743	258.78
296.202	277.5
296.66	310.27
297.118	303.25
297.576	331.33
298.034	211.96
298.492	296.22
298.95	284.52
299.408	268.14
299.866	211.96
300.324	240.05
300.781	286.86
301.239	319.63
301.697	300.91
302.154	272.82
302.612	343.03
303.069	277.5
303.527	298.56
303.984	284.52
304.441	293.88
304.899	319.63
305.356	300.91
305.813	303.25
306.27	328.99
306.727	286.86
307.184	256.43
307.641	312.61
308.098	300.91
308.555	303.25
309.012	202.6
309.468	286.86
309.925	277.5
310.382	247.07
310.838	296.22
311.295	235.37
311.751	291.54
312.208	244.73
312.664	291.54
313.12	272.82
313.577	265.8
314.033	312.61
314.489	284.52
314.945	284.52
315.401	317.29
315.857	286.86
316.313	314.95
316.769	300.91
317.225	258.78
317.681	261.12
318.136	254.09
318.592	314.95
319.048	284.52
319.503	282.18
319.959	284.52
320.414	284.52
320.869	286.86
321.325	226.01
321.78	279.84
322.235	291.54
322.691	277.5
323.146	305.59
323.601	270.48
324.056	233.03
324.511	261.12
324.966	258.78
325.421	272.82
325.875	331.33
326.33	303.25
326.785	303.25
327.24	305.59
327.694	317.29
328.149	296.22
328.603	296.22
329.058	254.09
329.512	258.78
329.966	331.33
330.421	258.78
330.875	300.91
331.329	307.93
331.783	300.91
332.237	263.46
332.691	357.08
333.145	289.2
333.599	293.88
334.053	242.39
334.507	298.56
334.96	233.03
335.414	340.69
335.868	263.46
336.321	284.52
336.775	307.93
337.228	312.61
337.682	328.99
338.135	293.88
338.588	305.59
339.042	293.88
339.495	305.59
339.948	331.33
340.401	300.91
340.854	254.09
341.307	328.99
341.76	328.99
342.213	286.86
342.666	284.52
343.119	331.33
343.571	289.2
344.024	293.88
344.477	277.5
344.929	263.46
345.382	347.72
345.834	368.78
346.287	366.44
346.739	244.73
347.191	251.75
347.644	298.56
348.096	291.54
348.548	312.61
349	289.2
349.452	293.88
349.904	331.33
350.356	289.2
350.808	310.27
351.26	298.56
351.711	268.14
352.163	291.54
352.615	307.93
353.066	317.29
353.518	307.93
353.969	324.31
354.421	284.52
354.872	265.8
355.324	298.56
355.775	293.88
356.226	333.67
356.677	324.31
357.128	310.27
357.579	284.52
358.03	333.67
358.481	300.91
358.932	296.22
359.383	251.75
359.834	286.86
360.285	352.4
360.735	317.29
361.186	282.18
361.637	317.29
362.087	296.22
362.538	296.22
362.988	298.56
363.438	303.25
363.889	261.12
364.339	291.54
364.789	319.63
365.239	251.75
365.689	314.95
366.139	293.88
366.589	298.56
367.039	289.2
367.489	293.88
367.939	249.41
368.389	314.95
368.839	284.52
369.288	317.29
369.738	272.82
370.187	333.67
370.637	258.78
371.086	282.18
371.536	251.75
371.985	233.03
372.434	310.27
372.884	343.03
373.333	247.07
373.782	345.38
374.231	293.88
374.68	251.75
375.129	305.59
375.578	272.82
376.027	261.12
376.475	371.12
376.924	289.2
377.373	333.67
377.822	345.38
378.27	261.12
378.719	305.59
379.167	261.12
379.616	328.99
380.064	265.8
380.512	326.65
380.961	286.86
381.409	251.75
381.857	261.12
382.305	305.59
382.753	279.84
383.201	244.73
383.649	303.25
384.097	340.69
384.545	272.82
384.992	307.93
385.44	298.56
385.888	314.95
386.335	305.59
386.783	256.43
387.231	289.2
387.678	289.2
388.125	296.22
388.573	380.48
389.02	277.5
389.467	293.88
389.914	228.35
390.362	314.95
390.809	291.54
391.256	244.73
391.703	305.59
392.15	296.22
392.596	314.95
393.043	331.33
393.49	275.16
393.937	272.82
394.383	305.59
394.83	235.37
395.276	282.18
395.723	226.01
396.169	326.65
396.616	272.82
397.062	317.29
397.508	270.48
397.954	359.42
398.401	298.56
398.847	279.84
399.293	321.97
399.739	321.97
400.185	296.22
400.631	242.39
401.076	242.39
401.522	324.31
401.968	366.44
402.414	310.27
402.859	284.52
403.305	340.69
403.75	272.82
404.196	265.8
404.641	279.84
405.086	296.22
405.532	310.27
405.977	321.97
406.422	249.41
406.867	368.78
407.312	371.12
407.757	289.2
408.202	314.95
408.647	352.4
409.092	286.86
409.537	300.91
409.982	298.56
410.426	272.82
410.871	300.91
411.316	277.5
411.76	340.69
412.205	256.43
412.649	312.61
413.093	298.56
413.538	277.5
413.982	314.95
414.426	328.99
414.87	216.65
415.314	364.1
415.758	338.35
416.202	277.5
416.646	298.56
417.09	331.33
417.534	279.84
417.978	284.52
418.421	268.14
418.865	298.56
419.309	338.35
419.752	317.29
420.196	272.82
420.639	286.86
421.083	298.56
421.526	289.2
421.969	298.56
422.412	247.07
422.856	272.82
423.299	303.25
423.742	303.25
424.185	312.61
424.628	254.09
425.071	317.29
425.513	249.41
425.956	282.18
426.399	324.31
426.842	289.2
427.284	270.48
427.727	291.54
428.169	321.97
428.612	296.22
429.054	289.2
429.497	298.56
429.939	312.61
430.381	244.73
430.823	286.86
431.265	275.16
431.707	364.1
432.149	338.35
432.591	303.25
433.033	282.18
433.475	277.5
433.917	261.12
434.359	279.84
434.8	235.37
435.242	312.61
435.684	286.86
436.125	373.46
436.567	279.84
437.008	331.33
437.449	347.72
437.891	263.46
438.332	214.31
438.773	321.97
439.214	282.18
439.656	228.35
440.097	303.25
440.538	298.56
440.978	296.22
441.419	303.25
441.86	282.18
442.301	324.31
442.742	265.8
443.182	272.82
443.623	310.27
444.063	256.43
444.504	310.27
444.944	319.63
445.385	289.2
445.825	312.61
446.265	310.27
446.706	275.16
447.146	340.69
447.586	284.52
448.026	291.54
448.466	307.93
448.906	305.59
449.346	328.99
449.786	240.05
450.225	350.06
450.665	359.42
451.105	314.95
451.544	331.33
451.984	286.86
452.424	361.76
452.863	333.67
453.302	300.91
453.742	258.78
454.181	286.86
454.62	277.5
455.059	291.54
455.499	326.65
455.938	305.59
456.377	272.82
456.816	296.22
457.254	214.31
457.693	251.75
458.132	338.35
458.571	284.52
459.01	324.31
459.448	251.75
459.887	284.52
460.325	317.29
460.764	258.78
461.202	277.5
461.641	368.78
462.079	314.95
462.517	321.97
462.955	347.72
463.393	277.5
463.832	343.03
464.27	272.82
464.708	291.54
465.145	307.93
465.583	333.67
466.021	343.03
466.459	270.48
466.897	317.29
467.334	247.07
467.772	244.73
468.209	254.09
468.647	214.31
469.084	321.97
469.522	249.41
469.959	326.65
470.396	270.48
470.833	321.97
471.271	235.37
471.708	286.86
472.145	284.52
472.582	233.03
473.019	389.85
473.456	340.69
473.892	296.22
474.329	338.35
474.766	307.93
475.202	263.46
475.639	338.35
476.076	314.95
476.512	289.2
476.949	275.16
477.385	275.16
477.821	350.06
478.258	272.82
478.694	317.29
479.13	310.27
479.566	352.4
480.002	282.18
480.438	293.88
480.874	303.25
481.31	307.93
481.746	296.22
482.181	321.97
482.617	286.86
483.053	286.86
483.488	251.75
483.924	291.54
484.36	310.27
484.795	282.18
485.23	305.59
485.666	317.29
486.101	350.06
486.536	317.29
486.971	303.25
487.407	291.54
487.842	251.75
488.277	338.35
488.712	298.56
489.146	328.99
489.581	321.97
490.016	279.84
490.451	321.97
490.885	218.99
491.32	321.97
491.755	249.41
492.189	298.56
492.624	296.22
493.058	319.63
493.492	347.72
493.927	300.91
494.361	312.61
494.795	272.82
495.229	275.16
495.663	326.65
496.097	317.29
496.531	375.8
496.965	326.65
497.399	296.22
497.833	307.93
498.266	303.25
498.7	247.07
499.134	317.29
499.567	305.59
500.001	307.93
500.434	305.59
500.868	282.18
501.301	340.69
501.734	291.54
502.168	359.42
502.601	300.91
503.034	359.42
503.467	300.91
503.9	307.93
504.333	286.86
504.766	345.38
505.199	310.27
505.632	209.62
506.064	336.01
506.497	296.22
506.93	317.29
507.362	265.8
507.795	300.91
508.227	275.16
508.66	277.5
509.092	303.25
509.524	291.54
509.956	307.93
510.389	291.54
510.821	319.63
511.253	328.99
511.685	251.75
512.117	326.65
512.549	298.56
512.981	289.2
513.412	303.25
513.844	284.52
514.276	293.88
514.707	368.78
515.139	293.88
515.571	324.31
516.002	291.54
516.433	310.27
516.865	338.35
517.296	319.63
517.727	319.63
518.159	293.88
518.59	354.74
519.021	298.56
519.452	289.2
519.883	345.38
520.314	277.5
520.744	275.16
521.175	284.52
521.606	340.69
522.037	293.88
522.467	305.59
522.898	310.27
523.328	375.8
523.759	263.46
524.189	230.69
524.62	314.95
525.05	275.16
525.48	373.46
525.91	364.1
526.341	282.18
526.771	230.69
527.201	286.86
527.631	326.65
528.061	331.33
528.49	312.61
528.92	282.18
529.35	305.59
529.78	298.56
530.209	282.18
530.639	366.44
531.068	303.25
531.498	296.22
531.927	256.43
532.357	289.2
532.786	233.03
533.215	319.63
533.644	347.72
534.074	263.46
534.503	354.74
534.932	345.38
535.361	270.48
535.79	298.56
536.218	326.65
536.647	279.84
537.076	293.88
537.505	293.88
537.933	275.16
538.362	321.97
538.79	284.52
539.219	319.63
539.647	296.22
540.076	338.35
540.504	272.82
540.932	254.09
541.36	279.84
541.788	291.54
542.217	279.84
542.645	317.29
543.073	368.78
543.5	312.61
543.928	284.52
544.356	321.97
544.784	321.97
545.211	296.22
545.639	230.69
546.067	314.95
546.494	254.09
546.922	300.91
547.349	263.46
547.776	352.4
548.204	343.03
548.631	336.01
549.058	340.69
549.485	279.84
549.912	286.86
550.339	310.27
550.766	303.25
551.193	324.31
551.62	265.8
552.047	305.59
552.474	289.2
552.9	244.73
553.327	338.35
553.754	230.69
554.18	286.86
554.607	321.97
555.033	275.16
555.459	265.8
555.886	263.46
556.312	347.72
556.738	282.18
557.164	347.72
557.59	300.91
558.016	256.43
558.442	321.97
558.868	317.29
559.294	270.48
559.72	289.2
560.145	282.18
560.571	361.76
560.997	233.03
561.422	293.88
561.848	279.84
562.273	317.29
562.699	338.35
563.124	279.84
563.549	366.44
563.974	307.93
564.4	284.52
564.825	303.25
565.25	307.93
565.675	298.56
566.1	270.48
566.525	277.5
566.95	286.86
567.374	298.56
567.799	270.48
568.224	303.25
568.648	319.63
569.073	338.35
569.497	275.16
569.922	382.82
570.346	305.59
570.771	336.01
571.195	326.65
571.619	305.59
572.043	298.56
572.467	277.5
572.891	247.07
573.315	312.61
573.739	282.18
574.163	307.93
574.587	314.95
575.011	263.46
575.435	328.99
575.858	354.74
576.282	279.84
576.705	343.03
577.129	336.01
577.552	303.25
577.976	312.61
578.399	293.88
578.822	221.33
579.245	312.61
579.669	282.18
580.092	226.01
580.515	314.95
580.938	324.31
581.361	286.86
581.784	364.1
582.206	303.25
582.629	347.72
583.052	300.91
583.474	272.82
583.897	340.69
584.32	268.14
584.742	265.8
585.165	364.1
585.587	284.52
586.009	263.46
586.431	249.41
586.854	282.18
587.276	303.25
587.698	310.27
588.12	340.69
588.542	268.14
588.964	289.2
589.386	319.63
589.807	312.61
590.229	254.09
590.651	226.01
591.073	279.84
591.494	284.52
591.916	319.63
592.337	284.52
592.759	307.93
593.18	307.93
593.601	300.91
594.022	298.56
594.444	319.63
594.865	303.25
595.286	289.2
595.707	326.65
596.128	307.93
596.549	364.1
596.97	385.16
597.39	261.12
597.811	331.33
598.232	275.16
598.652	279.84
599.073	284.52
599.494	256.43
599.914	305.59
600.334	357.08
600.755	270.48
601.175	314.95
601.595	357.08
602.015	375.8
602.436	350.06
602.856	392.19
603.276	296.22
603.696	321.97
604.115	279.84
604.535	324.31
604.955	303.25
605.375	291.54
605.794	249.41
606.214	312.61
606.634	277.5
607.053	282.18
607.473	251.75
607.892	296.22
608.311	268.14
608.731	296.22
609.15	270.48
609.569	289.2
609.988	282.18
610.407	286.86
610.826	268.14
611.245	293.88
611.664	293.88
612.083	321.97
612.501	272.82
612.92	286.86
613.339	305.59
613.757	333.67
614.176	389.85
614.594	228.35
615.013	343.03
615.431	333.67
615.85	282.18
616.268	235.37
616.686	254.09
617.104	324.31
617.522	338.35
617.94	261.12
618.358	214.31
618.776	298.56
619.194	319.63
619.612	364.1
620.03	307.93
620.447	298.56
620.865	312.61
621.282	265.8
621.7	270.48
622.117	303.25
622.535	312.61
622.952	254.09
623.369	305.59
623.787	293.88
624.204	286.86
624.621	268.14
625.038	289.2
625.455	300.91
625.872	300.91
626.289	291.54
626.706	324.31
627.123	284.52
627.539	298.56
627.956	350.06
628.373	331.33
628.789	277.5
629.206	268.14
629.622	359.42
630.038	300.91
630.455	272.82
630.871	286.86
631.287	286.86
631.703	268.14
632.12	331.33
632.536	350.06
632.952	324.31
633.368	300.91
633.783	324.31
634.199	254.09
634.615	291.54
635.031	319.63
635.446	265.8
635.862	338.35
636.277	307.93
636.693	284.52
637.108	293.88
637.524	305.59
637.939	251.75
638.354	284.52
638.77	277.5
639.185	328.99
639.6	319.63
640.015	312.61
640.43	375.8
640.845	282.18
641.259	312.61
641.674	331.33
642.089	268.14
642.504	270.48
642.918	312.61
643.333	244.73
643.747	240.05
644.162	272.82
644.576	336.01
644.991	277.5
645.405	293.88
645.819	268.14
646.233	223.67
646.647	289.2
647.061	282.18
647.475	268.14
647.889	305.59
648.303	265.8
648.717	326.65
649.131	275.16
649.545	240.05
649.958	258.78
650.372	305.59
650.785	298.56
651.199	291.54
651.612	328.99
652.026	258.78
652.439	235.37
652.852	307.93
653.266	307.93
653.679	265.8
654.092	380.48
654.505	270.48
654.918	345.38
655.331	345.38
655.744	328.99
656.156	375.8
656.569	298.56
656.982	317.29
657.394	307.93
657.807	298.56
658.22	340.69
658.632	321.97
659.044	326.65
659.457	256.43
659.869	307.93
660.281	300.91
660.693	291.54
661.106	298.56
661.518	305.59
661.93	284.52
662.342	307.93
662.754	307.93
663.165	345.38
663.577	371.12
663.989	291.54
664.401	298.56
664.812	275.16
665.224	275.16
665.635	324.31
666.047	284.52
666.458	368.78
666.869	343.03
667.281	310.27
667.692	319.63
668.103	305.59
668.514	296.22
668.925	347.72
669.336	293.88
669.747	261.12
670.158	221.33
670.569	328.99
670.979	279.84
671.39	240.05
671.801	307.93
672.211	310.27
672.622	307.93
673.032	200.26
673.443	343.03
673.853	321.97
674.263	336.01
674.674	279.84
675.084	258.78
675.494	240.05
675.904	314.95
676.314	354.74
676.724	289.2
677.134	296.22
677.544	328.99
677.953	296.22
678.363	275.16
678.773	317.29
679.182	347.72
679.592	307.93
680.001	286.86
680.411	268.14
680.82	265.8
681.23	303.25
681.639	326.65
682.048	254.09
682.457	310.27
682.866	319.63
683.275	226.01
683.684	261.12
684.093	293.88
684.502	289.2
684.911	336.01
685.32	336.01
685.728	336.01
686.137	305.59
686.546	293.88
686.954	354.74
687.363	181.54
687.771	312.61
688.179	272.82
688.588	291.54
688.996	251.75
689.404	282.18
689.812	254.09
690.22	359.42
690.628	261.12
691.036	307.93
691.444	326.65
691.852	350.06
692.26	296.22
692.667	331.33
693.075	289.2
693.483	387.5
693.89	230.69
694.298	272.82
694.705	305.59
695.112	307.93
695.52	347.72
695.927	249.41
696.334	293.88
696.741	296.22
697.148	228.35
697.555	326.65
697.962	272.82
698.369	305.59
698.776	333.67
699.183	338.35
699.59	265.8
699.996	350.06
700.403	291.54
700.81	347.72
701.216	336.01
701.623	291.54
702.029	319.63
702.435	275.16
702.842	303.25
703.248	340.69
703.654	284.52
704.06	307.93
704.466	286.86
704.872	286.86
705.278	272.82
705.684	282.18
706.09	312.61
706.496	338.35
706.901	254.09
707.307	303.25
707.712	326.65
708.118	314.95
708.523	275.16
708.929	284.52
709.334	268.14
709.74	251.75
710.145	263.46
710.55	268.14
710.955	324.31
711.36	282.18
711.765	223.67
712.17	298.56
712.575	343.03
712.98	872
713.385	340.69
713.789	293.88
714.194	256.43
714.599	310.27
715.003	265.8
715.408	230.69
715.812	352.4
716.217	296.22
716.621	312.61
717.025	300.91
717.429	314.95
717.833	310.27
718.238	305.59
718.642	310.27
719.046	279.84
719.449	258.78
719.853	307.93
720.257	324.31
720.661	317.29
721.065	214.31
721.468	272.82
721.872	293.88
722.275	282.18
722.679	321.97
723.082	289.2
723.485	345.38
723.889	333.67
724.292	284.52
724.695	328.99
725.098	303.25
725.501	284.52
725.904	319.63
726.307	268.14
726.71	317.29
727.113	244.73
727.516	254.09
727.918	275.16
728.321	286.86
728.724	247.07
729.126	298.56
729.529	345.38
729.931	286.86
730.333	310.27
730.736	328.99
731.138	275.16
731.54	270.48
731.942	272.82
732.344	293.88
732.746	256.43
733.148	272.82
733.55	265.8
733.952	293.88
734.354	333.67
734.756	305.59
735.157	284.52
735.559	254.09
735.96	258.78
736.362	310.27
736.763	310.27
737.165	310.27
737.566	317.29
737.967	263.46
738.368	298.56
738.77	303.25
739.171	293.88
739.572	284.52
739.973	321.97
740.374	312.61
740.774	296.22
741.175	296.22
741.576	282.18
741.977	343.03
742.377	361.76
742.778	305.59
743.178	357.08
743.579	293.88
743.979	333.67
744.379	300.91
744.78	277.5
745.18	298.56
745.58	296.22
745.98	282.18
746.38	368.78
746.78	333.67
747.18	331.33
747.58	291.54
747.98	307.93
748.38	319.63
748.779	286.86
749.179	361.76
749.578	350.06
749.978	275.16
750.377	336.01
750.777	249.41
751.176	277.5
751.575	263.46
751.975	235.37
752.374	275.16
752.773	324.31
753.172	333.67
753.571	303.25
753.97	307.93
754.369	357.08
754.768	338.35
755.166	282.18
755.565	343.03
755.964	270.48
756.362	336.01
756.761	270.48
757.159	326.65
757.558	338.35
757.956	298.56
758.354	270.48
758.753	321.97
759.151	298.56
759.549	359.42
759.947	275.16
760.345	284.52
760.743	375.8
761.141	256.43
761.539	300.91
761.936	319.63
762.334	296.22
762.732	233.03
763.129	310.27
763.527	307.93
763.924	303.25
764.322	291.54
764.719	331.33
765.117	368.78
765.514	270.48
765.911	314.95
766.308	321.97
766.705	343.03
767.102	324.31
767.499	307.93
767.896	277.5
768.293	300.91
768.69	314.95
769.086	310.27
769.483	307.93
769.88	296.22
770.276	326.65
770.673	333.67
771.069	284.52
771.466	331.33
771.862	277.5
772.258	261.12
772.654	254.09
773.05	268.14
773.447	282.18
773.843	277.5
774.239	228.35
774.634	303.25
775.03	333.67
775.426	326.65
775.822	399.21
776.218	282.18
776.613	333.67
777.009	319.63
777.404	289.2
777.8	254.09
778.195	256.43
778.59	268.14
778.986	303.25
779.381	317.29
779.776	350.06
780.171	310.27
780.566	277.5
780.961	282.18
781.356	336.01
781.751	249.41
782.146	293.88
782.54	235.37
782.935	256.43
783.33	298.56
783.724	314.95
784.119	291.54
784.513	321.97
784.908	357.08
785.302	326.65
785.696	338.35
786.09	284.52
786.485	300.91
786.879	279.84
787.273	223.67
787.667	317.29
788.061	338.35
788.454	340.69
788.848	298.56
789.242	279.84
789.636	354.74
790.029	303.25
790.423	230.69
790.816	307.93
791.21	303.25
791.603	340.69
791.997	282.18
792.39	300.91
792.783	354.74
793.176	291.54
793.569	328.99
793.962	321.97
794.355	289.2
794.748	298.56
795.141	303.25
795.534	293.88
795.927	263.46
796.319	331.33
796.712	331.33
797.105	282.18
797.497	277.5
797.89	312.61
798.282	291.54
798.674	244.73
799.067	270.48
799.459	305.59
799.851	296.22
800.243	284.52
800.635	331.33
801.027	317.29
801.419	338.35
801.811	286.86
802.203	314.95
802.594	263.46
802.986	303.25
803.378	340.69
803.769	333.67
804.161	338.35
804.552	321.97
804.944	296.22
805.335	268.14
805.726	314.95
806.118	350.06
806.509	240.05
806.9	258.78
807.291	300.91
807.682	300.91
808.073	282.18
808.464	319.63
808.855	310.27
809.245	331.33
809.636	298.56
810.027	317.29
810.417	256.43
810.808	289.2
811.198	296.22
811.589	312.61
811.979	303.25
812.369	310.27
812.759	345.38
813.15	230.69
813.54	268.14
813.93	300.91
814.32	303.25
814.71	284.52
815.1	296.22
815.489	314.95
815.879	317.29
816.269	357.08
816.658	254.09
817.048	258.78
817.438	258.78
817.827	326.65
818.216	284.52
818.606	284.52
818.995	240.05
819.384	249.41
819.773	261.12
820.163	352.4
820.552	282.18
820.941	254.09
821.33	300.91
821.718	340.69
822.107	319.63
822.496	340.69
822.885	303.25
823.273	321.97
823.662	310.27
824.05	237.71
824.439	310.27
824.827	263.46
825.216	263.46
825.604	279.84
825.992	291.54
826.38	331.33
826.768	284.52
827.156	293.88
827.544	298.56
827.932	331.33
828.32	310.27
828.708	343.03
829.096	319.63
829.483	312.61
829.871	272.82
830.259	307.93
830.646	286.86
831.034	279.84
831.421	314.95
831.808	298.56
832.196	326.65
832.583	305.59
832.97	251.75
833.357	268.14
833.744	289.2
834.131	265.8
834.518	268.14
834.905	336.01
835.292	272.82
835.678	270.48
836.065	338.35
836.452	314.95
836.838	270.48
837.225	326.65
837.611	270.48
837.998	354.74
838.384	366.44
838.77	331.33
839.157	284.52
839.543	331.33
839.929	317.29
840.315	298.56
840.701	277.5
841.087	258.78
841.473	324.31
841.858	307.93
842.244	242.39
842.63	272.82
843.015	343.03
843.401	343.03
843.787	279.84
844.172	307.93
844.557	321.97
844.943	300.91
845.328	314.95
845.713	218.99
846.098	298.56
846.483	258.78
846.868	350.06
847.253	244.73
847.638	310.27
848.023	345.38
848.408	347.72
848.793	291.54
849.177	218.99
849.562	336.01
849.947	279.84
850.331	279.84
850.715	261.12
851.1	347.72
851.484	261.12
851.868	326.65
852.253	275.16
852.637	345.38
853.021	303.25
853.405	331.33
853.789	336.01
854.173	202.6
854.557	368.78
854.94	296.22
855.324	314.95
855.708	265.8
856.091	291.54
856.475	328.99
856.858	286.86
857.242	286.86
857.625	282.18
858.009	331.33
858.392	275.16
858.775	291.54
859.158	268.14
859.541	350.06
859.924	286.86
860.307	296.22
860.69	279.84
861.073	258.78
861.456	300.91
861.838	268.14
862.221	277.5
862.604	284.52
862.986	268.14
863.369	279.84
863.751	277.5
864.133	258.78
864.516	338.35
864.898	319.63
865.28	247.07
865.662	291.54
866.044	240.05
866.426	247.07
866.808	256.43
867.19	343.03
867.572	284.52
867.954	249.41
868.336	263.46
868.717	343.03
869.099	291.54
869.48	305.59
869.862	338.35
870.243	242.39
870.625	296.22
871.006	279.84
871.387	286.86
871.768	307.93
872.149	284.52
872.53	277.5
872.911	293.88
873.292	338.35
873.673	265.8
874.054	343.03
874.435	310.27
874.815	305.59
875.196	298.56
875.577	258.78
875.957	296.22
876.338	293.88
876.718	319.63
877.098	321.97
877.479	272.82
877.859	263.46
878.239	282.18
878.619	293.88
878.999	286.86
879.379	303.25
879.759	279.84
880.139	279.84
880.519	375.8
880.898	277.5
881.278	319.63
881.658	289.2
882.037	321.97
882.417	284.52
882.796	268.14
883.176	265.8
883.555	214.31
883.934	263.46
884.313	277.5
884.693	282.18
885.072	319.63
885.451	350.06
885.83	279.84
886.209	286.86
886.587	279.84
886.966	326.65
887.345	263.46
887.724	270.48
888.102	291.54
888.481	298.56
888.859	298.56
889.238	261.12
889.616	247.07
889.994	284.52
890.373	368.78
890.751	261.12
891.129	251.75
891.507	268.14
891.885	310.27
892.263	226.01
892.641	284.52
893.019	312.61
893.396	240.05
893.774	312.61
894.152	284.52
894.529	244.73
894.907	310.27
895.284	314.95
895.662	263.46
896.039	296.22
896.416	284.52
896.794	340.69
897.171	305.59
897.548	275.16
897.925	282.18
898.302	254.09
898.679	244.73
899.056	272.82
899.433	310.27
899.809	331.33
900.186	378.14
900.563	284.52
900.939	265.8
901.316	336.01
901.692	300.91
902.069	324.31
902.445	258.78
902.821	291.54
903.197	317.29
903.574	312.61
903.95	314.95
904.326	291.54
904.702	265.8
905.078	317.29
905.454	286.86
905.829	333.67
906.205	251.75
906.581	272.82
906.956	261.12
907.332	268.14
907.707	240.05
908.083	289.2
908.458	289.2
908.833	289.2
909.209	277.5
909.584	338.35
909.959	251.75
910.334	275.16
910.709	242.39
911.084	277.5
911.459	270.48
911.834	312.61
912.209	282.18
912.583	359.42
912.958	314.95
913.333	354.74
913.707	328.99
914.082	303.25
914.456	296.22
914.83	300.91
915.205	326.65
915.579	251.75
915.953	226.01
916.327	268.14
916.701	261.12
917.075	326.65
917.449	298.56
917.823	284.52
918.197	305.59
918.571	303.25
918.944	293.88
919.318	279.84
919.692	347.72
920.065	263.46
920.438	244.73
920.812	300.91
921.185	340.69
921.558	293.88
921.932	289.2
922.305	312.61
922.678	326.65
923.051	324.31
923.424	263.46
923.797	251.75
924.17	343.03
924.542	270.48
924.915	258.78
925.288	321.97
925.661	326.65
926.033	310.27
926.406	270.48
926.778	263.46
927.15	277.5
927.523	270.48
927.895	307.93
928.267	289.2
928.639	293.88
929.011	268.14
929.383	298.56
929.755	326.65
930.127	293.88
930.499	277.5
930.871	272.82
931.242	307.93
931.614	279.84
931.986	268.14
932.357	333.67
932.729	284.52
933.1	345.38
933.471	293.88
933.843	249.41
934.214	291.54
934.585	300.91
934.956	247.07
935.327	319.63
935.698	305.59
936.069	303.25
936.44	317.29
936.811	272.82
937.182	251.75
937.552	343.03
937.923	235.37
938.293	303.25
938.664	270.48
939.034	275.16
939.405	282.18
939.775	261.12
940.145	291.54
940.516	317.29
940.886	300.91
941.256	317.29
941.626	359.42
941.996	312.61
942.366	265.8
942.735	279.84
943.105	293.88
943.475	296.22
943.845	272.82
944.214	221.33
944.584	350.06
944.953	319.63
945.323	244.73
945.692	317.29
946.061	305.59
946.43	319.63
946.8	279.84
947.169	279.84
947.538	336.01
947.907	305.59
948.276	270.48
948.645	293.88
949.013	331.33
949.382	275.16
949.751	300.91
950.119	270.48
950.488	263.46
950.857	263.46
951.225	296.22
951.593	321.97
951.962	284.52
952.33	247.07
952.698	237.71
953.066	296.22
953.434	310.27
953.802	272.82
954.17	263.46
954.538	333.67
954.906	324.31
955.274	233.03
955.642	321.97
956.009	289.2
956.377	333.67
956.744	291.54
957.112	265.8
957.479	254.09
957.847	270.48
958.214	310.27
958.581	261.12
958.948	258.78
959.315	251.75
959.683	373.46
960.05	242.39
960.416	237.71
960.783	296.22
961.15	256.43
961.517	279.84
961.884	251.75
962.25	310.27
962.617	310.27
962.983	254.09
963.35	293.88
963.716	303.25
964.082	298.56
964.449	307.93
964.815	307.93
965.181	338.35
965.547	282.18
965.913	284.52
966.279	336.01
966.645	303.25
967.011	289.2
967.377	265.8
967.742	258.78
968.108	270.48
968.474	291.54
968.839	336.01
969.205	366.44
969.57	300.91
969.935	261.12
970.301	317.29
970.666	284.52
971.031	265.8
971.396	289.2
971.761	204.94
972.126	247.07
972.491	366.44
972.856	338.35
973.221	312.61
973.586	303.25
973.95	328.99
974.315	293.88
974.679	317.29
975.044	263.46
975.408	366.44
975.773	321.97
976.137	258.78
976.501	251.75
976.866	354.74
977.23	265.8
977.594	221.33
977.958	277.5
978.322	293.88
978.686	336.01
979.049	244.73
979.413	314.95
979.777	282.18
980.141	343.03
980.504	284.52
980.868	303.25
981.231	286.86
981.595	307.93
981.958	268.14
982.321	286.86
982.684	300.91
983.048	305.59
983.411	279.84
983.774	347.72
984.137	263.46
984.5	265.8
984.862	226.01
985.225	284.52
985.588	307.93
985.951	307.93
986.313	333.67
986.676	289.2
987.038	263.46
987.401	303.25
987.763	331.33
988.125	319.63
988.488	293.88
988.85	345.38
989.212	343.03
989.574	263.46
989.936	284.52
990.298	305.59
990.66	331.33
991.022	286.86
991.383	307.93
991.745	296.22
992.107	263.46
992.468	244.73
992.83	286.86
993.191	298.56
993.553	291.54
993.914	237.71
994.275	340.69
994.637	286.86
994.998	275.16
995.359	275.16
995.72	235.37
996.081	286.86
996.442	277.5
996.803	254.09
997.163	310.27
997.524	317.29
997.885	282.18
998.245	286.86
998.606	261.12
998.966	228.35
999.327	223.67
999.687	265.8
1000.047	272.82
1000.408	293.88
1000.768	268.14
1001.128	275.16
1001.488	305.59
1001.848	303.25
1002.208	291.54
1002.568	291.54
1002.927	324.31
1003.287	296.22
1003.647	310.27
1004.007	321.97
1004.366	275.16
1004.726	361.76
1005.085	282.18
1005.444	270.48
1005.804	249.41
1006.163	226.01
1006.522	286.86
1006.881	298.56
1007.24	270.48
1007.599	310.27
1007.958	270.48
1008.317	291.54
1008.676	331.33
1009.035	326.65
1009.393	350.06
1009.752	312.61
1010.111	307.93
1010.469	254.09
1010.828	359.42
1011.186	282.18
1011.544	296.22
1011.903	293.88
1012.261	275.16
1012.619	282.18
1012.977	270.48
1013.335	347.72
1013.693	277.5
1014.051	258.78
1014.409	364.1
1014.767	251.75
1015.124	284.52
1015.482	328.99
1015.84	277.5
1016.197	312.61
1016.555	326.65
1016.912	277.5
1017.269	270.48
1017.627	286.86
1017.984	268.14
1018.341	270.48
1018.698	343.03
1019.055	312.61
1019.412	226.01
1019.769	268.14
1020.126	279.84
1020.483	338.35
1020.84	272.82
1021.196	279.84
1021.553	291.54
1021.909	298.56
1022.266	284.52
1022.622	317.29
1022.979	312.61
1023.335	303.25
1023.691	233.03
1024.047	258.78
1024.404	284.52
1024.76	286.86
1025.116	300.91
1025.472	223.67
1025.827	277.5
1026.183	240.05
1026.539	277.5
1026.895	350.06
1027.25	303.25
1027.606	277.5
1027.961	319.63
1028.317	211.96
1028.672	319.63
1029.028	343.03
1029.383	258.78
1029.738	321.97
1030.093	310.27
1030.448	275.16
1030.803	300.91
1031.158	333.67
1031.513	314.95
1031.868	284.52
1032.223	361.76
1032.577	317.29
1032.932	272.82
1033.287	310.27
1033.641	361.76
1033.996	254.09
1034.35	373.46
1034.704	303.25
1035.059	275.16
1035.413	314.95
1035.767	314.95
1036.121	314.95
