Data from Al_FLMS009871__1219__16-42-07-679.txt Node

Date: Fri Mar 08 16:42:07 CST 2024
User: pe5414po
Spectrometer: FLMS00987
Trigger mode: 0
Integration Time (sec): 1.000000E-1
Scans to average: 1
Electric dark correction enabled: true
Nonlinearity correction enabled: false
Boxcar width: 0
XAxis mode: Wavelengths
Number of Pixels in Spectrum: 2048
>>>>>Begin Spectral Data<<<<<
188.938	-32.18
189.409	-32.18
189.879	-32.18
190.349	-142.19
190.819	-88.36
191.29	-36.86
191.76	-78.99
192.23	-139.85
192.7	-86.01
193.17	-93.04
193.64	-11.12
194.109	-46.23
194.579	12.29
195.049	-1.76
195.519	35.69
195.988	-1.76
196.458	12.29
196.927	75.48
197.397	119.95
197.866	129.31
198.336	110.59
198.805	150.38
199.274	162.08
199.744	176.13
200.213	199.53
200.682	213.57
201.151	143.36
201.62	215.91
202.089	185.49
202.558	262.73
203.027	265.07
203.495	281.45
203.964	208.89
204.433	236.98
204.902	288.47
205.37	304.85
205.839	283.79
206.307	262.73
206.776	290.81
207.244	246.34
207.712	332.94
208.181	281.45
208.649	283.79
209.117	358.69
209.585	300.17
210.053	286.13
210.521	279.11
210.989	244
211.457	272.09
211.925	297.83
212.393	258.04
212.861	335.28
213.328	279.11
213.796	283.79
214.264	307.2
214.731	314.22
215.199	293.15
215.666	218.25
216.133	295.49
216.601	283.79
217.068	272.09
217.535	276.77
218.003	309.54
218.47	229.96
218.937	267.41
219.404	199.53
219.871	276.77
220.338	218.25
220.805	272.09
221.271	276.77
221.738	262.73
222.205	239.32
222.671	281.45
223.138	311.88
223.605	276.77
224.071	265.07
224.538	332.94
225.004	297.83
225.47	258.04
225.937	309.54
226.403	248.68
226.869	267.41
227.335	251.02
227.801	211.23
228.267	269.75
228.733	187.83
229.199	286.13
229.665	325.92
230.131	211.23
230.597	236.98
231.062	251.02
231.528	323.58
231.994	297.83
232.459	225.28
232.925	225.28
233.39	232.3
233.856	258.04
234.321	307.2
234.786	321.24
235.252	260.38
235.717	274.43
236.182	309.54
236.647	232.3
237.112	295.49
237.577	236.98
238.042	332.94
238.507	307.2
238.972	302.51
239.436	314.22
239.901	286.13
240.366	309.54
240.83	302.51
241.295	229.96
241.76	314.22
242.224	290.81
242.688	246.34
243.153	234.64
243.617	286.13
244.081	318.9
244.545	255.7
245.01	262.73
245.474	260.38
245.938	262.73
246.402	297.83
246.866	248.68
247.33	311.88
247.793	232.3
248.257	194.85
248.721	279.11
249.185	332.94
249.648	276.77
250.112	307.2
250.575	307.2
251.039	302.51
251.502	295.49
251.965	281.45
252.429	269.75
252.892	321.24
253.355	346.98
253.818	309.54
254.281	297.83
254.744	251.02
255.207	281.45
255.67	236.98
256.133	307.2
256.596	246.34
257.059	269.75
257.522	241.66
257.984	286.13
258.447	288.47
258.909	262.73
259.372	260.38
259.834	307.2
260.297	267.41
260.759	260.38
261.221	274.43
261.684	316.56
262.146	302.51
262.608	253.36
263.07	265.07
263.532	295.49
263.994	274.43
264.456	328.26
264.918	339.96
265.38	295.49
265.842	300.17
266.303	286.13
266.765	316.56
267.227	225.28
267.688	276.77
268.15	265.07
268.611	267.41
269.072	274.43
269.534	204.21
269.995	332.94
270.456	272.09
270.918	239.32
271.379	272.09
271.84	185.49
272.301	328.26
272.762	288.47
273.223	244
273.684	283.79
274.144	269.75
274.605	316.56
275.066	302.51
275.527	339.96
275.987	323.58
276.448	321.24
276.908	260.38
277.369	323.58
277.829	220.6
278.289	300.17
278.75	234.64
279.21	246.34
279.67	253.36
280.13	351.67
280.59	241.66
281.05	269.75
281.51	253.36
281.97	236.98
282.43	290.81
282.89	255.7
283.35	283.79
283.809	335.28
284.269	276.77
284.729	311.88
285.188	258.04
285.648	272.09
286.107	232.3
286.567	220.6
287.026	346.98
287.485	276.77
287.944	302.51
288.404	321.24
288.863	328.26
289.322	311.88
289.781	295.49
290.24	318.9
290.699	272.09
291.158	293.15
291.616	281.45
292.075	300.17
292.534	218.25
292.992	297.83
293.451	286.13
293.91	302.51
294.368	255.7
294.827	220.6
295.285	269.75
295.743	309.54
296.202	309.54
296.66	267.41
297.118	304.85
297.576	251.02
298.034	339.96
298.492	316.56
298.95	290.81
299.408	323.58
299.866	265.07
300.324	323.58
300.781	260.38
301.239	330.6
301.697	276.77
302.154	323.58
302.612	286.13
303.069	321.24
303.527	309.54
303.984	295.49
304.441	253.36
304.899	276.77
305.356	300.17
305.813	335.28
306.27	300.17
306.727	288.47
307.184	309.54
307.641	302.51
308.098	265.07
308.555	279.11
309.012	246.34
309.468	293.15
309.925	253.36
310.382	272.09
310.838	316.56
311.295	295.49
311.751	323.58
312.208	260.38
312.664	246.34
313.12	349.32
313.577	337.62
314.033	248.68
314.489	297.83
314.945	281.45
315.401	328.26
315.857	293.15
316.313	290.81
316.769	311.88
317.225	302.51
317.681	307.2
318.136	272.09
318.592	330.6
319.048	295.49
319.503	286.13
319.959	274.43
320.414	297.83
320.869	300.17
321.325	318.9
321.78	262.73
322.235	267.41
322.691	311.88
323.146	293.15
323.601	274.43
324.056	302.51
324.511	318.9
324.966	267.41
325.421	328.26
325.875	290.81
326.33	295.49
326.785	279.11
327.24	351.67
327.694	349.32
328.149	297.83
328.603	286.13
329.058	316.56
329.512	318.9
329.966	314.22
330.421	307.2
330.875	328.26
331.329	297.83
331.783	330.6
332.237	300.17
332.691	241.66
333.145	316.56
333.599	321.24
334.053	351.67
334.507	307.2
334.96	311.88
335.414	260.38
335.868	248.68
336.321	295.49
336.775	321.24
337.228	309.54
337.682	368.05
338.135	304.85
338.588	304.85
339.042	318.9
339.495	311.88
339.948	323.58
340.401	267.41
340.854	304.85
341.307	269.75
341.76	300.17
342.213	295.49
342.666	314.22
343.119	281.45
343.571	251.02
344.024	269.75
344.477	323.58
344.929	286.13
345.382	363.37
345.834	354.01
346.287	255.7
346.739	318.9
347.191	318.9
347.644	321.24
348.096	321.24
348.548	346.98
349	344.64
349.452	349.32
349.904	248.68
350.356	281.45
350.808	302.51
351.26	307.2
351.711	300.17
352.163	258.04
352.615	288.47
353.066	295.49
353.518	260.38
353.969	288.47
354.421	337.62
354.872	325.92
355.324	304.85
355.775	354.01
356.226	321.24
356.677	246.34
357.128	311.88
357.579	323.58
358.03	241.66
358.481	304.85
358.932	309.54
359.383	295.49
359.834	253.36
360.285	330.6
360.735	314.22
361.186	316.56
361.637	304.85
362.087	274.43
362.538	304.85
362.988	309.54
363.438	307.2
363.889	304.85
364.339	290.81
364.789	351.67
365.239	260.38
365.689	339.96
366.139	281.45
366.589	321.24
367.039	262.73
367.489	349.32
367.939	281.45
368.389	302.51
368.839	253.36
369.288	307.2
369.738	290.81
370.187	269.75
370.637	323.58
371.086	349.32
371.536	311.88
371.985	255.7
372.434	279.11
372.884	300.17
373.333	328.26
373.782	342.3
374.231	351.67
374.68	363.37
375.129	204.21
375.578	307.2
376.027	318.9
376.475	262.73
376.924	335.28
377.373	335.28
377.822	335.28
378.27	354.01
378.719	307.2
379.167	293.15
379.616	269.75
380.064	377.41
380.512	344.64
380.961	325.92
381.409	300.17
381.857	368.05
382.305	328.26
382.753	335.28
383.201	335.28
383.649	344.64
384.097	234.64
384.545	339.96
384.992	372.73
385.44	260.38
385.888	339.96
386.335	293.15
386.783	267.41
387.231	339.96
387.678	339.96
388.125	351.67
388.573	323.58
389.02	253.36
389.467	379.75
389.914	262.73
390.362	365.71
390.809	258.04
391.256	344.64
391.703	318.9
392.15	311.88
392.596	274.43
393.043	290.81
393.49	311.88
393.937	283.79
394.383	309.54
394.83	351.67
395.276	302.51
395.723	229.96
396.169	309.54
396.616	325.92
397.062	314.22
397.508	276.77
397.954	332.94
398.401	339.96
398.847	260.38
399.293	304.85
399.739	281.45
400.185	258.04
400.631	248.68
401.076	339.96
401.522	323.58
401.968	302.51
402.414	262.73
402.859	379.75
403.305	398.48
403.75	314.22
404.196	304.85
404.641	311.88
405.086	304.85
405.532	328.26
405.977	309.54
406.422	290.81
406.867	314.22
407.312	281.45
407.757	344.64
408.202	293.15
408.647	316.56
409.092	304.85
409.537	363.37
409.982	325.92
410.426	314.22
410.871	316.56
411.316	258.04
411.76	283.79
412.205	297.83
412.649	304.85
413.093	293.15
413.538	272.09
413.982	286.13
414.426	265.07
414.87	314.22
415.314	337.62
415.758	241.66
416.202	328.26
416.646	309.54
417.09	389.11
417.534	358.69
417.978	274.43
418.421	293.15
418.865	297.83
419.309	281.45
419.752	304.85
420.196	370.39
420.639	304.85
421.083	269.75
421.526	321.24
421.969	286.13
422.412	248.68
422.856	239.32
423.299	330.6
423.742	379.75
424.185	286.13
424.628	346.98
425.071	318.9
425.513	300.17
425.956	300.17
426.399	314.22
426.842	232.3
427.284	269.75
427.727	307.2
428.169	255.7
428.612	290.81
429.054	307.2
429.497	293.15
429.939	335.28
430.381	318.9
430.823	325.92
431.265	358.69
431.707	332.94
432.149	251.02
432.591	265.07
433.033	265.07
433.475	304.85
433.917	304.85
434.359	325.92
434.8	318.9
435.242	281.45
435.684	370.39
436.125	346.98
436.567	302.51
437.008	302.51
437.449	260.38
437.891	309.54
438.332	311.88
438.773	314.22
439.214	304.85
439.656	302.51
440.097	339.96
440.538	365.71
440.978	318.9
441.419	318.9
441.86	370.39
442.301	332.94
442.742	321.24
443.182	269.75
443.623	302.51
444.063	375.07
444.504	309.54
444.944	309.54
445.385	325.92
445.825	304.85
446.265	260.38
446.706	302.51
447.146	246.34
447.586	344.64
448.026	370.39
448.466	344.64
448.906	337.62
449.346	342.3
449.786	265.07
450.225	281.45
450.665	279.11
451.105	344.64
451.544	290.81
451.984	309.54
452.424	325.92
452.863	316.56
453.302	283.79
453.742	279.11
454.181	255.7
454.62	288.47
455.059	246.34
455.499	244
455.938	358.69
456.377	290.81
456.816	349.32
457.254	295.49
457.693	321.24
458.132	300.17
458.571	302.51
459.01	351.67
459.448	300.17
459.887	332.94
460.325	288.47
460.764	253.36
461.202	295.49
461.641	311.88
462.079	295.49
462.517	236.98
462.955	391.45
463.393	304.85
463.832	262.73
464.27	337.62
464.708	337.62
465.145	297.83
465.583	328.26
466.021	335.28
466.459	372.73
466.897	349.32
467.334	354.01
467.772	307.2
468.209	330.6
468.647	274.43
469.084	239.32
469.522	321.24
469.959	260.38
470.396	332.94
470.833	332.94
471.271	281.45
471.708	272.09
472.145	321.24
472.582	290.81
473.019	370.39
473.456	363.37
473.892	377.41
474.329	328.26
474.766	321.24
475.202	258.04
475.639	255.7
476.076	286.13
476.512	307.2
476.949	351.67
477.385	351.67
477.821	332.94
478.258	309.54
478.694	316.56
479.13	295.49
479.566	262.73
480.002	314.22
480.438	358.69
480.874	330.6
481.31	318.9
481.746	302.51
482.181	267.41
482.617	290.81
483.053	318.9
483.488	316.56
483.924	318.9
484.36	281.45
484.795	368.05
485.23	297.83
485.666	274.43
486.101	316.56
486.536	349.32
486.971	323.58
487.407	335.28
487.842	337.62
488.277	288.47
488.712	295.49
489.146	295.49
489.581	316.56
490.016	283.79
490.451	279.11
490.885	375.07
491.32	361.03
491.755	330.6
492.189	361.03
492.624	213.57
493.058	335.28
493.492	295.49
493.927	286.13
494.361	346.98
494.795	293.15
495.229	307.2
495.663	328.26
496.097	309.54
496.531	330.6
496.965	267.41
497.399	288.47
497.833	307.2
498.266	251.02
498.7	328.26
499.134	295.49
499.567	311.88
500.001	297.83
500.434	339.96
500.868	302.51
501.301	318.9
501.734	281.45
502.168	307.2
502.601	309.54
503.034	276.77
503.467	335.28
503.9	265.07
504.333	311.88
504.766	316.56
505.199	304.85
505.632	354.01
506.064	318.9
506.497	300.17
506.93	321.24
507.362	300.17
507.795	297.83
508.227	302.51
508.66	363.37
509.092	309.54
509.524	246.34
509.956	377.41
510.389	239.32
510.821	349.32
511.253	288.47
511.685	290.81
512.117	342.3
512.549	318.9
512.981	332.94
513.412	279.11
513.844	349.32
514.276	332.94
514.707	339.96
515.139	318.9
515.571	358.69
516.002	272.09
516.433	328.26
516.865	295.49
517.296	311.88
517.727	342.3
518.159	321.24
518.59	339.96
519.021	304.85
519.452	337.62
519.883	290.81
520.314	314.22
520.744	346.98
521.175	309.54
521.606	311.88
522.037	349.32
522.467	318.9
522.898	307.2
523.328	279.11
523.759	304.85
524.189	328.26
524.62	344.64
525.05	283.79
525.48	307.2
525.91	323.58
526.341	368.05
526.771	316.56
527.201	328.26
527.631	339.96
528.061	276.77
528.49	332.94
528.92	325.92
529.35	288.47
529.78	248.68
530.209	258.04
530.639	314.22
531.068	321.24
531.498	297.83
531.927	295.49
532.357	272.09
532.786	225.28
533.215	337.62
533.644	274.43
534.074	342.3
534.503	255.7
534.932	330.6
535.361	354.01
535.79	314.22
536.218	332.94
536.647	300.17
537.076	295.49
537.505	288.47
537.933	300.17
538.362	365.71
538.79	279.11
539.219	361.03
539.647	279.11
540.076	307.2
540.504	330.6
540.932	241.66
541.36	267.41
541.788	297.83
542.217	293.15
542.645	262.73
543.073	297.83
543.5	309.54
543.928	316.56
544.356	361.03
544.784	316.56
545.211	311.88
545.639	283.79
546.067	283.79
546.494	351.67
546.922	363.37
547.349	361.03
547.776	281.45
548.204	295.49
548.631	309.54
549.058	302.51
549.485	304.85
549.912	302.51
550.339	323.58
550.766	335.28
551.193	346.98
551.62	244
552.047	318.9
552.474	314.22
552.9	279.11
553.327	302.51
553.754	288.47
554.18	218.25
554.607	346.98
555.033	358.69
555.459	337.62
555.886	302.51
556.312	375.07
556.738	349.32
557.164	300.17
557.59	325.92
558.016	337.62
558.442	297.83
558.868	258.04
559.294	288.47
559.72	339.96
560.145	316.56
560.571	344.64
560.997	309.54
561.422	302.51
561.848	318.9
562.273	321.24
562.699	344.64
563.124	344.64
563.549	309.54
563.974	344.64
564.4	290.81
564.825	279.11
565.25	307.2
565.675	269.75
566.1	288.47
566.525	344.64
566.95	265.07
567.374	307.2
567.799	330.6
568.224	344.64
568.648	321.24
569.073	365.71
569.497	316.56
569.922	398.48
570.346	335.28
570.771	290.81
571.195	293.15
571.619	382.09
572.043	290.81
572.467	358.69
572.891	297.83
573.315	295.49
573.739	321.24
574.163	311.88
574.587	304.85
575.011	283.79
575.435	332.94
575.858	314.22
576.282	215.91
576.705	314.22
577.129	328.26
577.552	328.26
577.976	365.71
578.399	316.56
578.822	314.22
579.245	311.88
579.669	265.07
580.092	358.69
580.515	321.24
580.938	323.58
581.361	332.94
581.784	314.22
582.206	323.58
582.629	281.45
583.052	295.49
583.474	281.45
583.897	379.75
584.32	332.94
584.742	396.14
585.165	286.13
585.587	307.2
586.009	286.13
586.431	272.09
586.854	323.58
587.276	253.36
587.698	255.7
588.12	309.54
588.542	316.56
588.964	300.17
589.386	321.24
589.807	286.13
590.229	293.15
590.651	321.24
591.073	339.96
591.494	295.49
591.916	356.35
592.337	323.58
592.759	318.9
593.18	281.45
593.601	267.41
594.022	269.75
594.444	323.58
594.865	316.56
595.286	274.43
595.707	290.81
596.128	316.56
596.549	290.81
596.97	335.28
597.39	262.73
597.811	255.7
598.232	269.75
598.652	325.92
599.073	316.56
599.494	382.09
599.914	351.67
600.334	293.15
600.755	274.43
601.175	297.83
601.595	293.15
602.015	318.9
602.436	342.3
602.856	426.56
603.276	368.05
603.696	300.17
604.115	316.56
604.535	337.62
604.955	262.73
605.375	351.67
605.794	279.11
606.214	255.7
606.634	321.24
607.053	344.64
607.473	370.39
607.892	349.32
608.311	272.09
608.731	295.49
609.15	288.47
609.569	337.62
609.988	328.26
610.407	297.83
610.826	295.49
611.245	335.28
611.664	354.01
612.083	339.96
612.501	372.73
612.92	253.36
613.339	307.2
613.757	288.47
614.176	276.77
614.594	297.83
615.013	311.88
615.431	297.83
615.85	293.15
616.268	286.13
616.686	265.07
617.104	323.58
617.522	274.43
617.94	342.3
618.358	262.73
618.776	267.41
619.194	328.26
619.612	304.85
620.03	290.81
620.447	283.79
620.865	323.58
621.282	358.69
621.7	342.3
622.117	321.24
622.535	272.09
622.952	314.22
623.369	309.54
623.787	332.94
624.204	262.73
624.621	382.09
625.038	356.35
625.455	274.43
625.872	337.62
626.289	293.15
626.706	368.05
627.123	330.6
627.539	309.54
627.956	321.24
628.373	290.81
628.789	272.09
629.206	337.62
629.622	372.73
630.038	351.67
630.455	288.47
630.871	339.96
631.287	311.88
631.703	344.64
632.12	314.22
632.536	307.2
632.952	309.54
633.368	300.17
633.783	330.6
634.199	300.17
634.615	269.75
635.031	311.88
635.446	354.01
635.862	351.67
636.277	316.56
636.693	307.2
637.108	276.77
637.524	316.56
637.939	304.85
638.354	279.11
638.77	339.96
639.185	309.54
639.6	321.24
640.015	300.17
640.43	358.69
640.845	295.49
641.259	339.96
641.674	300.17
642.089	330.6
642.504	244
642.918	337.62
643.333	267.41
643.747	293.15
644.162	267.41
644.576	311.88
644.991	297.83
645.405	318.9
645.819	286.13
646.233	323.58
646.647	258.04
647.061	307.2
647.475	269.75
647.889	337.62
648.303	309.54
648.717	290.81
649.131	344.64
649.545	297.83
649.958	339.96
650.372	316.56
650.785	297.83
651.199	339.96
651.612	363.37
652.026	342.3
652.439	246.34
652.852	316.56
653.266	318.9
653.679	349.32
654.092	346.98
654.505	309.54
654.918	302.51
655.331	269.75
655.744	290.81
656.156	354.01
656.569	316.56
656.982	290.81
657.394	283.79
657.807	302.51
658.22	339.96
658.632	236.98
659.044	241.66
659.457	314.22
659.869	267.41
660.281	295.49
660.693	286.13
661.106	354.01
661.518	332.94
661.93	314.22
662.342	300.17
662.754	351.67
663.165	274.43
663.577	370.39
663.989	332.94
664.401	339.96
664.812	304.85
665.224	300.17
665.635	304.85
666.047	267.41
666.458	253.36
666.869	272.09
667.281	288.47
667.692	407.84
668.103	328.26
668.514	265.07
668.925	274.43
669.336	297.83
669.747	389.11
670.158	344.64
670.569	323.58
670.979	370.39
671.39	311.88
671.801	286.13
672.211	302.51
672.622	300.17
673.032	314.22
673.443	323.58
673.853	314.22
674.263	300.17
674.674	358.69
675.084	314.22
675.494	304.85
675.904	346.98
676.314	391.45
676.724	309.54
677.134	267.41
677.544	328.26
677.953	311.88
678.363	246.34
678.773	302.51
679.182	300.17
679.592	279.11
680.001	389.11
680.411	300.17
680.82	342.3
681.23	321.24
681.639	325.92
682.048	258.04
682.457	339.96
682.866	309.54
683.275	272.09
683.684	330.6
684.093	332.94
684.502	365.71
684.911	288.47
685.32	288.47
685.728	328.26
686.137	253.36
686.546	283.79
686.954	279.11
687.363	265.07
687.771	288.47
688.179	307.2
688.588	375.07
688.996	339.96
689.404	304.85
689.812	354.01
690.22	339.96
690.628	274.43
691.036	286.13
691.444	267.41
691.852	293.15
692.26	346.98
692.667	304.85
693.075	290.81
693.483	314.22
693.89	328.26
694.298	232.3
694.705	258.04
695.112	330.6
695.52	356.35
695.927	358.69
696.334	363.37
696.741	272.09
697.148	276.77
697.555	335.28
697.962	281.45
698.369	288.47
698.776	302.51
699.183	351.67
699.59	293.15
699.996	288.47
700.403	283.79
700.81	332.94
701.216	328.26
701.623	248.68
702.029	297.83
702.435	300.17
702.842	328.26
703.248	321.24
703.654	295.49
704.06	335.28
704.466	311.88
704.872	330.6
705.278	309.54
705.684	267.41
706.09	302.51
706.496	286.13
706.901	332.94
707.307	335.28
707.712	356.35
708.118	309.54
708.523	290.81
708.929	290.81
709.334	302.51
709.74	283.79
710.145	311.88
710.55	339.96
710.955	269.75
711.36	361.03
711.765	253.36
712.17	346.98
712.575	375.07
712.98	882.97
713.385	323.58
713.789	311.88
714.194	265.07
714.599	330.6
715.003	323.58
715.408	318.9
715.812	239.32
716.217	356.35
716.621	318.9
717.025	375.07
717.429	339.96
717.833	267.41
718.238	335.28
718.642	335.28
719.046	297.83
719.449	351.67
719.853	281.45
720.257	321.24
720.661	325.92
721.065	265.07
721.468	281.45
721.872	269.75
722.275	309.54
722.679	279.11
723.082	267.41
723.485	302.51
723.889	311.88
724.292	316.56
724.695	330.6
725.098	290.81
725.501	276.77
725.904	309.54
726.307	316.56
726.71	356.35
727.113	311.88
727.516	290.81
727.918	307.2
728.321	325.92
728.724	349.32
729.126	337.62
729.529	316.56
729.931	279.11
730.333	288.47
730.736	267.41
731.138	297.83
731.54	330.6
731.942	316.56
732.344	307.2
732.746	272.09
733.148	335.28
733.55	323.58
733.952	325.92
734.354	335.28
734.756	251.02
735.157	283.79
735.559	346.98
735.96	288.47
736.362	330.6
736.763	293.15
737.165	328.26
737.566	354.01
737.967	302.51
738.368	276.77
738.77	244
739.171	302.51
739.572	260.38
739.973	276.77
740.374	318.9
740.774	297.83
741.175	351.67
741.576	241.66
741.977	314.22
742.377	316.56
742.778	293.15
743.178	295.49
743.579	297.83
743.979	328.26
744.379	311.88
744.78	295.49
745.18	286.13
745.58	335.28
745.98	311.88
746.38	234.64
746.78	304.85
747.18	281.45
747.58	283.79
747.98	295.49
748.38	279.11
748.779	318.9
749.179	297.83
749.578	295.49
749.978	323.58
750.377	349.32
750.777	288.47
751.176	279.11
751.575	281.45
751.975	258.04
752.374	258.04
752.773	344.64
753.172	311.88
753.571	279.11
753.97	290.81
754.369	234.64
754.768	283.79
755.166	375.07
755.565	316.56
755.964	316.56
756.362	354.01
756.761	323.58
757.159	349.32
757.558	260.38
757.956	325.92
758.354	325.92
758.753	309.54
759.151	272.09
759.549	344.64
759.947	316.56
760.345	316.56
760.743	316.56
761.141	363.37
761.539	293.15
761.936	293.15
762.334	241.66
762.732	265.07
763.129	354.01
763.527	290.81
763.924	229.96
764.322	293.15
764.719	244
765.117	330.6
765.514	241.66
765.911	337.62
766.308	314.22
766.705	279.11
767.102	337.62
767.499	283.79
767.896	293.15
768.293	295.49
768.69	302.51
769.086	265.07
769.483	351.67
769.88	267.41
770.276	309.54
770.673	300.17
771.069	314.22
771.466	304.85
771.862	272.09
772.258	339.96
772.654	358.69
773.05	328.26
773.447	304.85
773.843	368.05
774.239	253.36
774.634	267.41
775.03	358.69
775.426	295.49
775.822	342.3
776.218	274.43
776.613	328.26
777.009	281.45
777.404	304.85
777.8	304.85
778.195	323.58
778.59	339.96
778.986	288.47
779.381	356.35
779.776	314.22
780.171	300.17
780.566	304.85
780.961	265.07
781.356	386.77
781.751	286.13
782.146	283.79
782.54	295.49
782.935	332.94
783.33	295.49
783.724	314.22
784.119	309.54
784.513	314.22
784.908	342.3
785.302	318.9
785.696	318.9
786.09	283.79
786.485	337.62
786.879	318.9
787.273	405.5
787.667	269.75
788.061	356.35
788.454	255.7
788.848	246.34
789.242	328.26
789.636	265.07
790.029	354.01
790.423	332.94
790.816	361.03
791.21	321.24
791.603	314.22
791.997	321.24
792.39	248.68
792.783	356.35
793.176	332.94
793.569	258.04
793.962	295.49
794.355	318.9
794.748	283.79
795.141	295.49
795.534	304.85
795.927	351.67
796.319	302.51
796.712	258.04
797.105	276.77
797.497	375.07
797.89	258.04
798.282	229.96
798.674	328.26
799.067	309.54
799.459	246.34
799.851	290.81
800.243	361.03
800.635	339.96
801.027	302.51
801.419	356.35
801.811	283.79
802.203	276.77
802.594	318.9
802.986	384.43
803.378	349.32
803.769	239.32
804.161	337.62
804.552	274.43
804.944	283.79
805.335	323.58
805.726	323.58
806.118	251.02
806.509	286.13
806.9	276.77
807.291	332.94
807.682	290.81
808.073	321.24
808.464	323.58
808.855	281.45
809.245	239.32
809.636	316.56
810.027	262.73
810.417	276.77
810.808	311.88
811.198	304.85
811.589	316.56
811.979	321.24
812.369	281.45
812.759	323.58
813.15	295.49
813.54	265.07
813.93	356.35
814.32	302.51
814.71	300.17
815.1	323.58
815.489	332.94
815.879	297.83
816.269	318.9
816.658	330.6
817.048	342.3
817.438	267.41
817.827	255.7
818.216	307.2
818.606	295.49
818.995	342.3
819.384	318.9
819.773	356.35
820.163	363.37
820.552	323.58
820.941	290.81
821.33	316.56
821.718	293.15
822.107	325.92
822.496	253.36
822.885	283.79
823.273	269.75
823.662	346.98
824.05	246.34
824.439	321.24
824.827	262.73
825.216	293.15
825.604	316.56
825.992	318.9
826.38	267.41
826.768	316.56
827.156	267.41
827.544	321.24
827.932	321.24
828.32	244
828.708	260.38
829.096	253.36
829.483	276.77
829.871	295.49
830.259	311.88
830.646	302.51
831.034	311.88
831.421	314.22
831.808	398.48
832.196	314.22
832.583	314.22
832.97	318.9
833.357	201.87
833.744	295.49
834.131	281.45
834.518	267.41
834.905	321.24
835.292	286.13
835.678	290.81
836.065	190.17
836.452	244
836.838	318.9
837.225	244
837.611	335.28
837.998	290.81
838.384	260.38
838.77	269.75
839.157	274.43
839.543	283.79
839.929	293.15
840.315	311.88
840.701	321.24
841.087	370.39
841.473	281.45
841.858	276.77
842.244	304.85
842.63	276.77
843.015	304.85
843.401	405.5
843.787	244
844.172	337.62
844.557	323.58
844.943	262.73
845.328	304.85
845.713	204.21
846.098	302.51
846.483	323.58
846.868	311.88
847.253	258.04
847.638	391.45
848.023	234.64
848.408	384.43
848.793	332.94
849.177	323.58
849.562	283.79
849.947	325.92
850.331	302.51
850.715	248.68
851.1	365.71
851.484	323.58
851.868	274.43
852.253	337.62
852.637	262.73
853.021	265.07
853.405	276.77
853.789	262.73
854.173	307.2
854.557	354.01
854.94	304.85
855.324	346.98
855.708	358.69
856.091	307.2
856.475	279.11
856.858	244
857.242	279.11
857.625	300.17
858.009	241.66
858.392	288.47
858.775	339.96
859.158	283.79
859.541	302.51
859.924	321.24
860.307	236.98
860.69	342.3
861.073	281.45
861.456	332.94
861.838	253.36
862.221	332.94
862.604	281.45
862.986	213.57
863.369	309.54
863.751	311.88
864.133	262.73
864.516	354.01
864.898	246.34
865.28	297.83
865.662	286.13
866.044	302.51
866.426	349.32
866.808	342.3
867.19	307.2
867.572	318.9
867.954	337.62
868.336	295.49
868.717	295.49
869.099	274.43
869.48	260.38
869.862	311.88
870.243	300.17
870.625	290.81
871.006	328.26
871.387	330.6
871.768	244
872.149	335.28
872.53	293.15
872.911	283.79
873.292	361.03
873.673	358.69
874.054	307.2
874.435	342.3
874.815	262.73
875.196	267.41
875.577	281.45
875.957	288.47
876.338	300.17
876.718	307.2
877.098	262.73
877.479	279.11
877.859	288.47
878.239	349.32
878.619	316.56
878.999	330.6
879.379	297.83
879.759	269.75
880.139	342.3
880.519	311.88
880.898	267.41
881.278	288.47
881.658	269.75
882.037	295.49
882.417	375.07
882.796	295.49
883.176	297.83
883.555	269.75
883.934	309.54
884.313	293.15
884.693	290.81
885.072	330.6
885.451	293.15
885.83	330.6
886.209	295.49
886.587	279.11
886.966	332.94
887.345	290.81
887.724	244
888.102	332.94
888.481	358.69
888.859	281.45
889.238	307.2
889.616	232.3
889.994	300.17
890.373	314.22
890.751	321.24
891.129	269.75
891.507	372.73
891.885	339.96
892.263	346.98
892.641	253.36
893.019	274.43
893.396	335.28
893.774	323.58
894.152	241.66
894.529	283.79
894.907	300.17
895.284	293.15
895.662	290.81
896.039	321.24
896.416	295.49
896.794	251.02
897.171	370.39
897.548	307.2
897.925	281.45
898.302	323.58
898.679	400.82
899.056	281.45
899.433	274.43
899.809	288.47
900.186	314.22
900.563	302.51
900.939	311.88
901.316	295.49
901.692	283.79
902.069	272.09
902.445	300.17
902.821	356.35
903.197	300.17
903.574	328.26
903.95	372.73
904.326	232.3
904.702	283.79
905.078	321.24
905.454	311.88
905.829	344.64
906.205	321.24
906.581	276.77
906.956	258.04
907.332	267.41
907.707	396.14
908.083	314.22
908.458	272.09
908.833	351.67
909.209	337.62
909.584	361.03
909.959	286.13
910.334	269.75
910.709	281.45
911.084	316.56
911.459	314.22
911.834	361.03
912.209	339.96
912.583	321.24
912.958	344.64
913.333	309.54
913.707	300.17
914.082	272.09
914.456	286.13
914.83	321.24
915.205	354.01
915.579	302.51
915.953	321.24
916.327	314.22
916.701	253.36
917.075	293.15
917.449	393.8
917.823	234.64
918.197	323.58
918.571	321.24
918.944	337.62
919.318	269.75
919.692	335.28
920.065	309.54
920.438	300.17
920.812	311.88
921.185	279.11
921.558	288.47
921.932	344.64
922.305	368.05
922.678	262.73
923.051	307.2
923.424	302.51
923.797	283.79
924.17	276.77
924.542	251.02
924.915	213.57
925.288	323.58
925.661	328.26
926.033	314.22
926.406	293.15
926.778	297.83
927.15	323.58
927.523	297.83
927.895	328.26
928.267	332.94
928.639	283.79
929.011	300.17
929.383	321.24
929.755	339.96
930.127	300.17
930.499	281.45
930.871	265.07
931.242	304.85
931.614	267.41
931.986	316.56
932.357	382.09
932.729	318.9
933.1	337.62
933.471	295.49
933.843	246.34
934.214	344.64
934.585	302.51
934.956	246.34
935.327	286.13
935.698	281.45
936.069	218.25
936.44	304.85
936.811	281.45
937.182	370.39
937.552	274.43
937.923	332.94
938.293	295.49
938.664	335.28
939.034	267.41
939.405	309.54
939.775	290.81
940.145	281.45
940.516	279.11
940.886	300.17
941.256	293.15
941.626	307.2
941.996	316.56
942.366	321.24
942.735	283.79
943.105	323.58
943.475	307.2
943.845	335.28
944.214	276.77
944.584	342.3
944.953	323.58
945.323	274.43
945.692	311.88
946.061	272.09
946.43	304.85
946.8	318.9
947.169	295.49
947.538	403.16
947.907	302.51
948.276	281.45
948.645	293.15
949.013	276.77
949.382	279.11
949.751	351.67
950.119	246.34
950.488	267.41
950.857	290.81
951.225	269.75
951.593	318.9
951.962	356.35
952.33	295.49
952.698	297.83
953.066	307.2
953.434	368.05
953.802	330.6
954.17	262.73
954.538	339.96
954.906	269.75
955.274	328.26
955.642	290.81
956.009	307.2
956.377	300.17
956.744	279.11
957.112	283.79
957.479	311.88
957.847	311.88
958.214	283.79
958.581	288.47
958.948	375.07
959.315	328.26
959.683	290.81
960.05	295.49
960.416	260.38
960.783	339.96
961.15	321.24
961.517	339.96
961.884	290.81
962.25	311.88
962.617	314.22
962.983	272.09
963.35	304.85
963.716	297.83
964.082	342.3
964.449	370.39
964.815	265.07
965.181	309.54
965.547	307.2
965.913	244
966.279	248.68
966.645	281.45
967.011	307.2
967.377	354.01
967.742	302.51
968.108	300.17
968.474	246.34
968.839	354.01
969.205	283.79
969.57	328.26
969.935	344.64
970.301	239.32
970.666	302.51
971.031	332.94
971.396	265.07
971.761	363.37
972.126	281.45
972.491	304.85
972.856	272.09
973.221	375.07
973.586	297.83
973.95	288.47
974.315	318.9
974.679	302.51
975.044	330.6
975.408	279.11
975.773	222.94
976.137	265.07
976.501	328.26
976.866	290.81
977.23	269.75
977.594	288.47
977.958	276.77
978.322	255.7
978.686	288.47
979.049	307.2
979.413	339.96
979.777	300.17
980.141	328.26
980.504	302.51
980.868	218.25
981.231	342.3
981.595	335.28
981.958	330.6
982.321	276.77
982.684	272.09
983.048	290.81
983.411	330.6
983.774	300.17
984.137	304.85
984.5	321.24
984.862	321.24
985.225	281.45
985.588	302.51
985.951	290.81
986.313	309.54
986.676	370.39
987.038	325.92
987.401	342.3
987.763	349.32
988.125	311.88
988.488	248.68
988.85	325.92
989.212	206.55
989.574	300.17
989.936	295.49
990.298	295.49
990.66	321.24
991.022	344.64
991.383	293.15
991.745	323.58
992.107	300.17
992.468	239.32
992.83	297.83
993.191	365.71
993.553	323.58
993.914	354.01
994.275	314.22
994.637	302.51
994.998	358.69
995.359	318.9
995.72	321.24
996.081	328.26
996.442	286.13
996.803	300.17
997.163	279.11
997.524	300.17
997.885	335.28
998.245	290.81
998.606	307.2
998.966	307.2
999.327	265.07
999.687	302.51
1000.047	302.51
1000.408	283.79
1000.768	269.75
1001.128	286.13
1001.488	267.41
1001.848	267.41
1002.208	328.26
1002.568	255.7
1002.927	309.54
1003.287	244
1003.647	286.13
1004.007	316.56
1004.366	318.9
1004.726	297.83
1005.085	302.51
1005.444	337.62
1005.804	274.43
1006.163	339.96
1006.522	339.96
1006.881	239.32
1007.24	344.64
1007.599	300.17
1007.958	253.36
1008.317	361.03
1008.676	337.62
1009.035	265.07
1009.393	293.15
1009.752	354.01
1010.111	253.36
1010.469	396.14
1010.828	206.55
1011.186	370.39
1011.544	302.51
1011.903	293.15
1012.261	314.22
1012.619	307.2
1012.977	318.9
1013.335	304.85
1013.693	262.73
1014.051	276.77
1014.409	269.75
1014.767	302.51
1015.124	328.26
1015.482	335.28
1015.84	318.9
1016.197	307.2
1016.555	267.41
1016.912	288.47
1017.269	349.32
1017.627	283.79
1017.984	279.11
1018.341	304.85
1018.698	274.43
1019.055	309.54
1019.412	267.41
1019.769	288.47
1020.126	220.6
1020.483	262.73
1020.84	260.38
1021.196	295.49
1021.553	302.51
1021.909	384.43
1022.266	335.28
1022.622	279.11
1022.979	328.26
1023.335	323.58
1023.691	335.28
1024.047	311.88
1024.404	269.75
1024.76	339.96
1025.116	318.9
1025.472	311.88
1025.827	332.94
1026.183	302.51
1026.539	304.85
1026.895	293.15
1027.25	304.85
1027.606	253.36
1027.961	272.09
1028.317	290.81
1028.672	267.41
1029.028	342.3
1029.383	335.28
1029.738	330.6
1030.093	307.2
1030.448	253.36
1030.803	295.49
1031.158	241.66
1031.513	342.3
1031.868	325.92
1032.223	325.92
1032.577	318.9
1032.932	251.02
1033.287	337.62
1033.641	358.69
1033.996	307.2
1034.35	321.24
1034.704	321.24
1035.059	321.24
1035.413	309.54
1035.767	309.54
1036.121	309.54
