Data from Al_FLMS009871__1216__16-42-07-379.txt Node

Date: Fri Mar 08 16:42:07 CST 2024
User: pe5414po
Spectrometer: FLMS00987
Trigger mode: 0
Integration Time (sec): 1.000000E-1
Scans to average: 1
Electric dark correction enabled: true
Nonlinearity correction enabled: false
Boxcar width: 0
XAxis mode: Wavelengths
Number of Pixels in Spectrum: 2048
>>>>>Begin Spectral Data<<<<<
188.938	-8.05
189.409	-8.05
189.879	-8.05
190.349	-57.2
190.819	-52.52
191.29	-169.54
191.76	-94.65
192.23	-101.67
192.7	-50.18
193.17	-52.52
193.64	-73.58
194.109	-50.18
194.579	13.02
195.049	-36.13
195.519	36.42
195.988	3.66
196.458	29.4
196.927	87.92
197.397	120.68
197.866	151.11
198.336	186.22
198.805	200.26
199.274	167.49
199.744	160.47
200.213	130.05
200.682	211.96
201.151	247.07
201.62	226.01
202.089	218.99
202.558	244.73
203.027	235.37
203.495	270.48
203.964	275.16
204.433	293.88
204.902	218.99
205.37	312.61
205.839	319.63
206.307	321.97
206.776	331.33
207.244	298.56
207.712	251.75
208.181	321.97
208.649	261.12
209.117	261.12
209.585	343.03
210.053	371.12
210.521	326.65
210.989	272.82
211.457	263.46
211.925	314.95
212.393	296.22
212.861	291.54
213.328	303.25
213.796	326.65
214.264	244.73
214.731	291.54
215.199	336.01
215.666	275.16
216.133	188.56
216.601	321.97
217.068	293.88
217.535	296.22
218.003	298.56
218.47	284.52
218.937	237.71
219.404	218.99
219.871	286.86
220.338	300.91
220.805	284.52
221.271	364.1
221.738	345.38
222.205	272.82
222.671	298.56
223.138	237.71
223.605	314.95
224.071	300.91
224.538	228.35
225.004	291.54
225.47	265.8
225.937	272.82
226.403	284.52
226.869	298.56
227.335	293.88
227.801	233.03
228.267	317.29
228.733	321.97
229.199	277.5
229.665	270.48
230.131	324.31
230.597	235.37
231.062	293.88
231.528	254.09
231.994	268.14
232.459	319.63
232.925	256.43
233.39	270.48
233.856	233.03
234.321	277.5
234.786	312.61
235.252	270.48
235.717	282.18
236.182	310.27
236.647	310.27
237.112	298.56
237.577	338.35
238.042	270.48
238.507	321.97
238.972	284.52
239.436	235.37
239.901	303.25
240.366	268.14
240.83	289.2
241.295	279.84
241.76	354.74
242.224	307.93
242.688	300.91
243.153	282.18
243.617	282.18
244.081	314.95
244.545	305.59
245.01	336.01
245.474	284.52
245.938	307.93
246.402	254.09
246.866	268.14
247.33	286.86
247.793	312.61
248.257	314.95
248.721	307.93
249.185	254.09
249.648	286.86
250.112	284.52
250.575	268.14
251.039	314.95
251.502	336.01
251.965	338.35
252.429	340.69
252.892	314.95
253.355	333.67
253.818	314.95
254.281	242.39
254.744	261.12
255.207	286.86
255.67	258.78
256.133	300.91
256.596	286.86
257.059	286.86
257.522	338.35
257.984	300.91
258.447	331.33
258.909	319.63
259.372	347.72
259.834	350.06
260.297	298.56
260.759	382.82
261.221	275.16
261.684	336.01
262.146	307.93
262.608	277.5
263.07	272.82
263.532	298.56
263.994	324.31
264.456	310.27
264.918	254.09
265.38	256.43
265.842	291.54
266.303	296.22
266.765	331.33
267.227	340.69
267.688	396.87
268.15	298.56
268.611	324.31
269.072	265.8
269.534	312.61
269.995	275.16
270.456	343.03
270.918	324.31
271.379	284.52
271.84	293.88
272.301	256.43
272.762	333.67
273.223	333.67
273.684	350.06
274.144	293.88
274.605	237.71
275.066	286.86
275.527	305.59
275.987	312.61
276.448	251.75
276.908	312.61
277.369	291.54
277.829	268.14
278.289	307.93
278.75	296.22
279.21	321.97
279.67	279.84
280.13	333.67
280.59	286.86
281.05	333.67
281.51	265.8
281.97	324.31
282.43	324.31
282.89	258.78
283.35	277.5
283.809	284.52
284.269	324.31
284.729	296.22
285.188	249.41
285.648	314.95
286.107	303.25
286.567	319.63
287.026	371.12
287.485	338.35
287.944	319.63
288.404	270.48
288.863	345.38
289.322	361.76
289.781	396.87
290.24	340.69
290.699	352.4
291.158	328.99
291.616	305.59
292.075	312.61
292.534	293.88
292.992	361.76
293.451	284.52
293.91	324.31
294.368	378.14
294.827	284.52
295.285	389.85
295.743	284.52
296.202	314.95
296.66	307.93
297.118	350.06
297.576	338.35
298.034	265.8
298.492	310.27
298.95	314.95
299.408	382.82
299.866	298.56
300.324	345.38
300.781	331.33
301.239	263.46
301.697	268.14
302.154	324.31
302.612	291.54
303.069	331.33
303.527	368.78
303.984	277.5
304.441	296.22
304.899	312.61
305.356	331.33
305.813	350.06
306.27	305.59
306.727	282.18
307.184	284.52
307.641	233.03
308.098	373.46
308.555	282.18
309.012	261.12
309.468	326.65
309.925	258.78
310.382	291.54
310.838	307.93
311.295	324.31
311.751	328.99
312.208	352.4
312.664	303.25
313.12	305.59
313.577	314.95
314.033	336.01
314.489	352.4
314.945	378.14
315.401	380.48
315.857	333.67
316.313	361.76
316.769	347.72
317.225	378.14
317.681	366.44
318.136	333.67
318.592	300.91
319.048	340.69
319.503	265.8
319.959	326.65
320.414	352.4
320.869	406.23
321.325	312.61
321.78	321.97
322.235	338.35
322.691	380.48
323.146	336.01
323.601	293.88
324.056	345.38
324.511	331.33
324.966	258.78
325.421	310.27
325.875	293.88
326.33	389.85
326.785	289.2
327.24	333.67
327.694	307.93
328.149	326.65
328.603	310.27
329.058	366.44
329.512	343.03
329.966	305.59
330.421	305.59
330.875	350.06
331.329	326.65
331.783	324.31
332.237	357.08
332.691	343.03
333.145	307.93
333.599	357.08
334.053	357.08
334.507	289.2
334.96	314.95
335.414	277.5
335.868	340.69
336.321	368.78
336.775	286.86
337.228	314.95
337.682	328.99
338.135	368.78
338.588	307.93
339.042	314.95
339.495	403.89
339.948	354.74
340.401	373.46
340.854	324.31
341.307	319.63
341.76	359.42
342.213	366.44
342.666	300.91
343.119	310.27
343.571	312.61
344.024	298.56
344.477	350.06
344.929	270.48
345.382	317.29
345.834	326.65
346.287	324.31
346.739	340.69
347.191	361.76
347.644	347.72
348.096	333.67
348.548	338.35
349	279.84
349.452	347.72
349.904	340.69
350.356	291.54
350.808	317.29
351.26	333.67
351.711	307.93
352.163	336.01
352.615	312.61
353.066	310.27
353.518	310.27
353.969	399.21
354.421	282.18
354.872	373.46
355.324	321.97
355.775	354.74
356.226	385.16
356.677	307.93
357.128	347.72
357.579	307.93
358.03	314.95
358.481	354.74
358.932	305.59
359.383	336.01
359.834	366.44
360.285	314.95
360.735	333.67
361.186	277.5
361.637	314.95
362.087	340.69
362.538	324.31
362.988	296.22
363.438	324.31
363.889	258.78
364.339	340.69
364.789	361.76
365.239	324.31
365.689	314.95
366.139	399.21
366.589	307.93
367.039	352.4
367.489	380.48
367.939	319.63
368.389	314.95
368.839	282.18
369.288	366.44
369.738	286.86
370.187	321.97
370.637	347.72
371.086	364.1
371.536	331.33
371.985	389.85
372.434	256.43
372.884	321.97
373.333	296.22
373.782	321.97
374.231	296.22
374.68	350.06
375.129	303.25
375.578	399.21
376.027	312.61
376.475	347.72
376.924	406.23
377.373	350.06
377.822	333.67
378.27	350.06
378.719	326.65
379.167	368.78
379.616	321.97
380.064	375.8
380.512	340.69
380.961	347.72
381.409	378.14
381.857	364.1
382.305	326.65
382.753	303.25
383.201	350.06
383.649	331.33
384.097	352.4
384.545	324.31
384.992	350.06
385.44	312.61
385.888	303.25
386.335	263.46
386.783	333.67
387.231	368.78
387.678	326.65
388.125	359.42
388.573	326.65
389.02	258.78
389.467	284.52
389.914	268.14
390.362	303.25
390.809	300.91
391.256	300.91
391.703	326.65
392.15	352.4
392.596	303.25
393.043	382.82
393.49	410.91
393.937	361.76
394.383	296.22
394.83	350.06
395.276	277.5
395.723	343.03
396.169	319.63
396.616	371.12
397.062	303.25
397.508	352.4
397.954	296.22
398.401	392.19
398.847	310.27
399.293	293.88
399.739	347.72
400.185	380.48
400.631	319.63
401.076	326.65
401.522	345.38
401.968	307.93
402.414	338.35
402.859	284.52
403.305	272.82
403.75	343.03
404.196	403.89
404.641	279.84
405.086	340.69
405.532	359.42
405.977	328.99
406.422	368.78
406.867	343.03
407.312	279.84
407.757	321.97
408.202	270.48
408.647	307.93
409.092	380.48
409.537	314.95
409.982	279.84
410.426	291.54
410.871	314.95
411.316	319.63
411.76	314.95
412.205	343.03
412.649	410.91
413.093	324.31
413.538	354.74
413.982	310.27
414.426	305.59
414.87	333.67
415.314	338.35
415.758	343.03
416.202	256.43
416.646	361.76
417.09	352.4
417.534	284.52
417.978	319.63
418.421	340.69
418.865	361.76
419.309	319.63
419.752	406.23
420.196	326.65
420.639	340.69
421.083	343.03
421.526	326.65
421.969	359.42
422.412	286.86
422.856	275.16
423.299	357.08
423.742	371.12
424.185	303.25
424.628	282.18
425.071	321.97
425.513	368.78
425.956	352.4
426.399	345.38
426.842	378.14
427.284	340.69
427.727	392.19
428.169	324.31
428.612	333.67
429.054	303.25
429.497	321.97
429.939	338.35
430.381	394.53
430.823	343.03
431.265	340.69
431.707	331.33
432.149	284.52
432.591	364.1
433.033	254.09
433.475	284.52
433.917	331.33
434.359	368.78
434.8	305.59
435.242	359.42
435.684	410.91
436.125	382.82
436.567	340.69
437.008	324.31
437.449	293.88
437.891	343.03
438.332	324.31
438.773	317.29
439.214	333.67
439.656	298.56
440.097	310.27
440.538	380.48
440.978	347.72
441.419	282.18
441.86	343.03
442.301	401.55
442.742	338.35
443.182	312.61
443.623	373.46
444.063	319.63
444.504	296.22
444.944	359.42
445.385	392.19
445.825	319.63
446.265	359.42
446.706	282.18
447.146	298.56
447.586	333.67
448.026	340.69
448.466	317.29
448.906	331.33
449.346	328.99
449.786	343.03
450.225	312.61
450.665	268.14
451.105	434.32
451.544	368.78
451.984	333.67
452.424	303.25
452.863	305.59
453.302	396.87
453.742	368.78
454.181	333.67
454.62	392.19
455.059	314.95
455.499	364.1
455.938	350.06
456.377	314.95
456.816	324.31
457.254	352.4
457.693	300.91
458.132	331.33
458.571	324.31
459.01	375.8
459.448	394.53
459.887	303.25
460.325	401.55
460.764	352.4
461.202	312.61
461.641	378.14
462.079	350.06
462.517	352.4
462.955	286.86
463.393	303.25
463.832	303.25
464.27	326.65
464.708	333.67
465.145	263.46
465.583	242.39
466.021	321.97
466.459	338.35
466.897	361.76
467.334	298.56
467.772	361.76
468.209	293.88
468.647	340.69
469.084	413.25
469.522	314.95
469.959	324.31
470.396	364.1
470.833	340.69
471.271	420.27
471.708	333.67
472.145	296.22
472.582	343.03
473.019	284.52
473.456	380.48
473.892	385.16
474.329	371.12
474.766	300.91
475.202	321.97
475.639	361.76
476.076	378.14
476.512	319.63
476.949	336.01
477.385	354.74
477.821	333.67
478.258	326.65
478.694	336.01
479.13	352.4
479.566	361.76
480.002	361.76
480.438	324.31
480.874	291.54
481.31	347.72
481.746	361.76
482.181	319.63
482.617	296.22
483.053	396.87
483.488	354.74
483.924	333.67
484.36	354.74
484.795	347.72
485.23	368.78
485.666	338.35
486.101	357.08
486.536	347.72
486.971	261.12
487.407	279.84
487.842	340.69
488.277	350.06
488.712	350.06
489.146	375.8
489.581	375.8
490.016	368.78
490.451	336.01
490.885	364.1
491.32	387.5
491.755	312.61
492.189	345.38
492.624	286.86
493.058	361.76
493.492	321.97
493.927	410.91
494.361	408.57
494.795	352.4
495.229	361.76
495.663	331.33
496.097	357.08
496.531	352.4
496.965	258.78
497.399	347.72
497.833	298.56
498.266	251.75
498.7	310.27
499.134	375.8
499.567	350.06
500.001	324.31
500.434	305.59
500.868	434.32
501.301	317.29
501.734	293.88
502.168	371.12
502.601	371.12
503.034	326.65
503.467	310.27
503.9	359.42
504.333	268.14
504.766	263.46
505.199	361.76
505.632	354.74
506.064	312.61
506.497	286.86
506.93	340.69
507.362	338.35
507.795	319.63
508.227	350.06
508.66	371.12
509.092	317.29
509.524	336.01
509.956	289.2
510.389	387.5
510.821	282.18
511.253	314.95
511.685	389.85
512.117	357.08
512.549	364.1
512.981	307.93
513.412	324.31
513.844	347.72
514.276	350.06
514.707	286.86
515.139	347.72
515.571	272.82
516.002	331.33
516.433	336.01
516.865	338.35
517.296	373.46
517.727	284.52
518.159	420.27
518.59	343.03
519.021	298.56
519.452	357.08
519.883	298.56
520.314	333.67
520.744	272.82
521.175	380.48
521.606	303.25
522.037	282.18
522.467	338.35
522.898	326.65
523.328	417.93
523.759	382.82
524.189	331.33
524.62	312.61
525.05	347.72
525.48	314.95
525.91	324.31
526.341	350.06
526.771	382.82
527.201	317.29
527.631	352.4
528.061	338.35
528.49	326.65
528.92	249.41
529.35	310.27
529.78	347.72
530.209	321.97
530.639	338.35
531.068	371.12
531.498	350.06
531.927	364.1
532.357	317.29
532.786	279.84
533.215	333.67
533.644	345.38
534.074	361.76
534.503	324.31
534.932	361.76
535.361	324.31
535.79	366.44
536.218	328.99
536.647	319.63
537.076	361.76
537.505	305.59
537.933	331.33
538.362	321.97
538.79	359.42
539.219	361.76
539.647	296.22
540.076	340.69
540.504	289.2
540.932	331.33
541.36	324.31
541.788	385.16
542.217	364.1
542.645	310.27
543.073	331.33
543.5	357.08
543.928	284.52
544.356	328.99
544.784	321.97
545.211	364.1
545.639	345.38
546.067	326.65
546.494	307.93
546.922	270.48
547.349	347.72
547.776	314.95
548.204	352.4
548.631	277.5
549.058	286.86
549.485	350.06
549.912	338.35
550.339	296.22
550.766	361.76
551.193	352.4
551.62	326.65
552.047	298.56
552.474	366.44
552.9	314.95
553.327	338.35
553.754	291.54
554.18	319.63
554.607	373.46
555.033	305.59
555.459	307.93
555.886	321.97
556.312	340.69
556.738	352.4
557.164	328.99
557.59	291.54
558.016	336.01
558.442	312.61
558.868	324.31
559.294	364.1
559.72	424.95
560.145	361.76
560.571	364.1
560.997	347.72
561.422	385.16
561.848	354.74
562.273	357.08
562.699	399.21
563.124	331.33
563.549	298.56
563.974	380.48
564.4	373.46
564.825	314.95
565.25	345.38
565.675	408.57
566.1	357.08
566.525	338.35
566.95	319.63
567.374	347.72
567.799	366.44
568.224	345.38
568.648	321.97
569.073	350.06
569.497	331.33
569.922	303.25
570.346	310.27
570.771	382.82
571.195	350.06
571.619	331.33
572.043	298.56
572.467	382.82
572.891	389.85
573.315	331.33
573.739	298.56
574.163	310.27
574.587	328.99
575.011	357.08
575.435	336.01
575.858	361.76
576.282	336.01
576.705	293.88
577.129	321.97
577.552	314.95
577.976	300.91
578.399	347.72
578.822	392.19
579.245	368.78
579.669	347.72
580.092	279.84
580.515	359.42
580.938	319.63
581.361	312.61
581.784	364.1
582.206	389.85
582.629	279.84
583.052	340.69
583.474	345.38
583.897	385.16
584.32	361.76
584.742	314.95
585.165	307.93
585.587	343.03
586.009	326.65
586.431	314.95
586.854	310.27
587.276	300.91
587.698	413.25
588.12	385.16
588.542	403.89
588.964	312.61
589.386	265.8
589.807	331.33
590.229	368.78
590.651	326.65
591.073	345.38
591.494	336.01
591.916	317.29
592.337	307.93
592.759	375.8
593.18	389.85
593.601	305.59
594.022	319.63
594.444	371.12
594.865	293.88
595.286	272.82
595.707	338.35
596.128	354.74
596.549	314.95
596.97	364.1
597.39	350.06
597.811	312.61
598.232	300.91
598.652	366.44
599.073	422.61
599.494	340.69
599.914	317.29
600.334	373.46
600.755	289.2
601.175	368.78
601.595	321.97
602.015	343.03
602.436	310.27
602.856	394.53
603.276	350.06
603.696	350.06
604.115	240.05
604.535	312.61
604.955	279.84
605.375	345.38
605.794	317.29
606.214	305.59
606.634	364.1
607.053	343.03
607.473	389.85
607.892	328.99
608.311	366.44
608.731	338.35
609.15	296.22
609.569	361.76
609.988	289.2
610.407	354.74
610.826	392.19
611.245	328.99
611.664	338.35
612.083	319.63
612.501	380.48
612.92	385.16
613.339	289.2
613.757	340.69
614.176	307.93
614.594	328.99
615.013	317.29
615.431	375.8
615.85	340.69
616.268	357.08
616.686	312.61
617.104	286.86
617.522	298.56
617.94	382.82
618.358	307.93
618.776	373.46
619.194	352.4
619.612	282.18
620.03	291.54
620.447	361.76
620.865	333.67
621.282	286.86
621.7	364.1
622.117	321.97
622.535	314.95
622.952	371.12
623.369	305.59
623.787	324.31
624.204	336.01
624.621	333.67
625.038	357.08
625.455	371.12
625.872	375.8
626.289	314.95
626.706	305.59
627.123	289.2
627.539	375.8
627.956	340.69
628.373	357.08
628.789	343.03
629.206	324.31
629.622	396.87
630.038	326.65
630.455	307.93
630.871	328.99
631.287	361.76
631.703	275.16
632.12	347.72
632.536	361.76
632.952	368.78
633.368	366.44
633.783	368.78
634.199	354.74
634.615	291.54
635.031	307.93
635.446	317.29
635.862	378.14
636.277	389.85
636.693	307.93
637.108	314.95
637.524	371.12
637.939	336.01
638.354	361.76
638.77	357.08
639.185	338.35
639.6	394.53
640.015	366.44
640.43	310.27
640.845	289.2
641.259	340.69
641.674	387.5
642.089	359.42
642.504	284.52
642.918	286.86
643.333	307.93
643.747	331.33
644.162	364.1
644.576	275.16
644.991	300.91
645.405	300.91
645.819	378.14
646.233	389.85
646.647	350.06
647.061	387.5
647.475	350.06
647.889	326.65
648.303	352.4
648.717	307.93
649.131	284.52
649.545	331.33
649.958	352.4
650.372	366.44
650.785	319.63
651.199	307.93
651.612	293.88
652.026	343.03
652.439	307.93
652.852	331.33
653.266	347.72
653.679	336.01
654.092	338.35
654.505	343.03
654.918	387.5
655.331	354.74
655.744	291.54
656.156	387.5
656.569	333.67
656.982	326.65
657.394	333.67
657.807	289.2
658.22	317.29
658.632	305.59
659.044	310.27
659.457	338.35
659.869	357.08
660.281	300.91
660.693	347.72
661.106	261.12
661.518	359.42
661.93	359.42
662.342	279.84
662.754	396.87
663.165	347.72
663.577	401.55
663.989	279.84
664.401	361.76
664.812	317.29
665.224	275.16
665.635	328.99
666.047	286.86
666.458	361.76
666.869	347.72
667.281	312.61
667.692	284.52
668.103	277.5
668.514	380.48
668.925	373.46
669.336	312.61
669.747	275.16
670.158	249.41
670.569	366.44
670.979	366.44
671.39	378.14
671.801	275.16
672.211	366.44
672.622	284.52
673.032	336.01
673.443	289.2
673.853	293.88
674.263	307.93
674.674	307.93
675.084	263.46
675.494	277.5
675.904	312.61
676.314	286.86
676.724	361.76
677.134	326.65
677.544	361.76
677.953	317.29
678.363	305.59
678.773	361.76
679.182	347.72
679.592	357.08
680.001	366.44
680.411	333.67
680.82	291.54
681.23	368.78
681.639	331.33
682.048	354.74
682.457	296.22
682.866	350.06
683.275	331.33
683.684	331.33
684.093	347.72
684.502	347.72
684.911	345.38
685.32	354.74
685.728	284.52
686.137	326.65
686.546	293.88
686.954	319.63
687.363	347.72
687.771	331.33
688.179	333.67
688.588	354.74
688.996	326.65
689.404	317.29
689.812	265.8
690.22	310.27
690.628	324.31
691.036	361.76
691.444	352.4
691.852	378.14
692.26	345.38
692.667	389.85
693.075	338.35
693.483	319.63
693.89	307.93
694.298	352.4
694.705	272.82
695.112	359.42
695.52	354.74
695.927	347.72
696.334	333.67
696.741	256.43
697.148	364.1
697.555	380.48
697.962	336.01
698.369	291.54
698.776	317.29
699.183	305.59
699.59	357.08
699.996	343.03
700.403	364.1
700.81	333.67
701.216	319.63
701.623	406.23
702.029	235.37
702.435	305.59
702.842	357.08
703.248	326.65
703.654	265.8
704.06	373.46
704.466	357.08
704.872	284.52
705.278	296.22
705.684	317.29
706.09	324.31
706.496	368.78
706.901	298.56
707.307	352.4
707.712	282.18
708.118	291.54
708.523	312.61
708.929	328.99
709.334	394.53
709.74	364.1
710.145	326.65
710.55	307.93
710.955	364.1
711.36	345.38
711.765	375.8
712.17	314.95
712.575	249.41
712.98	923.49
713.385	305.59
713.789	293.88
714.194	328.99
714.599	324.31
715.003	361.76
715.408	352.4
715.812	312.61
716.217	387.5
716.621	357.08
717.025	324.31
717.429	314.95
717.833	331.33
718.238	378.14
718.642	298.56
719.046	277.5
719.449	333.67
719.853	312.61
720.257	359.42
720.661	296.22
721.065	328.99
721.468	272.82
721.872	373.46
722.275	350.06
722.679	324.31
723.082	307.93
723.485	350.06
723.889	314.95
724.292	270.48
724.695	324.31
725.098	361.76
725.501	345.38
725.904	296.22
726.307	305.59
726.71	319.63
727.113	324.31
727.516	319.63
727.918	352.4
728.321	371.12
728.724	401.55
729.126	333.67
729.529	350.06
729.931	319.63
730.333	347.72
730.736	310.27
731.138	328.99
731.54	307.93
731.942	415.59
732.344	350.06
732.746	312.61
733.148	312.61
733.55	352.4
733.952	293.88
734.354	350.06
734.756	331.33
735.157	331.33
735.559	305.59
735.96	303.25
736.362	429.63
736.763	279.84
737.165	340.69
737.566	324.31
737.967	247.07
738.368	305.59
738.77	305.59
739.171	354.74
739.572	357.08
739.973	378.14
740.374	314.95
740.774	357.08
741.175	310.27
741.576	336.01
741.977	321.97
742.377	333.67
742.778	321.97
743.178	293.88
743.579	296.22
743.979	303.25
744.379	408.57
744.78	350.06
745.18	307.93
745.58	310.27
745.98	247.07
746.38	328.99
746.78	298.56
747.18	305.59
747.58	340.69
747.98	382.82
748.38	429.63
748.779	324.31
749.179	338.35
749.578	406.23
749.978	403.89
750.377	272.82
750.777	357.08
751.176	307.93
751.575	326.65
751.975	293.88
752.374	284.52
752.773	340.69
753.172	389.85
753.571	333.67
753.97	317.29
754.369	382.82
754.768	321.97
755.166	324.31
755.565	277.5
755.964	380.48
756.362	310.27
756.761	331.33
757.159	328.99
757.558	380.48
757.956	296.22
758.354	336.01
758.753	364.1
759.151	331.33
759.549	319.63
759.947	296.22
760.345	277.5
760.743	328.99
761.141	307.93
761.539	270.48
761.936	277.5
762.334	333.67
762.732	298.56
763.129	319.63
763.527	230.69
763.924	366.44
764.322	319.63
764.719	371.12
765.117	307.93
765.514	314.95
765.911	336.01
766.308	298.56
766.705	352.4
767.102	286.86
767.499	338.35
767.896	314.95
768.293	361.76
768.69	319.63
769.086	305.59
769.483	293.88
769.88	291.54
770.276	366.44
770.673	326.65
771.069	319.63
771.466	378.14
771.862	326.65
772.258	340.69
772.654	333.67
773.05	359.42
773.447	350.06
773.843	296.22
774.239	345.38
774.634	338.35
775.03	331.33
775.426	284.52
775.822	300.91
776.218	352.4
776.613	378.14
777.009	359.42
777.404	340.69
777.8	331.33
778.195	361.76
778.59	303.25
778.986	279.84
779.381	336.01
779.776	321.97
780.171	338.35
780.566	378.14
780.961	310.27
781.356	343.03
781.751	420.27
782.146	378.14
782.54	368.78
782.935	382.82
783.33	338.35
783.724	343.03
784.119	289.2
784.513	340.69
784.908	296.22
785.302	293.88
785.696	319.63
786.09	389.85
786.485	359.42
786.879	380.48
787.273	331.33
787.667	326.65
788.061	263.46
788.454	331.33
788.848	296.22
789.242	289.2
789.636	319.63
790.029	289.2
790.423	345.38
790.816	366.44
791.21	371.12
791.603	350.06
791.997	300.91
792.39	286.86
792.783	321.97
793.176	375.8
793.569	340.69
793.962	336.01
794.355	328.99
794.748	387.5
795.141	340.69
795.534	345.38
795.927	343.03
796.319	317.29
796.712	382.82
797.105	359.42
797.497	310.27
797.89	333.67
798.282	403.89
798.674	394.53
799.067	312.61
799.459	331.33
799.851	300.91
800.243	336.01
800.635	247.07
801.027	303.25
801.419	359.42
801.811	284.52
802.203	352.4
802.594	354.74
802.986	340.69
803.378	387.5
803.769	364.1
804.161	352.4
804.552	343.03
804.944	289.2
805.335	331.33
805.726	343.03
806.118	277.5
806.509	282.18
806.9	319.63
807.291	359.42
807.682	324.31
808.073	310.27
808.464	284.52
808.855	261.12
809.245	303.25
809.636	357.08
810.027	251.75
810.417	303.25
810.808	399.21
811.198	326.65
811.589	312.61
811.979	333.67
812.369	303.25
812.759	343.03
813.15	324.31
813.54	303.25
813.93	296.22
814.32	293.88
814.71	338.35
815.1	375.8
815.489	317.29
815.879	333.67
816.269	336.01
816.658	312.61
817.048	321.97
817.438	319.63
817.827	375.8
818.216	385.16
818.606	303.25
818.995	350.06
819.384	279.84
819.773	359.42
820.163	331.33
820.552	321.97
820.941	298.56
821.33	361.76
821.718	368.78
822.107	359.42
822.496	331.33
822.885	371.12
823.273	328.99
823.662	307.93
824.05	307.93
824.439	354.74
824.827	314.95
825.216	345.38
825.604	343.03
825.992	380.48
826.38	357.08
826.768	328.99
827.156	347.72
827.544	366.44
827.932	361.76
828.32	265.8
828.708	321.97
829.096	242.39
829.483	289.2
829.871	324.31
830.259	331.33
830.646	354.74
831.034	389.85
831.421	305.59
831.808	319.63
832.196	336.01
832.583	357.08
832.97	371.12
833.357	291.54
833.744	331.33
834.131	347.72
834.518	350.06
834.905	324.31
835.292	317.29
835.678	289.2
836.065	256.43
836.452	307.93
836.838	328.99
837.225	366.44
837.611	272.82
837.998	307.93
838.384	277.5
838.77	336.01
839.157	340.69
839.543	303.25
839.929	333.67
840.315	286.86
840.701	244.73
841.087	289.2
841.473	373.46
841.858	305.59
842.244	300.91
842.63	289.2
843.015	328.99
843.401	417.93
843.787	343.03
844.172	326.65
844.557	305.59
844.943	284.52
845.328	361.76
845.713	310.27
846.098	343.03
846.483	333.67
846.868	382.82
847.253	268.14
847.638	270.48
848.023	296.22
848.408	319.63
848.793	361.76
849.177	357.08
849.562	310.27
849.947	347.72
850.331	354.74
850.715	343.03
851.1	303.25
851.484	345.38
851.868	382.82
852.253	319.63
852.637	333.67
853.021	321.97
853.405	314.95
853.789	272.82
854.173	336.01
854.557	371.12
854.94	387.5
855.324	314.95
855.708	340.69
856.091	347.72
856.475	319.63
856.858	317.29
857.242	385.16
857.625	364.1
858.009	303.25
858.392	307.93
858.775	314.95
859.158	382.82
859.541	357.08
859.924	321.97
860.307	291.54
860.69	328.99
861.073	338.35
861.456	307.93
861.838	317.29
862.221	298.56
862.604	289.2
862.986	331.33
863.369	385.16
863.751	338.35
864.133	361.76
864.516	366.44
864.898	326.65
865.28	307.93
865.662	321.97
866.044	324.31
866.426	261.12
866.808	380.48
867.19	319.63
867.572	317.29
867.954	343.03
868.336	399.21
868.717	305.59
869.099	256.43
869.48	272.82
869.862	371.12
870.243	352.4
870.625	333.67
871.006	350.06
871.387	336.01
871.768	324.31
872.149	352.4
872.53	314.95
872.911	350.06
873.292	305.59
873.673	338.35
874.054	338.35
874.435	328.99
874.815	247.07
875.196	371.12
875.577	336.01
875.957	340.69
876.338	312.61
876.718	251.75
877.098	244.73
877.479	296.22
877.859	373.46
878.239	387.5
878.619	296.22
878.999	364.1
879.379	343.03
879.759	300.91
880.139	340.69
880.519	380.48
880.898	291.54
881.278	277.5
881.658	303.25
882.037	298.56
882.417	328.99
882.796	298.56
883.176	291.54
883.555	336.01
883.934	352.4
884.313	321.97
884.693	352.4
885.072	321.97
885.451	347.72
885.83	399.21
886.209	368.78
886.587	319.63
886.966	331.33
887.345	293.88
887.724	371.12
888.102	307.93
888.481	307.93
888.859	368.78
889.238	378.14
889.616	305.59
889.994	277.5
890.373	314.95
890.751	326.65
891.129	326.65
891.507	324.31
891.885	333.67
892.263	319.63
892.641	272.82
893.019	338.35
893.396	389.85
893.774	357.08
894.152	284.52
894.529	387.5
894.907	321.97
895.284	296.22
895.662	303.25
896.039	317.29
896.416	298.56
896.794	364.1
897.171	324.31
897.548	326.65
897.925	357.08
898.302	324.31
898.679	314.95
899.056	366.44
899.433	319.63
899.809	387.5
900.186	375.8
900.563	314.95
900.939	336.01
901.316	326.65
901.692	298.56
902.069	331.33
902.445	282.18
902.821	361.76
903.197	357.08
903.574	324.31
903.95	350.06
904.326	326.65
904.702	272.82
905.078	289.2
905.454	347.72
905.829	247.07
906.205	333.67
906.581	340.69
906.956	357.08
907.332	321.97
907.707	326.65
908.083	286.86
908.458	284.52
908.833	298.56
909.209	336.01
909.584	343.03
909.959	366.44
910.334	317.29
910.709	343.03
911.084	413.25
911.459	319.63
911.834	382.82
912.209	408.57
912.583	296.22
912.958	364.1
913.333	326.65
913.707	314.95
914.082	338.35
914.456	319.63
914.83	375.8
915.205	300.91
915.579	277.5
915.953	354.74
916.327	298.56
916.701	312.61
917.075	293.88
917.449	357.08
917.823	314.95
918.197	324.31
918.571	359.42
918.944	350.06
919.318	284.52
919.692	286.86
920.065	282.18
920.438	336.01
920.812	354.74
921.185	331.33
921.558	347.72
921.932	331.33
922.305	361.76
922.678	249.41
923.051	410.91
923.424	303.25
923.797	364.1
924.17	361.76
924.542	324.31
924.915	324.31
925.288	336.01
925.661	277.5
926.033	343.03
926.406	333.67
926.778	319.63
927.15	389.85
927.523	333.67
927.895	324.31
928.267	347.72
928.639	326.65
929.011	338.35
929.383	375.8
929.755	352.4
930.127	326.65
930.499	333.67
930.871	392.19
931.242	279.84
931.614	324.31
931.986	366.44
932.357	328.99
932.729	249.41
933.1	338.35
933.471	319.63
933.843	378.14
934.214	321.97
934.585	375.8
934.956	289.2
935.327	359.42
935.698	350.06
936.069	326.65
936.44	307.93
936.811	310.27
937.182	279.84
937.552	331.33
937.923	300.91
938.293	343.03
938.664	326.65
939.034	366.44
939.405	293.88
939.775	247.07
940.145	333.67
940.516	324.31
940.886	293.88
941.256	312.61
941.626	350.06
941.996	296.22
942.366	357.08
942.735	368.78
943.105	345.38
943.475	256.43
943.845	338.35
944.214	359.42
944.584	345.38
944.953	347.72
945.323	340.69
945.692	364.1
946.061	396.87
946.43	328.99
946.8	364.1
947.169	284.52
947.538	371.12
947.907	354.74
948.276	336.01
948.645	324.31
949.013	331.33
949.382	343.03
949.751	371.12
950.119	314.95
950.488	282.18
950.857	359.42
951.225	300.91
951.593	347.72
951.962	300.91
952.33	336.01
952.698	345.38
953.066	321.97
953.434	275.16
953.802	378.14
954.17	300.91
954.538	357.08
954.906	312.61
955.274	284.52
955.642	317.29
956.009	275.16
956.377	298.56
956.744	359.42
957.112	317.29
957.479	357.08
957.847	331.33
958.214	314.95
958.581	317.29
958.948	286.86
959.315	336.01
959.683	387.5
960.05	235.37
960.416	324.31
960.783	314.95
961.15	263.46
961.517	373.46
961.884	298.56
962.25	328.99
962.617	328.99
962.983	303.25
963.35	300.91
963.716	324.31
964.082	359.42
964.449	354.74
964.815	326.65
965.181	279.84
965.547	361.76
965.913	265.8
966.279	375.8
966.645	277.5
967.011	333.67
967.377	347.72
967.742	364.1
968.108	336.01
968.474	319.63
968.839	324.31
969.205	340.69
969.57	366.44
969.935	357.08
970.301	368.78
970.666	314.95
971.031	354.74
971.396	368.78
971.761	242.39
972.126	275.16
972.491	296.22
972.856	310.27
973.221	326.65
973.586	319.63
973.95	392.19
974.315	324.31
974.679	284.52
975.044	324.31
975.408	312.61
975.773	319.63
976.137	338.35
976.501	331.33
976.866	282.18
977.23	270.48
977.594	331.33
977.958	336.01
978.322	350.06
978.686	298.56
979.049	314.95
979.413	303.25
979.777	338.35
980.141	270.48
980.504	352.4
980.868	343.03
981.231	345.38
981.595	317.29
981.958	305.59
982.321	291.54
982.684	300.91
983.048	338.35
983.411	314.95
983.774	357.08
984.137	317.29
984.5	284.52
984.862	340.69
985.225	324.31
985.588	340.69
985.951	343.03
986.313	336.01
986.676	270.48
987.038	357.08
987.401	331.33
987.763	371.12
988.125	300.91
988.488	268.14
988.85	345.38
989.212	312.61
989.574	254.09
989.936	350.06
990.298	455.38
990.66	305.59
991.022	345.38
991.383	298.56
991.745	368.78
992.107	352.4
992.468	305.59
992.83	375.8
993.191	291.54
993.553	331.33
993.914	389.85
994.275	282.18
994.637	326.65
994.998	317.29
995.359	326.65
995.72	300.91
996.081	312.61
996.442	296.22
996.803	244.73
997.163	291.54
997.524	317.29
997.885	345.38
998.245	268.14
998.606	289.2
998.966	298.56
999.327	338.35
999.687	314.95
1000.047	385.16
1000.408	291.54
1000.768	282.18
1001.128	307.93
1001.488	371.12
1001.848	317.29
1002.208	340.69
1002.568	345.38
1002.927	319.63
1003.287	314.95
1003.647	296.22
1004.007	317.29
1004.366	357.08
1004.726	293.88
1005.085	300.91
1005.444	357.08
1005.804	286.86
1006.163	336.01
1006.522	340.69
1006.881	340.69
1007.24	289.2
1007.599	338.35
1007.958	333.67
1008.317	368.78
1008.676	354.74
1009.035	277.5
1009.393	345.38
1009.752	333.67
1010.111	307.93
1010.469	357.08
1010.828	352.4
1011.186	371.12
1011.544	394.53
1011.903	305.59
1012.261	270.48
1012.619	333.67
1012.977	296.22
1013.335	340.69
1013.693	399.21
1014.051	333.67
1014.409	328.99
1014.767	296.22
1015.124	312.61
1015.482	328.99
1015.84	333.67
1016.197	326.65
1016.555	352.4
1016.912	275.16
1017.269	336.01
1017.627	338.35
1017.984	347.72
1018.341	314.95
1018.698	331.33
1019.055	319.63
1019.412	396.87
1019.769	321.97
1020.126	347.72
1020.483	326.65
1020.84	331.33
1021.196	354.74
1021.553	368.78
1021.909	350.06
1022.266	310.27
1022.622	303.25
1022.979	352.4
1023.335	415.59
1023.691	396.87
1024.047	326.65
1024.404	307.93
1024.76	352.4
1025.116	321.97
1025.472	326.65
1025.827	375.8
1026.183	328.99
1026.539	291.54
1026.895	303.25
1027.25	258.78
1027.606	303.25
1027.961	359.42
1028.317	354.74
1028.672	275.16
1029.028	258.78
1029.383	326.65
1029.738	303.25
1030.093	258.78
1030.448	303.25
1030.803	296.22
1031.158	291.54
1031.513	331.33
1031.868	319.63
1032.223	326.65
1032.577	324.31
1032.932	270.48
1033.287	368.78
1033.641	279.84
1033.996	282.18
1034.35	305.59
1034.704	291.54
1035.059	410.91
1035.413	328.99
1035.767	328.99
1036.121	328.99
