Data from Al_FLMS009871__1203__16-42-06-079.txt Node

Date: Fri Mar 08 16:42:06 CST 2024
User: pe5414po
Spectrometer: FLMS00987
Trigger mode: 0
Integration Time (sec): 1.000000E-1
Scans to average: 1
Electric dark correction enabled: true
Nonlinearity correction enabled: false
Boxcar width: 0
XAxis mode: Wavelengths
Number of Pixels in Spectrum: 2048
>>>>>Begin Spectral Data<<<<<
188.938	-68.9
189.409	-68.9
189.879	-68.9
190.349	-111.03
190.819	-71.24
191.29	-94.65
191.76	-89.96
192.23	-108.69
192.7	-68.9
193.17	-73.58
193.64	-66.56
194.109	10.68
194.579	-50.18
195.049	-29.11
195.519	71.53
195.988	31.74
196.458	80.89
196.927	-1.02
197.397	120.68
197.866	158.13
198.336	108.98
198.805	167.49
199.274	186.22
199.744	181.54
200.213	186.22
200.682	190.9
201.151	218.99
201.62	261.12
202.089	240.05
202.558	261.12
203.027	268.14
203.495	333.67
203.964	321.97
204.433	247.07
204.902	247.07
205.37	298.56
205.839	256.43
206.307	263.46
206.776	286.86
207.244	230.69
207.712	321.97
208.181	333.67
208.649	343.03
209.117	298.56
209.585	317.29
210.053	310.27
210.521	279.84
210.989	284.52
211.457	298.56
211.925	326.65
212.393	300.91
212.861	284.52
213.328	240.05
213.796	270.48
214.264	321.97
214.731	291.54
215.199	319.63
215.666	303.25
216.133	261.12
216.601	286.86
217.068	296.22
217.535	216.65
218.003	296.22
218.47	307.93
218.937	279.84
219.404	237.71
219.871	240.05
220.338	200.26
220.805	261.12
221.271	284.52
221.738	207.28
222.205	326.65
222.671	268.14
223.138	312.61
223.605	240.05
224.071	254.09
224.538	261.12
225.004	256.43
225.47	207.28
225.937	261.12
226.403	197.92
226.869	275.16
227.335	244.73
227.801	357.08
228.267	261.12
228.733	268.14
229.199	244.73
229.665	300.91
230.131	249.41
230.597	312.61
231.062	265.8
231.528	300.91
231.994	258.78
232.459	233.03
232.925	291.54
233.39	286.86
233.856	258.78
234.321	284.52
234.786	275.16
235.252	235.37
235.717	336.01
236.182	326.65
236.647	240.05
237.112	296.22
237.577	244.73
238.042	317.29
238.507	331.33
238.972	340.69
239.436	289.2
239.901	338.35
240.366	307.93
240.83	277.5
241.295	296.22
241.76	331.33
242.224	254.09
242.688	228.35
243.153	279.84
243.617	298.56
244.081	343.03
244.545	352.4
245.01	282.18
245.474	265.8
245.938	378.14
246.402	265.8
246.866	293.88
247.33	268.14
247.793	310.27
248.257	314.95
248.721	272.82
249.185	277.5
249.648	270.48
250.112	258.78
250.575	265.8
251.039	286.86
251.502	275.16
251.965	209.62
252.429	312.61
252.892	310.27
253.355	312.61
253.818	310.27
254.281	328.99
254.744	277.5
255.207	310.27
255.67	272.82
256.133	300.91
256.596	296.22
257.059	326.65
257.522	319.63
257.984	296.22
258.447	347.72
258.909	340.69
259.372	265.8
259.834	268.14
260.297	321.97
260.759	319.63
261.221	343.03
261.684	272.82
262.146	289.2
262.608	244.73
263.07	249.41
263.532	298.56
263.994	296.22
264.456	261.12
264.918	263.46
265.38	261.12
265.842	307.93
266.303	284.52
266.765	312.61
267.227	272.82
267.688	307.93
268.15	326.65
268.611	310.27
269.072	286.86
269.534	272.82
269.995	265.8
270.456	279.84
270.918	230.69
271.379	336.01
271.84	249.41
272.301	244.73
272.762	275.16
273.223	247.07
273.684	298.56
274.144	293.88
274.605	305.59
275.066	319.63
275.527	305.59
275.987	279.84
276.448	286.86
276.908	256.43
277.369	300.91
277.829	331.33
278.289	293.88
278.75	307.93
279.21	296.22
279.67	357.08
280.13	277.5
280.59	277.5
281.05	284.52
281.51	293.88
281.97	305.59
282.43	275.16
282.89	284.52
283.35	300.91
283.809	235.37
284.269	270.48
284.729	328.99
285.188	347.72
285.648	328.99
286.107	343.03
286.567	321.97
287.026	235.37
287.485	300.91
287.944	263.46
288.404	298.56
288.863	310.27
289.322	254.09
289.781	286.86
290.24	296.22
290.699	298.56
291.158	258.78
291.616	319.63
292.075	289.2
292.534	279.84
292.992	307.93
293.451	284.52
293.91	324.31
294.368	396.87
294.827	279.84
295.285	326.65
295.743	328.99
296.202	293.88
296.66	277.5
297.118	336.01
297.576	293.88
298.034	286.86
298.492	357.08
298.95	279.84
299.408	307.93
299.866	277.5
300.324	293.88
300.781	272.82
301.239	317.29
301.697	265.8
302.154	279.84
302.612	352.4
303.069	328.99
303.527	265.8
303.984	305.59
304.441	321.97
304.899	321.97
305.356	380.48
305.813	202.6
306.27	247.07
306.727	277.5
307.184	263.46
307.641	317.29
308.098	326.65
308.555	347.72
309.012	284.52
309.468	286.86
309.925	256.43
310.382	331.33
310.838	310.27
311.295	277.5
311.751	289.2
312.208	328.99
312.664	305.59
313.12	305.59
313.577	293.88
314.033	354.74
314.489	268.14
314.945	307.93
315.401	392.19
315.857	310.27
316.313	289.2
316.769	307.93
317.225	303.25
317.681	303.25
318.136	352.4
318.592	261.12
319.048	331.33
319.503	277.5
319.959	277.5
320.414	279.84
320.869	321.97
321.325	338.35
321.78	265.8
322.235	382.82
322.691	326.65
323.146	333.67
323.601	314.95
324.056	296.22
324.511	373.46
324.966	284.52
325.421	242.39
325.875	387.5
326.33	373.46
326.785	317.29
327.24	324.31
327.694	275.16
328.149	343.03
328.603	350.06
329.058	289.2
329.512	326.65
329.966	305.59
330.421	303.25
330.875	338.35
331.329	284.52
331.783	331.33
332.237	340.69
332.691	375.8
333.145	338.35
333.599	333.67
334.053	268.14
334.507	258.78
334.96	272.82
335.414	258.78
335.868	359.42
336.321	340.69
336.775	298.56
337.228	394.53
337.682	350.06
338.135	333.67
338.588	282.18
339.042	303.25
339.495	333.67
339.948	385.16
340.401	293.88
340.854	310.27
341.307	366.44
341.76	317.29
342.213	371.12
342.666	324.31
343.119	314.95
343.571	272.82
344.024	331.33
344.477	340.69
344.929	275.16
345.382	251.75
345.834	357.08
346.287	343.03
346.739	333.67
347.191	268.14
347.644	336.01
348.096	361.76
348.548	307.93
349	354.74
349.452	307.93
349.904	307.93
350.356	392.19
350.808	359.42
351.26	289.2
351.711	284.52
352.163	293.88
352.615	368.78
353.066	211.96
353.518	434.32
353.969	263.46
354.421	319.63
354.872	417.93
355.324	321.97
355.775	352.4
356.226	310.27
356.677	333.67
357.128	378.14
357.579	352.4
358.03	307.93
358.481	324.31
358.932	289.2
359.383	333.67
359.834	364.1
360.285	382.82
360.735	378.14
361.186	364.1
361.637	368.78
362.087	270.48
362.538	284.52
362.988	347.72
363.438	317.29
363.889	333.67
364.339	368.78
364.789	300.91
365.239	296.22
365.689	368.78
366.139	312.61
366.589	347.72
367.039	319.63
367.489	312.61
367.939	286.86
368.389	300.91
368.839	324.31
369.288	286.86
369.738	314.95
370.187	279.84
370.637	328.99
371.086	279.84
371.536	368.78
371.985	350.06
372.434	284.52
372.884	333.67
373.333	279.84
373.782	310.27
374.231	343.03
374.68	357.08
375.129	373.46
375.578	307.93
376.027	352.4
376.475	303.25
376.924	371.12
377.373	298.56
377.822	350.06
378.27	270.48
378.719	338.35
379.167	354.74
379.616	350.06
380.064	361.76
380.512	331.33
380.961	296.22
381.409	368.78
381.857	324.31
382.305	275.16
382.753	328.99
383.201	321.97
383.649	258.78
384.097	354.74
384.545	272.82
384.992	375.8
385.44	268.14
385.888	218.99
386.335	359.42
386.783	380.48
387.231	333.67
387.678	270.48
388.125	314.95
388.573	338.35
389.02	331.33
389.467	350.06
389.914	340.69
390.362	321.97
390.809	310.27
391.256	328.99
391.703	254.09
392.15	282.18
392.596	277.5
393.043	338.35
393.49	357.08
393.937	254.09
394.383	249.41
394.83	265.8
395.276	333.67
395.723	286.86
396.169	324.31
396.616	270.48
397.062	300.91
397.508	303.25
397.954	317.29
398.401	368.78
398.847	303.25
399.293	328.99
399.739	361.76
400.185	373.46
400.631	333.67
401.076	324.31
401.522	305.59
401.968	326.65
402.414	303.25
402.859	354.74
403.305	317.29
403.75	331.33
404.196	275.16
404.641	399.21
405.086	293.88
405.532	317.29
405.977	338.35
406.422	286.86
406.867	321.97
407.312	338.35
407.757	336.01
408.202	343.03
408.647	289.2
409.092	357.08
409.537	338.35
409.982	293.88
410.426	331.33
410.871	317.29
411.316	314.95
411.76	286.86
412.205	310.27
412.649	343.03
413.093	336.01
413.538	354.74
413.982	331.33
414.426	296.22
414.87	289.2
415.314	321.97
415.758	265.8
416.202	338.35
416.646	303.25
417.09	354.74
417.534	268.14
417.978	328.99
418.421	319.63
418.865	347.72
419.309	321.97
419.752	387.5
420.196	343.03
420.639	319.63
421.083	244.73
421.526	347.72
421.969	385.16
422.412	289.2
422.856	296.22
423.299	328.99
423.742	328.99
424.185	371.12
424.628	345.38
425.071	298.56
425.513	291.54
425.956	310.27
426.399	326.65
426.842	331.33
427.284	275.16
427.727	314.95
428.169	338.35
428.612	312.61
429.054	361.76
429.497	333.67
429.939	321.97
430.381	324.31
430.823	314.95
431.265	200.26
431.707	345.38
432.149	347.72
432.591	359.42
433.033	354.74
433.475	347.72
433.917	345.38
434.359	319.63
434.8	300.91
435.242	331.33
435.684	328.99
436.125	270.48
436.567	333.67
437.008	361.76
437.449	352.4
437.891	389.85
438.332	326.65
438.773	326.65
439.214	387.5
439.656	345.38
440.097	317.29
440.538	345.38
440.978	336.01
441.419	277.5
441.86	350.06
442.301	326.65
442.742	345.38
443.182	364.1
443.623	368.78
444.063	291.54
444.504	364.1
444.944	359.42
445.385	345.38
445.825	347.72
446.265	291.54
446.706	312.61
447.146	333.67
447.586	345.38
448.026	333.67
448.466	324.31
448.906	357.08
449.346	317.29
449.786	420.27
450.225	275.16
450.665	364.1
451.105	249.41
451.544	312.61
451.984	326.65
452.424	324.31
452.863	265.8
453.302	312.61
453.742	366.44
454.181	317.29
454.62	317.29
455.059	347.72
455.499	385.16
455.938	296.22
456.377	312.61
456.816	331.33
457.254	226.01
457.693	338.35
458.132	251.75
458.571	282.18
459.01	343.03
459.448	296.22
459.887	314.95
460.325	392.19
460.764	380.48
461.202	392.19
461.641	317.29
462.079	298.56
462.517	345.38
462.955	350.06
463.393	350.06
463.832	321.97
464.27	331.33
464.708	279.84
465.145	357.08
465.583	296.22
466.021	314.95
466.459	361.76
466.897	284.52
467.334	296.22
467.772	312.61
468.209	336.01
468.647	284.52
469.084	305.59
469.522	284.52
469.959	371.12
470.396	289.2
470.833	249.41
471.271	364.1
471.708	361.76
472.145	307.93
472.582	312.61
473.019	284.52
473.456	340.69
473.892	289.2
474.329	321.97
474.766	324.31
475.202	282.18
475.639	277.5
476.076	303.25
476.512	338.35
476.949	270.48
477.385	282.18
477.821	265.8
478.258	310.27
478.694	282.18
479.13	284.52
479.566	357.08
480.002	380.48
480.438	328.99
480.874	314.95
481.31	333.67
481.746	314.95
482.181	303.25
482.617	263.46
483.053	293.88
483.488	350.06
483.924	336.01
484.36	263.46
484.795	282.18
485.23	282.18
485.666	328.99
486.101	336.01
486.536	277.5
486.971	361.76
487.407	296.22
487.842	282.18
488.277	345.38
488.712	326.65
489.146	354.74
489.581	340.69
490.016	324.31
490.451	359.42
490.885	373.46
491.32	275.16
491.755	319.63
492.189	321.97
492.624	319.63
493.058	382.82
493.492	375.8
493.927	343.03
494.361	305.59
494.795	328.99
495.229	345.38
495.663	319.63
496.097	284.52
496.531	284.52
496.965	324.31
497.399	359.42
497.833	305.59
498.266	305.59
498.7	338.35
499.134	284.52
499.567	343.03
500.001	368.78
500.434	368.78
500.868	300.91
501.301	324.31
501.734	303.25
502.168	305.59
502.601	319.63
503.034	343.03
503.467	321.97
503.9	314.95
504.333	317.29
504.766	314.95
505.199	350.06
505.632	305.59
506.064	331.33
506.497	321.97
506.93	345.38
507.362	357.08
507.795	336.01
508.227	258.78
508.66	357.08
509.092	373.46
509.524	296.22
509.956	420.27
510.389	265.8
510.821	347.72
511.253	317.29
511.685	247.07
512.117	284.52
512.549	244.73
512.981	385.16
513.412	321.97
513.844	352.4
514.276	357.08
514.707	338.35
515.139	371.12
515.571	328.99
516.002	382.82
516.433	343.03
516.865	277.5
517.296	368.78
517.727	324.31
518.159	326.65
518.59	345.38
519.021	298.56
519.452	319.63
519.883	312.61
520.314	275.16
520.744	298.56
521.175	307.93
521.606	258.78
522.037	244.73
522.467	343.03
522.898	317.29
523.328	312.61
523.759	326.65
524.189	240.05
524.62	345.38
525.05	298.56
525.48	310.27
525.91	279.84
526.341	340.69
526.771	284.52
527.201	298.56
527.631	296.22
528.061	312.61
528.49	305.59
528.92	310.27
529.35	303.25
529.78	256.43
530.209	338.35
530.639	350.06
531.068	319.63
531.498	300.91
531.927	296.22
532.357	389.85
532.786	343.03
533.215	324.31
533.644	361.76
534.074	312.61
534.503	289.2
534.932	312.61
535.361	317.29
535.79	359.42
536.218	380.48
536.647	336.01
537.076	328.99
537.505	289.2
537.933	333.67
538.362	303.25
538.79	298.56
539.219	347.72
539.647	261.12
540.076	326.65
540.504	324.31
540.932	336.01
541.36	338.35
541.788	331.33
542.217	321.97
542.645	326.65
543.073	279.84
543.5	272.82
543.928	277.5
544.356	375.8
544.784	350.06
545.211	256.43
545.639	310.27
546.067	270.48
546.494	361.76
546.922	286.86
547.349	305.59
547.776	333.67
548.204	233.03
548.631	321.97
549.058	331.33
549.485	279.84
549.912	293.88
550.339	270.48
550.766	385.16
551.193	357.08
551.62	284.52
552.047	347.72
552.474	293.88
552.9	352.4
553.327	286.86
553.754	310.27
554.18	333.67
554.607	328.99
555.033	336.01
555.459	350.06
555.886	328.99
556.312	350.06
556.738	343.03
557.164	354.74
557.59	258.78
558.016	300.91
558.442	347.72
558.868	307.93
559.294	317.29
559.72	293.88
560.145	272.82
560.571	333.67
560.997	312.61
561.422	317.29
561.848	324.31
562.273	347.72
562.699	312.61
563.124	352.4
563.549	345.38
563.974	312.61
564.4	319.63
564.825	300.91
565.25	392.19
565.675	303.25
566.1	254.09
566.525	338.35
566.95	319.63
567.374	275.16
567.799	375.8
568.224	333.67
568.648	357.08
569.073	296.22
569.497	366.44
569.922	240.05
570.346	345.38
570.771	338.35
571.195	279.84
571.619	324.31
572.043	340.69
572.467	326.65
572.891	366.44
573.315	307.93
573.739	331.33
574.163	357.08
574.587	368.78
575.011	296.22
575.435	261.12
575.858	319.63
576.282	371.12
576.705	324.31
577.129	373.46
577.552	378.14
577.976	343.03
578.399	359.42
578.822	293.88
579.245	340.69
579.669	324.31
580.092	279.84
580.515	371.12
580.938	202.6
581.361	277.5
581.784	298.56
582.206	331.33
582.629	303.25
583.052	312.61
583.474	289.2
583.897	275.16
584.32	394.53
584.742	300.91
585.165	296.22
585.587	307.93
586.009	230.69
586.431	282.18
586.854	385.16
587.276	298.56
587.698	293.88
588.12	345.38
588.542	291.54
588.964	347.72
589.386	331.33
589.807	338.35
590.229	373.46
590.651	286.86
591.073	296.22
591.494	300.91
591.916	310.27
592.337	303.25
592.759	350.06
593.18	373.46
593.601	296.22
594.022	282.18
594.444	310.27
594.865	357.08
595.286	340.69
595.707	275.16
596.128	366.44
596.549	352.4
596.97	389.85
597.39	310.27
597.811	282.18
598.232	258.78
598.652	321.97
599.073	345.38
599.494	347.72
599.914	328.99
600.334	340.69
600.755	319.63
601.175	275.16
601.595	338.35
602.015	296.22
602.436	291.54
602.856	441.34
603.276	324.31
603.696	357.08
604.115	321.97
604.535	324.31
604.955	389.85
605.375	317.29
605.794	300.91
606.214	338.35
606.634	289.2
607.053	331.33
607.473	401.55
607.892	343.03
608.311	328.99
608.731	331.33
609.15	305.59
609.569	359.42
609.988	289.2
610.407	343.03
610.826	343.03
611.245	303.25
611.664	314.95
612.083	289.2
612.501	279.84
612.92	336.01
613.339	277.5
613.757	382.82
614.176	350.06
614.594	293.88
615.013	303.25
615.431	350.06
615.85	298.56
616.268	305.59
616.686	328.99
617.104	352.4
617.522	380.48
617.94	256.43
618.358	279.84
618.776	305.59
619.194	350.06
619.612	345.38
620.03	385.16
620.447	331.33
620.865	373.46
621.282	361.76
621.7	359.42
622.117	296.22
622.535	286.86
622.952	317.29
623.369	321.97
623.787	310.27
624.204	284.52
624.621	354.74
625.038	293.88
625.455	357.08
625.872	277.5
626.289	333.67
626.706	326.65
627.123	324.31
627.539	268.14
627.956	336.01
628.373	336.01
628.789	345.38
629.206	312.61
629.622	298.56
630.038	317.29
630.455	331.33
630.871	307.93
631.287	314.95
631.703	289.2
632.12	303.25
632.536	272.82
632.952	340.69
633.368	293.88
633.783	321.97
634.199	324.31
634.615	324.31
635.031	324.31
635.446	291.54
635.862	338.35
636.277	354.74
636.693	279.84
637.108	251.75
637.524	361.76
637.939	333.67
638.354	331.33
638.77	279.84
639.185	354.74
639.6	326.65
640.015	326.65
640.43	305.59
640.845	340.69
641.259	303.25
641.674	275.16
642.089	312.61
642.504	336.01
642.918	324.31
643.333	338.35
643.747	310.27
644.162	319.63
644.576	368.78
644.991	340.69
645.405	286.86
645.819	300.91
646.233	319.63
646.647	399.21
647.061	361.76
647.475	331.33
647.889	314.95
648.303	389.85
648.717	378.14
649.131	364.1
649.545	314.95
649.958	340.69
650.372	293.88
650.785	235.37
651.199	317.29
651.612	265.8
652.026	300.91
652.439	230.69
652.852	300.91
653.266	275.16
653.679	333.67
654.092	352.4
654.505	350.06
654.918	343.03
655.331	296.22
655.744	336.01
656.156	331.33
656.569	324.31
656.982	298.56
657.394	345.38
657.807	364.1
658.22	361.76
658.632	345.38
659.044	317.29
659.457	275.16
659.869	265.8
660.281	293.88
660.693	214.31
661.106	336.01
661.518	389.85
661.93	305.59
662.342	268.14
662.754	270.48
663.165	340.69
663.577	336.01
663.989	279.84
664.401	382.82
664.812	340.69
665.224	357.08
665.635	373.46
666.047	279.84
666.458	293.88
666.869	277.5
667.281	417.93
667.692	336.01
668.103	382.82
668.514	263.46
668.925	275.16
669.336	312.61
669.747	265.8
670.158	284.52
670.569	338.35
670.979	296.22
671.39	343.03
671.801	389.85
672.211	291.54
672.622	258.78
673.032	345.38
673.443	331.33
673.853	275.16
674.263	282.18
674.674	326.65
675.084	303.25
675.494	361.76
675.904	324.31
676.314	333.67
676.724	321.97
677.134	305.59
677.544	378.14
677.953	331.33
678.363	368.78
678.773	371.12
679.182	345.38
679.592	314.95
680.001	282.18
680.411	291.54
680.82	303.25
681.23	303.25
681.639	317.29
682.048	352.4
682.457	361.76
682.866	300.91
683.275	366.44
683.684	312.61
684.093	354.74
684.502	331.33
684.911	286.86
685.32	357.08
685.728	282.18
686.137	326.65
686.546	310.27
686.954	326.65
687.363	291.54
687.771	291.54
688.179	321.97
688.588	291.54
688.996	350.06
689.404	357.08
689.812	347.72
690.22	268.14
690.628	347.72
691.036	394.53
691.444	310.27
691.852	319.63
692.26	284.52
692.667	291.54
693.075	357.08
693.483	277.5
693.89	319.63
694.298	319.63
694.705	268.14
695.112	343.03
695.52	345.38
695.927	319.63
696.334	328.99
696.741	326.65
697.148	275.16
697.555	336.01
697.962	333.67
698.369	296.22
698.776	289.2
699.183	300.91
699.59	298.56
699.996	326.65
700.403	350.06
700.81	373.46
701.216	296.22
701.623	373.46
702.029	270.48
702.435	319.63
702.842	326.65
703.248	336.01
703.654	307.93
704.06	312.61
704.466	338.35
704.872	321.97
705.278	331.33
705.684	364.1
706.09	352.4
706.496	357.08
706.901	333.67
707.307	403.89
707.712	345.38
708.118	312.61
708.523	361.76
708.929	289.2
709.334	314.95
709.74	336.01
710.145	268.14
710.55	303.25
710.955	317.29
711.36	284.52
711.765	317.29
712.17	279.84
712.575	366.44
712.98	836.89
713.385	347.72
713.789	359.42
714.194	317.29
714.599	300.91
715.003	385.16
715.408	296.22
715.812	305.59
716.217	321.97
716.621	347.72
717.025	347.72
717.429	406.23
717.833	279.84
718.238	263.46
718.642	343.03
719.046	343.03
719.449	291.54
719.853	279.84
720.257	338.35
720.661	331.33
721.065	251.75
721.468	286.86
721.872	284.52
722.275	347.72
722.679	333.67
723.082	303.25
723.485	289.2
723.889	380.48
724.292	314.95
724.695	312.61
725.098	333.67
725.501	321.97
725.904	368.78
726.307	345.38
726.71	300.91
727.113	317.29
727.516	300.91
727.918	343.03
728.321	354.74
728.724	333.67
729.126	331.33
729.529	314.95
729.931	317.29
730.333	321.97
730.736	345.38
731.138	319.63
731.54	345.38
731.942	326.65
732.344	347.72
732.746	336.01
733.148	375.8
733.55	256.43
733.952	270.48
734.354	291.54
734.756	326.65
735.157	286.86
735.559	380.48
735.96	340.69
736.362	319.63
736.763	275.16
737.165	336.01
737.566	275.16
737.967	272.82
738.368	268.14
738.77	258.78
739.171	270.48
739.572	343.03
739.973	300.91
740.374	350.06
740.774	326.65
741.175	336.01
741.576	298.56
741.977	328.99
742.377	268.14
742.778	289.2
743.178	298.56
743.579	350.06
743.979	361.76
744.379	350.06
744.78	275.16
745.18	378.14
745.58	310.27
745.98	312.61
746.38	286.86
746.78	343.03
747.18	352.4
747.58	291.54
747.98	300.91
748.38	364.1
748.779	284.52
749.179	340.69
749.578	333.67
749.978	357.08
750.377	275.16
750.777	300.91
751.176	343.03
751.575	317.29
751.975	357.08
752.374	310.27
752.773	286.86
753.172	350.06
753.571	289.2
753.97	338.35
754.369	361.76
754.768	336.01
755.166	328.99
755.565	284.52
755.964	347.72
756.362	293.88
756.761	275.16
757.159	296.22
757.558	296.22
757.956	333.67
758.354	286.86
758.753	305.59
759.151	326.65
759.549	331.33
759.947	265.8
760.345	284.52
760.743	326.65
761.141	340.69
761.539	352.4
761.936	314.95
762.334	357.08
762.732	331.33
763.129	422.61
763.527	289.2
763.924	326.65
764.322	319.63
764.719	347.72
765.117	305.59
765.514	345.38
765.911	275.16
766.308	328.99
766.705	338.35
767.102	298.56
767.499	326.65
767.896	305.59
768.293	282.18
768.69	319.63
769.086	378.14
769.483	331.33
769.88	270.48
770.276	357.08
770.673	296.22
771.069	389.85
771.466	319.63
771.862	321.97
772.258	338.35
772.654	340.69
773.05	317.29
773.447	310.27
773.843	343.03
774.239	300.91
774.634	296.22
775.03	331.33
775.426	319.63
775.822	331.33
776.218	328.99
776.613	340.69
777.009	366.44
777.404	300.91
777.8	282.18
778.195	352.4
778.59	338.35
778.986	277.5
779.381	263.46
779.776	343.03
780.171	261.12
780.566	319.63
780.961	312.61
781.356	361.76
781.751	340.69
782.146	336.01
782.54	319.63
782.935	347.72
783.33	303.25
783.724	338.35
784.119	326.65
784.513	319.63
784.908	314.95
785.302	314.95
785.696	361.76
786.09	298.56
786.485	296.22
786.879	312.61
787.273	317.29
787.667	275.16
788.061	312.61
788.454	284.52
788.848	305.59
789.242	289.2
789.636	282.18
790.029	286.86
790.423	286.86
790.816	275.16
791.21	303.25
791.603	314.95
791.997	303.25
792.39	298.56
792.783	338.35
793.176	324.31
793.569	303.25
793.962	230.69
794.355	312.61
794.748	324.31
795.141	289.2
795.534	272.82
795.927	364.1
796.319	328.99
796.712	326.65
797.105	340.69
797.497	338.35
797.89	303.25
798.282	314.95
798.674	373.46
799.067	324.31
799.459	333.67
799.851	319.63
800.243	270.48
800.635	382.82
801.027	312.61
801.419	303.25
801.811	263.46
802.203	387.5
802.594	350.06
802.986	366.44
803.378	375.8
803.769	277.5
804.161	314.95
804.552	324.31
804.944	357.08
805.335	328.99
805.726	321.97
806.118	307.93
806.509	350.06
806.9	357.08
807.291	338.35
807.682	310.27
808.073	317.29
808.464	310.27
808.855	343.03
809.245	361.76
809.636	371.12
810.027	275.16
810.417	338.35
810.808	382.82
811.198	261.12
811.589	307.93
811.979	324.31
812.369	254.09
812.759	340.69
813.15	378.14
813.54	312.61
813.93	247.07
814.32	319.63
814.71	385.16
815.1	296.22
815.489	286.86
815.879	366.44
816.269	352.4
816.658	357.08
817.048	345.38
817.438	256.43
817.827	268.14
818.216	331.33
818.606	357.08
818.995	378.14
819.384	286.86
819.773	350.06
820.163	310.27
820.552	361.76
820.941	300.91
821.33	293.88
821.718	366.44
822.107	324.31
822.496	345.38
822.885	324.31
823.273	305.59
823.662	319.63
824.05	340.69
824.439	289.2
824.827	336.01
825.216	293.88
825.604	328.99
825.992	328.99
826.38	321.97
826.768	321.97
827.156	296.22
827.544	338.35
827.932	300.91
828.32	277.5
828.708	361.76
829.096	354.74
829.483	333.67
829.871	352.4
830.259	312.61
830.646	284.52
831.034	247.07
831.421	293.88
831.808	279.84
832.196	291.54
832.583	319.63
832.97	277.5
833.357	347.72
833.744	298.56
834.131	319.63
834.518	319.63
834.905	279.84
835.292	305.59
835.678	312.61
836.065	314.95
836.452	333.67
836.838	373.46
837.225	331.33
837.611	282.18
837.998	345.38
838.384	307.93
838.77	359.42
839.157	357.08
839.543	347.72
839.929	289.2
840.315	303.25
840.701	277.5
841.087	333.67
841.473	296.22
841.858	345.38
842.244	272.82
842.63	359.42
843.015	298.56
843.401	401.55
843.787	331.33
844.172	286.86
844.557	286.86
844.943	354.74
845.328	303.25
845.713	338.35
846.098	321.97
846.483	336.01
846.868	303.25
847.253	296.22
847.638	385.16
848.023	291.54
848.408	284.52
848.793	333.67
849.177	312.61
849.562	324.31
849.947	338.35
850.331	324.31
850.715	359.42
851.1	328.99
851.484	317.29
851.868	282.18
852.253	242.39
852.637	324.31
853.021	305.59
853.405	350.06
853.789	328.99
854.173	350.06
854.557	378.14
854.94	378.14
855.324	371.12
855.708	300.91
856.091	319.63
856.475	343.03
856.858	291.54
857.242	275.16
857.625	343.03
858.009	310.27
858.392	293.88
858.775	207.28
859.158	338.35
859.541	326.65
859.924	343.03
860.307	296.22
860.69	347.72
861.073	324.31
861.456	247.07
861.838	293.88
862.221	321.97
862.604	310.27
862.986	317.29
863.369	268.14
863.751	328.99
864.133	324.31
864.516	343.03
864.898	336.01
865.28	298.56
865.662	230.69
866.044	270.48
866.426	279.84
866.808	279.84
867.19	359.42
867.572	279.84
867.954	331.33
868.336	340.69
868.717	293.88
869.099	366.44
869.48	345.38
869.862	328.99
870.243	296.22
870.625	328.99
871.006	333.67
871.387	340.69
871.768	328.99
872.149	382.82
872.53	286.86
872.911	317.29
873.292	263.46
873.673	333.67
874.054	336.01
874.435	326.65
874.815	307.93
875.196	305.59
875.577	331.33
875.957	326.65
876.338	368.78
876.718	317.29
877.098	321.97
877.479	333.67
877.859	350.06
878.239	314.95
878.619	303.25
878.999	366.44
879.379	321.97
879.759	291.54
880.139	336.01
880.519	352.4
880.898	338.35
881.278	328.99
881.658	347.72
882.037	373.46
882.417	307.93
882.796	319.63
883.176	333.67
883.555	305.59
883.934	406.23
884.313	326.65
884.693	282.18
885.072	312.61
885.451	340.69
885.83	310.27
886.209	331.33
886.587	319.63
886.966	282.18
887.345	305.59
887.724	375.8
888.102	305.59
888.481	338.35
888.859	375.8
889.238	270.48
889.616	310.27
889.994	265.8
890.373	310.27
890.751	357.08
891.129	289.2
891.507	343.03
891.885	314.95
892.263	305.59
892.641	286.86
893.019	312.61
893.396	317.29
893.774	303.25
894.152	345.38
894.529	326.65
894.907	277.5
895.284	270.48
895.662	366.44
896.039	382.82
896.416	368.78
896.794	303.25
897.171	298.56
897.548	268.14
897.925	345.38
898.302	305.59
898.679	272.82
899.056	317.29
899.433	312.61
899.809	378.14
900.186	312.61
900.563	324.31
900.939	298.56
901.316	282.18
901.692	314.95
902.069	385.16
902.445	284.52
902.821	298.56
903.197	319.63
903.574	307.93
903.95	300.91
904.326	361.76
904.702	368.78
905.078	361.76
905.454	307.93
905.829	263.46
906.205	303.25
906.581	361.76
906.956	312.61
907.332	289.2
907.707	328.99
908.083	361.76
908.458	265.8
908.833	328.99
909.209	378.14
909.584	268.14
909.959	307.93
910.334	310.27
910.709	296.22
911.084	333.67
911.459	345.38
911.834	303.25
912.209	328.99
912.583	293.88
912.958	284.52
913.333	368.78
913.707	286.86
914.082	324.31
914.456	366.44
914.83	305.59
915.205	408.57
915.579	359.42
915.953	293.88
916.327	347.72
916.701	368.78
917.075	364.1
917.449	338.35
917.823	328.99
918.197	357.08
918.571	333.67
918.944	289.2
919.318	277.5
919.692	282.18
920.065	272.82
920.438	340.69
920.812	303.25
921.185	270.48
921.558	305.59
921.932	357.08
922.305	310.27
922.678	333.67
923.051	307.93
923.424	279.84
923.797	286.86
924.17	226.01
924.542	303.25
924.915	270.48
925.288	303.25
925.661	289.2
926.033	371.12
926.406	282.18
926.778	275.16
927.15	319.63
927.523	321.97
927.895	368.78
928.267	310.27
928.639	300.91
929.011	202.6
929.383	300.91
929.755	282.18
930.127	277.5
930.499	366.44
930.871	270.48
931.242	272.82
931.614	347.72
931.986	279.84
932.357	300.91
932.729	378.14
933.1	230.69
933.471	305.59
933.843	312.61
934.214	333.67
934.585	361.76
934.956	303.25
935.327	350.06
935.698	286.86
936.069	326.65
936.44	233.03
936.811	277.5
937.182	338.35
937.552	354.74
937.923	326.65
938.293	261.12
938.664	345.38
939.034	347.72
939.405	331.33
939.775	326.65
940.145	345.38
940.516	279.84
940.886	296.22
941.256	361.76
941.626	321.97
941.996	251.75
942.366	336.01
942.735	326.65
943.105	307.93
943.475	254.09
943.845	289.2
944.214	275.16
944.584	321.97
944.953	354.74
945.323	291.54
945.692	336.01
946.061	324.31
946.43	328.99
946.8	317.29
947.169	319.63
947.538	293.88
947.907	354.74
948.276	347.72
948.645	350.06
949.013	352.4
949.382	314.95
949.751	275.16
950.119	324.31
950.488	333.67
950.857	303.25
951.225	289.2
951.593	272.82
951.962	317.29
952.33	331.33
952.698	305.59
953.066	364.1
953.434	314.95
953.802	265.8
954.17	277.5
954.538	345.38
954.906	298.56
955.274	312.61
955.642	296.22
956.009	364.1
956.377	298.56
956.744	279.84
957.112	333.67
957.479	312.61
957.847	298.56
958.214	326.65
958.581	345.38
958.948	364.1
959.315	343.03
959.683	350.06
960.05	284.52
960.416	303.25
960.783	359.42
961.15	336.01
961.517	291.54
961.884	291.54
962.25	296.22
962.617	324.31
962.983	368.78
963.35	282.18
963.716	324.31
964.082	289.2
964.449	237.71
964.815	296.22
965.181	324.31
965.547	350.06
965.913	289.2
966.279	333.67
966.645	303.25
967.011	261.12
967.377	324.31
967.742	321.97
968.108	321.97
968.474	319.63
968.839	326.65
969.205	340.69
969.57	277.5
969.935	314.95
970.301	361.76
970.666	378.14
971.031	249.41
971.396	350.06
971.761	289.2
972.126	368.78
972.491	361.76
972.856	289.2
973.221	352.4
973.586	345.38
973.95	286.86
974.315	307.93
974.679	336.01
975.044	279.84
975.408	345.38
975.773	336.01
976.137	359.42
976.501	331.33
976.866	284.52
977.23	289.2
977.594	350.06
977.958	286.86
978.322	328.99
978.686	338.35
979.049	317.29
979.413	272.82
979.777	368.78
980.141	310.27
980.504	347.72
980.868	261.12
981.231	300.91
981.595	277.5
981.958	371.12
982.321	286.86
982.684	307.93
983.048	333.67
983.411	401.55
983.774	270.48
984.137	256.43
984.5	265.8
984.862	265.8
985.225	293.88
985.588	298.56
985.951	319.63
986.313	366.44
986.676	305.59
987.038	277.5
987.401	298.56
987.763	286.86
988.125	282.18
988.488	307.93
988.85	312.61
989.212	317.29
989.574	275.16
989.936	361.76
990.298	321.97
990.66	296.22
991.022	326.65
991.383	333.67
991.745	289.2
992.107	272.82
992.468	218.99
992.83	321.97
993.191	317.29
993.553	350.06
993.914	258.78
994.275	361.76
994.637	305.59
994.998	331.33
995.359	235.37
995.72	270.48
996.081	293.88
996.442	317.29
996.803	291.54
997.163	319.63
997.524	312.61
997.885	310.27
998.245	275.16
998.606	319.63
998.966	277.5
999.327	291.54
999.687	296.22
1000.047	244.73
1000.408	319.63
1000.768	312.61
1001.128	310.27
1001.488	317.29
1001.848	291.54
1002.208	333.67
1002.568	263.46
1002.927	319.63
1003.287	321.97
1003.647	314.95
1004.007	270.48
1004.366	310.27
1004.726	282.18
1005.085	314.95
1005.444	303.25
1005.804	354.74
1006.163	305.59
1006.522	258.78
1006.881	321.97
1007.24	324.31
1007.599	340.69
1007.958	284.52
1008.317	317.29
1008.676	300.91
1009.035	401.55
1009.393	422.61
1009.752	258.78
1010.111	312.61
1010.469	272.82
1010.828	307.93
1011.186	300.91
1011.544	368.78
1011.903	291.54
1012.261	371.12
1012.619	321.97
1012.977	277.5
1013.335	249.41
1013.693	263.46
1014.051	279.84
1014.409	366.44
1014.767	340.69
1015.124	307.93
1015.482	328.99
1015.84	298.56
1016.197	305.59
1016.555	286.86
1016.912	265.8
1017.269	282.18
1017.627	312.61
1017.984	321.97
1018.341	298.56
1018.698	324.31
1019.055	296.22
1019.412	333.67
1019.769	310.27
1020.126	312.61
1020.483	289.2
1020.84	265.8
1021.196	298.56
1021.553	314.95
1021.909	324.31
1022.266	293.88
1022.622	314.95
1022.979	270.48
1023.335	307.93
1023.691	340.69
1024.047	314.95
1024.404	312.61
1024.76	293.88
1025.116	321.97
1025.472	338.35
1025.827	298.56
1026.183	310.27
1026.539	272.82
1026.895	291.54
1027.25	286.86
1027.606	359.42
1027.961	291.54
1028.317	324.31
1028.672	286.86
1029.028	312.61
1029.383	286.86
1029.738	310.27
1030.093	331.33
1030.448	354.74
1030.803	314.95
1031.158	293.88
1031.513	366.44
1031.868	314.95
1032.223	359.42
1032.577	317.29
1032.932	357.08
1033.287	240.05
1033.641	312.61
1033.996	352.4
1034.35	251.75
1034.704	244.73
1035.059	275.16
1035.413	277.5
1035.767	277.5
1036.121	277.5
