Data from Al_FLMS009871__79__11-45-35-799.txt Node

Date: Fri Mar 08 11:45:35 CST 2024
User: pe5414po
Spectrometer: FLMS00987
Trigger mode: 0
Integration Time (sec): 1.000000E-1
Scans to average: 1
Electric dark correction enabled: true
Nonlinearity correction enabled: false
Boxcar width: 0
XAxis mode: Wavelengths
Number of Pixels in Spectrum: 2048
>>>>>Begin Spectral Data<<<<<
188.938	-72.56
189.409	-72.56
189.879	-72.56
190.349	-147.45
190.819	-117.03
191.29	-110.01
191.76	-156.82
192.23	-63.19
192.7	-81.92
193.17	-39.79
193.64	16.38
194.109	-39.79
194.579	-2.34
195.049	21.06
195.519	14.04
195.988	23.41
196.458	42.13
196.927	32.77
197.397	86.6
197.866	147.45
198.336	110.01
198.805	194.26
199.274	212.99
199.744	184.9
200.213	257.46
200.682	205.97
201.151	234.05
201.62	271.5
202.089	187.24
202.558	362.78
203.027	299.59
203.495	266.82
203.964	229.37
204.433	332.36
204.902	262.14
205.37	276.18
205.839	367.46
206.307	339.38
206.776	344.06
207.244	318.31
207.712	297.25
208.181	358.1
208.649	311.29
209.117	341.72
209.585	262.14
210.053	318.31
210.521	311.29
210.989	334.7
211.457	344.06
211.925	313.63
212.393	355.76
212.861	306.61
213.328	243.42
213.796	266.82
214.264	311.29
214.731	304.27
215.199	304.27
215.666	280.86
216.133	334.7
216.601	292.57
217.068	330.02
217.535	217.67
218.003	304.27
218.47	322.99
218.937	264.48
219.404	273.84
219.871	264.48
220.338	217.67
220.805	297.25
221.271	297.25
221.738	353.42
222.205	269.16
222.671	259.8
223.138	252.78
223.605	294.91
224.071	322.99
224.538	332.36
225.004	313.63
225.47	308.95
225.937	236.39
226.403	255.12
226.869	297.25
227.335	255.12
227.801	294.91
228.267	306.61
228.733	287.89
229.199	355.76
229.665	325.33
230.131	269.16
230.597	308.95
231.062	266.82
231.528	304.27
231.994	248.1
232.459	280.86
232.925	355.76
233.39	297.25
233.856	330.02
234.321	245.76
234.786	313.63
235.252	299.59
235.717	332.36
236.182	315.97
236.647	297.25
237.112	259.8
237.577	308.95
238.042	259.8
238.507	327.68
238.972	285.55
239.436	313.63
239.901	365.12
240.366	327.68
240.83	299.59
241.295	301.93
241.76	283.2
242.224	322.99
242.688	322.99
243.153	341.72
243.617	301.93
244.081	320.65
244.545	292.57
245.01	292.57
245.474	320.65
245.938	278.52
246.402	311.29
246.866	297.25
247.33	273.84
247.793	409.59
248.257	280.86
248.721	287.89
249.185	229.37
249.648	264.48
250.112	271.5
250.575	313.63
251.039	266.82
251.502	320.65
251.965	283.2
252.429	313.63
252.892	278.52
253.355	287.89
253.818	250.44
254.281	344.06
254.744	306.61
255.207	224.69
255.67	346.4
256.133	276.18
256.596	299.59
257.059	313.63
257.522	313.63
257.984	294.91
258.447	362.78
258.909	285.55
259.372	311.29
259.834	311.29
260.297	325.33
260.759	290.23
261.221	306.61
261.684	330.02
262.146	241.08
262.608	290.23
263.07	313.63
263.532	285.55
263.994	311.29
264.456	327.68
264.918	271.5
265.38	287.89
265.842	250.44
266.303	311.29
266.765	346.4
267.227	322.99
267.688	327.68
268.15	276.18
268.611	330.02
269.072	299.59
269.534	250.44
269.995	294.91
270.456	358.1
270.918	386.19
271.379	304.27
271.84	257.46
272.301	306.61
272.762	334.7
273.223	306.61
273.684	311.29
274.144	292.57
274.605	322.99
275.066	294.91
275.527	332.36
275.987	315.97
276.448	301.93
276.908	203.63
277.369	330.02
277.829	386.19
278.289	257.46
278.75	259.8
279.21	318.31
279.67	339.38
280.13	315.97
280.59	311.29
281.05	322.99
281.51	299.59
281.97	362.78
282.43	304.27
282.89	386.19
283.35	358.1
283.809	332.36
284.269	238.73
284.729	292.57
285.188	287.89
285.648	315.97
286.107	273.84
286.567	315.97
287.026	301.93
287.485	229.37
287.944	327.68
288.404	320.65
288.863	257.46
289.322	283.2
289.781	278.52
290.24	346.4
290.699	311.29
291.158	259.8
291.616	259.8
292.075	285.55
292.534	327.68
292.992	273.84
293.451	304.27
293.91	224.69
294.368	353.42
294.827	346.4
295.285	236.39
295.743	264.48
296.202	290.23
296.66	280.86
297.118	304.27
297.576	250.44
298.034	381.51
298.492	327.68
298.95	327.68
299.408	273.84
299.866	276.18
300.324	304.27
300.781	393.21
301.239	327.68
301.697	325.33
302.154	353.42
302.612	297.25
303.069	304.27
303.527	271.5
303.984	308.95
304.441	313.63
304.899	332.36
305.356	255.12
305.813	304.27
306.27	318.31
306.727	292.57
307.184	334.7
307.641	306.61
308.098	287.89
308.555	285.55
309.012	372.15
309.468	360.44
309.925	294.91
310.382	313.63
310.838	330.02
311.295	332.36
311.751	358.1
312.208	315.97
312.664	269.16
313.12	273.84
313.577	306.61
314.033	278.52
314.489	327.68
314.945	266.82
315.401	292.57
315.857	337.04
316.313	332.36
316.769	327.68
317.225	301.93
317.681	362.78
318.136	341.72
318.592	386.19
319.048	280.86
319.503	311.29
319.959	318.31
320.414	330.02
320.869	325.33
321.325	290.23
321.78	315.97
322.235	379.17
322.691	245.76
323.146	346.4
323.601	355.76
324.056	355.76
324.511	339.38
324.966	283.2
325.421	388.53
325.875	252.78
326.33	337.04
326.785	330.02
327.24	311.29
327.694	283.2
328.149	341.72
328.603	280.86
329.058	315.97
329.512	315.97
329.966	320.65
330.421	264.48
330.875	360.44
331.329	318.31
331.783	332.36
332.237	339.38
332.691	311.29
333.145	297.25
333.599	341.72
334.053	367.46
334.507	255.12
334.96	301.93
335.414	351.08
335.868	330.02
336.321	292.57
336.775	353.42
337.228	376.83
337.682	311.29
338.135	287.89
338.588	330.02
339.042	304.27
339.495	311.29
339.948	330.02
340.401	257.46
340.854	330.02
341.307	330.02
341.76	297.25
342.213	334.7
342.666	301.93
343.119	339.38
343.571	306.61
344.024	355.76
344.477	285.55
344.929	334.7
345.382	325.33
345.834	299.59
346.287	299.59
346.739	245.76
347.191	318.31
347.644	337.04
348.096	308.95
348.548	308.95
349	325.33
349.452	332.36
349.904	271.5
350.356	271.5
350.808	365.12
351.26	318.31
351.711	311.29
352.163	304.27
352.615	337.04
353.066	294.91
353.518	355.76
353.969	273.84
354.421	344.06
354.872	337.04
355.324	297.25
355.775	285.55
356.226	287.89
356.677	322.99
357.128	308.95
357.579	308.95
358.03	311.29
358.481	337.04
358.932	334.7
359.383	351.08
359.834	337.04
360.285	353.42
360.735	322.99
361.186	271.5
361.637	292.57
362.087	341.72
362.538	365.12
362.988	325.33
363.438	266.82
363.889	339.38
364.339	311.29
364.789	327.68
365.239	388.53
365.689	292.57
366.139	344.06
366.589	311.29
367.039	285.55
367.489	325.33
367.939	334.7
368.389	346.4
368.839	325.33
369.288	315.97
369.738	337.04
370.187	308.95
370.637	327.68
371.086	290.23
371.536	379.17
371.985	393.21
372.434	299.59
372.884	285.55
373.333	346.4
373.782	348.74
374.231	322.99
374.68	341.72
375.129	315.97
375.578	365.12
376.027	344.06
376.475	390.87
376.924	390.87
377.373	337.04
377.822	285.55
378.27	369.8
378.719	299.59
379.167	262.14
379.616	290.23
380.064	334.7
380.512	306.61
380.961	337.04
381.409	341.72
381.857	327.68
382.305	290.23
382.753	280.86
383.201	337.04
383.649	330.02
384.097	318.31
384.545	285.55
384.992	379.17
385.44	351.08
385.888	330.02
386.335	318.31
386.783	306.61
387.231	390.87
387.678	358.1
388.125	386.19
388.573	383.85
389.02	304.27
389.467	322.99
389.914	315.97
390.362	297.25
390.809	374.49
391.256	404.91
391.703	344.06
392.15	299.59
392.596	313.63
393.043	374.49
393.49	273.84
393.937	327.68
394.383	322.99
394.83	269.16
395.276	322.99
395.723	306.61
396.169	294.91
396.616	358.1
397.062	313.63
397.508	264.48
397.954	285.55
398.401	334.7
398.847	353.42
399.293	362.78
399.739	344.06
400.185	301.93
400.631	313.63
401.076	388.53
401.522	365.12
401.968	365.12
402.414	353.42
402.859	297.25
403.305	320.65
403.75	332.36
404.196	332.36
404.641	388.53
405.086	313.63
405.532	330.02
405.977	386.19
406.422	306.61
406.867	330.02
407.312	344.06
407.757	390.87
408.202	358.1
408.647	313.63
409.092	320.65
409.537	346.4
409.982	369.8
410.426	264.48
410.871	386.19
411.316	273.84
411.76	341.72
412.205	414.27
412.649	315.97
413.093	367.46
413.538	320.65
413.982	301.93
414.426	344.06
414.87	327.68
415.314	381.51
415.758	362.78
416.202	376.83
416.646	299.59
417.09	322.99
417.534	346.4
417.978	355.76
418.421	320.65
418.865	341.72
419.309	348.74
419.752	383.85
420.196	355.76
420.639	433
421.083	325.33
421.526	372.15
421.969	327.68
422.412	313.63
422.856	344.06
423.299	402.57
423.742	379.17
424.185	388.53
424.628	376.83
425.071	304.27
425.513	374.49
425.956	395.55
426.399	418.96
426.842	358.1
427.284	358.1
427.727	374.49
428.169	297.25
428.612	341.72
429.054	395.55
429.497	330.02
429.939	379.17
430.381	393.21
430.823	372.15
431.265	325.33
431.707	367.46
432.149	376.83
432.591	440.02
433.033	430.66
433.475	421.3
433.917	386.19
434.359	461.09
434.8	421.3
435.242	500.87
435.684	477.47
436.125	554.71
436.567	489.17
437.008	440.02
437.449	447.04
437.891	416.62
438.332	493.85
438.773	461.09
439.214	388.53
439.656	477.47
440.097	442.36
440.538	482.15
440.978	498.53
441.419	451.72
441.86	435.34
442.301	475.13
442.742	498.53
443.182	461.09
443.623	498.53
444.063	423.64
444.504	440.02
444.944	456.4
445.385	507.9
445.825	433
446.265	484.49
446.706	486.83
447.146	491.51
447.586	503.22
448.026	493.85
448.466	557.05
448.906	533.64
449.346	512.58
449.786	449.38
450.225	449.38
450.665	404.91
451.105	440.02
451.544	505.56
451.984	435.34
452.424	477.47
452.863	465.77
453.302	491.51
453.742	458.75
454.181	470.45
454.62	435.34
455.059	486.83
455.499	423.64
455.938	411.93
456.377	386.19
456.816	447.04
457.254	402.57
457.693	465.77
458.132	440.02
458.571	456.4
459.01	440.02
459.448	444.7
459.887	402.57
460.325	416.62
460.764	383.85
461.202	383.85
461.641	447.04
462.079	393.21
462.517	362.78
462.955	421.3
463.393	411.93
463.832	416.62
464.27	411.93
464.708	393.21
465.145	383.85
465.583	416.62
466.021	348.74
466.459	435.34
466.897	374.49
467.334	379.17
467.772	362.78
468.209	428.32
468.647	400.23
469.084	416.62
469.522	353.42
469.959	369.8
470.396	313.63
470.833	402.57
471.271	433
471.708	383.85
472.145	362.78
472.582	306.61
473.019	383.85
473.456	376.83
473.892	421.3
474.329	374.49
474.766	435.34
475.202	351.08
475.639	358.1
476.076	332.36
476.512	322.99
476.949	315.97
477.385	339.38
477.821	390.87
478.258	320.65
478.694	339.38
479.13	280.86
479.566	395.55
480.002	393.21
480.438	344.06
480.874	400.23
481.31	369.8
481.746	400.23
482.181	379.17
482.617	383.85
483.053	416.62
483.488	437.68
483.924	440.02
484.36	437.68
484.795	435.34
485.23	461.09
485.666	430.66
486.101	440.02
486.536	425.98
486.971	447.04
487.407	433
487.842	425.98
488.277	421.3
488.712	372.15
489.146	421.3
489.581	451.72
490.016	475.13
490.451	472.79
490.885	425.98
491.32	421.3
491.755	376.83
492.189	425.98
492.624	461.09
493.058	442.36
493.492	411.93
493.927	404.91
494.361	433
494.795	451.72
495.229	428.32
495.663	379.17
496.097	390.87
496.531	362.78
496.965	339.38
497.399	383.85
497.833	353.42
498.266	425.98
498.7	416.62
499.134	348.74
499.567	477.47
500.001	369.8
500.434	400.23
500.868	400.23
501.301	418.96
501.734	411.93
502.168	395.55
502.601	402.57
503.034	322.99
503.467	430.66
503.9	449.38
504.333	386.19
504.766	416.62
505.199	418.96
505.632	397.89
506.064	337.04
506.497	400.23
506.93	447.04
507.362	440.02
507.795	372.15
508.227	407.25
508.66	369.8
509.092	397.89
509.524	421.3
509.956	463.43
510.389	353.42
510.821	442.36
511.253	381.51
511.685	379.17
512.117	400.23
512.549	388.53
512.981	367.46
513.412	477.47
513.844	437.68
514.276	397.89
514.707	437.68
515.139	447.04
515.571	407.25
516.002	449.38
516.433	451.72
516.865	421.3
517.296	383.85
517.727	367.46
518.159	435.34
518.59	404.91
519.021	435.34
519.452	355.76
519.883	423.64
520.314	414.27
520.744	423.64
521.175	386.19
521.606	454.06
522.037	414.27
522.467	390.87
522.898	390.87
523.328	442.36
523.759	409.59
524.189	381.51
524.62	393.21
525.05	402.57
525.48	418.96
525.91	435.34
526.341	407.25
526.771	477.47
527.201	393.21
527.631	397.89
528.061	451.72
528.49	409.59
528.92	397.89
529.35	468.11
529.78	437.68
530.209	376.83
530.639	421.3
531.068	418.96
531.498	374.49
531.927	407.25
532.357	414.27
532.786	421.3
533.215	477.47
533.644	393.21
534.074	442.36
534.503	409.59
534.932	430.66
535.361	407.25
535.79	435.34
536.218	493.85
536.647	444.7
537.076	355.76
537.505	423.64
537.933	428.32
538.362	552.37
538.79	442.36
539.219	458.75
539.647	503.22
540.076	543
540.504	514.92
540.932	489.17
541.36	622.58
541.788	631.94
542.217	730.25
542.645	678.76
543.073	685.78
543.5	657.69
543.928	718.54
544.356	692.8
544.784	718.54
545.211	807.48
545.639	718.54
546.067	739.61
546.494	688.12
546.922	575.77
547.349	629.6
547.776	552.37
548.204	505.56
548.631	475.13
549.058	531.3
549.485	517.26
549.912	449.38
550.339	510.24
550.766	510.24
551.193	425.98
551.62	479.81
552.047	496.19
552.474	503.22
552.9	479.81
553.327	507.9
553.754	451.72
554.18	416.62
554.607	435.34
555.033	418.96
555.459	475.13
555.886	381.51
556.312	470.45
556.738	442.36
557.164	463.43
557.59	425.98
558.016	463.43
558.442	437.68
558.868	433
559.294	372.15
559.72	376.83
560.145	437.68
560.571	463.43
560.997	447.04
561.422	454.06
561.848	376.83
562.273	430.66
562.699	433
563.124	435.34
563.549	400.23
563.974	418.96
564.4	379.17
564.825	451.72
565.25	442.36
565.675	444.7
566.1	351.08
566.525	414.27
566.95	456.4
567.374	437.68
567.799	386.19
568.224	456.4
568.648	442.36
569.073	379.17
569.497	351.08
569.922	376.83
570.346	416.62
570.771	433
571.195	362.78
571.619	381.51
572.043	400.23
572.467	456.4
572.891	437.68
573.315	369.8
573.739	411.93
574.163	397.89
574.587	407.25
575.011	411.93
575.435	456.4
575.858	458.75
576.282	451.72
576.705	433
577.129	421.3
577.552	365.12
577.976	407.25
578.399	437.68
578.822	442.36
579.245	440.02
579.669	458.75
580.092	437.68
580.515	454.06
580.938	470.45
581.361	435.34
581.784	477.47
582.206	468.11
582.629	489.17
583.052	437.68
583.474	526.62
583.897	449.38
584.32	514.92
584.742	498.53
585.165	416.62
585.587	461.09
586.009	444.7
586.431	440.02
586.854	414.27
587.276	418.96
587.698	493.85
588.12	479.81
588.542	435.34
588.964	437.68
589.386	407.25
589.807	416.62
590.229	395.55
590.651	358.1
591.073	463.43
591.494	404.91
591.916	456.4
592.337	437.68
592.759	404.91
593.18	423.64
593.601	409.59
594.022	430.66
594.444	397.89
594.865	414.27
595.286	418.96
595.707	369.8
596.128	393.21
596.549	414.27
596.97	447.04
597.39	440.02
597.811	414.27
598.232	496.19
598.652	409.59
599.073	411.93
599.494	416.62
599.914	400.23
600.334	402.57
600.755	411.93
601.175	407.25
601.595	395.55
602.015	355.76
602.436	285.55
602.856	524.28
603.276	376.83
603.696	362.78
604.115	425.98
604.535	362.78
604.955	440.02
605.375	414.27
605.794	407.25
606.214	404.91
606.634	393.21
607.053	421.3
607.473	409.59
607.892	372.15
608.311	423.64
608.731	416.62
609.15	477.47
609.569	533.64
609.988	594.5
610.407	732.59
610.826	779.4
611.245	758.33
611.664	833.23
612.083	676.41
612.501	676.41
612.92	657.69
613.339	622.58
613.757	538.32
614.176	484.49
614.594	512.58
615.013	507.9
615.431	498.53
615.85	423.64
616.268	435.34
616.686	425.98
617.104	428.32
617.522	433
617.94	433
618.358	428.32
618.776	339.38
619.194	449.38
619.612	451.72
620.03	423.64
620.447	454.06
620.865	311.29
621.282	468.11
621.7	414.27
622.117	433
622.535	465.77
622.952	390.87
623.369	397.89
623.787	451.72
624.204	390.87
624.621	397.89
625.038	388.53
625.455	409.59
625.872	400.23
626.289	360.44
626.706	372.15
627.123	381.51
627.539	346.4
627.956	365.12
628.373	339.38
628.789	369.8
629.206	402.57
629.622	351.08
630.038	393.21
630.455	386.19
630.871	372.15
631.287	365.12
631.703	381.51
632.12	341.72
632.536	372.15
632.952	351.08
633.368	440.02
633.783	327.68
634.199	409.59
634.615	308.95
635.031	367.46
635.446	346.4
635.862	411.93
636.277	393.21
636.693	407.25
637.108	372.15
637.524	369.8
637.939	341.72
638.354	393.21
638.77	362.78
639.185	388.53
639.6	395.55
640.015	320.65
640.43	402.57
640.845	313.63
641.259	386.19
641.674	297.25
642.089	414.27
642.504	294.91
642.918	400.23
643.333	414.27
643.747	365.12
644.162	339.38
644.576	334.7
644.991	318.31
645.405	339.38
645.819	369.8
646.233	334.7
646.647	304.27
647.061	318.31
647.475	418.96
647.889	330.02
648.303	337.04
648.717	404.91
649.131	313.63
649.545	351.08
649.958	259.8
650.372	337.04
650.785	297.25
651.199	362.78
651.612	353.42
652.026	374.49
652.439	346.4
652.852	322.99
653.266	351.08
653.679	322.99
654.092	355.76
654.505	327.68
654.918	292.57
655.331	372.15
655.744	353.42
656.156	313.63
656.569	271.5
656.982	344.06
657.394	308.95
657.807	360.44
658.22	278.52
658.632	369.8
659.044	304.27
659.457	369.8
659.869	330.02
660.281	365.12
660.693	353.42
661.106	372.15
661.518	353.42
661.93	358.1
662.342	369.8
662.754	294.91
663.165	369.8
663.577	407.25
663.989	325.33
664.401	372.15
664.812	287.89
665.224	437.68
665.635	362.78
666.047	308.95
666.458	379.17
666.869	304.27
667.281	430.66
667.692	369.8
668.103	393.21
668.514	330.02
668.925	287.89
669.336	332.36
669.747	320.65
670.158	407.25
670.569	325.33
670.979	435.34
671.39	320.65
671.801	386.19
672.211	315.97
672.622	308.95
673.032	320.65
673.443	301.93
673.853	320.65
674.263	365.12
674.674	374.49
675.084	362.78
675.494	311.29
675.904	320.65
676.314	327.68
676.724	337.04
677.134	276.18
677.544	339.38
677.953	358.1
678.363	332.36
678.773	393.21
679.182	320.65
679.592	367.46
680.001	353.42
680.411	381.51
680.82	322.99
681.23	311.29
681.639	376.83
682.048	346.4
682.457	332.36
682.866	330.02
683.275	320.65
683.684	348.74
684.093	276.18
684.502	348.74
684.911	376.83
685.32	372.15
685.728	348.74
686.137	269.16
686.546	301.93
686.954	348.74
687.363	365.12
687.771	301.93
688.179	421.3
688.588	381.51
688.996	362.78
689.404	341.72
689.812	372.15
690.22	351.08
690.628	304.27
691.036	322.99
691.444	381.51
691.852	337.04
692.26	330.02
692.667	325.33
693.075	353.42
693.483	346.4
693.89	327.68
694.298	367.46
694.705	355.76
695.112	379.17
695.52	294.91
695.927	327.68
696.334	325.33
696.741	365.12
697.148	283.2
697.555	306.61
697.962	341.72
698.369	313.63
698.776	365.12
699.183	395.55
699.59	337.04
699.996	292.57
700.403	348.74
700.81	294.91
701.216	306.61
701.623	280.86
702.029	353.42
702.435	376.83
702.842	297.25
703.248	388.53
703.654	299.59
704.06	341.72
704.466	353.42
704.872	365.12
705.278	320.65
705.684	332.36
706.09	339.38
706.496	337.04
706.901	388.53
707.307	353.42
707.712	390.87
708.118	381.51
708.523	351.08
708.929	395.55
709.334	337.04
709.74	360.44
710.145	313.63
710.55	348.74
710.955	339.38
711.36	332.36
711.765	362.78
712.17	395.55
712.575	348.74
712.98	976
713.385	376.83
713.789	318.31
714.194	306.61
714.599	348.74
715.003	273.84
715.408	320.65
715.812	383.85
716.217	360.44
716.621	344.06
717.025	376.83
717.429	255.12
717.833	416.62
718.238	344.06
718.642	411.93
719.046	362.78
719.449	376.83
719.853	344.06
720.257	280.86
720.661	285.55
721.065	337.04
721.468	269.16
721.872	322.99
722.275	308.95
722.679	320.65
723.082	351.08
723.485	318.31
723.889	264.48
724.292	379.17
724.695	320.65
725.098	306.61
725.501	388.53
725.904	273.84
726.307	362.78
726.71	311.29
727.113	351.08
727.516	358.1
727.918	292.57
728.321	360.44
728.724	297.25
729.126	325.33
729.529	297.25
729.931	381.51
730.333	334.7
730.736	299.59
731.138	327.68
731.54	369.8
731.942	327.68
732.344	355.76
732.746	271.5
733.148	337.04
733.55	367.46
733.952	294.91
734.354	346.4
734.756	271.5
735.157	327.68
735.559	287.89
735.96	297.25
736.362	322.99
736.763	337.04
737.165	337.04
737.566	407.25
737.967	388.53
738.368	339.38
738.77	327.68
739.171	280.86
739.572	297.25
739.973	344.06
740.374	292.57
740.774	299.59
741.175	393.21
741.576	220.01
741.977	299.59
742.377	339.38
742.778	360.44
743.178	337.04
743.579	292.57
743.979	332.36
744.379	334.7
744.78	362.78
745.18	304.27
745.58	353.42
745.98	315.97
746.38	308.95
746.78	360.44
747.18	273.84
747.58	294.91
747.98	351.08
748.38	351.08
748.779	344.06
749.179	301.93
749.578	353.42
749.978	306.61
750.377	278.52
750.777	337.04
751.176	330.02
751.575	421.3
751.975	327.68
752.374	402.57
752.773	290.23
753.172	325.33
753.571	313.63
753.97	337.04
754.369	318.31
754.768	318.31
755.166	341.72
755.565	339.38
755.964	266.82
756.362	416.62
756.761	318.31
757.159	315.97
757.558	311.29
757.956	334.7
758.354	367.46
758.753	346.4
759.151	276.18
759.549	315.97
759.947	332.36
760.345	353.42
760.743	308.95
761.141	339.38
761.539	252.78
761.936	287.89
762.334	332.36
762.732	430.66
763.129	315.97
763.527	369.8
763.924	388.53
764.322	358.1
764.719	369.8
765.117	365.12
765.514	330.02
765.911	358.1
766.308	325.33
766.705	372.15
767.102	379.17
767.499	320.65
767.896	395.55
768.293	322.99
768.69	322.99
769.086	301.93
769.483	315.97
769.88	381.51
770.276	344.06
770.673	325.33
771.069	390.87
771.466	271.5
771.862	365.12
772.258	337.04
772.654	294.91
773.05	369.8
773.447	318.31
773.843	360.44
774.239	337.04
774.634	315.97
775.03	353.42
775.426	360.44
775.822	334.7
776.218	313.63
776.613	322.99
777.009	355.76
777.404	353.42
777.8	271.5
778.195	292.57
778.59	320.65
778.986	304.27
779.381	290.23
779.776	346.4
780.171	344.06
780.566	353.42
780.961	269.16
781.356	388.53
781.751	332.36
782.146	355.76
782.54	318.31
782.935	369.8
783.33	278.52
783.724	245.76
784.119	285.55
784.513	308.95
784.908	292.57
785.302	318.31
785.696	334.7
786.09	320.65
786.485	332.36
786.879	330.02
787.273	332.36
787.667	313.63
788.061	330.02
788.454	376.83
788.848	273.84
789.242	334.7
789.636	287.89
790.029	339.38
790.423	348.74
790.816	334.7
791.21	351.08
791.603	318.31
791.997	306.61
792.39	320.65
792.783	318.31
793.176	306.61
793.569	337.04
793.962	285.55
794.355	334.7
794.748	327.68
795.141	313.63
795.534	304.27
795.927	306.61
796.319	299.59
796.712	299.59
797.105	306.61
797.497	344.06
797.89	322.99
798.282	294.91
798.674	308.95
799.067	238.73
799.459	271.5
799.851	325.33
800.243	273.84
800.635	337.04
801.027	344.06
801.419	308.95
801.811	346.4
802.203	339.38
802.594	313.63
802.986	299.59
803.378	374.49
803.769	337.04
804.161	311.29
804.552	259.8
804.944	332.36
805.335	379.17
805.726	374.49
806.118	325.33
806.509	322.99
806.9	348.74
807.291	278.52
807.682	337.04
808.073	351.08
808.464	334.7
808.855	315.97
809.245	337.04
809.636	355.76
810.027	301.93
810.417	327.68
810.808	294.91
811.198	341.72
811.589	393.21
811.979	386.19
812.369	322.99
812.759	330.02
813.15	306.61
813.54	276.18
813.93	325.33
814.32	278.52
814.71	311.29
815.1	327.68
815.489	311.29
815.879	318.31
816.269	332.36
816.658	315.97
817.048	346.4
817.438	315.97
817.827	332.36
818.216	306.61
818.606	351.08
818.995	290.23
819.384	341.72
819.773	315.97
820.163	308.95
820.552	362.78
820.941	271.5
821.33	395.55
821.718	369.8
822.107	355.76
822.496	360.44
822.885	299.59
823.273	306.61
823.662	287.89
824.05	322.99
824.439	358.1
824.827	360.44
825.216	276.18
825.604	355.76
825.992	283.2
826.38	414.27
826.768	334.7
827.156	311.29
827.544	369.8
827.932	339.38
828.32	320.65
828.708	337.04
829.096	330.02
829.483	372.15
829.871	367.46
830.259	283.2
830.646	318.31
831.034	353.42
831.421	276.18
831.808	344.06
832.196	320.65
832.583	351.08
832.97	276.18
833.357	264.48
833.744	290.23
834.131	301.93
834.518	306.61
834.905	278.52
835.292	306.61
835.678	374.49
836.065	334.7
836.452	379.17
836.838	318.31
837.225	304.27
837.611	308.95
837.998	360.44
838.384	348.74
838.77	355.76
839.157	269.16
839.543	351.08
839.929	353.42
840.315	334.7
840.701	285.55
841.087	280.86
841.473	236.39
841.858	327.68
842.244	369.8
842.63	325.33
843.015	276.18
843.401	671.73
843.787	304.27
844.172	353.42
844.557	327.68
844.943	386.19
845.328	346.4
845.713	311.29
846.098	360.44
846.483	294.91
846.868	325.33
847.253	327.68
847.638	348.74
848.023	231.71
848.408	306.61
848.793	346.4
849.177	374.49
849.562	344.06
849.947	304.27
850.331	266.82
850.715	322.99
851.1	257.46
851.484	332.36
851.868	301.93
852.253	255.12
852.637	395.55
853.021	297.25
853.405	344.06
853.789	325.33
854.173	386.19
854.557	315.97
854.94	285.55
855.324	397.89
855.708	341.72
856.091	372.15
856.475	318.31
856.858	278.52
857.242	292.57
857.625	344.06
858.009	318.31
858.392	369.8
858.775	332.36
859.158	330.02
859.541	355.76
859.924	318.31
860.307	297.25
860.69	287.89
861.073	297.25
861.456	313.63
861.838	332.36
862.221	266.82
862.604	332.36
862.986	346.4
863.369	386.19
863.751	334.7
864.133	330.02
864.516	273.84
864.898	313.63
865.28	311.29
865.662	294.91
866.044	315.97
866.426	306.61
866.808	297.25
867.19	264.48
867.572	339.38
867.954	257.46
868.336	341.72
868.717	341.72
869.099	325.33
869.48	287.89
869.862	227.03
870.243	227.03
870.625	330.02
871.006	308.95
871.387	351.08
871.768	325.33
872.149	292.57
872.53	330.02
872.911	290.23
873.292	301.93
873.673	280.86
874.054	372.15
874.435	339.38
874.815	313.63
875.196	301.93
875.577	304.27
875.957	304.27
876.338	339.38
876.718	315.97
877.098	353.42
877.479	283.2
877.859	358.1
878.239	344.06
878.619	229.37
878.999	313.63
879.379	292.57
879.759	297.25
880.139	369.8
880.519	330.02
880.898	390.87
881.278	344.06
881.658	308.95
882.037	330.02
882.417	287.89
882.796	337.04
883.176	351.08
883.555	360.44
883.934	315.97
884.313	327.68
884.693	290.23
885.072	348.74
885.451	264.48
885.83	290.23
886.209	294.91
886.587	299.59
886.966	297.25
887.345	362.78
887.724	360.44
888.102	376.83
888.481	308.95
888.859	308.95
889.238	327.68
889.616	311.29
889.994	311.29
890.373	257.46
890.751	327.68
891.129	337.04
891.507	297.25
891.885	330.02
892.263	306.61
892.641	313.63
893.019	341.72
893.396	388.53
893.774	311.29
894.152	299.59
894.529	325.33
894.907	330.02
895.284	297.25
895.662	273.84
896.039	313.63
896.416	304.27
896.794	315.97
897.171	351.08
897.548	330.02
897.925	311.29
898.302	376.83
898.679	351.08
899.056	367.46
899.433	320.65
899.809	311.29
900.186	264.48
900.563	334.7
900.939	358.1
901.316	334.7
901.692	198.95
902.069	325.33
902.445	322.99
902.821	330.02
903.197	327.68
903.574	315.97
903.95	351.08
904.326	390.87
904.702	348.74
905.078	341.72
905.454	318.31
905.829	409.59
906.205	294.91
906.581	203.63
906.956	353.42
907.332	383.85
907.707	327.68
908.083	353.42
908.458	327.68
908.833	322.99
909.209	318.31
909.584	360.44
909.959	369.8
910.334	332.36
910.709	376.83
911.084	243.42
911.459	344.06
911.834	376.83
912.209	287.89
912.583	372.15
912.958	257.46
913.333	299.59
913.707	278.52
914.082	341.72
914.456	318.31
914.83	297.25
915.205	290.23
915.579	285.55
915.953	269.16
916.327	280.86
916.701	280.86
917.075	313.63
917.449	269.16
917.823	322.99
918.197	234.05
918.571	304.27
918.944	297.25
919.318	304.27
919.692	311.29
920.065	346.4
920.438	287.89
920.812	327.68
921.185	287.89
921.558	325.33
921.932	374.49
922.305	280.86
922.678	308.95
923.051	327.68
923.424	341.72
923.797	304.27
924.17	308.95
924.542	337.04
924.915	369.8
925.288	348.74
925.661	325.33
926.033	360.44
926.406	332.36
926.778	320.65
927.15	348.74
927.523	397.89
927.895	334.7
928.267	269.16
928.639	395.55
929.011	264.48
929.383	390.87
929.755	271.5
930.127	327.68
930.499	297.25
930.871	334.7
931.242	318.31
931.614	369.8
931.986	388.53
932.357	234.05
932.729	304.27
933.1	327.68
933.471	339.38
933.843	287.89
934.214	346.4
934.585	362.78
934.956	285.55
935.327	278.52
935.698	337.04
936.069	266.82
936.44	341.72
936.811	315.97
937.182	313.63
937.552	337.04
937.923	301.93
938.293	311.29
938.664	337.04
939.034	344.06
939.405	299.59
939.775	292.57
940.145	330.02
940.516	280.86
940.886	234.05
941.256	332.36
941.626	311.29
941.996	339.38
942.366	355.76
942.735	388.53
943.105	376.83
943.475	325.33
943.845	362.78
944.214	271.5
944.584	339.38
944.953	287.89
945.323	327.68
945.692	313.63
946.061	304.27
946.43	287.89
946.8	318.31
947.169	341.72
947.538	292.57
947.907	339.38
948.276	351.08
948.645	318.31
949.013	376.83
949.382	297.25
949.751	283.2
950.119	376.83
950.488	379.17
950.857	381.51
951.225	346.4
951.593	306.61
951.962	358.1
952.33	358.1
952.698	407.25
953.066	308.95
953.434	327.68
953.802	334.7
954.17	404.91
954.538	353.42
954.906	360.44
955.274	346.4
955.642	369.8
956.009	273.84
956.377	327.68
956.744	367.46
957.112	337.04
957.479	330.02
957.847	292.57
958.214	280.86
958.581	367.46
958.948	294.91
959.315	330.02
959.683	330.02
960.05	332.36
960.416	292.57
960.783	301.93
961.15	301.93
961.517	273.84
961.884	236.39
962.25	339.38
962.617	325.33
962.983	330.02
963.35	348.74
963.716	386.19
964.082	287.89
964.449	383.85
964.815	325.33
965.181	339.38
965.547	339.38
965.913	365.12
966.279	346.4
966.645	327.68
967.011	334.7
967.377	292.57
967.742	299.59
968.108	318.31
968.474	327.68
968.839	299.59
969.205	334.7
969.57	337.04
969.935	252.78
970.301	280.86
970.666	304.27
971.031	327.68
971.396	252.78
971.761	276.18
972.126	351.08
972.491	320.65
972.856	341.72
973.221	332.36
973.586	273.84
973.95	344.06
974.315	292.57
974.679	330.02
975.044	315.97
975.408	301.93
975.773	365.12
976.137	297.25
976.501	367.46
976.866	318.31
977.23	344.06
977.594	318.31
977.958	355.76
978.322	362.78
978.686	304.27
979.049	346.4
979.413	337.04
979.777	365.12
980.141	304.27
980.504	301.93
980.868	383.85
981.231	346.4
981.595	327.68
981.958	348.74
982.321	362.78
982.684	393.21
983.048	280.86
983.411	308.95
983.774	348.74
984.137	346.4
984.5	318.31
984.862	327.68
985.225	393.21
985.588	320.65
985.951	308.95
986.313	234.05
986.676	379.17
987.038	327.68
987.401	315.97
987.763	341.72
988.125	313.63
988.488	283.2
988.85	327.68
989.212	360.44
989.574	367.46
989.936	320.65
990.298	315.97
990.66	299.59
991.022	330.02
991.383	390.87
991.745	283.2
992.107	299.59
992.468	346.4
992.83	320.65
993.191	308.95
993.553	264.48
993.914	355.76
994.275	327.68
994.637	278.52
994.998	262.14
995.359	334.7
995.72	299.59
996.081	322.99
996.442	304.27
996.803	351.08
997.163	346.4
997.524	337.04
997.885	311.29
998.245	320.65
998.606	330.02
998.966	318.31
999.327	280.86
999.687	376.83
1000.047	301.93
1000.408	306.61
1000.768	234.05
1001.128	346.4
1001.488	320.65
1001.848	339.38
1002.208	299.59
1002.568	351.08
1002.927	327.68
1003.287	306.61
1003.647	390.87
1004.007	285.55
1004.366	283.2
1004.726	322.99
1005.085	257.46
1005.444	257.46
1005.804	297.25
1006.163	301.93
1006.522	311.29
1006.881	311.29
1007.24	301.93
1007.599	308.95
1007.958	283.2
1008.317	287.89
1008.676	339.38
1009.035	367.46
1009.393	332.36
1009.752	311.29
1010.111	355.76
1010.469	344.06
1010.828	292.57
1011.186	315.97
1011.544	301.93
1011.903	351.08
1012.261	248.1
1012.619	330.02
1012.977	337.04
1013.335	306.61
1013.693	330.02
1014.051	306.61
1014.409	278.52
1014.767	313.63
1015.124	280.86
1015.482	255.12
1015.84	355.76
1016.197	341.72
1016.555	283.2
1016.912	280.86
1017.269	320.65
1017.627	346.4
1017.984	320.65
1018.341	320.65
1018.698	393.21
1019.055	278.52
1019.412	369.8
1019.769	278.52
1020.126	330.02
1020.483	308.95
1020.84	388.53
1021.196	348.74
1021.553	346.4
1021.909	372.15
1022.266	280.86
1022.622	250.44
1022.979	372.15
1023.335	313.63
1023.691	304.27
1024.047	351.08
1024.404	337.04
1024.76	308.95
1025.116	269.16
1025.472	339.38
1025.827	311.29
1026.183	355.76
1026.539	280.86
1026.895	266.82
1027.25	306.61
1027.606	297.25
1027.961	313.63
1028.317	266.82
1028.672	283.2
1029.028	365.12
1029.383	299.59
1029.738	283.2
1030.093	433
1030.448	287.89
1030.803	383.85
1031.158	322.99
1031.513	311.29
1031.868	348.74
1032.223	332.36
1032.577	322.99
1032.932	301.93
1033.287	367.46
1033.641	292.57
1033.996	325.33
1034.35	330.02
1034.704	269.16
1035.059	297.25
1035.413	297.25
1035.767	297.25
1036.121	297.25
