Data from Al_FLMS009871__608__14-47-56-614.txt Node

Date: Fri Mar 08 14:47:56 CST 2024
User: pe5414po
Spectrometer: FLMS00987
Trigger mode: 0
Integration Time (sec): 1.000000E-1
Scans to average: 1
Electric dark correction enabled: true
Nonlinearity correction enabled: false
Boxcar width: 0
XAxis mode: Wavelengths
Number of Pixels in Spectrum: 2048
>>>>>Begin Spectral Data<<<<<
188.938	-66.27
189.409	-66.27
189.879	-66.27
190.349	-115.42
190.819	-124.78
191.29	-52.22
191.76	-108.4
192.23	-150.53
192.7	-33.5
193.17	-61.59
193.64	57.78
194.109	-26.48
194.579	-0.73
195.049	29.7
195.519	20.33
195.988	-7.75
196.458	39.06
196.927	27.36
197.397	95.23
197.866	76.51
198.336	95.23
198.805	230.98
199.274	219.28
199.744	160.77
200.213	263.75
200.682	193.53
201.151	261.41
201.62	179.49
202.089	188.85
202.558	212.26
203.027	270.77
203.495	280.13
203.964	282.47
204.433	259.07
204.902	359.71
205.37	261.41
205.839	308.22
206.307	273.11
206.776	270.77
207.244	319.92
207.712	233.32
208.181	261.41
208.649	338.65
209.117	322.26
209.585	249.71
210.053	326.94
210.521	266.09
210.989	282.47
211.457	282.47
211.925	289.5
212.393	247.37
212.861	287.15
213.328	291.84
213.796	357.37
214.264	294.18
214.731	249.71
215.199	322.26
215.666	254.39
216.133	249.71
216.601	296.52
217.068	261.41
217.535	291.84
218.003	310.56
218.47	261.41
218.937	261.41
219.404	284.81
219.871	315.24
220.338	226.3
220.805	270.77
221.271	284.81
221.738	282.47
222.205	247.37
222.671	305.88
223.138	191.19
223.605	235.66
224.071	315.24
224.538	273.11
225.004	209.92
225.47	221.62
225.937	277.79
226.403	252.05
226.869	282.47
227.335	301.2
227.801	266.09
228.267	238
228.733	289.5
229.199	226.3
229.665	296.52
230.131	296.52
230.597	329.28
231.062	284.81
231.528	226.3
231.994	223.96
232.459	209.92
232.925	273.11
233.39	333.97
233.856	324.6
234.321	345.67
234.786	333.97
235.252	277.79
235.717	345.67
236.182	275.45
236.647	331.62
237.112	331.62
237.577	238
238.042	378.44
238.507	305.88
238.972	273.11
239.436	287.15
239.901	310.56
240.366	240.34
240.83	270.77
241.295	263.75
241.76	322.26
242.224	245.02
242.688	289.5
243.153	233.32
243.617	277.79
244.081	254.39
244.545	226.3
245.01	336.31
245.474	298.86
245.938	252.05
246.402	263.75
246.866	329.28
247.33	275.45
247.793	317.58
248.257	233.32
248.721	338.65
249.185	315.24
249.648	319.92
250.112	322.26
250.575	284.81
251.039	287.15
251.502	252.05
251.965	310.56
252.429	273.11
252.892	273.11
253.355	331.62
253.818	284.81
254.281	282.47
254.744	319.92
255.207	343.33
255.67	338.65
256.133	319.92
256.596	310.56
257.059	319.92
257.522	303.54
257.984	301.2
258.447	310.56
258.909	324.6
259.372	296.52
259.834	329.28
260.297	287.15
260.759	263.75
261.221	266.09
261.684	350.35
262.146	259.07
262.608	294.18
263.07	254.39
263.532	315.24
263.994	296.52
264.456	298.86
264.918	268.43
265.38	329.28
265.842	280.13
266.303	261.41
266.765	350.35
267.227	261.41
267.688	324.6
268.15	308.22
268.611	242.68
269.072	348.01
269.534	284.81
269.995	242.68
270.456	317.58
270.918	369.07
271.379	305.88
271.84	282.47
272.301	238
272.762	317.58
273.223	230.98
273.684	280.13
274.144	273.11
274.605	301.2
275.066	298.86
275.527	256.73
275.987	270.77
276.448	305.88
276.908	315.24
277.369	233.32
277.829	287.15
278.289	322.26
278.75	298.86
279.21	322.26
279.67	294.18
280.13	289.5
280.59	319.92
281.05	317.58
281.51	249.71
281.97	348.01
282.43	355.03
282.89	315.24
283.35	294.18
283.809	359.71
284.269	301.2
284.729	303.54
285.188	345.67
285.648	268.43
286.107	357.37
286.567	352.69
287.026	319.92
287.485	280.13
287.944	317.58
288.404	263.75
288.863	336.31
289.322	348.01
289.781	252.05
290.24	298.86
290.699	371.41
291.158	303.54
291.616	390.14
292.075	298.86
292.534	308.22
292.992	298.86
293.451	333.97
293.91	340.99
294.368	294.18
294.827	308.22
295.285	312.9
295.743	312.9
296.202	390.14
296.66	315.24
297.118	266.09
297.576	338.65
298.034	305.88
298.492	355.03
298.95	317.58
299.408	273.11
299.866	319.92
300.324	326.94
300.781	275.45
301.239	322.26
301.697	259.07
302.154	362.05
302.612	340.99
303.069	296.52
303.527	240.34
303.984	275.45
304.441	294.18
304.899	315.24
305.356	364.39
305.813	261.41
306.27	259.07
306.727	301.2
307.184	289.5
307.641	331.62
308.098	373.75
308.555	247.37
309.012	263.75
309.468	312.9
309.925	273.11
310.382	298.86
310.838	268.43
311.295	343.33
311.751	324.6
312.208	329.28
312.664	280.13
313.12	317.58
313.577	261.41
314.033	289.5
314.489	319.92
314.945	308.22
315.401	294.18
315.857	331.62
316.313	317.58
316.769	357.37
317.225	308.22
317.681	376.09
318.136	245.02
318.592	294.18
319.048	333.97
319.503	284.81
319.959	249.71
320.414	273.11
320.869	301.2
321.325	312.9
321.78	362.05
322.235	378.44
322.691	390.14
323.146	362.05
323.601	348.01
324.056	336.31
324.511	291.84
324.966	326.94
325.421	312.9
325.875	230.98
326.33	336.31
326.785	249.71
327.24	322.26
327.694	226.3
328.149	308.22
328.603	266.09
329.058	303.54
329.512	324.6
329.966	338.65
330.421	303.54
330.875	315.24
331.329	263.75
331.783	425.25
332.237	380.78
332.691	376.09
333.145	289.5
333.599	259.07
334.053	315.24
334.507	294.18
334.96	385.46
335.414	322.26
335.868	275.45
336.321	317.58
336.775	301.2
337.228	273.11
337.682	291.84
338.135	305.88
338.588	242.68
339.042	352.69
339.495	287.15
339.948	333.97
340.401	317.58
340.854	270.77
341.307	280.13
341.76	308.22
342.213	326.94
342.666	355.03
343.119	378.44
343.571	280.13
344.024	294.18
344.477	331.62
344.929	331.62
345.382	348.01
345.834	336.31
346.287	357.37
346.739	352.69
347.191	352.69
347.644	319.92
348.096	369.07
348.548	254.39
349	322.26
349.452	317.58
349.904	333.97
350.356	324.6
350.808	408.86
351.26	333.97
351.711	355.03
352.163	308.22
352.615	298.86
353.066	331.62
353.518	336.31
353.969	340.99
354.421	308.22
354.872	247.37
355.324	315.24
355.775	275.45
356.226	324.6
356.677	350.35
357.128	296.52
357.579	280.13
358.03	338.65
358.481	322.26
358.932	240.34
359.383	350.35
359.834	359.71
360.285	441.63
360.735	343.33
361.186	317.58
361.637	277.79
362.087	333.97
362.538	352.69
362.988	425.25
363.438	336.31
363.889	331.62
364.339	369.07
364.789	275.45
365.239	385.46
365.689	266.09
366.139	301.2
366.589	366.73
367.039	357.37
367.489	268.43
367.939	343.33
368.389	310.56
368.839	305.88
369.288	277.79
369.738	280.13
370.187	322.26
370.637	319.92
371.086	303.54
371.536	275.45
371.985	326.94
372.434	343.33
372.884	329.28
373.333	296.52
373.782	263.75
374.231	308.22
374.68	331.62
375.129	324.6
375.578	355.03
376.027	249.71
376.475	270.77
376.924	296.52
377.373	322.26
377.822	378.44
378.27	308.22
378.719	355.03
379.167	214.6
379.616	329.28
380.064	273.11
380.512	322.26
380.961	340.99
381.409	326.94
381.857	273.11
382.305	310.56
382.753	324.6
383.201	352.69
383.649	331.62
384.097	348.01
384.545	329.28
384.992	294.18
385.44	336.31
385.888	348.01
386.335	305.88
386.783	324.6
387.231	376.09
387.678	340.99
388.125	333.97
388.573	340.99
389.02	275.45
389.467	301.2
389.914	254.39
390.362	294.18
390.809	305.88
391.256	338.65
391.703	315.24
392.15	371.41
392.596	296.52
393.043	340.99
393.49	277.79
393.937	378.44
394.383	266.09
394.83	355.03
395.276	376.09
395.723	373.75
396.169	319.92
396.616	343.33
397.062	326.94
397.508	385.46
397.954	383.12
398.401	352.69
398.847	317.58
399.293	331.62
399.739	305.88
400.185	364.39
400.631	284.81
401.076	298.86
401.522	385.46
401.968	233.32
402.414	322.26
402.859	282.47
403.305	336.31
403.75	291.84
404.196	298.86
404.641	296.52
405.086	362.05
405.532	322.26
405.977	385.46
406.422	387.8
406.867	336.31
407.312	317.58
407.757	315.24
408.202	333.97
408.647	310.56
409.092	350.35
409.537	326.94
409.982	373.75
410.426	252.05
410.871	296.52
411.316	310.56
411.76	369.07
412.205	331.62
412.649	308.22
413.093	298.86
413.538	371.41
413.982	291.84
414.426	352.69
414.87	350.35
415.314	331.62
415.758	312.9
416.202	319.92
416.646	312.9
417.09	338.65
417.534	291.84
417.978	315.24
418.421	263.75
418.865	357.37
419.309	427.59
419.752	310.56
420.196	331.62
420.639	315.24
421.083	329.28
421.526	266.09
421.969	319.92
422.412	319.92
422.856	331.62
423.299	319.92
423.742	348.01
424.185	371.41
424.628	254.39
425.071	287.15
425.513	245.02
425.956	333.97
426.399	336.31
426.842	343.33
427.284	355.03
427.727	282.47
428.169	345.67
428.612	336.31
429.054	326.94
429.497	392.48
429.939	287.15
430.381	383.12
430.823	326.94
431.265	355.03
431.707	303.54
432.149	345.67
432.591	317.58
433.033	401.84
433.475	326.94
433.917	254.39
434.359	242.68
434.8	378.44
435.242	369.07
435.684	331.62
436.125	380.78
436.567	331.62
437.008	333.97
437.449	310.56
437.891	268.43
438.332	280.13
438.773	348.01
439.214	308.22
439.656	343.33
440.097	345.67
440.538	345.67
440.978	343.33
441.419	294.18
441.86	383.12
442.301	355.03
442.742	359.71
443.182	317.58
443.623	348.01
444.063	317.58
444.504	312.9
444.944	390.14
445.385	322.26
445.825	282.47
446.265	336.31
446.706	310.56
447.146	331.62
447.586	348.01
448.026	362.05
448.466	345.67
448.906	305.88
449.346	305.88
449.786	338.65
450.225	326.94
450.665	280.13
451.105	303.54
451.544	326.94
451.984	315.24
452.424	308.22
452.863	336.31
453.302	376.09
453.742	322.26
454.181	312.9
454.62	322.26
455.059	322.26
455.499	315.24
455.938	380.78
456.377	343.33
456.816	268.43
457.254	376.09
457.693	378.44
458.132	406.52
458.571	303.54
459.01	326.94
459.448	348.01
459.887	287.15
460.325	333.97
460.764	352.69
461.202	298.86
461.641	305.88
462.079	369.07
462.517	289.5
462.955	312.9
463.393	284.81
463.832	340.99
464.27	315.24
464.708	326.94
465.145	301.2
465.583	348.01
466.021	348.01
466.459	261.41
466.897	331.62
467.334	291.84
467.772	338.65
468.209	315.24
468.647	322.26
469.084	305.88
469.522	385.46
469.959	343.33
470.396	359.71
470.833	296.52
471.271	289.5
471.708	338.65
472.145	308.22
472.582	366.73
473.019	355.03
473.456	350.35
473.892	319.92
474.329	312.9
474.766	324.6
475.202	340.99
475.639	319.92
476.076	357.37
476.512	362.05
476.949	336.31
477.385	319.92
477.821	301.2
478.258	343.33
478.694	378.44
479.13	284.81
479.566	310.56
480.002	329.28
480.438	331.62
480.874	343.33
481.31	343.33
481.746	296.52
482.181	301.2
482.617	310.56
483.053	350.35
483.488	373.75
483.924	359.71
484.36	291.84
484.795	324.6
485.23	277.79
485.666	303.54
486.101	319.92
486.536	348.01
486.971	364.39
487.407	387.8
487.842	324.6
488.277	333.97
488.712	362.05
489.146	275.45
489.581	352.69
490.016	336.31
490.451	340.99
490.885	340.99
491.32	319.92
491.755	303.54
492.189	256.73
492.624	348.01
493.058	263.75
493.492	324.6
493.927	343.33
494.361	287.15
494.795	357.37
495.229	315.24
495.663	322.26
496.097	340.99
496.531	331.62
496.965	371.41
497.399	284.81
497.833	315.24
498.266	357.37
498.7	357.37
499.134	317.58
499.567	315.24
500.001	336.31
500.434	329.28
500.868	348.01
501.301	289.5
501.734	308.22
502.168	373.75
502.601	296.52
503.034	357.37
503.467	340.99
503.9	340.99
504.333	284.81
504.766	345.67
505.199	329.28
505.632	371.41
506.064	348.01
506.497	310.56
506.93	364.39
507.362	348.01
507.795	294.18
508.227	343.33
508.66	296.52
509.092	312.9
509.524	348.01
509.956	357.37
510.389	312.9
510.821	383.12
511.253	357.37
511.685	301.2
512.117	352.69
512.549	254.39
512.981	312.9
513.412	319.92
513.844	324.6
514.276	378.44
514.707	268.43
515.139	319.92
515.571	319.92
516.002	289.5
516.433	305.88
516.865	289.5
517.296	343.33
517.727	324.6
518.159	387.8
518.59	317.58
519.021	350.35
519.452	331.62
519.883	317.58
520.314	329.28
520.744	355.03
521.175	305.88
521.606	296.52
522.037	383.12
522.467	352.69
522.898	312.9
523.328	294.18
523.759	355.03
524.189	294.18
524.62	322.26
525.05	343.33
525.48	343.33
525.91	266.09
526.341	357.37
526.771	305.88
527.201	345.67
527.631	284.81
528.061	333.97
528.49	348.01
528.92	373.75
529.35	298.86
529.78	333.97
530.209	284.81
530.639	315.24
531.068	331.62
531.498	308.22
531.927	298.86
532.357	291.84
532.786	359.71
533.215	315.24
533.644	336.31
534.074	214.6
534.503	333.97
534.932	310.56
535.361	345.67
535.79	350.35
536.218	364.39
536.647	294.18
537.076	315.24
537.505	336.31
537.933	301.2
538.362	359.71
538.79	343.33
539.219	415.88
539.647	369.07
540.076	315.24
540.504	385.46
540.932	378.44
541.36	352.69
541.788	296.52
542.217	312.9
542.645	287.15
543.073	329.28
543.5	275.45
543.928	326.94
544.356	263.75
544.784	317.58
545.211	329.28
545.639	338.65
546.067	247.37
546.494	376.09
546.922	298.86
547.349	296.52
547.776	338.65
548.204	333.97
548.631	333.97
549.058	280.13
549.485	326.94
549.912	343.33
550.339	298.86
550.766	298.86
551.193	350.35
551.62	336.31
552.047	373.75
552.474	303.54
552.9	317.58
553.327	296.52
553.754	345.67
554.18	312.9
554.607	357.37
555.033	308.22
555.459	340.99
555.886	373.75
556.312	376.09
556.738	301.2
557.164	270.77
557.59	362.05
558.016	326.94
558.442	329.28
558.868	305.88
559.294	364.39
559.72	336.31
560.145	355.03
560.571	348.01
560.997	326.94
561.422	308.22
561.848	326.94
562.273	261.41
562.699	305.88
563.124	303.54
563.549	331.62
563.974	322.26
564.4	364.39
564.825	355.03
565.25	310.56
565.675	348.01
566.1	352.69
566.525	289.5
566.95	359.71
567.374	338.65
567.799	376.09
568.224	298.86
568.648	317.58
569.073	310.56
569.497	277.79
569.922	338.65
570.346	373.75
570.771	401.84
571.195	319.92
571.619	373.75
572.043	333.97
572.467	322.26
572.891	350.35
573.315	338.65
573.739	312.9
574.163	322.26
574.587	315.24
575.011	329.28
575.435	296.52
575.858	366.73
576.282	296.52
576.705	312.9
577.129	338.65
577.552	331.62
577.976	319.92
578.399	317.58
578.822	324.6
579.245	273.11
579.669	357.37
580.092	315.24
580.515	420.57
580.938	326.94
581.361	343.33
581.784	333.97
582.206	266.09
582.629	350.35
583.052	298.86
583.474	317.58
583.897	322.26
584.32	277.79
584.742	319.92
585.165	359.71
585.587	350.35
586.009	329.28
586.431	326.94
586.854	357.37
587.276	296.52
587.698	348.01
588.12	273.11
588.542	355.03
588.964	338.65
589.386	317.58
589.807	273.11
590.229	404.18
590.651	355.03
591.073	315.24
591.494	303.54
591.916	329.28
592.337	343.33
592.759	294.18
593.18	364.39
593.601	362.05
594.022	301.2
594.444	298.86
594.865	348.01
595.286	289.5
595.707	340.99
596.128	380.78
596.549	303.54
596.97	357.37
597.39	289.5
597.811	287.15
598.232	317.58
598.652	263.75
599.073	301.2
599.494	336.31
599.914	364.39
600.334	331.62
600.755	249.71
601.175	329.28
601.595	289.5
602.015	317.58
602.436	282.47
602.856	420.57
603.276	305.88
603.696	280.13
604.115	322.26
604.535	310.56
604.955	312.9
605.375	266.09
605.794	387.8
606.214	352.69
606.634	343.33
607.053	329.28
607.473	338.65
607.892	348.01
608.311	294.18
608.731	336.31
609.15	301.2
609.569	362.05
609.988	362.05
610.407	319.92
610.826	397.16
611.245	352.69
611.664	411.2
612.083	270.77
612.501	418.22
612.92	385.46
613.339	331.62
613.757	331.62
614.176	266.09
614.594	317.58
615.013	343.33
615.431	366.73
615.85	348.01
616.268	268.43
616.686	369.07
617.104	275.45
617.522	352.69
617.94	385.46
618.358	345.67
618.776	319.92
619.194	277.79
619.612	317.58
620.03	310.56
620.447	289.5
620.865	282.47
621.282	303.54
621.7	308.22
622.117	329.28
622.535	294.18
622.952	357.37
623.369	315.24
623.787	350.35
624.204	310.56
624.621	305.88
625.038	338.65
625.455	364.39
625.872	333.97
626.289	352.69
626.706	261.41
627.123	333.97
627.539	266.09
627.956	312.9
628.373	284.81
628.789	326.94
629.206	355.03
629.622	324.6
630.038	291.84
630.455	268.43
630.871	317.58
631.287	355.03
631.703	317.58
632.12	357.37
632.536	322.26
632.952	270.77
633.368	317.58
633.783	336.31
634.199	315.24
634.615	310.56
635.031	364.39
635.446	322.26
635.862	298.86
636.277	317.58
636.693	348.01
637.108	350.35
637.524	348.01
637.939	303.54
638.354	312.9
638.77	338.65
639.185	310.56
639.6	343.33
640.015	305.88
640.43	338.65
640.845	371.41
641.259	282.47
641.674	322.26
642.089	317.58
642.504	273.11
642.918	322.26
643.333	287.15
643.747	357.37
644.162	355.03
644.576	319.92
644.991	357.37
645.405	345.67
645.819	399.5
646.233	350.35
646.647	291.84
647.061	352.69
647.475	336.31
647.889	298.86
648.303	343.33
648.717	338.65
649.131	312.9
649.545	298.86
649.958	364.39
650.372	266.09
650.785	249.71
651.199	399.5
651.612	289.5
652.026	317.58
652.439	333.97
652.852	317.58
653.266	284.81
653.679	284.81
654.092	392.48
654.505	308.22
654.918	340.99
655.331	287.15
655.744	291.84
656.156	270.77
656.569	340.99
656.982	338.65
657.394	242.68
657.807	301.2
658.22	397.16
658.632	352.69
659.044	366.73
659.457	336.31
659.869	324.6
660.281	333.97
660.693	284.81
661.106	352.69
661.518	317.58
661.93	289.5
662.342	340.99
662.754	348.01
663.165	336.31
663.577	322.26
663.989	252.05
664.401	296.52
664.812	319.92
665.224	322.26
665.635	329.28
666.047	289.5
666.458	326.94
666.869	305.88
667.281	259.07
667.692	287.15
668.103	308.22
668.514	294.18
668.925	326.94
669.336	322.26
669.747	294.18
670.158	411.2
670.569	324.6
670.979	331.62
671.39	310.56
671.801	338.65
672.211	252.05
672.622	336.31
673.032	301.2
673.443	277.79
673.853	324.6
674.263	359.71
674.674	425.25
675.084	338.65
675.494	340.99
675.904	350.35
676.314	315.24
676.724	268.43
677.134	371.41
677.544	338.65
677.953	296.52
678.363	378.44
678.773	383.12
679.182	326.94
679.592	329.28
680.001	336.31
680.411	282.47
680.82	303.54
681.23	294.18
681.639	338.65
682.048	355.03
682.457	371.41
682.866	371.41
683.275	343.33
683.684	301.2
684.093	359.71
684.502	364.39
684.911	261.41
685.32	331.62
685.728	319.92
686.137	329.28
686.546	378.44
686.954	317.58
687.363	301.2
687.771	291.84
688.179	287.15
688.588	287.15
688.996	317.58
689.404	329.28
689.812	324.6
690.22	312.9
690.628	308.22
691.036	322.26
691.444	348.01
691.852	322.26
692.26	333.97
692.667	322.26
693.075	319.92
693.483	390.14
693.89	329.28
694.298	355.03
694.705	329.28
695.112	319.92
695.52	345.67
695.927	329.28
696.334	345.67
696.741	287.15
697.148	324.6
697.555	303.54
697.962	319.92
698.369	322.26
698.776	355.03
699.183	322.26
699.59	357.37
699.996	329.28
700.403	362.05
700.81	284.81
701.216	301.2
701.623	296.52
702.029	277.79
702.435	317.58
702.842	315.24
703.248	291.84
703.654	294.18
704.06	383.12
704.466	326.94
704.872	270.77
705.278	348.01
705.684	352.69
706.09	378.44
706.496	303.54
706.901	322.26
707.307	319.92
707.712	340.99
708.118	362.05
708.523	390.14
708.929	310.56
709.334	338.65
709.74	371.41
710.145	289.5
710.55	308.22
710.955	319.92
711.36	273.11
711.765	355.03
712.17	294.18
712.575	350.35
712.98	792.71
713.385	338.65
713.789	350.35
714.194	301.2
714.599	352.69
715.003	331.62
715.408	249.71
715.812	291.84
716.217	324.6
716.621	364.39
717.025	366.73
717.429	331.62
717.833	259.07
718.238	322.26
718.642	392.48
719.046	338.65
719.449	319.92
719.853	303.54
720.257	310.56
720.661	383.12
721.065	343.33
721.468	296.52
721.872	315.24
722.275	324.6
722.679	289.5
723.082	322.26
723.485	275.45
723.889	355.03
724.292	340.99
724.695	340.99
725.098	348.01
725.501	362.05
725.904	355.03
726.307	319.92
726.71	343.33
727.113	324.6
727.516	322.26
727.918	340.99
728.321	315.24
728.724	350.35
729.126	326.94
729.529	301.2
729.931	338.65
730.333	340.99
730.736	343.33
731.138	326.94
731.54	324.6
731.942	301.2
732.344	291.84
732.746	336.31
733.148	317.58
733.55	261.41
733.952	291.84
734.354	404.18
734.756	284.81
735.157	345.67
735.559	326.94
735.96	324.6
736.362	287.15
736.763	291.84
737.165	289.5
737.566	298.86
737.967	303.54
738.368	359.71
738.77	324.6
739.171	378.44
739.572	294.18
739.973	310.56
740.374	291.84
740.774	378.44
741.175	301.2
741.576	315.24
741.977	273.11
742.377	366.73
742.778	310.56
743.178	329.28
743.579	331.62
743.979	366.73
744.379	338.65
744.78	357.37
745.18	333.97
745.58	310.56
745.98	333.97
746.38	371.41
746.78	324.6
747.18	238
747.58	324.6
747.98	326.94
748.38	261.41
748.779	350.35
749.179	324.6
749.578	308.22
749.978	345.67
750.377	322.26
750.777	324.6
751.176	317.58
751.575	284.81
751.975	345.67
752.374	315.24
752.773	317.58
753.172	345.67
753.571	343.33
753.97	275.45
754.369	317.58
754.768	312.9
755.166	345.67
755.565	294.18
755.964	329.28
756.362	289.5
756.761	315.24
757.159	303.54
757.558	348.01
757.956	324.6
758.354	280.13
758.753	350.35
759.151	310.56
759.549	287.15
759.947	289.5
760.345	308.22
760.743	287.15
761.141	333.97
761.539	303.54
761.936	242.68
762.334	326.94
762.732	322.26
763.129	326.94
763.527	338.65
763.924	322.26
764.322	322.26
764.719	333.97
765.117	308.22
765.514	357.37
765.911	305.88
766.308	329.28
766.705	289.5
767.102	350.35
767.499	324.6
767.896	331.62
768.293	408.86
768.69	294.18
769.086	357.37
769.483	355.03
769.88	352.69
770.276	369.07
770.673	390.14
771.069	296.52
771.466	308.22
771.862	308.22
772.258	254.39
772.654	298.86
773.05	303.54
773.447	331.62
773.843	238
774.239	362.05
774.634	308.22
775.03	329.28
775.426	366.73
775.822	319.92
776.218	369.07
776.613	340.99
777.009	338.65
777.404	319.92
777.8	268.43
778.195	324.6
778.59	263.75
778.986	249.71
779.381	287.15
779.776	233.32
780.171	331.62
780.566	315.24
780.961	340.99
781.356	289.5
781.751	322.26
782.146	305.88
782.54	331.62
782.935	319.92
783.33	340.99
783.724	287.15
784.119	378.44
784.513	329.28
784.908	287.15
785.302	277.79
785.696	252.05
786.09	362.05
786.485	329.28
786.879	284.81
787.273	326.94
787.667	326.94
788.061	298.86
788.454	310.56
788.848	291.84
789.242	355.03
789.636	322.26
790.029	238
790.423	385.46
790.816	329.28
791.21	256.73
791.603	324.6
791.997	301.2
792.39	348.01
792.783	352.69
793.176	296.52
793.569	326.94
793.962	310.56
794.355	282.47
794.748	364.39
795.141	303.54
795.534	331.62
795.927	324.6
796.319	366.73
796.712	350.35
797.105	310.56
797.497	319.92
797.89	364.39
798.282	324.6
798.674	390.14
799.067	310.56
799.459	324.6
799.851	289.5
800.243	387.8
800.635	270.77
801.027	296.52
801.419	308.22
801.811	397.16
802.203	385.46
802.594	312.9
802.986	350.35
803.378	298.86
803.769	324.6
804.161	343.33
804.552	324.6
804.944	315.24
805.335	326.94
805.726	275.45
806.118	289.5
806.509	322.26
806.9	331.62
807.291	350.35
807.682	310.56
808.073	355.03
808.464	287.15
808.855	268.43
809.245	315.24
809.636	399.5
810.027	303.54
810.417	256.73
810.808	369.07
811.198	256.73
811.589	298.86
811.979	329.28
812.369	291.84
812.759	319.92
813.15	380.78
813.54	345.67
813.93	287.15
814.32	329.28
814.71	296.52
815.1	312.9
815.489	336.31
815.879	294.18
816.269	305.88
816.658	340.99
817.048	282.47
817.438	284.81
817.827	315.24
818.216	336.31
818.606	357.37
818.995	348.01
819.384	366.73
819.773	326.94
820.163	303.54
820.552	399.5
820.941	324.6
821.33	291.84
821.718	350.35
822.107	357.37
822.496	312.9
822.885	350.35
823.273	352.69
823.662	319.92
824.05	291.84
824.439	319.92
824.827	348.01
825.216	340.99
825.604	324.6
825.992	263.75
826.38	301.2
826.768	366.73
827.156	296.52
827.544	350.35
827.932	385.46
828.32	348.01
828.708	305.88
829.096	294.18
829.483	352.69
829.871	315.24
830.259	329.28
830.646	294.18
831.034	343.33
831.421	308.22
831.808	303.54
832.196	305.88
832.583	324.6
832.97	294.18
833.357	364.39
833.744	324.6
834.131	340.99
834.518	336.31
834.905	296.52
835.292	275.45
835.678	369.07
836.065	296.52
836.452	345.67
836.838	369.07
837.225	319.92
837.611	362.05
837.998	359.71
838.384	308.22
838.77	390.14
839.157	310.56
839.543	308.22
839.929	254.39
840.315	336.31
840.701	326.94
841.087	324.6
841.473	270.77
841.858	287.15
842.244	308.22
842.63	289.5
843.015	336.31
843.401	551.64
843.787	326.94
844.172	275.45
844.557	373.75
844.943	359.71
845.328	336.31
845.713	340.99
846.098	259.07
846.483	345.67
846.868	301.2
847.253	336.31
847.638	324.6
848.023	298.86
848.408	378.44
848.793	376.09
849.177	308.22
849.562	331.62
849.947	355.03
850.331	315.24
850.715	305.88
851.1	289.5
851.484	296.52
851.868	336.31
852.253	326.94
852.637	266.09
853.021	308.22
853.405	340.99
853.789	359.71
854.173	350.35
854.557	338.65
854.94	326.94
855.324	305.88
855.708	259.07
856.091	305.88
856.475	291.84
856.858	275.45
857.242	294.18
857.625	298.86
858.009	345.67
858.392	291.84
858.775	305.88
859.158	291.84
859.541	355.03
859.924	336.31
860.307	268.43
860.69	280.13
861.073	366.73
861.456	355.03
861.838	350.35
862.221	373.75
862.604	284.81
862.986	352.69
863.369	303.54
863.751	385.46
864.133	359.71
864.516	333.97
864.898	331.62
865.28	357.37
865.662	301.2
866.044	310.56
866.426	266.09
866.808	305.88
867.19	315.24
867.572	329.28
867.954	319.92
868.336	324.6
868.717	303.54
869.099	289.5
869.48	273.11
869.862	343.33
870.243	312.9
870.625	366.73
871.006	294.18
871.387	319.92
871.768	322.26
872.149	315.24
872.53	291.84
872.911	254.39
873.292	315.24
873.673	315.24
874.054	312.9
874.435	259.07
874.815	268.43
875.196	340.99
875.577	294.18
875.957	362.05
876.338	275.45
876.718	308.22
877.098	343.33
877.479	329.28
877.859	303.54
878.239	348.01
878.619	322.26
878.999	345.67
879.379	348.01
879.759	315.24
880.139	333.97
880.519	263.75
880.898	298.86
881.278	333.97
881.658	298.86
882.037	350.35
882.417	324.6
882.796	326.94
883.176	355.03
883.555	345.67
883.934	329.28
884.313	298.86
884.693	233.32
885.072	359.71
885.451	373.75
885.83	390.14
886.209	340.99
886.587	294.18
886.966	287.15
887.345	387.8
887.724	326.94
888.102	282.47
888.481	315.24
888.859	298.86
889.238	333.97
889.616	345.67
889.994	329.28
890.373	331.62
890.751	308.22
891.129	289.5
891.507	294.18
891.885	333.97
892.263	366.73
892.641	355.03
893.019	289.5
893.396	315.24
893.774	326.94
894.152	305.88
894.529	355.03
894.907	350.35
895.284	270.77
895.662	280.13
896.039	284.81
896.416	312.9
896.794	338.65
897.171	308.22
897.548	312.9
897.925	315.24
898.302	282.47
898.679	319.92
899.056	401.84
899.433	404.18
899.809	317.58
900.186	333.97
900.563	245.02
900.939	331.62
901.316	296.52
901.692	294.18
902.069	364.39
902.445	324.6
902.821	277.79
903.197	331.62
903.574	249.71
903.95	270.77
904.326	308.22
904.702	312.9
905.078	357.37
905.454	359.71
905.829	355.03
906.205	294.18
906.581	291.84
906.956	324.6
907.332	296.52
907.707	336.31
908.083	282.47
908.458	390.14
908.833	317.58
909.209	294.18
909.584	298.86
909.959	296.52
910.334	312.9
910.709	317.58
911.084	338.65
911.459	340.99
911.834	364.39
912.209	287.15
912.583	397.16
912.958	282.47
913.333	301.2
913.707	322.26
914.082	303.54
914.456	333.97
914.83	380.78
915.205	268.43
915.579	348.01
915.953	301.2
916.327	312.9
916.701	280.13
917.075	355.03
917.449	259.07
917.823	277.79
918.197	277.79
918.571	289.5
918.944	326.94
919.318	322.26
919.692	345.67
920.065	289.5
920.438	331.62
920.812	280.13
921.185	329.28
921.558	322.26
921.932	383.12
922.305	324.6
922.678	312.9
923.051	404.18
923.424	291.84
923.797	322.26
924.17	378.44
924.542	338.65
924.915	376.09
925.288	329.28
925.661	338.65
926.033	362.05
926.406	343.33
926.778	352.69
927.15	305.88
927.523	310.56
927.895	280.13
928.267	280.13
928.639	289.5
929.011	252.05
929.383	319.92
929.755	336.31
930.127	364.39
930.499	312.9
930.871	308.22
931.242	310.56
931.614	312.9
931.986	270.77
932.357	362.05
932.729	289.5
933.1	352.69
933.471	296.52
933.843	317.58
934.214	303.54
934.585	340.99
934.956	294.18
935.327	308.22
935.698	275.45
936.069	362.05
936.44	362.05
936.811	338.65
937.182	252.05
937.552	319.92
937.923	336.31
938.293	364.39
938.664	305.88
939.034	336.31
939.405	310.56
939.775	298.86
940.145	317.58
940.516	247.37
940.886	340.99
941.256	315.24
941.626	345.67
941.996	317.58
942.366	310.56
942.735	348.01
943.105	312.9
943.475	331.62
943.845	289.5
944.214	319.92
944.584	268.43
944.953	287.15
945.323	352.69
945.692	303.54
946.061	329.28
946.43	298.86
946.8	284.81
947.169	242.68
947.538	291.84
947.907	352.69
948.276	383.12
948.645	296.52
949.013	331.62
949.382	343.33
949.751	350.35
950.119	275.45
950.488	303.54
950.857	357.37
951.225	275.45
951.593	399.5
951.962	366.73
952.33	296.52
952.698	310.56
953.066	343.33
953.434	312.9
953.802	282.47
954.17	294.18
954.538	277.79
954.906	308.22
955.274	338.65
955.642	329.28
956.009	273.11
956.377	261.41
956.744	322.26
957.112	338.65
957.479	315.24
957.847	319.92
958.214	326.94
958.581	329.28
958.948	333.97
959.315	298.86
959.683	282.47
960.05	308.22
960.416	282.47
960.783	266.09
961.15	294.18
961.517	319.92
961.884	261.41
962.25	394.82
962.617	301.2
962.983	301.2
963.35	315.24
963.716	294.18
964.082	394.82
964.449	301.2
964.815	315.24
965.181	261.41
965.547	324.6
965.913	362.05
966.279	263.75
966.645	284.81
967.011	303.54
967.377	289.5
967.742	289.5
968.108	296.52
968.474	310.56
968.839	343.33
969.205	331.62
969.57	289.5
969.935	322.26
970.301	296.52
970.666	326.94
971.031	366.73
971.396	387.8
971.761	418.22
972.126	336.31
972.491	322.26
972.856	376.09
973.221	366.73
973.586	369.07
973.95	383.12
974.315	385.46
974.679	329.28
975.044	348.01
975.408	329.28
975.773	266.09
976.137	338.65
976.501	329.28
976.866	352.69
977.23	301.2
977.594	338.65
977.958	282.47
978.322	319.92
978.686	270.77
979.049	324.6
979.413	338.65
979.777	287.15
980.141	338.65
980.504	317.58
980.868	331.62
981.231	319.92
981.595	317.58
981.958	291.84
982.321	355.03
982.684	315.24
983.048	291.84
983.411	326.94
983.774	277.79
984.137	298.86
984.5	261.41
984.862	310.56
985.225	289.5
985.588	364.39
985.951	322.26
986.313	326.94
986.676	329.28
987.038	331.62
987.401	289.5
987.763	371.41
988.125	284.81
988.488	338.65
988.85	263.75
989.212	289.5
989.574	261.41
989.936	296.52
990.298	338.65
990.66	305.88
991.022	326.94
991.383	270.77
991.745	298.86
992.107	385.46
992.468	298.86
992.83	303.54
993.191	308.22
993.553	280.13
993.914	296.52
994.275	336.31
994.637	348.01
994.998	364.39
995.359	364.39
995.72	312.9
996.081	383.12
996.442	301.2
996.803	331.62
997.163	369.07
997.524	263.75
997.885	275.45
998.245	282.47
998.606	352.69
998.966	362.05
999.327	301.2
999.687	305.88
1000.047	338.65
1000.408	280.13
1000.768	350.35
1001.128	301.2
1001.488	261.41
1001.848	329.28
1002.208	289.5
1002.568	366.73
1002.927	324.6
1003.287	308.22
1003.647	296.52
1004.007	298.86
1004.366	319.92
1004.726	317.58
1005.085	340.99
1005.444	411.2
1005.804	317.58
1006.163	333.97
1006.522	303.54
1006.881	254.39
1007.24	345.67
1007.599	308.22
1007.958	340.99
1008.317	273.11
1008.676	348.01
1009.035	289.5
1009.393	336.31
1009.752	343.33
1010.111	394.82
1010.469	366.73
1010.828	359.71
1011.186	373.75
1011.544	340.99
1011.903	305.88
1012.261	348.01
1012.619	333.97
1012.977	312.9
1013.335	282.47
1013.693	298.86
1014.051	301.2
1014.409	340.99
1014.767	301.2
1015.124	390.14
1015.482	350.35
1015.84	324.6
1016.197	254.39
1016.555	282.47
1016.912	266.09
1017.269	310.56
1017.627	350.35
1017.984	329.28
1018.341	348.01
1018.698	329.28
1019.055	366.73
1019.412	305.88
1019.769	366.73
1020.126	301.2
1020.483	329.28
1020.84	329.28
1021.196	298.86
1021.553	296.52
1021.909	277.79
1022.266	287.15
1022.622	319.92
1022.979	378.44
1023.335	308.22
1023.691	359.71
1024.047	340.99
1024.404	362.05
1024.76	348.01
1025.116	401.84
1025.472	305.88
1025.827	371.41
1026.183	308.22
1026.539	315.24
1026.895	355.03
1027.25	312.9
1027.606	355.03
1027.961	298.86
1028.317	359.71
1028.672	355.03
1029.028	319.92
1029.383	378.44
1029.738	303.54
1030.093	305.88
1030.448	275.45
1030.803	235.66
1031.158	305.88
1031.513	268.43
1031.868	336.31
1032.223	287.15
1032.577	249.71
1032.932	266.09
1033.287	392.48
1033.641	350.35
1033.996	261.41
1034.35	355.03
1034.704	324.6
1035.059	331.62
1035.413	390.14
1035.767	390.14
1036.121	390.14
