Data from Al_FLMS009871__604__14-47-56-214.txt Node

Date: Fri Mar 08 14:47:56 CST 2024
User: pe5414po
Spectrometer: FLMS00987
Trigger mode: 0
Integration Time (sec): 1.000000E-1
Scans to average: 1
Electric dark correction enabled: true
Nonlinearity correction enabled: false
Boxcar width: 0
XAxis mode: Wavelengths
Number of Pixels in Spectrum: 2048
>>>>>Begin Spectral Data<<<<<
188.938	-112.35
189.409	-112.35
189.879	-112.35
190.349	-138.09
190.819	-105.32
191.29	-91.28
191.76	-77.24
192.23	-112.35
192.7	-91.28
193.17	-51.49
193.64	11.7
194.109	-70.22
194.579	7.02
195.049	21.06
195.519	-9.36
195.988	58.51
196.458	65.53
196.927	84.26
197.397	81.92
197.866	81.92
198.336	91.28
198.805	124.05
199.274	133.41
199.744	205.97
200.213	182.56
200.682	280.86
201.151	297.25
201.62	250.44
202.089	278.52
202.558	304.27
203.027	236.39
203.495	262.14
203.964	196.61
204.433	341.72
204.902	337.04
205.37	311.29
205.839	287.89
206.307	325.33
206.776	327.67
207.244	301.93
207.712	372.15
208.181	276.18
208.649	285.55
209.117	241.08
209.585	306.61
210.053	285.55
210.521	341.72
210.989	318.31
211.457	304.27
211.925	234.05
212.393	229.37
212.861	308.95
213.328	297.25
213.796	266.82
214.264	353.42
214.731	285.55
215.199	292.57
215.666	234.05
216.133	299.59
216.601	210.65
217.068	308.95
217.535	241.08
218.003	376.83
218.47	315.97
218.937	229.37
219.404	264.48
219.871	290.23
220.338	236.39
220.805	271.5
221.271	266.82
221.738	245.76
222.205	315.97
222.671	241.08
223.138	287.89
223.605	313.63
224.071	236.39
224.538	313.63
225.004	234.05
225.47	266.82
225.937	229.37
226.403	250.44
226.869	285.55
227.335	236.39
227.801	332.36
228.267	276.18
228.733	322.99
229.199	299.59
229.665	301.93
230.131	266.82
230.597	332.36
231.062	327.67
231.528	241.08
231.994	283.2
232.459	248.1
232.925	299.59
233.39	269.16
233.856	280.86
234.321	269.16
234.786	308.95
235.252	269.16
235.717	322.99
236.182	283.2
236.647	276.18
237.112	311.29
237.577	276.18
238.042	280.86
238.507	273.84
238.972	248.1
239.436	315.97
239.901	257.46
240.366	330.02
240.83	325.33
241.295	280.86
241.76	280.86
242.224	248.1
242.688	297.25
243.153	285.55
243.617	297.25
244.081	315.97
244.545	276.18
245.01	201.29
245.474	285.55
245.938	243.42
246.402	337.04
246.866	308.95
247.33	257.46
247.793	351.08
248.257	306.61
248.721	273.84
249.185	301.93
249.648	229.37
250.112	276.18
250.575	276.18
251.039	273.84
251.502	269.16
251.965	243.42
252.429	308.95
252.892	285.55
253.355	381.51
253.818	318.31
254.281	311.29
254.744	330.02
255.207	252.78
255.67	308.95
256.133	250.44
256.596	306.61
257.059	287.89
257.522	315.97
257.984	334.7
258.447	294.91
258.909	341.72
259.372	294.91
259.834	271.5
260.297	229.37
260.759	257.46
261.221	266.82
261.684	224.69
262.146	269.16
262.608	299.59
263.07	308.95
263.532	313.63
263.994	339.38
264.456	257.46
264.918	297.25
265.38	245.76
265.842	271.5
266.303	259.8
266.765	313.63
267.227	304.27
267.688	273.84
268.15	320.65
268.611	327.67
269.072	252.78
269.534	271.5
269.995	315.97
270.456	255.12
270.918	330.02
271.379	306.61
271.84	297.25
272.301	299.59
272.762	231.71
273.223	264.48
273.684	318.31
274.144	290.23
274.605	259.8
275.066	402.57
275.527	255.12
275.987	315.97
276.448	227.03
276.908	257.46
277.369	278.52
277.829	325.33
278.289	285.55
278.75	344.06
279.21	318.31
279.67	299.59
280.13	341.72
280.59	327.67
281.05	327.67
281.51	283.2
281.97	334.7
282.43	346.4
282.89	320.65
283.35	334.7
283.809	255.12
284.269	313.63
284.729	315.97
285.188	348.74
285.648	318.31
286.107	245.76
286.567	290.23
287.026	248.1
287.485	348.74
287.944	372.15
288.404	273.84
288.863	301.93
289.322	369.8
289.781	315.97
290.24	299.59
290.699	301.93
291.158	301.93
291.616	266.82
292.075	322.99
292.534	320.65
292.992	320.65
293.451	339.38
293.91	318.31
294.368	294.91
294.827	330.02
295.285	301.93
295.743	306.61
296.202	278.52
296.66	308.95
297.118	259.8
297.576	330.02
298.034	276.18
298.492	332.36
298.95	311.29
299.408	243.42
299.866	287.89
300.324	308.95
300.781	351.08
301.239	306.61
301.697	287.89
302.154	332.36
302.612	255.12
303.069	332.36
303.527	294.91
303.984	280.86
304.441	341.72
304.899	358.1
305.356	355.76
305.813	355.76
306.27	306.61
306.727	337.04
307.184	311.29
307.641	334.7
308.098	353.42
308.555	243.42
309.012	339.38
309.468	306.61
309.925	299.59
310.382	327.67
310.838	278.52
311.295	386.19
311.751	304.27
312.208	311.29
312.664	306.61
313.12	280.86
313.577	330.02
314.033	337.04
314.489	358.1
314.945	313.63
315.401	320.65
315.857	334.7
316.313	325.33
316.769	283.2
317.225	346.4
317.681	348.74
318.136	313.63
318.592	290.23
319.048	287.89
319.503	283.2
319.959	301.93
320.414	290.23
320.869	376.83
321.325	224.69
321.78	287.89
322.235	315.97
322.691	315.97
323.146	278.52
323.601	348.74
324.056	360.44
324.511	337.04
324.966	360.44
325.421	346.4
325.875	250.44
326.33	262.14
326.785	292.57
327.24	304.27
327.694	362.78
328.149	276.18
328.603	245.76
329.058	325.33
329.512	360.44
329.966	271.5
330.421	332.36
330.875	292.57
331.329	355.76
331.783	341.72
332.237	372.15
332.691	266.82
333.145	283.2
333.599	381.51
334.053	308.95
334.507	332.36
334.96	379.17
335.414	306.61
335.868	332.36
336.321	315.97
336.775	308.95
337.228	318.31
337.682	276.18
338.135	276.18
338.588	360.44
339.042	264.48
339.495	330.02
339.948	355.76
340.401	383.85
340.854	332.36
341.307	311.29
341.76	283.2
342.213	306.61
342.666	334.7
343.119	313.63
343.571	395.55
344.024	278.52
344.477	351.08
344.929	280.86
345.382	379.17
345.834	348.74
346.287	271.5
346.739	313.63
347.191	334.7
347.644	327.67
348.096	344.06
348.548	344.06
349	360.44
349.452	322.99
349.904	306.61
350.356	355.76
350.808	397.89
351.26	346.4
351.711	299.59
352.163	299.59
352.615	278.52
353.066	285.55
353.518	325.33
353.969	367.46
354.421	311.29
354.872	327.67
355.324	290.23
355.775	294.91
356.226	339.38
356.677	301.93
357.128	259.8
357.579	311.29
358.03	346.4
358.481	358.1
358.932	306.61
359.383	318.31
359.834	311.29
360.285	269.16
360.735	320.65
361.186	304.27
361.637	339.38
362.087	297.25
362.538	220.01
362.988	259.8
363.438	285.55
363.889	241.08
364.339	276.18
364.789	238.73
365.239	327.67
365.689	332.36
366.139	299.59
366.589	308.95
367.039	271.5
367.489	404.91
367.939	374.49
368.389	372.15
368.839	297.25
369.288	358.1
369.738	367.46
370.187	348.74
370.637	280.86
371.086	379.17
371.536	344.06
371.985	297.25
372.434	358.1
372.884	344.06
373.333	308.95
373.782	299.59
374.231	290.23
374.68	395.55
375.129	369.8
375.578	301.93
376.027	325.33
376.475	255.12
376.924	269.16
377.373	374.49
377.822	330.02
378.27	313.63
378.719	315.97
379.167	365.12
379.616	353.42
380.064	353.42
380.512	374.49
380.961	332.36
381.409	334.7
381.857	276.18
382.305	332.36
382.753	339.38
383.201	332.36
383.649	280.86
384.097	304.27
384.545	337.04
384.992	372.15
385.44	318.31
385.888	372.15
386.335	285.55
386.783	278.52
387.231	313.63
387.678	292.57
388.125	299.59
388.573	294.91
389.02	318.31
389.467	318.31
389.914	330.02
390.362	358.1
390.809	337.04
391.256	292.57
391.703	297.25
392.15	292.57
392.596	353.42
393.043	292.57
393.49	372.15
393.937	491.51
394.383	269.16
394.83	332.36
395.276	241.08
395.723	341.72
396.169	355.76
396.616	304.27
397.062	318.31
397.508	313.63
397.954	322.99
398.401	311.29
398.847	365.12
399.293	236.39
399.739	341.72
400.185	308.95
400.631	339.38
401.076	320.65
401.522	390.87
401.968	355.76
402.414	269.16
402.859	334.7
403.305	390.87
403.75	365.12
404.196	250.44
404.641	252.78
405.086	308.95
405.532	290.23
405.977	325.33
406.422	337.04
406.867	353.42
407.312	269.16
407.757	283.2
408.202	299.59
408.647	344.06
409.092	304.27
409.537	322.99
409.982	320.65
410.426	311.29
410.871	351.08
411.316	266.82
411.76	280.86
412.205	344.06
412.649	301.93
413.093	341.72
413.538	294.91
413.982	330.02
414.426	332.36
414.87	311.29
415.314	322.99
415.758	332.36
416.202	301.93
416.646	341.72
417.09	320.65
417.534	374.49
417.978	313.63
418.421	301.93
418.865	294.91
419.309	325.33
419.752	344.06
420.196	285.55
420.639	367.46
421.083	360.44
421.526	337.04
421.969	308.95
422.412	276.18
422.856	334.7
423.299	337.04
423.742	339.38
424.185	386.19
424.628	322.99
425.071	285.55
425.513	301.93
425.956	330.02
426.399	330.02
426.842	379.17
427.284	337.04
427.727	320.65
428.169	358.1
428.612	287.89
429.054	318.31
429.497	344.06
429.939	273.84
430.381	315.97
430.823	383.85
431.265	278.52
431.707	365.12
432.149	358.1
432.591	210.65
433.033	283.2
433.475	425.98
433.917	381.51
434.359	306.61
434.8	388.53
435.242	311.29
435.684	313.63
436.125	332.36
436.567	322.99
437.008	299.59
437.449	301.93
437.891	313.63
438.332	285.55
438.773	327.67
439.214	278.52
439.656	325.33
440.097	379.17
440.538	322.99
440.978	353.42
441.419	360.44
441.86	337.04
442.301	355.76
442.742	327.67
443.182	294.91
443.623	318.31
444.063	306.61
444.504	301.93
444.944	278.52
445.385	318.31
445.825	273.84
446.265	257.46
446.706	315.97
447.146	360.44
447.586	367.46
448.026	315.97
448.466	365.12
448.906	327.67
449.346	299.59
449.786	362.78
450.225	308.95
450.665	330.02
451.105	311.29
451.544	353.42
451.984	379.17
452.424	259.8
452.863	344.06
453.302	330.02
453.742	304.27
454.181	351.08
454.62	304.27
455.059	304.27
455.499	330.02
455.938	299.59
456.377	351.08
456.816	313.63
457.254	313.63
457.693	339.38
458.132	287.89
458.571	299.59
459.01	304.27
459.448	313.63
459.887	320.65
460.325	346.4
460.764	353.42
461.202	332.36
461.641	369.8
462.079	353.42
462.517	301.93
462.955	332.36
463.393	318.31
463.832	308.95
464.27	369.8
464.708	339.38
465.145	425.98
465.583	269.16
466.021	292.57
466.459	341.72
466.897	353.42
467.334	369.8
467.772	290.23
468.209	325.33
468.647	360.44
469.084	327.67
469.522	337.04
469.959	362.78
470.396	346.4
470.833	322.99
471.271	315.97
471.708	358.1
472.145	294.91
472.582	367.46
473.019	285.55
473.456	308.95
473.892	320.65
474.329	290.23
474.766	325.33
475.202	299.59
475.639	301.93
476.076	339.38
476.512	330.02
476.949	332.36
477.385	353.42
477.821	264.48
478.258	358.1
478.694	273.84
479.13	276.18
479.566	318.31
480.002	376.83
480.438	297.25
480.874	311.29
481.31	318.31
481.746	367.46
482.181	362.78
482.617	369.8
483.053	362.78
483.488	348.74
483.924	306.61
484.36	322.99
484.795	355.76
485.23	290.23
485.666	390.87
486.101	365.12
486.536	332.36
486.971	315.97
487.407	301.93
487.842	341.72
488.277	353.42
488.712	294.91
489.146	337.04
489.581	395.55
490.016	402.57
490.451	337.04
490.885	337.04
491.32	372.15
491.755	344.06
492.189	306.61
492.624	259.8
493.058	372.15
493.492	337.04
493.927	318.31
494.361	252.78
494.795	294.91
495.229	355.76
495.663	330.02
496.097	372.15
496.531	339.38
496.965	402.57
497.399	330.02
497.833	367.46
498.266	294.91
498.7	344.06
499.134	381.51
499.567	372.15
500.001	273.84
500.434	374.49
500.868	388.53
501.301	257.46
501.734	332.36
502.168	311.29
502.601	330.02
503.034	304.27
503.467	313.63
503.9	304.27
504.333	222.35
504.766	348.74
505.199	346.4
505.632	308.95
506.064	402.57
506.497	271.5
506.93	381.51
507.362	367.46
507.795	287.89
508.227	381.51
508.66	325.33
509.092	318.31
509.524	344.06
509.956	304.27
510.389	327.67
510.821	341.72
511.253	297.25
511.685	285.55
512.117	294.91
512.549	227.03
512.981	266.82
513.412	322.99
513.844	337.04
514.276	266.82
514.707	372.15
515.139	341.72
515.571	355.76
516.002	348.74
516.433	341.72
516.865	280.86
517.296	276.18
517.727	358.1
518.159	418.96
518.59	379.17
519.021	283.2
519.452	318.31
519.883	320.65
520.314	337.04
520.744	308.95
521.175	334.7
521.606	292.57
522.037	306.61
522.467	348.74
522.898	367.46
523.328	337.04
523.759	283.2
524.189	346.4
524.62	306.61
525.05	259.8
525.48	325.33
525.91	292.57
526.341	301.93
526.771	294.91
527.201	341.72
527.631	285.55
528.061	301.93
528.49	301.93
528.92	322.99
529.35	388.53
529.78	280.86
530.209	358.1
530.639	372.15
531.068	299.59
531.498	313.63
531.927	306.61
532.357	339.38
532.786	351.08
533.215	320.65
533.644	290.23
534.074	304.27
534.503	372.15
534.932	313.63
535.361	325.33
535.79	278.52
536.218	374.49
536.647	360.44
537.076	379.17
537.505	276.18
537.933	369.8
538.362	358.1
538.79	341.72
539.219	337.04
539.647	369.8
540.076	374.49
540.504	376.83
540.932	304.27
541.36	283.2
541.788	224.69
542.217	301.93
542.645	297.25
543.073	308.95
543.5	301.93
543.928	325.33
544.356	315.97
544.784	337.04
545.211	339.38
545.639	334.7
546.067	252.78
546.494	383.85
546.922	315.97
547.349	320.65
547.776	322.99
548.204	301.93
548.631	306.61
549.058	341.72
549.485	325.33
549.912	280.86
550.339	376.83
550.766	327.67
551.193	365.12
551.62	369.8
552.047	278.52
552.474	320.65
552.9	339.38
553.327	339.38
553.754	266.82
554.18	308.95
554.607	287.89
555.033	358.1
555.459	311.29
555.886	327.67
556.312	339.38
556.738	280.86
557.164	287.89
557.59	334.7
558.016	334.7
558.442	292.57
558.868	278.52
559.294	341.72
559.72	332.36
560.145	332.36
560.571	339.38
560.997	304.27
561.422	351.08
561.848	318.31
562.273	341.72
562.699	306.61
563.124	360.44
563.549	346.4
563.974	315.97
564.4	294.91
564.825	346.4
565.25	369.8
565.675	311.29
566.1	234.05
566.525	332.36
566.95	297.25
567.374	313.63
567.799	325.33
568.224	376.83
568.648	299.59
569.073	341.72
569.497	308.95
569.922	276.18
570.346	301.93
570.771	358.1
571.195	308.95
571.619	311.29
572.043	280.86
572.467	334.7
572.891	287.89
573.315	376.83
573.739	348.74
574.163	348.74
574.587	355.76
575.011	332.36
575.435	311.29
575.858	292.57
576.282	315.97
576.705	325.33
577.129	383.85
577.552	334.7
577.976	362.78
578.399	374.49
578.822	346.4
579.245	390.87
579.669	360.44
580.092	299.59
580.515	306.61
580.938	301.93
581.361	327.67
581.784	322.99
582.206	334.7
582.629	308.95
583.052	287.89
583.474	353.42
583.897	337.04
584.32	304.27
584.742	283.2
585.165	355.76
585.587	393.21
586.009	287.89
586.431	355.76
586.854	376.83
587.276	358.1
587.698	273.84
588.12	313.63
588.542	245.76
588.964	334.7
589.386	283.2
589.807	358.1
590.229	341.72
590.651	311.29
591.073	411.93
591.494	381.51
591.916	320.65
592.337	327.67
592.759	311.29
593.18	311.29
593.601	337.04
594.022	297.25
594.444	311.29
594.865	306.61
595.286	306.61
595.707	320.65
596.128	318.31
596.549	287.89
596.97	299.59
597.39	341.72
597.811	311.29
598.232	372.15
598.652	313.63
599.073	367.46
599.494	308.95
599.914	339.38
600.334	346.4
600.755	355.76
601.175	339.38
601.595	348.74
602.015	381.51
602.436	292.57
602.856	451.72
603.276	390.87
603.696	311.29
604.115	332.36
604.535	395.55
604.955	264.48
605.375	294.91
605.794	358.1
606.214	346.4
606.634	315.97
607.053	306.61
607.473	285.55
607.892	330.02
608.311	367.46
608.731	257.46
609.15	257.46
609.569	318.31
609.988	283.2
610.407	367.46
610.826	290.23
611.245	313.63
611.664	358.1
612.083	404.91
612.501	339.38
612.92	301.93
613.339	322.99
613.757	362.78
614.176	320.65
614.594	320.65
615.013	320.65
615.431	318.31
615.85	290.23
616.268	297.25
616.686	344.06
617.104	372.15
617.522	287.89
617.94	339.38
618.358	304.27
618.776	308.95
619.194	351.08
619.612	294.91
620.03	320.65
620.447	332.36
620.865	320.65
621.282	365.12
621.7	397.89
622.117	395.55
622.535	341.72
622.952	372.15
623.369	339.38
623.787	304.27
624.204	325.33
624.621	374.49
625.038	318.31
625.455	250.44
625.872	351.08
626.289	341.72
626.706	330.02
627.123	306.61
627.539	346.4
627.956	332.36
628.373	304.27
628.789	311.29
629.206	346.4
629.622	283.2
630.038	341.72
630.455	271.5
630.871	273.84
631.287	358.1
631.703	353.42
632.12	308.95
632.536	386.19
632.952	301.93
633.368	376.83
633.783	355.76
634.199	334.7
634.615	367.46
635.031	325.33
635.446	437.68
635.862	334.7
636.277	337.04
636.693	287.89
637.108	276.18
637.524	355.76
637.939	337.04
638.354	269.16
638.77	322.99
639.185	379.17
639.6	311.29
640.015	339.38
640.43	360.44
640.845	266.82
641.259	308.95
641.674	358.1
642.089	353.42
642.504	327.67
642.918	355.76
643.333	287.89
643.747	320.65
644.162	360.44
644.576	330.02
644.991	344.06
645.405	332.36
645.819	348.74
646.233	252.78
646.647	423.64
647.061	313.63
647.475	318.31
647.889	334.7
648.303	372.15
648.717	418.96
649.131	285.55
649.545	339.38
649.958	341.72
650.372	308.95
650.785	369.8
651.199	280.86
651.612	311.29
652.026	374.49
652.439	376.83
652.852	308.95
653.266	297.25
653.679	297.25
654.092	259.8
654.505	339.38
654.918	311.29
655.331	313.63
655.744	369.8
656.156	351.08
656.569	339.38
656.982	306.61
657.394	299.59
657.807	322.99
658.22	318.31
658.632	334.7
659.044	365.12
659.457	334.7
659.869	322.99
660.281	306.61
660.693	290.23
661.106	278.52
661.518	327.67
661.93	337.04
662.342	332.36
662.754	353.42
663.165	360.44
663.577	334.7
663.989	306.61
664.401	308.95
664.812	369.8
665.224	313.63
665.635	360.44
666.047	308.95
666.458	278.52
666.869	351.08
667.281	322.99
667.692	322.99
668.103	269.16
668.514	304.27
668.925	402.57
669.336	322.99
669.747	294.91
670.158	290.23
670.569	276.18
670.979	348.74
671.39	346.4
671.801	360.44
672.211	306.61
672.622	308.95
673.032	348.74
673.443	325.33
673.853	327.67
674.263	355.76
674.674	353.42
675.084	353.42
675.494	346.4
675.904	376.83
676.314	315.97
676.724	318.31
677.134	318.31
677.544	330.02
677.953	306.61
678.363	308.95
678.773	348.74
679.182	348.74
679.592	348.74
680.001	351.08
680.411	339.38
680.82	330.02
681.23	334.7
681.639	339.38
682.048	304.27
682.457	395.55
682.866	320.65
683.275	318.31
683.684	330.02
684.093	294.91
684.502	330.02
684.911	325.33
685.32	311.29
685.728	311.29
686.137	346.4
686.546	287.89
686.954	276.18
687.363	292.57
687.771	301.93
688.179	315.97
688.588	308.95
688.996	322.99
689.404	358.1
689.812	339.38
690.22	327.67
690.628	273.84
691.036	341.72
691.444	353.42
691.852	386.19
692.26	381.51
692.667	311.29
693.075	304.27
693.483	355.76
693.89	278.52
694.298	285.55
694.705	367.46
695.112	266.82
695.52	334.7
695.927	360.44
696.334	355.76
696.741	362.78
697.148	290.23
697.555	327.67
697.962	248.1
698.369	362.78
698.776	346.4
699.183	297.25
699.59	339.38
699.996	322.99
700.403	322.99
700.81	273.84
701.216	355.76
701.623	297.25
702.029	360.44
702.435	322.99
702.842	344.06
703.248	320.65
703.654	327.67
704.06	346.4
704.466	383.85
704.872	276.18
705.278	297.25
705.684	311.29
706.09	353.42
706.496	367.46
706.901	365.12
707.307	388.53
707.712	292.57
708.118	318.31
708.523	315.97
708.929	334.7
709.334	308.95
709.74	348.74
710.145	381.51
710.55	383.85
710.955	294.91
711.36	315.97
711.765	320.65
712.17	313.63
712.575	325.33
712.98	725.57
713.385	355.76
713.789	325.33
714.194	332.36
714.599	365.12
715.003	327.67
715.408	287.89
715.812	280.86
716.217	346.4
716.621	273.84
717.025	339.38
717.429	383.85
717.833	344.06
718.238	330.02
718.642	306.61
719.046	283.2
719.449	358.1
719.853	266.82
720.257	273.84
720.661	280.86
721.065	330.02
721.468	255.12
721.872	294.91
722.275	362.78
722.679	311.29
723.082	320.65
723.485	264.48
723.889	313.63
724.292	337.04
724.695	330.02
725.098	311.29
725.501	334.7
725.904	280.86
726.307	386.19
726.71	353.42
727.113	330.02
727.516	369.8
727.918	269.16
728.321	376.83
728.724	299.59
729.126	264.48
729.529	308.95
729.931	313.63
730.333	311.29
730.736	362.78
731.138	306.61
731.54	386.19
731.942	266.82
732.344	297.25
732.746	341.72
733.148	337.04
733.55	339.38
733.952	332.36
734.354	294.91
734.756	355.76
735.157	358.1
735.559	348.74
735.96	318.31
736.362	379.17
736.763	283.2
737.165	264.48
737.566	306.61
737.967	325.33
738.368	271.5
738.77	297.25
739.171	283.2
739.572	285.55
739.973	299.59
740.374	292.57
740.774	299.59
741.175	292.57
741.576	294.91
741.977	306.61
742.377	297.25
742.778	339.38
743.178	315.97
743.579	411.93
743.979	332.36
744.379	351.08
744.78	358.1
745.18	332.36
745.58	273.84
745.98	308.95
746.38	308.95
746.78	269.16
747.18	346.4
747.58	395.55
747.98	334.7
748.38	297.25
748.779	276.18
749.179	273.84
749.578	344.06
749.978	355.76
750.377	304.27
750.777	388.53
751.176	344.06
751.575	332.36
751.975	264.48
752.374	332.36
752.773	313.63
753.172	308.95
753.571	327.67
753.97	367.46
754.369	285.55
754.768	234.05
755.166	278.52
755.565	315.97
755.964	320.65
756.362	290.23
756.761	311.29
757.159	360.44
757.558	313.63
757.956	297.25
758.354	311.29
758.753	287.89
759.151	322.99
759.549	365.12
759.947	360.44
760.345	339.38
760.743	313.63
761.141	299.59
761.539	339.38
761.936	327.67
762.334	315.97
762.732	285.55
763.129	334.7
763.527	348.74
763.924	306.61
764.322	318.31
764.719	355.76
765.117	379.17
765.514	334.7
765.911	285.55
766.308	306.61
766.705	278.52
767.102	332.36
767.499	308.95
767.896	318.31
768.293	346.4
768.69	308.95
769.086	257.46
769.483	278.52
769.88	287.89
770.276	320.65
770.673	428.32
771.069	294.91
771.466	322.99
771.862	257.46
772.258	315.97
772.654	318.31
773.05	388.53
773.447	280.86
773.843	327.67
774.239	341.72
774.634	353.42
775.03	346.4
775.426	292.57
775.822	414.27
776.218	304.27
776.613	313.63
777.009	353.42
777.404	301.93
777.8	297.25
778.195	407.25
778.59	304.27
778.986	266.82
779.381	273.84
779.776	290.23
780.171	407.25
780.566	243.42
780.961	318.31
781.356	315.97
781.751	358.1
782.146	332.36
782.54	358.1
782.935	330.02
783.33	276.18
783.724	404.91
784.119	238.73
784.513	278.52
784.908	287.89
785.302	351.08
785.696	297.25
786.09	313.63
786.485	308.95
786.879	411.93
787.273	341.72
787.667	308.95
788.061	332.36
788.454	306.61
788.848	358.1
789.242	299.59
789.636	283.2
790.029	337.04
790.423	355.76
790.816	297.25
791.21	325.33
791.603	330.02
791.997	339.38
792.39	339.38
792.783	341.72
793.176	365.12
793.569	334.7
793.962	451.72
794.355	330.02
794.748	327.67
795.141	362.78
795.534	294.91
795.927	283.2
796.319	283.2
796.712	362.78
797.105	290.23
797.497	290.23
797.89	372.15
798.282	334.7
798.674	318.31
799.067	273.84
799.459	372.15
799.851	322.99
800.243	355.76
800.635	306.61
801.027	344.06
801.419	332.36
801.811	374.49
802.203	297.25
802.594	304.27
802.986	280.86
803.378	285.55
803.769	306.61
804.161	360.44
804.552	355.76
804.944	353.42
805.335	280.86
805.726	337.04
806.118	299.59
806.509	358.1
806.9	351.08
807.291	273.84
807.682	212.99
808.073	301.93
808.464	315.97
808.855	290.23
809.245	301.93
809.636	365.12
810.027	306.61
810.417	276.18
810.808	330.02
811.198	348.74
811.589	395.55
811.979	318.31
812.369	290.23
812.759	315.97
813.15	287.89
813.54	367.46
813.93	325.33
814.32	311.29
814.71	379.17
815.1	290.23
815.489	325.33
815.879	308.95
816.269	325.33
816.658	322.99
817.048	325.33
817.438	313.63
817.827	320.65
818.216	332.36
818.606	332.36
818.995	266.82
819.384	308.95
819.773	362.78
820.163	294.91
820.552	337.04
820.941	234.05
821.33	306.61
821.718	313.63
822.107	308.95
822.496	330.02
822.885	306.61
823.273	276.18
823.662	332.36
824.05	353.42
824.439	334.7
824.827	369.8
825.216	346.4
825.604	332.36
825.992	327.67
826.38	341.72
826.768	346.4
827.156	330.02
827.544	304.27
827.932	381.51
828.32	271.5
828.708	301.93
829.096	292.57
829.483	369.8
829.871	299.59
830.259	334.7
830.646	376.83
831.034	344.06
831.421	308.95
831.808	334.7
832.196	322.99
832.583	283.2
832.97	327.67
833.357	311.29
833.744	341.72
834.131	337.04
834.518	334.7
834.905	287.89
835.292	287.89
835.678	318.31
836.065	283.2
836.452	322.99
836.838	308.95
837.225	266.82
837.611	344.06
837.998	362.78
838.384	327.67
838.77	372.15
839.157	285.55
839.543	369.8
839.929	304.27
840.315	269.16
840.701	308.95
841.087	365.12
841.473	294.91
841.858	360.44
842.244	360.44
842.63	283.2
843.015	231.71
843.401	608.54
843.787	360.44
844.172	351.08
844.557	362.78
844.943	346.4
845.328	358.1
845.713	351.08
846.098	346.4
846.483	351.08
846.868	325.33
847.253	348.74
847.638	262.14
848.023	362.78
848.408	337.04
848.793	337.04
849.177	334.7
849.562	325.33
849.947	308.95
850.331	400.23
850.715	334.7
851.1	322.99
851.484	318.31
851.868	362.78
852.253	341.72
852.637	346.4
853.021	266.82
853.405	269.16
853.789	229.37
854.173	355.76
854.557	283.2
854.94	276.18
855.324	327.67
855.708	337.04
856.091	287.89
856.475	301.93
856.858	280.86
857.242	264.48
857.625	292.57
858.009	351.08
858.392	330.02
858.775	339.38
859.158	292.57
859.541	325.33
859.924	332.36
860.307	245.76
860.69	273.84
861.073	348.74
861.456	318.31
861.838	383.85
862.221	334.7
862.604	297.25
862.986	269.16
863.369	376.83
863.751	311.29
864.133	318.31
864.516	243.42
864.898	327.67
865.28	358.1
865.662	381.51
866.044	339.38
866.426	306.61
866.808	330.02
867.19	330.02
867.572	322.99
867.954	278.52
868.336	332.36
868.717	339.38
869.099	306.61
869.48	351.08
869.862	365.12
870.243	393.21
870.625	344.06
871.006	313.63
871.387	341.72
871.768	362.78
872.149	362.78
872.53	332.36
872.911	346.4
873.292	271.5
873.673	280.86
874.054	304.27
874.435	290.23
874.815	334.7
875.196	362.78
875.577	330.02
875.957	308.95
876.338	344.06
876.718	397.89
877.098	341.72
877.479	283.2
877.859	330.02
878.239	365.12
878.619	294.91
878.999	299.59
879.379	306.61
879.759	315.97
880.139	330.02
880.519	271.5
880.898	311.29
881.278	369.8
881.658	304.27
882.037	381.51
882.417	315.97
882.796	301.93
883.176	332.36
883.555	355.76
883.934	355.76
884.313	322.99
884.693	311.29
885.072	332.36
885.451	362.78
885.83	362.78
886.209	360.44
886.587	344.06
886.966	304.27
887.345	318.31
887.724	294.91
888.102	290.23
888.481	308.95
888.859	351.08
889.238	250.44
889.616	294.91
889.994	259.8
890.373	344.06
890.751	290.23
891.129	322.99
891.507	355.76
891.885	313.63
892.263	318.31
892.641	301.93
893.019	337.04
893.396	344.06
893.774	299.59
894.152	297.25
894.529	301.93
894.907	311.29
895.284	271.5
895.662	334.7
896.039	308.95
896.416	287.89
896.794	339.38
897.171	255.12
897.548	322.99
897.925	325.33
898.302	280.86
898.679	292.57
899.056	241.08
899.433	308.95
899.809	266.82
900.186	334.7
900.563	325.33
900.939	318.31
901.316	353.42
901.692	351.08
902.069	318.31
902.445	360.44
902.821	278.52
903.197	271.5
903.574	332.36
903.95	287.89
904.326	327.67
904.702	313.63
905.078	269.16
905.454	374.49
905.829	299.59
906.205	297.25
906.581	299.59
906.956	341.72
907.332	339.38
907.707	330.02
908.083	294.91
908.458	283.2
908.833	276.18
909.209	400.23
909.584	386.19
909.959	365.12
910.334	339.38
910.709	346.4
911.084	365.12
911.459	292.57
911.834	358.1
912.209	348.74
912.583	283.2
912.958	330.02
913.333	330.02
913.707	348.74
914.082	334.7
914.456	320.65
914.83	292.57
915.205	325.33
915.579	306.61
915.953	327.67
916.327	301.93
916.701	301.93
917.075	351.08
917.449	318.31
917.823	292.57
918.197	278.52
918.571	315.97
918.944	365.12
919.318	311.29
919.692	264.48
920.065	299.59
920.438	327.67
920.812	339.38
921.185	358.1
921.558	348.74
921.932	339.38
922.305	372.15
922.678	311.29
923.051	236.39
923.424	320.65
923.797	334.7
924.17	337.04
924.542	315.97
924.915	344.06
925.288	372.15
925.661	318.31
926.033	311.29
926.406	252.78
926.778	313.63
927.15	271.5
927.523	315.97
927.895	250.44
928.267	273.84
928.639	271.5
929.011	339.38
929.383	308.95
929.755	280.86
930.127	264.48
930.499	306.61
930.871	273.84
931.242	264.48
931.614	325.33
931.986	287.89
932.357	346.4
932.729	259.8
933.1	301.93
933.471	322.99
933.843	313.63
934.214	269.16
934.585	322.99
934.956	297.25
935.327	308.95
935.698	369.8
936.069	327.67
936.44	327.67
936.811	313.63
937.182	381.51
937.552	318.31
937.923	367.46
938.293	283.2
938.664	322.99
939.034	355.76
939.405	283.2
939.775	320.65
940.145	325.33
940.516	374.49
940.886	311.29
941.256	325.33
941.626	344.06
941.996	290.23
942.366	306.61
942.735	404.91
943.105	327.67
943.475	257.46
943.845	339.38
944.214	285.55
944.584	320.65
944.953	320.65
945.323	341.72
945.692	301.93
946.061	369.8
946.43	315.97
946.8	297.25
947.169	346.4
947.538	311.29
947.907	304.27
948.276	322.99
948.645	337.04
949.013	348.74
949.382	330.02
949.751	229.37
950.119	308.95
950.488	367.46
950.857	315.97
951.225	395.55
951.593	299.59
951.962	330.02
952.33	353.42
952.698	332.36
953.066	348.74
953.434	339.38
953.802	320.65
954.17	257.46
954.538	346.4
954.906	306.61
955.274	306.61
955.642	315.97
956.009	243.42
956.377	297.25
956.744	243.42
957.112	322.99
957.479	285.55
957.847	325.33
958.214	318.31
958.581	358.1
958.948	318.31
959.315	308.95
959.683	355.76
960.05	325.33
960.416	344.06
960.783	353.42
961.15	301.93
961.517	334.7
961.884	341.72
962.25	313.63
962.617	411.93
962.983	381.51
963.35	318.31
963.716	304.27
964.082	313.63
964.449	339.38
964.815	369.8
965.181	297.25
965.547	365.12
965.913	351.08
966.279	269.16
966.645	351.08
967.011	341.72
967.377	320.65
967.742	383.85
968.108	322.99
968.474	341.72
968.839	360.44
969.205	390.87
969.57	348.74
969.935	299.59
970.301	294.91
970.666	276.18
971.031	337.04
971.396	334.7
971.761	334.7
972.126	262.14
972.491	318.31
972.856	301.93
973.221	271.5
973.586	318.31
973.95	273.84
974.315	264.48
974.679	287.89
975.044	320.65
975.408	297.25
975.773	297.25
976.137	301.93
976.501	351.08
976.866	287.89
977.23	290.23
977.594	351.08
977.958	287.89
978.322	299.59
978.686	341.72
979.049	330.02
979.413	290.23
979.777	337.04
980.141	320.65
980.504	360.44
980.868	287.89
981.231	301.93
981.595	348.74
981.958	367.46
982.321	365.12
982.684	379.17
983.048	358.1
983.411	287.89
983.774	367.46
984.137	311.29
984.5	355.76
984.862	273.84
985.225	337.04
985.588	283.2
985.951	255.12
986.313	283.2
986.676	283.2
987.038	353.42
987.401	273.84
987.763	315.97
988.125	292.57
988.488	325.33
988.85	304.27
989.212	273.84
989.574	304.27
989.936	353.42
990.298	355.76
990.66	266.82
991.022	320.65
991.383	341.72
991.745	322.99
992.107	273.84
992.468	294.91
992.83	292.57
993.191	318.31
993.553	337.04
993.914	376.83
994.275	318.31
994.637	367.46
994.998	269.16
995.359	264.48
995.72	325.33
996.081	334.7
996.442	297.25
996.803	383.85
997.163	301.93
997.524	252.78
997.885	337.04
998.245	327.67
998.606	376.83
998.966	297.25
999.327	315.97
999.687	339.38
1000.047	367.46
1000.408	273.84
1000.768	257.46
1001.128	271.5
1001.488	297.25
1001.848	348.74
1002.208	311.29
1002.568	299.59
1002.927	334.7
1003.287	346.4
1003.647	381.51
1004.007	301.93
1004.366	334.7
1004.726	322.99
1005.085	306.61
1005.444	341.72
1005.804	339.38
1006.163	299.59
1006.522	308.95
1006.881	388.53
1007.24	276.18
1007.599	264.48
1007.958	334.7
1008.317	353.42
1008.676	341.72
1009.035	308.95
1009.393	344.06
1009.752	351.08
1010.111	337.04
1010.469	341.72
1010.828	306.61
1011.186	365.12
1011.544	341.72
1011.903	344.06
1012.261	257.46
1012.619	308.95
1012.977	297.25
1013.335	280.86
1013.693	351.08
1014.051	322.99
1014.409	325.33
1014.767	369.8
1015.124	250.44
1015.482	280.86
1015.84	337.04
1016.197	280.86
1016.555	322.99
1016.912	341.72
1017.269	264.48
1017.627	301.93
1017.984	283.2
1018.341	280.86
1018.698	327.67
1019.055	292.57
1019.412	264.48
1019.769	283.2
1020.126	278.52
1020.483	315.97
1020.84	320.65
1021.196	362.78
1021.553	297.25
1021.909	262.14
1022.266	351.08
1022.622	292.57
1022.979	365.12
1023.335	332.36
1023.691	278.52
1024.047	257.46
1024.404	287.89
1024.76	372.15
1025.116	327.67
1025.472	332.36
1025.827	341.72
1026.183	327.67
1026.539	280.86
1026.895	311.29
1027.25	374.49
1027.606	337.04
1027.961	381.51
1028.317	344.06
1028.672	320.65
1029.028	348.74
1029.383	358.1
1029.738	327.67
1030.093	327.67
1030.448	334.7
1030.803	283.2
1031.158	255.12
1031.513	297.25
1031.868	306.61
1032.223	290.23
1032.577	330.02
1032.932	325.33
1033.287	346.4
1033.641	243.42
1033.996	292.57
1034.35	362.78
1034.704	332.36
1035.059	348.74
1035.413	330.02
1035.767	330.02
1036.121	330.02
