Data from Al_FLMS009871__619__14-47-57-714.txt Node

Date: Fri Mar 08 14:47:57 CST 2024
User: pe5414po
Spectrometer: FLMS00987
Trigger mode: 0
Integration Time (sec): 1.000000E-1
Scans to average: 1
Electric dark correction enabled: true
Nonlinearity correction enabled: false
Boxcar width: 0
XAxis mode: Wavelengths
Number of Pixels in Spectrum: 2048
>>>>>Begin Spectral Data<<<<<
188.938	-76.8
189.409	-76.8
189.879	-76.8
190.349	-151.7
190.819	-88.5
191.29	-90.84
191.76	-107.23
192.23	-79.14
192.7	-81.48
193.17	-60.42
193.64	42.57
194.109	-88.5
194.579	0.44
195.049	5.12
195.519	-4.24
195.988	70.65
196.458	33.21
196.927	87.04
197.397	51.93
197.866	84.7
198.336	136.19
198.805	164.28
199.274	178.32
199.744	168.96
200.213	180.66
200.682	126.83
201.151	267.26
201.62	199.38
202.089	297.69
202.558	248.54
203.027	239.17
203.495	201.72
203.964	276.62
204.433	246.2
204.902	243.85
205.37	285.98
205.839	285.98
206.307	290.67
206.776	285.98
207.244	321.09
207.712	295.35
208.181	318.75
208.649	302.37
209.117	285.98
209.585	248.54
210.053	290.67
210.521	302.37
210.989	262.58
211.457	271.94
211.925	276.62
212.393	307.05
212.861	304.71
213.328	311.73
213.796	250.88
214.264	285.98
214.731	302.37
215.199	262.58
215.666	239.17
216.133	274.28
216.601	276.62
217.068	220.45
217.535	218.11
218.003	187.68
218.47	271.94
218.937	229.81
219.404	276.62
219.871	243.85
220.338	260.24
220.805	218.11
221.271	262.58
221.738	285.98
222.205	274.28
222.671	246.2
223.138	262.58
223.605	302.37
224.071	229.81
224.538	248.54
225.004	276.62
225.47	236.83
225.937	229.81
226.403	295.35
226.869	243.85
227.335	229.81
227.801	285.98
228.267	243.85
228.733	234.49
229.199	255.56
229.665	225.13
230.131	285.98
230.597	307.05
231.062	236.83
231.528	248.54
231.994	241.51
232.459	239.17
232.925	250.88
233.39	300.03
233.856	257.9
234.321	302.37
234.786	271.94
235.252	311.73
235.717	283.64
236.182	239.17
236.647	276.62
237.112	241.51
237.577	295.35
238.042	257.9
238.507	229.81
238.972	281.3
239.436	283.64
239.901	239.17
240.366	281.3
240.83	309.39
241.295	288.32
241.76	285.98
242.224	304.71
242.688	255.56
243.153	241.51
243.617	311.73
244.081	229.81
244.545	253.22
245.01	220.45
245.474	302.37
245.938	257.9
246.402	281.3
246.866	302.37
247.33	225.13
247.793	192.36
248.257	295.35
248.721	269.6
249.185	234.49
249.648	283.64
250.112	304.71
250.575	183
251.039	297.69
251.502	185.34
251.965	281.3
252.429	243.85
252.892	300.03
253.355	307.05
253.818	274.28
254.281	236.83
254.744	264.92
255.207	302.37
255.67	227.47
256.133	253.22
256.596	262.58
257.059	285.98
257.522	271.94
257.984	281.3
258.447	236.83
258.909	274.28
259.372	253.22
259.834	255.56
260.297	288.32
260.759	290.67
261.221	309.39
261.684	278.96
262.146	281.3
262.608	339.82
263.07	302.37
263.532	311.73
263.994	260.24
264.456	278.96
264.918	262.58
265.38	229.81
265.842	201.72
266.303	269.6
266.765	269.6
267.227	274.28
267.688	285.98
268.15	248.54
268.611	283.64
269.072	278.96
269.534	304.71
269.995	295.35
270.456	262.58
270.918	257.9
271.379	278.96
271.84	229.81
272.301	295.35
272.762	250.88
273.223	253.22
273.684	241.51
274.144	262.58
274.605	271.94
275.066	250.88
275.527	260.24
275.987	278.96
276.448	311.73
276.908	297.69
277.369	227.47
277.829	260.24
278.289	297.69
278.75	304.71
279.21	307.05
279.67	248.54
280.13	283.64
280.59	302.37
281.05	239.17
281.51	278.96
281.97	300.03
282.43	229.81
282.89	295.35
283.35	309.39
283.809	316.41
284.269	302.37
284.729	248.54
285.188	323.43
285.648	264.92
286.107	293.01
286.567	243.85
287.026	295.35
287.485	281.3
287.944	337.48
288.404	323.43
288.863	255.56
289.322	239.17
289.781	269.6
290.24	283.64
290.699	318.75
291.158	332.79
291.616	281.3
292.075	232.15
292.534	314.07
292.992	335.14
293.451	257.9
293.91	307.05
294.368	302.37
294.827	281.3
295.285	297.69
295.743	220.45
296.202	236.83
296.66	271.94
297.118	302.37
297.576	344.5
298.034	257.9
298.492	285.98
298.95	381.95
299.408	262.58
299.866	260.24
300.324	304.71
300.781	318.75
301.239	241.51
301.697	288.32
302.154	283.64
302.612	229.81
303.069	293.01
303.527	269.6
303.984	260.24
304.441	253.22
304.899	309.39
305.356	285.98
305.813	293.01
306.27	325.77
306.727	293.01
307.184	311.73
307.641	300.03
308.098	281.3
308.555	283.64
309.012	257.9
309.468	271.94
309.925	278.96
310.382	278.96
310.838	276.62
311.295	323.43
311.751	363.22
312.208	288.32
312.664	307.05
313.12	290.67
313.577	337.48
314.033	325.77
314.489	344.5
314.945	283.64
315.401	278.96
315.857	297.69
316.313	255.56
316.769	264.92
317.225	267.26
317.681	302.37
318.136	344.5
318.592	267.26
319.048	309.39
319.503	267.26
319.959	290.67
320.414	316.41
320.869	365.56
321.325	288.32
321.78	267.26
322.235	307.05
322.691	316.41
323.146	274.28
323.601	349.18
324.056	360.88
324.511	283.64
324.966	278.96
325.421	211.09
325.875	332.79
326.33	304.71
326.785	337.48
327.24	335.14
327.694	276.62
328.149	253.22
328.603	239.17
329.058	335.14
329.512	307.05
329.966	393.65
330.421	339.82
330.875	309.39
331.329	283.64
331.783	278.96
332.237	302.37
332.691	314.07
333.145	274.28
333.599	346.84
334.053	325.77
334.507	332.79
334.96	253.22
335.414	295.35
335.868	339.82
336.321	288.32
336.775	234.49
337.228	344.5
337.682	360.88
338.135	370.24
338.588	269.6
339.042	278.96
339.495	330.45
339.948	346.84
340.401	290.67
340.854	321.09
341.307	344.5
341.76	318.75
342.213	250.88
342.666	311.73
343.119	346.84
343.571	269.6
344.024	307.05
344.477	283.64
344.929	285.98
345.382	335.14
345.834	330.45
346.287	311.73
346.739	318.75
347.191	262.58
347.644	260.24
348.096	290.67
348.548	332.79
349	363.22
349.452	283.64
349.904	293.01
350.356	339.82
350.808	304.71
351.26	311.73
351.711	229.81
352.163	356.2
352.615	281.3
353.066	351.52
353.518	304.71
353.969	253.22
354.421	297.69
354.872	278.96
355.324	304.71
355.775	285.98
356.226	293.01
356.677	311.73
357.128	307.05
357.579	243.85
358.03	295.35
358.481	318.75
358.932	342.16
359.383	335.14
359.834	302.37
360.285	318.75
360.735	330.45
361.186	314.07
361.637	274.28
362.087	300.03
362.538	353.86
362.988	295.35
363.438	328.11
363.889	295.35
364.339	353.86
364.789	269.6
365.239	290.67
365.689	250.88
366.139	328.11
366.589	311.73
367.039	335.14
367.489	260.24
367.939	321.09
368.389	302.37
368.839	281.3
369.288	353.86
369.738	307.05
370.187	300.03
370.637	290.67
371.086	293.01
371.536	307.05
371.985	288.32
372.434	269.6
372.884	264.92
373.333	267.26
373.782	335.14
374.231	288.32
374.68	274.28
375.129	290.67
375.578	257.9
376.027	330.45
376.475	297.69
376.924	332.79
377.373	330.45
377.822	304.71
378.27	318.75
378.719	293.01
379.167	374.92
379.616	271.94
380.064	314.07
380.512	283.64
380.961	309.39
381.409	311.73
381.857	255.56
382.305	271.94
382.753	300.03
383.201	353.86
383.649	314.07
384.097	300.03
384.545	199.38
384.992	236.83
385.44	335.14
385.888	332.79
386.335	349.18
386.783	304.71
387.231	314.07
387.678	278.96
388.125	300.03
388.573	351.52
389.02	281.3
389.467	285.98
389.914	358.54
390.362	316.41
390.809	342.16
391.256	302.37
391.703	276.62
392.15	304.71
392.596	325.77
393.043	243.85
393.49	318.75
393.937	285.98
394.383	309.39
394.83	321.09
395.276	321.09
395.723	349.18
396.169	295.35
396.616	325.77
397.062	285.98
397.508	281.3
397.954	356.2
398.401	332.79
398.847	349.18
399.293	290.67
399.739	283.64
400.185	246.2
400.631	285.98
401.076	285.98
401.522	297.69
401.968	314.07
402.414	318.75
402.859	300.03
403.305	309.39
403.75	307.05
404.196	285.98
404.641	297.69
405.086	349.18
405.532	335.14
405.977	293.01
406.422	290.67
406.867	302.37
407.312	328.11
407.757	321.09
408.202	295.35
408.647	344.5
409.092	248.54
409.537	293.01
409.982	248.54
410.426	328.11
410.871	302.37
411.316	271.94
411.76	267.26
412.205	281.3
412.649	246.2
413.093	290.67
413.538	302.37
413.982	271.94
414.426	302.37
414.87	328.11
415.314	278.96
415.758	271.94
416.202	307.05
416.646	262.58
417.09	278.96
417.534	335.14
417.978	255.56
418.421	293.01
418.865	330.45
419.309	274.28
419.752	372.58
420.196	300.03
420.639	351.52
421.083	318.75
421.526	262.58
421.969	316.41
422.412	288.32
422.856	271.94
423.299	325.77
423.742	335.14
424.185	297.69
424.628	278.96
425.071	349.18
425.513	260.24
425.956	311.73
426.399	311.73
426.842	311.73
427.284	332.79
427.727	260.24
428.169	356.2
428.612	290.67
429.054	295.35
429.497	300.03
429.939	297.69
430.381	264.92
430.823	264.92
431.265	332.79
431.707	260.24
432.149	311.73
432.591	379.61
433.033	304.71
433.475	267.26
433.917	311.73
434.359	304.71
434.8	281.3
435.242	239.17
435.684	309.39
436.125	304.71
436.567	281.3
437.008	311.73
437.449	290.67
437.891	353.86
438.332	262.58
438.773	297.69
439.214	285.98
439.656	367.9
440.097	349.18
440.538	260.24
440.978	232.15
441.419	281.3
441.86	295.35
442.301	304.71
442.742	250.88
443.182	264.92
443.623	311.73
444.063	276.62
444.504	300.03
444.944	339.82
445.385	290.67
445.825	300.03
446.265	253.22
446.706	372.58
447.146	318.75
447.586	311.73
448.026	269.6
448.466	283.64
448.906	335.14
449.346	316.41
449.786	243.85
450.225	335.14
450.665	328.11
451.105	353.86
451.544	288.32
451.984	288.32
452.424	311.73
452.863	330.45
453.302	321.09
453.742	353.86
454.181	316.41
454.62	323.43
455.059	262.58
455.499	267.26
455.938	325.77
456.377	311.73
456.816	332.79
457.254	278.96
457.693	323.43
458.132	297.69
458.571	300.03
459.01	304.71
459.448	316.41
459.887	342.16
460.325	330.45
460.764	293.01
461.202	342.16
461.641	311.73
462.079	337.48
462.517	365.56
462.955	374.92
463.393	356.2
463.832	281.3
464.27	283.64
464.708	311.73
465.145	316.41
465.583	316.41
466.021	325.77
466.459	360.88
466.897	342.16
467.334	321.09
467.772	325.77
468.209	208.75
468.647	314.07
469.084	351.52
469.522	253.22
469.959	293.01
470.396	271.94
470.833	295.35
471.271	248.54
471.708	363.22
472.145	300.03
472.582	335.14
473.019	360.88
473.456	257.9
473.892	278.96
474.329	307.05
474.766	227.47
475.202	328.11
475.639	225.13
476.076	335.14
476.512	297.69
476.949	346.84
477.385	325.77
477.821	302.37
478.258	293.01
478.694	278.96
479.13	372.58
479.566	311.73
480.002	271.94
480.438	281.3
480.874	274.28
481.31	302.37
481.746	318.75
482.181	325.77
482.617	325.77
483.053	328.11
483.488	295.35
483.924	325.77
484.36	311.73
484.795	302.37
485.23	330.45
485.666	318.75
486.101	274.28
486.536	332.79
486.971	295.35
487.407	262.58
487.842	250.88
488.277	351.52
488.712	271.94
489.146	285.98
489.581	349.18
490.016	311.73
490.451	295.35
490.885	269.6
491.32	342.16
491.755	328.11
492.189	337.48
492.624	314.07
493.058	372.58
493.492	285.98
493.927	335.14
494.361	321.09
494.795	281.3
495.229	335.14
495.663	370.24
496.097	349.18
496.531	262.58
496.965	288.32
497.399	335.14
497.833	276.62
498.266	304.71
498.7	307.05
499.134	264.92
499.567	307.05
500.001	285.98
500.434	300.03
500.868	283.64
501.301	328.11
501.734	274.28
502.168	370.24
502.601	274.28
503.034	346.84
503.467	335.14
503.9	281.3
504.333	300.03
504.766	304.71
505.199	367.9
505.632	344.5
506.064	255.56
506.497	344.5
506.93	281.3
507.362	290.67
507.795	344.5
508.227	388.97
508.66	302.37
509.092	232.15
509.524	260.24
509.956	307.05
510.389	253.22
510.821	365.56
511.253	278.96
511.685	358.54
512.117	288.32
512.549	353.86
512.981	316.41
513.412	325.77
513.844	295.35
514.276	381.95
514.707	381.95
515.139	283.64
515.571	330.45
516.002	328.11
516.433	358.54
516.865	316.41
517.296	360.88
517.727	328.11
518.159	363.22
518.59	285.98
519.021	250.88
519.452	300.03
519.883	293.01
520.314	302.37
520.744	351.52
521.175	297.69
521.606	293.01
522.037	351.52
522.467	290.67
522.898	285.98
523.328	269.6
523.759	342.16
524.189	304.71
524.62	321.09
525.05	337.48
525.48	321.09
525.91	314.07
526.341	318.75
526.771	309.39
527.201	288.32
527.631	332.79
528.061	276.62
528.49	283.64
528.92	321.09
529.35	311.73
529.78	356.2
530.209	328.11
530.639	328.11
531.068	276.62
531.498	323.43
531.927	302.37
532.357	274.28
532.786	316.41
533.215	309.39
533.644	295.35
534.074	271.94
534.503	253.22
534.932	255.56
535.361	321.09
535.79	304.71
536.218	316.41
536.647	297.69
537.076	318.75
537.505	365.56
537.933	365.56
538.362	264.92
538.79	255.56
539.219	288.32
539.647	316.41
540.076	278.96
540.504	365.56
540.932	309.39
541.36	307.05
541.788	302.37
542.217	278.96
542.645	269.6
543.073	302.37
543.5	339.82
543.928	295.35
544.356	321.09
544.784	288.32
545.211	337.48
545.639	384.29
546.067	281.3
546.494	300.03
546.922	321.09
547.349	302.37
547.776	335.14
548.204	335.14
548.631	283.64
549.058	374.92
549.485	328.11
549.912	274.28
550.339	311.73
550.766	285.98
551.193	381.95
551.62	367.9
552.047	295.35
552.474	323.43
552.9	271.94
553.327	335.14
553.754	285.98
554.18	328.11
554.607	346.84
555.033	325.77
555.459	330.45
555.886	285.98
556.312	335.14
556.738	288.32
557.164	264.92
557.59	300.03
558.016	332.79
558.442	339.82
558.868	293.01
559.294	314.07
559.72	344.5
560.145	271.94
560.571	281.3
560.997	285.98
561.422	295.35
561.848	335.14
562.273	335.14
562.699	316.41
563.124	314.07
563.549	295.35
563.974	321.09
564.4	335.14
564.825	260.24
565.25	300.03
565.675	295.35
566.1	328.11
566.525	274.28
566.95	330.45
567.374	344.5
567.799	342.16
568.224	344.5
568.648	285.98
569.073	328.11
569.497	316.41
569.922	281.3
570.346	344.5
570.771	337.48
571.195	349.18
571.619	325.77
572.043	316.41
572.467	307.05
572.891	344.5
573.315	328.11
573.739	381.95
574.163	316.41
574.587	325.77
575.011	363.22
575.435	349.18
575.858	307.05
576.282	236.83
576.705	274.28
577.129	283.64
577.552	281.3
577.976	316.41
578.399	215.77
578.822	332.79
579.245	356.2
579.669	283.64
580.092	330.45
580.515	381.95
580.938	285.98
581.361	339.82
581.784	318.75
582.206	295.35
582.629	302.37
583.052	388.97
583.474	295.35
583.897	255.56
584.32	285.98
584.742	262.58
585.165	304.71
585.587	225.13
586.009	229.81
586.431	271.94
586.854	316.41
587.276	300.03
587.698	335.14
588.12	309.39
588.542	321.09
588.964	260.24
589.386	321.09
589.807	339.82
590.229	264.92
590.651	239.17
591.073	321.09
591.494	323.43
591.916	267.26
592.337	243.85
592.759	276.62
593.18	332.79
593.601	276.62
594.022	318.75
594.444	311.73
594.865	337.48
595.286	271.94
595.707	300.03
596.128	339.82
596.549	290.67
596.97	302.37
597.39	293.01
597.811	269.6
598.232	304.71
598.652	325.77
599.073	323.43
599.494	281.3
599.914	386.63
600.334	211.09
600.755	302.37
601.175	229.81
601.595	278.96
602.015	314.07
602.436	323.43
602.856	431.1
603.276	309.39
603.696	255.56
604.115	318.75
604.535	267.26
604.955	222.79
605.375	381.95
605.794	267.26
606.214	288.32
606.634	239.17
607.053	218.11
607.473	255.56
607.892	271.94
608.311	307.05
608.731	281.3
609.15	318.75
609.569	304.71
609.988	297.69
610.407	330.45
610.826	335.14
611.245	302.37
611.664	285.98
612.083	302.37
612.501	309.39
612.92	311.73
613.339	295.35
613.757	318.75
614.176	337.48
614.594	293.01
615.013	248.54
615.431	332.79
615.85	335.14
616.268	311.73
616.686	318.75
617.104	346.84
617.522	356.2
617.94	297.69
618.358	351.52
618.776	288.32
619.194	283.64
619.612	260.24
620.03	297.69
620.447	384.29
620.865	321.09
621.282	309.39
621.7	372.58
622.117	293.01
622.535	349.18
622.952	304.71
623.369	325.77
623.787	330.45
624.204	290.67
624.621	309.39
625.038	309.39
625.455	321.09
625.872	290.67
626.289	395.99
626.706	325.77
627.123	274.28
627.539	309.39
627.956	255.56
628.373	262.58
628.789	288.32
629.206	332.79
629.622	297.69
630.038	337.48
630.455	311.73
630.871	293.01
631.287	295.35
631.703	307.05
632.12	325.77
632.536	271.94
632.952	229.81
633.368	309.39
633.783	311.73
634.199	325.77
634.615	297.69
635.031	257.9
635.446	260.24
635.862	206.41
636.277	307.05
636.693	335.14
637.108	215.77
637.524	325.77
637.939	293.01
638.354	311.73
638.77	293.01
639.185	330.45
639.6	311.73
640.015	309.39
640.43	309.39
640.845	281.3
641.259	300.03
641.674	290.67
642.089	269.6
642.504	330.45
642.918	307.05
643.333	316.41
643.747	246.2
644.162	302.37
644.576	360.88
644.991	302.37
645.405	344.5
645.819	304.71
646.233	295.35
646.647	285.98
647.061	328.11
647.475	316.41
647.889	243.85
648.303	248.54
648.717	332.79
649.131	335.14
649.545	307.05
649.958	316.41
650.372	285.98
650.785	304.71
651.199	311.73
651.612	260.24
652.026	321.09
652.439	314.07
652.852	267.26
653.266	356.2
653.679	297.69
654.092	285.98
654.505	309.39
654.918	276.62
655.331	274.28
655.744	344.5
656.156	300.03
656.569	288.32
656.982	309.39
657.394	309.39
657.807	344.5
658.22	302.37
658.632	363.22
659.044	269.6
659.457	335.14
659.869	260.24
660.281	281.3
660.693	307.05
661.106	264.92
661.518	302.37
661.93	288.32
662.342	278.96
662.754	325.77
663.165	285.98
663.577	276.62
663.989	278.96
664.401	302.37
664.812	330.45
665.224	262.58
665.635	290.67
666.047	321.09
666.458	323.43
666.869	285.98
667.281	288.32
667.692	330.45
668.103	304.71
668.514	346.84
668.925	370.24
669.336	264.92
669.747	323.43
670.158	328.11
670.569	288.32
670.979	323.43
671.39	271.94
671.801	346.84
672.211	335.14
672.622	307.05
673.032	351.52
673.443	283.64
673.853	236.83
674.263	264.92
674.674	269.6
675.084	314.07
675.494	290.67
675.904	309.39
676.314	337.48
676.724	246.2
677.134	304.71
677.544	302.37
677.953	321.09
678.363	339.82
678.773	328.11
679.182	300.03
679.592	309.39
680.001	304.71
680.411	276.62
680.82	302.37
681.23	297.69
681.639	274.28
682.048	290.67
682.457	309.39
682.866	309.39
683.275	293.01
683.684	337.48
684.093	264.92
684.502	278.96
684.911	293.01
685.32	300.03
685.728	288.32
686.137	337.48
686.546	269.6
686.954	267.26
687.363	330.45
687.771	363.22
688.179	278.96
688.588	391.31
688.996	281.3
689.404	253.22
689.812	307.05
690.22	269.6
690.628	311.73
691.036	250.88
691.444	255.56
691.852	344.5
692.26	335.14
692.667	370.24
693.075	307.05
693.483	318.75
693.89	325.77
694.298	335.14
694.705	267.26
695.112	335.14
695.52	321.09
695.927	269.6
696.334	269.6
696.741	295.35
697.148	288.32
697.555	271.94
697.962	339.82
698.369	330.45
698.776	360.88
699.183	339.82
699.59	363.22
699.996	276.62
700.403	318.75
700.81	281.3
701.216	304.71
701.623	311.73
702.029	285.98
702.435	293.01
702.842	335.14
703.248	332.79
703.654	328.11
704.06	285.98
704.466	328.11
704.872	297.69
705.278	314.07
705.684	293.01
706.09	257.9
706.496	283.64
706.901	311.73
707.307	318.75
707.712	290.67
708.118	239.17
708.523	309.39
708.929	379.61
709.334	335.14
709.74	293.01
710.145	239.17
710.55	335.14
710.955	337.48
711.36	330.45
711.765	337.48
712.17	314.07
712.575	363.22
712.98	709.62
713.385	365.56
713.789	227.47
714.194	257.9
714.599	269.6
715.003	316.41
715.408	330.45
715.812	295.35
716.217	290.67
716.621	325.77
717.025	283.64
717.429	295.35
717.833	234.49
718.238	269.6
718.642	288.32
719.046	295.35
719.449	285.98
719.853	316.41
720.257	386.63
720.661	302.37
721.065	374.92
721.468	300.03
721.872	293.01
722.275	300.03
722.679	271.94
723.082	278.96
723.485	283.64
723.889	309.39
724.292	311.73
724.695	297.69
725.098	330.45
725.501	290.67
725.904	358.54
726.307	356.2
726.71	321.09
727.113	290.67
727.516	297.69
727.918	290.67
728.321	307.05
728.724	342.16
729.126	293.01
729.529	367.9
729.931	311.73
730.333	278.96
730.736	323.43
731.138	239.17
731.54	314.07
731.942	300.03
732.344	316.41
732.746	351.52
733.148	384.29
733.55	300.03
733.952	260.24
734.354	363.22
734.756	243.85
735.157	269.6
735.559	335.14
735.96	307.05
736.362	246.2
736.763	260.24
737.165	321.09
737.566	335.14
737.967	288.32
738.368	374.92
738.77	264.92
739.171	337.48
739.572	330.45
739.973	302.37
740.374	344.5
740.774	290.67
741.175	307.05
741.576	257.9
741.977	239.17
742.377	330.45
742.778	335.14
743.178	293.01
743.579	370.24
743.979	304.71
744.379	314.07
744.78	283.64
745.18	346.84
745.58	314.07
745.98	337.48
746.38	328.11
746.78	379.61
747.18	288.32
747.58	337.48
747.98	311.73
748.38	297.69
748.779	285.98
749.179	302.37
749.578	288.32
749.978	281.3
750.377	241.51
750.777	300.03
751.176	309.39
751.575	307.05
751.975	264.92
752.374	293.01
752.773	278.96
753.172	293.01
753.571	255.56
753.97	328.11
754.369	323.43
754.768	344.5
755.166	342.16
755.565	314.07
755.964	358.54
756.362	342.16
756.761	311.73
757.159	323.43
757.558	309.39
757.956	314.07
758.354	323.43
758.753	281.3
759.151	271.94
759.549	264.92
759.947	285.98
760.345	351.52
760.743	297.69
761.141	278.96
761.539	342.16
761.936	220.45
762.334	295.35
762.732	311.73
763.129	311.73
763.527	271.94
763.924	309.39
764.322	314.07
764.719	271.94
765.117	360.88
765.514	311.73
765.911	264.92
766.308	290.67
766.705	264.92
767.102	295.35
767.499	276.62
767.896	281.3
768.293	349.18
768.69	281.3
769.086	290.67
769.483	281.3
769.88	344.5
770.276	276.62
770.673	363.22
771.069	353.86
771.466	311.73
771.862	339.82
772.258	234.49
772.654	278.96
773.05	358.54
773.447	342.16
773.843	300.03
774.239	330.45
774.634	316.41
775.03	300.03
775.426	257.9
775.822	264.92
776.218	309.39
776.613	260.24
777.009	349.18
777.404	281.3
777.8	267.26
778.195	316.41
778.59	255.56
778.986	309.39
779.381	311.73
779.776	201.72
780.171	274.28
780.566	328.11
780.961	293.01
781.356	290.67
781.751	257.9
782.146	300.03
782.54	321.09
782.935	314.07
783.33	288.32
783.724	248.54
784.119	293.01
784.513	300.03
784.908	323.43
785.302	335.14
785.696	248.54
786.09	248.54
786.485	269.6
786.879	253.22
787.273	278.96
787.667	300.03
788.061	300.03
788.454	293.01
788.848	316.41
789.242	250.88
789.636	302.37
790.029	278.96
790.423	300.03
790.816	260.24
791.21	316.41
791.603	295.35
791.997	311.73
792.39	255.56
792.783	367.9
793.176	283.64
793.569	257.9
793.962	318.75
794.355	318.75
794.748	314.07
795.141	323.43
795.534	318.75
795.927	288.32
796.319	330.45
796.712	351.52
797.105	328.11
797.497	311.73
797.89	274.28
798.282	323.43
798.674	314.07
799.067	274.28
799.459	271.94
799.851	314.07
800.243	281.3
800.635	337.48
801.027	328.11
801.419	339.82
801.811	295.35
802.203	283.64
802.594	260.24
802.986	278.96
803.378	285.98
803.769	225.13
804.161	285.98
804.552	288.32
804.944	264.92
805.335	281.3
805.726	339.82
806.118	351.52
806.509	293.01
806.9	271.94
807.291	274.28
807.682	314.07
808.073	318.75
808.464	257.9
808.855	297.69
809.245	323.43
809.636	300.03
810.027	325.77
810.417	262.58
810.808	372.58
811.198	300.03
811.589	325.77
811.979	330.45
812.369	349.18
812.759	278.96
813.15	325.77
813.54	250.88
813.93	309.39
814.32	300.03
814.71	311.73
815.1	278.96
815.489	335.14
815.879	246.2
816.269	255.56
816.658	342.16
817.048	274.28
817.438	232.15
817.827	262.58
818.216	234.49
818.606	239.17
818.995	309.39
819.384	283.64
819.773	302.37
820.163	302.37
820.552	309.39
820.941	325.77
821.33	332.79
821.718	337.48
822.107	253.22
822.496	321.09
822.885	377.27
823.273	384.29
823.662	311.73
824.05	321.09
824.439	285.98
824.827	253.22
825.216	316.41
825.604	295.35
825.992	309.39
826.38	290.67
826.768	344.5
827.156	250.88
827.544	267.26
827.932	325.77
828.32	302.37
828.708	325.77
829.096	316.41
829.483	234.49
829.871	330.45
830.259	332.79
830.646	293.01
831.034	264.92
831.421	316.41
831.808	248.54
832.196	276.62
832.583	248.54
832.97	290.67
833.357	269.6
833.744	300.03
834.131	257.9
834.518	229.81
834.905	218.11
835.292	194.7
835.678	255.56
836.065	309.39
836.452	304.71
836.838	262.58
837.225	278.96
837.611	285.98
837.998	344.5
838.384	281.3
838.77	288.32
839.157	250.88
839.543	304.71
839.929	307.05
840.315	293.01
840.701	264.92
841.087	344.5
841.473	328.11
841.858	307.05
842.244	346.84
842.63	290.67
843.015	269.6
843.401	541.1
843.787	353.86
844.172	283.64
844.557	297.69
844.943	288.32
845.328	297.69
845.713	311.73
846.098	239.17
846.483	330.45
846.868	302.37
847.253	344.5
847.638	267.26
848.023	281.3
848.408	276.62
848.793	337.48
849.177	264.92
849.562	314.07
849.947	344.5
850.331	309.39
850.715	321.09
851.1	360.88
851.484	332.79
851.868	311.73
852.253	283.64
852.637	262.58
853.021	248.54
853.405	323.43
853.789	337.48
854.173	281.3
854.557	353.86
854.94	337.48
855.324	295.35
855.708	260.24
856.091	264.92
856.475	307.05
856.858	250.88
857.242	300.03
857.625	353.86
858.009	342.16
858.392	349.18
858.775	241.51
859.158	367.9
859.541	269.6
859.924	271.94
860.307	323.43
860.69	283.64
861.073	365.56
861.456	311.73
861.838	330.45
862.221	314.07
862.604	328.11
862.986	232.15
863.369	276.62
863.751	262.58
864.133	285.98
864.516	325.77
864.898	260.24
865.28	342.16
865.662	307.05
866.044	276.62
866.426	335.14
866.808	316.41
867.19	323.43
867.572	358.54
867.954	300.03
868.336	283.64
868.717	321.09
869.099	318.75
869.48	342.16
869.862	302.37
870.243	248.54
870.625	328.11
871.006	297.69
871.387	290.67
871.768	342.16
872.149	295.35
872.53	316.41
872.911	316.41
873.292	293.01
873.673	285.98
874.054	267.26
874.435	194.7
874.815	232.15
875.196	304.71
875.577	267.26
875.957	365.56
876.338	283.64
876.718	386.63
877.098	248.54
877.479	351.52
877.859	293.01
878.239	276.62
878.619	290.67
878.999	262.58
879.379	290.67
879.759	356.2
880.139	309.39
880.519	288.32
880.898	293.01
881.278	297.69
881.658	293.01
882.037	307.05
882.417	316.41
882.796	309.39
883.176	297.69
883.555	267.26
883.934	316.41
884.313	358.54
884.693	274.28
885.072	274.28
885.451	300.03
885.83	311.73
886.209	332.79
886.587	342.16
886.966	346.84
887.345	316.41
887.724	309.39
888.102	332.79
888.481	267.26
888.859	246.2
889.238	222.79
889.616	302.37
889.994	271.94
890.373	281.3
890.751	276.62
891.129	288.32
891.507	295.35
891.885	278.96
892.263	274.28
892.641	346.84
893.019	293.01
893.396	290.67
893.774	297.69
894.152	332.79
894.529	283.64
894.907	281.3
895.284	278.96
895.662	363.22
896.039	281.3
896.416	328.11
896.794	288.32
897.171	269.6
897.548	307.05
897.925	236.83
898.302	250.88
898.679	293.01
899.056	283.64
899.433	321.09
899.809	234.49
900.186	307.05
900.563	290.67
900.939	290.67
901.316	309.39
901.692	307.05
902.069	339.82
902.445	264.92
902.821	335.14
903.197	339.82
903.574	335.14
903.95	281.3
904.326	285.98
904.702	302.37
905.078	267.26
905.454	330.45
905.829	367.9
906.205	300.03
906.581	323.43
906.956	318.75
907.332	285.98
907.707	271.94
908.083	278.96
908.458	309.39
908.833	232.15
909.209	285.98
909.584	293.01
909.959	330.45
910.334	288.32
910.709	288.32
911.084	360.88
911.459	276.62
911.834	271.94
912.209	218.11
912.583	264.92
912.958	337.48
913.333	300.03
913.707	283.64
914.082	332.79
914.456	309.39
914.83	293.01
915.205	297.69
915.579	309.39
915.953	253.22
916.327	311.73
916.701	300.03
917.075	330.45
917.449	288.32
917.823	288.32
918.197	281.3
918.571	335.14
918.944	271.94
919.318	255.56
919.692	335.14
920.065	330.45
920.438	302.37
920.812	264.92
921.185	304.71
921.558	269.6
921.932	276.62
922.305	356.2
922.678	323.43
923.051	323.43
923.424	278.96
923.797	323.43
924.17	269.6
924.542	281.3
924.915	276.62
925.288	297.69
925.661	281.3
926.033	264.92
926.406	288.32
926.778	304.71
927.15	349.18
927.523	250.88
927.895	295.35
928.267	316.41
928.639	229.81
929.011	365.56
929.383	293.01
929.755	346.84
930.127	293.01
930.499	328.11
930.871	250.88
931.242	267.26
931.614	264.92
931.986	276.62
932.357	297.69
932.729	330.45
933.1	295.35
933.471	314.07
933.843	285.98
934.214	330.45
934.585	295.35
934.956	262.58
935.327	285.98
935.698	257.9
936.069	314.07
936.44	300.03
936.811	269.6
937.182	290.67
937.552	300.03
937.923	234.49
938.293	278.96
938.664	260.24
939.034	330.45
939.405	283.64
939.775	325.77
940.145	278.96
940.516	325.77
940.886	314.07
941.256	285.98
941.626	344.5
941.996	349.18
942.366	302.37
942.735	323.43
943.105	365.56
943.475	377.27
943.845	323.43
944.214	384.29
944.584	262.58
944.953	297.69
945.323	318.75
945.692	342.16
946.061	321.09
946.43	283.64
946.8	321.09
947.169	307.05
947.538	215.77
947.907	285.98
948.276	206.41
948.645	346.84
949.013	260.24
949.382	307.05
949.751	276.62
950.119	339.82
950.488	274.28
950.857	316.41
951.225	372.58
951.593	304.71
951.962	323.43
952.33	342.16
952.698	288.32
953.066	344.5
953.434	276.62
953.802	290.67
954.17	300.03
954.538	316.41
954.906	311.73
955.274	346.84
955.642	297.69
956.009	264.92
956.377	274.28
956.744	248.54
957.112	297.69
957.479	255.56
957.847	300.03
958.214	300.03
958.581	318.75
958.948	335.14
959.315	215.77
959.683	293.01
960.05	316.41
960.416	335.14
960.783	307.05
961.15	297.69
961.517	285.98
961.884	274.28
962.25	302.37
962.617	194.7
962.983	260.24
963.35	267.26
963.716	257.9
964.082	285.98
964.449	325.77
964.815	363.22
965.181	318.75
965.547	314.07
965.913	290.67
966.279	274.28
966.645	316.41
967.011	293.01
967.377	314.07
967.742	278.96
968.108	351.52
968.474	236.83
968.839	281.3
969.205	332.79
969.57	344.5
969.935	309.39
970.301	281.3
970.666	269.6
971.031	346.84
971.396	274.28
971.761	288.32
972.126	260.24
972.491	250.88
972.856	260.24
973.221	300.03
973.586	278.96
973.95	264.92
974.315	297.69
974.679	316.41
975.044	372.58
975.408	283.64
975.773	304.71
976.137	311.73
976.501	330.45
976.866	311.73
977.23	257.9
977.594	281.3
977.958	285.98
978.322	243.85
978.686	220.45
979.049	314.07
979.413	278.96
979.777	257.9
980.141	264.92
980.504	300.03
980.868	201.72
981.231	227.47
981.595	314.07
981.958	271.94
982.321	236.83
982.684	276.62
983.048	290.67
983.411	271.94
983.774	297.69
984.137	281.3
984.5	314.07
984.862	349.18
985.225	274.28
985.588	278.96
985.951	321.09
986.313	318.75
986.676	309.39
987.038	276.62
987.401	321.09
987.763	314.07
988.125	255.56
988.488	302.37
988.85	342.16
989.212	304.71
989.574	309.39
989.936	271.94
990.298	314.07
990.66	304.71
991.022	285.98
991.383	297.69
991.745	325.77
992.107	285.98
992.468	300.03
992.83	271.94
993.191	335.14
993.553	288.32
993.914	257.9
994.275	363.22
994.637	321.09
994.998	264.92
995.359	260.24
995.72	328.11
996.081	293.01
996.442	295.35
996.803	276.62
997.163	330.45
997.524	260.24
997.885	309.39
998.245	257.9
998.606	309.39
998.966	337.48
999.327	297.69
999.687	269.6
1000.047	257.9
1000.408	302.37
1000.768	283.64
1001.128	269.6
1001.488	293.01
1001.848	356.2
1002.208	257.9
1002.568	271.94
1002.927	349.18
1003.287	304.71
1003.647	325.77
1004.007	257.9
1004.366	288.32
1004.726	300.03
1005.085	304.71
1005.444	316.41
1005.804	328.11
1006.163	283.64
1006.522	274.28
1006.881	257.9
1007.24	288.32
1007.599	293.01
1007.958	281.3
1008.317	328.11
1008.676	328.11
1009.035	363.22
1009.393	351.52
1009.752	344.5
1010.111	307.05
1010.469	260.24
1010.828	316.41
1011.186	285.98
1011.544	274.28
1011.903	274.28
1012.261	363.22
1012.619	311.73
1012.977	295.35
1013.335	342.16
1013.693	276.62
1014.051	274.28
1014.409	346.84
1014.767	281.3
1015.124	290.67
1015.482	323.43
1015.84	234.49
1016.197	283.64
1016.555	325.77
1016.912	274.28
1017.269	328.11
1017.627	311.73
1017.984	285.98
1018.341	297.69
1018.698	304.71
1019.055	344.5
1019.412	271.94
1019.769	243.85
1020.126	260.24
1020.483	332.79
1020.84	293.01
1021.196	260.24
1021.553	293.01
1021.909	330.45
1022.266	253.22
1022.622	318.75
1022.979	325.77
1023.335	318.75
1023.691	295.35
1024.047	297.69
1024.404	316.41
1024.76	353.86
1025.116	316.41
1025.472	318.75
1025.827	293.01
1026.183	321.09
1026.539	283.64
1026.895	325.77
1027.25	255.56
1027.606	253.22
1027.961	248.54
1028.317	318.75
1028.672	278.96
1029.028	342.16
1029.383	283.64
1029.738	267.26
1030.093	283.64
1030.448	297.69
1030.803	318.75
1031.158	267.26
1031.513	356.2
1031.868	257.9
1032.223	339.82
1032.577	269.6
1032.932	314.07
1033.287	330.45
1033.641	281.3
1033.996	346.84
1034.35	232.15
1034.704	262.58
1035.059	332.79
1035.413	344.5
1035.767	344.5
1036.121	344.5
