Data from Al_FLMS009871__615__14-47-57-314.txt Node

Date: Fri Mar 08 14:47:57 CST 2024
User: pe5414po
Spectrometer: FLMS00987
Trigger mode: 0
Integration Time (sec): 1.000000E-1
Scans to average: 1
Electric dark correction enabled: true
Nonlinearity correction enabled: false
Boxcar width: 0
XAxis mode: Wavelengths
Number of Pixels in Spectrum: 2048
>>>>>Begin Spectral Data<<<<<
188.938	-44.91
189.409	-44.91
189.879	-44.91
190.349	-126.83
190.819	-119.81
191.29	-124.49
191.76	-87.04
192.23	-129.17
192.7	-68.31
193.17	-68.31
193.64	-0.44
194.109	-33.21
194.579	-16.82
195.049	-33.21
195.519	4.24
195.988	13.6
196.458	86.16
196.927	72.12
197.397	123.61
197.866	137.65
198.336	123.61
198.805	203.19
199.274	93.18
199.744	179.78
200.213	168.08
200.682	193.83
201.151	214.89
201.62	228.93
202.089	217.23
202.558	271.06
203.027	280.43
203.495	271.06
203.964	301.49
204.433	235.96
204.902	294.47
205.37	313.19
205.839	355.32
206.307	278.08
206.776	268.72
207.244	264.04
207.712	362.34
208.181	238.3
208.649	285.11
209.117	294.47
209.585	306.17
210.053	280.43
210.521	240.64
210.989	324.9
211.457	273.4
211.925	247.66
212.393	285.11
212.861	299.15
213.328	294.47
213.796	235.96
214.264	179.78
214.731	338.94
215.199	247.66
215.666	315.53
216.133	273.4
216.601	310.85
217.068	245.32
217.535	264.04
218.003	214.89
218.47	254.68
218.937	240.64
219.404	273.4
219.871	235.96
220.338	247.66
220.805	217.23
221.271	252.34
221.738	254.68
222.205	254.68
222.671	264.04
223.138	226.59
223.605	299.15
224.071	221.91
224.538	235.96
225.004	306.17
225.47	296.81
225.937	219.57
226.403	242.98
226.869	334.26
227.335	247.66
227.801	308.51
228.267	254.68
228.733	242.98
229.199	182.12
229.665	329.58
230.131	252.34
230.597	254.68
231.062	271.06
231.528	226.59
231.994	221.91
232.459	196.17
232.925	264.04
233.39	233.61
233.856	226.59
234.321	238.3
234.786	252.34
235.252	250
235.717	289.79
236.182	212.55
236.647	268.72
237.112	261.7
237.577	271.06
238.042	289.79
238.507	322.56
238.972	247.66
239.436	257.02
239.901	280.43
240.366	224.25
240.83	259.36
241.295	320.21
241.76	282.77
242.224	266.38
242.688	261.7
243.153	242.98
243.617	259.36
244.081	282.77
244.545	278.08
245.01	233.61
245.474	238.3
245.938	247.66
246.402	296.81
246.866	271.06
247.33	280.43
247.793	268.72
248.257	287.45
248.721	219.57
249.185	275.74
249.648	266.38
250.112	350.64
250.575	228.93
251.039	226.59
251.502	235.96
251.965	245.32
252.429	189.14
252.892	310.85
253.355	273.4
253.818	264.04
254.281	254.68
254.744	287.45
255.207	268.72
255.67	231.27
256.133	264.04
256.596	268.72
257.059	228.93
257.522	285.11
257.984	242.98
258.447	315.53
258.909	285.11
259.372	235.96
259.834	329.58
260.297	252.34
260.759	271.06
261.221	259.36
261.684	250
262.146	287.45
262.608	252.34
263.07	308.51
263.532	308.51
263.994	233.61
264.456	317.87
264.918	275.74
265.38	275.74
265.842	331.92
266.303	313.19
266.765	280.43
267.227	329.58
267.688	221.91
268.15	240.64
268.611	235.96
269.072	242.98
269.534	329.58
269.995	266.38
270.456	285.11
270.918	264.04
271.379	350.64
271.84	315.53
272.301	315.53
272.762	231.27
273.223	268.72
273.684	268.72
274.144	261.7
274.605	214.89
275.066	294.47
275.527	322.56
275.987	247.66
276.448	261.7
276.908	275.74
277.369	306.17
277.829	235.96
278.289	221.91
278.75	242.98
279.21	306.17
279.67	285.11
280.13	250
280.59	275.74
281.05	233.61
281.51	252.34
281.97	376.39
282.43	238.3
282.89	301.49
283.35	261.7
283.809	252.34
284.269	240.64
284.729	352.98
285.188	338.94
285.648	238.3
286.107	257.02
286.567	257.02
287.026	252.34
287.485	338.94
287.944	329.58
288.404	264.04
288.863	250
289.322	275.74
289.781	357.66
290.24	231.27
290.699	310.85
291.158	275.74
291.616	250
292.075	268.72
292.534	285.11
292.992	264.04
293.451	320.21
293.91	285.11
294.368	322.56
294.827	334.26
295.285	301.49
295.743	301.49
296.202	282.77
296.66	268.72
297.118	322.56
297.576	268.72
298.034	259.36
298.492	329.58
298.95	350.64
299.408	259.36
299.866	280.43
300.324	336.6
300.781	334.26
301.239	259.36
301.697	308.51
302.154	285.11
302.612	271.06
303.069	313.19
303.527	210.21
303.984	355.32
304.441	278.08
304.899	303.83
305.356	268.72
305.813	324.9
306.27	313.19
306.727	313.19
307.184	268.72
307.641	275.74
308.098	271.06
308.555	278.08
309.012	292.13
309.468	289.79
309.925	282.77
310.382	275.74
310.838	242.98
311.295	296.81
311.751	252.34
312.208	282.77
312.664	250
313.12	228.93
313.577	280.43
314.033	224.25
314.489	301.49
314.945	289.79
315.401	212.55
315.857	289.79
316.313	289.79
316.769	273.4
317.225	261.7
317.681	252.34
318.136	294.47
318.592	308.51
319.048	315.53
319.503	280.43
319.959	285.11
320.414	306.17
320.869	327.24
321.325	275.74
321.78	257.02
322.235	282.77
322.691	308.51
323.146	303.83
323.601	235.96
324.056	240.64
324.511	240.64
324.966	289.79
325.421	296.81
325.875	235.96
326.33	299.15
326.785	322.56
327.24	317.87
327.694	317.87
328.149	278.08
328.603	224.25
329.058	324.9
329.512	257.02
329.966	266.38
330.421	327.24
330.875	299.15
331.329	299.15
331.783	264.04
332.237	292.13
332.691	294.47
333.145	317.87
333.599	233.61
334.053	343.62
334.507	367.03
334.96	320.21
335.414	289.79
335.868	303.83
336.321	261.7
336.775	282.77
337.228	282.77
337.682	327.24
338.135	273.4
338.588	289.79
339.042	296.81
339.495	282.77
339.948	303.83
340.401	362.34
340.854	275.74
341.307	350.64
341.76	235.96
342.213	301.49
342.666	313.19
343.119	254.68
343.571	282.77
344.024	282.77
344.477	320.21
344.929	282.77
345.382	315.53
345.834	296.81
346.287	254.68
346.739	245.32
347.191	296.81
347.644	327.24
348.096	261.7
348.548	282.77
349	352.98
349.452	336.6
349.904	303.83
350.356	317.87
350.808	296.81
351.26	317.87
351.711	313.19
352.163	278.08
352.615	271.06
353.066	271.06
353.518	280.43
353.969	315.53
354.421	308.51
354.872	327.24
355.324	228.93
355.775	303.83
356.226	261.7
356.677	294.47
357.128	317.87
357.579	329.58
358.03	235.96
358.481	247.66
358.932	278.08
359.383	271.06
359.834	296.81
360.285	259.36
360.735	296.81
361.186	257.02
361.637	388.09
362.087	252.34
362.538	355.32
362.988	285.11
363.438	334.26
363.889	231.27
364.339	271.06
364.789	289.79
365.239	348.3
365.689	331.92
366.139	327.24
366.589	299.15
367.039	285.11
367.489	367.03
367.939	306.17
368.389	331.92
368.839	266.38
369.288	245.32
369.738	329.58
370.187	233.61
370.637	287.45
371.086	217.23
371.536	338.94
371.985	259.36
372.434	285.11
372.884	364.68
373.333	315.53
373.782	324.9
374.231	331.92
374.68	250
375.129	303.83
375.578	238.3
376.027	289.79
376.475	310.85
376.924	317.87
377.373	338.94
377.822	296.81
378.27	289.79
378.719	381.07
379.167	266.38
379.616	334.26
380.064	266.38
380.512	275.74
380.961	327.24
381.409	310.85
381.857	261.7
382.305	315.53
382.753	320.21
383.201	280.43
383.649	357.66
384.097	313.19
384.545	345.96
384.992	310.85
385.44	345.96
385.888	250
386.335	334.26
386.783	303.83
387.231	320.21
387.678	341.28
388.125	308.51
388.573	219.57
389.02	264.04
389.467	250
389.914	254.68
390.362	289.79
390.809	306.17
391.256	259.36
391.703	266.38
392.15	334.26
392.596	224.25
393.043	299.15
393.49	313.19
393.937	287.45
394.383	308.51
394.83	280.43
395.276	285.11
395.723	259.36
396.169	294.47
396.616	294.47
397.062	285.11
397.508	254.68
397.954	313.19
398.401	287.45
398.847	315.53
399.293	296.81
399.739	287.45
400.185	292.13
400.631	289.79
401.076	266.38
401.522	275.74
401.968	280.43
402.414	268.72
402.859	257.02
403.305	301.49
403.75	278.08
404.196	299.15
404.641	275.74
405.086	273.4
405.532	306.17
405.977	275.74
406.422	261.7
406.867	282.77
407.312	287.45
407.757	345.96
408.202	292.13
408.647	294.47
409.092	301.49
409.537	336.6
409.982	285.11
410.426	296.81
410.871	338.94
411.316	306.17
411.76	261.7
412.205	292.13
412.649	271.06
413.093	320.21
413.538	261.7
413.982	285.11
414.426	296.81
414.87	341.28
415.314	362.34
415.758	336.6
416.202	254.68
416.646	322.56
417.09	320.21
417.534	317.87
417.978	252.34
418.421	235.96
418.865	292.13
419.309	235.96
419.752	317.87
420.196	238.3
420.639	329.58
421.083	292.13
421.526	306.17
421.969	299.15
422.412	296.81
422.856	367.03
423.299	310.85
423.742	331.92
424.185	247.66
424.628	322.56
425.071	301.49
425.513	278.08
425.956	287.45
426.399	310.85
426.842	282.77
427.284	338.94
427.727	350.64
428.169	308.51
428.612	329.58
429.054	320.21
429.497	226.59
429.939	334.26
430.381	271.06
430.823	338.94
431.265	329.58
431.707	292.13
432.149	331.92
432.591	341.28
433.033	301.49
433.475	338.94
433.917	315.53
434.359	306.17
434.8	250
435.242	292.13
435.684	301.49
436.125	289.79
436.567	210.21
437.008	266.38
437.449	315.53
437.891	292.13
438.332	252.34
438.773	259.36
439.214	310.85
439.656	266.38
440.097	292.13
440.538	289.79
440.978	322.56
441.419	310.85
441.86	324.9
442.301	287.45
442.742	327.24
443.182	278.08
443.623	320.21
444.063	331.92
444.504	294.47
444.944	275.74
445.385	313.19
445.825	315.53
446.265	371.71
446.706	371.71
447.146	362.34
447.586	250
448.026	266.38
448.466	261.7
448.906	364.68
449.346	285.11
449.786	257.02
450.225	320.21
450.665	299.15
451.105	345.96
451.544	287.45
451.984	301.49
452.424	376.39
452.863	252.34
453.302	322.56
453.742	257.02
454.181	292.13
454.62	296.81
455.059	327.24
455.499	310.85
455.938	338.94
456.377	292.13
456.816	299.15
457.254	327.24
457.693	264.04
458.132	306.17
458.571	334.26
459.01	317.87
459.448	322.56
459.887	254.68
460.325	294.47
460.764	322.56
461.202	275.74
461.641	282.77
462.079	273.4
462.517	259.36
462.955	287.45
463.393	268.72
463.832	235.96
464.27	273.4
464.708	238.3
465.145	242.98
465.583	285.11
466.021	282.77
466.459	273.4
466.897	292.13
467.334	308.51
467.772	324.9
468.209	278.08
468.647	273.4
469.084	282.77
469.522	360
469.959	303.83
470.396	280.43
470.833	278.08
471.271	287.45
471.708	259.36
472.145	320.21
472.582	313.19
473.019	257.02
473.456	313.19
473.892	313.19
474.329	264.04
474.766	329.58
475.202	306.17
475.639	343.62
476.076	282.77
476.512	343.62
476.949	310.85
477.385	294.47
477.821	341.28
478.258	282.77
478.694	331.92
479.13	301.49
479.566	240.64
480.002	301.49
480.438	348.3
480.874	320.21
481.31	334.26
481.746	238.3
482.181	245.32
482.617	348.3
483.053	362.34
483.488	271.06
483.924	296.81
484.36	306.17
484.795	320.21
485.23	294.47
485.666	252.34
486.101	280.43
486.536	341.28
486.971	268.72
487.407	320.21
487.842	242.98
488.277	327.24
488.712	287.45
489.146	303.83
489.581	334.26
490.016	280.43
490.451	341.28
490.885	313.19
491.32	278.08
491.755	289.79
492.189	331.92
492.624	282.77
493.058	282.77
493.492	322.56
493.927	355.32
494.361	357.66
494.795	301.49
495.229	306.17
495.663	301.49
496.097	308.51
496.531	343.62
496.965	301.49
497.399	266.38
497.833	259.36
498.266	303.83
498.7	303.83
499.134	315.53
499.567	324.9
500.001	299.15
500.434	357.66
500.868	259.36
501.301	275.74
501.734	252.34
502.168	331.92
502.601	301.49
503.034	271.06
503.467	273.4
503.9	299.15
504.333	296.81
504.766	296.81
505.199	289.79
505.632	254.68
506.064	271.06
506.497	289.79
506.93	294.47
507.362	336.6
507.795	259.36
508.227	280.43
508.66	271.06
509.092	338.94
509.524	341.28
509.956	247.66
510.389	345.96
510.821	294.47
511.253	338.94
511.685	282.77
512.117	278.08
512.549	280.43
512.981	334.26
513.412	292.13
513.844	315.53
514.276	360
514.707	289.79
515.139	257.02
515.571	343.62
516.002	327.24
516.433	287.45
516.865	289.79
517.296	418.52
517.727	257.02
518.159	252.34
518.59	294.47
519.021	360
519.452	266.38
519.883	329.58
520.314	242.98
520.744	268.72
521.175	301.49
521.606	254.68
522.037	320.21
522.467	247.66
522.898	294.47
523.328	315.53
523.759	226.59
524.189	245.32
524.62	329.58
525.05	301.49
525.48	317.87
525.91	254.68
526.341	240.64
526.771	352.98
527.201	310.85
527.631	327.24
528.061	254.68
528.49	289.79
528.92	257.02
529.35	278.08
529.78	247.66
530.209	282.77
530.639	299.15
531.068	338.94
531.498	257.02
531.927	306.17
532.357	296.81
532.786	378.73
533.215	296.81
533.644	315.53
534.074	285.11
534.503	289.79
534.932	282.77
535.361	299.15
535.79	303.83
536.218	296.81
536.647	308.51
537.076	259.36
537.505	275.74
537.933	301.49
538.362	322.56
538.79	275.74
539.219	303.83
539.647	278.08
540.076	343.62
540.504	296.81
540.932	306.17
541.36	334.26
541.788	322.56
542.217	289.79
542.645	327.24
543.073	308.51
543.5	364.68
543.928	343.62
544.356	331.92
544.784	341.28
545.211	285.11
545.639	360
546.067	289.79
546.494	338.94
546.922	198.51
547.349	282.77
547.776	338.94
548.204	252.34
548.631	334.26
549.058	264.04
549.485	273.4
549.912	264.04
550.339	336.6
550.766	308.51
551.193	329.58
551.62	334.26
552.047	259.36
552.474	238.3
552.9	224.25
553.327	231.27
553.754	350.64
554.18	303.83
554.607	282.77
555.033	252.34
555.459	285.11
555.886	278.08
556.312	352.98
556.738	282.77
557.164	317.87
557.59	273.4
558.016	294.47
558.442	261.7
558.868	292.13
559.294	266.38
559.72	292.13
560.145	292.13
560.571	317.87
560.997	315.53
561.422	324.9
561.848	306.17
562.273	324.9
562.699	299.15
563.124	317.87
563.549	266.38
563.974	257.02
564.4	228.93
564.825	280.43
565.25	294.47
565.675	315.53
566.1	324.9
566.525	334.26
566.95	257.02
567.374	287.45
567.799	345.96
568.224	308.51
568.648	271.06
569.073	320.21
569.497	317.87
569.922	303.83
570.346	238.3
570.771	238.3
571.195	287.45
571.619	280.43
572.043	315.53
572.467	259.36
572.891	282.77
573.315	360
573.739	285.11
574.163	313.19
574.587	299.15
575.011	282.77
575.435	381.07
575.858	292.13
576.282	367.03
576.705	317.87
577.129	278.08
577.552	322.56
577.976	306.17
578.399	282.77
578.822	252.34
579.245	331.92
579.669	287.45
580.092	313.19
580.515	301.49
580.938	210.21
581.361	264.04
581.784	355.32
582.206	376.39
582.629	338.94
583.052	264.04
583.474	287.45
583.897	285.11
584.32	315.53
584.742	282.77
585.165	357.66
585.587	317.87
586.009	221.91
586.431	341.28
586.854	250
587.276	324.9
587.698	275.74
588.12	341.28
588.542	310.85
588.964	303.83
589.386	313.19
589.807	296.81
590.229	292.13
590.651	268.72
591.073	320.21
591.494	352.98
591.916	252.34
592.337	348.3
592.759	257.02
593.18	259.36
593.601	257.02
594.022	322.56
594.444	278.08
594.865	315.53
595.286	313.19
595.707	306.17
596.128	334.26
596.549	308.51
596.97	336.6
597.39	320.21
597.811	275.74
598.232	308.51
598.652	327.24
599.073	331.92
599.494	324.9
599.914	273.4
600.334	350.64
600.755	275.74
601.175	306.17
601.595	271.06
602.015	245.32
602.436	287.45
602.856	352.98
603.276	289.79
603.696	242.98
604.115	367.03
604.535	271.06
604.955	336.6
605.375	280.43
605.794	257.02
606.214	343.62
606.634	303.83
607.053	341.28
607.473	252.34
607.892	329.58
608.311	317.87
608.731	334.26
609.15	310.85
609.569	336.6
609.988	301.49
610.407	313.19
610.826	303.83
611.245	268.72
611.664	299.15
612.083	287.45
612.501	235.96
612.92	287.45
613.339	294.47
613.757	345.96
614.176	299.15
614.594	282.77
615.013	350.64
615.431	334.26
615.85	285.11
616.268	299.15
616.686	278.08
617.104	352.98
617.522	275.74
617.94	334.26
618.358	261.7
618.776	345.96
619.194	294.47
619.612	306.17
620.03	303.83
620.447	238.3
620.865	275.74
621.282	254.68
621.7	275.74
622.117	352.98
622.535	301.49
622.952	348.3
623.369	324.9
623.787	371.71
624.204	331.92
624.621	250
625.038	287.45
625.455	275.74
625.872	364.68
626.289	329.58
626.706	331.92
627.123	252.34
627.539	306.17
627.956	313.19
628.373	254.68
628.789	278.08
629.206	322.56
629.622	271.06
630.038	301.49
630.455	324.9
630.871	327.24
631.287	254.68
631.703	308.51
632.12	296.81
632.536	299.15
632.952	285.11
633.368	306.17
633.783	289.79
634.199	336.6
634.615	308.51
635.031	315.53
635.446	257.02
635.862	280.43
636.277	308.51
636.693	294.47
637.108	355.32
637.524	245.32
637.939	345.96
638.354	261.7
638.77	282.77
639.185	303.83
639.6	320.21
640.015	317.87
640.43	364.68
640.845	268.72
641.259	268.72
641.674	310.85
642.089	285.11
642.504	280.43
642.918	280.43
643.333	285.11
643.747	296.81
644.162	306.17
644.576	341.28
644.991	355.32
645.405	278.08
645.819	261.7
646.233	271.06
646.647	367.03
647.061	341.28
647.475	299.15
647.889	299.15
648.303	303.83
648.717	273.4
649.131	338.94
649.545	275.74
649.958	313.19
650.372	334.26
650.785	226.59
651.199	348.3
651.612	287.45
652.026	329.58
652.439	280.43
652.852	343.62
653.266	287.45
653.679	317.87
654.092	306.17
654.505	345.96
654.918	350.64
655.331	317.87
655.744	350.64
656.156	275.74
656.569	299.15
656.982	264.04
657.394	261.7
657.807	292.13
658.22	254.68
658.632	327.24
659.044	240.64
659.457	303.83
659.869	334.26
660.281	240.64
660.693	299.15
661.106	355.32
661.518	282.77
661.93	299.15
662.342	228.93
662.754	327.24
663.165	280.43
663.577	315.53
663.989	322.56
664.401	287.45
664.812	257.02
665.224	327.24
665.635	233.61
666.047	296.81
666.458	322.56
666.869	292.13
667.281	355.32
667.692	317.87
668.103	257.02
668.514	315.53
668.925	240.64
669.336	317.87
669.747	247.66
670.158	259.36
670.569	247.66
670.979	271.06
671.39	294.47
671.801	329.58
672.211	299.15
672.622	273.4
673.032	294.47
673.443	221.91
673.853	310.85
674.263	322.56
674.674	334.26
675.084	357.66
675.494	303.83
675.904	264.04
676.314	334.26
676.724	294.47
677.134	324.9
677.544	315.53
677.953	315.53
678.363	275.74
678.773	404.47
679.182	374.05
679.592	294.47
680.001	350.64
680.411	292.13
680.82	268.72
681.23	289.79
681.639	334.26
682.048	268.72
682.457	250
682.866	308.51
683.275	299.15
683.684	327.24
684.093	261.7
684.502	280.43
684.911	285.11
685.32	341.28
685.728	214.89
686.137	294.47
686.546	271.06
686.954	264.04
687.363	282.77
687.771	257.02
688.179	287.45
688.588	261.7
688.996	343.62
689.404	217.23
689.812	254.68
690.22	285.11
690.628	275.74
691.036	308.51
691.444	334.26
691.852	324.9
692.26	287.45
692.667	278.08
693.075	280.43
693.483	308.51
693.89	341.28
694.298	294.47
694.705	261.7
695.112	355.32
695.52	303.83
695.927	348.3
696.334	306.17
696.741	219.57
697.148	257.02
697.555	254.68
697.962	376.39
698.369	303.83
698.776	264.04
699.183	292.13
699.59	231.27
699.996	264.04
700.403	338.94
700.81	310.85
701.216	334.26
701.623	289.79
702.029	259.36
702.435	278.08
702.842	292.13
703.248	303.83
703.654	242.98
704.06	275.74
704.466	299.15
704.872	320.21
705.278	296.81
705.684	271.06
706.09	324.9
706.496	294.47
706.901	306.17
707.307	280.43
707.712	261.7
708.118	327.24
708.523	292.13
708.929	233.61
709.334	271.06
709.74	285.11
710.145	303.83
710.55	292.13
710.955	322.56
711.36	308.51
711.765	376.39
712.17	320.21
712.575	343.62
712.98	821.09
713.385	341.28
713.789	273.4
714.194	273.4
714.599	271.06
715.003	331.92
715.408	282.77
715.812	287.45
716.217	268.72
716.621	369.37
717.025	268.72
717.429	320.21
717.833	336.6
718.238	345.96
718.642	324.9
719.046	313.19
719.449	301.49
719.853	280.43
720.257	322.56
720.661	289.79
721.065	334.26
721.468	306.17
721.872	303.83
722.275	296.81
722.679	266.38
723.082	313.19
723.485	294.47
723.889	315.53
724.292	299.15
724.695	343.62
725.098	348.3
725.501	259.36
725.904	299.15
726.307	247.66
726.71	275.74
727.113	296.81
727.516	228.93
727.918	294.47
728.321	301.49
728.724	315.53
729.126	327.24
729.529	310.85
729.931	250
730.333	282.77
730.736	313.19
731.138	317.87
731.54	320.21
731.942	308.51
732.344	310.85
732.746	385.75
733.148	247.66
733.55	179.78
733.952	285.11
734.354	259.36
734.756	278.08
735.157	259.36
735.559	254.68
735.96	296.81
736.362	261.7
736.763	327.24
737.165	238.3
737.566	329.58
737.967	275.74
738.368	252.34
738.77	299.15
739.171	338.94
739.572	315.53
739.973	296.81
740.374	280.43
740.774	313.19
741.175	310.85
741.576	299.15
741.977	247.66
742.377	280.43
742.778	306.17
743.178	273.4
743.579	294.47
743.979	292.13
744.379	275.74
744.78	261.7
745.18	362.34
745.58	310.85
745.98	292.13
746.38	264.04
746.78	257.02
747.18	313.19
747.58	357.66
747.98	324.9
748.38	278.08
748.779	362.34
749.179	338.94
749.578	310.85
749.978	294.47
750.377	289.79
750.777	317.87
751.176	292.13
751.575	343.62
751.975	343.62
752.374	275.74
752.773	275.74
753.172	306.17
753.571	360
753.97	294.47
754.369	287.45
754.768	329.58
755.166	247.66
755.565	221.91
755.964	278.08
756.362	308.51
756.761	329.58
757.159	320.21
757.558	266.38
757.956	322.56
758.354	266.38
758.753	273.4
759.151	198.51
759.549	348.3
759.947	221.91
760.345	296.81
760.743	324.9
761.141	268.72
761.539	357.66
761.936	261.7
762.334	308.51
762.732	261.7
763.129	345.96
763.527	259.36
763.924	327.24
764.322	271.06
764.719	285.11
765.117	247.66
765.514	341.28
765.911	313.19
766.308	322.56
766.705	259.36
767.102	268.72
767.499	306.17
767.896	296.81
768.293	278.08
768.69	285.11
769.086	285.11
769.483	303.83
769.88	299.15
770.276	331.92
770.673	315.53
771.069	343.62
771.466	282.77
771.862	261.7
772.258	324.9
772.654	233.61
773.05	317.87
773.447	264.04
773.843	285.11
774.239	322.56
774.634	308.51
775.03	336.6
775.426	338.94
775.822	292.13
776.218	338.94
776.613	289.79
777.009	299.15
777.404	273.4
777.8	282.77
778.195	301.49
778.59	275.74
778.986	308.51
779.381	273.4
779.776	278.08
780.171	287.45
780.566	390.43
780.961	289.79
781.356	264.04
781.751	364.68
782.146	350.64
782.54	360
782.935	350.64
783.33	282.77
783.724	257.02
784.119	287.45
784.513	301.49
784.908	320.21
785.302	367.03
785.696	292.13
786.09	336.6
786.485	254.68
786.879	254.68
787.273	287.45
787.667	320.21
788.061	271.06
788.454	273.4
788.848	315.53
789.242	331.92
789.636	287.45
790.029	360
790.423	315.53
790.816	369.37
791.21	278.08
791.603	266.38
791.997	259.36
792.39	252.34
792.783	338.94
793.176	289.79
793.569	278.08
793.962	331.92
794.355	327.24
794.748	310.85
795.141	252.34
795.534	355.32
795.927	306.17
796.319	364.68
796.712	367.03
797.105	285.11
797.497	294.47
797.89	331.92
798.282	322.56
798.674	273.4
799.067	273.4
799.459	310.85
799.851	301.49
800.243	301.49
800.635	292.13
801.027	324.9
801.419	287.45
801.811	296.81
802.203	278.08
802.594	334.26
802.986	280.43
803.378	285.11
803.769	275.74
804.161	299.15
804.552	257.02
804.944	261.7
805.335	292.13
805.726	301.49
806.118	303.83
806.509	268.72
806.9	271.06
807.291	315.53
807.682	268.72
808.073	287.45
808.464	308.51
808.855	374.05
809.245	261.7
809.636	266.38
810.027	275.74
810.417	294.47
810.808	261.7
811.198	252.34
811.589	250
811.979	273.4
812.369	254.68
812.759	299.15
813.15	327.24
813.54	247.66
813.93	273.4
814.32	287.45
814.71	331.92
815.1	388.09
815.489	301.49
815.879	282.77
816.269	345.96
816.658	287.45
817.048	296.81
817.438	306.17
817.827	324.9
818.216	313.19
818.606	341.28
818.995	294.47
819.384	313.19
819.773	294.47
820.163	254.68
820.552	282.77
820.941	245.32
821.33	296.81
821.718	320.21
822.107	315.53
822.496	329.58
822.885	240.64
823.273	308.51
823.662	278.08
824.05	247.66
824.439	306.17
824.827	257.02
825.216	313.19
825.604	369.37
825.992	231.27
826.38	308.51
826.768	245.32
827.156	301.49
827.544	264.04
827.932	289.79
828.32	252.34
828.708	324.9
829.096	296.81
829.483	352.98
829.871	360
830.259	280.43
830.646	303.83
831.034	303.83
831.421	294.47
831.808	324.9
832.196	341.28
832.583	329.58
832.97	278.08
833.357	329.58
833.744	308.51
834.131	282.77
834.518	264.04
834.905	313.19
835.292	296.81
835.678	303.83
836.065	292.13
836.452	254.68
836.838	348.3
837.225	285.11
837.611	315.53
837.998	287.45
838.384	348.3
838.77	296.81
839.157	338.94
839.543	289.79
839.929	303.83
840.315	310.85
840.701	271.06
841.087	409.15
841.473	327.24
841.858	315.53
842.244	292.13
842.63	266.38
843.015	271.06
843.401	584.7
843.787	331.92
844.172	287.45
844.557	259.36
844.943	285.11
845.328	343.62
845.713	334.26
846.098	341.28
846.483	294.47
846.868	259.36
847.253	261.7
847.638	294.47
848.023	310.85
848.408	273.4
848.793	289.79
849.177	252.34
849.562	320.21
849.947	320.21
850.331	324.9
850.715	294.47
851.1	228.93
851.484	352.98
851.868	296.81
852.253	280.43
852.637	324.9
853.021	320.21
853.405	242.98
853.789	336.6
854.173	252.34
854.557	327.24
854.94	301.49
855.324	271.06
855.708	238.3
856.091	289.79
856.475	313.19
856.858	273.4
857.242	294.47
857.625	301.49
858.009	261.7
858.392	235.96
858.775	259.36
859.158	343.62
859.541	362.34
859.924	308.51
860.307	320.21
860.69	247.66
861.073	280.43
861.456	350.64
861.838	299.15
862.221	287.45
862.604	282.77
862.986	289.79
863.369	264.04
863.751	308.51
864.133	285.11
864.516	292.13
864.898	257.02
865.28	296.81
865.662	322.56
866.044	259.36
866.426	245.32
866.808	287.45
867.19	303.83
867.572	315.53
867.954	303.83
868.336	268.72
868.717	294.47
869.099	292.13
869.48	336.6
869.862	315.53
870.243	322.56
870.625	287.45
871.006	268.72
871.387	289.79
871.768	341.28
872.149	320.21
872.53	303.83
872.911	233.61
873.292	257.02
873.673	254.68
874.054	315.53
874.435	273.4
874.815	285.11
875.196	273.4
875.577	329.58
875.957	238.3
876.338	320.21
876.718	254.68
877.098	320.21
877.479	250
877.859	315.53
878.239	273.4
878.619	296.81
878.999	278.08
879.379	345.96
879.759	294.47
880.139	198.51
880.519	247.66
880.898	313.19
881.278	341.28
881.658	315.53
882.037	324.9
882.417	324.9
882.796	306.17
883.176	240.64
883.555	228.93
883.934	336.6
884.313	261.7
884.693	299.15
885.072	261.7
885.451	306.17
885.83	266.38
886.209	266.38
886.587	289.79
886.966	289.79
887.345	317.87
887.724	282.77
888.102	310.85
888.481	388.09
888.859	294.47
889.238	261.7
889.616	296.81
889.994	254.68
890.373	292.13
890.751	264.04
891.129	252.34
891.507	327.24
891.885	320.21
892.263	334.26
892.641	287.45
893.019	303.83
893.396	299.15
893.774	287.45
894.152	331.92
894.529	313.19
894.907	315.53
895.284	219.57
895.662	350.64
896.039	310.85
896.416	273.4
896.794	322.56
897.171	296.81
897.548	301.49
897.925	264.04
898.302	306.17
898.679	292.13
899.056	266.38
899.433	310.85
899.809	301.49
900.186	317.87
900.563	287.45
900.939	287.45
901.316	324.9
901.692	287.45
902.069	252.34
902.445	261.7
902.821	294.47
903.197	289.79
903.574	261.7
903.95	196.17
904.326	313.19
904.702	278.08
905.078	345.96
905.454	341.28
905.829	233.61
906.205	296.81
906.581	280.43
906.956	289.79
907.332	324.9
907.707	303.83
908.083	299.15
908.458	257.02
908.833	257.02
909.209	369.37
909.584	268.72
909.959	289.79
910.334	296.81
910.709	306.17
911.084	254.68
911.459	345.96
911.834	317.87
912.209	285.11
912.583	247.66
912.958	343.62
913.333	271.06
913.707	280.43
914.082	324.9
914.456	306.17
914.83	322.56
915.205	271.06
915.579	317.87
915.953	219.57
916.327	196.17
916.701	301.49
917.075	299.15
917.449	285.11
917.823	385.75
918.197	313.19
918.571	338.94
918.944	308.51
919.318	329.58
919.692	268.72
920.065	324.9
920.438	352.98
920.812	303.83
921.185	278.08
921.558	322.56
921.932	322.56
922.305	299.15
922.678	250
923.051	322.56
923.424	259.36
923.797	324.9
924.17	345.96
924.542	317.87
924.915	207.87
925.288	275.74
925.661	303.83
926.033	271.06
926.406	331.92
926.778	296.81
927.15	282.77
927.523	296.81
927.895	313.19
928.267	287.45
928.639	360
929.011	301.49
929.383	327.24
929.755	254.68
930.127	299.15
930.499	324.9
930.871	226.59
931.242	224.25
931.614	278.08
931.986	280.43
932.357	238.3
932.729	352.98
933.1	275.74
933.471	303.83
933.843	247.66
934.214	273.4
934.585	299.15
934.956	301.49
935.327	338.94
935.698	310.85
936.069	282.77
936.44	303.83
936.811	338.94
937.182	390.43
937.552	278.08
937.923	324.9
938.293	245.32
938.664	343.62
939.034	336.6
939.405	345.96
939.775	308.51
940.145	348.3
940.516	341.28
940.886	317.87
941.256	294.47
941.626	280.43
941.996	273.4
942.366	250
942.735	294.47
943.105	334.26
943.475	299.15
943.845	245.32
944.214	345.96
944.584	296.81
944.953	299.15
945.323	294.47
945.692	301.49
946.061	238.3
946.43	331.92
946.8	242.98
947.169	278.08
947.538	292.13
947.907	278.08
948.276	292.13
948.645	331.92
949.013	289.79
949.382	287.45
949.751	303.83
950.119	301.49
950.488	292.13
950.857	210.21
951.225	313.19
951.593	296.81
951.962	343.62
952.33	259.36
952.698	315.53
953.066	207.87
953.434	275.74
953.802	313.19
954.17	238.3
954.538	261.7
954.906	235.96
955.274	264.04
955.642	296.81
956.009	259.36
956.377	331.92
956.744	259.36
957.112	352.98
957.479	313.19
957.847	252.34
958.214	310.85
958.581	341.28
958.948	308.51
959.315	259.36
959.683	294.47
960.05	301.49
960.416	245.32
960.783	317.87
961.15	313.19
961.517	254.68
961.884	273.4
962.25	381.07
962.617	266.38
962.983	259.36
963.35	324.9
963.716	259.36
964.082	303.83
964.449	278.08
964.815	299.15
965.181	308.51
965.547	289.79
965.913	259.36
966.279	303.83
966.645	242.98
967.011	280.43
967.377	247.66
967.742	299.15
968.108	282.77
968.474	303.83
968.839	322.56
969.205	250
969.57	261.7
969.935	235.96
970.301	292.13
970.666	362.34
971.031	331.92
971.396	317.87
971.761	264.04
972.126	254.68
972.491	271.06
972.856	240.64
973.221	331.92
973.586	381.07
973.95	315.53
974.315	275.74
974.679	289.79
975.044	259.36
975.408	271.06
975.773	214.89
976.137	310.85
976.501	205.53
976.866	210.21
977.23	303.83
977.594	257.02
977.958	315.53
978.322	266.38
978.686	306.17
979.049	287.45
979.413	329.58
979.777	257.02
980.141	287.45
980.504	317.87
980.868	266.38
981.231	324.9
981.595	259.36
981.958	252.34
982.321	327.24
982.684	306.17
983.048	345.96
983.411	275.74
983.774	299.15
984.137	313.19
984.5	224.25
984.862	275.74
985.225	287.45
985.588	285.11
985.951	301.49
986.313	308.51
986.676	338.94
987.038	280.43
987.401	278.08
987.763	310.85
988.125	299.15
988.488	320.21
988.85	242.98
989.212	308.51
989.574	296.81
989.936	331.92
990.298	306.17
990.66	336.6
991.022	317.87
991.383	275.74
991.745	324.9
992.107	350.64
992.468	322.56
992.83	303.83
993.191	254.68
993.553	266.38
993.914	287.45
994.275	324.9
994.637	259.36
994.998	282.77
995.359	296.81
995.72	289.79
996.081	252.34
996.442	266.38
996.803	273.4
997.163	271.06
997.524	294.47
997.885	378.73
998.245	268.72
998.606	250
998.966	303.83
999.327	282.77
999.687	278.08
1000.047	247.66
1000.408	252.34
1000.768	254.68
1001.128	259.36
1001.488	299.15
1001.848	329.58
1002.208	247.66
1002.568	292.13
1002.927	322.56
1003.287	317.87
1003.647	334.26
1004.007	310.85
1004.366	376.39
1004.726	338.94
1005.085	327.24
1005.444	242.98
1005.804	306.17
1006.163	231.27
1006.522	254.68
1006.881	271.06
1007.24	228.93
1007.599	308.51
1007.958	280.43
1008.317	254.68
1008.676	257.02
1009.035	320.21
1009.393	299.15
1009.752	289.79
1010.111	320.21
1010.469	245.32
1010.828	250
1011.186	285.11
1011.544	303.83
1011.903	362.34
1012.261	292.13
1012.619	257.02
1012.977	273.4
1013.335	292.13
1013.693	285.11
1014.051	278.08
1014.409	348.3
1014.767	324.9
1015.124	338.94
1015.482	301.49
1015.84	308.51
1016.197	231.27
1016.555	313.19
1016.912	329.58
1017.269	320.21
1017.627	275.74
1017.984	271.06
1018.341	264.04
1018.698	221.91
1019.055	287.45
1019.412	287.45
1019.769	289.79
1020.126	250
1020.483	299.15
1020.84	303.83
1021.196	261.7
1021.553	289.79
1021.909	257.02
1022.266	280.43
1022.622	292.13
1022.979	388.09
1023.335	336.6
1023.691	306.17
1024.047	350.64
1024.404	231.27
1024.76	338.94
1025.116	303.83
1025.472	289.79
1025.827	338.94
1026.183	271.06
1026.539	273.4
1026.895	259.36
1027.25	378.73
1027.606	334.26
1027.961	336.6
1028.317	306.17
1028.672	285.11
1029.028	268.72
1029.383	308.51
1029.738	317.87
1030.093	271.06
1030.448	282.77
1030.803	317.87
1031.158	289.79
1031.513	285.11
1031.868	317.87
1032.223	315.53
1032.577	313.19
1032.932	261.7
1033.287	334.26
1033.641	355.32
1033.996	275.74
1034.35	292.13
1034.704	313.19
1035.059	313.19
1035.413	322.56
1035.767	322.56
1036.121	322.56
