Data from Al_FLMS009871__605__14-47-56-314.txt Node

Date: Fri Mar 08 14:47:56 CST 2024
User: pe5414po
Spectrometer: FLMS00987
Trigger mode: 0
Integration Time (sec): 1.000000E-1
Scans to average: 1
Electric dark correction enabled: true
Nonlinearity correction enabled: false
Boxcar width: 0
XAxis mode: Wavelengths
Number of Pixels in Spectrum: 2048
>>>>>Begin Spectral Data<<<<<
188.938	-44.91
189.409	-44.91
189.879	-44.91
190.349	-178.32
190.819	-75.34
191.29	-26.18
191.76	-96.4
192.23	-63.63
192.7	-82.36
193.17	-40.23
193.64	20.63
194.109	-19.16
194.579	-30.87
195.049	-49.59
195.519	-9.8
195.988	25.31
196.458	118.93
196.927	22.97
197.397	83.82
197.866	114.25
198.336	32.33
198.805	116.59
199.274	154.04
199.744	175.1
200.213	193.83
200.682	252.34
201.151	233.61
201.62	224.25
202.089	154.04
202.558	242.98
203.027	235.96
203.495	338.94
203.964	226.59
204.433	280.43
204.902	292.13
205.37	306.17
205.839	301.49
206.307	264.04
206.776	357.66
207.244	296.81
207.712	247.66
208.181	268.72
208.649	282.77
209.117	296.81
209.585	266.38
210.053	261.7
210.521	280.43
210.989	268.72
211.457	294.47
211.925	266.38
212.393	287.45
212.861	301.49
213.328	280.43
213.796	285.11
214.264	261.7
214.731	289.79
215.199	320.21
215.666	296.81
216.133	271.06
216.601	254.68
217.068	240.64
217.535	315.53
218.003	285.11
218.47	362.34
218.937	287.45
219.404	242.98
219.871	224.25
220.338	308.51
220.805	257.02
221.271	252.34
221.738	296.81
222.205	287.45
222.671	226.59
223.138	322.56
223.605	287.45
224.071	252.34
224.538	289.79
225.004	245.32
225.47	219.57
225.937	322.56
226.403	264.04
226.869	264.04
227.335	310.85
227.801	275.74
228.267	322.56
228.733	292.13
229.199	301.49
229.665	334.26
230.131	285.11
230.597	200.85
231.062	259.36
231.528	301.49
231.994	275.74
232.459	308.51
232.925	252.34
233.39	214.89
233.856	207.87
234.321	271.06
234.786	315.53
235.252	352.98
235.717	240.64
236.182	240.64
236.647	254.68
237.112	303.83
237.577	247.66
238.042	294.47
238.507	275.74
238.972	282.77
239.436	331.92
239.901	336.6
240.366	303.83
240.83	247.66
241.295	310.85
241.76	275.74
242.224	273.4
242.688	303.83
243.153	289.79
243.617	296.81
244.081	271.06
244.545	292.13
245.01	257.02
245.474	324.9
245.938	350.64
246.402	310.85
246.866	287.45
247.33	261.7
247.793	280.43
248.257	294.47
248.721	292.13
249.185	266.38
249.648	264.04
250.112	259.36
250.575	275.74
251.039	320.21
251.502	271.06
251.965	273.4
252.429	313.19
252.892	247.66
253.355	324.9
253.818	250
254.281	343.62
254.744	308.51
255.207	280.43
255.67	219.57
256.133	266.38
256.596	275.74
257.059	282.77
257.522	278.08
257.984	289.79
258.447	271.06
258.909	327.24
259.372	268.72
259.834	294.47
260.297	250
260.759	310.85
261.221	273.4
261.684	313.19
262.146	341.28
262.608	322.56
263.07	259.36
263.532	306.17
263.994	186.8
264.456	280.43
264.918	341.28
265.38	285.11
265.842	233.61
266.303	296.81
266.765	381.07
267.227	294.47
267.688	308.51
268.15	240.64
268.611	271.06
269.072	285.11
269.534	313.19
269.995	231.27
270.456	257.02
270.918	324.9
271.379	275.74
271.84	289.79
272.301	266.38
272.762	210.21
273.223	252.34
273.684	214.89
274.144	296.81
274.605	275.74
275.066	271.06
275.527	352.98
275.987	292.13
276.448	271.06
276.908	224.25
277.369	259.36
277.829	303.83
278.289	320.21
278.75	268.72
279.21	278.08
279.67	327.24
280.13	275.74
280.59	264.04
281.05	317.87
281.51	308.51
281.97	315.53
282.43	308.51
282.89	273.4
283.35	245.32
283.809	278.08
284.269	327.24
284.729	296.81
285.188	338.94
285.648	320.21
286.107	285.11
286.567	348.3
287.026	322.56
287.485	287.45
287.944	343.62
288.404	261.7
288.863	367.03
289.322	280.43
289.781	280.43
290.24	280.43
290.699	268.72
291.158	357.66
291.616	324.9
292.075	324.9
292.534	254.68
292.992	374.05
293.451	315.53
293.91	322.56
294.368	308.51
294.827	259.36
295.285	306.17
295.743	280.43
296.202	271.06
296.66	179.78
297.118	331.92
297.576	289.79
298.034	287.45
298.492	296.81
298.95	287.45
299.408	313.19
299.866	273.4
300.324	308.51
300.781	331.92
301.239	242.98
301.697	341.28
302.154	320.21
302.612	264.04
303.069	331.92
303.527	301.49
303.984	350.64
304.441	320.21
304.899	310.85
305.356	271.06
305.813	348.3
306.27	247.66
306.727	296.81
307.184	343.62
307.641	329.58
308.098	324.9
308.555	308.51
309.012	266.38
309.468	271.06
309.925	334.26
310.382	360
310.838	338.94
311.295	336.6
311.751	343.62
312.208	285.11
312.664	271.06
313.12	348.3
313.577	273.4
314.033	369.37
314.489	313.19
314.945	338.94
315.401	287.45
315.857	329.58
316.313	294.47
316.769	257.02
317.225	306.17
317.681	322.56
318.136	310.85
318.592	341.28
319.048	238.3
319.503	303.83
319.959	228.93
320.414	282.77
320.869	308.51
321.325	322.56
321.78	299.15
322.235	285.11
322.691	273.4
323.146	296.81
323.601	238.3
324.056	315.53
324.511	247.66
324.966	310.85
325.421	280.43
325.875	322.56
326.33	350.64
326.785	317.87
327.24	362.34
327.694	301.49
328.149	285.11
328.603	280.43
329.058	282.77
329.512	303.83
329.966	338.94
330.421	341.28
330.875	287.45
331.329	273.4
331.783	345.96
332.237	324.9
332.691	350.64
333.145	228.93
333.599	282.77
334.053	287.45
334.507	299.15
334.96	331.92
335.414	341.28
335.868	301.49
336.321	266.38
336.775	235.96
337.228	345.96
337.682	303.83
338.135	278.08
338.588	285.11
339.042	329.58
339.495	320.21
339.948	299.15
340.401	313.19
340.854	252.34
341.307	292.13
341.76	268.72
342.213	301.49
342.666	294.47
343.119	306.17
343.571	306.17
344.024	280.43
344.477	381.07
344.929	285.11
345.382	355.32
345.834	308.51
346.287	273.4
346.739	313.19
347.191	280.43
347.644	320.21
348.096	371.71
348.548	343.62
349	331.92
349.452	250
349.904	315.53
350.356	313.19
350.808	317.87
351.26	299.15
351.711	299.15
352.163	214.89
352.615	322.56
353.066	320.21
353.518	324.9
353.969	296.81
354.421	301.49
354.872	271.06
355.324	310.85
355.775	341.28
356.226	285.11
356.677	268.72
357.128	320.21
357.579	320.21
358.03	289.79
358.481	322.56
358.932	360
359.383	292.13
359.834	329.58
360.285	301.49
360.735	285.11
361.186	303.83
361.637	287.45
362.087	292.13
362.538	296.81
362.988	317.87
363.438	303.83
363.889	317.87
364.339	273.4
364.789	369.37
365.239	315.53
365.689	266.38
366.139	352.98
366.589	362.34
367.039	350.64
367.489	378.73
367.939	341.28
368.389	331.92
368.839	331.92
369.288	289.79
369.738	341.28
370.187	313.19
370.637	257.02
371.086	313.19
371.536	287.45
371.985	294.47
372.434	280.43
372.884	331.92
373.333	331.92
373.782	275.74
374.231	317.87
374.68	292.13
375.129	266.38
375.578	285.11
376.027	374.05
376.475	301.49
376.924	226.59
377.373	355.32
377.822	336.6
378.27	376.39
378.719	357.66
379.167	268.72
379.616	320.21
380.064	292.13
380.512	352.98
380.961	348.3
381.409	336.6
381.857	329.58
382.305	334.26
382.753	327.24
383.201	292.13
383.649	324.9
384.097	250
384.545	313.19
384.992	348.3
385.44	306.17
385.888	317.87
386.335	303.83
386.783	257.02
387.231	376.39
387.678	308.51
388.125	282.77
388.573	317.87
389.02	294.47
389.467	338.94
389.914	310.85
390.362	329.58
390.809	254.68
391.256	317.87
391.703	315.53
392.15	296.81
392.596	367.03
393.043	282.77
393.49	264.04
393.937	313.19
394.383	313.19
394.83	306.17
395.276	395.11
395.723	268.72
396.169	322.56
396.616	317.87
397.062	271.06
397.508	287.45
397.954	331.92
398.401	308.51
398.847	259.36
399.293	273.4
399.739	317.87
400.185	331.92
400.631	292.13
401.076	299.15
401.522	399.79
401.968	334.26
402.414	355.32
402.859	334.26
403.305	250
403.75	350.64
404.196	285.11
404.641	381.07
405.086	285.11
405.532	299.15
405.977	299.15
406.422	308.51
406.867	285.11
407.312	308.51
407.757	287.45
408.202	329.58
408.647	301.49
409.092	350.64
409.537	310.85
409.982	327.24
410.426	329.58
410.871	338.94
411.316	336.6
411.76	362.34
412.205	367.03
412.649	310.85
413.093	282.77
413.538	296.81
413.982	383.41
414.426	292.13
414.87	338.94
415.314	399.79
415.758	294.47
416.202	362.34
416.646	306.17
417.09	348.3
417.534	360
417.978	331.92
418.421	345.96
418.865	308.51
419.309	320.21
419.752	336.6
420.196	341.28
420.639	376.39
421.083	348.3
421.526	306.17
421.969	348.3
422.412	299.15
422.856	259.36
423.299	259.36
423.742	327.24
424.185	329.58
424.628	268.72
425.071	341.28
425.513	331.92
425.956	287.45
426.399	357.66
426.842	322.56
427.284	299.15
427.727	289.79
428.169	308.51
428.612	259.36
429.054	313.19
429.497	329.58
429.939	362.34
430.381	282.77
430.823	308.51
431.265	355.32
431.707	329.58
432.149	392.77
432.591	320.21
433.033	315.53
433.475	357.66
433.917	287.45
434.359	273.4
434.8	315.53
435.242	322.56
435.684	282.77
436.125	294.47
436.567	329.58
437.008	331.92
437.449	280.43
437.891	343.62
438.332	322.56
438.773	259.36
439.214	289.79
439.656	254.68
440.097	266.38
440.538	345.96
440.978	313.19
441.419	310.85
441.86	320.21
442.301	355.32
442.742	315.53
443.182	317.87
443.623	334.26
444.063	278.08
444.504	315.53
444.944	336.6
445.385	348.3
445.825	327.24
446.265	369.37
446.706	285.11
447.146	324.9
447.586	268.72
448.026	273.4
448.466	285.11
448.906	331.92
449.346	378.73
449.786	336.6
450.225	348.3
450.665	360
451.105	266.38
451.544	289.79
451.984	296.81
452.424	362.34
452.863	336.6
453.302	303.83
453.742	367.03
454.181	313.19
454.62	341.28
455.059	343.62
455.499	322.56
455.938	324.9
456.377	294.47
456.816	331.92
457.254	308.51
457.693	406.81
458.132	308.51
458.571	355.32
459.01	322.56
459.448	296.81
459.887	294.47
460.325	320.21
460.764	259.36
461.202	355.32
461.641	411.5
462.079	261.7
462.517	367.03
462.955	355.32
463.393	315.53
463.832	343.62
464.27	254.68
464.708	315.53
465.145	310.85
465.583	280.43
466.021	336.6
466.459	329.58
466.897	369.37
467.334	348.3
467.772	381.07
468.209	292.13
468.647	310.85
469.084	341.28
469.522	315.53
469.959	331.92
470.396	320.21
470.833	306.17
471.271	374.05
471.708	350.64
472.145	289.79
472.582	310.85
473.019	331.92
473.456	352.98
473.892	242.98
474.329	338.94
474.766	287.45
475.202	336.6
475.639	350.64
476.076	301.49
476.512	362.34
476.949	280.43
477.385	306.17
477.821	275.74
478.258	310.85
478.694	289.79
479.13	334.26
479.566	341.28
480.002	341.28
480.438	338.94
480.874	324.9
481.31	313.19
481.746	360
482.181	345.96
482.617	376.39
483.053	434.9
483.488	355.32
483.924	331.92
484.36	264.04
484.795	320.21
485.23	285.11
485.666	315.53
486.101	341.28
486.536	352.98
486.971	334.26
487.407	299.15
487.842	289.79
488.277	294.47
488.712	280.43
489.146	350.64
489.581	306.17
490.016	362.34
490.451	299.15
490.885	385.75
491.32	275.74
491.755	322.56
492.189	331.92
492.624	310.85
493.058	264.04
493.492	322.56
493.927	313.19
494.361	317.87
494.795	292.13
495.229	334.26
495.663	378.73
496.097	355.32
496.531	292.13
496.965	315.53
497.399	294.47
497.833	345.96
498.266	338.94
498.7	268.72
499.134	317.87
499.567	322.56
500.001	268.72
500.434	381.07
500.868	327.24
501.301	362.34
501.734	331.92
502.168	322.56
502.601	350.64
503.034	329.58
503.467	378.73
503.9	336.6
504.333	341.28
504.766	374.05
505.199	352.98
505.632	280.43
506.064	268.72
506.497	308.51
506.93	343.62
507.362	336.6
507.795	306.17
508.227	345.96
508.66	301.49
509.092	303.83
509.524	301.49
509.956	341.28
510.389	315.53
510.821	376.39
511.253	364.68
511.685	371.71
512.117	299.15
512.549	360
512.981	320.21
513.412	278.08
513.844	331.92
514.276	296.81
514.707	303.83
515.139	362.34
515.571	275.74
516.002	313.19
516.433	303.83
516.865	294.47
517.296	350.64
517.727	341.28
518.159	299.15
518.59	308.51
519.021	289.79
519.452	285.11
519.883	280.43
520.314	329.58
520.744	296.81
521.175	282.77
521.606	336.6
522.037	296.81
522.467	371.71
522.898	303.83
523.328	329.58
523.759	324.9
524.189	271.06
524.62	345.96
525.05	327.24
525.48	385.75
525.91	336.6
526.341	301.49
526.771	329.58
527.201	320.21
527.631	352.98
528.061	315.53
528.49	334.26
528.92	343.62
529.35	338.94
529.78	364.68
530.209	271.06
530.639	289.79
531.068	271.06
531.498	310.85
531.927	324.9
532.357	306.17
532.786	334.26
533.215	292.13
533.644	334.26
534.074	327.24
534.503	378.73
534.932	289.79
535.361	254.68
535.79	289.79
536.218	385.75
536.647	336.6
537.076	306.17
537.505	324.9
537.933	296.81
538.362	348.3
538.79	371.71
539.219	294.47
539.647	331.92
540.076	308.51
540.504	301.49
540.932	345.96
541.36	294.47
541.788	360
542.217	315.53
542.645	315.53
543.073	338.94
543.5	350.64
543.928	350.64
544.356	313.19
544.784	261.7
545.211	343.62
545.639	355.32
546.067	317.87
546.494	341.28
546.922	343.62
547.349	378.73
547.776	315.53
548.204	282.77
548.631	336.6
549.058	294.47
549.485	294.47
549.912	378.73
550.339	334.26
550.766	324.9
551.193	303.83
551.62	378.73
552.047	336.6
552.474	341.28
552.9	374.05
553.327	308.51
553.754	322.56
554.18	324.9
554.607	345.96
555.033	287.45
555.459	320.21
555.886	299.15
556.312	378.73
556.738	324.9
557.164	289.79
557.59	334.26
558.016	296.81
558.442	355.32
558.868	350.64
559.294	324.9
559.72	327.24
560.145	336.6
560.571	320.21
560.997	289.79
561.422	331.92
561.848	310.85
562.273	343.62
562.699	320.21
563.124	292.13
563.549	322.56
563.974	338.94
564.4	317.87
564.825	306.17
565.25	292.13
565.675	308.51
566.1	352.98
566.525	338.94
566.95	327.24
567.374	292.13
567.799	301.49
568.224	317.87
568.648	310.85
569.073	329.58
569.497	287.45
569.922	296.81
570.346	310.85
570.771	324.9
571.195	404.47
571.619	275.74
572.043	369.37
572.467	282.77
572.891	280.43
573.315	310.85
573.739	355.32
574.163	345.96
574.587	338.94
575.011	310.85
575.435	338.94
575.858	395.11
576.282	338.94
576.705	324.9
577.129	367.03
577.552	273.4
577.976	301.49
578.399	310.85
578.822	369.37
579.245	315.53
579.669	329.58
580.092	376.39
580.515	324.9
580.938	331.92
581.361	345.96
581.784	301.49
582.206	296.81
582.629	350.64
583.052	364.68
583.474	320.21
583.897	273.4
584.32	308.51
584.742	289.79
585.165	235.96
585.587	301.49
586.009	324.9
586.431	338.94
586.854	189.14
587.276	371.71
587.698	348.3
588.12	257.02
588.542	324.9
588.964	404.47
589.386	275.74
589.807	245.32
590.229	294.47
590.651	271.06
591.073	259.36
591.494	299.15
591.916	343.62
592.337	317.87
592.759	315.53
593.18	322.56
593.601	329.58
594.022	327.24
594.444	385.75
594.865	242.98
595.286	369.37
595.707	292.13
596.128	329.58
596.549	329.58
596.97	310.85
597.39	266.38
597.811	338.94
598.232	329.58
598.652	357.66
599.073	352.98
599.494	303.83
599.914	268.72
600.334	343.62
600.755	278.08
601.175	369.37
601.595	257.02
602.015	322.56
602.436	345.96
602.856	402.13
603.276	331.92
603.696	303.83
604.115	308.51
604.535	296.81
604.955	282.77
605.375	271.06
605.794	322.56
606.214	320.21
606.634	313.19
607.053	320.21
607.473	367.03
607.892	322.56
608.311	278.08
608.731	285.11
609.15	306.17
609.569	348.3
609.988	345.96
610.407	299.15
610.826	327.24
611.245	355.32
611.664	343.62
612.083	315.53
612.501	301.49
612.92	212.55
613.339	320.21
613.757	271.06
614.176	285.11
614.594	310.85
615.013	308.51
615.431	329.58
615.85	324.9
616.268	322.56
616.686	338.94
617.104	301.49
617.522	343.62
617.94	266.38
618.358	280.43
618.776	306.17
619.194	352.98
619.612	275.74
620.03	308.51
620.447	254.68
620.865	378.73
621.282	331.92
621.7	317.87
622.117	376.39
622.535	259.36
622.952	299.15
623.369	383.41
623.787	329.58
624.204	357.66
624.621	285.11
625.038	306.17
625.455	343.62
625.872	329.58
626.289	278.08
626.706	299.15
627.123	341.28
627.539	317.87
627.956	376.39
628.373	355.32
628.789	315.53
629.206	313.19
629.622	306.17
630.038	226.59
630.455	381.07
630.871	289.79
631.287	285.11
631.703	317.87
632.12	292.13
632.536	280.43
632.952	306.17
633.368	299.15
633.783	306.17
634.199	381.07
634.615	334.26
635.031	294.47
635.446	320.21
635.862	303.83
636.277	341.28
636.693	360
637.108	364.68
637.524	324.9
637.939	360
638.354	378.73
638.77	294.47
639.185	334.26
639.6	336.6
640.015	397.45
640.43	322.56
640.845	275.74
641.259	317.87
641.674	296.81
642.089	331.92
642.504	271.06
642.918	303.83
643.333	292.13
643.747	350.64
644.162	355.32
644.576	296.81
644.991	364.68
645.405	310.85
645.819	350.64
646.233	418.52
646.647	392.77
647.061	329.58
647.475	324.9
647.889	374.05
648.303	308.51
648.717	352.98
649.131	320.21
649.545	271.06
649.958	296.81
650.372	259.36
650.785	299.15
651.199	320.21
651.612	292.13
652.026	355.32
652.439	294.47
652.852	315.53
653.266	278.08
653.679	324.9
654.092	287.45
654.505	327.24
654.918	345.96
655.331	388.09
655.744	308.51
656.156	303.83
656.569	282.77
656.982	245.32
657.394	374.05
657.807	385.75
658.22	271.06
658.632	329.58
659.044	348.3
659.457	306.17
659.869	235.96
660.281	306.17
660.693	296.81
661.106	310.85
661.518	331.92
661.93	343.62
662.342	331.92
662.754	327.24
663.165	338.94
663.577	378.73
663.989	285.11
664.401	299.15
664.812	264.04
665.224	306.17
665.635	341.28
666.047	327.24
666.458	315.53
666.869	367.03
667.281	280.43
667.692	345.96
668.103	217.23
668.514	322.56
668.925	301.49
669.336	371.71
669.747	292.13
670.158	301.49
670.569	374.05
670.979	282.77
671.39	369.37
671.801	296.81
672.211	362.34
672.622	338.94
673.032	343.62
673.443	374.05
673.853	388.09
674.263	233.61
674.674	362.34
675.084	280.43
675.494	310.85
675.904	331.92
676.314	357.66
676.724	378.73
677.134	320.21
677.544	287.45
677.953	308.51
678.363	287.45
678.773	397.45
679.182	310.85
679.592	294.47
680.001	329.58
680.411	331.92
680.82	303.83
681.23	334.26
681.639	313.19
682.048	310.85
682.457	331.92
682.866	322.56
683.275	303.83
683.684	313.19
684.093	334.26
684.502	308.51
684.911	430.22
685.32	345.96
685.728	350.64
686.137	313.19
686.546	343.62
686.954	278.08
687.363	352.98
687.771	355.32
688.179	327.24
688.588	327.24
688.996	303.83
689.404	331.92
689.812	273.4
690.22	268.72
690.628	423.2
691.036	369.37
691.444	299.15
691.852	264.04
692.26	219.57
692.667	264.04
693.075	299.15
693.483	362.34
693.89	324.9
694.298	350.64
694.705	268.72
695.112	334.26
695.52	331.92
695.927	317.87
696.334	299.15
696.741	303.83
697.148	294.47
697.555	266.38
697.962	371.71
698.369	334.26
698.776	345.96
699.183	242.98
699.59	303.83
699.996	322.56
700.403	303.83
700.81	301.49
701.216	245.32
701.623	327.24
702.029	355.32
702.435	289.79
702.842	352.98
703.248	362.34
703.654	264.04
704.06	264.04
704.466	310.85
704.872	275.74
705.278	285.11
705.684	245.32
706.09	343.62
706.496	334.26
706.901	327.24
707.307	308.51
707.712	287.45
708.118	322.56
708.523	289.79
708.929	343.62
709.334	362.34
709.74	294.47
710.145	331.92
710.55	315.53
710.955	299.15
711.36	308.51
711.765	322.56
712.17	360
712.575	336.6
712.98	793
713.385	334.26
713.789	331.92
714.194	275.74
714.599	310.85
715.003	317.87
715.408	299.15
715.812	345.96
716.217	331.92
716.621	338.94
717.025	315.53
717.429	320.21
717.833	301.49
718.238	327.24
718.642	343.62
719.046	364.68
719.449	348.3
719.853	371.71
720.257	296.81
720.661	317.87
721.065	296.81
721.468	338.94
721.872	327.24
722.275	327.24
722.679	306.17
723.082	336.6
723.485	334.26
723.889	381.07
724.292	371.71
724.695	280.43
725.098	306.17
725.501	308.51
725.904	341.28
726.307	331.92
726.71	348.3
727.113	294.47
727.516	278.08
727.918	299.15
728.321	261.7
728.724	320.21
729.126	313.19
729.529	317.87
729.931	301.49
730.333	296.81
730.736	310.85
731.138	285.11
731.54	343.62
731.942	301.49
732.344	350.64
732.746	367.03
733.148	275.74
733.55	350.64
733.952	273.4
734.354	294.47
734.756	362.34
735.157	308.51
735.559	336.6
735.96	310.85
736.362	317.87
736.763	317.87
737.165	278.08
737.566	306.17
737.967	334.26
738.368	301.49
738.77	301.49
739.171	336.6
739.572	233.61
739.973	378.73
740.374	367.03
740.774	292.13
741.175	301.49
741.576	278.08
741.977	266.38
742.377	338.94
742.778	301.49
743.178	282.77
743.579	317.87
743.979	336.6
744.379	381.07
744.78	296.81
745.18	310.85
745.58	320.21
745.98	324.9
746.38	303.83
746.78	294.47
747.18	362.34
747.58	371.71
747.98	322.56
748.38	299.15
748.779	322.56
749.179	242.98
749.578	308.51
749.978	285.11
750.377	343.62
750.777	322.56
751.176	292.13
751.575	371.71
751.975	257.02
752.374	327.24
752.773	327.24
753.172	324.9
753.571	285.11
753.97	327.24
754.369	343.62
754.768	404.47
755.166	285.11
755.565	378.73
755.964	310.85
756.362	374.05
756.761	292.13
757.159	257.02
757.558	345.96
757.956	324.9
758.354	329.58
758.753	292.13
759.151	294.47
759.549	287.45
759.947	257.02
760.345	310.85
760.743	282.77
761.141	299.15
761.539	303.83
761.936	261.7
762.334	315.53
762.732	282.77
763.129	310.85
763.527	350.64
763.924	371.71
764.322	336.6
764.719	301.49
765.117	240.64
765.514	313.19
765.911	285.11
766.308	320.21
766.705	287.45
767.102	341.28
767.499	271.06
767.896	261.7
768.293	296.81
768.69	341.28
769.086	285.11
769.483	352.98
769.88	315.53
770.276	322.56
770.673	336.6
771.069	303.83
771.466	275.74
771.862	317.87
772.258	374.05
772.654	343.62
773.05	317.87
773.447	303.83
773.843	376.39
774.239	315.53
774.634	285.11
775.03	324.9
775.426	336.6
775.822	310.85
776.218	336.6
776.613	294.47
777.009	336.6
777.404	250
777.8	306.17
778.195	301.49
778.59	308.51
778.986	235.96
779.381	313.19
779.776	317.87
780.171	329.58
780.566	301.49
780.961	287.45
781.356	280.43
781.751	292.13
782.146	324.9
782.54	278.08
782.935	322.56
783.33	329.58
783.724	324.9
784.119	294.47
784.513	303.83
784.908	331.92
785.302	362.34
785.696	317.87
786.09	303.83
786.485	317.87
786.879	271.06
787.273	303.83
787.667	352.98
788.061	322.56
788.454	357.66
788.848	348.3
789.242	322.56
789.636	294.47
790.029	308.51
790.423	245.32
790.816	357.66
791.21	285.11
791.603	294.47
791.997	259.36
792.39	292.13
792.783	235.96
793.176	303.83
793.569	299.15
793.962	252.34
794.355	334.26
794.748	329.58
795.141	350.64
795.534	264.04
795.927	273.4
796.319	331.92
796.712	343.62
797.105	322.56
797.497	250
797.89	329.58
798.282	341.28
798.674	317.87
799.067	360
799.459	294.47
799.851	334.26
800.243	369.37
800.635	296.81
801.027	322.56
801.419	331.92
801.811	336.6
802.203	317.87
802.594	317.87
802.986	336.6
803.378	355.32
803.769	352.98
804.161	362.34
804.552	348.3
804.944	348.3
805.335	362.34
805.726	303.83
806.118	383.41
806.509	324.9
806.9	348.3
807.291	360
807.682	247.66
808.073	320.21
808.464	285.11
808.855	301.49
809.245	327.24
809.636	299.15
810.027	292.13
810.417	322.56
810.808	296.81
811.198	287.45
811.589	338.94
811.979	338.94
812.369	331.92
812.759	322.56
813.15	308.51
813.54	306.17
813.93	348.3
814.32	313.19
814.71	308.51
815.1	282.77
815.489	257.02
815.879	306.17
816.269	355.32
816.658	320.21
817.048	320.21
817.438	350.64
817.827	289.79
818.216	315.53
818.606	320.21
818.995	315.53
819.384	313.19
819.773	268.72
820.163	257.02
820.552	315.53
820.941	271.06
821.33	294.47
821.718	383.41
822.107	345.96
822.496	322.56
822.885	362.34
823.273	294.47
823.662	310.85
824.05	310.85
824.439	322.56
824.827	355.32
825.216	294.47
825.604	334.26
825.992	352.98
826.38	317.87
826.768	287.45
827.156	275.74
827.544	294.47
827.932	261.7
828.32	352.98
828.708	327.24
829.096	345.96
829.483	275.74
829.871	329.58
830.259	350.64
830.646	310.85
831.034	376.39
831.421	341.28
831.808	334.26
832.196	313.19
832.583	315.53
832.97	282.77
833.357	280.43
833.744	331.92
834.131	261.7
834.518	294.47
834.905	334.26
835.292	301.49
835.678	271.06
836.065	306.17
836.452	238.3
836.838	271.06
837.225	306.17
837.611	320.21
837.998	327.24
838.384	336.6
838.77	278.08
839.157	257.02
839.543	338.94
839.929	338.94
840.315	259.36
840.701	303.83
841.087	383.41
841.473	324.9
841.858	287.45
842.244	280.43
842.63	271.06
843.015	362.34
843.401	626.82
843.787	355.32
844.172	324.9
844.557	301.49
844.943	275.74
845.328	282.77
845.713	292.13
846.098	257.02
846.483	310.85
846.868	341.28
847.253	362.34
847.638	296.81
848.023	317.87
848.408	296.81
848.793	280.43
849.177	360
849.562	374.05
849.947	357.66
850.331	336.6
850.715	310.85
851.1	350.64
851.484	320.21
851.868	320.21
852.253	357.66
852.637	282.77
853.021	317.87
853.405	324.9
853.789	315.53
854.173	264.04
854.557	301.49
854.94	357.66
855.324	322.56
855.708	317.87
856.091	324.9
856.475	362.34
856.858	357.66
857.242	350.64
857.625	296.81
858.009	341.28
858.392	242.98
858.775	343.62
859.158	336.6
859.541	322.56
859.924	355.32
860.307	329.58
860.69	360
861.073	348.3
861.456	308.51
861.838	306.17
862.221	268.72
862.604	271.06
862.986	324.9
863.369	343.62
863.751	275.74
864.133	271.06
864.516	287.45
864.898	317.87
865.28	392.77
865.662	308.51
866.044	329.58
866.426	285.11
866.808	306.17
867.19	292.13
867.572	306.17
867.954	259.36
868.336	322.56
868.717	289.79
869.099	282.77
869.48	299.15
869.862	289.79
870.243	345.96
870.625	306.17
871.006	282.77
871.387	273.4
871.768	320.21
872.149	315.53
872.53	369.37
872.911	348.3
873.292	278.08
873.673	282.77
874.054	369.37
874.435	308.51
874.815	315.53
875.196	322.56
875.577	310.85
875.957	317.87
876.338	348.3
876.718	322.56
877.098	275.74
877.479	324.9
877.859	278.08
878.239	282.77
878.619	327.24
878.999	322.56
879.379	261.7
879.759	252.34
880.139	315.53
880.519	306.17
880.898	331.92
881.278	320.21
881.658	367.03
882.037	257.02
882.417	350.64
882.796	341.28
883.176	306.17
883.555	376.39
883.934	280.43
884.313	331.92
884.693	313.19
885.072	303.83
885.451	343.62
885.83	250
886.209	317.87
886.587	303.83
886.966	378.73
887.345	336.6
887.724	308.51
888.102	292.13
888.481	317.87
888.859	275.74
889.238	268.72
889.616	287.45
889.994	259.36
890.373	338.94
890.751	294.47
891.129	275.74
891.507	355.32
891.885	331.92
892.263	324.9
892.641	271.06
893.019	313.19
893.396	315.53
893.774	355.32
894.152	308.51
894.529	259.36
894.907	355.32
895.284	336.6
895.662	292.13
896.039	278.08
896.416	275.74
896.794	301.49
897.171	315.53
897.548	296.81
897.925	313.19
898.302	242.98
898.679	278.08
899.056	364.68
899.433	364.68
899.809	336.6
900.186	301.49
900.563	271.06
900.939	301.49
901.316	329.58
901.692	273.4
902.069	367.03
902.445	343.62
902.821	282.77
903.197	292.13
903.574	310.85
903.95	296.81
904.326	275.74
904.702	362.34
905.078	273.4
905.454	292.13
905.829	289.79
906.205	397.45
906.581	331.92
906.956	264.04
907.332	371.71
907.707	329.58
908.083	322.56
908.458	392.77
908.833	320.21
909.209	280.43
909.584	320.21
909.959	364.68
910.334	292.13
910.709	315.53
911.084	292.13
911.459	264.04
911.834	399.79
912.209	315.53
912.583	322.56
912.958	306.17
913.333	296.81
913.707	275.74
914.082	257.02
914.456	341.28
914.83	322.56
915.205	299.15
915.579	280.43
915.953	257.02
916.327	294.47
916.701	388.09
917.075	348.3
917.449	324.9
917.823	327.24
918.197	336.6
918.571	317.87
918.944	296.81
919.318	242.98
919.692	245.32
920.065	264.04
920.438	240.64
920.812	303.83
921.185	301.49
921.558	292.13
921.932	338.94
922.305	308.51
922.678	345.96
923.051	329.58
923.424	315.53
923.797	352.98
924.17	348.3
924.542	306.17
924.915	334.26
925.288	285.11
925.661	327.24
926.033	362.34
926.406	299.15
926.778	388.09
927.15	285.11
927.523	320.21
927.895	345.96
928.267	315.53
928.639	341.28
929.011	350.64
929.383	245.32
929.755	324.9
930.127	341.28
930.499	327.24
930.871	280.43
931.242	367.03
931.614	322.56
931.986	275.74
932.357	310.85
932.729	254.68
933.1	310.85
933.471	303.83
933.843	275.74
934.214	282.77
934.585	268.72
934.956	306.17
935.327	233.61
935.698	355.32
936.069	324.9
936.44	280.43
936.811	313.19
937.182	324.9
937.552	334.26
937.923	308.51
938.293	264.04
938.664	336.6
939.034	303.83
939.405	266.38
939.775	250
940.145	315.53
940.516	329.58
940.886	285.11
941.256	313.19
941.626	350.64
941.996	331.92
942.366	254.68
942.735	317.87
943.105	327.24
943.475	345.96
943.845	294.47
944.214	320.21
944.584	320.21
944.953	371.71
945.323	301.49
945.692	313.19
946.061	352.98
946.43	315.53
946.8	360
947.169	287.45
947.538	331.92
947.907	341.28
948.276	355.32
948.645	341.28
949.013	299.15
949.382	233.61
949.751	294.47
950.119	264.04
950.488	322.56
950.857	352.98
951.225	343.62
951.593	336.6
951.962	278.08
952.33	308.51
952.698	299.15
953.066	261.7
953.434	310.85
953.802	341.28
954.17	282.77
954.538	315.53
954.906	329.58
955.274	292.13
955.642	364.68
956.009	310.85
956.377	331.92
956.744	320.21
957.112	287.45
957.479	245.32
957.847	292.13
958.214	383.41
958.581	343.62
958.948	308.51
959.315	296.81
959.683	259.36
960.05	348.3
960.416	350.64
960.783	320.21
961.15	257.02
961.517	299.15
961.884	334.26
962.25	327.24
962.617	381.07
962.983	313.19
963.35	338.94
963.716	360
964.082	264.04
964.449	331.92
964.815	336.6
965.181	306.17
965.547	322.56
965.913	301.49
966.279	369.37
966.645	315.53
967.011	317.87
967.377	285.11
967.742	292.13
968.108	299.15
968.474	289.79
968.839	324.9
969.205	331.92
969.57	259.36
969.935	278.08
970.301	278.08
970.666	275.74
971.031	364.68
971.396	299.15
971.761	308.51
972.126	350.64
972.491	285.11
972.856	371.71
973.221	324.9
973.586	264.04
973.95	242.98
974.315	317.87
974.679	317.87
975.044	271.06
975.408	310.85
975.773	306.17
976.137	301.49
976.501	268.72
976.866	296.81
977.23	352.98
977.594	275.74
977.958	329.58
978.322	308.51
978.686	345.96
979.049	294.47
979.413	266.38
979.777	427.88
980.141	259.36
980.504	306.17
980.868	294.47
981.231	280.43
981.595	294.47
981.958	275.74
982.321	266.38
982.684	308.51
983.048	292.13
983.411	327.24
983.774	331.92
984.137	280.43
984.5	315.53
984.862	292.13
985.225	334.26
985.588	327.24
985.951	287.45
986.313	322.56
986.676	324.9
987.038	331.92
987.401	287.45
987.763	285.11
988.125	383.41
988.488	317.87
988.85	336.6
989.212	294.47
989.574	299.15
989.936	292.13
990.298	315.53
990.66	278.08
991.022	303.83
991.383	306.17
991.745	324.9
992.107	308.51
992.468	360
992.83	322.56
993.191	378.73
993.553	266.38
993.914	315.53
994.275	317.87
994.637	331.92
994.998	345.96
995.359	374.05
995.72	261.7
996.081	287.45
996.442	275.74
996.803	343.62
997.163	315.53
997.524	338.94
997.885	299.15
998.245	327.24
998.606	303.83
998.966	294.47
999.327	264.04
999.687	273.4
1000.047	315.53
1000.408	299.15
1000.768	308.51
1001.128	306.17
1001.488	282.77
1001.848	317.87
1002.208	296.81
1002.568	273.4
1002.927	322.56
1003.287	329.58
1003.647	250
1004.007	313.19
1004.366	287.45
1004.726	294.47
1005.085	310.85
1005.444	294.47
1005.804	275.74
1006.163	313.19
1006.522	378.73
1006.881	334.26
1007.24	336.6
1007.599	257.02
1007.958	345.96
1008.317	336.6
1008.676	299.15
1009.035	348.3
1009.393	308.51
1009.752	310.85
1010.111	292.13
1010.469	320.21
1010.828	259.36
1011.186	296.81
1011.544	278.08
1011.903	357.66
1012.261	324.9
1012.619	327.24
1012.977	303.83
1013.335	280.43
1013.693	310.85
1014.051	266.38
1014.409	282.77
1014.767	317.87
1015.124	268.72
1015.482	385.75
1015.84	350.64
1016.197	301.49
1016.555	287.45
1016.912	336.6
1017.269	301.49
1017.627	308.51
1017.984	329.58
1018.341	327.24
1018.698	306.17
1019.055	390.43
1019.412	296.81
1019.769	324.9
1020.126	273.4
1020.483	303.83
1020.84	313.19
1021.196	285.11
1021.553	355.32
1021.909	282.77
1022.266	327.24
1022.622	317.87
1022.979	299.15
1023.335	245.32
1023.691	268.72
1024.047	250
1024.404	315.53
1024.76	278.08
1025.116	301.49
1025.472	294.47
1025.827	289.79
1026.183	299.15
1026.539	294.47
1026.895	306.17
1027.25	275.74
1027.606	264.04
1027.961	315.53
1028.317	402.13
1028.672	327.24
1029.028	313.19
1029.383	250
1029.738	294.47
1030.093	334.26
1030.448	264.04
1030.803	364.68
1031.158	308.51
1031.513	313.19
1031.868	313.19
1032.223	315.53
1032.577	301.49
1032.932	315.53
1033.287	308.51
1033.641	341.28
1033.996	299.15
1034.35	338.94
1034.704	360
1035.059	278.08
1035.413	275.74
1035.767	275.74
1036.121	275.74
